DTS Sentinel unit serial number:	SN413079Multiplexer serial number:	ORYXHardware model number:	OX4-SRSoftware version number:	ORYX F/W v4.00 Oryx Data Collector v3.7.2.0data status	okinstallation	princeton_trtdifferential loss correction	single-endedforward channel	channel 2reverse channel	N/Adate	2019/09/11time	15:45:11forward acquisition time	60.00reverse acquisition time	0.00gamma	496.2192k internal	0.2288k external	0.2288temperature offset calibration	1.0013default loss term (dB/km)	0.3790temperature slope calibration	1.0000multiplexer offset coefficient	1.0000multiplexer slope coefficient	1.0000fibre end	0.00T internal ref (°C)	42.84T ext. ref 1 (°C)	1.03T ext. ref 2 (°C)	37.72length (m)	temperature (°C)	Stokes	anti-Stokes-747.200	-71.050	0.056	0.022
-746.185	29.063	-0.198	0.173
-745.171	-200.000	-0.000	0.070
-744.156	-103.223	0.066	0.016
-743.142	-16.869	0.187	0.121
-742.127	40.368	-0.257	0.237
-741.112	-46.286	0.197	0.099
-740.098	106.348	0.096	-0.117
-739.083	-144.484	0.318	-0.030
-738.069	44.012	-0.304	0.286
-737.054	-200.000	0.056	0.446
-736.039	55.529	0.129	0.128
-735.025	-139.138	0.252	0.028
-734.010	4.783	-0.234	0.177
-732.996	-183.661	-0.106	-0.002
-731.981	-68.052	-0.272	0.109
-730.966	703.898	0.034	0.091
-729.952	-200.000	-0.047	0.314
-728.937	130.471	-0.227	-0.298
-727.923	-200.000	-0.016	0.125
-726.908	-86.780	-0.185	0.058
-725.894	233.691	0.135	-0.227
-724.879	554.060	-0.088	0.218
-723.864	-108.443	-0.436	0.096
-722.850	-200.000	0.011	-0.169
-721.835	-200.000	-0.044	-0.392
-720.821	-130.662	0.480	0.066
-719.806	-88.751	-0.297	0.090
-718.791	513.723	0.048	0.116
-717.777	414.693	0.047	0.103
-716.762	58.626	0.140	0.141
-715.748	-200.000	0.004	-0.152
-714.733	800.000	-0.014	0.041
-713.718	91.977	0.261	-0.300
-712.704	800.000	-0.112	0.366
-711.689	50.572	0.211	-0.205
-710.675	327.723	0.057	-0.112
-709.660	-200.000	0.031	-0.165
-708.645	45.487	0.072	0.068
-707.631	-104.103	0.292	0.070
-706.616	-135.283	-0.373	0.046
-705.602	-110.207	0.079	-0.017
-704.587	36.227	-0.097	0.088
-703.572	-20.818	-0.352	-0.221
-702.558	302.792	-0.134	-0.254
-701.543	-146.077	-0.089	-0.008
-700.529	56.827	-0.245	-0.244
-699.514	-90.773	-0.392	-0.116
-698.499	23.277	0.120	0.101
-697.485	-104.389	0.497	0.118
-696.470	182.584	0.278	-0.420
-695.456	12.288	0.103	0.081
-694.441	709.951	0.073	-0.197
-693.426	-64.702	-0.087	0.036
-692.412	-148.979	-0.177	-0.015
-691.397	-200.000	0.015	-0.280
-690.383	-132.592	0.024	-0.003
-689.368	-71.534	-0.300	-0.115
-688.354	-99.413	0.032	0.008
-687.339	-150.899	0.142	0.011
-686.324	-83.525	-0.355	-0.116
-685.310	-52.235	-0.107	0.051
-684.295	-129.017	-0.099	-0.014
-683.281	97.930	-0.210	-0.248
-682.266	0.721	0.213	0.156
-681.251	30.144	-0.192	-0.168
-680.237	23.745	0.097	-0.082
-679.222	-40.823	0.228	-0.121
-678.208	497.725	-0.054	0.128
-677.193	71.619	0.217	0.231
-676.178	-93.431	-0.211	0.060
-675.164	187.074	0.197	-0.300
-674.149	-200.000	0.024	-0.174
-673.135	-45.507	-0.271	0.137
-672.120	-15.697	0.396	-0.258
-671.105	-27.692	-0.360	0.213
-670.091	800.000	-0.071	0.230
-669.076	202.027	0.098	-0.155
-668.062	-200.000	-0.011	0.204
-667.047	-200.000	-0.055	0.444
-666.032	-200.000	0.014	-0.231
-665.018	100.588	-0.148	-0.176
-664.003	-200.000	0.041	0.247
-662.989	800.000	-0.051	0.182
-661.974	-24.093	0.094	0.058
-660.959	-28.957	-0.341	-0.200
-659.945	166.376	0.079	0.114
-658.930	-92.610	-0.270	-0.077
-657.916	-118.539	0.211	0.038
-656.901	187.321	-0.084	0.128
-655.886	352.331	0.109	-0.220
-654.872	-87.688	0.173	-0.053
-653.857	-200.000	-0.031	0.207
-652.843	-59.598	0.297	-0.130
-651.828	201.077	0.137	0.216
-650.814	800.000	0.054	0.202
-649.799	96.725	-0.102	0.119
-648.784	99.173	-0.031	-0.037
-647.770	-200.000	-0.027	0.219
-646.755	328.714	0.103	-0.202
-645.741	570.886	0.112	-0.279
-644.726	-45.389	0.142	-0.072
-643.711	-113.589	-0.326	0.065
-642.697	800.000	0.037	0.149
-641.682	-141.129	-0.116	-0.012
-640.668	-109.589	-0.229	0.049
-639.653	-15.742	-0.138	0.090
-638.638	-175.677	-0.323	-0.009
-637.624	34.801	0.031	-0.028
-636.609	445.770	0.083	0.187
-635.595	271.756	0.198	-0.357
-634.580	800.000	0.024	0.069
-633.565	-73.451	-0.263	-0.098
-632.551	764.086	0.022	0.062
-631.536	388.629	0.128	-0.270
-630.522	62.963	-0.285	-0.291
-629.507	120.522	0.152	-0.193
-628.492	-72.171	-0.243	-0.092
-627.478	-88.880	0.301	0.091
-626.463	246.402	0.220	0.378
-625.449	800.000	0.060	-0.223
-624.434	-200.000	0.008	-0.107
-623.419	-110.011	0.220	0.047
-622.405	-110.224	0.101	0.021
-621.390	58.994	-0.237	0.237
-620.376	266.745	-0.169	-0.302
-619.361	-38.653	-0.200	-0.108
-618.346	-25.405	0.263	-0.159
-617.332	109.824	0.184	0.225
-616.317	267.277	-0.049	0.088
-615.303	800.000	-0.105	0.331
-614.288	-42.893	-0.189	-0.098
-613.273	25.495	-0.281	0.238
-612.259	-55.667	0.089	-0.041
-611.244	-200.000	-0.068	-0.390
-610.230	800.000	-0.057	-0.170
-609.215	-200.000	0.015	-0.092
-608.201	800.000	-0.057	0.197
-607.186	-47.634	0.088	-0.043
-606.171	-119.423	-0.163	-0.029
-605.157	-124.138	0.155	0.025
-604.142	-132.805	-0.244	-0.032
-603.128	210.707	0.038	-0.060
-602.113	-76.762	0.088	0.031
-601.098	-20.174	0.273	0.171
-600.084	800.000	-0.048	0.146
-599.069	-0.341	-0.004	0.003
-598.055	-109.132	0.416	-0.090
-597.040	-200.000	-0.025	-0.230
-596.025	-41.775	0.262	0.137
-595.011	-200.000	0.068	0.377
-593.996	-80.694	0.028	0.009
-592.982	17.178	-0.098	-0.079
-591.967	167.123	0.193	-0.280
-590.952	151.317	0.125	0.173
-589.938	163.526	-0.130	-0.186
-588.923	286.686	-0.120	-0.220
-587.909	-91.071	-0.363	0.106
-586.894	800.000	-0.077	0.247
-585.879	-106.795	0.285	-0.064
-584.865	-18.687	0.108	0.069
-583.850	31.795	0.186	-0.163
-582.836	-133.283	0.134	0.017
-581.821	-94.561	-0.313	-0.087
-580.806	-110.620	-0.429	0.090
-579.792	294.837	0.058	-0.108
-578.777	-104.383	0.086	-0.020
-577.763	-83.172	0.109	0.036
-576.748	-200.000	0.011	-0.091
-575.733	32.268	0.180	-0.158
-574.719	-200.000	-0.017	0.217
-573.704	-74.575	-0.219	0.080
-572.690	-200.000	-0.014	-0.152
-571.675	-88.578	0.234	0.071
-570.661	-29.449	0.183	-0.106
-569.646	800.000	0.045	0.176
-568.631	-15.262	0.150	-0.098
-567.617	19.189	0.072	-0.059
-566.602	-95.646	0.183	-0.050
-565.588	-56.598	-0.143	0.064
-564.573	-4.555	0.237	0.167
-563.558	-200.000	0.072	0.000
-562.544	454.242	0.050	0.113
-561.529	-139.259	0.199	-0.022
-560.515	-81.819	0.119	0.040
-559.500	-191.836	-0.089	0.001
-558.485	-72.066	-0.181	-0.068
-557.471	63.812	0.087	-0.089
-556.456	463.072	0.032	0.072
-555.442	-118.174	-0.364	0.066
-554.427	268.071	-0.138	0.246
-553.412	-200.000	0.042	0.213
-552.398	-127.860	-0.123	0.018
-551.383	-36.732	0.029	0.016
-550.369	-61.118	-0.248	0.107
-549.354	238.110	-0.290	-0.490
-548.339	-200.000	-0.012	0.095
-547.325	97.430	-0.040	0.047
-546.310	-150.207	-0.238	0.019
-545.296	-200.000	0.020	-0.187
-544.281	-148.982	-0.146	0.012
-543.266	-51.411	-0.091	-0.043
-542.252	-137.926	-0.234	0.027
-541.237	54.484	-0.247	0.242
-540.223	242.452	0.250	-0.426
-539.208	53.044	0.143	0.140
-538.193	-125.143	-0.339	-0.053
-537.179	129.077	0.128	-0.166
-536.164	27.786	-0.167	-0.143
-535.150	-200.000	-0.016	-0.169
-534.135	-120.619	-0.236	0.041
-533.121	800.000	-0.085	-0.241
-532.106	78.891	0.115	-0.125
-531.091	-200.000	0.010	-0.065
-530.077	235.041	0.075	-0.126
-529.062	-200.000	0.052	-0.285
-528.048	-200.000	0.004	-0.060
-527.033	-190.108	-0.130	0.001
-526.018	800.000	0.038	0.167
-525.004	-200.000	0.011	-0.133
-523.989	-72.814	-0.328	-0.123
-522.975	-200.000	0.353	-0.001
-521.960	800.000	0.055	-0.192
-520.945	-68.461	0.188	-0.074
-519.931	-109.670	0.189	0.040
-518.916	560.491	0.064	-0.156
-517.902	7.372	-0.309	-0.234
-516.887	-83.811	0.412	0.133
-515.872	43.884	0.033	-0.031
-514.858	-153.600	-0.089	0.006
-513.843	71.833	-0.151	0.160
-512.829	3.858	-0.167	0.124
-511.814	-200.000	0.041	0.237
-510.799	-200.000	-0.039	0.000
-509.785	-80.130	-0.256	0.087
-508.770	-59.056	0.368	-0.161
-507.756	380.588	-0.162	-0.337
-506.741	418.017	-0.078	0.170
-505.726	-48.439	0.212	0.104
-504.712	-95.720	0.050	0.014
-503.697	137.291	-0.222	-0.295
-502.683	204.201	0.040	0.063
-501.668	44.133	0.135	0.126
-500.653	55.942	0.126	0.124
-499.639	276.640	0.161	-0.291
-498.624	-155.358	-0.124	0.008
-497.610	57.103	0.054	-0.054
-496.595	102.488	0.181	-0.215
-495.581	-200.000	0.028	0.250
-494.566	800.000	-0.059	-0.209
-493.551	-190.714	0.212	0.002
-492.537	-39.679	0.137	-0.073
-491.522	457.537	0.141	0.318
-490.508	800.000	0.042	-0.187
-489.493	255.141	0.061	-0.106
-488.478	26.890	0.134	-0.114
-487.464	-37.394	0.113	0.061
-486.449	-118.455	-0.360	0.065
-485.435	-200.000	-0.029	-0.262
-484.420	252.552	-0.200	-0.345
-483.405	-20.201	-0.272	-0.170
-482.391	800.000	-0.025	0.109
-481.376	143.391	-0.090	0.122
-480.362	232.490	0.086	0.143
-479.347	230.328	0.240	-0.398
-478.332	-135.032	0.136	-0.017
-477.318	-81.778	0.089	-0.030
-476.303	-77.768	0.132	-0.046
-475.289	58.393	0.200	-0.199
-474.274	39.877	-0.323	0.294
-473.259	-70.147	0.383	-0.148
-472.245	-182.438	0.087	0.002
-471.230	90.343	0.159	0.180
-470.216	51.732	0.011	-0.011
-469.201	66.494	0.159	0.164
-468.186	75.279	-0.042	0.045
-467.172	82.117	0.117	-0.129
-466.157	-68.256	-0.155	-0.061
-465.143	-150.234	-0.182	0.014
-464.128	-56.595	-0.487	0.219
-463.113	13.450	0.114	-0.090
-462.099	478.668	-0.093	0.214
-461.084	800.000	-0.062	-0.196
-460.070	389.527	0.092	-0.193
-459.055	160.529	-0.069	0.098
-458.040	-13.406	0.197	0.129
-457.026	800.000	0.081	-0.275
-456.011	800.000	-0.013	0.042
-454.997	-178.384	-0.185	-0.004
-453.982	123.786	0.227	-0.289
-452.968	800.000	-0.052	0.179
-451.953	392.999	-0.155	0.327
-450.938	774.517	-0.066	0.184
-449.924	-12.200	0.157	-0.104
-448.909	-94.726	-0.102	0.028
-447.895	44.298	-0.162	0.151
-446.880	-11.229	0.326	0.218
-445.865	800.000	0.005	0.021
-444.851	119.016	0.076	-0.095
-443.836	-39.741	0.203	0.107
-442.822	352.138	0.159	0.320
-441.807	-200.000	-0.034	0.237
-440.792	83.427	-0.055	-0.061
-439.778	800.000	0.096	-0.294
-438.763	800.000	0.105	-0.378
-437.749	-96.346	0.160	0.043
-436.734	-80.972	0.025	0.009
-435.719	-52.238	0.157	-0.074
-434.705	-156.306	-0.113	0.007
-433.690	800.000	0.069	-0.195
-432.676	-200.000	-0.030	-0.350
-431.661	-200.000	0.012	-0.126
-430.646	-200.000	-0.038	0.194
-429.632	-16.800	-0.284	-0.182
-428.617	164.565	0.020	0.029
-427.603	129.145	0.401	-0.518
-426.588	13.315	-0.141	-0.111
-425.573	522.143	0.105	-0.250
-424.559	800.000	0.019	0.074
-423.544	-56.046	0.349	0.157
-422.530	-22.845	0.089	0.054
-421.515	659.529	0.118	-0.308
-420.500	-90.958	-0.341	-0.099
-419.486	-191.819	-0.283	0.003
-418.471	-29.096	0.149	0.086
-417.457	43.609	0.345	0.320
-416.442	-94.881	0.072	-0.020
-415.428	-37.639	0.080	-0.043
-414.413	-132.073	-0.291	0.038
-413.398	119.469	-0.068	0.085
-412.384	800.000	-0.102	0.310
-411.369	86.718	0.163	-0.182
-410.355	-118.144	0.104	-0.019
-409.340	86.018	0.127	-0.141
-408.325	194.311	0.123	-0.188
-407.311	71.318	-0.067	0.071
-406.296	143.683	0.188	0.253
-405.282	-23.505	-0.215	-0.131
-404.267	800.000	0.097	0.406
-403.252	-8.292	-0.248	-0.169
-402.238	701.459	0.063	-0.169
-401.223	65.488	-0.272	0.278
-400.209	20.097	0.271	0.221
-399.194	363.248	-0.085	0.172
-398.179	-156.502	-0.246	0.015
-397.165	47.127	-0.374	-0.352
-396.150	-200.000	0.042	-0.294
-395.136	109.415	-0.264	0.319
-394.121	-168.549	-0.359	0.014
-393.106	-71.773	0.090	0.034
-392.092	-24.378	-0.203	-0.123
-391.077	-125.755	-0.177	-0.027
-390.063	800.000	0.042	-0.120
-389.048	238.500	-0.112	0.189
-388.033	131.798	-0.123	0.160
-387.019	800.000	-0.034	-0.144
-386.004	-172.402	-0.292	0.009
-384.990	-32.835	-0.095	0.054
-383.975	-155.840	-0.233	0.015
-382.960	-87.710	0.046	-0.014
-381.946	601.799	-0.017	0.043
-380.931	-128.876	0.329	0.047
-379.917	-200.000	0.025	0.171
-378.902	-126.925	0.176	0.026
-377.888	249.496	-0.056	-0.097
-376.873	-98.296	0.009	0.002
-375.858	-127.364	-0.220	0.032
-374.844	-200.000	0.109	0.000
-373.829	-200.000	0.012	-0.385
-372.815	-16.322	-0.125	-0.080
-371.800	251.029	-0.060	0.103
-370.785	22.560	0.066	0.054
-369.771	259.045	0.133	0.231
-368.756	367.810	0.215	0.440
-367.742	-200.000	-0.034	-0.179
-366.727	-182.635	-0.475	-0.009
-365.712	-85.874	0.223	0.070
-364.698	-200.000	0.005	-0.032
-363.683	-1.669	0.090	-0.064
-362.669	72.990	0.087	0.091
-361.654	-200.000	0.003	0.047
-360.639	154.865	0.045	0.063
-359.625	-142.675	-0.092	-0.009
-358.610	-144.419	0.239	-0.022
-357.596	-79.472	0.090	-0.031
-356.581	-119.919	0.104	0.018
-355.566	83.126	0.191	0.210
-354.552	800.000	-0.087	0.363
-353.537	-28.030	0.375	-0.219
-352.523	113.106	0.083	0.101
-351.508	325.369	0.081	0.156
-350.493	43.269	0.161	-0.148
-349.479	112.212	0.088	-0.108
-348.464	-200.000	0.069	-0.317
-347.450	-200.000	-0.011	-0.055
-346.435	-200.000	-0.032	0.267
-345.420	800.000	-0.052	-0.165
-344.406	248.507	-0.145	0.247
-343.391	63.469	0.216	0.218
-342.377	-200.000	-0.034	-0.173
-341.362	392.216	-0.143	-0.299
-340.348	-73.951	-0.243	-0.089
-339.333	-3.662	0.027	0.019
-338.318	-35.060	0.236	0.130
-337.304	-200.000	-0.033	0.255
-336.289	172.676	-0.154	0.224
-335.275	-110.211	0.413	-0.087
-334.260	211.660	-0.017	0.027
-333.245	800.000	-0.053	0.224
-332.231	-200.000	0.042	0.444
-331.216	-128.604	-0.316	-0.045
-330.202	-200.000	-0.049	-0.290
-329.187	-71.183	-0.128	-0.049
-328.172	186.036	0.096	0.143
-327.158	424.709	0.162	0.351
-326.143	-33.099	0.206	-0.115
-325.129	-200.000	0.025	0.199
-324.114	-108.218	0.131	0.029
-323.099	-200.000	-0.025	-0.221
-322.085	-200.000	0.054	-0.275
-321.070	800.000	-0.070	-0.234
-320.056	-18.759	-0.243	-0.153
-319.041	-104.649	-0.127	0.029
-318.026	-200.000	0.000	0.158
-317.012	-14.248	-0.259	0.168
-315.997	-126.850	-0.392	-0.058
-314.983	-134.119	0.235	0.029
-313.968	361.366	-0.046	-0.094
-312.953	-115.057	0.248	0.047
-311.939	60.803	-0.074	-0.074
-310.924	-68.931	0.110	0.043
-309.910	20.113	0.097	-0.079
-308.895	376.388	-0.121	0.250
-307.880	-87.841	-0.326	0.099
-306.866	-78.526	0.313	-0.108
-305.851	70.331	-0.107	-0.111
-304.837	15.585	-0.092	-0.073
-303.822	443.747	0.085	0.188
-302.807	-136.459	0.186	-0.022
-301.793	-76.597	0.069	0.024
-300.778	83.403	0.196	-0.215
-299.764	-200.000	-0.021	0.138
-298.749	124.526	-0.101	0.128
-297.735	-62.393	-0.106	-0.045
-296.720	-115.759	0.310	0.058
-295.705	800.000	0.096	0.290
-294.691	800.000	0.029	0.095
-293.676	296.240	0.141	0.261
-292.662	131.616	0.188	-0.243
-291.647	395.653	0.029	0.060
-290.632	-119.684	0.059	0.010
-289.618	-109.765	0.203	0.043
-288.603	-200.000	-0.027	0.428
-287.589	165.695	-0.222	-0.316
-286.574	-200.000	0.024	0.137
-285.559	16.784	-0.195	-0.155
-284.545	-84.737	-0.369	-0.117
-283.530	-162.812	0.039	0.002
-282.516	-200.000	-0.013	0.170
-281.501	-200.000	-0.015	-0.139
-280.486	52.575	0.060	-0.058
-279.472	-88.865	0.394	0.118
-278.457	163.712	-0.206	-0.292
-277.443	800.000	0.059	-0.209
-276.428	800.000	0.053	-0.193
-275.413	-3.429	0.132	-0.092
-274.399	-200.000	0.009	-0.167
-273.384	18.045	0.252	0.202
-272.370	-32.499	-0.257	0.144
-271.355	238.981	0.083	0.139
-270.340	-200.000	0.066	-0.296
-269.326	-68.431	-0.298	0.116
-268.311	800.000	0.013	0.051
-267.297	-68.799	0.146	-0.057
-266.282	55.815	-0.305	0.297
-265.267	-137.042	0.182	-0.021
-264.253	-105.884	-0.348	-0.079
-263.238	-200.000	-0.011	0.160
-262.224	800.000	-0.018	0.071
-261.209	-181.458	-0.121	-0.002
-260.195	-53.737	-0.031	0.014
-259.180	-99.203	0.192	0.049
-258.165	-200.000	-0.031	0.236
-257.151	133.074	-0.073	0.094
-256.136	5.429	-0.073	-0.054
-255.122	-149.140	0.154	0.012
-254.107	-30.880	0.146	0.083
-253.092	203.285	-0.171	0.266
-252.078	-200.000	-0.035	0.198
-251.063	-200.000	0.001	-0.215
-250.049	-200.000	-0.047	-0.243
-249.034	-200.000	0.001	0.156
-248.019	-200.000	0.011	0.132
-247.005	800.000	-0.084	-0.246
-245.990	372.692	-0.233	-0.477
-244.976	-200.000	-0.017	0.259
-243.961	130.693	0.226	0.292
-242.946	89.602	0.228	-0.256
-241.932	-200.000	0.053	-0.235
-240.917	-78.034	0.100	0.035
-239.903	-55.270	0.109	-0.049
-238.888	71.715	0.137	-0.143
-237.873	145.881	0.194	0.261
-236.859	-127.022	0.222	-0.033
-235.844	-141.297	0.098	-0.010
-234.830	-200.000	0.041	0.225
-233.815	79.978	0.091	-0.099
-232.800	21.834	-0.105	0.086
-231.786	301.064	-0.142	-0.263
-230.771	-200.000	0.039	0.238
-229.757	327.536	0.040	0.078
-228.742	-74.451	-0.131	-0.047
-227.727	434.659	0.036	0.078
-226.713	-81.918	-0.138	-0.046
-225.698	598.532	-0.103	0.256
-224.684	-200.000	-0.030	0.186
-223.669	-200.000	-0.013	-0.071
-222.655	-129.177	-0.243	0.034
-221.640	62.312	0.072	0.072
-220.625	800.000	0.082	0.321
-219.611	-12.681	0.178	-0.117
-218.596	-155.169	0.158	-0.010
-217.582	42.255	0.232	0.211
-216.567	800.000	0.092	0.317
-215.552	-21.219	0.262	-0.161
-214.538	800.000	-0.038	0.109
-213.523	577.208	0.178	0.437
-212.509	-10.445	0.366	0.243
-211.494	800.000	-0.058	-0.185
-210.479	800.000	0.043	0.166
-209.465	-200.000	0.054	-0.282
-208.450	4.251	-0.188	-0.138
-207.436	-183.407	-0.284	0.005
-206.421	800.000	-0.148	-0.419
-205.406	521.430	0.142	-0.335
-204.392	213.081	0.086	-0.137
-203.377	-85.940	0.093	0.029
-202.363	140.741	-0.090	0.119
-201.348	-125.329	-0.293	0.045
-200.333	-108.084	-0.285	-0.062
-199.319	-53.834	-0.089	0.041
-198.304	218.696	0.038	0.061
-197.290	-63.709	-0.067	0.027
-196.275	-77.209	0.152	-0.053
-195.260	-200.000	-0.023	0.192
-194.246	-141.112	0.133	0.014
-193.231	51.124	-0.118	0.112
-192.217	761.310	-0.122	-0.331
-191.202	-115.513	0.084	0.016
-190.187	-200.000	-0.004	0.134
-189.173	104.190	0.099	0.117
-188.158	-200.000	-0.082	-0.410
-187.144	216.900	0.279	-0.445
-186.129	-6.731	0.039	0.027
-185.114	-70.943	-0.251	-0.095
-184.100	-115.599	-0.317	-0.060
-183.085	-200.000	0.023	-0.174
-182.071	800.000	0.052	-0.174
-181.056	46.881	0.137	0.128
-180.042	6.365	0.103	0.076
-179.027	84.095	-0.103	0.113
-178.012	-194.439	-0.278	-0.002
-176.998	41.950	-0.140	-0.127
-175.983	-104.332	-0.047	-0.011
-174.969	269.935	-0.182	0.321
-173.954	393.709	-0.172	0.359
-172.939	236.476	-0.226	0.375
-171.925	-200.000	0.037	0.215
-170.910	-121.186	-0.256	0.043
-169.896	-200.000	0.002	0.117
-168.881	-200.000	-0.049	0.325
-167.866	189.483	0.083	0.124
-166.852	-80.892	-0.249	0.083
-165.837	800.000	0.073	-0.304
-164.823	-200.000	0.006	0.029
-163.808	-54.634	-0.410	0.186
-162.793	-139.228	0.101	-0.011
-161.779	732.030	-0.190	0.509
-160.764	-200.000	0.021	-0.255
-159.750	800.000	0.065	-0.255
-158.735	260.158	-0.089	-0.154
-157.720	180.260	-0.066	0.096
-156.706	-200.000	-0.017	-0.155
-155.691	-57.760	-0.201	0.088
-154.677	-47.885	0.293	0.142
-153.662	343.451	0.093	-0.183
-152.647	-107.145	0.191	-0.042
-151.633	-14.250	-0.107	-0.069
-150.618	-21.832	-0.015	0.009
-149.604	-200.000	-0.018	0.188
-148.589	-43.469	-0.269	-0.136
-147.574	-82.258	-0.269	0.088
-146.560	620.612	0.188	0.472
-145.545	-133.887	0.275	0.034
-144.531	127.950	-0.064	0.082
-143.516	248.532	-0.085	0.144
-142.502	-200.000	-0.012	0.144
-141.487	-142.302	-0.039	-0.004
-140.472	-26.187	-0.175	0.103
-139.458	352.196	0.088	0.174
-138.443	800.000	-0.050	-0.200
-137.429	-27.718	-0.236	-0.137
-136.414	-137.949	0.184	0.021
-135.399	800.000	-0.067	0.227
-134.385	-19.384	-0.160	0.100
-133.370	479.790	-0.152	0.345
-132.356	-22.282	0.162	0.098
-131.341	-41.197	-0.116	0.060
-130.326	177.859	0.028	0.042
-129.312	-62.358	-0.315	0.131
-128.297	634.240	-0.056	0.143
-127.283	-200.000	-0.026	-0.320
-126.268	332.194	0.184	0.356
-125.253	-63.524	0.055	0.023
-124.239	64.352	0.160	-0.161
-123.224	-100.893	0.388	-0.095
-122.210	294.703	0.074	0.135
-121.195	-110.757	-0.177	0.037
-120.180	140.390	0.138	-0.182
-119.166	143.671	0.189	-0.252
-118.151	18.445	-0.211	-0.168
-117.137	-191.688	0.119	0.001
-116.122	156.939	-0.069	0.096
-115.107	48.659	0.085	-0.080
-114.093	-61.395	-0.288	0.121
-113.078	-200.000	0.036	-0.355
-112.064	-111.697	0.235	-0.048
-111.049	120.904	0.178	-0.222
-110.034	32.357	-0.170	-0.147
-109.020	385.918	0.090	0.185
-108.005	800.000	-0.076	-0.280
-106.991	16.133	-0.187	0.147
-105.976	-191.641	-0.290	0.003
-104.962	133.147	-0.170	0.220
-103.947	110.677	-0.273	0.328
-102.932	800.000	0.037	0.131
-101.918	131.603	-0.053	0.068
-100.903	-105.412	-0.169	-0.038
-99.889	-147.289	0.130	0.011
-98.874	-200.000	0.045	0.288
-97.859	358.766	0.099	0.198
-96.845	-115.833	-0.093	-0.017
-95.830	3.334	-0.248	-0.181
-94.816	-200.000	0.012	0.166
-93.801	-200.000	0.012	0.147
-92.786	-200.000	-0.024	0.146
-91.772	800.000	-0.021	0.075
-90.757	19.095	-0.439	0.352
-89.743	127.348	0.141	-0.178
-88.728	-65.747	0.260	0.104
-87.713	175.013	-0.125	0.181
-86.699	-80.484	0.234	-0.078
-85.684	-89.998	-0.230	0.067
-84.670	-125.581	-0.323	0.049
-83.655	-54.966	0.114	0.051
-82.640	-200.000	-0.054	0.421
-81.626	-39.352	0.036	0.019
-80.611	-200.000	-0.009	-0.117
-79.597	572.970	0.097	-0.237
-78.582	14.676	0.148	0.115
-77.567	-108.217	-0.161	-0.035
-76.553	421.675	0.060	0.128
-75.538	-1.300	0.224	0.158
-74.524	-85.406	-0.288	0.090
-73.509	284.444	-0.116	-0.209
-72.494	201.012	-0.077	0.119
-71.480	-200.000	-0.031	0.337
-70.465	79.177	0.155	0.166
-69.451	800.000	0.066	-0.184
-68.436	29.736	0.160	0.136
-67.422	159.540	0.208	-0.289
-66.407	4.178	-0.072	0.052
-65.392	113.644	0.138	-0.167
-64.378	-200.000	0.073	0.377
-63.363	800.000	0.011	0.032
-62.349	800.000	0.039	-0.129
-61.334	124.791	-0.585	-0.735
-60.319	599.599	0.197	0.487
-59.305	-200.000	0.017	-0.636
-58.290	226.805	0.422	0.684
-57.276	432.783	0.736	1.594
-56.261	-200.000	74.901	541.801
-55.246	578.722	1299.432	3173.247
-54.232	146.087	2528.168	3384.356
-53.217	114.731	2342.655	2849.750
-52.203	52.792	1958.364	1868.078
-51.188	46.501	1745.846	1616.135
-50.173	43.335	1699.250	1548.694
-49.159	57.212	1731.867	1685.815
-48.144	63.486	1750.145	1751.903
-47.130	46.201	1714.132	1584.212
-46.115	42.987	1700.560	1546.972
-45.100	42.824	1696.179	1541.673
-44.086	42.743	1693.056	1538.158
-43.071	42.604	1691.214	1535.361
-42.057	42.647	1688.579	1533.233
-41.042	42.696	1686.332	1531.512
-40.027	42.651	1684.649	1529.577
-39.013	42.664	1682.594	1527.746
-37.998	42.567	1681.294	1525.773
-36.984	42.747	1679.318	1525.285
-35.969	42.838	1678.049	1524.759
-34.954	42.889	1676.631	1523.799
-33.940	42.878	1674.272	1521.510
-32.925	42.849	1672.860	1519.950
-31.911	42.816	1671.164	1518.094
-30.896	42.843	1669.082	1516.346
-29.881	42.806	1667.468	1514.540
-28.867	42.839	1665.142	1512.615
-27.852	42.735	1664.361	1511.064
-26.838	42.754	1662.966	1509.887
-25.823	42.885	1661.575	1509.547
-24.809	42.917	1659.896	1508.195
-23.794	42.878	1658.427	1506.509
-22.779	42.879	1657.101	1505.257
-21.765	42.825	1655.626	1503.452
-20.750	42.831	1653.491	1501.501
-19.736	42.986	1651.604	1500.883
-18.721	42.937	1650.382	1499.348
-17.706	42.848	1649.480	1497.803
-16.692	42.875	1647.235	1495.903
-15.677	42.854	1646.259	1494.802
-14.663	42.926	1644.801	1493.959
-13.648	42.910	1643.567	1492.656
-12.633	42.929	1641.784	1491.120
-11.619	42.837	1640.379	1489.106
-10.604	42.843	1638.529	1487.409
-9.590	42.856	1637.141	1486.187
-8.575	42.948	1635.479	1485.299
-7.560	42.942	1634.643	1484.438
-6.546	42.901	1633.485	1483.026
-5.531	42.920	1632.435	1482.151
-4.517	42.849	1631.299	1480.536
-3.502	42.866	1629.811	1479.255
-2.487	42.760	1629.215	1477.875
-1.473	42.874	1617.329	1467.866
-0.458	40.536	1597.281	1432.747
0.556	35.756	1595.637	1397.005
1.571	32.922	1619.555	1396.888
2.586	32.083	1634.685	1403.543
3.600	28.299	1580.500	1329.492
4.615	15.532	1458.714	1140.792
5.629	3.434	1381.986	1002.416
6.644	1.146	1370.874	979.502
7.659	1.008	1369.585	977.600
8.673	1.064	1367.867	976.647
9.688	0.902	1366.880	974.818
10.702	0.695	1363.754	971.169
11.717	4.616	1372.603	1002.707
12.731	16.240	1394.468	1094.371
13.746	23.990	1407.779	1155.242
14.761	24.606	1407.474	1158.890
15.775	24.601	1406.839	1158.229
16.790	24.746	1406.249	1158.585
17.804	24.722	1405.712	1157.884
18.819	25.036	1405.293	1159.464
19.834	25.129	1404.802	1159.561
20.848	25.016	1404.079	1158.131
21.863	25.100	1403.047	1157.717
22.877	25.026	1402.232	1156.464
23.892	24.980	1401.267	1155.273
24.907	25.087	1400.318	1155.079
25.921	24.969	1399.899	1153.869
26.936	24.998	1398.728	1152.985
27.950	25.064	1397.493	1152.295
28.965	25.014	1396.417	1150.981
29.980	25.071	1394.783	1149.899
30.994	25.065	1393.568	1148.754
32.009	25.044	1392.368	1147.531
33.023	25.123	1390.937	1146.756
34.038	25.064	1390.199	1145.671
35.053	25.097	1388.784	1144.615
36.067	25.090	1387.928	1143.763
37.082	25.140	1386.840	1143.084
38.096	25.103	1385.965	1142.024
39.111	24.935	1385.911	1140.808
40.126	25.061	1384.905	1140.681
41.140	25.026	1383.946	1139.568
42.155	25.012	1384.207	1139.592
43.169	25.059	1383.915	1139.549
44.184	24.829	1384.577	1138.531
45.199	25.049	1383.206	1138.702
46.213	25.026	1382.976	1138.268
47.228	24.992	1381.797	1136.976
48.242	24.977	1380.702	1135.881
49.257	24.971	1379.101	1134.426
50.271	25.041	1377.715	1133.628
51.286	24.959	1376.504	1132.011
52.301	25.025	1375.294	1131.338
53.315	25.004	1374.150	1130.162
54.330	25.042	1373.235	1129.548
55.344	25.100	1372.117	1128.896
56.359	25.029	1370.853	1127.306
57.374	25.066	1370.363	1127.039
58.388	25.038	1369.699	1126.215
59.403	25.038	1369.370	1125.843
60.417	25.061	1368.305	1125.017
61.432	25.074	1367.551	1124.377
62.447	25.060	1366.765	1123.545
63.461	24.994	1365.926	1122.340
64.476	25.152	1364.519	1122.075
65.490	25.007	1363.610	1120.323
66.505	24.949	1362.361	1118.836
67.520	25.040	1361.128	1118.288
68.534	25.021	1359.936	1117.090
69.549	25.004	1359.243	1116.316
70.563	25.107	1357.907	1115.764
71.578	25.064	1357.197	1114.811
72.593	24.981	1356.624	1113.728
73.607	25.041	1355.773	1113.301
74.622	24.937	1354.949	1111.884
75.636	25.035	1354.185	1111.769
76.651	25.069	1353.302	1111.153
77.666	25.018	1353.027	1110.516
78.680	24.976	1352.304	1109.560
79.695	24.957	1351.946	1109.053
80.709	25.058	1351.176	1108.950
81.724	25.118	1349.507	1107.852
82.739	25.048	1348.622	1106.592
83.753	25.101	1347.819	1106.165
84.768	25.032	1346.672	1104.696
85.782	25.063	1345.359	1103.712
86.797	25.014	1344.777	1102.836
87.812	25.183	1343.050	1102.362
88.826	25.115	1342.228	1101.174
89.841	25.109	1340.908	1099.956
90.855	25.040	1340.604	1099.185
91.870	25.029	1339.500	1098.116
92.884	25.111	1338.664	1097.839
93.899	25.123	1337.877	1097.167
94.914	25.058	1337.531	1096.387
95.928	25.080	1336.528	1095.605
96.943	25.033	1335.589	1094.448
97.957	25.126	1334.888	1094.346
98.972	25.029	1334.264	1093.144
99.987	25.160	1332.912	1092.739
101.001	25.145	1332.272	1092.028
102.016	25.015	1331.525	1090.528
103.030	25.039	1330.834	1090.013
104.045	25.103	1330.038	1089.654
105.060	25.100	1328.447	1088.235
106.074	25.061	1327.652	1087.249
107.089	25.147	1326.604	1086.817
108.103	25.072	1325.926	1085.712
109.118	25.134	1324.314	1084.667
110.133	25.100	1323.297	1083.536
111.147	25.208	1321.745	1082.817
112.162	25.207	1320.921	1082.041
113.176	25.248	1320.088	1081.511
114.191	25.076	1319.296	1079.734
115.206	25.025	1318.513	1078.687
116.220	25.104	1317.048	1077.870
117.235	25.072	1316.042	1076.761
118.249	25.129	1315.285	1076.384
119.264	25.152	1314.285	1075.613
120.279	25.128	1313.418	1074.664
121.293	25.242	1312.728	1074.686
122.308	25.168	1312.317	1073.810
123.322	25.151	1310.925	1072.476
124.337	25.215	1310.011	1072.011
125.352	25.145	1309.128	1070.776
126.366	25.264	1308.219	1070.653
127.381	25.198	1307.347	1069.448
128.395	25.248	1306.352	1068.836
129.410	25.175	1306.237	1068.216
130.424	25.311	1304.996	1067.917
131.439	25.195	1304.523	1066.746
132.454	25.227	1303.426	1065.940
133.468	25.119	1303.158	1064.989
134.483	25.258	1302.294	1065.012
135.497	25.314	1301.179	1064.335
136.512	25.251	1300.267	1063.123
137.527	25.296	1299.116	1062.354
138.541	25.261	1297.959	1061.110
139.556	25.141	1296.690	1059.269
140.570	25.105	1296.246	1058.599
141.585	25.209	1294.856	1057.982
142.600	25.195	1293.610	1056.789
143.614	25.250	1292.674	1056.258
144.629	25.210	1291.889	1055.282
145.643	25.179	1290.753	1054.079
146.658	25.102	1289.940	1052.872
147.673	25.134	1289.221	1052.379
148.687	25.048	1288.119	1050.883
149.702	25.098	1286.758	1049.970
150.716	25.243	1285.223	1049.473
151.731	25.122	1284.736	1048.275
152.746	25.307	1283.153	1047.972
153.760	25.196	1282.598	1046.777
154.775	25.117	1281.457	1045.295
155.789	25.149	1280.579	1044.673
156.804	25.180	1279.297	1043.713
157.819	25.109	1278.804	1042.804
158.833	25.161	1277.982	1042.348
159.848	25.223	1277.040	1041.848
160.862	25.155	1276.589	1040.989
161.877	25.298	1275.420	1040.777
162.892	25.307	1274.310	1039.830
163.906	25.284	1273.836	1039.219
164.921	25.276	1273.206	1038.567
165.935	25.349	1272.360	1038.204
166.950	25.231	1272.060	1037.190
167.964	25.370	1271.375	1037.339
168.979	25.321	1270.199	1036.007
169.994	25.372	1269.882	1035.949
171.008	25.374	1269.338	1035.423
172.023	25.228	1268.974	1034.195
173.037	25.284	1267.777	1033.452
174.052	25.210	1267.419	1032.644
175.067	25.211	1266.704	1031.973
176.081	25.271	1265.571	1031.306
177.096	25.256	1264.859	1030.549
178.110	25.317	1263.835	1029.973
179.125	25.263	1263.298	1029.135
180.140	25.278	1262.097	1028.148
181.154	25.306	1260.517	1026.932
182.169	25.232	1260.020	1026.012
183.183	25.287	1258.947	1025.363
184.198	25.236	1257.868	1024.104
185.213	25.374	1256.396	1023.597
186.227	25.383	1255.793	1023.068
187.242	25.516	1254.693	1022.837
188.256	25.291	1254.424	1021.249
189.271	25.348	1253.467	1020.702
190.286	25.413	1252.385	1020.104
191.300	25.358	1252.256	1019.592
192.315	25.320	1251.738	1018.863
193.329	25.385	1251.171	1018.680
194.344	25.364	1250.631	1018.031
195.359	25.463	1250.254	1018.198
196.373	25.268	1249.964	1016.766
197.388	25.339	1249.188	1016.447
198.402	25.336	1248.740	1015.975
199.417	25.341	1248.164	1015.447
200.432	25.454	1247.652	1015.580
201.446	25.408	1247.030	1014.724
202.461	25.311	1246.382	1013.558
203.475	25.235	1246.078	1012.791
204.490	25.470	1244.272	1012.557
205.504	25.302	1244.066	1011.356
206.519	25.443	1242.753	1010.991
207.534	25.546	1241.504	1010.462
208.548	25.538	1240.485	1009.500
209.563	25.349	1240.382	1008.266
210.577	25.533	1239.243	1008.281
211.592	25.420	1238.413	1006.886
212.607	25.514	1237.953	1006.949
213.621	25.517	1236.893	1006.012
214.636	25.624	1235.481	1005.377
215.650	25.537	1235.207	1004.575
216.665	25.544	1234.235	1003.738
217.680	25.544	1233.376	1002.951
218.694	25.429	1233.042	1001.946
219.709	25.644	1231.422	1001.739
220.723	25.452	1231.249	1000.443
221.738	25.507	1230.480	1000.035
222.753	25.491	1229.560	999.111
223.767	25.596	1229.246	999.351
224.782	25.659	1228.708	999.171
225.796	25.623	1228.120	998.408
226.811	25.659	1227.759	998.227
227.826	25.584	1227.339	997.378
228.840	25.664	1226.165	996.778
229.855	25.571	1225.499	995.636
230.869	25.587	1224.885	995.136
231.884	25.679	1223.857	994.724
232.899	25.560	1223.762	993.901
233.913	25.564	1222.758	993.018
234.928	25.728	1221.913	993.152
235.942	25.633	1222.112	992.700
236.957	25.679	1220.821	991.813
237.972	25.633	1220.387	991.124
238.986	25.702	1219.788	990.926
240.001	25.676	1219.525	990.481
241.015	25.815	1218.268	990.141
242.030	25.802	1217.312	989.204
243.045	25.789	1216.666	988.519
244.059	25.783	1215.870	987.750
245.074	25.818	1215.231	987.339
246.088	25.802	1214.341	986.438
247.103	25.759	1213.606	985.517
248.117	25.837	1212.576	985.021
249.132	25.708	1212.145	983.880
250.147	25.784	1211.873	983.985
251.161	25.901	1210.770	983.642
252.176	25.950	1210.137	983.309
253.190	25.814	1209.437	981.913
254.205	25.805	1209.067	981.474
255.220	25.709	1208.425	980.346
256.234	25.855	1207.838	980.574
257.249	25.899	1206.585	979.710
258.263	25.930	1206.185	979.470
259.278	25.873	1205.950	978.881
260.293	25.972	1204.981	978.548
261.307	25.937	1204.772	978.097
262.322	25.942	1204.362	977.708
263.336	25.959	1203.410	976.942
264.351	26.023	1202.556	976.504
265.366	25.818	1202.703	975.430
266.380	25.899	1201.726	974.989
267.395	25.965	1200.957	974.638
268.409	25.927	1200.469	973.946
269.424	25.872	1199.785	973.008
270.439	25.952	1199.245	972.919
271.453	25.835	1199.125	972.104
272.468	25.874	1198.035	971.345
273.482	25.911	1196.964	970.591
274.497	25.881	1196.731	970.152
275.512	26.040	1195.822	970.186
276.526	26.051	1195.165	969.624
277.541	26.118	1194.430	969.304
278.555	26.007	1194.130	968.379
279.570	26.018	1193.434	967.785
280.585	25.981	1192.831	967.014
281.599	26.009	1191.667	966.136
282.614	26.012	1191.018	965.540
283.628	26.072	1190.016	964.962
284.643	26.111	1188.950	964.218
285.657	26.078	1188.197	963.346
286.672	26.038	1187.313	962.334
287.687	26.106	1186.355	961.834
288.701	26.205	1185.733	961.773
289.716	26.142	1184.863	960.647
290.730	26.107	1184.495	960.075
291.745	26.099	1184.199	959.711
292.760	26.159	1183.301	959.215
293.774	26.246	1182.399	958.862
294.789	26.257	1182.349	958.791
295.803	26.224	1181.758	958.053
296.818	26.217	1181.181	957.466
297.833	26.225	1180.427	956.810
298.847	26.117	1179.654	955.526
299.862	26.268	1178.767	955.525
300.876	26.159	1178.641	954.761
301.891	26.197	1177.734	954.142
302.906	26.373	1176.975	954.373
303.920	26.302	1176.177	953.265
304.935	26.396	1175.374	953.026
305.949	26.280	1174.791	951.857
306.964	26.285	1174.419	951.500
307.979	26.355	1173.733	951.225
308.993	26.263	1173.470	950.444
310.008	26.484	1171.995	950.327
311.022	26.421	1171.481	949.496
312.037	26.320	1170.816	948.341
313.052	26.314	1170.120	947.663
314.066	26.395	1169.086	947.170
315.081	26.263	1168.819	946.175
316.095	26.354	1168.106	945.993
317.110	26.462	1167.044	945.612
318.125	26.389	1166.794	944.945
319.139	26.477	1165.947	944.633
320.154	26.398	1165.376	943.674
321.168	26.383	1165.077	943.271
322.183	26.478	1164.554	943.259
323.197	26.409	1163.524	941.981
324.212	26.342	1163.027	941.149
325.227	26.434	1162.700	941.282
326.241	26.527	1161.805	940.953
327.256	26.434	1161.421	940.079
328.270	26.494	1160.194	939.315
329.285	26.555	1159.480	938.967
330.300	26.541	1158.806	938.267
331.314	26.548	1157.866	937.459
332.329	26.503	1157.442	936.798
333.343	26.512	1156.428	935.943
334.358	26.587	1155.903	935.821
335.373	26.605	1154.844	934.977
336.387	26.601	1153.971	934.165
337.402	26.521	1154.069	933.746
338.416	26.511	1153.450	933.113
339.431	26.553	1152.631	932.586
340.446	26.684	1151.838	932.537
341.460	26.580	1151.167	931.374
342.475	26.662	1150.341	931.045
343.489	26.714	1149.643	930.667
344.504	26.639	1148.885	929.586
345.519	26.743	1147.660	929.042
346.533	26.834	1146.799	928.732
347.548	26.698	1146.292	927.539
348.562	26.741	1145.400	926.959
349.577	26.825	1144.654	926.701
350.592	26.776	1143.940	925.794
351.606	26.896	1142.916	925.490
352.621	26.795	1142.923	924.899
353.635	26.726	1142.365	924.015
354.650	26.864	1141.509	923.944
355.665	26.894	1141.195	923.760
356.679	26.893	1140.178	922.854
357.694	26.908	1139.594	922.372
358.708	26.758	1139.079	921.113
359.723	26.811	1138.340	920.706
360.738	26.810	1137.933	920.289
361.752	26.687	1137.638	919.342
362.767	26.875	1136.786	919.527
363.781	26.930	1136.184	919.236
364.796	26.950	1135.459	918.671
365.810	26.989	1134.813	918.264
366.825	27.014	1133.906	917.573
367.840	27.042	1133.861	917.599
368.854	26.959	1133.736	916.999
369.869	27.019	1132.565	916.273
370.883	27.016	1131.752	915.516
371.898	26.972	1131.469	914.988
372.913	26.955	1130.765	914.251
373.927	27.064	1130.102	914.180
374.942	27.086	1129.361	913.611
375.956	27.193	1128.779	913.597
376.971	27.061	1128.244	912.423
377.986	27.045	1128.062	912.111
379.000	27.059	1127.947	912.010
380.015	27.082	1126.899	911.196
381.029	27.042	1126.431	910.535
382.044	27.106	1125.495	910.021
383.059	27.196	1124.685	909.737
384.073	27.131	1124.118	908.870
385.088	27.191	1123.132	908.292
386.102	27.150	1122.420	907.432
387.117	27.161	1121.285	906.488
388.132	27.135	1120.859	905.933
389.146	27.208	1120.140	905.636
390.161	27.285	1119.323	905.280
391.175	27.246	1118.478	904.323
392.190	27.191	1118.157	903.710
393.205	27.205	1117.393	903.079
394.219	27.144	1116.938	902.331
395.234	27.327	1115.931	902.344
396.248	27.263	1114.901	901.114
397.263	27.277	1114.161	900.509
398.278	27.343	1113.756	900.425
399.292	27.303	1113.414	899.870
400.307	27.324	1112.859	899.447
401.321	27.385	1111.850	898.854
402.336	27.375	1110.822	897.894
403.350	27.422	1110.300	897.625
404.365	27.372	1110.108	897.145
405.380	27.453	1109.237	896.758
406.394	27.372	1108.578	895.748
407.409	27.495	1107.678	895.545
408.423	27.481	1107.168	894.988
409.438	27.364	1106.530	893.817
410.453	27.437	1105.673	893.405
411.467	27.612	1104.369	893.128
412.482	27.515	1104.041	892.308
413.496	27.492	1103.738	891.874
414.511	27.541	1102.853	891.316
415.526	27.470	1102.539	890.639
416.540	27.588	1101.616	890.390
417.555	27.544	1101.589	890.075
418.569	27.593	1100.978	889.743
419.584	27.570	1100.632	889.272
420.599	27.635	1100.284	889.227
421.613	81.295	1288.101	1336.255
422.628	76.103	1315.450	1336.399
