DTS Sentinel unit serial number:	SN413079Multiplexer serial number:	ORYXHardware model number:	OX4-SRSoftware version number:	ORYX F/W v4.00 Oryx Data Collector v3.7.2.0data status	okinstallation	princeton_trtdifferential loss correction	single-endedforward channel	channel 2reverse channel	N/Adate	2019/09/14time	12:43:34forward acquisition time	60.00reverse acquisition time	0.00gamma	496.2192k internal	0.2306k external	0.2306temperature offset calibration	1.0156default loss term (dB/km)	0.3790temperature slope calibration	1.0000multiplexer offset coefficient	1.0000multiplexer slope coefficient	1.0000fibre end	0.00T internal ref (°C)	37.97T ext. ref 1 (°C)	4.80T ext. ref 2 (°C)	32.77length (m)	temperature (°C)	Stokes	anti-Stokes-747.200	-200.000	-0.026	0.154
-746.185	199.851	0.127	0.199
-745.171	800.000	0.070	0.289
-744.156	-200.000	0.003	-0.205
-743.142	295.279	0.168	-0.312
-742.127	-200.000	0.150	-0.000
-741.112	-200.000	-0.027	-0.153
-740.098	81.128	-0.137	-0.151
-739.083	-54.457	-0.167	0.077
-738.069	-108.291	-0.035	0.008
-737.054	120.422	-0.190	-0.240
-736.039	-81.913	-0.190	-0.063
-735.025	502.783	0.145	0.340
-734.010	-200.000	0.030	-0.206
-732.996	-200.000	-0.017	-0.316
-731.981	-141.787	-0.220	-0.022
-730.966	12.325	0.211	-0.165
-729.952	50.436	-0.076	-0.073
-728.937	80.457	-0.095	0.104
-727.923	255.505	0.011	0.019
-726.908	548.903	0.075	0.183
-725.894	-200.000	-0.096	-0.480
-724.879	-54.884	-0.279	0.128
-723.864	-137.637	-0.381	-0.044
-722.850	418.246	-0.115	-0.250
-721.835	-95.993	-0.242	0.065
-720.821	152.921	-0.086	0.120
-719.806	172.278	-0.137	0.200
-718.791	220.430	0.065	0.105
-717.777	-200.000	0.067	-0.328
-716.762	800.000	0.038	-0.111
-715.748	-88.148	-0.109	0.033
-714.733	286.378	-0.041	0.074
-713.718	-165.741	-0.293	0.013
-712.704	329.768	0.119	-0.232
-711.689	17.130	-0.338	-0.272
-710.675	72.900	0.164	-0.175
-709.660	-67.566	0.280	-0.112
-708.645	-75.014	-0.304	0.111
-707.631	234.294	0.044	0.073
-706.616	-200.000	-0.009	-0.238
-705.602	-200.000	-0.010	0.051
-704.587	800.000	-0.060	0.222
-703.572	-79.925	-0.135	-0.046
-702.558	91.124	-0.318	-0.362
-701.543	-200.000	0.035	-0.185
-700.529	-119.687	0.112	-0.020
-699.514	-89.140	-0.287	-0.086
-698.499	-142.430	-0.142	-0.014
-697.485	184.062	0.133	0.200
-696.470	-110.607	-0.137	0.029
-695.456	-17.603	0.088	-0.056
-694.441	36.315	-0.104	-0.093
-693.426	64.524	-0.209	-0.214
-692.412	-200.000	-0.026	0.158
-691.397	192.695	0.091	0.139
-690.383	-79.281	-0.175	-0.060
-689.368	56.546	0.242	0.239
-688.354	-34.071	-0.501	0.279
-687.339	23.649	0.148	-0.123
-686.324	-91.222	0.153	-0.044
-685.310	-142.691	0.332	0.033
-684.295	-47.649	-0.337	-0.166
-683.281	-61.693	-0.312	0.133
-682.266	351.529	0.095	-0.190
-681.251	-32.976	0.121	-0.068
-680.237	-144.701	0.231	-0.022
-679.222	-116.336	-0.128	-0.024
-678.208	94.961	-0.161	0.186
-677.193	-71.890	0.211	0.080
-676.178	-13.404	0.205	-0.135
-675.164	-151.351	-0.390	0.029
-674.149	-97.207	-0.263	-0.070
-673.135	-200.000	-0.017	0.316
-672.120	-48.930	0.103	-0.050
-671.105	-155.336	-0.377	0.025
-670.091	479.364	-0.033	-0.077
-669.076	-200.000	-0.046	-0.219
-668.062	150.990	-0.116	0.160
-667.047	-200.000	0.021	-0.237
-666.032	-200.000	0.010	-0.467
-665.018	-121.680	-0.255	-0.043
-664.003	34.705	-0.052	-0.046
-662.989	23.396	0.289	-0.241
-661.974	701.645	-0.127	-0.340
-660.959	-200.000	0.001	-0.162
-659.945	-108.212	0.124	-0.027
-658.930	-11.578	-0.160	0.107
-657.916	-35.661	-0.198	-0.109
-656.901	800.000	0.120	0.345
-655.886	-39.236	-0.237	0.126
-654.872	-6.503	-0.298	-0.206
-653.857	-47.068	-0.025	0.012
-652.843	800.000	-0.105	0.376
-651.828	-19.307	0.356	-0.224
-650.814	-22.242	0.227	0.140
-649.799	-65.760	0.238	0.097
-648.784	-200.000	0.006	-0.203
-647.770	-200.000	-0.029	-0.237
-646.755	-64.951	-0.102	-0.042
-645.741	-125.904	0.394	-0.060
-644.726	-21.588	-0.170	0.105
-643.711	398.751	0.115	-0.243
-642.697	-200.000	0.023	-0.244
-641.682	21.962	-0.042	0.035
-640.668	-71.806	0.097	0.037
-639.653	243.922	0.145	-0.246
-638.638	-200.000	-0.051	-0.308
-637.624	1.136	-0.084	0.061
-636.609	-200.000	-0.012	-0.191
-635.595	152.834	0.072	-0.100
-634.580	-114.279	0.135	-0.026
-633.565	368.031	0.071	0.145
-632.551	-145.131	-0.099	0.009
-631.536	392.062	0.075	-0.158
-630.522	-200.000	0.013	0.119
-629.507	152.878	0.147	-0.204
-628.492	315.289	-0.057	0.109
-627.478	111.293	-0.061	-0.074
-626.463	120.604	0.131	-0.165
-625.449	800.000	0.034	-0.098
-624.434	23.250	0.139	0.115
-623.419	139.477	0.079	0.105
-622.405	417.108	0.048	0.105
-621.390	-102.851	-0.070	0.017
-620.376	-0.994	-0.109	-0.078
-619.361	-41.122	0.025	0.013
-618.346	-74.575	0.407	0.148
-617.332	-18.122	-0.372	0.236
-616.317	202.508	-0.033	0.051
-615.303	160.925	0.079	0.111
-614.288	-123.298	-0.242	-0.039
-613.273	282.590	-0.075	-0.136
-612.259	-81.663	-0.243	-0.081
-611.244	4.525	0.158	-0.118
-610.230	-142.464	0.245	0.024
-609.215	-91.561	-0.277	0.080
-608.201	-200.000	-0.321	0.000
-607.186	83.822	-0.146	0.162
-606.171	-200.000	-0.026	-0.279
-605.157	800.000	-0.018	0.051
-604.142	5.094	-0.063	-0.047
-603.128	800.000	0.090	-0.319
-602.113	92.280	0.246	-0.280
-601.098	98.918	-0.112	-0.130
-600.084	239.158	-0.131	-0.220
-599.069	-200.000	0.001	-0.008
-598.055	449.760	0.097	0.217
-597.040	360.229	-0.046	0.093
-596.025	-144.619	-0.260	-0.024
-595.011	355.458	0.065	0.132
-593.996	-66.704	-0.062	-0.025
-592.982	358.994	0.063	-0.128
-591.967	105.973	-0.035	-0.042
-590.952	89.058	-0.159	0.179
-589.938	-79.332	0.195	0.067
-588.923	-127.474	0.319	-0.047
-587.909	-97.844	-0.142	0.037
-586.894	-194.051	-0.252	0.002
-585.879	183.496	0.128	0.191
-584.865	-200.000	0.024	-0.315
-583.850	-0.132	-0.162	0.117
-582.836	-10.414	-0.293	-0.196
-581.821	-200.000	-0.009	-0.119
-580.806	-94.371	-0.337	-0.093
-579.792	328.272	-0.047	0.091
-578.777	736.932	-0.030	-0.082
-577.763	-37.253	0.210	-0.114
-576.748	15.676	0.280	-0.222
-575.733	-200.000	0.102	0.489
-574.719	-84.521	-0.328	-0.105
-573.704	422.428	-0.095	-0.206
-572.690	32.988	-0.262	-0.229
-571.675	-59.445	-0.216	-0.094
-570.661	-200.000	0.042	-0.187
-569.646	-200.000	0.079	0.514
-568.631	554.841	-0.113	0.274
-567.617	-85.845	-0.091	-0.028
-566.602	-200.000	0.023	-0.148
-565.588	-21.082	-0.225	0.139
-564.573	-200.000	-0.026	0.182
-563.558	-22.051	-0.354	0.217
-562.544	-95.798	0.081	0.022
-561.529	120.925	-0.008	-0.010
-560.515	584.710	-0.031	-0.078
-559.500	-200.000	-0.053	-0.253
-558.485	-22.867	0.258	0.158
-557.471	-200.000	-0.009	0.306
-556.456	-200.000	0.027	0.144
-555.442	-200.000	0.028	0.373
-554.427	800.000	-0.085	-0.277
-553.412	-98.234	-0.185	0.048
-552.398	115.556	0.047	-0.059
-551.383	-20.628	-0.135	0.084
-550.369	400.803	0.028	-0.059
-549.354	-200.000	-0.020	0.261
-548.339	-200.000	0.008	0.130
-547.325	344.066	0.032	-0.064
-546.310	-174.671	-0.275	0.008
-545.296	-200.000	0.055	0.375
-544.281	18.416	-0.420	0.339
-543.266	-200.000	-0.020	-0.104
-542.252	253.114	-0.151	-0.260
-541.237	85.588	-0.142	-0.157
-540.223	-111.964	-0.030	-0.006
-539.208	96.518	0.107	0.123
-538.193	-200.000	0.002	-0.068
-537.179	-200.000	0.040	-0.331
-536.164	-200.000	0.007	-0.130
-535.150	-200.000	-0.068	-0.323
-534.135	499.807	0.069	0.160
-533.121	-36.820	0.122	0.066
-532.106	-200.000	-0.010	-0.203
-531.091	-51.846	0.321	0.151
-530.077	-129.917	-0.342	-0.047
-529.062	-21.917	-0.370	-0.227
-528.048	-8.558	-0.179	-0.121
-527.033	267.001	-0.131	0.230
-526.018	-107.110	0.061	0.014
-525.004	-113.958	0.178	0.035
-523.989	118.699	0.107	0.133
-522.975	-108.708	0.273	0.059
-521.960	88.155	0.271	-0.303
-520.945	-26.813	-0.162	-0.095
-519.931	305.487	0.112	0.209
-518.916	-15.797	-0.042	-0.027
-517.902	29.021	0.309	-0.264
-516.887	165.587	0.123	-0.175
-515.872	-200.000	-0.001	0.140
-514.858	-200.000	-0.009	0.176
-513.843	-200.000	-0.014	-0.092
-512.829	465.603	-0.025	-0.057
-511.814	-200.000	0.049	-0.390
-510.799	141.042	0.162	-0.216
-509.785	254.435	0.102	0.176
-508.770	100.805	-0.141	0.165
-507.756	-200.000	0.013	0.082
-506.741	167.838	0.064	0.092
-505.726	-96.924	-0.058	0.015
-504.712	-75.458	-0.260	-0.093
-503.697	-37.788	0.132	-0.071
-502.683	800.000	0.108	0.341
-501.668	37.717	-0.193	-0.172
-500.653	-26.668	0.101	-0.060
-499.639	56.134	-0.100	-0.097
-498.624	-79.663	0.285	0.097
-497.610	-200.000	-0.010	0.177
-496.595	361.332	-0.045	-0.091
-495.581	-130.339	-0.422	0.058
-494.566	51.522	-0.073	-0.070
-493.551	-102.601	0.200	-0.048
-492.537	-97.643	-0.179	-0.047
-491.522	1.536	-0.096	0.070
-490.508	317.144	-0.104	0.197
-489.493	800.000	0.043	0.140
-488.478	-200.000	0.020	-0.116
-487.464	-200.000	-0.013	-0.121
-486.449	125.085	0.115	0.146
-485.435	91.707	0.106	-0.120
-484.420	5.573	0.063	-0.047
-483.405	103.900	-0.286	-0.338
-482.391	-64.944	-0.290	0.118
-481.376	93.628	0.168	0.192
-480.362	-119.387	0.281	-0.049
-479.347	488.881	-0.073	-0.168
-478.332	-80.739	0.227	0.076
-477.318	-25.792	0.193	-0.115
-476.303	-67.409	0.161	0.064
-475.289	-200.000	0.069	0.732
-474.274	-114.381	0.092	0.018
-473.259	104.601	0.056	0.067
-472.245	-112.120	-0.361	-0.073
-471.230	696.034	0.083	-0.219
-470.216	-25.405	0.184	-0.109
-469.201	-200.000	-0.072	0.405
-468.186	-110.172	-0.180	-0.038
-467.172	227.621	0.051	0.083
-466.157	-51.242	-0.268	0.126
-465.143	-114.614	-0.166	-0.032
-464.128	131.725	0.127	0.164
-463.113	-158.568	0.174	0.010
-462.099	-50.133	-0.192	0.091
-461.084	-161.935	-0.069	-0.004
-460.070	-12.583	0.361	-0.237
-459.055	82.782	-0.124	-0.136
-458.040	6.339	-0.286	-0.214
-457.026	800.000	0.034	0.123
-456.011	-156.034	-0.408	-0.026
-454.997	-129.459	0.214	0.030
-453.982	-200.000	0.036	-0.354
-452.968	800.000	-0.077	-0.240
-451.953	800.000	0.066	0.266
-450.938	439.065	0.111	0.244
-449.924	-200.000	-0.027	0.136
-448.909	-134.383	-0.169	-0.021
-447.895	108.267	-0.132	0.159
-446.880	782.700	0.013	-0.036
-445.865	-114.981	-0.120	-0.023
-444.851	-80.000	-0.193	0.065
-443.836	800.000	-0.068	-0.297
-442.822	216.789	0.098	0.158
-441.807	577.408	0.093	0.227
-440.792	78.897	-0.321	-0.345
-439.778	-200.000	-0.013	0.133
-438.763	-200.000	0.029	0.154
-437.749	800.000	0.069	0.250
-436.734	-95.014	-0.306	0.083
-435.719	-24.311	-0.095	0.057
-434.705	322.113	-0.145	0.277
-433.690	243.101	0.041	0.070
-432.676	75.698	0.105	-0.112
-431.661	-72.012	0.096	0.036
-430.646	-86.966	0.214	0.065
-429.632	-73.979	0.266	0.097
-428.617	-124.968	0.194	-0.030
-427.603	800.000	-0.016	-0.044
-426.588	729.441	0.046	0.124
-425.573	-200.000	0.068	-0.392
-424.559	-200.000	-0.009	-0.226
-423.544	-200.000	0.025	-0.178
-422.530	72.854	-0.201	-0.210
-421.515	-145.740	-0.233	0.021
-420.500	68.241	0.222	0.229
-419.486	164.293	-0.087	-0.123
-418.471	-178.522	0.318	-0.007
-417.457	210.397	-0.030	-0.047
-416.442	180.276	-0.039	-0.058
-415.428	49.707	0.178	0.168
-414.413	-185.446	0.485	0.007
-413.398	226.649	0.065	-0.106
-412.384	800.000	-0.015	0.046
-411.369	-52.744	0.425	-0.197
-410.355	-200.000	-0.006	0.138
-409.340	757.168	0.069	-0.188
-408.325	47.546	-0.146	-0.136
-407.311	-56.271	0.316	0.141
-406.296	628.926	0.034	-0.087
-405.282	-47.715	-0.209	0.102
-404.267	716.409	0.044	-0.117
-403.252	-200.000	-0.028	-0.161
-402.238	-91.539	0.278	-0.079
-401.223	-22.801	0.084	-0.051
-400.209	-200.000	0.044	-0.242
-399.194	-56.079	0.259	0.116
-398.179	11.842	-0.182	-0.140
-397.165	-74.710	-0.221	0.080
-396.150	-75.954	0.069	-0.025
-395.136	-78.722	0.203	-0.069
-394.121	-200.000	-0.036	-0.247
-393.106	800.000	-0.096	0.353
-392.092	-58.771	0.210	-0.091
-391.077	36.044	-0.253	0.223
-390.063	-46.428	0.187	-0.092
-389.048	314.171	-0.071	-0.134
-388.033	-200.000	0.035	0.290
-387.019	-87.342	0.132	0.040
-386.004	-200.000	-0.037	-0.178
-384.990	67.605	-0.228	-0.234
-383.975	-200.000	-0.061	0.294
-382.960	800.000	0.059	0.225
-381.946	656.231	0.024	-0.061
-380.931	-5.668	-0.229	0.157
-379.917	-69.194	-0.145	-0.056
-378.902	176.193	0.090	-0.132
-377.888	582.048	-0.113	0.277
-376.873	-93.317	0.159	-0.044
-375.858	582.711	-0.087	-0.213
-374.844	-53.731	0.238	-0.109
-373.829	211.223	0.216	-0.341
-372.815	175.355	-0.168	-0.244
-371.800	-101.388	-0.175	0.043
-370.785	-200.000	0.014	-0.163
-369.771	-192.731	0.400	-0.004
-368.756	168.243	-0.093	0.133
-367.742	186.614	-0.054	-0.080
-366.727	800.000	-0.008	-0.028
-365.712	-148.339	-0.410	-0.034
-364.698	-170.313	-0.510	-0.018
-363.683	-132.447	-0.094	-0.012
-362.669	-120.643	0.158	-0.027
-361.654	-10.653	-0.157	0.104
-360.639	-111.766	-0.206	0.042
-359.625	-200.000	-0.015	0.194
-358.610	165.116	0.093	0.132
-357.596	150.565	0.063	0.085
-356.581	-200.000	-0.059	0.267
-355.566	-200.000	0.013	0.236
-354.552	31.592	0.176	-0.152
-353.537	-200.000	-0.048	-0.292
-352.523	-0.253	-0.253	-0.180
-351.508	800.000	0.118	-0.482
-350.493	140.874	0.078	-0.103
-349.479	-96.432	0.316	-0.084
-348.464	-56.563	0.231	-0.103
-347.450	-200.000	-0.023	-0.190
-346.435	-200.000	-0.020	0.479
-345.420	404.969	-0.109	-0.231
-344.406	-7.555	-0.112	0.076
-343.391	-107.660	-0.256	-0.056
-342.377	-111.615	0.202	-0.041
-341.362	-118.922	-0.226	-0.040
-340.348	-37.539	0.179	0.096
-339.333	56.796	-0.270	0.264
-338.318	60.407	-0.167	-0.166
-337.304	-39.486	-0.273	0.143
-336.289	800.000	-0.026	0.078
-335.275	-108.901	-0.143	0.031
-334.260	-200.000	-0.037	0.289
-333.245	-179.487	-0.204	0.004
-332.231	800.000	0.085	-0.239
-331.216	-74.895	0.046	0.016
-330.202	186.387	-0.149	0.222
-329.187	134.068	-0.247	0.321
-328.172	11.566	-0.030	0.023
-327.158	130.053	-0.165	-0.212
-326.143	52.008	0.266	-0.254
-325.129	291.232	0.190	0.347
-324.114	15.195	-0.186	0.146
-323.099	75.070	-0.161	-0.170
-322.085	-43.377	-0.056	-0.028
-321.070	104.485	0.243	0.286
-320.056	178.847	0.146	0.213
-319.041	36.248	-0.136	-0.120
-318.026	85.296	-0.202	-0.222
-317.012	223.755	0.070	-0.113
-315.997	-29.610	0.126	0.072
-314.983	-200.000	-0.008	0.143
-313.968	-132.540	-0.157	-0.020
-312.953	-185.635	-0.057	-0.001
-311.939	-107.941	-0.399	0.087
-310.924	140.948	-0.101	0.134
-309.910	-92.354	-0.099	0.028
-308.895	46.107	0.066	0.061
-307.880	-52.432	0.150	-0.069
-306.866	-200.000	0.009	-0.138
-305.851	-200.000	-0.016	-0.151
-304.837	-136.883	-0.209	0.024
-303.822	-118.419	0.049	-0.009
-302.807	-9.288	0.160	0.107
-301.793	410.326	0.183	0.388
-300.778	-7.950	0.070	0.047
-299.764	56.199	-0.287	-0.279
-298.749	380.753	0.064	-0.132
-297.735	-200.000	0.044	-0.384
-296.720	396.095	0.012	-0.026
-295.705	-200.000	0.032	-0.152
-294.691	800.000	0.106	0.327
-293.676	-128.634	0.100	0.014
-292.662	381.473	-0.135	0.277
-291.647	14.816	0.110	-0.086
-290.632	-60.097	-0.117	-0.050
-289.618	-101.796	0.361	0.087
-288.603	-42.491	0.169	0.086
-287.589	-200.000	0.051	-0.252
-286.574	41.972	0.103	0.093
-285.559	335.111	0.097	-0.188
-284.545	-42.511	-0.146	-0.074
-283.530	138.825	-0.089	0.117
-282.516	294.007	0.088	0.160
-281.501	78.361	0.195	-0.209
-280.486	263.660	-0.152	0.264
-279.472	-200.000	-0.047	-0.284
-278.457	-51.657	0.401	0.187
-277.443	-200.000	0.031	-0.166
-276.428	-41.629	-0.335	0.172
-275.413	-114.098	0.171	0.033
-274.399	381.393	-0.128	0.262
-273.384	51.204	-0.182	-0.172
-272.370	75.655	0.160	0.169
-271.355	-119.666	0.172	0.030
-270.340	-18.921	0.390	-0.242
-269.326	-144.111	0.274	0.026
-268.311	287.390	0.147	-0.266
-267.297	250.679	0.076	-0.130
-266.282	-50.891	0.148	-0.069
-265.267	-136.379	-0.205	0.024
-264.253	800.000	0.078	0.244
-263.238	95.628	-0.057	0.065
-262.224	-200.000	0.121	0.623
-261.209	345.800	0.028	0.054
-260.195	99.731	0.232	0.268
-259.180	147.342	0.311	-0.419
-258.165	480.479	0.023	0.052
-257.151	187.714	0.147	0.219
-256.136	26.928	-0.110	0.092
-255.122	800.000	-0.035	0.125
-254.107	800.000	-0.030	0.087
-253.092	-119.859	0.271	-0.047
-252.078	343.959	0.089	-0.174
-251.063	287.422	0.046	0.082
-250.049	112.330	0.120	0.145
-249.034	763.768	-0.079	-0.213
-248.019	136.219	-0.019	0.024
-247.005	-39.522	0.061	-0.032
-245.990	234.230	-0.116	0.190
-244.976	-63.799	0.199	0.081
-243.961	64.493	-0.294	0.295
-242.946	17.838	0.233	-0.185
-241.932	-200.000	-0.001	0.016
-240.917	15.143	-0.236	-0.185
-239.903	798.667	0.072	-0.198
-238.888	2.102	-0.200	0.144
-237.873	-200.000	0.034	0.460
-236.859	28.823	-0.171	0.144
-235.844	-36.009	-0.023	-0.013
-234.830	-11.767	-0.051	0.033
-233.815	-90.927	-0.136	0.039
-232.800	-102.216	0.240	-0.058
-231.786	-166.040	0.210	0.009
-230.771	-71.027	0.220	-0.083
-229.757	13.965	0.095	0.074
-228.742	81.738	0.033	0.036
-227.727	182.739	0.198	-0.291
-226.713	81.343	-0.220	-0.237
-225.698	-200.000	0.029	0.179
-224.684	79.957	-0.235	0.252
-223.669	-141.705	0.036	0.004
-222.655	-2.770	-0.281	-0.196
-221.640	-11.346	-0.114	0.075
-220.625	800.000	-0.049	0.162
-219.611	170.075	0.226	-0.323
-218.596	-200.000	0.002	0.216
-217.582	-80.105	-0.136	-0.045
-216.567	-122.322	0.292	-0.048
-215.552	-161.829	0.093	-0.005
-214.538	-146.609	0.105	-0.009
-213.523	-143.170	-0.136	0.013
-212.509	-22.166	-0.172	0.104
-211.494	103.763	0.136	0.159
-210.479	623.358	-0.100	-0.250
-209.465	-95.800	-0.256	-0.068
-208.450	-11.956	-0.191	0.125
-207.436	-24.961	0.339	-0.200
-206.421	-200.000	0.001	0.150
-205.406	800.000	0.089	0.288
-204.392	62.912	-0.094	-0.093
-203.377	144.628	-0.147	0.195
-202.363	-200.000	0.026	-0.161
-201.348	-118.837	-0.141	-0.025
-200.333	800.000	-0.035	0.148
-199.319	130.033	0.163	-0.207
-198.304	95.102	0.127	0.144
-197.290	-2.923	0.254	-0.177
-196.275	-96.781	-0.261	-0.068
-195.260	-124.396	0.148	-0.023
-194.246	34.267	0.182	-0.158
-193.231	-79.901	-0.186	-0.062
-192.217	49.908	-0.250	0.234
-191.202	-50.281	-0.093	0.044
-190.187	-21.956	0.115	0.070
-189.173	800.000	-0.073	-0.209
-188.158	-95.463	-0.076	0.020
-187.144	800.000	0.045	0.165
-186.129	135.959	0.229	0.297
-185.114	-200.000	-0.031	-0.215
-184.100	-200.000	0.001	-0.085
-183.085	-62.900	-0.367	-0.151
-182.071	526.359	-0.052	-0.121
-181.056	-155.909	-0.061	0.004
-180.042	-117.576	0.393	-0.071
-179.027	-7.860	-0.327	-0.220
-178.012	-200.000	-0.033	0.314
-176.998	800.000	0.069	-0.200
-175.983	-200.000	-0.010	-0.357
-174.969	9.922	-0.215	-0.162
-173.954	-102.051	-0.193	-0.046
-172.939	-196.284	0.212	-0.001
-171.925	-33.186	-0.223	0.123
-170.910	271.507	0.120	0.211
-169.896	-200.000	0.029	-0.160
-168.881	-200.000	-0.003	-0.329
-167.866	21.431	-0.146	-0.118
-166.852	189.719	0.185	0.276
-165.837	21.388	0.367	0.297
-164.823	25.217	-0.184	0.152
-163.808	34.393	0.165	0.144
-162.793	-97.329	-0.036	-0.009
-161.779	77.178	-0.121	0.128
-160.764	-44.986	0.233	-0.115
-159.750	-108.809	0.243	-0.052
-158.735	-200.000	0.406	-0.001
-157.720	-87.568	0.107	0.032
-156.706	41.398	0.228	0.205
-155.691	800.000	-0.038	0.137
-154.677	574.878	-0.108	0.262
-153.662	-19.851	-0.071	-0.044
-152.647	111.559	0.116	0.139
-151.633	-51.104	0.121	-0.056
-150.618	10.237	0.093	0.071
-149.604	-200.000	-0.020	-0.279
-148.589	444.257	0.021	0.046
-147.574	25.806	-0.107	0.088
-146.560	244.283	-0.061	-0.102
-145.545	145.373	-0.276	0.367
-144.531	-200.000	-0.021	-0.280
-143.516	31.850	0.416	-0.356
-142.502	-200.000	0.044	-0.261
-141.487	280.760	0.138	-0.246
-140.472	-200.000	0.024	-0.149
-139.458	79.398	-0.114	0.122
-138.443	109.967	0.317	0.377
-137.429	292.120	0.018	0.032
-136.414	-119.911	0.415	0.071
-135.399	-46.422	0.162	0.079
-134.385	661.592	0.130	-0.334
-133.370	-55.114	0.122	-0.055
-132.356	98.214	-0.231	-0.264
-131.341	204.369	-0.112	-0.173
-130.326	-150.285	0.131	-0.010
-129.312	-106.219	0.080	0.018
-128.297	-56.687	0.218	0.096
-127.283	-200.000	-0.020	-0.317
-126.268	199.663	-0.141	-0.215
-125.253	-129.841	-0.156	0.021
-124.239	-99.949	-0.148	-0.037
-123.224	-172.273	0.031	0.001
-122.210	463.031	0.051	-0.114
-121.195	83.140	0.200	0.216
-120.180	-58.111	0.123	0.053
-119.166	-198.542	-0.061	-0.000
-118.151	346.232	-0.015	-0.028
-117.137	-78.039	-0.079	-0.027
-116.122	64.837	-0.186	-0.186
-115.107	-77.037	-0.218	-0.076
-114.093	-200.000	-0.024	-0.339
-113.078	66.395	0.094	-0.095
-112.064	-59.670	0.230	-0.098
-111.049	-200.000	-0.006	-0.166
-110.034	4.491	-0.045	-0.033
-109.020	245.127	-0.074	-0.124
-108.005	39.440	0.146	-0.130
-106.991	-61.866	-0.253	-0.105
-105.976	383.531	0.079	0.162
-104.962	-165.721	0.046	-0.002
-103.947	-149.368	-0.067	-0.005
-102.932	695.498	0.064	0.166
-101.918	-94.845	-0.433	-0.116
-100.903	-200.000	-0.015	0.223
-99.889	800.000	0.135	-0.428
-98.874	-53.574	-0.147	0.067
-97.859	800.000	-0.062	-0.220
-96.845	145.356	0.060	0.079
-95.830	800.000	-0.067	-0.233
-94.816	684.584	0.186	0.482
-93.801	-200.000	-0.008	0.114
-92.786	-15.797	0.072	0.046
-91.772	219.612	0.185	0.293
-90.757	306.664	0.063	0.116
-89.743	149.893	0.098	0.132
-88.728	-72.907	0.351	0.128
-87.713	-126.978	0.093	0.014
-86.699	203.129	0.052	-0.080
-85.684	800.000	0.091	0.341
-84.670	-50.608	-0.171	-0.080
-83.655	-70.669	0.217	-0.081
-82.640	-102.537	0.373	-0.088
-81.626	-95.118	-0.259	0.069
-80.611	-65.096	-0.021	0.008
-79.597	-58.537	-0.148	-0.064
-78.582	-56.936	0.222	0.097
-77.567	80.038	-0.228	0.243
-76.553	-94.236	-0.159	-0.043
-75.538	-75.077	0.140	-0.050
-74.524	-158.277	0.186	-0.011
-73.509	-8.144	0.152	0.102
-72.494	-171.653	0.255	-0.008
-71.480	243.087	-0.147	-0.244
-70.465	2.736	0.192	0.138
-69.451	-200.000	0.002	0.061
-68.436	-200.000	0.000	-0.126
-67.422	-200.000	-0.013	-0.309
-66.407	-74.499	0.291	0.104
-65.392	135.258	-0.030	-0.039
-64.378	256.741	0.101	0.172
-63.363	-200.000	-0.027	0.127
-62.349	800.000	0.036	0.116
-61.334	28.371	-1.116	-0.935
-60.319	-57.711	0.275	0.119
-59.305	-200.000	-0.098	-0.637
-58.290	2.891	0.631	0.453
-57.276	-200.000	0.194	1.440
-56.261	-200.000	85.285	495.559
-55.246	520.572	1399.725	3250.832
-54.232	180.303	2632.203	3823.950
-53.217	113.051	2370.508	2846.154
-52.203	46.807	1976.444	1818.661
-51.188	41.113	1762.177	1576.510
-50.173	38.282	1716.149	1513.393
-49.159	53.003	1757.894	1665.727
-48.144	56.664	1776.497	1711.962
-47.130	40.891	1736.922	1551.932
-46.115	38.019	1721.926	1516.198
-45.100	37.857	1717.257	1510.772
-44.086	37.865	1714.289	1508.164
-43.071	37.876	1711.846	1506.040
-42.057	37.743	1709.292	1502.711
-41.042	37.802	1706.880	1500.980
-40.027	37.862	1705.373	1500.060
-39.013	37.730	1703.269	1497.136
-37.998	37.794	1701.705	1496.193
-36.984	37.806	1700.423	1495.100
-35.969	38.051	1698.206	1494.968
-34.954	38.031	1696.348	1493.118
-33.940	37.969	1694.845	1491.262
-32.925	37.979	1693.286	1489.910
-31.911	37.984	1691.553	1488.364
-30.896	37.939	1690.071	1486.654
-29.881	38.006	1688.330	1485.579
-28.867	38.013	1686.766	1484.194
-27.852	37.972	1685.556	1482.756
-26.838	37.935	1683.675	1480.764
-25.823	38.087	1681.907	1480.300
-24.809	37.954	1681.185	1478.597
-23.794	38.018	1679.215	1477.292
-22.779	38.054	1677.617	1476.103
-21.765	37.974	1676.745	1474.672
-20.750	37.914	1674.525	1472.205
-19.736	37.954	1673.283	1471.355
-18.721	37.951	1671.821	1469.994
-17.706	37.968	1670.533	1468.930
-16.692	38.010	1668.763	1467.629
-15.677	37.980	1667.549	1466.277
-14.663	38.077	1666.017	1465.603
-13.648	38.022	1664.649	1463.925
-12.633	38.029	1662.662	1462.175
-11.619	38.107	1660.877	1461.132
-10.604	37.961	1659.897	1459.122
-9.590	37.966	1658.640	1457.990
-8.575	38.031	1657.002	1456.981
-7.560	38.055	1655.636	1455.899
-6.546	37.973	1654.586	1454.311
-5.531	37.898	1653.937	1453.124
-4.517	37.952	1652.126	1451.876
-3.502	37.872	1651.436	1450.616
-2.487	38.118	1649.498	1450.685
-1.473	37.842	1637.697	1438.214
-0.458	35.001	1616.538	1398.841
0.556	32.273	1614.831	1358.272
1.571	29.259	1638.716	1356.098
2.586	28.055	1652.312	1358.294
3.600	24.384	1596.231	1285.678
4.615	14.501	1479.706	1125.348
5.629	6.319	1410.805	1020.012
6.644	4.939	1401.591	1004.377
7.659	4.792	1400.367	1002.460
8.673	4.710	1399.292	1001.079
9.688	4.779	1397.990	1000.498
10.702	4.703	1395.730	998.304
11.717	8.143	1402.175	1024.967
12.731	16.988	1418.174	1093.847
13.746	22.021	1425.732	1132.117
14.761	21.286	1423.075	1125.177
15.775	20.191	1420.148	1115.719
16.790	18.961	1417.962	1105.995
17.804	18.203	1415.374	1099.015
18.819	17.838	1414.219	1095.678
19.834	17.631	1412.608	1093.004
20.848	17.316	1411.575	1090.087
21.863	17.189	1410.249	1088.151
22.877	16.989	1409.506	1086.200
23.892	17.082	1407.529	1085.180
24.907	17.029	1407.435	1084.669
25.921	17.038	1406.304	1083.763
26.936	16.950	1405.392	1082.401
27.950	17.068	1404.500	1082.372
28.965	17.080	1403.910	1081.896
29.980	17.217	1402.381	1081.496
30.994	17.321	1400.898	1080.915
32.009	17.337	1400.023	1080.244
33.023	17.422	1398.320	1079.377
34.038	17.375	1397.023	1077.984
35.053	17.240	1395.909	1076.173
36.067	17.169	1395.383	1075.225
37.082	17.286	1393.607	1074.499
38.096	17.245	1392.702	1073.449
39.111	17.269	1391.715	1072.743
40.126	17.174	1391.270	1071.705
41.140	17.044	1390.179	1069.952
42.155	16.952	1389.287	1068.592
43.169	16.820	1389.600	1067.902
44.184	16.854	1388.976	1067.544
45.199	16.832	1388.744	1067.129
46.213	17.008	1387.701	1067.346
47.228	17.097	1387.210	1067.430
48.242	17.223	1386.380	1067.491
49.257	17.101	1384.795	1065.409
50.271	17.143	1382.919	1064.132
51.286	17.133	1381.891	1063.188
52.301	17.161	1380.104	1061.894
53.315	17.137	1378.795	1060.643
54.330	16.962	1377.954	1058.808
55.344	16.887	1376.861	1057.406
56.359	16.929	1375.889	1056.832
57.374	16.918	1375.443	1056.328
58.388	16.880	1374.080	1054.946
59.403	16.822	1373.847	1054.314
60.417	16.776	1373.037	1053.312
61.432	16.744	1372.184	1052.366
62.447	16.757	1370.648	1051.177
63.461	16.603	1370.091	1049.702
64.476	16.745	1368.709	1049.433
65.490	16.695	1367.100	1047.793
66.505	16.708	1365.816	1046.797
67.520	16.806	1364.519	1046.314
68.534	16.812	1363.185	1045.240
69.549	16.806	1361.961	1044.173
70.563	16.759	1361.344	1043.315
71.578	16.672	1360.281	1041.872
72.593	16.602	1359.190	1040.517
73.607	16.614	1358.358	1039.859
74.622	16.576	1357.936	1039.209
75.636	16.617	1356.886	1038.568
76.651	16.732	1355.962	1038.471
77.666	16.621	1355.178	1037.101
78.680	16.642	1355.290	1037.221
79.695	16.684	1354.319	1036.645
80.709	16.814	1353.592	1036.795
81.724	16.867	1353.071	1036.627
82.739	16.955	1351.705	1036.028
83.753	17.044	1351.071	1035.988
84.768	17.067	1350.322	1035.462
85.782	17.212	1348.785	1035.079
86.797	17.179	1347.535	1033.826
87.812	17.118	1345.996	1032.186
88.826	17.107	1345.110	1031.348
89.841	17.154	1344.224	1030.858
90.855	17.117	1343.299	1029.836
91.870	17.159	1342.574	1029.443
92.884	17.233	1341.203	1028.749
93.899	17.359	1340.485	1028.872
94.914	17.273	1339.670	1027.630
95.928	17.325	1338.901	1027.266
96.943	17.217	1337.843	1025.712
97.957	17.167	1337.056	1024.719
98.972	17.105	1335.851	1023.326
99.987	17.292	1334.924	1023.654
101.001	17.244	1333.727	1022.354
102.016	17.282	1332.804	1021.787
103.030	17.223	1332.049	1020.762
104.045	17.152	1330.882	1019.350
105.060	17.075	1329.800	1017.973
106.074	16.955	1328.428	1016.113
107.089	16.842	1326.684	1014.015
108.103	16.698	1325.690	1012.304
109.118	16.906	1323.695	1011.931
110.133	16.790	1322.381	1010.148
111.147	16.807	1321.430	1009.431
112.162	16.809	1320.116	1008.352
113.176	16.877	1318.945	1007.768
114.191	16.933	1317.626	1007.009
115.206	16.987	1316.739	1006.562
116.220	16.952	1315.257	1005.130
117.235	16.829	1314.440	1003.690
118.249	16.821	1313.600	1002.910
119.264	16.846	1312.346	1002.014
120.279	16.746	1311.241	1000.490
121.293	16.754	1310.012	999.511
122.308	16.678	1309.178	998.339
123.322	16.612	1308.064	997.010
124.337	16.673	1307.033	996.499
125.352	16.718	1306.099	995.958
126.366	16.731	1305.151	995.223
127.381	16.779	1303.832	994.414
128.395	16.798	1302.714	993.582
129.410	16.876	1301.813	993.264
130.424	16.807	1301.321	992.400
131.439	16.874	1300.163	991.820
132.454	16.897	1299.044	991.014
133.468	17.018	1298.597	991.290
134.483	16.963	1297.812	990.284
135.497	16.997	1296.651	989.510
136.512	16.955	1295.667	988.425
137.527	17.025	1294.291	987.698
138.541	17.104	1292.470	986.676
139.556	17.015	1291.997	985.712
140.570	17.138	1290.626	985.296
141.585	17.180	1289.410	984.521
142.600	17.248	1288.237	983.931
143.614	17.331	1287.267	983.585
144.629	17.286	1285.990	982.262
145.643	17.229	1285.038	981.115
146.658	17.096	1283.721	979.260
147.673	17.178	1281.990	978.324
148.687	17.090	1280.694	976.741
149.702	17.017	1279.436	975.277
150.716	16.950	1278.181	973.851
151.731	16.988	1277.187	973.224
152.746	17.092	1275.773	972.653
153.760	17.107	1274.456	971.650
154.775	17.156	1273.469	971.094
155.789	17.145	1272.742	970.390
156.804	17.196	1271.614	969.734
157.819	17.289	1270.387	969.241
158.833	17.369	1269.561	968.984
159.848	17.272	1268.810	967.772
160.862	17.353	1267.853	967.416
161.877	17.244	1266.362	965.577
162.892	17.090	1265.505	963.960
163.906	17.175	1264.287	963.431
164.921	17.092	1263.754	962.471
165.935	17.141	1262.701	961.857
166.950	17.061	1262.008	960.792
167.964	17.169	1260.980	960.537
168.979	17.128	1260.307	959.707
169.994	17.124	1259.508	958.991
171.008	17.181	1258.637	958.564
172.023	17.434	1257.375	958.944
173.037	17.421	1256.785	958.335
174.052	17.358	1256.290	957.519
175.067	17.174	1255.203	955.570
176.081	17.207	1253.876	954.661
177.096	17.150	1252.893	953.512
178.110	17.195	1251.986	952.985
179.125	17.213	1250.591	951.941
180.140	17.185	1249.556	950.911
181.154	17.352	1248.143	950.689
182.169	17.399	1246.706	949.769
183.183	17.515	1245.799	949.643
184.198	17.454	1244.866	948.507
185.213	17.441	1243.500	947.313
186.227	17.500	1242.213	946.578
187.242	17.391	1241.782	945.559
188.256	17.490	1240.954	945.394
189.271	17.627	1239.722	945.131
190.286	17.354	1238.669	942.730
191.300	17.099	1237.861	940.618
192.315	17.020	1236.882	939.354
193.329	17.223	1235.801	939.575
194.344	17.235	1235.103	939.026
195.359	17.356	1234.736	939.332
196.373	17.345	1234.535	939.038
197.388	17.531	1233.749	939.384
198.402	17.627	1233.708	939.796
199.417	17.746	1232.973	939.808
200.432	17.747	1232.336	939.244
201.446	17.790	1231.192	938.526
202.461	17.843	1230.123	937.919
203.475	17.846	1229.179	937.135
204.490	17.714	1227.690	935.191
205.504	17.618	1226.501	933.679
206.519	17.614	1225.289	932.652
207.534	17.576	1224.129	931.478
208.548	17.612	1223.252	930.924
209.563	17.578	1222.382	929.994
210.577	17.661	1221.072	929.369
211.592	17.730	1220.588	929.296
212.607	17.824	1219.817	929.136
213.621	17.794	1219.140	928.374
214.636	17.884	1217.950	927.879
215.650	17.831	1216.888	926.696
216.665	17.838	1216.031	925.999
217.680	17.882	1215.385	925.667
218.694	17.978	1214.386	925.342
219.709	17.957	1214.014	924.862
220.723	17.962	1212.797	923.883
221.738	17.894	1212.115	922.913
222.753	18.036	1210.900	922.673
223.767	17.986	1210.681	922.157
224.782	17.981	1210.212	921.686
225.796	18.045	1209.703	921.562
226.811	18.056	1208.884	920.919
227.826	17.996	1207.822	919.705
228.840	17.978	1207.230	919.078
229.855	17.910	1206.529	918.096
230.869	17.922	1205.818	917.541
231.884	17.946	1204.465	916.555
232.899	17.925	1203.923	915.949
233.913	17.840	1203.088	914.778
234.928	17.819	1202.484	914.128
235.942	17.885	1201.826	913.895
236.957	17.807	1200.732	912.567
237.972	17.848	1200.268	912.353
238.986	17.846	1199.644	911.787
240.001	17.825	1198.942	911.060
241.015	17.875	1197.810	910.388
242.030	18.072	1196.898	910.664
243.045	18.003	1196.619	910.002
244.059	18.102	1195.259	909.413
245.074	18.022	1194.968	908.688
246.088	18.201	1193.676	908.573
247.103	18.148	1192.881	907.606
248.117	18.318	1192.677	908.273
249.132	18.433	1191.597	907.982
250.147	18.455	1191.394	907.865
251.161	18.666	1190.187	907.981
252.176	18.686	1189.814	907.722
253.190	18.607	1189.361	906.876
254.205	18.692	1188.634	906.691
255.220	18.717	1187.809	906.113
256.234	18.679	1187.544	905.629
257.249	18.708	1186.757	905.103
258.263	18.700	1185.737	904.203
259.278	18.663	1185.144	903.475
260.293	18.672	1184.322	902.819
261.307	18.802	1184.254	903.368
262.322	18.710	1183.774	902.437
263.336	18.813	1183.095	902.384
264.351	18.747	1182.273	901.328
265.366	18.786	1181.814	901.105
266.380	18.833	1180.856	900.543
267.395	18.755	1180.270	899.603
268.409	18.795	1179.025	898.787
269.424	18.720	1178.566	897.966
270.439	18.729	1177.882	897.412
271.453	18.738	1176.911	896.640
272.468	18.645	1175.971	895.358
273.482	18.584	1175.571	894.658
274.497	18.586	1175.073	894.207
275.512	18.607	1174.678	893.936
276.526	18.723	1173.083	893.251
277.541	18.725	1172.599	892.813
278.555	18.774	1172.040	892.563
279.570	18.795	1171.073	891.857
280.585	18.819	1170.672	891.596
281.599	18.931	1169.351	891.092
282.614	18.866	1168.530	890.049
283.628	18.862	1167.084	888.847
284.643	18.812	1166.381	887.977
285.657	18.855	1165.449	887.410
286.672	18.781	1164.538	886.257
287.687	19.013	1163.079	886.262
288.701	18.883	1162.726	885.247
289.716	18.949	1162.107	885.034
290.730	18.992	1161.006	884.343
291.745	18.877	1160.925	883.609
292.760	19.059	1160.294	883.988
293.774	18.946	1159.790	882.944
294.789	19.041	1159.096	882.824
295.803	19.138	1158.592	882.858
296.818	19.006	1157.252	881.086
297.833	19.056	1156.622	880.782
298.847	19.012	1156.223	880.179
299.862	18.981	1155.123	879.101
300.876	19.046	1154.538	878.911
301.891	19.091	1153.869	878.554
302.906	19.160	1153.155	878.286
303.920	19.318	1152.373	878.415
304.935	19.378	1151.699	878.131
305.949	19.416	1151.328	877.963
306.964	19.425	1150.533	877.326
307.979	19.428	1149.640	876.581
308.993	19.330	1149.231	875.697
310.008	19.352	1148.232	874.969
311.022	19.468	1147.304	874.773
312.037	19.461	1146.360	873.936
313.052	19.370	1145.210	872.525
314.066	19.266	1143.922	870.942
315.081	19.168	1143.255	869.862
316.095	19.176	1142.553	869.291
317.110	19.217	1141.749	868.810
318.125	19.242	1141.278	868.499
319.139	19.160	1140.915	867.733
320.154	19.135	1139.969	866.808
321.168	19.235	1139.177	866.634
322.183	19.156	1138.950	865.987
323.197	19.393	1137.872	866.282
324.212	19.323	1137.228	865.362
325.227	19.355	1136.927	865.220
326.241	19.308	1136.303	864.432
327.256	19.280	1135.251	863.413
328.270	19.251	1134.567	862.674
329.285	19.291	1133.492	861.978
330.300	19.376	1132.426	861.518
331.314	19.330	1131.940	860.840
332.329	19.327	1130.350	859.541
333.343	19.382	1129.635	859.195
334.358	19.409	1129.117	858.857
335.373	19.480	1128.484	858.655
336.387	19.425	1127.517	857.570
337.402	19.585	1126.319	857.375
338.416	19.600	1126.425	857.454
339.431	19.663	1125.337	856.866
340.446	19.633	1124.950	856.347
341.460	19.673	1124.783	856.340
342.475	19.805	1123.697	856.093
343.489	19.820	1122.433	855.126
344.504	19.945	1121.613	855.043
345.519	19.885	1120.731	853.998
346.533	19.867	1120.058	853.324
347.548	19.988	1119.371	853.322
348.562	19.975	1118.303	852.367
349.577	19.865	1117.190	850.904
350.592	19.642	1116.988	849.577
351.606	19.717	1115.822	848.983
352.621	19.694	1115.024	848.186
353.635	19.600	1114.892	847.553
354.650	19.710	1113.912	847.271
355.665	19.693	1113.247	846.608
356.679	19.862	1112.496	846.787
357.694	19.756	1112.141	845.923
358.708	19.903	1111.386	845.994
359.723	19.873	1110.610	845.181
360.738	19.985	1109.890	845.108
361.752	19.894	1109.545	844.322
362.767	19.934	1108.719	843.818
363.781	19.889	1108.342	843.232
364.796	19.912	1107.895	842.932
365.810	20.102	1106.913	843.032
366.825	20.097	1106.865	842.898
367.840	20.211	1106.024	842.737
368.854	20.299	1105.477	842.676
369.869	20.346	1104.817	842.326
370.883	20.289	1103.338	840.846
371.898	20.193	1102.568	839.718
372.913	20.222	1101.981	839.338
373.927	20.219	1101.856	839.153
374.942	20.329	1101.073	839.015
375.956	20.290	1101.059	838.743
376.971	20.287	1099.918	837.784
377.986	20.269	1099.760	837.501
379.000	20.325	1099.337	837.377
380.015	20.560	1098.333	837.670
381.029	20.515	1097.650	836.859
382.044	20.476	1096.792	835.943
383.059	20.513	1096.133	835.545
384.073	20.383	1095.548	834.401
385.088	20.471	1094.577	834.008
386.102	20.444	1093.656	833.103
387.117	20.366	1092.848	832.042
388.132	20.251	1091.995	830.768
389.146	20.326	1090.893	830.215
390.161	20.226	1089.865	828.880
391.175	20.371	1089.090	828.909
392.190	20.321	1088.721	828.320
393.205	20.496	1087.960	828.500
394.219	20.435	1087.291	827.628
395.234	20.385	1086.422	826.655
396.248	20.333	1085.010	825.260
397.263	20.378	1084.025	824.649
398.278	20.354	1083.464	824.037
399.292	20.292	1082.523	822.957
400.307	20.157	1081.679	821.599
401.321	20.303	1081.338	821.962
402.336	20.295	1080.645	821.324
403.350	20.291	1079.512	820.370
404.365	20.434	1079.385	820.876
405.380	20.538	1078.481	820.610
406.394	20.532	1077.442	819.715
407.409	20.592	1076.822	819.455
408.423	20.549	1076.476	818.915
409.438	20.705	1075.739	819.017
410.453	20.790	1074.847	818.668
411.467	20.798	1074.131	818.084
412.482	20.831	1073.490	817.682
413.496	20.864	1073.002	817.391
414.511	20.892	1072.349	816.951
415.526	20.958	1071.812	816.782
416.540	21.075	1071.381	816.929
417.555	21.035	1070.764	816.197
418.569	20.981	1070.183	815.431
419.584	21.056	1069.307	815.039
420.599	20.894	1069.688	814.502
421.613	148.476	1400.215	1776.495
422.628	136.754	1448.372	1776.619
