DTS Sentinel unit serial number:	SN413079Multiplexer serial number:	ORYXHardware model number:	OX4-SRSoftware version number:	ORYX F/W v4.00 Oryx Data Collector v3.7.2.0data status	okinstallation	princeton_trtdifferential loss correction	single-endedforward channel	channel 2reverse channel	N/Adate	2019/09/17time	22:27:35forward acquisition time	60.00reverse acquisition time	0.00gamma	496.2192k internal	0.2344k external	0.2344temperature offset calibration	0.9984default loss term (dB/km)	0.3790temperature slope calibration	1.0000multiplexer offset coefficient	1.0000multiplexer slope coefficient	1.0000fibre end	0.00T internal ref (°C)	25.37T ext. ref 1 (°C)	0.18T ext. ref 2 (°C)	18.55length (m)	temperature (°C)	Stokes	anti-Stokes-747.200	-117.948	0.071	0.013
-746.185	-79.063	0.153	0.052
-745.171	60.538	0.030	0.030
-744.156	-90.292	-0.249	0.072
-743.142	-200.000	-0.038	-0.298
-742.127	618.943	-0.118	0.296
-741.112	800.000	-0.088	0.254
-740.098	-200.000	0.022	-0.241
-739.083	-40.454	0.119	-0.062
-738.069	7.808	-0.317	0.238
-737.054	-68.651	-0.167	0.065
-736.039	-200.000	0.029	0.203
-735.025	-200.000	0.055	-0.327
-734.010	-200.000	-0.006	0.249
-732.996	-143.765	0.225	-0.021
-731.981	-13.450	-0.166	0.108
-730.966	-200.000	-0.017	-0.169
-729.952	-67.523	-0.137	0.054
-728.937	76.637	-0.067	0.071
-727.923	-28.105	0.269	-0.156
-726.908	-200.000	-0.031	-0.186
-725.894	-76.278	0.192	0.068
-724.879	722.365	0.086	-0.229
-723.864	-200.000	0.043	-0.244
-722.850	84.614	-0.114	-0.125
-721.835	486.117	-0.058	-0.133
-720.821	-142.194	0.368	0.037
-719.806	-88.891	-0.527	-0.156
-718.791	-141.143	0.179	0.018
-717.777	459.930	-0.110	-0.245
-716.762	-200.000	-0.018	0.385
-715.748	5.578	-0.017	0.012
-714.733	-200.000	0.024	0.109
-713.718	105.175	-0.291	0.343
-712.704	-200.000	0.026	-0.378
-711.689	339.769	0.044	0.086
-710.675	-81.169	0.147	-0.049
-709.660	22.992	0.037	0.030
-708.645	653.440	0.052	0.134
-707.631	-71.834	-0.341	-0.127
-706.616	504.780	-0.056	-0.129
-705.602	800.000	-0.075	0.301
-704.587	61.306	0.116	-0.116
-703.572	800.000	-0.143	-0.439
-702.558	-102.349	-0.159	0.038
-701.543	374.606	-0.185	-0.377
-700.529	-145.504	0.340	-0.030
-699.514	-61.803	-0.230	-0.096
-698.499	142.556	0.223	-0.296
-697.485	-200.000	0.014	-0.153
-696.470	-200.000	0.028	-0.183
-695.456	47.371	0.158	0.147
-694.441	-200.000	0.003	-0.079
-693.426	268.741	0.088	0.154
-692.412	-137.706	-0.199	-0.022
-691.397	-200.000	0.002	-0.591
-690.383	711.312	-0.020	0.054
-689.368	-200.000	0.052	-0.263
-688.354	267.520	0.080	0.140
-687.339	-93.265	-0.310	0.086
-686.324	-29.821	-0.170	0.097
-685.310	7.242	0.306	0.228
-684.295	-143.742	0.182	0.017
-683.281	-158.523	-0.018	-0.001
-682.266	-29.788	-0.219	0.125
-681.251	149.583	0.107	0.145
-680.237	290.943	-0.144	0.261
-679.222	-116.358	-0.152	0.028
-678.208	-72.025	0.066	-0.024
-677.193	-104.356	-0.314	0.073
-676.178	295.598	-0.137	0.251
-675.164	53.730	-0.170	-0.163
-674.149	17.113	-0.135	-0.107
-673.135	-53.030	-0.269	-0.123
-672.120	160.314	0.070	0.098
-671.105	-15.123	0.253	-0.162
-670.091	-119.154	0.249	0.043
-669.076	20.955	0.116	0.094
-668.062	-181.894	-0.189	-0.004
-667.047	788.288	0.066	0.182
-666.032	-200.000	-0.056	-0.342
-665.018	51.824	0.249	-0.236
-664.003	-30.214	-0.054	0.031
-662.989	800.000	-0.061	-0.236
-661.974	-200.000	0.001	-0.140
-660.959	-200.000	0.015	0.296
-659.945	-137.262	0.109	-0.012
-658.930	143.685	-0.080	0.106
-657.916	126.739	0.038	-0.048
-656.901	428.973	-0.070	-0.152
-655.886	-103.907	-0.612	-0.143
-654.872	-200.000	0.014	0.151
-653.857	129.834	0.172	-0.220
-652.843	-27.059	0.021	0.012
-651.828	-27.316	-0.245	0.142
-650.814	-8.186	-0.122	-0.082
-649.799	-90.115	0.451	0.131
-648.784	464.651	-0.091	-0.203
-647.770	205.467	0.073	-0.114
-646.755	-134.674	-0.182	0.022
-645.741	-200.000	0.017	-0.142
-644.726	-200.000	0.001	-0.263
-643.711	-70.217	-0.217	-0.082
-642.697	-140.156	0.158	-0.017
-641.682	86.880	-0.151	0.166
-640.668	45.673	0.127	0.117
-639.653	-200.000	-0.023	-0.624
-638.638	-200.000	-0.060	-0.273
-637.624	-14.929	-0.262	-0.168
-636.609	160.341	-0.281	0.391
-635.595	-52.753	0.178	0.082
-634.580	20.140	-0.267	-0.214
-633.565	247.402	0.086	-0.144
-632.551	-110.667	-0.015	-0.003
-631.536	-69.900	-0.240	-0.091
-630.522	67.987	0.211	-0.215
-629.507	-109.412	0.119	-0.025
-628.492	-5.357	0.121	-0.083
-627.478	492.691	-0.082	-0.187
-626.463	-189.110	-0.301	-0.004
-625.449	321.049	-0.080	0.151
-624.434	800.000	-0.037	-0.114
-623.419	-16.407	-0.147	-0.093
-622.405	-68.302	0.296	-0.115
-621.390	-167.200	-0.093	-0.004
-620.376	356.098	-0.109	-0.216
-619.361	78.249	0.066	0.071
-618.346	144.393	-0.093	0.124
-617.332	242.121	0.088	0.146
-616.317	366.652	0.111	0.224
-615.303	-40.060	-0.256	-0.133
-614.288	-200.000	-0.024	-0.505
-613.273	257.497	-0.176	-0.302
-612.259	149.766	-0.201	0.271
-611.244	482.627	0.088	0.199
-610.230	800.000	-0.035	-0.139
-609.215	-60.198	-0.122	-0.052
-608.201	-149.566	-0.091	-0.007
-607.186	-55.279	0.062	-0.028
-606.171	37.094	-0.177	-0.156
-605.157	-103.330	-0.333	0.078
-604.142	-43.419	0.265	-0.133
-603.128	211.680	0.023	-0.036
-602.113	-200.000	0.045	0.200
-601.098	23.704	-0.071	-0.058
-600.084	-175.597	-0.144	-0.004
-599.069	-200.000	-0.017	0.098
-598.055	309.275	-0.081	-0.150
-597.040	281.820	-0.048	-0.086
-596.025	-89.233	0.076	0.022
-595.011	-200.000	0.013	0.326
-593.996	-198.153	0.124	0.001
-592.982	-35.452	0.276	-0.149
-591.967	-200.000	0.013	-0.077
-590.952	-41.949	-0.068	-0.035
-589.938	271.120	-0.033	-0.058
-588.923	-200.000	0.004	-0.025
-587.909	-34.844	0.384	0.209
-586.894	538.362	0.020	0.047
-585.879	-200.000	-0.017	0.177
-584.865	-104.798	-0.480	0.110
-583.850	95.705	0.162	0.184
-582.836	-13.387	-0.218	0.141
-581.821	-200.000	0.045	0.526
-580.806	94.841	-0.209	0.237
-579.792	800.000	-0.033	0.138
-578.777	239.925	-0.185	-0.307
-577.763	-200.000	0.028	0.279
-576.748	176.887	0.071	0.103
-575.733	-200.000	0.006	-0.167
-574.719	-200.000	0.083	-0.435
-573.704	116.114	0.013	-0.016
-572.690	4.270	-0.117	0.085
-571.675	-123.192	-0.216	-0.034
-570.661	-200.000	0.062	0.415
-569.646	142.527	0.047	-0.062
-568.631	-1.060	-0.165	-0.116
-567.617	3.479	0.183	-0.133
-566.602	-66.685	-0.186	0.073
-565.588	-140.129	0.276	-0.029
-564.573	778.942	-0.118	0.319
-563.558	-34.716	-0.139	0.075
-562.544	-75.476	0.297	0.105
-561.529	144.772	0.246	0.327
-560.515	23.401	0.110	-0.090
-559.500	12.282	-0.154	0.118
-558.485	-24.895	-0.167	-0.098
-557.471	-143.894	0.368	0.034
-556.456	800.000	0.060	0.208
-555.442	-191.306	0.236	-0.002
-554.427	-145.706	-0.114	0.010
-553.412	800.000	0.067	-0.191
-552.398	-6.365	-0.152	-0.103
-551.383	88.979	0.227	-0.251
-550.369	132.094	-0.134	0.172
-549.354	-66.433	-0.288	0.114
-548.339	-54.852	0.376	-0.169
-547.325	-87.651	-0.304	-0.091
-546.310	-40.168	-0.044	0.023
-545.296	530.609	0.019	-0.044
-544.281	185.888	0.136	-0.200
-543.266	166.593	-0.141	0.199
-542.252	-137.101	0.301	0.034
-541.237	32.195	0.179	-0.153
-540.223	-200.000	-0.015	-0.088
-539.208	-46.321	0.045	-0.022
-538.193	128.090	-0.073	0.092
-537.179	106.547	0.155	-0.182
-536.164	-23.336	0.184	0.110
-535.150	37.131	-0.317	-0.279
-534.135	-164.146	-0.150	-0.007
-533.121	-117.343	-0.215	-0.039
-532.106	-5.941	0.109	0.074
-531.091	-26.078	0.113	0.066
-530.077	-86.142	-0.126	-0.038
-529.062	-94.913	0.228	0.061
-528.048	-200.000	-0.002	0.232
-527.033	-110.960	-0.110	0.022
-526.018	-138.406	0.361	-0.040
-525.004	-77.129	-0.450	0.156
-523.989	75.137	-0.133	0.139
-522.975	-127.605	-0.102	-0.015
-521.960	-200.000	-0.049	0.220
-520.945	-200.000	-0.026	0.185
-519.931	-36.352	0.261	0.139
-518.916	206.628	-0.073	-0.113
-517.902	800.000	-0.014	0.051
-516.887	800.000	0.136	0.444
-515.872	-72.282	0.023	0.008
-514.858	142.667	0.113	0.149
-513.843	-87.977	-0.166	0.049
-512.829	269.458	-0.113	0.196
-511.814	56.145	0.227	-0.218
-510.799	133.867	-0.053	0.068
-509.785	151.312	0.060	0.081
-508.770	119.232	-0.115	-0.141
-507.756	-200.000	-0.047	0.275
-506.741	-167.610	0.264	-0.010
-505.726	276.665	0.046	-0.081
-504.712	-200.000	-0.007	0.129
-503.697	136.299	-0.216	-0.279
-502.683	-147.513	0.108	-0.009
-501.668	-94.393	-0.324	0.088
-500.653	-100.162	0.256	0.063
-499.639	89.359	0.064	0.071
-498.624	465.619	-0.059	0.132
-497.610	295.823	0.105	-0.190
-496.595	-200.000	0.007	0.146
-495.581	-64.529	0.104	0.042
-494.566	-163.530	-0.351	-0.017
-493.551	-74.821	-0.066	-0.024
-492.537	-154.274	0.285	-0.019
-491.522	353.818	-0.019	0.038
-490.508	23.495	0.166	-0.135
-489.493	140.004	-0.093	0.122
-488.478	413.358	0.129	-0.271
-487.464	-69.224	-0.317	-0.121
-486.449	26.222	0.170	-0.141
-485.435	91.373	-0.235	0.261
-484.420	278.501	0.110	-0.195
-483.405	-200.000	0.000	0.169
-482.391	268.450	-0.414	0.719
-481.376	-14.675	-0.293	-0.187
-480.362	-34.367	0.177	0.096
-479.347	800.000	-0.090	0.282
-478.332	-55.500	-0.241	0.107
-477.318	800.000	-0.018	-0.060
-476.303	236.361	-0.134	0.219
-475.289	265.527	-0.021	-0.036
-474.274	35.958	-0.160	-0.139
-473.259	7.129	0.085	0.062
-472.245	72.482	-0.180	-0.186
-471.230	126.686	-0.041	0.052
-470.216	158.148	0.080	-0.110
-469.201	-40.560	-0.296	0.152
-468.186	-96.918	-0.172	-0.045
-467.172	-200.000	-0.042	0.292
-466.157	42.719	-0.063	-0.056
-465.143	800.000	-0.099	-0.381
-464.128	130.704	-0.145	-0.184
-463.113	693.911	0.136	-0.354
-462.099	87.975	-0.183	-0.201
-461.084	-64.058	0.099	-0.040
-460.070	-20.656	-0.053	0.032
-459.055	-156.625	-0.090	-0.006
-458.040	800.000	-0.081	-0.322
-457.026	-60.401	0.231	-0.097
-456.011	-97.704	-0.351	-0.090
-454.997	124.499	0.179	-0.223
-453.982	-53.002	0.269	-0.122
-452.968	-200.000	0.036	-0.304
-451.953	34.910	-0.126	0.109
-450.938	800.000	-0.094	-0.322
-449.924	-12.919	-0.143	0.092
-448.909	-200.000	0.046	0.275
-447.895	-168.153	0.224	0.009
-446.880	4.631	-0.088	-0.064
-445.865	-142.194	0.235	-0.023
-444.851	-41.910	-0.021	-0.010
-443.836	800.000	-0.071	-0.260
-442.822	-200.000	-0.042	-0.191
-441.807	-156.900	-0.203	0.012
-440.792	-200.000	0.001	0.203
-439.778	594.148	0.029	0.072
-438.763	135.407	-0.277	-0.356
-437.749	0.700	-0.129	0.092
-436.734	-200.000	-0.011	0.135
-435.719	3.075	-0.057	0.041
-434.705	800.000	-0.033	0.137
-433.690	-28.830	-0.411	0.234
-432.676	-112.265	0.421	-0.084
-431.661	402.088	-0.164	-0.341
-430.646	198.614	0.039	0.059
-429.632	-63.791	0.071	-0.029
-428.617	-200.000	0.082	-0.387
-427.603	-168.236	-0.100	0.004
-426.588	203.274	-0.174	0.266
-425.573	258.202	0.132	0.225
-424.559	158.802	-0.104	-0.143
-423.544	-200.000	0.013	0.064
-422.530	145.262	0.099	0.130
-421.515	-200.000	0.036	0.160
-420.500	-200.000	0.017	-0.183
-419.486	-62.246	0.107	0.044
-418.471	-22.175	0.323	-0.194
-417.457	39.180	-0.275	0.243
-416.442	15.266	0.134	-0.104
-415.428	-87.971	-0.066	-0.019
-414.413	-92.828	-0.055	0.015
-413.398	-71.270	-0.147	0.055
-412.384	-200.000	0.019	-0.096
-411.369	-200.000	0.005	-0.096
-410.355	263.912	-0.120	0.206
-409.340	8.808	0.213	0.159
-408.325	7.269	0.157	0.116
-407.311	29.652	-0.116	0.098
-406.296	-11.838	0.281	0.182
-405.282	120.635	-0.223	0.274
-404.267	800.000	0.121	-0.339
-403.252	91.311	0.101	0.112
-402.238	-20.557	-0.142	-0.086
-401.223	725.580	0.093	-0.244
-400.209	-37.046	-0.118	0.062
-399.194	-200.000	0.001	-0.160
-398.179	202.553	-0.109	0.167
-397.165	-42.279	0.228	0.115
-396.150	73.236	-0.110	0.114
-395.136	310.412	-0.082	-0.152
-394.121	20.022	0.110	-0.088
-393.106	145.841	-0.151	-0.200
-392.092	207.227	-0.108	-0.167
-391.077	67.272	0.358	-0.360
-390.063	-200.000	0.007	0.034
-389.048	-18.864	0.080	0.049
-388.033	601.793	0.160	0.391
-387.019	-200.000	0.042	0.320
-386.004	762.846	0.091	-0.243
-384.990	10.213	-0.287	-0.216
-383.975	102.745	0.085	0.099
-382.960	800.000	0.031	-0.108
-381.946	-195.808	-0.206	0.001
-380.931	-103.207	0.177	0.041
-379.917	55.708	0.148	0.142
-378.902	134.842	-0.029	-0.038
-377.888	800.000	-0.128	0.396
-376.873	-96.315	-0.223	0.058
-375.858	168.441	0.052	-0.073
-374.844	-56.424	0.126	0.055
-373.829	-200.000	0.003	-0.246
-372.815	772.810	-0.054	0.145
-371.800	-129.944	0.395	-0.053
-370.785	81.506	0.106	-0.113
-369.771	324.295	0.018	0.034
-368.756	335.497	0.073	0.140
-367.742	-35.065	-0.138	0.074
-366.727	-152.277	-0.075	0.005
-365.712	233.357	0.095	0.155
-364.698	74.834	0.131	-0.136
-363.683	-109.726	0.082	-0.017
-362.669	216.154	0.121	-0.190
-361.654	-104.615	0.206	0.047
-360.639	-200.000	-0.033	0.345
-359.625	-94.099	-0.094	0.026
-358.610	93.088	-0.173	0.193
-357.596	-27.494	0.349	-0.200
-356.581	-200.000	0.304	-0.000
-355.566	49.147	0.156	-0.145
-354.552	-87.788	-0.178	-0.053
-353.537	145.847	-0.203	0.269
-352.523	158.578	0.062	0.085
-351.508	-39.453	0.129	-0.066
-350.493	87.627	-0.134	0.146
-349.479	-115.357	-0.201	0.037
-348.464	-148.738	0.167	-0.013
-347.450	127.600	0.090	0.113
-346.435	138.294	0.202	-0.261
-345.420	-96.084	-0.194	-0.051
-344.406	168.591	-0.256	0.359
-343.391	800.000	0.047	0.163
-342.377	-200.000	0.013	-0.105
-341.362	-200.000	-0.004	0.315
-340.348	712.595	0.034	-0.089
-339.333	-196.879	0.258	-0.002
-338.318	-176.593	-0.234	0.006
-337.304	-97.059	0.127	0.033
-336.289	-78.465	-0.327	0.110
-335.275	-39.961	-0.155	0.080
-334.260	4.437	0.202	-0.146
-333.245	-170.497	0.260	-0.009
-332.231	428.335	0.091	-0.194
-331.216	800.000	-0.037	0.114
-330.202	-148.359	0.128	0.010
-329.187	-200.000	-0.032	-0.269
-328.172	800.000	0.063	0.267
-327.158	5.897	0.288	-0.210
-326.143	800.000	-0.076	0.309
-325.129	133.860	-0.060	0.076
-324.114	41.154	0.106	0.094
-323.099	550.241	-0.024	-0.056
-322.085	-33.149	0.402	0.219
-321.070	-54.028	-0.137	0.061
-320.056	-52.219	-0.295	0.135
-319.041	38.068	-0.060	-0.053
-318.026	412.152	0.111	-0.233
-317.012	119.874	-0.046	-0.056
-315.997	-200.000	-0.079	0.352
-314.983	352.508	0.091	-0.178
-313.968	113.957	-0.094	0.112
-312.953	-117.500	0.134	-0.024
-311.939	-29.895	-0.193	0.108
-310.924	306.378	-0.168	-0.308
-309.910	-188.819	0.224	-0.003
-308.895	-11.031	0.094	0.061
-307.880	-200.000	-0.094	-0.503
-306.866	-10.983	-0.241	-0.156
-305.851	-200.000	0.015	-0.213
-304.837	-75.543	-0.366	0.128
-303.822	39.115	0.318	-0.280
-302.807	800.000	-0.023	-0.066
-301.793	-59.439	0.148	0.063
-300.778	610.058	0.048	-0.117
-299.764	20.001	0.019	0.015
-298.749	-131.683	-0.054	-0.007
-297.735	370.694	-0.151	-0.301
-296.720	-200.000	0.001	-0.138
-295.705	82.078	0.059	0.063
-294.691	436.766	0.131	0.281
-293.676	800.000	0.030	0.102
-292.662	28.397	-0.018	0.015
-291.647	-40.799	-0.240	-0.122
-290.632	-145.974	0.103	-0.009
-289.618	-26.886	0.244	0.140
-288.603	61.579	-0.066	0.065
-287.589	-66.127	-0.088	-0.034
-286.574	-149.486	-0.091	0.007
-285.559	-134.631	0.137	0.016
-284.545	800.000	-0.099	0.348
-283.530	141.937	-0.115	0.150
-282.516	44.683	0.049	0.044
-281.501	800.000	-0.026	-0.106
-280.486	-200.000	-0.025	0.186
-279.472	-140.048	-0.106	0.011
-278.457	121.852	-0.113	0.138
-277.443	-111.654	0.244	0.049
-276.428	321.743	0.113	-0.211
-275.413	410.913	-0.067	-0.139
-274.399	137.634	0.183	0.236
-273.384	678.164	0.069	0.176
-272.370	-200.000	-0.005	0.381
-271.355	61.931	-0.060	-0.059
-270.340	-149.798	0.136	0.011
-269.326	230.223	0.186	-0.298
-268.311	246.581	0.155	0.256
-267.297	16.424	-0.269	-0.209
-266.282	-200.000	-0.078	-0.373
-265.267	-200.000	0.013	0.438
-264.253	415.189	0.117	-0.244
-263.238	-109.090	0.174	-0.036
-262.224	-64.890	0.109	0.043
-261.209	247.799	-0.157	-0.261
-260.195	-200.000	-0.006	-0.142
-259.180	44.991	-0.237	-0.214
-258.165	-117.608	-0.175	-0.031
-257.151	-174.904	0.523	-0.014
-256.136	-155.299	-0.212	-0.014
-255.122	-105.338	0.351	0.078
-254.107	-40.755	0.249	-0.126
-253.092	-200.000	0.011	-0.134
-252.078	-32.274	0.147	-0.081
-251.063	23.389	0.258	-0.208
-250.049	800.000	0.050	0.197
-249.034	-200.000	0.003	0.064
-248.019	-87.971	0.318	-0.094
-247.005	72.697	-0.142	0.145
-245.990	-5.336	-0.369	0.249
-244.976	22.636	0.297	-0.238
-243.961	-78.740	0.270	-0.090
-242.946	-44.279	-0.192	0.095
-241.932	-91.293	0.326	-0.092
-240.917	-63.371	-0.523	-0.211
-239.903	8.625	-0.093	-0.069
-238.888	-200.000	-0.059	0.478
-237.873	730.013	-0.118	0.309
-236.859	-151.585	0.219	-0.016
-235.844	-44.126	-0.198	0.097
-234.830	25.955	0.409	0.335
-233.815	63.420	0.210	-0.206
-232.800	-130.854	-0.236	0.031
-231.786	560.071	0.005	-0.013
-230.771	770.357	-0.117	0.312
-229.757	278.055	-0.019	-0.034
-228.742	-26.104	0.205	-0.118
-227.727	107.180	0.152	0.178
-226.713	800.000	-0.065	0.265
-225.698	-57.016	0.052	0.022
-224.684	66.980	0.227	-0.227
-223.669	-142.971	-0.340	0.032
-222.655	632.320	-0.028	0.071
-221.640	709.623	0.073	0.189
-220.625	30.591	0.105	0.088
-219.611	-88.466	-0.147	0.043
-218.596	257.517	-0.181	0.305
-217.582	87.527	0.192	-0.209
-216.567	-200.000	-0.025	-0.139
-215.552	-16.968	0.194	0.120
-214.538	-4.447	0.282	0.191
-213.523	162.115	-0.069	-0.095
-212.509	-98.872	0.432	-0.108
-211.494	82.785	-0.103	0.110
-210.479	-79.144	-0.107	-0.036
-209.465	-58.926	-0.189	-0.080
-208.450	-130.718	0.340	0.045
-207.436	-107.113	-0.205	-0.044
-206.421	-200.000	0.012	0.066
-205.406	354.739	0.040	-0.078
-204.392	-145.058	-0.225	-0.020
-203.377	-25.198	0.148	0.086
-202.363	-26.593	-0.184	0.106
-201.348	310.005	0.158	0.290
-200.333	-59.684	-0.218	-0.091
-199.319	-106.383	-0.144	0.032
-198.304	82.699	0.084	0.089
-197.290	724.612	0.138	0.360
-196.275	182.891	-0.101	-0.146
-195.260	800.000	0.104	-0.337
-194.246	-121.138	0.621	0.102
-193.231	71.866	0.180	-0.183
-192.217	800.000	-0.105	0.322
-191.202	-22.091	0.109	0.065
-190.187	108.619	-0.313	-0.367
-189.173	121.207	-0.201	-0.245
-188.158	-200.000	0.044	-0.221
-187.144	-100.330	-0.364	-0.088
-186.129	-23.800	0.110	-0.064
-185.114	95.915	-0.153	-0.171
-184.100	-200.000	0.036	-0.280
-183.085	53.686	0.362	-0.341
-182.071	800.000	-0.075	-0.271
-181.056	25.033	0.084	0.068
-180.042	72.703	-0.098	0.100
-179.027	195.214	-0.114	0.169
-178.012	-200.000	-0.026	0.573
-176.998	-30.547	-0.316	0.175
-175.983	21.019	-0.146	-0.116
-174.969	237.256	0.244	-0.396
-173.954	800.000	0.123	-0.528
-172.939	-47.455	0.268	-0.128
-171.925	-200.000	-0.033	-0.230
-170.910	-200.000	-0.036	-0.191
-169.896	-71.823	0.303	-0.111
-168.881	800.000	0.053	0.203
-167.866	-170.673	0.233	-0.008
-166.852	-138.411	0.347	-0.037
-165.837	687.320	-0.102	-0.262
-164.823	524.208	-0.031	0.070
-163.808	800.000	0.026	0.084
-162.793	-200.000	-0.001	0.086
-161.779	14.559	-0.224	-0.171
-160.764	648.470	0.097	-0.244
-159.750	-200.000	0.000	0.221
-158.735	77.595	-0.191	0.199
-157.720	-132.862	-0.363	-0.045
-156.706	-125.342	0.154	-0.023
-155.691	398.784	-0.179	0.366
-154.677	670.420	-0.091	0.229
-153.662	-50.209	-0.104	-0.048
-152.647	-173.239	-0.193	0.006
-151.633	800.000	0.067	-0.222
-150.618	-79.527	0.283	0.093
-149.604	-165.453	-0.260	0.011
-148.589	136.358	-0.153	0.195
-147.574	800.000	0.135	0.385
-146.560	-25.332	-0.071	-0.041
-145.545	-92.907	-0.333	0.091
-144.531	92.982	-0.115	0.127
-143.516	-200.000	0.027	0.155
-142.502	800.000	0.063	-0.257
-141.487	800.000	-0.075	-0.280
-140.472	800.000	-0.089	0.245
-139.458	-200.000	-0.023	0.112
-138.443	-34.229	0.394	0.212
-137.429	118.540	0.089	0.108
-136.414	671.700	-0.086	-0.217
-135.399	-80.529	0.295	-0.096
-134.385	305.475	0.094	-0.170
-133.370	462.418	-0.147	0.320
-132.356	-73.776	-0.211	0.075
-131.341	111.936	0.120	0.141
-130.326	-77.745	0.195	0.066
-129.312	-92.205	0.079	-0.022
-128.297	-118.651	-0.050	-0.009
-127.283	800.000	0.041	0.144
-126.268	-200.000	0.003	-0.116
-125.253	-133.578	0.204	0.025
-124.239	-90.600	-0.061	0.017
-123.224	-91.892	-0.215	0.060
-122.210	229.046	0.051	-0.082
-121.195	-200.000	0.024	0.105
-120.180	-108.858	-0.130	0.027
-119.166	800.000	-0.050	-0.186
-118.151	-200.000	0.028	-0.155
-117.137	148.830	-0.231	0.306
-116.122	-57.634	0.398	0.170
-115.107	-193.443	0.173	0.001
-114.093	-34.635	0.117	-0.062
-113.078	-34.858	-0.063	0.034
-112.064	-57.864	-0.209	0.089
-111.049	158.906	-0.149	0.202
-110.034	575.564	0.135	0.321
-109.020	-90.910	0.095	-0.027
-108.005	-53.946	0.422	-0.188
-106.991	-49.775	0.182	-0.084
-105.976	-176.561	0.223	0.006
-104.962	800.000	-0.072	0.233
-103.947	-93.684	0.281	0.076
-102.932	-31.891	0.254	0.139
-101.918	-79.341	-0.177	0.058
-100.903	112.884	-0.144	-0.170
-99.889	-136.535	0.176	0.020
-98.874	32.524	-0.100	-0.084
-97.859	-72.305	-0.185	-0.067
-96.845	-147.069	-0.196	-0.016
-95.830	44.297	-0.032	-0.028
-94.816	-200.000	-0.012	0.094
-93.801	-117.532	0.385	0.068
-92.786	15.941	-0.136	0.104
-91.772	-45.997	0.095	-0.046
-90.757	70.908	0.286	0.289
-89.743	-200.000	-0.038	0.249
-88.728	-76.126	0.325	-0.112
-87.713	800.000	-0.099	-0.329
-86.699	219.237	0.226	0.353
-85.684	-200.000	0.006	0.237
-84.670	87.189	-0.120	0.129
-83.655	513.379	0.050	0.113
-82.640	17.614	0.083	-0.064
-81.626	558.307	-0.026	0.060
-80.611	-200.000	-0.084	-0.417
-79.597	800.000	-0.111	-0.356
-78.582	93.068	0.211	0.233
-77.567	-96.524	-0.032	-0.008
-76.553	800.000	-0.069	0.220
-75.538	33.755	-0.364	0.308
-74.524	-200.000	-0.010	-0.113
-73.509	800.000	-0.054	-0.177
-72.494	-124.711	-0.108	-0.016
-71.480	-125.067	0.102	0.015
-70.465	-200.000	0.001	-0.024
-69.451	-13.374	0.185	0.117
-68.436	-83.552	-0.290	0.090
-67.422	89.656	-0.095	0.104
-66.407	-28.729	0.050	-0.028
-65.392	-200.000	-0.027	-0.236
-64.378	-200.000	-0.036	0.179
-63.363	-103.952	-0.060	-0.014
-62.349	-7.324	0.106	-0.070
-61.334	115.892	-1.121	-1.337
-60.319	-93.370	0.944	0.255
-59.305	392.167	-0.558	-1.131
-58.290	800.000	0.388	1.393
-57.276	800.000	0.484	1.617
-56.261	-200.000	118.946	613.693
-55.246	412.217	1529.937	3166.495
-54.232	147.479	2690.492	3530.345
-53.217	91.326	2264.144	2477.066
-52.203	33.865	1877.946	1592.345
-51.188	28.431	1674.632	1379.139
-50.173	26.090	1635.287	1329.462
-49.159	44.599	1699.332	1521.575
-48.144	43.421	1713.069	1524.926
-47.130	27.926	1666.237	1368.226
-46.115	25.476	1650.636	1337.158
-45.100	25.248	1646.157	1331.787
-44.086	25.270	1643.595	1329.826
-43.071	25.298	1640.383	1327.377
-42.057	25.145	1638.531	1324.696
-41.042	25.137	1636.747	1323.140
-40.027	25.309	1634.724	1322.722
-39.013	25.173	1633.135	1320.381
-37.998	25.191	1631.419	1319.076
-36.984	25.258	1630.225	1318.547
-35.969	25.295	1628.599	1317.454
-34.954	25.344	1627.316	1316.724
-33.940	25.388	1625.303	1315.364
-32.925	25.288	1624.022	1313.547
-31.911	25.278	1622.759	1312.400
-30.896	25.417	1620.647	1311.648
-29.881	25.438	1618.997	1310.416
-28.867	25.384	1617.668	1308.894
-27.852	25.388	1616.152	1307.645
-26.838	25.360	1615.057	1306.508
-25.823	25.422	1613.558	1305.692
-24.809	25.366	1612.171	1304.107
-23.794	25.397	1610.773	1303.155
-22.779	25.368	1609.701	1302.023
-21.765	25.478	1607.607	1301.076
-20.750	25.407	1606.167	1299.346
-19.736	25.482	1605.119	1298.990
-18.721	25.382	1604.215	1297.482
-17.706	25.405	1602.306	1296.050
-16.692	25.440	1600.549	1294.834
-15.677	25.427	1599.041	1293.463
-14.663	25.516	1597.342	1292.678
-13.648	25.449	1596.356	1291.349
-12.633	25.439	1594.815	1289.980
-11.619	25.406	1593.475	1288.610
-10.604	25.378	1592.193	1287.317
-9.590	25.499	1590.350	1286.642
-8.575	25.413	1589.352	1285.174
-7.560	25.425	1587.882	1284.017
-6.546	25.304	1587.449	1282.755
-5.531	25.392	1586.568	1282.616
-4.517	25.410	1584.830	1281.288
-3.502	25.293	1584.297	1279.975
-2.487	25.432	1582.099	1279.138
-1.473	25.100	1569.391	1266.464
-0.458	21.869	1550.081	1228.252
0.556	16.600	1550.710	1195.405
1.571	14.106	1573.844	1195.224
2.586	13.830	1586.020	1202.364
3.600	12.733	1532.892	1154.298
4.615	7.148	1427.939	1038.627
5.629	1.279	1368.760	958.504
6.644	0.305	1361.013	946.878
7.659	0.165	1360.263	945.395
8.673	0.152	1359.344	944.591
9.688	0.088	1357.016	942.491
10.702	-0.016	1353.854	939.557
11.717	2.847	1357.581	959.982
12.731	10.058	1368.003	1012.574
13.746	15.694	1376.189	1053.973
14.761	16.963	1377.254	1062.649
15.775	16.275	1375.012	1056.523
16.790	15.203	1373.361	1048.452
17.804	14.463	1370.374	1041.460
18.819	14.059	1369.486	1038.169
19.834	13.926	1367.648	1035.854
20.848	13.681	1366.498	1033.369
21.863	13.298	1365.152	1029.871
22.877	13.298	1364.097	1028.984
23.892	13.214	1363.054	1027.583
24.907	13.196	1362.331	1026.837
25.921	13.139	1361.612	1025.852
26.936	13.239	1360.886	1025.830
27.950	13.308	1359.347	1025.010
28.965	13.347	1359.049	1024.934
29.980	13.313	1357.829	1023.717
30.994	13.404	1356.703	1023.337
32.009	13.439	1355.866	1022.833
33.023	13.430	1354.430	1021.606
34.038	13.405	1353.366	1020.555
35.053	13.346	1352.530	1019.472
36.067	13.303	1352.008	1018.723
37.082	13.332	1350.497	1017.676
38.096	13.450	1349.355	1017.447
39.111	13.366	1348.839	1016.455
40.126	13.255	1348.249	1015.237
41.140	13.285	1347.197	1014.536
42.155	13.151	1346.695	1013.251
43.169	13.167	1346.779	1013.323
44.184	13.247	1346.069	1013.187
45.199	13.201	1345.945	1012.724
46.213	13.237	1344.958	1012.107
47.228	13.227	1344.145	1011.347
48.242	13.302	1343.234	1011.031
49.257	13.323	1341.471	1009.743
50.271	13.314	1339.929	1008.439
51.286	13.406	1338.374	1007.739
52.301	13.317	1337.558	1006.496
53.315	13.272	1336.448	1005.297
54.330	13.270	1336.061	1004.902
55.344	13.171	1334.853	1003.304
56.359	13.203	1333.764	1002.592
57.374	13.198	1332.844	1001.778
58.388	13.095	1332.259	1000.630
59.403	13.118	1331.753	1000.299
60.417	13.119	1330.886	999.567
61.432	13.111	1329.692	998.532
62.447	13.079	1328.891	997.647
63.461	13.052	1328.014	996.737
64.476	13.028	1327.260	995.942
65.490	13.262	1324.778	995.400
66.505	13.150	1323.818	993.915
67.520	13.163	1322.533	992.943
68.534	13.154	1321.266	991.849
69.549	13.214	1320.487	991.535
70.563	13.138	1319.534	990.278
71.578	13.038	1318.627	988.907
72.593	13.068	1317.236	987.955
73.607	13.081	1316.740	987.577
74.622	13.026	1315.839	986.482
75.636	13.065	1315.125	986.096
76.651	13.089	1314.616	985.767
77.666	13.134	1313.786	985.329
78.680	13.114	1313.516	984.917
79.695	13.124	1312.770	984.331
80.709	13.171	1311.584	983.637
81.724	13.153	1311.114	983.092
82.739	13.188	1309.977	982.360
83.753	13.202	1309.269	981.822
84.768	13.282	1308.006	981.263
85.782	13.334	1307.071	980.781
86.797	13.212	1305.878	979.078
87.812	13.309	1304.465	978.510
88.826	13.254	1303.394	977.293
89.841	13.265	1302.360	976.492
90.855	13.321	1301.027	975.737
91.870	13.364	1300.489	975.505
92.884	13.334	1299.952	974.839
93.899	13.404	1299.137	974.555
94.914	13.400	1298.021	973.604
95.928	13.396	1297.441	973.062
96.943	13.381	1295.753	971.620
97.957	13.303	1295.482	970.872
98.972	13.309	1294.416	970.022
99.987	13.382	1293.132	969.406
101.001	13.323	1292.566	968.550
102.016	13.318	1291.326	967.502
103.030	13.266	1290.552	966.536
104.045	13.265	1289.610	965.737
105.060	13.361	1288.369	965.285
106.074	13.274	1286.975	963.644
107.089	13.268	1285.367	962.320
108.103	13.192	1284.416	961.084
109.118	13.247	1282.998	960.255
110.133	13.201	1282.046	959.194
111.147	13.254	1280.638	958.362
112.162	13.219	1279.754	957.411
113.176	13.207	1278.448	956.280
114.191	13.234	1277.707	955.795
115.206	13.222	1276.431	954.689
116.220	13.276	1274.878	953.754
117.235	13.297	1274.048	953.172
118.249	13.281	1273.348	952.470
119.264	13.195	1272.021	950.897
120.279	13.296	1270.684	950.396
121.293	13.140	1270.403	949.205
122.308	13.201	1269.224	948.590
123.322	13.190	1268.221	947.692
124.337	13.207	1266.659	946.538
125.352	13.234	1265.753	945.932
126.366	13.323	1264.054	945.089
127.381	13.182	1263.414	943.720
128.395	13.079	1262.458	942.335
129.410	13.135	1261.980	942.213
130.424	13.182	1260.647	941.402
131.439	13.196	1260.010	940.928
132.454	13.279	1258.623	940.277
133.468	13.243	1257.606	939.231
134.483	13.295	1256.885	938.905
135.497	13.249	1256.025	937.921
136.512	13.207	1254.944	936.792
137.527	13.288	1253.143	935.823
138.541	13.251	1252.100	934.749
139.556	13.285	1250.743	933.846
140.570	13.403	1249.739	933.680
141.585	13.394	1248.493	932.615
142.600	13.388	1247.584	931.821
143.614	13.449	1246.550	931.309
144.629	13.484	1245.405	930.570
145.643	13.496	1244.365	929.774
146.658	13.454	1242.647	928.172
147.673	13.469	1241.319	927.182
148.687	13.316	1240.120	925.353
149.702	13.397	1239.203	925.039
150.716	13.242	1238.382	923.477
151.731	13.342	1236.969	922.897
152.746	13.370	1236.042	922.284
153.760	13.388	1234.624	921.244
154.775	13.599	1233.046	921.159
155.789	13.483	1232.488	920.016
156.804	13.568	1230.947	919.254
157.819	13.544	1230.165	918.458
158.833	13.564	1229.617	918.078
159.848	13.576	1227.962	916.826
160.862	13.542	1227.627	916.308
161.877	13.579	1225.898	915.138
162.892	13.472	1225.582	914.231
163.906	13.426	1223.970	912.695
164.921	13.465	1223.356	912.369
165.935	13.606	1222.460	912.400
166.950	13.573	1221.729	911.590
167.964	13.657	1220.708	911.210
168.979	13.630	1220.044	910.487
169.994	13.553	1219.499	909.577
171.008	13.613	1218.730	909.250
172.023	13.609	1217.330	908.101
173.037	13.705	1216.633	908.027
174.052	13.736	1215.456	907.240
175.067	13.622	1214.769	906.026
176.081	13.615	1213.803	905.185
177.096	13.512	1212.927	903.888
178.110	13.655	1211.813	903.757
179.125	13.618	1210.754	902.687
180.140	13.685	1209.440	901.995
181.154	13.744	1207.843	901.042
182.169	13.725	1206.794	900.076
183.183	13.750	1205.962	899.512
184.198	13.867	1204.565	899.025
185.213	13.812	1203.990	898.219
186.227	13.737	1203.158	897.111
187.242	13.851	1201.574	896.468
188.256	13.977	1200.508	896.274
189.271	13.972	1199.534	895.439
190.286	13.890	1198.521	894.161
191.300	13.639	1198.087	892.408
192.315	13.804	1196.962	892.380
193.329	13.606	1196.805	891.117
194.344	13.689	1195.939	890.838
195.359	13.732	1195.236	890.470
196.373	13.751	1194.997	890.315
197.388	13.939	1194.317	890.737
198.402	13.864	1193.784	889.857
199.417	14.111	1192.972	890.499
200.432	14.017	1192.228	889.358
201.446	14.006	1191.735	888.855
202.461	14.005	1190.855	888.112
203.475	14.091	1189.256	887.301
204.490	14.047	1188.059	886.096
205.504	13.973	1186.900	884.761
206.519	14.091	1186.062	884.682
207.534	14.117	1184.620	883.671
208.548	14.182	1183.267	882.927
209.563	14.034	1183.126	881.959
210.577	14.105	1182.214	881.577
211.592	14.095	1181.293	880.759
212.607	14.204	1180.513	880.677
213.621	14.182	1179.511	879.732
214.636	14.206	1178.932	879.353
215.650	14.117	1178.544	878.516
216.665	14.236	1177.039	877.939
217.680	14.233	1175.976	877.055
218.694	14.230	1175.275	876.442
219.709	14.228	1174.544	875.808
220.723	14.277	1173.734	875.383
221.738	14.182	1173.589	874.696
222.753	14.267	1172.359	874.147
223.767	14.315	1171.419	873.625
224.782	14.429	1170.992	873.823
225.796	14.421	1170.557	873.381
226.811	14.456	1169.813	872.930
227.826	14.257	1169.320	871.445
228.840	14.348	1168.569	871.285
229.855	14.453	1167.525	870.978
230.869	14.362	1166.941	869.989
231.884	14.295	1166.141	868.968
232.899	14.276	1165.558	868.358
233.913	14.347	1164.833	868.111
234.928	14.387	1164.034	867.645
235.942	14.396	1162.939	866.800
236.957	14.375	1162.424	866.228
237.972	14.515	1161.302	866.045
238.986	14.416	1161.042	865.262
240.001	14.444	1160.262	864.747
241.015	14.448	1159.079	863.807
242.030	14.378	1158.627	863.034
243.045	14.538	1157.799	863.170
244.059	14.531	1157.064	862.506
245.074	14.491	1156.152	861.545
246.088	14.548	1155.238	861.082
247.103	14.492	1154.666	860.291
248.117	14.656	1153.737	860.365
249.132	14.667	1153.071	859.852
250.147	14.793	1151.907	859.555
251.161	14.766	1151.675	859.166
252.176	14.769	1150.873	858.509
253.190	14.829	1150.028	858.110
254.205	14.840	1149.603	857.774
255.220	14.807	1149.243	857.260
256.234	14.930	1148.688	857.400
257.249	14.811	1147.654	855.944
258.263	15.026	1146.957	856.447
259.278	14.880	1146.704	855.436
260.293	14.873	1145.904	854.729
261.307	15.024	1145.350	855.012
262.322	15.022	1145.069	854.716
263.336	14.955	1144.292	853.720
264.351	14.989	1143.322	853.090
265.366	15.081	1142.734	853.046
266.380	15.133	1141.714	852.474
267.395	15.025	1141.239	851.493
268.409	15.136	1140.272	851.261
269.424	15.064	1139.600	850.321
270.439	15.056	1139.346	850.013
271.453	15.051	1138.489	849.272
272.468	15.062	1137.466	848.493
273.482	15.058	1136.148	847.411
274.497	15.039	1136.175	847.262
275.512	15.114	1135.839	847.317
276.526	15.031	1134.807	846.054
277.541	14.910	1134.158	844.882
278.555	15.256	1133.139	845.795
279.570	15.268	1132.217	845.089
280.585	15.219	1131.804	844.460
281.599	15.318	1130.701	844.062
282.614	15.237	1129.891	842.976
283.628	15.345	1128.643	842.510
284.643	15.247	1127.864	841.363
285.657	15.218	1127.140	840.603
286.672	15.333	1126.507	840.634
287.687	15.237	1125.210	839.109
288.701	15.323	1124.894	839.231
289.716	15.279	1124.056	838.310
290.730	15.416	1123.134	838.232
291.745	15.337	1122.307	837.152
292.760	15.388	1121.794	836.947
293.774	15.405	1121.438	836.690
294.789	15.441	1120.990	836.462
295.803	15.381	1120.335	835.603
296.818	15.464	1119.262	835.140
297.833	15.455	1118.300	834.305
298.847	15.581	1117.443	834.219
299.862	15.556	1117.038	833.716
300.876	15.452	1116.479	832.711
301.891	15.515	1115.659	832.334
302.906	15.603	1114.765	832.032
303.920	15.500	1114.504	831.253
304.935	15.676	1113.845	831.560
305.949	15.568	1113.531	830.714
306.964	15.781	1112.137	830.657
307.979	15.692	1111.729	829.839
308.993	15.693	1111.007	829.229
310.008	15.738	1110.342	828.880
311.022	15.725	1109.417	828.052
312.037	15.774	1108.407	827.466
313.052	15.646	1107.648	826.201
314.066	15.586	1106.874	825.255
315.081	15.697	1106.223	825.238
316.095	15.631	1105.493	824.301
317.110	15.634	1104.708	823.653
318.125	15.534	1104.368	822.841
319.139	15.692	1103.126	822.611
320.154	15.745	1102.269	822.162
321.168	15.764	1101.823	821.851
322.183	15.680	1101.364	821.022
323.197	15.711	1101.065	820.880
324.212	15.702	1100.302	820.192
325.227	15.670	1099.923	819.683
326.241	15.751	1098.893	819.235
327.256	15.747	1098.078	818.538
328.270	15.819	1097.184	818.149
329.285	15.910	1096.131	817.736
330.300	15.779	1095.196	816.330
331.314	15.863	1094.727	816.314
332.329	15.881	1093.762	815.609
333.343	15.896	1092.507	814.675
334.358	15.882	1092.168	814.282
335.373	15.912	1091.158	813.601
336.387	16.010	1090.357	813.404
337.402	15.960	1089.767	812.650
338.416	16.077	1089.143	812.680
339.431	16.074	1088.603	812.189
340.446	16.057	1087.609	811.292
341.460	16.203	1086.771	811.299
342.475	16.149	1085.934	810.342
343.489	16.161	1085.105	809.710
344.504	16.282	1084.337	809.643
345.519	16.218	1083.512	808.652
346.533	16.176	1082.769	807.823
347.548	16.283	1081.673	807.448
348.562	16.299	1081.434	807.273
349.577	16.201	1080.579	806.094
350.592	16.212	1079.879	805.552
351.606	16.155	1079.165	804.680
352.621	16.161	1078.213	803.924
353.635	16.254	1077.525	803.787
354.650	16.186	1076.985	802.989
355.665	16.402	1076.166	803.331
356.679	16.158	1076.136	802.079
357.694	16.284	1075.074	801.817
358.708	16.357	1074.798	801.886
359.723	16.351	1074.062	801.237
360.738	16.380	1073.337	800.762
361.752	16.366	1072.538	800.028
362.767	16.368	1072.035	799.591
363.781	16.376	1071.497	799.157
364.796	16.388	1071.207	798.927
365.810	16.518	1070.463	798.914
366.825	16.548	1069.902	798.571
367.840	16.568	1069.485	798.279
368.854	16.598	1068.926	797.936
369.869	16.641	1067.856	797.266
370.883	16.556	1067.309	796.389
371.898	16.561	1066.427	795.686
372.913	16.451	1066.193	794.922
373.927	16.548	1065.335	794.669
374.942	16.578	1064.884	794.401
375.956	16.648	1064.022	794.017
376.971	16.691	1063.368	793.659
377.986	16.599	1063.430	793.204
379.000	16.745	1062.217	792.913
380.015	16.855	1062.054	793.234
381.029	16.768	1061.381	792.256
382.044	16.811	1060.536	791.756
383.059	16.888	1060.078	791.706
384.073	16.854	1059.044	790.701
385.088	16.950	1057.994	790.297
386.102	16.929	1057.482	789.747
387.117	16.881	1056.304	788.576
388.132	16.734	1055.801	787.447
389.146	16.760	1054.770	786.727
390.161	16.864	1054.158	786.684
391.175	16.891	1053.433	786.199
392.190	16.945	1052.619	785.774
393.205	16.987	1051.727	785.229
394.219	17.073	1050.861	784.914
395.234	16.926	1050.254	783.711
396.248	16.982	1049.056	783.005
397.263	16.881	1048.425	782.001
398.278	16.784	1048.245	781.348
399.292	16.765	1047.484	780.626
400.307	16.802	1046.572	780.047
401.321	16.899	1045.787	779.838
402.336	17.026	1044.885	779.680
403.350	16.975	1044.356	778.984
404.365	16.959	1043.817	778.437
405.380	17.071	1043.006	778.278
406.394	17.072	1042.057	777.505
407.409	17.027	1041.773	777.020
408.423	17.160	1040.797	776.829
409.438	17.228	1039.980	776.464
410.453	17.206	1039.024	775.581
411.467	17.215	1038.658	775.277
412.482	17.223	1038.573	775.183
413.496	17.273	1037.650	774.652
414.511	17.213	1036.969	773.803
415.526	17.268	1036.751	773.821
416.540	17.389	1035.814	773.607
417.555	17.423	1035.081	773.143
418.569	17.316	1034.953	772.493
419.584	17.325	1034.627	772.223
420.599	17.296	1034.256	771.748
421.613	107.234	1327.355	1483.299
422.628	98.276	1370.003	1483.410
