DTS Sentinel unit serial number:	SN413079Multiplexer serial number:	ORYXHardware model number:	OX4-SRSoftware version number:	ORYX F/W v4.00 Oryx Data Collector v3.7.2.0data status	okinstallation	princeton_trtdifferential loss correction	single-endedforward channel	channel 2reverse channel	N/Adate	2019/09/19time	14:39:35forward acquisition time	60.00reverse acquisition time	0.00gamma	496.2192k internal	0.2323k external	0.2323temperature offset calibration	1.0025default loss term (dB/km)	0.3790temperature slope calibration	1.0000multiplexer offset coefficient	1.0000multiplexer slope coefficient	1.0000fibre end	0.00T internal ref (°C)	32.48T ext. ref 1 (°C)	1.09T ext. ref 2 (°C)	29.45length (m)	temperature (°C)	Stokes	anti-Stokes-747.200	433.724	0.068	-0.150
-746.185	-33.712	-0.272	0.152
-745.171	195.888	-0.098	0.150
-744.156	-156.062	-0.053	0.003
-743.142	-18.443	-0.396	0.250
-742.127	76.182	0.265	0.284
-741.112	-200.000	-0.023	-0.243
-740.098	-35.459	-0.242	0.133
-739.083	36.228	0.143	-0.127
-738.069	332.354	0.147	0.287
-737.054	28.398	-0.113	0.096
-736.039	-146.616	-0.442	0.039
-735.025	-1.464	0.040	0.029
-734.010	161.270	-0.055	-0.078
-732.996	-71.838	0.221	0.083
-731.981	-37.772	0.256	0.137
-730.966	192.735	0.142	0.216
-729.952	-38.406	0.239	0.128
-728.937	-157.565	0.223	-0.014
-727.923	-0.340	-0.214	0.153
-726.908	15.647	0.121	0.096
-725.894	2.860	0.191	-0.140
-724.879	179.728	-0.100	-0.148
-723.864	2.399	-0.254	0.185
-722.850	44.506	0.355	0.329
-721.835	-200.000	0.007	-0.374
-720.821	-101.982	-0.076	0.018
-719.806	-200.000	0.019	-0.404
-718.791	800.000	-0.045	-0.175
-717.777	-78.688	0.242	0.083
-716.762	492.585	-0.079	0.183
-715.748	228.906	-0.117	-0.193
-714.733	33.390	-0.082	0.072
-713.718	788.013	0.071	-0.196
-712.704	-200.000	-0.014	-0.186
-711.689	800.000	0.125	-0.553
-710.675	364.852	-0.138	-0.280
-709.660	-125.623	-0.047	0.007
-708.645	-176.374	0.210	0.005
-707.631	-41.140	0.047	-0.025
-706.616	207.632	0.172	0.271
-705.602	10.873	0.162	0.125
-704.587	-34.592	0.232	-0.128
-703.572	102.946	0.151	-0.178
-702.558	-124.720	-0.137	-0.021
-701.543	-111.770	-0.037	0.008
-700.529	98.723	0.145	-0.169
-699.514	-85.824	-0.136	-0.042
-698.499	-14.112	-0.181	0.118
-697.485	-200.000	0.006	0.089
-696.470	800.000	0.026	0.074
-695.456	16.763	0.216	-0.172
-694.441	-200.000	0.001	-0.145
-693.426	15.394	-0.221	-0.175
-692.412	-63.806	-0.352	-0.145
-691.397	34.849	-0.242	0.213
-690.383	-97.375	-0.244	-0.064
-689.368	-200.000	0.015	0.298
-688.354	-52.712	0.029	-0.013
-687.339	76.983	-0.127	-0.136
-686.324	-200.000	0.031	0.315
-685.310	-27.361	0.224	0.132
-684.295	72.301	-0.268	-0.281
-683.281	-32.985	-0.107	-0.060
-682.266	172.420	0.097	0.141
-681.251	53.685	0.121	0.117
-680.237	-117.033	-0.193	0.035
-679.222	-200.000	0.012	-0.206
-678.208	-59.537	0.457	0.198
-677.193	114.990	0.138	0.170
-676.178	-58.956	0.056	-0.024
-675.164	-200.000	-0.055	0.369
-674.149	789.223	-0.070	0.194
-673.135	86.970	-0.193	0.215
-672.120	32.716	0.052	-0.046
-671.105	-200.000	0.054	0.292
-670.091	-111.112	-0.199	0.041
-669.076	-108.224	-0.424	-0.092
-668.062	-44.653	-0.168	-0.084
-667.047	-1.849	0.381	-0.270
-666.032	-79.335	-0.207	0.071
-665.018	-0.782	0.058	0.042
-664.003	545.523	0.104	-0.250
-662.989	-200.000	0.045	-0.276
-661.974	800.000	0.056	-0.174
-660.959	-1.517	0.082	0.058
-659.945	-200.000	0.004	-0.063
-658.930	-82.026	0.123	0.040
-657.916	-200.000	0.002	0.188
-656.901	-170.922	0.396	0.014
-655.886	606.803	0.013	0.031
-654.872	800.000	-0.064	-0.244
-653.857	225.527	-0.057	-0.094
-652.843	800.000	0.045	-0.135
-651.828	-90.952	0.223	-0.064
-650.814	-200.000	-0.013	0.226
-649.799	497.873	-0.093	-0.216
-648.784	800.000	-0.042	0.157
-647.770	378.380	-0.085	0.174
-646.755	-200.000	0.018	0.162
-645.741	257.709	-0.082	-0.142
-644.726	16.370	0.291	-0.231
-643.711	-200.000	0.033	0.228
-642.697	166.864	-0.233	0.333
-641.682	701.431	0.118	-0.313
-640.668	26.674	0.107	0.090
-639.653	54.921	-0.376	0.365
-638.638	-200.000	-0.048	0.523
-637.624	-194.565	-0.148	-0.001
-636.609	-186.413	0.141	0.002
-635.595	-5.663	-0.188	-0.130
-634.580	-174.734	-0.127	-0.004
-633.565	636.981	-0.014	-0.037
-632.551	800.000	-0.061	-0.191
-631.536	557.802	-0.074	-0.180
-630.522	-149.322	-0.286	-0.023
-629.507	-30.383	-0.122	0.069
-628.492	101.715	0.236	-0.277
-627.478	-90.366	-0.338	-0.099
-626.463	-155.987	0.139	0.009
-625.449	800.000	0.029	0.106
-624.434	-83.974	-0.251	0.080
-623.419	394.319	-0.130	-0.271
-622.405	-60.096	-0.280	-0.120
-621.390	101.259	0.166	0.195
-620.376	-112.097	0.070	0.014
-619.361	301.959	-0.146	-0.272
-618.346	-49.091	0.227	-0.109
-617.332	-48.518	0.195	0.094
-616.317	800.000	0.051	-0.170
-615.303	-70.695	-0.063	-0.024
-614.288	-42.950	0.231	0.118
-613.273	-200.000	0.015	0.186
-612.259	-200.000	-0.116	0.000
-611.244	-1.427	-0.112	0.079
-610.230	-188.340	0.226	-0.003
-609.215	-161.390	-0.080	-0.004
-608.201	-134.309	0.178	-0.022
-607.186	320.436	0.158	-0.301
-606.171	-106.813	0.122	0.027
-605.157	-132.942	0.412	0.053
-604.142	-200.000	0.006	0.447
-603.128	-1.964	0.208	0.147
-602.113	777.102	-0.089	-0.245
-601.098	83.914	0.255	0.280
-600.084	-80.890	0.069	0.023
-599.069	105.143	-0.317	0.375
-598.055	-50.932	0.008	0.004
-597.040	-200.000	0.005	-0.215
-596.025	81.314	-0.257	0.279
-595.011	-200.000	0.014	0.189
-593.996	-200.000	0.013	-0.072
-592.982	28.933	0.242	0.206
-591.967	-200.000	0.011	0.170
-590.952	172.651	-0.133	0.192
-589.938	250.691	0.138	-0.235
-588.923	21.029	0.099	0.081
-587.909	-10.172	0.167	0.111
-586.894	-200.000	0.023	-0.150
-585.879	-113.134	-0.070	0.014
-584.865	180.116	-0.032	0.047
-583.850	800.000	-0.078	-0.227
-582.836	-200.000	-0.001	0.058
-581.821	78.254	-0.053	0.056
-580.806	-200.000	0.028	0.216
-579.792	347.909	0.083	-0.165
-578.777	152.106	-0.022	-0.031
-577.763	-84.952	-0.278	0.087
-576.748	-81.065	-0.231	0.077
-575.733	-200.000	-0.000	0.094
-574.719	-14.705	-0.330	0.213
-573.704	417.784	0.018	0.039
-572.690	520.596	-0.183	-0.431
-571.675	71.928	0.170	-0.178
-570.661	21.735	0.312	-0.255
-569.646	-46.892	-0.344	0.168
-568.631	-176.081	-0.258	0.007
-567.617	800.000	-0.121	-0.406
-566.602	800.000	0.051	-0.185
-565.588	146.146	-0.208	-0.280
-564.573	-200.000	-0.046	0.350
-563.558	201.581	0.108	0.166
-562.544	-200.000	-0.038	-0.190
-561.529	127.871	0.116	-0.147
-560.515	-77.124	-0.288	0.100
-559.500	212.796	-0.171	0.270
-558.485	-60.564	0.162	-0.069
-557.471	-200.000	0.024	0.242
-556.456	-113.343	-0.163	0.032
-555.442	394.384	0.115	0.241
-554.427	-94.724	0.219	0.060
-553.412	176.527	0.105	-0.152
-552.398	244.164	-0.177	0.298
-551.383	800.000	-0.039	-0.115
-550.369	155.780	-0.082	0.114
-549.354	685.842	-0.028	0.073
-548.339	-151.606	0.471	0.035
-547.325	-200.000	-0.026	0.191
-546.310	-112.755	0.176	-0.035
-545.296	-200.000	0.069	-0.327
-544.281	-121.590	-0.439	-0.073
-543.266	800.000	0.021	-0.062
-542.252	677.815	-0.026	-0.069
-541.237	-200.000	0.195	-0.001
-540.223	-114.181	0.314	0.061
-539.208	13.369	0.048	0.037
-538.193	-15.140	-0.227	0.145
-537.179	-200.000	-0.032	0.287
-536.164	39.433	-0.444	0.398
-535.150	-184.022	-0.024	0.000
-534.135	-25.750	0.410	0.242
-533.121	-200.000	-0.038	-0.230
-532.106	-200.000	-0.019	-0.207
-531.091	-200.000	-0.069	-0.343
-530.077	-115.223	-0.330	-0.063
-529.062	-62.766	0.277	0.115
-528.048	27.721	0.255	0.215
-527.033	2.923	-0.203	0.148
-526.018	-200.000	-0.030	0.240
-525.004	117.611	-0.214	-0.264
-523.989	609.943	-0.043	-0.107
-522.975	492.964	0.026	0.061
-521.960	-157.823	0.333	0.020
-520.945	-29.546	-0.069	0.039
-519.931	800.000	0.057	-0.236
-518.916	-130.019	-0.126	-0.017
-517.902	-108.449	-0.058	-0.012
-516.887	0.074	-0.156	-0.111
-515.872	247.972	-0.220	-0.372
-514.858	-108.141	0.213	0.046
-513.843	492.489	0.204	-0.469
-512.829	-91.952	0.223	-0.063
-511.814	800.000	-0.018	0.066
-510.799	800.000	0.033	-0.096
-509.785	800.000	0.079	-0.310
-508.770	-200.000	-0.009	-0.043
-507.756	-45.876	0.226	-0.112
-506.741	-174.407	-0.146	-0.004
-505.726	-200.000	0.029	-0.332
-504.712	-32.786	0.178	0.099
-503.697	-88.212	0.176	0.053
-502.683	30.241	0.140	-0.120
-501.668	-33.296	-0.150	0.083
-500.653	-55.815	0.161	0.072
-499.639	-136.566	0.237	-0.027
-498.624	-136.932	-0.188	-0.022
-497.610	-200.000	-0.057	0.293
-496.595	-19.862	0.175	-0.108
-495.581	-1.075	0.231	-0.164
-494.566	238.237	-0.098	0.162
-493.551	-200.000	0.008	-0.136
-492.537	0.245	-0.203	-0.145
-491.522	24.872	0.111	0.092
-490.508	-33.342	0.332	-0.184
-489.493	147.904	-0.027	-0.036
-488.478	84.907	0.205	-0.224
-487.464	-90.896	-0.284	-0.082
-486.449	-123.820	0.094	0.015
-485.435	122.455	-0.181	-0.226
-484.420	-54.518	0.116	-0.052
-483.405	54.614	0.145	-0.140
-482.391	67.545	0.016	0.016
-481.376	-114.582	0.424	0.081
-480.362	162.571	0.083	0.116
-479.347	-200.000	0.030	0.150
-478.332	82.716	-0.162	-0.176
-477.318	45.697	0.189	0.175
-476.303	-101.228	0.086	-0.021
-475.289	331.835	0.074	-0.143
-474.274	800.000	0.082	-0.283
-473.259	800.000	-0.078	0.317
-472.245	555.036	-0.089	0.213
-471.230	-132.993	-0.401	-0.051
-470.216	-200.000	0.018	-0.295
-469.201	-130.617	0.319	0.043
-468.186	-200.000	0.026	-0.343
-467.172	44.751	-0.274	-0.251
-466.157	-177.479	0.211	0.005
-465.143	36.930	0.246	0.217
-464.128	-200.000	0.023	0.180
-463.113	-50.309	0.100	-0.047
-462.099	363.686	0.044	-0.089
-461.084	58.130	0.080	-0.078
-460.070	-43.376	0.416	-0.210
-459.055	-115.523	-0.457	-0.086
-458.040	167.655	0.204	-0.290
-457.026	-186.976	-0.225	-0.003
-456.011	-200.000	0.049	-0.234
-454.997	-126.382	-0.245	0.037
-453.982	-37.901	-0.157	-0.083
-452.968	-75.557	0.046	-0.016
-451.953	334.919	0.104	0.202
-450.938	266.934	-0.119	0.208
-449.924	-3.298	-0.370	0.257
-448.909	800.000	-0.068	-0.213
-447.895	177.270	-0.159	-0.231
-446.880	219.655	0.112	-0.179
-445.865	-128.160	-0.220	0.031
-444.851	-200.000	0.043	-0.267
-443.836	-200.000	0.025	0.246
-442.822	37.039	-0.123	-0.108
-441.807	-151.294	0.074	-0.006
-440.792	-63.797	-0.309	-0.126
-439.778	-200.000	0.001	0.120
-438.763	66.816	-0.108	-0.110
-437.749	411.699	-0.138	0.292
-436.734	-200.000	0.003	-0.165
-435.719	-23.853	0.273	-0.163
-434.705	-62.790	-0.149	0.062
-433.690	44.136	0.283	-0.259
-432.676	36.227	0.202	0.177
-431.661	45.041	-0.291	-0.268
-430.646	-133.537	-0.250	-0.031
-429.632	-57.201	-0.085	0.038
-428.617	293.147	0.112	0.204
-427.603	167.943	-0.262	0.372
-426.588	85.884	0.215	0.236
-425.573	800.000	-0.044	0.188
-424.559	13.831	0.260	0.202
-423.544	-200.000	0.011	0.121
-422.530	50.765	0.089	0.084
-421.515	-200.000	-0.038	0.638
-420.500	91.000	0.115	0.128
-419.486	-200.000	-0.029	-0.132
-418.471	-200.000	-0.048	-0.297
-417.457	-112.353	0.271	0.054
-416.442	-200.000	0.045	-0.207
-415.428	119.735	-0.180	-0.222
-414.413	96.411	0.173	-0.197
-413.398	-200.000	0.014	-0.237
-412.384	348.314	-0.047	-0.093
-411.369	-38.455	0.374	-0.197
-410.355	-48.155	0.367	-0.176
-409.340	23.984	-0.047	0.038
-408.325	-155.298	0.227	0.015
-407.311	118.312	-0.153	0.188
-406.296	-27.767	-0.183	0.106
-405.282	-200.000	-0.009	0.279
-404.267	-38.937	-0.175	-0.092
-403.252	6.159	-0.128	0.094
-402.238	-108.397	0.081	-0.017
-401.223	58.570	-0.150	-0.147
-400.209	800.000	-0.024	0.074
-399.194	-200.000	0.010	0.179
-398.179	-88.547	-0.362	-0.107
-397.165	800.000	0.041	0.129
-396.150	99.762	-0.181	-0.209
-395.136	-95.262	0.331	0.089
-394.121	-200.000	-0.004	0.374
-393.106	-115.409	0.127	-0.024
-392.092	5.316	-0.095	-0.070
-391.077	-110.193	0.081	-0.017
-390.063	-42.950	0.089	0.045
-389.048	800.000	0.057	0.189
-388.033	-30.498	-0.097	0.055
-387.019	-1.849	0.089	0.062
-386.004	-147.049	-0.218	0.019
-384.990	800.000	0.092	-0.398
-383.975	25.518	-0.203	0.168
-382.960	-97.477	-0.268	-0.069
-381.946	-200.000	0.065	0.392
-380.931	75.410	-0.089	0.093
-379.917	-200.000	0.021	-0.333
-378.902	-15.131	-0.067	0.043
-377.888	32.901	0.216	0.186
-376.873	226.450	-0.132	0.214
-375.858	-67.352	-0.226	0.088
-374.844	-139.576	-0.183	0.019
-373.829	505.363	-0.221	-0.510
-372.815	-50.956	0.082	-0.038
-371.800	670.950	-0.130	-0.335
-370.785	-200.000	-0.011	-0.260
-369.771	-38.805	0.188	-0.098
-368.756	-200.000	0.021	-0.194
-367.742	43.166	0.130	0.118
-366.727	-200.000	-0.016	0.389
-365.712	-58.612	-0.201	-0.087
-364.698	104.383	0.113	-0.132
-363.683	107.449	0.211	-0.250
-362.669	-126.814	-0.056	0.008
-361.654	-17.605	0.429	0.268
-360.639	-17.085	0.263	0.165
-359.625	-200.000	0.006	-0.238
-358.610	-53.382	-0.196	0.089
-357.596	-49.968	0.104	0.049
-356.581	-123.714	-0.339	0.053
-355.566	-126.933	0.019	-0.003
-354.552	-112.484	-0.209	-0.041
-353.537	117.371	-0.197	0.241
-352.523	377.135	-0.093	0.189
-351.508	18.458	-0.195	-0.155
-350.493	-61.954	0.141	-0.059
-349.479	-125.161	0.191	0.029
-348.464	-43.267	-0.144	-0.072
-347.450	-43.323	0.145	0.073
-346.435	505.207	0.083	-0.192
-345.420	-37.372	-0.164	0.087
-344.406	59.299	-0.290	0.284
-343.391	-139.767	-0.212	-0.022
-342.377	44.758	0.351	-0.321
-341.362	-191.913	-0.200	0.002
-340.348	138.545	-0.187	0.244
-339.333	622.131	0.050	-0.125
-338.318	-200.000	-0.008	0.220
-337.304	290.420	-0.177	0.319
-336.289	-78.805	-0.388	0.132
-335.275	-87.705	0.218	-0.065
-334.260	59.356	-0.107	-0.105
-333.245	800.000	0.020	0.070
-332.231	-48.040	0.283	0.136
-331.216	-38.976	0.047	0.024
-330.202	-200.000	-0.041	-0.234
-329.187	40.100	-0.284	-0.253
-328.172	156.029	-0.054	-0.074
-327.158	-200.000	0.045	0.202
-326.143	800.000	-0.038	0.124
-325.129	-106.826	0.056	-0.012
-324.114	-200.000	0.005	0.220
-323.099	-131.306	0.344	-0.045
-322.085	119.353	0.335	-0.412
-321.070	-49.885	-0.131	0.062
-320.056	-200.000	0.005	0.027
-319.041	-200.000	0.045	0.397
-318.026	527.133	0.123	-0.289
-317.012	216.781	0.059	0.093
-315.997	800.000	0.110	0.396
-314.983	402.988	0.089	0.186
-313.968	-107.951	0.306	-0.066
-312.953	-10.502	-0.192	0.126
-311.939	800.000	0.094	0.344
-310.924	800.000	-0.108	0.311
-309.910	-143.074	-0.142	0.014
-308.895	209.373	-0.042	0.066
-307.880	800.000	-0.049	0.188
-306.866	-31.084	0.029	0.016
-305.851	800.000	-0.074	-0.285
-304.837	-108.761	-0.579	0.123
-303.822	-65.056	-0.067	-0.027
-302.807	-116.553	-0.145	-0.027
-301.793	800.000	0.063	-0.210
-300.778	1.864	-0.120	0.086
-299.764	289.103	-0.351	-0.632
-298.749	-118.560	-0.368	-0.065
-297.735	113.281	0.087	0.104
-296.720	-200.000	0.012	-0.307
-295.705	-200.000	-0.007	0.175
-294.691	800.000	0.037	0.116
-293.676	800.000	0.086	0.299
-292.662	-200.000	0.028	-0.293
-291.647	-200.000	0.014	0.084
-290.632	-31.448	-0.129	-0.072
-289.618	-200.000	-0.011	-0.328
-288.603	-93.406	0.018	-0.005
-287.589	-200.000	-0.036	0.168
-286.574	-200.000	-0.051	0.348
-285.559	-86.165	0.357	0.109
-284.545	800.000	0.173	0.569
-283.530	-21.488	-0.199	0.120
-282.516	158.735	0.111	-0.153
-281.501	-56.272	-0.225	-0.099
-280.486	-140.324	0.326	-0.034
-279.472	87.261	-0.191	0.209
-278.457	-98.522	0.158	0.040
-277.443	800.000	-0.055	0.198
-276.428	-200.000	0.011	-0.075
-275.413	-133.011	-0.238	-0.030
-274.399	-56.194	0.382	-0.168
-273.384	331.588	-0.135	-0.257
-272.370	-67.123	0.287	0.112
-271.355	-136.711	0.080	0.009
-270.340	-200.000	-0.036	0.159
-269.326	800.000	0.019	0.051
-268.311	-51.720	0.042	-0.019
-267.297	-200.000	0.015	0.167
-266.282	694.746	0.082	-0.213
-265.267	-1.900	-0.321	-0.224
-264.253	-111.870	0.098	0.020
-263.238	47.812	0.299	0.277
-262.224	-67.921	0.119	-0.046
-261.209	55.807	-0.151	-0.146
-260.195	-72.493	-0.127	-0.047
-259.180	-103.059	0.082	0.019
-258.165	-28.841	0.264	0.151
-257.151	-45.550	-0.118	-0.058
-256.136	-26.933	-0.151	0.087
-255.122	-164.310	-0.102	-0.005
-254.107	-24.966	0.256	0.150
-253.092	800.000	-0.038	-0.137
-252.078	64.654	0.081	-0.081
-251.063	-200.000	0.032	-0.232
-250.049	800.000	-0.054	-0.203
-249.034	0.574	0.110	0.078
-248.019	268.759	0.109	-0.190
-247.005	18.298	0.177	-0.140
-245.990	-100.056	-0.230	-0.057
-244.976	22.435	-0.186	-0.150
-243.961	454.181	0.074	-0.162
-242.946	84.323	0.113	-0.122
-241.932	-183.042	0.245	0.004
-240.917	-65.683	-0.181	-0.072
-239.903	281.602	-0.100	-0.178
-238.888	-200.000	-0.004	0.322
-237.873	126.642	0.139	-0.175
-236.859	0.043	-0.198	0.140
-235.844	274.021	-0.121	-0.212
-234.830	-118.518	0.308	-0.054
-233.815	-185.576	0.485	0.007
-232.800	180.621	0.201	0.291
-231.786	-200.000	0.017	0.287
-230.771	-9.292	0.404	0.267
-229.757	-106.861	0.060	-0.013
-228.742	800.000	-0.041	0.118
-227.727	796.783	-0.035	-0.094
-226.713	438.740	0.013	-0.029
-225.698	-200.000	0.000	-0.138
-224.684	-13.617	0.193	-0.124
-223.669	-200.000	-0.001	-0.305
-222.655	-92.189	-0.063	-0.018
-221.640	-87.274	-0.186	0.056
-220.625	32.490	0.156	-0.133
-219.611	800.000	-0.087	0.244
-218.596	39.567	-0.095	-0.084
-217.582	-78.670	-0.317	-0.107
-216.567	219.570	-0.059	-0.093
-215.552	-161.374	0.363	0.019
-214.538	-47.150	-0.285	0.138
-213.523	-120.661	0.154	-0.026
-212.509	-200.000	-0.028	-0.136
-211.494	-32.425	-0.114	-0.063
-210.479	41.041	0.186	0.166
-209.465	-110.001	0.195	0.040
-208.450	42.384	0.085	0.076
-207.436	800.000	0.109	-0.379
-206.421	68.366	-0.099	-0.100
-205.406	41.232	0.191	-0.171
-204.392	-115.286	-0.047	0.009
-203.377	313.918	-0.093	0.174
-202.363	-94.037	0.199	0.054
-201.348	407.314	-0.104	0.216
-200.333	-66.222	-0.073	-0.029
-199.319	-97.657	-0.581	-0.149
-198.304	-110.318	-0.063	-0.013
-197.290	63.712	-0.213	0.212
-196.275	-162.488	-0.144	-0.007
-195.260	-32.508	0.299	-0.164
-194.246	-22.397	-0.264	-0.158
-193.231	-139.622	0.120	-0.013
-192.217	-152.154	-0.144	0.010
-191.202	335.130	0.229	-0.439
-190.187	-200.000	0.028	-0.186
-189.173	-73.185	-0.344	0.125
-188.158	130.296	0.118	0.149
-187.144	800.000	-0.087	0.302
-186.129	477.181	-0.039	-0.087
-185.114	116.199	-0.127	-0.154
-184.100	800.000	0.088	-0.354
-183.085	-91.840	-0.205	0.057
-182.071	-80.575	0.131	0.043
-181.056	-17.610	0.129	-0.080
-180.042	800.000	-0.024	0.084
-179.027	87.132	0.257	0.280
-178.012	96.858	0.155	-0.175
-176.998	-170.366	-0.060	0.002
-175.983	37.334	0.091	0.080
-174.969	800.000	0.050	0.189
-173.954	-200.000	-0.045	-0.285
-172.939	76.783	-0.067	-0.070
-171.925	-139.628	-0.132	0.014
-170.910	-146.169	0.208	-0.018
-169.896	-4.714	0.218	0.148
-168.881	-69.343	0.164	0.062
-167.866	69.313	-0.181	0.184
-166.852	228.397	0.059	-0.095
-165.837	-71.483	-0.324	0.120
-164.823	119.687	-0.105	0.128
-163.808	-93.254	0.315	0.086
-162.793	-76.138	-0.224	-0.078
-161.779	-120.328	-0.256	0.043
-160.764	258.257	0.048	0.082
-159.750	-20.397	-0.116	0.071
-158.735	-27.233	0.283	0.163
-157.720	-200.000	-0.032	0.166
-156.706	-158.291	0.163	0.009
-155.691	-110.632	0.282	-0.058
-154.677	800.000	-0.085	0.313
-153.662	212.113	-0.099	-0.153
-152.647	241.594	0.071	-0.117
-151.633	-28.475	-0.092	0.052
-150.618	68.100	0.368	-0.371
-149.604	800.000	-0.018	-0.051
-148.589	800.000	0.037	-0.119
-147.574	14.124	-0.299	-0.230
-146.560	25.734	0.159	0.131
-145.545	-200.000	0.021	0.198
-144.531	800.000	-0.082	0.308
-143.516	-132.643	-0.298	0.038
-142.502	63.760	0.106	-0.105
-141.487	-2.383	0.116	0.080
-140.472	-27.074	-0.116	-0.067
-139.458	-200.000	-0.057	-0.407
-138.443	-137.513	-0.205	-0.023
-137.429	-200.000	-0.049	-0.242
-136.414	-200.000	-0.027	0.176
-135.399	800.000	-0.039	-0.155
-134.385	-14.671	-0.066	-0.042
-133.370	149.957	0.241	0.322
-132.356	189.753	-0.198	-0.293
-131.341	485.308	-0.080	0.179
-130.326	-125.426	0.232	-0.035
-129.312	-174.436	-0.201	-0.006
-128.297	-200.000	-0.120	-0.001
-127.283	187.026	-0.157	0.230
-126.268	-124.739	0.218	-0.033
-125.253	-200.000	-0.260	-0.000
-124.239	570.859	0.051	0.122
-123.224	-200.000	-0.044	-0.360
-122.210	-87.417	-0.295	0.088
-121.195	-123.210	0.245	0.039
-120.180	134.902	-0.220	-0.281
-119.166	88.097	0.129	0.141
-118.151	-200.000	0.031	0.161
-117.137	703.818	-0.055	0.144
-116.122	600.233	0.043	0.106
-115.107	343.511	0.083	-0.160
-114.093	108.124	0.221	-0.260
-113.078	-136.609	0.219	-0.025
-112.064	-200.000	-0.024	-0.116
-111.049	218.626	0.141	0.222
-110.034	800.000	0.065	0.220
-109.020	800.000	0.034	-0.138
-108.005	95.980	-0.111	-0.125
-106.991	-88.383	0.620	0.183
-105.976	10.320	-0.048	-0.036
-104.962	-159.017	0.208	-0.012
-103.947	-200.000	0.022	-0.133
-102.932	-162.872	-0.352	0.017
-101.918	-71.039	0.230	-0.085
-100.903	-0.250	0.143	-0.100
-99.889	800.000	0.051	0.185
-98.874	103.213	-0.134	0.155
-97.859	-47.610	0.116	0.055
-96.845	-200.000	-0.015	0.221
-95.830	311.703	-0.181	0.334
-94.816	-20.650	0.234	0.142
-93.801	-17.973	-0.111	0.069
-92.786	-117.452	-0.174	-0.031
-91.772	74.653	-0.019	0.020
-90.757	308.029	0.116	-0.213
-89.743	214.855	-0.197	-0.307
-88.728	18.222	0.315	-0.247
-87.713	579.299	0.009	0.023
-86.699	102.218	0.208	-0.239
-85.684	129.759	0.131	0.165
-84.670	211.047	0.066	0.102
-83.655	184.522	-0.169	-0.246
-82.640	594.642	0.062	0.150
-81.626	409.241	0.028	-0.059
-80.611	456.713	-0.159	0.348
-79.597	72.616	-0.262	0.269
-78.582	732.799	0.084	-0.220
-77.567	-25.551	0.032	-0.019
-76.553	634.487	-0.046	0.115
-75.538	48.959	0.152	0.141
-74.524	-60.444	0.133	0.056
-73.509	-96.394	0.229	0.060
-72.494	-200.000	-0.058	0.289
-71.480	170.398	-0.157	0.222
-70.465	16.406	0.161	0.125
-69.451	-7.991	0.056	0.037
-68.436	-22.297	0.250	-0.149
-67.422	-86.464	0.237	0.072
-66.407	519.967	-0.141	-0.326
-65.392	-71.907	0.066	-0.024
-64.378	800.000	-0.067	0.235
-63.363	-168.625	-0.202	-0.008
-62.349	-49.094	-0.123	-0.058
-61.334	111.011	-0.848	-1.004
-60.319	171.007	0.443	0.625
-59.305	800.000	-0.196	-0.822
-58.290	151.832	0.708	0.949
-57.276	503.249	0.612	1.391
-56.261	-200.000	94.103	539.960
-55.246	492.084	1421.007	3199.906
-54.232	149.369	2635.888	3507.695
-53.217	104.017	2339.792	2703.486
-52.203	41.823	1952.533	1739.828
-51.188	35.674	1738.082	1500.844
-50.173	33.043	1692.896	1441.728
-49.159	49.622	1737.960	1608.520
-48.144	51.178	1754.322	1635.619
-47.130	35.332	1716.291	1479.158
-46.115	32.602	1701.721	1445.633
-45.100	32.444	1696.624	1440.034
-44.086	32.408	1693.364	1436.936
-43.071	32.403	1690.811	1434.675
-42.057	32.309	1689.065	1432.415
-41.042	32.376	1686.780	1430.935
-40.027	32.363	1684.617	1428.942
-39.013	32.313	1682.630	1426.819
-37.998	32.327	1681.415	1425.843
-36.984	32.324	1680.553	1425.034
-35.969	32.503	1678.710	1424.770
-34.954	32.520	1676.971	1423.361
-33.940	32.424	1675.445	1421.286
-32.925	32.503	1673.045	1419.789
-31.911	32.530	1671.214	1418.386
-30.896	32.420	1669.525	1416.063
-29.881	32.496	1668.191	1415.450
-28.867	32.433	1666.826	1413.760
-27.852	32.446	1664.817	1412.097
-26.838	32.528	1663.270	1411.344
-25.823	32.426	1661.993	1409.443
-24.809	32.603	1660.020	1409.035
-23.794	32.527	1658.859	1407.423
-22.779	32.529	1657.170	1405.956
-21.765	32.509	1656.034	1404.787
-20.750	32.555	1653.957	1403.307
-19.736	32.547	1652.568	1402.014
-18.721	32.461	1651.332	1400.273
-17.706	32.508	1649.911	1399.362
-16.692	32.496	1648.352	1397.894
-15.677	32.562	1646.946	1397.133
-14.663	32.502	1645.569	1395.466
-13.648	32.516	1643.384	1393.665
-12.633	32.604	1641.607	1392.749
-11.619	32.518	1640.750	1391.335
-10.604	32.530	1638.801	1389.717
-9.590	32.502	1637.749	1388.561
-8.575	32.496	1636.658	1387.534
-7.560	32.557	1635.093	1386.603
-6.546	32.485	1634.089	1385.168
-5.531	32.519	1633.083	1384.507
-4.517	32.634	1631.575	1384.017
-3.502	32.484	1631.020	1382.393
-2.487	32.541	1629.454	1381.426
-1.473	32.503	1617.811	1371.226
-0.458	30.239	1598.246	1338.282
0.556	25.419	1598.138	1302.008
1.571	22.275	1620.255	1296.770
2.586	20.928	1631.900	1295.964
3.600	18.758	1577.563	1237.085
4.615	10.793	1464.009	1094.485
5.629	2.771	1397.185	992.694
6.644	1.113	1388.703	975.909
7.659	1.142	1387.696	975.301
8.673	1.029	1386.563	973.697
9.688	1.066	1384.652	972.504
10.702	0.886	1381.300	968.913
11.717	4.045	1387.153	993.218
12.731	11.866	1398.823	1051.909
13.746	16.738	1404.823	1087.693
14.761	17.475	1405.417	1092.788
15.775	16.948	1403.029	1087.459
16.790	15.931	1400.862	1079.165
17.804	15.093	1398.118	1071.597
18.819	14.673	1396.945	1067.915
19.834	14.505	1395.192	1065.406
20.848	14.177	1394.542	1062.727
21.863	13.979	1392.838	1060.069
22.877	13.857	1391.623	1058.274
23.892	13.731	1390.728	1056.698
24.907	13.670	1389.741	1055.463
25.921	13.720	1388.997	1055.120
26.936	13.781	1387.884	1054.569
27.950	13.831	1386.772	1053.950
28.965	13.787	1386.159	1053.110
29.980	13.809	1385.288	1052.497
30.994	13.922	1384.200	1052.295
32.009	13.981	1383.214	1051.824
33.023	14.014	1381.657	1050.756
34.038	13.902	1381.124	1049.548
35.053	13.948	1379.160	1048.252
36.067	13.849	1378.552	1047.077
37.082	13.923	1377.573	1046.706
38.096	13.872	1376.869	1045.755
39.111	13.809	1376.008	1044.614
40.126	13.824	1375.079	1043.909
41.140	13.775	1374.567	1043.122
42.155	13.783	1373.536	1042.299
43.169	13.706	1374.128	1042.173
44.184	13.721	1373.586	1041.758
45.199	13.764	1372.961	1041.466
46.213	13.751	1372.121	1040.652
47.228	13.792	1371.728	1040.520
48.242	13.795	1370.414	1039.453
49.257	13.816	1368.823	1038.283
50.271	13.749	1367.142	1036.498
51.286	13.876	1365.820	1036.196
52.301	13.840	1364.665	1035.004
53.315	13.824	1363.451	1033.894
54.330	13.797	1362.847	1033.174
55.344	13.774	1361.014	1031.548
56.359	13.745	1360.357	1030.784
57.374	13.722	1359.282	1029.735
58.388	13.650	1358.971	1028.961
59.403	13.708	1358.096	1028.563
60.417	13.715	1357.565	1028.112
61.432	13.632	1356.862	1026.975
62.447	13.678	1355.550	1026.176
63.461	13.723	1353.924	1025.138
64.476	13.742	1352.955	1024.427
65.490	13.684	1352.067	1023.306
66.505	13.644	1350.727	1021.957
67.520	13.751	1349.099	1021.289
68.534	13.682	1348.402	1020.252
69.549	13.713	1347.103	1019.365
70.563	13.686	1345.984	1018.266
71.578	13.713	1344.378	1017.128
72.593	13.634	1343.609	1015.968
73.607	13.580	1342.880	1014.996
74.622	13.621	1342.165	1014.618
75.636	13.560	1341.584	1013.714
76.651	13.598	1340.667	1013.166
77.666	13.562	1340.019	1012.368
78.680	13.639	1339.561	1012.398
79.695	13.650	1338.551	1011.615
80.709	13.642	1337.599	1010.756
81.724	13.708	1336.892	1010.538
82.739	13.677	1335.798	1009.433
83.753	13.723	1334.470	1008.618
84.768	13.795	1333.664	1008.356
85.782	13.810	1332.550	1007.517
86.797	13.826	1331.025	1006.368
87.812	13.749	1330.052	1005.080
88.826	13.794	1328.824	1004.334
89.841	13.762	1327.775	1003.261
90.855	13.799	1326.893	1002.727
91.870	13.871	1325.899	1002.325
92.884	13.815	1325.335	1001.468
93.899	13.780	1324.440	1000.495
94.914	13.868	1323.595	1000.298
95.928	13.853	1322.586	999.354
96.943	13.894	1321.531	998.717
97.957	13.934	1320.390	998.006
98.972	13.937	1319.344	997.146
99.987	13.871	1318.261	995.843
101.001	13.940	1317.196	995.365
102.016	13.897	1316.511	994.503
103.030	13.898	1315.912	993.966
104.045	13.817	1314.915	992.641
105.060	13.833	1313.608	991.662
106.074	13.762	1312.472	990.296
107.089	13.828	1310.883	989.398
108.103	13.748	1310.011	988.180
109.118	13.751	1308.484	986.955
110.133	13.722	1307.338	985.834
111.147	13.711	1305.809	984.529
112.162	13.767	1304.499	983.781
113.176	13.788	1303.569	983.123
114.191	13.786	1302.639	982.320
115.206	13.797	1301.356	981.328
116.220	13.853	1299.888	980.466
117.235	13.827	1298.924	979.501
118.249	13.866	1297.911	978.880
119.264	13.848	1296.984	977.987
120.279	13.831	1295.564	976.733
121.293	13.815	1294.470	975.727
122.308	13.813	1293.272	974.724
123.322	13.773	1292.210	973.603
124.337	13.771	1291.820	973.212
125.352	13.834	1289.955	972.090
126.366	13.822	1289.249	971.400
127.381	13.952	1287.572	970.812
128.395	13.751	1286.920	969.061
129.410	13.806	1286.154	968.718
130.424	13.830	1285.207	968.060
131.439	13.895	1284.032	967.466
132.454	13.757	1283.655	966.295
133.468	14.008	1281.719	966.213
134.483	13.867	1281.280	964.974
135.497	13.801	1280.568	963.970
136.512	13.890	1279.446	963.558
137.527	13.798	1278.309	962.082
138.541	13.855	1276.676	961.099
139.556	13.868	1275.317	960.066
140.570	13.895	1274.392	959.441
141.585	14.029	1272.705	958.856
142.600	13.972	1271.718	957.701
143.614	13.950	1270.735	956.746
144.629	14.047	1269.715	956.454
145.643	13.962	1268.549	955.001
146.658	13.910	1267.379	953.740
147.673	14.019	1265.689	953.005
148.687	13.958	1264.324	951.549
149.702	13.933	1263.482	950.686
150.716	13.870	1262.103	949.201
151.731	13.964	1260.465	948.423
152.746	13.967	1259.882	947.918
153.760	13.920	1258.518	946.542
154.775	14.004	1257.298	946.018
155.789	14.053	1256.001	945.236
156.804	14.139	1254.973	944.870
157.819	14.005	1254.309	943.521
158.833	14.112	1253.157	943.181
159.848	14.076	1252.286	942.235
160.862	14.165	1251.192	941.832
161.877	14.164	1249.837	940.729
162.892	14.103	1248.768	939.496
163.906	14.003	1248.134	938.371
164.921	14.082	1247.268	938.080
165.935	14.005	1246.537	937.013
166.950	14.149	1245.457	936.928
167.964	14.065	1245.190	936.175
168.979	14.162	1244.250	935.932
169.994	14.173	1243.259	935.163
171.008	14.272	1242.333	934.939
172.023	14.177	1241.654	933.813
173.037	14.295	1240.853	933.791
174.052	14.173	1239.975	932.360
175.067	14.159	1239.083	931.532
176.081	14.153	1238.330	930.848
177.096	14.165	1237.209	929.991
178.110	14.273	1236.435	929.932
179.125	14.226	1234.641	928.237
180.140	14.222	1233.647	927.383
181.154	14.272	1232.677	926.854
182.169	14.261	1231.045	925.484
183.183	14.260	1230.303	924.838
184.198	14.356	1228.712	924.091
185.213	14.267	1227.977	922.961
186.227	14.425	1227.018	923.036
187.242	14.363	1225.786	921.683
188.256	14.451	1225.029	921.519
189.271	14.394	1224.390	920.644
190.286	14.401	1223.172	919.687
191.300	14.271	1221.855	917.897
192.315	14.208	1221.809	917.431
193.329	14.254	1220.922	916.940
194.344	14.419	1219.635	916.802
195.359	14.400	1219.690	916.657
196.373	14.484	1218.681	916.279
197.388	14.460	1218.305	915.780
198.402	14.438	1217.957	915.319
199.417	14.572	1217.324	915.498
200.432	14.526	1216.301	914.392
201.446	14.637	1215.400	914.243
202.461	14.606	1214.504	913.320
203.475	14.659	1213.187	912.537
204.490	14.514	1211.960	910.742
205.504	14.556	1210.924	910.112
206.519	14.564	1210.023	909.400
207.534	14.623	1208.590	908.564
208.548	14.578	1207.862	907.692
209.563	14.559	1206.910	906.789
210.577	14.551	1206.503	906.363
211.592	14.636	1205.114	905.702
212.607	14.788	1204.071	905.658
213.621	14.677	1203.403	904.474
214.636	14.669	1202.654	903.787
215.650	14.727	1201.870	903.432
216.665	14.759	1200.762	902.693
217.680	14.779	1199.673	901.902
218.694	14.873	1198.986	901.815
219.709	14.750	1198.341	900.584
220.723	14.868	1197.738	900.691
221.738	14.833	1197.005	899.868
222.753	14.868	1196.272	899.428
223.767	14.869	1195.345	898.656
224.782	14.980	1194.732	898.715
225.796	14.910	1194.107	897.784
226.811	15.018	1193.121	897.547
227.826	14.979	1192.522	896.804
228.840	14.966	1191.616	895.976
229.855	14.970	1190.948	895.414
230.869	14.903	1190.538	894.668
231.884	14.927	1189.606	894.020
232.899	15.027	1188.463	893.615
233.913	14.868	1188.062	892.384
234.928	14.861	1187.233	891.645
235.942	14.909	1186.723	891.442
236.957	14.972	1185.448	890.739
237.972	14.999	1185.007	890.474
238.986	15.073	1183.844	889.915
240.001	15.018	1183.533	889.309
241.015	14.947	1182.906	888.382
242.030	15.038	1181.483	887.715
243.045	15.083	1180.900	887.441
244.059	15.045	1180.494	886.854
245.074	15.070	1179.432	886.110
246.088	15.150	1178.116	885.467
247.103	15.231	1177.529	885.375
248.117	15.172	1177.057	884.627
249.132	15.216	1176.355	884.256
250.147	15.354	1175.368	884.160
251.161	15.335	1174.868	883.607
252.176	15.266	1174.205	882.670
253.190	15.308	1173.448	882.243
254.205	15.308	1173.045	881.861
255.220	15.420	1172.144	881.695
256.234	15.534	1171.378	881.640
257.249	15.411	1171.029	880.652
258.263	15.491	1169.963	880.194
259.278	15.452	1169.465	879.535
260.293	15.444	1169.273	879.273
261.307	15.522	1168.710	879.177
262.322	15.588	1167.659	878.652
263.336	15.657	1167.087	878.507
264.351	15.538	1166.342	877.249
265.366	15.625	1165.799	877.216
266.380	15.616	1165.284	876.701
267.395	15.579	1163.872	875.369
268.409	15.519	1163.405	874.628
269.424	15.568	1162.920	874.444
270.439	15.556	1162.505	873.992
271.453	15.629	1161.559	873.584
272.468	15.596	1160.710	872.693
273.482	15.631	1160.101	872.342
274.497	15.630	1159.381	871.716
275.512	15.665	1159.113	871.621
276.526	15.648	1158.413	870.929
277.541	15.614	1157.191	869.755
278.555	15.664	1156.065	869.090
279.570	15.733	1155.505	868.951
280.585	15.717	1155.044	868.446
281.599	15.775	1153.836	867.760
282.614	15.869	1152.913	867.473
283.628	15.810	1151.761	866.223
284.643	15.860	1150.781	865.667
285.657	15.876	1150.116	865.171
286.672	15.930	1149.304	864.762
287.687	15.887	1148.147	863.594
288.701	15.854	1147.449	862.824
289.716	15.864	1146.385	862.001
290.730	15.941	1146.117	862.119
291.745	15.938	1145.266	861.385
292.760	16.031	1144.247	861.017
293.774	15.966	1143.911	860.357
294.789	15.965	1143.586	860.032
295.803	16.080	1142.982	860.086
296.818	16.037	1141.990	859.047
297.833	15.962	1141.178	857.976
298.847	16.080	1140.545	858.024
299.862	15.984	1139.568	856.726
300.876	16.086	1138.397	856.288
301.891	16.184	1138.245	856.593
302.906	16.121	1137.527	855.659
303.920	16.185	1136.481	855.121
304.935	16.219	1135.975	854.835
305.949	16.306	1135.178	854.601
306.964	16.345	1134.426	854.156
307.979	16.239	1133.676	852.980
308.993	16.213	1133.433	852.593
310.008	16.306	1131.949	851.871
311.022	16.334	1131.798	851.823
312.037	16.340	1130.538	850.828
313.052	16.360	1129.518	850.087
314.066	16.355	1128.875	849.503
315.081	16.252	1128.058	848.295
316.095	16.214	1127.521	847.622
317.110	16.330	1126.360	847.260
318.125	16.338	1125.543	846.611
319.139	16.356	1124.892	846.135
320.154	16.229	1124.849	845.393
321.168	16.393	1123.589	845.192
322.183	16.331	1123.143	844.467
323.197	16.307	1122.970	844.145
324.212	16.277	1122.417	843.505
325.227	16.456	1121.352	843.524
326.241	16.471	1120.642	842.992
327.256	16.378	1120.027	841.989
328.270	16.430	1118.983	841.387
329.285	16.452	1118.053	840.725
330.300	16.399	1117.183	839.730
331.314	16.436	1116.036	838.980
332.329	16.467	1115.187	838.421
333.343	16.415	1114.535	837.597
334.358	16.493	1113.609	837.215
335.373	16.510	1112.625	836.485
336.387	16.498	1112.111	835.965
337.402	16.533	1111.536	835.632
338.416	16.530	1110.734	834.938
339.431	16.667	1109.907	834.921
340.446	16.610	1109.424	834.203
341.460	16.689	1108.788	834.038
342.475	16.698	1107.920	833.356
343.489	16.673	1106.917	832.408
344.504	16.716	1106.464	832.203
345.519	16.841	1104.954	831.608
346.533	16.901	1104.305	831.339
347.548	16.770	1103.619	830.108
348.562	16.762	1102.885	829.445
349.577	16.860	1102.111	829.268
350.592	16.776	1101.734	828.500
351.606	16.761	1100.988	827.791
352.621	16.752	1100.283	827.144
353.635	16.829	1099.607	826.938
354.650	16.874	1098.365	826.151
355.665	16.780	1097.973	825.322
356.679	16.899	1097.486	825.465
357.694	16.846	1096.903	824.695
358.708	16.895	1095.849	824.068
359.723	16.912	1095.346	823.701
360.738	16.915	1094.820	823.248
361.752	16.925	1094.112	822.691
362.767	16.980	1093.390	822.339
363.781	16.983	1092.934	821.940
364.796	17.051	1092.165	821.617
365.810	16.958	1091.586	820.659
366.825	17.126	1091.017	820.972
367.840	17.152	1090.450	820.596
368.854	17.260	1089.621	820.421
369.869	17.193	1089.006	819.561
370.883	17.205	1088.308	819.025
371.898	17.139	1087.708	818.179
372.913	17.217	1086.954	817.918
373.927	17.209	1086.367	817.362
374.942	17.307	1085.933	817.436
375.956	17.062	1085.948	816.195
376.971	17.177	1084.805	815.817
377.986	17.239	1084.391	815.734
379.000	17.343	1083.653	815.603
380.015	17.355	1083.027	815.117
381.029	17.413	1082.485	814.915
382.044	17.417	1081.756	814.316
383.059	17.345	1081.198	813.478
384.073	17.335	1080.307	812.686
385.088	17.471	1079.044	812.317
386.102	17.510	1078.215	811.805
387.117	17.453	1077.226	810.718
388.132	17.421	1076.631	810.045
389.146	17.410	1075.553	809.112
390.161	17.451	1074.658	808.562
391.175	17.323	1074.347	807.644
392.190	17.489	1073.657	807.845
393.205	17.521	1072.471	807.032
394.219	17.428	1072.042	806.197
395.234	17.490	1070.991	805.629
396.248	17.529	1069.689	804.762
397.263	17.546	1068.565	803.928
398.278	17.549	1068.172	803.574
399.292	17.633	1067.553	803.431
400.307	17.574	1067.107	802.749
401.321	17.495	1066.529	801.870
402.336	17.552	1065.708	801.448
403.350	17.634	1064.979	801.216
404.365	17.688	1064.271	800.867
405.380	17.552	1063.962	799.922
406.394	17.645	1063.167	799.694
407.409	17.675	1061.689	798.651
408.423	17.668	1061.363	798.303
409.438	17.688	1060.907	797.979
410.453	17.830	1059.627	797.611
411.467	17.779	1059.520	797.223
412.482	17.774	1058.731	796.533
413.496	17.907	1057.837	796.411
414.511	17.772	1057.601	795.535
415.526	17.831	1057.049	795.326
416.540	17.954	1056.420	795.353
417.555	17.871	1055.891	794.501
418.569	18.008	1055.386	794.688
419.584	17.963	1054.891	794.032
420.599	18.035	1054.470	793.979
421.613	102.737	1320.533	1459.686
422.628	94.728	1359.262	1459.801
