DTS Sentinel unit serial number:	SN413079Multiplexer serial number:	ORYXHardware model number:	OX4-SRSoftware version number:	ORYX F/W v4.00 Oryx Data Collector v3.7.2.0data status	okinstallation	princeton_trtdifferential loss correction	single-endedforward channel	channel 2reverse channel	N/Adate	2019/09/15time	01:11:35forward acquisition time	60.00reverse acquisition time	0.00gamma	496.2192k internal	0.2324k external	0.2324temperature offset calibration	1.0038default loss term (dB/km)	0.3790temperature slope calibration	1.0000multiplexer offset coefficient	1.0000multiplexer slope coefficient	1.0000fibre end	0.00T internal ref (°C)	31.97T ext. ref 1 (°C)	4.51T ext. ref 2 (°C)	26.84length (m)	temperature (°C)	Stokes	anti-Stokes-747.200	800.000	0.014	-0.057
-746.185	58.686	0.218	0.217
-745.171	93.653	0.191	0.219
-744.156	-44.699	0.147	0.074
-743.142	-81.619	0.347	-0.115
-742.127	236.112	-0.023	0.039
-741.112	-200.000	-0.015	0.224
-740.098	-73.504	-0.243	0.089
-739.083	800.000	-0.066	0.202
-738.069	-82.428	0.402	-0.132
-737.054	206.702	-0.104	0.164
-736.039	-9.612	0.061	-0.041
-735.025	78.278	0.205	-0.221
-734.010	-47.318	-0.418	-0.206
-732.996	-182.483	-0.254	-0.005
-731.981	-159.953	0.283	0.016
-730.966	-87.737	-0.179	0.054
-729.952	270.177	-0.125	-0.221
-728.937	800.000	-0.069	-0.195
-727.923	-200.000	0.020	0.252
-726.908	-89.502	-0.205	0.061
-725.894	-80.034	0.187	-0.063
-724.879	-110.135	-0.175	0.037
-723.864	-41.457	0.185	-0.096
-722.850	118.654	-0.064	0.080
-721.835	536.226	0.058	-0.140
-720.821	-85.456	0.316	-0.099
-719.806	-137.924	-0.160	0.018
-718.791	-200.000	0.064	-0.363
-717.777	142.312	-0.076	-0.101
-716.762	19.007	0.064	0.052
-715.748	73.580	-0.211	-0.222
-714.733	-200.000	0.009	-0.183
-713.718	-10.264	0.052	-0.035
-712.704	-196.050	-0.143	-0.001
-711.689	-51.323	0.158	0.074
-710.675	-51.357	-0.274	0.129
-709.660	16.118	-0.174	-0.138
-708.645	116.898	0.206	-0.255
-707.631	-200.000	-0.069	0.364
-706.616	565.110	0.078	-0.190
-705.602	-52.748	-0.208	-0.097
-704.587	-150.627	0.273	-0.021
-703.572	-165.570	0.258	0.011
-702.558	-31.592	-0.182	-0.103
-701.543	-149.538	0.425	0.034
-700.529	8.516	-0.053	-0.040
-699.514	-19.705	-0.166	-0.104
-698.499	19.057	0.082	0.066
-697.485	-49.793	0.332	-0.159
-696.470	-200.000	0.017	-0.362
-695.456	-200.000	0.000	-0.006
-694.441	-200.000	0.028	0.316
-693.426	-64.511	-0.143	-0.058
-692.412	-65.148	-0.323	0.131
-691.397	-77.601	-0.022	-0.008
-690.383	-135.444	-0.101	-0.012
-689.368	58.682	-0.117	-0.116
-688.354	8.416	0.055	0.042
-687.339	-200.000	0.008	0.130
-686.324	200.128	0.078	0.120
-685.310	33.425	0.224	0.196
-684.295	138.728	-0.045	-0.059
-683.281	209.724	-0.227	-0.359
-682.266	26.738	-0.131	-0.110
-681.251	-24.529	0.194	-0.116
-680.237	428.148	-0.107	-0.234
-679.222	800.000	0.031	0.126
-678.208	16.591	0.118	-0.094
-677.193	121.088	-0.142	-0.177
-676.178	340.933	-0.095	-0.187
-675.164	61.586	0.169	-0.169
-674.149	688.176	0.099	0.262
-673.135	22.911	-0.222	0.183
-672.120	115.011	0.169	0.208
-671.105	13.572	-0.134	0.104
-670.091	-200.000	0.002	0.261
-669.076	799.048	0.118	-0.327
-668.062	480.529	-0.056	0.129
-667.047	-8.442	-0.216	-0.146
-666.032	-119.361	-0.132	0.023
-665.018	-81.985	0.031	-0.010
-664.003	-155.492	0.251	-0.016
-662.989	800.000	0.056	-0.159
-661.974	-78.661	0.220	0.076
-660.959	-200.000	-0.044	-0.295
-659.945	364.687	0.128	-0.258
-658.930	630.021	-0.050	0.126
-657.916	-200.000	-0.072	-0.351
-656.901	91.173	-0.197	-0.223
-655.886	-128.508	-0.344	0.049
-654.872	-124.684	0.198	0.031
-653.857	-55.323	0.285	0.129
-652.843	-119.485	-0.192	0.034
-651.828	-68.282	-0.163	-0.064
-650.814	161.668	-0.146	-0.206
-649.799	-85.097	-0.190	0.060
-648.784	-200.000	-0.009	-0.344
-647.770	109.629	0.181	0.219
-646.755	17.163	-0.223	0.178
-645.741	56.962	-0.108	0.105
-644.726	800.000	-0.051	0.217
-643.711	-38.115	0.453	0.242
-642.697	220.752	-0.243	-0.392
-641.682	-200.000	0.075	-0.384
-640.668	-138.102	0.185	0.021
-639.653	710.087	0.087	-0.232
-638.638	-94.037	0.155	-0.043
-637.624	-115.963	-0.212	-0.040
-636.609	22.478	-0.116	0.095
-635.595	-89.908	-0.131	0.038
-634.580	44.753	-0.118	0.109
-633.565	0.152	-0.272	-0.195
-632.551	562.666	-0.033	-0.080
-631.536	-200.000	0.015	-0.106
-630.522	-20.373	0.310	0.191
-629.507	519.934	-0.075	0.178
-628.492	-200.000	0.002	-0.145
-627.478	-106.665	-0.015	0.003
-626.463	-200.000	-0.016	-0.327
-625.449	92.553	0.038	-0.044
-624.434	-54.047	0.222	0.101
-623.419	-19.065	0.179	-0.112
-622.405	800.000	0.039	-0.119
-621.390	-0.565	-0.348	0.248
-620.376	800.000	-0.044	0.137
-619.361	-42.870	0.198	0.101
-618.346	-200.000	-0.046	-0.222
-617.332	-200.000	0.024	-0.261
-616.317	800.000	-0.071	0.280
-615.303	-200.000	0.048	0.341
-614.288	520.938	0.081	-0.190
-613.273	800.000	-0.047	0.166
-612.259	50.776	0.159	0.151
-611.244	-116.503	0.304	0.056
-610.230	391.290	-0.107	0.222
-609.215	80.391	0.068	0.073
-608.201	698.143	-0.055	-0.144
-607.186	-110.955	-0.210	0.043
-606.171	-200.000	-0.007	-0.061
-605.157	232.178	-0.050	-0.083
-604.142	-58.438	-0.156	0.068
-603.128	-200.000	-0.030	0.147
-602.113	158.156	-0.127	0.177
-601.098	667.016	-0.052	-0.136
-600.084	-121.429	0.261	0.044
-599.069	-200.000	0.010	0.084
-598.055	-200.000	0.000	0.301
-597.040	57.555	-0.038	-0.037
-596.025	543.956	0.141	-0.339
-595.011	267.541	0.037	0.064
-593.996	-5.621	-0.423	0.291
-592.982	-200.000	0.020	0.138
-591.967	-77.150	0.171	-0.060
-590.952	-200.000	0.001	0.288
-589.938	389.979	-0.107	0.223
-588.923	459.181	0.047	0.105
-587.909	-109.045	-0.167	0.036
-586.894	111.874	0.035	-0.043
-585.879	-35.894	0.303	0.164
-584.865	-55.682	-0.188	-0.085
-583.850	148.461	0.124	0.169
-582.836	106.864	-0.099	-0.118
-581.821	87.807	-0.109	0.122
-580.806	-200.000	-0.020	0.131
-579.792	-200.000	0.053	0.366
-578.777	800.000	0.068	-0.207
-577.763	83.433	0.080	-0.087
-576.748	-158.647	-0.366	0.021
-575.733	12.079	-0.082	-0.063
-574.719	800.000	-0.025	0.072
-573.704	-5.532	0.164	-0.113
-572.690	585.775	0.106	0.262
-571.675	-60.109	-0.163	0.070
-570.661	85.708	0.018	-0.020
-569.646	45.629	0.273	-0.253
-568.631	-40.559	-0.135	-0.070
-567.617	-46.240	0.164	0.081
-566.602	681.271	0.081	-0.211
-565.588	-149.948	0.122	0.010
-564.573	-58.505	0.147	0.064
-563.558	457.965	-0.127	-0.284
-562.544	414.940	0.049	0.105
-561.529	-200.000	-0.033	0.392
-560.515	33.802	-0.204	0.178
-559.500	114.958	-0.189	0.231
-558.485	800.000	0.020	0.061
-557.471	-200.000	0.016	-0.232
-556.456	800.000	0.159	-0.476
-555.442	-82.342	-0.166	-0.054
-554.427	-165.380	-0.509	-0.022
-553.412	-200.000	-0.027	-0.245
-552.398	299.644	-0.102	-0.188
-551.383	59.710	-0.385	0.380
-550.369	-23.223	-0.095	-0.057
-549.354	-38.736	-0.290	-0.153
-548.339	800.000	0.014	0.045
-547.325	272.240	-0.098	-0.174
-546.310	275.752	-0.097	-0.172
-545.296	159.640	-0.165	-0.230
-544.281	255.389	-0.132	-0.226
-543.266	-200.000	-0.003	0.263
-542.252	-73.096	0.335	-0.123
-541.237	-29.528	0.088	0.050
-540.223	63.628	-0.306	-0.308
-539.208	-63.969	-0.283	-0.116
-538.193	-162.246	-0.093	0.005
-537.179	-18.574	-0.233	0.146
-536.164	131.181	0.134	0.173
-535.150	205.562	-0.072	-0.111
-534.135	101.697	0.081	-0.095
-533.121	1.405	0.108	-0.077
-532.106	-131.137	0.323	0.043
-531.091	-107.807	0.132	0.029
-530.077	-157.856	-0.232	-0.014
-529.062	800.000	-0.125	-0.351
-528.048	-200.000	-0.001	0.023
-527.033	415.702	0.125	0.266
-526.018	-200.000	-0.022	0.326
-525.004	-25.784	0.217	0.128
-523.989	800.000	0.023	-0.080
-522.975	310.026	0.050	-0.094
-521.960	-200.000	-0.014	0.490
-520.945	125.303	-0.131	-0.165
-519.931	800.000	-0.081	-0.263
-518.916	-115.885	-0.329	0.061
-517.902	208.683	0.126	-0.197
-516.887	800.000	0.069	0.233
-515.872	49.696	-0.156	0.147
-514.858	-200.000	0.004	0.176
-513.843	-109.983	0.157	0.033
-512.829	-10.017	-0.151	0.100
-511.814	-85.528	0.136	-0.042
-510.799	-66.234	-0.171	-0.068
-509.785	513.371	-0.099	-0.232
-508.770	10.750	0.238	-0.182
-507.756	87.375	0.149	0.165
-506.741	61.577	-0.162	-0.161
-505.726	800.000	-0.120	-0.382
-504.712	-92.301	-0.099	0.028
-503.697	-113.964	0.060	-0.012
-502.683	800.000	0.051	0.205
-501.668	-90.113	0.171	-0.050
-500.653	-70.412	0.188	0.071
-499.639	-143.430	-0.423	0.040
-498.624	-45.755	-0.273	-0.135
-497.610	-200.000	-0.093	0.407
-496.595	-4.614	-0.168	-0.116
-495.581	484.603	0.111	-0.253
-494.566	22.818	-0.344	0.282
-493.551	-38.650	0.067	0.035
-492.537	-84.615	0.380	-0.120
-491.522	70.312	-0.178	-0.183
-490.508	79.340	0.080	0.085
-489.493	-94.374	-0.189	-0.052
-488.478	-22.989	-0.075	-0.045
-487.464	56.802	0.102	-0.099
-486.449	322.211	0.064	0.123
-485.435	-149.143	0.342	-0.027
-484.420	-55.526	0.155	-0.070
-483.405	16.174	0.223	0.176
-482.391	223.504	-0.068	-0.110
-481.376	159.068	0.209	-0.291
-480.362	-110.368	0.193	-0.040
-479.347	-74.280	-0.089	-0.032
-478.332	-122.284	0.214	0.035
-477.318	-9.784	0.215	0.143
-476.303	-200.000	0.001	0.100
-475.289	-81.937	-0.216	0.070
-474.274	-173.468	-0.115	0.003
-473.259	2.786	-0.086	-0.062
-472.245	-14.863	0.280	0.180
-471.230	-32.406	-0.132	0.074
-470.216	-91.703	-0.039	0.011
-469.201	-41.079	0.152	0.078
-468.186	-37.317	0.077	0.041
-467.172	-60.595	0.151	0.064
-466.157	-123.588	-0.183	0.029
-465.143	-22.166	0.156	0.094
-464.128	143.445	-0.009	0.011
-463.113	-104.705	-0.063	0.014
-462.099	800.000	-0.092	0.297
-461.084	800.000	0.086	0.254
-460.070	-188.043	0.031	-0.000
-459.055	43.936	-0.363	-0.332
-458.040	184.993	0.062	-0.091
-457.026	-200.000	-0.037	-0.212
-456.011	-141.646	-0.315	0.032
-454.997	37.669	0.066	-0.058
-453.982	327.613	-0.143	-0.274
-452.968	130.304	-0.062	-0.080
-451.953	-200.000	0.047	-0.259
-450.938	-101.638	-0.203	-0.049
-449.924	-147.838	-0.104	-0.009
-448.909	800.000	-0.118	0.337
-447.895	34.773	0.094	0.082
-446.880	-40.105	-0.175	-0.091
-445.865	98.384	0.098	0.112
-444.851	-200.000	0.032	-0.204
-443.836	-39.518	0.157	0.082
-442.822	258.045	-0.079	-0.135
-441.807	-60.555	0.182	0.077
-440.792	800.000	0.014	-0.060
-439.778	-76.936	0.320	-0.112
-438.763	10.360	-0.386	-0.293
-437.749	283.030	0.212	0.380
-436.734	-35.710	-0.219	0.118
-435.719	14.536	-0.088	0.068
-434.705	3.896	0.068	0.049
-433.690	-123.965	0.089	-0.014
-432.676	278.775	0.045	-0.079
-431.661	41.333	0.210	-0.190
-430.646	-57.926	0.199	0.087
-429.632	-200.000	-0.043	-0.343
-428.617	-116.788	-0.377	0.069
-427.603	-200.000	0.004	0.131
-426.588	800.000	-0.073	-0.240
-425.573	38.302	0.180	-0.160
-424.559	-200.000	-0.000	-0.053
-423.544	-66.773	0.172	-0.068
-422.530	-25.061	-0.165	0.098
-421.515	800.000	-0.070	-0.208
-420.500	-27.494	0.228	-0.132
-419.486	-92.101	0.175	-0.049
-418.471	-14.520	-0.195	0.125
-417.457	-157.944	0.055	-0.003
-416.442	-115.615	-0.108	-0.020
-415.428	462.908	-0.044	-0.097
-414.413	76.820	-0.140	0.148
-413.398	53.177	0.118	0.113
-412.384	-200.000	0.008	-0.065
-411.369	-34.739	0.139	-0.076
-410.355	-158.708	-0.186	-0.011
-409.340	-200.000	-0.010	-0.137
-408.325	29.493	-0.105	-0.089
-407.311	325.796	0.051	-0.096
-406.296	800.000	0.006	-0.021
-405.282	-96.179	0.187	0.049
-404.267	-190.447	-0.345	0.004
-403.252	484.965	0.086	0.195
-402.238	-130.276	-0.396	-0.054
-401.223	-200.000	0.015	-0.228
-400.209	-200.000	0.027	-0.168
-399.194	800.000	-0.041	0.128
-398.179	672.001	0.192	0.497
-397.165	-200.000	-0.059	0.306
-396.150	-27.696	0.152	-0.088
-395.136	-200.000	-0.004	0.141
-394.121	280.010	-0.135	-0.240
-393.106	-200.000	-0.007	0.083
-392.092	-200.000	-0.028	-0.151
-391.077	800.000	0.047	-0.172
-390.063	101.263	0.312	-0.362
-389.048	-111.168	-0.315	0.064
-388.033	-134.089	-0.142	-0.017
-387.019	60.332	-0.224	0.221
-386.004	295.289	-0.140	-0.254
-384.990	-47.968	-0.219	-0.105
-383.975	-132.330	0.192	-0.025
-382.960	58.116	0.128	0.124
-381.946	-114.349	-0.073	-0.014
-380.931	-200.000	0.029	-0.157
-379.917	-84.716	-0.226	0.071
-378.902	800.000	-0.120	0.343
-377.888	422.209	0.098	0.209
-376.873	-117.394	-0.366	0.066
-375.858	-7.171	0.206	-0.139
-374.844	-112.371	-0.247	-0.049
-373.829	-50.506	0.072	0.034
-372.815	8.515	0.331	0.248
-371.800	-13.655	0.231	0.149
-370.785	-18.537	-0.203	-0.126
-369.771	29.264	0.111	0.094
-368.756	-192.375	0.312	-0.003
-367.742	-47.447	0.138	-0.067
-366.727	521.244	0.153	-0.356
-365.712	-36.044	0.163	0.087
-364.698	-165.573	-0.200	0.009
-363.683	550.600	-0.042	-0.099
-362.669	-7.428	0.407	0.274
-361.654	318.758	0.108	-0.204
-360.639	-200.000	-0.004	0.183
-359.625	141.379	0.181	0.238
-358.610	140.339	-0.022	-0.029
-357.596	268.024	-0.082	-0.144
-356.581	334.387	0.162	-0.311
-355.566	-200.000	0.020	0.092
-354.552	7.168	0.296	-0.220
-353.537	-128.582	-0.272	0.038
-352.523	-101.628	0.186	0.045
-351.508	-98.099	-0.278	-0.071
-350.493	118.513	0.081	0.100
-349.479	57.033	0.205	0.199
-348.464	-130.740	-0.176	-0.024
-347.450	800.000	-0.094	-0.318
-346.435	-200.000	-0.042	0.236
-345.420	23.253	0.057	0.046
-344.406	125.785	-0.097	0.122
-343.391	-36.466	-0.243	-0.130
-342.377	-23.448	0.120	-0.072
-341.362	-200.000	-0.019	0.250
-340.348	800.000	0.017	-0.066
-339.333	212.663	0.136	0.213
-338.318	-200.000	-0.000	0.157
-337.304	-118.645	-0.302	0.053
-336.289	252.310	0.128	0.216
-335.275	54.729	-0.121	-0.116
-334.260	50.380	-0.193	-0.181
-333.245	234.383	0.068	0.111
-332.231	-96.361	-0.072	0.019
-331.216	537.698	-0.118	0.278
-330.202	-134.992	0.121	-0.014
-329.187	800.000	0.068	-0.237
-328.172	-63.417	-0.272	0.111
-327.158	-200.000	-0.026	-0.165
-326.143	-110.676	-0.139	0.029
-325.129	-81.820	-0.369	-0.120
-324.114	-71.301	-0.226	-0.084
-323.099	288.731	-0.148	0.267
-322.085	2.576	0.135	0.097
-321.070	179.443	0.140	0.204
-320.056	800.000	0.056	0.201
-319.041	66.667	-0.111	0.112
-318.026	43.391	0.203	-0.184
-317.012	715.231	0.143	-0.376
-315.997	800.000	-0.041	0.158
-314.983	-84.793	0.439	-0.137
-313.968	-200.000	-0.043	-0.294
-312.953	-29.669	-0.278	0.158
-311.939	-77.065	-0.357	0.124
-310.924	800.000	-0.032	-0.097
-309.910	-157.539	0.436	-0.026
-308.895	-200.000	-0.011	0.408
-307.880	-119.981	0.121	0.021
-306.866	418.316	-0.140	0.298
-305.851	-35.841	-0.248	-0.133
-304.837	36.854	-0.284	-0.249
-303.822	388.038	0.167	-0.343
-302.807	90.060	0.210	0.233
-301.793	101.713	-0.113	-0.131
-300.778	-113.944	-0.198	0.038
-299.764	131.531	0.164	-0.209
-298.749	18.800	-0.160	0.127
-297.735	9.251	0.083	0.062
-296.720	-132.473	0.160	-0.020
-295.705	800.000	0.063	0.196
-294.691	-102.659	-0.188	0.045
-293.676	-79.050	0.198	0.067
-292.662	-38.767	-0.108	0.057
-291.647	-84.557	-0.186	-0.058
-290.632	2.107	-0.071	0.051
-289.618	-200.000	0.040	0.244
-288.603	-60.028	0.215	0.091
-287.589	-200.000	-0.076	0.000
-286.574	-51.850	0.084	0.039
-285.559	-200.000	0.042	0.267
-284.545	25.655	0.180	0.149
-283.530	-200.000	0.005	-0.095
-282.516	299.256	0.153	0.279
-281.501	-168.355	0.052	0.002
-280.486	-96.785	0.315	0.082
-279.472	-6.878	-0.230	0.155
-278.457	-54.631	-0.174	0.078
-277.443	-200.000	0.029	-0.346
-276.428	-181.814	-0.111	0.002
-275.413	-136.529	0.078	0.009
-274.399	-78.909	-0.165	0.056
-273.384	800.000	-0.107	-0.310
-272.370	800.000	0.088	0.367
-271.355	94.862	0.110	-0.125
-270.340	781.497	-0.130	-0.353
-269.326	-62.656	0.216	0.089
-268.311	-33.035	-0.155	-0.085
-267.297	252.710	0.166	-0.281
-266.282	-92.533	0.244	0.068
-265.267	800.000	0.058	0.161
-264.253	-200.000	0.003	-0.214
-263.238	220.807	-0.038	0.061
-262.224	242.526	-0.218	0.362
-261.209	-200.000	0.013	-0.077
-260.195	-80.316	0.428	-0.142
-259.180	800.000	-0.047	-0.202
-258.165	-127.503	0.143	-0.021
-257.151	11.375	-0.116	0.088
-256.136	800.000	-0.122	-0.350
-255.122	571.484	-0.036	-0.087
-254.107	269.019	0.072	0.126
-253.092	350.802	-0.095	-0.187
-252.078	-131.539	0.163	-0.021
-251.063	-10.182	-0.066	0.043
-250.049	-17.932	-0.179	0.111
-249.034	-168.925	0.301	0.011
-248.019	281.104	0.174	-0.308
-247.005	209.814	-0.103	0.161
-245.990	-94.030	0.050	-0.013
-244.976	-150.374	0.437	0.033
-243.961	78.660	-0.125	-0.132
-242.946	-200.000	0.020	0.227
-241.932	800.000	-0.055	-0.182
-240.917	-200.000	0.043	-0.280
-239.903	-85.001	-0.135	0.042
-238.888	132.553	0.133	-0.169
-237.873	-53.797	0.105	0.047
-236.859	74.214	-0.203	-0.211
-235.844	573.685	-0.161	-0.389
-234.830	-101.355	0.092	0.022
-233.815	800.000	0.016	-0.069
-232.800	-117.422	-0.115	0.021
-231.786	-200.000	0.009	-0.069
-230.771	-133.337	-0.077	-0.010
-229.757	800.000	0.061	0.233
-228.742	800.000	0.014	0.041
-227.727	-120.409	0.154	0.026
-226.713	-160.570	-0.140	-0.007
-225.698	57.255	0.120	0.115
-224.684	-94.033	-0.284	-0.077
-223.669	-166.971	0.393	0.016
-222.655	-36.625	-0.127	0.068
-221.640	-130.247	0.418	-0.056
-220.625	-200.000	-0.028	0.393
-219.611	70.685	-0.143	0.146
-218.596	123.193	0.374	-0.463
-217.582	-123.824	0.193	0.030
-216.567	-28.994	-0.270	0.153
-215.552	-37.308	0.330	0.174
-214.538	-200.000	0.028	-0.184
-213.523	17.752	0.370	-0.291
-212.509	-102.671	-0.108	-0.025
-211.494	-142.755	0.066	-0.006
-210.479	486.093	0.056	0.126
-209.465	-200.000	0.078	-0.340
-208.450	77.858	0.159	0.168
-207.436	800.000	0.031	-0.125
-206.421	326.285	-0.246	-0.466
-205.406	145.366	0.278	0.367
-204.392	85.189	-0.304	-0.330
-203.377	800.000	-0.091	-0.313
-202.363	256.874	-0.097	0.165
-201.348	-70.933	0.467	-0.174
-200.333	592.209	-0.014	0.034
-199.319	-200.000	-0.019	0.105
-198.304	-84.890	-0.101	-0.031
-197.290	800.000	0.066	0.269
-196.275	800.000	-0.052	-0.165
-195.260	800.000	-0.154	0.513
-194.246	-86.283	0.220	0.067
-193.231	27.434	0.091	-0.076
-192.217	-58.984	-0.058	0.025
-191.202	169.520	0.051	-0.072
-190.187	-45.041	0.150	0.074
-189.173	459.799	-0.072	-0.158
-188.158	-108.599	-0.030	0.006
-187.144	-162.914	0.253	-0.012
-186.129	-51.961	0.093	-0.043
-185.114	228.424	-0.103	0.166
-184.100	-1.573	0.075	-0.052
-183.085	-9.859	0.103	0.068
-182.071	255.650	0.062	-0.105
-181.056	-98.890	0.130	-0.033
-180.042	231.279	0.177	0.286
-179.027	-127.441	0.092	0.013
-178.012	82.959	0.171	-0.183
-176.998	-96.968	0.217	-0.056
-175.983	-52.658	-0.204	-0.093
-174.969	-122.309	0.190	0.031
-173.954	206.579	-0.143	-0.220
-172.939	-200.000	-0.001	0.131
-171.925	519.363	0.014	0.033
-170.910	76.344	-0.106	0.111
-169.896	800.000	0.053	0.191
-168.881	135.468	0.053	0.068
-167.866	-149.823	-0.288	0.022
-166.852	-95.821	0.121	0.032
-165.837	286.918	0.252	-0.449
-164.823	-200.000	-0.062	-0.284
-163.808	-119.953	-0.217	0.037
-162.793	90.298	-0.114	-0.126
-161.779	-200.000	0.012	-0.067
-160.764	-2.676	-0.063	0.043
-159.750	-175.937	-0.383	-0.010
-158.735	121.734	0.200	0.246
-157.720	62.781	0.095	0.094
-156.706	-27.951	-0.170	0.097
-155.691	-104.886	0.267	0.060
-154.677	-192.222	0.098	0.001
-153.662	267.722	-0.167	0.288
-152.647	-164.755	-0.206	-0.009
-151.633	-200.000	0.033	0.248
-150.618	44.383	0.096	0.087
-149.604	800.000	-0.021	0.084
-148.589	73.485	0.112	-0.116
-147.574	-20.735	0.142	0.086
-146.560	111.827	0.167	0.199
-145.545	-123.115	0.101	-0.016
-144.531	800.000	0.032	0.137
-143.516	-180.920	-0.162	-0.003
-142.502	280.216	0.081	0.142
-141.487	-46.054	-0.118	0.057
-140.472	-200.000	0.064	0.600
-139.458	-200.000	-0.002	0.181
-138.443	-23.942	-0.093	0.055
-137.429	-87.158	0.273	0.082
-136.414	-35.297	-0.169	0.091
-135.399	156.514	-0.102	0.138
-134.385	-200.000	0.020	-0.229
-133.370	-1.437	0.242	-0.169
-132.356	262.469	0.043	-0.073
-131.341	18.613	-0.209	-0.165
-130.326	-177.278	-0.133	-0.003
-129.312	335.905	0.144	-0.276
-128.297	20.019	0.180	0.143
-127.283	-68.007	-0.179	-0.069
-126.268	-61.809	-0.209	0.086
-125.253	-100.280	0.191	0.047
-124.239	404.770	-0.206	0.427
-123.224	770.456	0.157	0.422
-122.210	-95.246	-0.264	0.070
-121.195	-23.911	-0.081	-0.048
-120.180	-144.073	-0.161	0.015
-119.166	-200.000	0.039	0.315
-118.151	53.752	-0.219	-0.207
-117.137	-179.784	-0.277	-0.006
-116.122	-57.385	-0.145	-0.063
-115.107	47.115	0.182	0.167
-114.093	800.000	0.061	-0.174
-113.078	-91.117	-0.408	0.115
-112.064	-101.150	-0.171	-0.041
-111.049	473.502	0.184	0.409
-110.034	-57.602	0.324	0.140
-109.020	-200.000	-0.004	-0.093
-108.005	-71.753	-0.127	-0.047
-106.991	1.755	-0.152	0.108
-105.976	-51.894	0.248	0.114
-104.962	-162.782	0.576	-0.028
-103.947	-51.452	0.102	0.047
-102.932	-54.325	-0.219	0.098
-101.918	-185.246	0.193	-0.003
-100.903	271.668	0.051	-0.088
-99.889	274.274	0.104	-0.182
-98.874	-75.518	0.086	-0.030
-97.859	261.694	0.147	-0.250
-96.845	800.000	-0.078	-0.303
-95.830	312.013	-0.072	0.133
-94.816	800.000	-0.105	-0.351
-93.801	-45.312	0.133	0.065
-92.786	111.056	0.149	-0.177
-91.772	65.883	-0.182	-0.181
-90.757	-49.334	0.182	-0.085
-89.743	800.000	-0.031	-0.121
-88.728	760.573	-0.135	0.360
-87.713	-72.226	-0.063	0.023
-86.699	-3.724	-0.287	-0.196
-85.684	356.331	-0.210	0.411
-84.670	82.466	0.164	-0.175
-83.655	169.533	0.094	-0.132
-82.640	800.000	-0.022	0.060
-81.626	539.335	-0.054	-0.126
-80.611	121.768	0.067	-0.083
-79.597	-173.174	-0.035	0.001
-78.582	-11.339	0.017	0.011
-77.567	-76.222	0.181	-0.063
-76.553	800.000	0.235	0.643
-75.538	-37.897	0.177	0.092
-74.524	101.400	-0.171	0.195
-73.509	-117.745	0.172	-0.030
-72.494	-149.767	-0.074	0.006
-71.480	-200.000	0.003	0.054
-70.465	644.540	-0.034	0.085
-69.451	-42.491	0.163	-0.082
-68.436	-43.096	0.094	0.047
-67.422	-200.000	-0.027	-0.280
-66.407	-75.691	0.098	0.034
-65.392	7.648	-0.040	0.030
-64.378	-106.174	-0.074	0.016
-63.363	-116.269	-0.267	0.049
-62.349	-115.302	-0.194	0.036
-61.334	25.538	-1.003	-0.820
-60.319	147.874	0.546	0.723
-59.305	-200.000	-0.014	-0.843
-58.290	256.574	0.549	0.927
-57.276	800.000	0.524	1.603
-56.261	-200.000	96.012	594.900
-55.246	653.678	1371.759	3457.268
-54.232	198.904	2553.563	3842.177
-53.217	113.495	2266.540	2703.523
-52.203	41.450	1895.661	1685.273
-51.188	35.247	1686.312	1452.281
-50.173	32.561	1642.624	1394.742
-49.159	50.276	1688.488	1566.931
-48.144	51.766	1704.979	1593.340
-47.130	34.927	1666.252	1432.381
-46.115	32.187	1651.703	1399.444
-45.100	31.990	1646.929	1393.883
-44.086	31.942	1644.066	1391.048
-43.071	31.864	1641.749	1388.456
-42.057	31.872	1639.528	1386.585
-41.042	31.819	1637.937	1384.787
-40.027	31.967	1635.487	1383.753
-39.013	31.859	1633.807	1381.485
-37.998	31.748	1632.522	1379.523
-36.984	31.803	1630.904	1378.507
-35.969	31.947	1629.011	1377.906
-34.954	31.992	1627.942	1377.280
-33.940	31.934	1626.132	1375.266
-32.925	31.960	1624.589	1374.102
-31.911	32.030	1622.331	1372.649
-30.896	31.930	1620.907	1370.657
-29.881	31.908	1619.152	1368.962
-28.867	31.970	1617.480	1367.942
-27.852	31.997	1615.643	1366.531
-26.838	31.917	1614.409	1364.851
-25.823	31.952	1613.158	1363.995
-24.809	31.978	1611.597	1362.807
-23.794	32.030	1610.105	1361.868
-22.779	31.994	1609.027	1360.642
-21.765	32.018	1607.073	1359.111
-20.750	31.996	1605.537	1357.596
-19.736	31.980	1604.276	1356.362
-18.721	32.094	1602.508	1355.640
-17.706	32.139	1601.288	1354.874
-16.692	31.973	1599.382	1352.012
-15.677	32.000	1598.278	1351.225
-14.663	32.062	1596.856	1350.412
-13.648	32.069	1595.719	1349.448
-12.633	32.058	1594.162	1347.996
-11.619	31.927	1592.836	1345.886
-10.604	31.927	1591.503	1344.701
-9.590	32.003	1590.149	1344.052
-8.575	32.032	1588.556	1342.855
-7.560	31.941	1587.753	1341.478
-6.546	32.034	1586.551	1341.070
-5.531	31.985	1585.222	1339.545
-4.517	31.985	1583.816	1338.305
-3.502	31.933	1582.689	1336.929
-2.487	32.056	1581.426	1336.683
-1.473	31.769	1569.406	1324.446
-0.458	29.152	1549.276	1289.112
0.556	24.868	1550.393	1257.075
1.571	22.572	1573.823	1259.574
2.586	21.954	1587.226	1265.728
3.600	19.481	1533.498	1205.522
4.615	11.924	1425.316	1071.135
5.629	5.510	1364.308	984.930
6.644	4.679	1356.338	973.886
7.659	4.498	1355.003	971.714
8.673	4.470	1353.644	970.474
9.688	4.414	1352.683	969.352
10.702	4.379	1349.665	966.883
11.717	7.301	1355.112	988.953
12.731	14.675	1368.048	1044.602
13.746	19.078	1375.336	1077.708
14.761	18.960	1373.294	1075.274
15.775	17.904	1371.032	1066.814
16.790	16.780	1367.835	1057.222
17.804	16.041	1365.504	1050.721
18.819	15.621	1364.668	1047.368
19.834	15.405	1362.946	1044.611
20.848	15.144	1361.797	1042.014
21.863	14.912	1360.542	1039.519
22.877	14.861	1359.410	1038.246
23.892	14.665	1358.862	1036.515
24.907	14.615	1358.203	1035.611
25.921	14.825	1356.922	1035.844
26.936	14.788	1356.216	1034.985
27.950	14.686	1355.541	1033.749
28.965	14.841	1354.425	1033.760
29.980	15.075	1352.731	1033.826
30.994	15.038	1351.959	1032.912
32.009	15.119	1350.871	1032.494
33.023	15.058	1349.765	1031.178
34.038	14.968	1348.295	1029.409
35.053	14.925	1346.937	1028.017
36.067	14.882	1346.263	1027.149
37.082	14.923	1345.293	1026.572
38.096	14.992	1344.374	1026.199
39.111	15.087	1343.116	1025.730
40.126	15.002	1342.195	1024.417
41.140	14.695	1341.762	1022.120
42.155	14.713	1341.450	1021.902
43.169	14.703	1340.960	1021.376
44.184	14.671	1340.455	1020.702
45.199	14.693	1340.013	1020.412
46.213	14.735	1339.860	1020.464
47.228	14.859	1338.701	1020.243
48.242	14.951	1337.434	1019.748
49.257	14.937	1335.708	1018.259
50.271	15.015	1334.486	1017.711
51.286	14.892	1333.252	1015.931
52.301	14.933	1332.269	1015.341
53.315	14.802	1331.064	1013.537
54.330	14.858	1329.841	1012.860
55.344	14.745	1328.780	1011.277
56.359	14.747	1327.657	1010.346
57.374	14.720	1326.796	1009.433
58.388	14.713	1326.008	1008.706
59.403	14.694	1325.899	1008.416
60.417	14.590	1325.267	1007.222
61.432	14.659	1324.374	1006.867
62.447	14.603	1322.820	1005.260
63.461	14.582	1321.771	1004.250
64.476	14.576	1320.747	1003.348
65.490	14.527	1319.710	1002.174
66.505	14.560	1317.823	1000.850
67.520	14.601	1316.692	1000.149
68.534	14.607	1315.904	999.499
69.549	14.717	1314.525	999.021
70.563	14.588	1313.737	997.560
71.578	14.441	1312.828	995.903
72.593	14.504	1312.104	995.642
73.607	14.402	1310.743	993.915
74.622	14.459	1310.177	993.738
75.636	14.551	1309.294	993.527
76.651	14.517	1308.637	992.738
77.666	14.536	1308.319	992.525
78.680	14.537	1308.226	992.373
79.695	14.563	1307.161	991.630
80.709	14.482	1306.427	990.503
81.724	14.606	1305.512	990.457
82.739	14.702	1304.507	990.179
83.753	14.845	1303.503	990.174
84.768	14.942	1302.903	990.206
85.782	14.951	1301.466	989.082
86.797	14.944	1300.368	988.116
87.812	14.903	1299.208	986.906
88.826	14.797	1298.193	985.425
89.841	14.934	1296.989	985.227
90.855	14.883	1296.385	984.381
91.870	14.989	1295.581	984.308
92.884	14.924	1294.443	982.972
93.899	14.967	1293.939	982.755
94.914	15.073	1292.735	982.377
95.928	15.045	1292.458	981.915
96.943	15.056	1291.196	980.933
97.957	14.968	1290.594	979.873
98.972	15.090	1288.669	979.041
99.987	14.982	1288.301	978.045
101.001	15.016	1287.150	977.279
102.016	14.993	1285.875	976.092
103.030	14.985	1285.382	975.583
104.045	14.998	1284.463	974.876
105.060	14.865	1283.395	973.207
106.074	14.787	1281.857	971.502
107.089	14.628	1280.070	969.139
108.103	14.641	1279.118	968.404
109.118	14.618	1278.095	967.415
110.133	14.606	1276.803	966.281
111.147	14.707	1274.887	965.325
112.162	14.718	1274.138	964.741
113.176	14.726	1273.225	964.006
114.191	14.850	1271.813	963.569
115.206	14.730	1270.991	962.171
116.220	14.744	1269.579	961.096
117.235	14.710	1268.943	960.331
118.249	14.771	1267.441	959.462
119.264	14.737	1266.615	958.555
120.279	14.619	1265.416	956.889
121.293	14.676	1264.100	956.138
122.308	14.666	1263.065	955.208
123.322	14.585	1262.462	954.206
124.337	14.572	1261.262	953.140
125.352	14.612	1259.993	952.329
126.366	14.569	1259.232	951.419
127.381	14.525	1258.187	950.299
128.395	14.609	1257.135	949.897
129.410	14.646	1256.162	949.285
130.424	14.661	1255.344	948.670
131.439	14.721	1254.297	948.135
132.454	14.692	1252.993	946.901
133.468	14.663	1252.611	946.365
134.483	14.735	1252.003	946.231
135.497	14.881	1250.116	945.546
136.512	14.775	1249.550	944.435
137.527	14.747	1248.058	943.066
138.541	14.870	1246.938	942.828
139.556	14.823	1245.414	941.332
140.570	14.805	1244.730	940.626
141.585	14.874	1243.367	939.900
142.600	14.971	1242.133	939.433
143.614	15.057	1241.048	939.009
144.629	14.996	1240.406	938.100
145.643	15.004	1239.004	936.999
146.658	14.902	1237.925	935.531
147.673	14.876	1236.536	934.251
148.687	14.842	1235.542	933.231
149.702	14.720	1233.960	931.274
150.716	14.861	1232.637	930.976
151.731	14.730	1231.539	929.337
152.746	14.763	1231.153	929.146
153.760	15.037	1228.786	928.796
154.775	14.847	1228.510	927.454
155.789	15.033	1227.197	927.410
156.804	14.976	1226.374	926.394
157.819	15.027	1225.595	926.001
158.833	15.104	1224.619	925.610
159.848	15.138	1224.293	925.471
160.862	15.101	1223.189	924.350
161.877	15.041	1221.476	922.643
162.892	14.973	1220.236	921.246
163.906	14.886	1219.751	920.322
164.921	15.013	1218.626	920.091
165.935	15.010	1217.916	919.456
166.950	15.108	1217.382	919.510
167.964	15.034	1216.247	918.167
168.979	15.050	1215.652	917.724
169.994	15.098	1214.810	917.267
171.008	15.067	1214.056	916.450
172.023	15.066	1213.559	915.988
173.037	15.145	1212.925	915.858
174.052	15.307	1211.412	915.518
175.067	15.063	1210.936	913.746
176.081	15.083	1209.544	912.728
177.096	14.983	1208.847	911.573
178.110	15.139	1207.406	911.255
179.125	15.140	1206.174	910.253
180.140	15.131	1205.027	909.258
181.154	15.227	1203.739	908.725
182.169	15.157	1202.600	907.405
183.183	15.203	1201.662	906.864
184.198	15.258	1200.440	906.161
185.213	15.296	1199.358	905.471
186.227	15.299	1198.421	904.700
187.242	15.272	1197.208	903.554
188.256	15.446	1196.106	903.583
189.271	15.323	1195.362	902.275
190.286	15.205	1194.653	901.028
191.300	15.091	1193.303	899.321
192.315	15.009	1192.435	898.143
193.329	14.939	1192.537	897.765
194.344	14.969	1191.945	897.403
195.359	15.081	1191.228	897.384
196.373	15.195	1190.733	897.543
197.388	15.303	1190.018	897.502
198.402	15.418	1189.681	897.782
199.417	15.596	1188.659	897.882
200.432	15.584	1188.566	897.668
201.446	15.578	1187.485	896.740
202.461	15.601	1186.643	896.147
203.475	15.646	1185.605	895.523
204.490	15.624	1183.710	893.897
205.504	15.566	1182.468	892.574
206.519	15.507	1181.298	891.295
207.534	15.451	1180.289	890.162
208.548	15.490	1179.588	889.760
209.563	15.459	1179.216	889.235
210.577	15.548	1177.830	888.582
211.592	15.504	1176.912	887.579
212.607	15.589	1176.373	887.544
213.621	15.653	1175.198	886.916
214.636	15.690	1174.325	886.375
215.650	15.616	1173.646	885.394
216.665	15.692	1172.709	885.010
217.680	15.866	1171.698	885.079
218.694	15.779	1171.138	884.123
219.709	15.729	1170.510	883.311
220.723	15.708	1169.939	882.690
221.738	15.711	1168.866	881.815
222.753	15.733	1168.044	881.232
223.767	15.924	1167.205	881.524
224.782	15.951	1166.858	881.326
225.796	15.833	1166.355	880.250
226.811	15.909	1165.618	880.015
227.826	15.875	1164.942	879.248
228.840	15.843	1163.716	878.078
229.855	15.830	1163.208	877.547
230.869	15.830	1162.341	876.814
231.884	15.838	1161.410	876.077
232.899	15.698	1161.026	874.984
233.913	15.847	1160.239	875.083
234.928	15.737	1159.283	873.714
235.942	15.695	1158.561	872.875
236.957	15.750	1157.892	872.581
237.972	15.832	1157.127	872.350
238.986	15.811	1156.654	871.811
240.001	15.759	1155.905	870.898
241.015	15.815	1154.965	870.405
242.030	15.765	1154.443	869.676
243.045	15.935	1153.474	869.747
244.059	15.843	1152.579	868.517
245.074	15.942	1152.003	868.520
246.088	15.899	1151.262	867.664
247.103	16.031	1150.683	867.829
248.117	16.201	1149.774	867.939
249.132	16.161	1149.258	867.269
250.147	16.362	1148.113	867.357
251.161	16.404	1147.456	867.004
252.176	16.344	1147.373	866.553
253.190	16.343	1146.875	866.095
254.205	16.396	1145.899	865.556
255.220	16.549	1145.137	865.686
256.234	16.439	1144.760	864.761
257.249	16.463	1143.630	863.955
258.263	16.558	1143.038	863.914
259.278	16.493	1142.452	863.065
260.293	16.636	1141.897	863.299
261.307	16.654	1140.964	862.607
262.322	16.614	1140.592	862.048
263.336	16.486	1140.529	861.270
264.351	16.651	1139.600	861.331
265.366	16.572	1139.048	860.437
266.380	16.552	1138.528	859.868
267.395	16.712	1137.323	859.693
268.409	16.578	1136.548	858.351
269.424	16.601	1136.028	857.997
270.439	16.567	1135.695	857.501
271.453	16.511	1135.032	856.640
272.468	16.542	1133.346	855.450
273.482	16.536	1133.364	855.357
274.497	16.615	1132.249	854.836
275.512	16.479	1131.845	853.771
276.526	16.475	1131.423	853.358
277.541	16.510	1130.336	852.637
278.555	16.632	1129.793	852.767
279.570	16.642	1128.930	852.093
280.585	16.680	1128.245	851.692
281.599	16.865	1126.909	851.535
282.614	16.843	1125.971	850.642
283.628	16.649	1125.159	848.979
284.643	16.738	1124.092	848.543
285.657	16.721	1123.555	847.981
286.672	16.764	1122.488	847.316
287.687	16.794	1121.572	846.697
288.701	16.834	1120.971	846.367
289.716	16.777	1120.173	845.405
290.730	16.785	1119.558	844.906
291.745	16.959	1118.722	845.068
292.760	16.851	1118.219	844.079
293.774	16.921	1117.673	843.937
294.789	16.972	1117.287	843.826
295.803	17.003	1116.540	843.341
296.818	16.894	1115.275	841.770
297.833	16.977	1114.806	841.753
298.847	16.861	1113.845	840.379
299.862	16.781	1113.358	839.541
300.876	16.958	1112.559	839.741
301.891	16.972	1112.583	839.753
302.906	17.021	1111.306	838.958
303.920	17.025	1110.820	838.535
304.935	17.186	1110.029	838.659
305.949	17.204	1109.631	838.370
306.964	17.160	1108.998	837.604
307.979	17.309	1107.826	837.379
308.993	17.109	1107.282	835.908
310.008	17.263	1106.397	835.923
311.022	17.307	1105.664	835.512
312.037	17.250	1104.872	834.558
313.052	17.130	1103.999	833.236
314.066	17.149	1102.963	832.477
315.081	17.156	1102.006	831.711
316.095	17.105	1101.649	831.120
317.110	17.017	1100.841	830.006
318.125	17.150	1100.244	830.134
319.139	16.989	1099.822	828.957
320.154	17.007	1099.182	828.487
321.168	17.060	1098.325	828.028
322.183	17.146	1097.672	827.879
323.197	17.016	1097.197	826.814
324.212	17.159	1096.458	826.879
325.227	17.110	1096.156	826.340
326.241	17.230	1095.101	826.056
327.256	17.112	1094.656	825.073
328.270	17.243	1093.157	824.508
329.285	17.221	1092.294	823.677
330.300	17.230	1091.250	822.860
331.314	17.126	1090.740	821.898
332.329	17.108	1090.300	821.410
333.343	17.264	1089.058	821.153
334.358	17.325	1088.373	820.861
335.373	17.383	1087.466	820.383
336.387	17.436	1086.797	820.061
337.402	17.432	1086.257	819.561
338.416	17.459	1085.668	819.175
339.431	17.366	1085.428	818.471
340.446	17.428	1084.801	818.228
341.460	17.546	1083.762	817.937
342.475	17.678	1082.671	817.674
343.489	17.625	1082.016	816.851
344.504	17.729	1080.849	816.396
345.519	17.647	1080.454	815.636
346.533	17.795	1079.387	815.466
347.548	17.660	1079.129	814.554
348.562	17.841	1078.208	814.647
349.577	17.789	1076.964	813.390
350.592	17.547	1076.723	811.982
351.606	17.624	1075.181	811.111
352.621	17.508	1074.823	810.218
353.635	17.556	1074.668	810.258
354.650	17.634	1073.369	809.580
355.665	17.531	1072.963	808.710
356.679	17.623	1072.196	808.498
357.694	17.665	1071.847	808.364
358.708	17.758	1071.207	808.251
359.723	17.926	1070.177	808.196
360.738	17.744	1069.944	807.088
361.752	17.678	1069.495	806.365
362.767	17.814	1068.749	806.376
363.781	17.812	1068.590	806.175
364.796	17.913	1067.585	805.819
365.810	17.959	1066.996	805.524
366.825	17.999	1066.397	805.186
367.840	18.104	1066.194	805.456
368.854	18.162	1065.470	805.112
369.869	18.050	1064.468	803.755
370.883	18.054	1063.740	803.154
371.898	18.030	1062.802	802.265
372.913	18.097	1062.225	802.071
373.927	18.163	1061.712	801.924
374.942	18.161	1061.354	801.573
375.956	18.132	1060.874	801.002
376.971	18.116	1060.405	800.502
377.986	18.166	1059.335	799.859
379.000	18.330	1059.111	800.383
380.015	18.158	1059.104	799.502
381.029	18.281	1057.980	799.159
382.044	18.307	1057.475	798.827
383.059	18.279	1056.459	797.861
384.073	18.273	1055.506	797.042
385.088	18.319	1055.025	796.820
386.102	18.229	1054.222	795.726
387.117	18.258	1053.194	795.014
388.132	18.255	1051.831	793.900
389.146	18.165	1051.269	792.991
390.161	18.193	1050.751	792.660
391.175	18.277	1049.717	792.197
392.190	18.342	1049.252	792.075
393.205	18.344	1048.761	791.646
394.219	18.458	1047.773	791.355
395.234	18.349	1046.631	789.922
396.248	18.333	1045.488	788.917
397.263	18.169	1044.885	787.635
398.278	18.239	1043.898	787.141
399.292	18.225	1043.633	786.809
400.307	18.191	1042.751	785.920
401.321	18.220	1042.287	785.632
402.336	18.172	1041.702	784.900
403.350	18.276	1041.097	784.851
404.365	18.391	1040.437	784.814
405.380	18.303	1039.527	783.652
406.394	18.394	1038.722	783.395
407.409	18.378	1038.277	782.917
408.423	18.508	1037.862	783.125
409.438	18.677	1036.738	782.982
410.453	18.755	1036.110	782.793
411.467	18.653	1035.356	781.687
412.482	18.640	1034.829	781.165
413.496	18.669	1034.155	780.717
414.511	18.715	1033.649	780.475
415.526	18.858	1032.961	780.537
416.540	18.717	1032.780	779.689
417.555	18.720	1032.543	779.456
418.569	18.845	1031.392	779.087
419.584	18.864	1031.074	778.864
420.599	18.862	1030.691	778.495
421.613	150.673	1400.872	1794.774
422.628	137.481	1454.779	1794.873
