DTS Sentinel unit serial number:	SN413079Multiplexer serial number:	ORYXHardware model number:	OX4-SRSoftware version number:	ORYX F/W v4.00 Oryx Data Collector v3.7.2.0data status	okinstallation	princeton_trtdifferential loss correction	single-endedforward channel	channel 2reverse channel	N/Adate	2019/09/11time	18:01:11forward acquisition time	60.00reverse acquisition time	0.00gamma	496.2192k internal	0.2284k external	0.2284temperature offset calibration	1.0023default loss term (dB/km)	0.3790temperature slope calibration	1.0000multiplexer offset coefficient	1.0000multiplexer slope coefficient	1.0000fibre end	0.00T internal ref (°C)	44.02T ext. ref 1 (°C)	1.13T ext. ref 2 (°C)	38.87length (m)	temperature (°C)	Stokes	anti-Stokes-747.200	-108.997	0.251	0.055
-746.185	-95.812	0.263	0.072
-745.171	24.937	0.129	0.110
-744.156	380.731	0.099	0.209
-743.142	166.157	-0.303	0.441
-742.127	9.501	-0.170	0.133
-741.112	587.898	-0.060	0.152
-740.098	800.000	-0.075	0.277
-739.083	13.059	-0.308	0.245
-738.069	86.822	-0.306	0.346
-737.054	-6.864	0.128	0.090
-736.039	-83.691	0.377	0.124
-735.025	-200.000	-0.028	0.280
-734.010	-200.000	0.027	-0.627
-732.996	-51.430	-0.207	0.099
-731.981	-141.243	-0.268	-0.028
-730.966	800.000	0.023	0.080
-729.952	746.636	-0.105	-0.290
-728.937	-200.000	-0.028	0.200
-727.923	800.000	0.079	-0.296
-726.908	34.071	0.128	-0.114
-725.894	50.621	-0.050	-0.049
-724.879	-200.000	-0.007	-0.198
-723.864	-200.000	-0.021	-0.237
-722.850	316.213	-0.058	-0.113
-721.835	800.000	-0.137	-0.411
-720.821	-138.905	-0.483	0.054
-719.806	-74.462	-0.273	0.101
-718.791	424.695	0.144	-0.318
-717.777	378.551	0.056	-0.117
-716.762	-122.573	-0.396	-0.066
-715.748	-181.777	0.113	0.002
-714.733	72.326	0.118	-0.127
-713.718	-85.162	-0.304	0.098
-712.704	-18.720	0.066	-0.042
-711.689	448.844	0.125	-0.284
-710.675	-200.000	-0.032	-0.229
-709.660	-151.132	0.212	-0.016
-708.645	194.445	0.137	-0.214
-707.631	-76.099	-0.257	-0.093
-706.616	176.077	0.132	0.197
-705.602	-132.249	-0.211	0.028
-704.587	613.473	-0.059	0.150
-703.572	465.715	-0.149	0.342
-702.558	58.858	-0.130	0.131
-701.543	800.000	0.077	0.292
-700.529	-12.133	-0.160	0.107
-699.514	21.543	0.225	-0.187
-698.499	-66.401	0.015	0.006
-697.485	1.679	-0.295	-0.218
-696.470	-123.946	-0.128	0.021
-695.456	800.000	0.049	0.216
-694.441	-22.516	-0.294	-0.182
-693.426	210.214	-0.184	-0.296
-692.412	-88.407	0.099	-0.030
-691.397	-42.262	-0.098	-0.051
-690.383	-142.281	-0.344	-0.035
-689.368	57.527	-0.250	0.251
-688.354	800.000	-0.113	-0.407
-687.339	426.788	0.078	0.172
-686.324	800.000	-0.078	-0.276
-685.310	87.771	0.145	-0.165
-684.295	75.208	-0.289	0.313
-683.281	-128.131	-0.323	-0.047
-682.266	29.742	0.157	0.137
-681.251	-85.471	-0.287	-0.092
-680.237	-200.000	-0.003	-0.189
-679.222	-165.634	0.501	0.022
-678.208	597.455	0.031	0.078
-677.193	140.010	0.149	-0.201
-676.178	206.529	0.136	-0.216
-675.164	800.000	0.052	0.169
-674.149	-56.280	0.365	-0.166
-673.135	-104.975	0.088	-0.021
-672.120	800.000	0.048	0.174
-671.105	-37.485	-0.055	0.030
-670.091	-200.000	0.084	-0.414
-669.076	23.789	-0.274	-0.231
-668.062	755.851	0.070	-0.195
-667.047	148.995	0.140	-0.193
-666.032	-65.644	-0.276	-0.113
-665.018	-105.834	0.239	-0.055
-664.003	-200.000	0.008	-0.148
-662.989	407.620	0.097	-0.210
-661.974	-164.136	-0.270	-0.013
-660.959	-200.000	0.001	0.013
-659.945	-150.011	-0.156	0.012
-658.930	-19.845	-0.109	0.069
-657.916	-200.000	0.009	-0.054
-656.901	16.571	0.268	-0.217
-655.886	-56.459	-0.193	0.088
-654.872	62.439	0.118	-0.121
-653.857	77.246	-0.180	0.196
-652.843	-59.301	-0.234	-0.103
-651.828	331.681	0.071	0.141
-650.814	-69.901	0.324	0.126
-649.799	800.000	0.028	-0.102
-648.784	109.228	-0.130	0.159
-647.770	-137.867	0.171	-0.020
-646.755	-143.244	-0.194	-0.019
-645.741	-169.796	-0.301	0.011
-644.726	788.199	0.055	-0.154
-643.711	12.946	-0.320	0.253
-642.697	-2.169	-0.061	-0.044
-641.682	97.655	-0.036	-0.042
-640.668	-188.189	-0.136	-0.002
-639.653	-61.742	-0.311	-0.133
-638.638	800.000	-0.042	0.150
-637.624	125.616	0.129	0.167
-636.609	-177.946	0.285	-0.007
-635.595	-200.000	-0.007	-0.169
-634.580	-93.464	-0.135	0.038
-633.565	699.809	0.069	-0.186
-632.551	-88.192	-0.129	0.040
-631.536	-200.000	0.003	-0.114
-630.522	83.602	-0.271	0.303
-629.507	-43.512	0.272	0.140
-628.492	201.689	0.040	-0.064
-627.478	108.754	-0.072	0.088
-626.463	8.127	-0.129	0.099
-625.449	343.038	0.111	0.222
-624.434	-70.894	0.043	-0.017
-623.419	-68.361	-0.219	0.087
-622.405	-143.920	-0.149	0.014
-621.390	800.000	0.069	0.250
-620.376	800.000	0.055	0.170
-619.361	183.141	0.120	0.180
-618.346	-67.294	0.108	-0.044
-617.332	21.309	0.215	0.179
-616.317	-45.279	-0.163	-0.083
-615.303	579.289	-0.099	0.247
-614.288	-35.050	0.182	0.101
-613.273	-70.816	-0.192	-0.074
-612.259	701.131	-0.145	-0.389
-611.244	-88.297	0.065	-0.020
-610.230	104.709	-0.182	-0.219
-609.215	-57.209	-0.163	-0.073
-608.201	-200.000	-0.017	-0.075
-607.186	-90.404	-0.227	0.067
-606.171	-200.000	0.020	0.111
-605.157	-200.000	0.023	0.155
-604.142	-200.000	-0.050	-0.288
-603.128	-200.000	-0.050	-0.000
-602.113	-105.314	-0.375	-0.087
-601.098	-200.000	0.055	0.313
-600.084	-172.217	0.217	-0.007
-599.069	21.096	-0.101	-0.084
-598.055	7.183	-0.156	0.119
-597.040	-132.409	-0.201	0.027
-596.025	-160.022	0.202	0.011
-595.011	2.079	-0.086	0.064
-593.996	132.051	-0.114	-0.150
-592.982	-151.688	-0.501	-0.038
-591.967	-69.891	0.074	0.029
-590.952	7.051	-0.199	-0.151
-589.938	800.000	0.032	-0.095
-588.923	-200.000	-0.001	-0.270
-587.909	36.931	-0.122	0.110
-586.894	95.814	-0.096	-0.112
-585.879	588.791	0.053	0.134
-584.865	-161.278	0.146	-0.008
-583.850	-200.000	-0.044	0.216
-582.836	191.991	0.069	-0.106
-581.821	800.000	-0.049	0.186
-580.806	800.000	-0.017	0.072
-579.792	-200.000	-0.074	-0.347
-578.777	-200.000	-0.025	-0.174
-577.763	800.000	-0.045	0.174
-576.748	120.073	0.131	0.166
-575.733	-42.023	0.032	-0.017
-574.719	-200.000	0.017	0.216
-573.704	-200.000	-0.004	0.192
-572.690	-59.573	-0.208	-0.091
-571.675	684.314	0.100	-0.267
-570.661	-56.837	-0.037	-0.017
-569.646	144.835	-0.060	-0.082
-568.631	-200.000	-0.011	0.295
-567.617	150.561	0.193	-0.267
-566.602	24.620	0.236	-0.199
-565.588	-200.000	-0.019	0.212
-564.573	-130.818	-0.078	0.011
-563.558	-200.000	-0.004	-0.222
-562.544	-200.000	0.039	0.214
-561.529	-163.743	0.102	-0.005
-560.515	-76.431	0.277	-0.099
-559.500	-200.000	0.018	-0.094
-558.485	800.000	-0.082	0.366
-557.471	47.271	0.230	0.218
-556.456	-200.000	-0.034	-0.168
-555.442	-200.000	-0.036	0.300
-554.427	-1.093	0.070	0.051
-553.412	217.663	-0.151	0.245
-552.398	-60.205	-0.165	0.072
-551.383	-57.381	0.141	-0.063
-550.369	54.604	-0.086	0.085
-549.354	-185.615	-0.461	-0.007
-548.339	-82.007	0.231	-0.077
-547.325	-200.000	-0.002	-0.096
-546.310	-19.525	0.224	-0.141
-545.296	-45.846	-0.467	0.235
-544.281	118.832	0.123	-0.155
-543.266	-200.000	0.044	0.215
-542.252	-119.677	0.061	-0.011
-541.237	145.540	-0.148	-0.201
-540.223	-22.235	-0.080	0.050
-539.208	-172.525	0.248	-0.008
-538.193	-200.000	0.027	0.198
-537.179	-200.000	0.017	0.167
-536.164	-200.000	-0.016	-0.151
-535.150	-118.392	-0.335	-0.060
-534.135	71.919	0.163	0.173
-533.121	-200.000	-0.045	0.211
-532.106	-84.156	-0.379	0.123
-531.091	55.477	-0.282	-0.278
-530.077	-12.539	0.231	0.153
-529.062	320.254	0.095	0.184
-528.048	-200.000	-0.040	0.253
-527.033	2.105	0.154	-0.113
-526.018	69.183	0.030	0.032
-525.004	-146.958	-0.195	-0.017
-523.989	-200.000	-0.023	-0.334
-522.975	-117.066	0.257	0.048
-521.960	800.000	-0.038	0.130
-520.945	-200.000	0.003	0.048
-519.931	-200.000	-0.050	-0.260
-518.916	-125.018	0.161	0.025
-517.902	-47.995	-0.282	0.139
-516.887	21.770	0.140	-0.116
-515.872	-94.628	0.028	0.008
-514.858	-167.431	0.058	-0.002
-513.843	494.905	0.045	-0.105
-512.829	-200.000	0.018	0.102
-511.814	-200.000	-0.020	-0.251
-510.799	-127.962	-0.089	-0.013
-509.785	-200.000	0.001	-0.031
-508.770	-65.441	0.339	0.139
-507.756	-144.592	-0.205	-0.019
-506.741	33.065	-0.206	-0.181
-505.726	-200.000	0.006	0.065
-504.712	-200.000	-0.033	0.181
-503.697	123.436	0.061	-0.078
-502.683	800.000	0.068	0.254
-501.668	343.887	0.029	-0.058
-500.653	-86.511	-0.464	0.145
-499.639	-47.071	0.176	0.088
-498.624	-75.518	-0.033	-0.012
-497.610	57.188	0.192	-0.191
-496.595	800.000	0.050	-0.177
-495.581	-87.952	0.187	-0.057
-494.566	-200.000	0.015	0.135
-493.551	630.385	0.066	0.169
-492.537	-26.120	-0.055	0.033
-491.522	-200.000	-0.001	-0.211
-490.508	-170.671	-0.185	-0.007
-489.493	-171.414	0.254	-0.009
-488.478	-200.000	0.074	-0.347
-487.464	-24.031	0.025	-0.015
-486.449	-105.695	-0.432	-0.099
-485.435	800.000	0.083	0.306
-484.420	378.277	-0.083	-0.172
-483.405	40.959	-0.186	0.170
-482.391	800.000	0.097	0.285
-481.376	217.658	-0.185	-0.301
-480.362	-80.032	-0.302	-0.103
-479.347	-200.000	-0.009	-0.120
-478.332	-49.532	0.194	-0.094
-477.318	129.144	0.120	-0.156
-476.303	-142.982	0.146	-0.014
-475.289	-5.631	-0.272	0.189
-474.274	-82.465	0.182	-0.060
-473.259	410.954	-0.123	-0.266
-472.245	56.241	0.221	0.218
-471.230	-71.536	0.275	0.105
-470.216	9.131	-0.214	-0.164
-469.201	-77.605	0.198	-0.070
-468.186	-200.000	-0.002	-0.106
-467.172	55.669	-0.171	0.168
-466.157	-200.000	-0.004	0.039
-465.143	-85.819	-0.049	0.016
-464.128	141.224	-0.070	0.095
-463.113	-200.000	0.003	0.172
-462.099	-58.008	0.224	0.099
-461.084	-104.302	-0.038	0.009
-460.070	133.630	-0.313	0.411
-459.055	-200.000	-0.009	-0.061
-458.040	30.160	-0.119	-0.103
-457.026	-82.017	0.396	-0.132
-456.011	270.923	0.058	-0.104
-454.997	-200.000	0.035	0.434
-453.982	19.237	-0.160	-0.131
-452.968	-102.759	0.201	-0.049
-451.953	-145.801	0.115	-0.010
-450.938	-126.155	-0.166	-0.025
-449.924	74.430	0.412	-0.440
-448.909	800.000	0.060	0.224
-447.895	-103.231	0.341	-0.082
-446.880	800.000	0.045	-0.129
-445.865	14.994	-0.074	-0.059
-444.851	135.770	0.145	0.192
-443.836	588.051	-0.146	0.366
-442.822	800.000	-0.149	-0.419
-441.807	234.394	0.247	-0.413
-440.792	37.089	0.267	0.240
-439.778	-110.687	0.358	0.075
-438.763	-185.578	-0.152	0.002
-437.749	-91.861	-0.093	0.027
-436.734	800.000	0.003	-0.010
-435.719	79.182	0.200	0.218
-434.705	800.000	-0.038	0.126
-433.690	800.000	0.019	0.064
-432.676	-200.000	-0.023	0.121
-431.661	437.805	0.125	-0.276
-430.646	291.583	0.127	-0.235
-429.632	-61.139	0.245	-0.105
-428.617	-200.000	0.016	-0.285
-427.603	-135.664	-0.383	0.046
-426.588	-109.730	-0.085	0.018
-425.573	-81.875	0.199	-0.066
-424.559	154.027	0.085	-0.118
-423.544	-200.000	-0.018	-0.421
-422.530	-150.783	-0.396	0.031
-421.515	72.209	0.041	-0.044
-420.500	-163.943	0.227	-0.011
-419.486	-79.904	0.646	0.220
-418.471	-200.000	0.014	0.431
-417.457	52.334	-0.148	0.144
-416.442	406.804	-0.055	0.117
-415.428	-41.125	-0.378	0.198
-414.413	247.353	0.200	-0.343
-413.398	-68.934	0.072	0.028
-412.384	486.454	-0.089	-0.206
-411.369	-200.000	-0.027	-0.234
-410.355	-51.405	0.394	-0.187
-409.340	800.000	-0.049	0.158
-408.325	-167.159	-0.125	0.005
-407.311	-200.000	0.012	-0.191
-406.296	318.521	-0.088	-0.169
-405.282	169.569	-0.141	-0.204
-404.267	800.000	0.058	0.166
-403.252	200.184	-0.055	0.086
-402.238	11.835	0.157	0.123
-401.223	-104.813	0.344	-0.080
-400.209	86.703	-0.093	-0.104
-399.194	68.738	-0.153	0.159
-398.179	-129.710	-0.134	-0.019
-397.165	-200.000	0.008	0.253
-396.150	-200.000	0.007	-0.155
-395.136	800.000	-0.056	0.165
-394.121	7.952	-0.146	-0.111
-393.106	-200.000	-0.076	-0.340
-392.092	-66.717	0.148	-0.059
-391.077	-77.211	-0.254	0.090
-390.063	148.883	-0.180	-0.247
-389.048	30.167	-0.017	0.015
-388.033	-89.292	-0.131	-0.039
-387.019	-200.000	0.016	-0.276
-386.004	310.318	-0.175	0.332
-384.990	-190.524	0.149	0.002
-383.975	73.233	0.196	-0.207
-382.960	162.159	-0.218	0.310
-381.946	800.000	-0.040	-0.166
-380.931	800.000	-0.044	0.193
-379.917	107.840	0.059	-0.071
-378.902	713.493	0.021	0.056
-377.888	747.501	-0.033	-0.091
-376.873	-200.000	-0.016	0.290
-375.858	-65.394	-0.085	-0.035
-374.844	109.102	-0.135	-0.164
-373.829	-47.500	-0.124	-0.061
-372.815	-50.278	0.213	-0.102
-371.800	-200.000	0.016	-0.112
-370.785	135.867	0.030	-0.040
-369.771	-200.000	-0.005	-0.078
-368.756	-97.438	0.083	-0.022
-367.742	-60.411	-0.142	0.061
-366.727	252.318	-0.181	0.312
-365.712	12.650	-0.010	0.008
-364.698	-160.219	-0.054	0.003
-363.683	-72.691	-0.372	0.139
-362.669	162.332	-0.148	0.210
-361.654	225.423	0.191	0.313
-360.639	323.533	0.118	-0.227
-359.625	220.495	-0.206	-0.334
-358.610	9.557	0.503	-0.386
-357.596	394.031	0.144	0.302
-356.581	-27.746	-0.263	-0.154
-355.566	259.459	-0.092	-0.160
-354.552	-12.863	0.220	-0.145
-353.537	-200.000	-0.018	-0.101
-352.523	17.557	0.168	-0.135
-351.508	134.371	0.124	-0.162
-350.493	-106.467	0.190	0.043
-349.479	381.128	-0.096	0.200
-348.464	800.000	0.026	0.075
-347.450	53.129	0.081	0.078
-346.435	-200.000	-0.057	0.272
-345.420	490.219	0.211	0.488
-344.406	130.708	-0.054	0.070
-343.391	-93.165	0.236	-0.066
-342.377	-55.134	-0.101	0.046
-341.362	-89.709	-0.143	0.042
-340.348	-200.000	0.019	0.327
-339.333	-83.744	-0.193	-0.062
-338.318	800.000	-0.109	-0.403
-337.304	134.081	-0.085	-0.111
-336.289	116.463	-0.081	0.101
-335.275	-200.000	-0.016	-0.116
-334.260	-38.158	-0.138	-0.074
-333.245	-200.000	-0.065	0.343
-332.231	192.843	0.189	-0.288
-331.216	-58.274	-0.194	0.085
-330.202	213.451	0.104	-0.166
-329.187	487.440	0.060	0.139
-328.172	-200.000	-0.029	-0.222
-327.158	-41.341	-0.215	0.112
-326.143	84.608	-0.122	0.135
-325.129	-98.411	0.213	0.055
-324.114	-62.403	-0.121	-0.051
-323.099	-139.431	-0.214	-0.023
-322.085	-200.000	-0.019	0.135
-321.070	264.276	0.074	0.131
-320.056	160.598	-0.198	-0.279
-319.041	-154.516	0.241	0.016
-318.026	-200.000	0.064	0.428
-317.012	-200.000	-0.001	-0.029
-315.997	-58.799	-0.104	0.046
-314.983	19.781	0.059	0.048
-313.968	-48.654	-0.205	-0.099
-312.953	-15.906	0.103	-0.066
-311.939	-104.687	-0.112	0.026
-310.924	-120.737	-0.487	0.083
-309.910	-63.832	0.137	0.057
-308.895	415.498	0.110	0.236
-307.880	-103.577	-0.200	0.047
-306.866	384.677	-0.172	-0.358
-305.851	87.240	-0.083	-0.093
-304.837	-3.099	-0.180	0.126
-303.822	-143.356	-0.190	0.018
-302.807	-200.000	-0.045	-0.278
-301.793	111.056	-0.024	0.030
-300.778	70.081	-0.217	-0.226
-299.764	481.502	-0.032	0.073
-298.749	800.000	-0.041	0.144
-297.735	82.684	-0.133	-0.145
-296.720	9.385	0.040	0.031
-295.705	-77.519	0.071	0.025
-294.691	-68.684	-0.090	0.035
-293.676	-200.000	-0.042	-0.259
-292.662	800.000	-0.077	-0.272
-291.647	-194.409	0.257	0.002
-290.632	800.000	-0.067	-0.252
-289.618	493.041	-0.052	0.120
-288.603	-200.000	0.007	0.258
-287.589	-4.005	-0.094	-0.066
-286.574	88.546	0.013	0.015
-285.559	800.000	0.041	0.131
-284.545	-47.003	0.207	-0.102
-283.530	38.795	-0.118	-0.106
-282.516	-122.960	0.281	-0.046
-281.501	57.246	0.172	-0.170
-280.486	-87.265	-0.168	0.052
-279.472	1.063	-0.105	0.076
-278.457	-134.544	-0.165	-0.020
-277.443	-151.027	-0.279	0.021
-276.428	-139.386	0.228	-0.025
-275.413	46.245	-0.124	-0.116
-274.399	406.585	0.095	0.202
-273.384	-169.986	-0.132	0.005
-272.370	-200.000	0.024	-0.199
-271.355	-94.415	-0.203	-0.056
-270.340	-77.053	0.125	-0.044
-269.326	-200.000	0.005	-0.098
-268.311	36.382	-0.029	0.026
-267.297	-15.127	0.247	-0.159
-266.282	147.910	-0.105	0.142
-265.267	-91.140	0.151	-0.044
-264.253	70.183	-0.106	-0.111
-263.238	506.600	-0.079	0.184
-262.224	-200.000	0.006	0.322
-261.209	-94.742	0.023	0.006
-260.195	109.546	-0.245	-0.295
-259.180	-70.163	-0.252	0.096
-258.165	-150.014	0.076	-0.006
-257.151	231.205	-0.070	-0.116
-256.136	-5.968	0.183	-0.126
-255.122	-200.000	-0.002	-0.027
-254.107	-11.118	0.399	0.265
-253.092	-41.443	-0.113	-0.058
-252.078	-41.309	-0.253	-0.131
-251.063	-15.114	0.238	-0.154
-250.049	-66.282	0.274	-0.110
-249.034	270.743	0.140	-0.248
-248.019	800.000	0.043	0.131
-247.005	-200.000	0.025	-0.448
-245.990	242.029	0.072	0.121
-244.976	-146.385	-0.120	0.011
-243.961	-106.625	-0.315	0.071
-242.946	-200.000	-0.017	0.155
-241.932	-200.000	0.015	0.067
-240.917	-200.000	0.035	0.172
-239.903	-96.038	0.238	-0.064
-238.888	146.328	-0.207	0.280
-237.873	138.381	-0.117	-0.155
-236.859	-64.741	0.107	0.044
-235.844	60.285	0.087	0.087
-234.830	-200.000	0.020	-0.315
-233.815	-36.451	0.522	0.283
-232.800	-111.747	0.283	0.058
-231.786	335.977	-0.043	-0.084
-230.771	591.695	0.145	0.360
-229.757	544.448	-0.074	0.177
-228.742	178.780	-0.110	0.162
-227.727	800.000	0.071	0.256
-226.713	159.026	0.290	0.406
-225.698	-200.000	-0.003	-0.128
-224.684	168.645	-0.102	0.146
-223.669	-200.000	0.026	-0.163
-222.655	-172.249	0.133	-0.004
-221.640	-200.000	0.030	-0.149
-220.625	-80.754	0.134	0.045
-219.611	-66.492	0.189	-0.076
-218.596	-58.113	0.382	-0.168
-217.582	-95.863	-0.319	-0.086
-216.567	-36.163	-0.140	0.076
-215.552	-90.816	0.256	-0.074
-214.538	-9.935	0.113	0.075
-213.523	59.504	-0.066	-0.065
-212.509	-200.000	-0.101	-0.000
-211.494	60.535	0.208	0.207
-210.479	-46.642	-0.133	-0.066
-209.465	-25.936	-0.281	0.166
-208.450	66.497	0.177	0.181
-207.436	299.405	0.071	0.131
-206.421	-200.000	0.256	-0.001
-205.406	225.727	-0.025	-0.041
-204.392	-200.000	0.008	0.134
-203.377	800.000	0.087	-0.255
-202.363	248.847	0.042	-0.071
-201.348	-75.140	0.199	0.072
-200.333	-23.481	-0.152	0.092
-199.319	4.261	-0.037	0.027
-198.304	-200.000	0.034	-0.248
-197.290	789.521	0.072	-0.199
-196.275	52.759	-0.211	-0.203
-195.260	16.847	-0.038	-0.030
-194.246	-52.912	0.126	0.058
-193.231	-44.338	0.241	0.121
-192.217	-96.036	0.307	-0.082
-191.202	-58.231	-0.124	0.054
-190.187	74.138	-0.055	-0.058
-189.173	347.283	-0.025	-0.050
-188.158	132.417	-0.229	-0.297
-187.144	519.661	-0.101	-0.237
-186.129	54.036	0.269	0.260
-185.114	456.340	-0.041	-0.091
-184.100	424.640	0.064	-0.137
-183.085	800.000	0.034	-0.104
-182.071	13.786	0.152	0.119
-181.056	55.324	-0.205	0.200
-180.042	-40.633	0.247	0.129
-179.027	53.004	-0.194	-0.187
-178.012	111.623	-0.081	0.098
-176.998	-104.169	0.097	-0.023
-175.983	800.000	0.097	-0.279
-174.969	-75.988	0.208	0.074
-173.954	-200.000	-0.001	0.192
-172.939	197.231	-0.160	-0.245
-171.925	-26.282	-0.092	-0.054
-170.910	-131.675	0.324	-0.043
-169.896	-49.938	0.287	-0.137
-168.881	-0.017	0.220	-0.157
-167.866	-86.944	0.211	-0.064
-166.852	385.283	-0.110	-0.228
-165.837	399.314	0.135	0.285
-164.823	800.000	-0.021	0.094
-163.808	-69.383	0.367	0.141
-162.793	409.783	-0.051	-0.108
-161.779	232.770	0.045	-0.074
-160.764	-36.353	0.246	-0.133
-159.750	772.725	-0.071	-0.193
-158.735	-200.000	0.008	0.063
-157.720	-27.556	-0.162	-0.095
-156.706	-107.639	-0.397	0.087
-155.691	464.585	0.056	0.126
-154.677	103.573	0.289	0.340
-153.662	-53.819	0.209	0.096
-152.647	-1.778	0.202	-0.143
-151.633	-200.000	-0.014	0.221
-150.618	800.000	-0.028	-0.088
-149.604	-131.310	-0.468	0.062
-148.589	800.000	0.044	0.151
-147.574	-148.580	-0.270	-0.022
-146.560	21.132	0.242	0.197
-145.545	-116.321	0.524	0.097
-144.531	20.378	0.079	-0.064
-143.516	-134.857	-0.240	-0.029
-142.502	214.803	0.044	0.070
-141.487	77.161	-0.090	-0.096
-140.472	-40.685	-0.148	0.077
-139.458	337.330	-0.104	0.203
-138.443	92.843	-0.168	0.190
-137.429	-200.000	-0.040	0.195
-136.414	-125.660	-0.160	0.024
-135.399	800.000	-0.089	0.285
-134.385	49.895	0.208	0.197
-133.370	331.600	-0.075	0.146
-132.356	-94.114	0.191	0.052
-131.341	200.816	0.043	0.066
-130.326	-106.526	-0.303	-0.068
-129.312	-79.749	0.315	-0.106
-128.297	-93.773	0.051	0.014
-127.283	207.335	0.085	0.133
-126.268	124.983	-0.101	0.128
-125.253	-200.000	-0.001	-0.071
-124.239	-200.000	0.086	-0.450
-123.224	57.666	-0.072	0.071
-122.210	23.222	-0.164	-0.135
-121.195	22.315	-0.168	0.137
-120.180	26.831	-0.146	-0.123
-119.166	-85.445	0.221	0.069
-118.151	-35.287	0.223	-0.122
-117.137	275.261	0.086	-0.153
-116.122	-42.594	-0.140	-0.072
-115.107	143.208	-0.057	-0.076
-114.093	-1.624	-0.095	-0.067
-113.078	312.438	0.147	0.277
-112.064	20.276	-0.176	-0.143
-111.049	246.647	-0.079	-0.134
-110.034	-33.011	0.048	-0.027
-109.020	-200.000	-0.102	-0.000
-108.005	-200.000	0.023	0.123
-106.991	-76.190	-0.496	0.175
-105.976	-31.633	-0.529	-0.297
-104.962	-143.977	0.398	0.038
-103.947	112.950	-0.308	0.374
-102.932	85.896	0.155	0.171
-101.918	4.968	-0.039	-0.029
-100.903	19.596	-0.042	-0.034
-99.889	-200.000	0.121	0.683
-98.874	-200.000	0.006	0.133
-97.859	205.327	0.078	0.121
-96.845	-200.000	0.016	0.203
-95.830	-159.381	0.301	0.017
-94.816	20.566	-0.158	0.128
-93.801	-107.120	0.125	0.028
-92.786	-44.391	-0.190	0.095
-91.772	44.884	-0.030	0.028
-90.757	50.469	-0.211	-0.199
-89.743	9.390	-0.147	0.111
-88.728	-96.288	0.133	-0.035
-87.713	-200.000	-0.022	0.147
-86.699	334.743	-0.062	0.120
-85.684	-101.644	-0.058	-0.014
-84.670	-45.908	-0.181	-0.089
-83.655	-19.192	0.400	0.249
-82.640	-90.552	0.209	-0.061
-81.626	-143.756	0.043	-0.004
-80.611	-39.624	-0.042	0.022
-79.597	17.182	-0.333	-0.264
-78.582	-19.540	0.065	-0.040
-77.567	-46.278	-0.291	0.143
-76.553	298.938	0.074	-0.137
-75.538	306.519	0.087	0.162
-74.524	267.486	0.230	-0.403
-73.509	800.000	0.104	0.303
-72.494	23.366	-0.223	0.183
-71.480	-86.332	0.138	-0.043
-70.465	-59.284	0.034	0.015
-69.451	-119.262	-0.187	0.033
-68.436	-200.000	-0.015	0.234
-67.422	470.395	0.099	0.222
-66.407	-128.912	-0.299	0.042
-65.392	-110.471	-0.199	-0.041
-64.378	154.928	0.095	0.131
-63.363	-136.216	-0.386	-0.045
-62.349	-106.099	-0.129	-0.029
-61.334	104.315	-0.654	-0.770
-60.319	-84.904	0.034	-0.011
-59.305	-200.000	-0.023	-0.861
-58.290	146.856	0.394	0.530
-57.276	-200.000	0.140	1.629
-56.261	-200.000	71.145	528.554
-55.246	606.931	1268.310	3161.391
-54.232	145.904	2494.725	3343.964
-53.217	115.154	2341.424	2857.442
-52.203	53.922	1961.257	1884.138
-51.188	47.652	1748.400	1630.512
-50.173	44.482	1701.950	1562.822
-49.159	58.132	1731.653	1695.746
-48.144	64.988	1750.674	1767.169
-47.130	47.373	1715.446	1597.375
-46.115	44.113	1701.615	1559.427
-45.100	43.859	1697.540	1553.686
-44.086	43.832	1694.985	1551.078
-43.071	43.786	1692.252	1548.158
-42.057	43.778	1689.771	1545.768
-41.042	43.838	1687.627	1544.204
-40.027	43.866	1686.220	1543.065
-39.013	43.892	1683.491	1540.708
-37.998	43.869	1681.715	1538.846
-36.984	43.954	1680.037	1537.892
-35.969	44.059	1678.703	1537.408
-34.954	44.082	1677.427	1536.357
-33.940	44.091	1675.163	1534.286
-32.925	44.035	1673.539	1532.319
-31.911	43.953	1672.229	1530.437
-30.896	44.041	1669.726	1528.749
-29.881	43.992	1668.337	1527.048
-28.867	43.942	1666.573	1524.992
-27.852	43.971	1665.437	1524.117
-26.838	44.046	1663.563	1522.902
-25.823	44.037	1662.450	1521.757
-24.809	44.117	1660.938	1520.907
-23.794	44.020	1659.451	1518.764
-22.779	44.054	1657.682	1517.337
-21.765	44.021	1656.358	1515.815
-20.750	44.134	1654.254	1514.678
-19.736	44.030	1653.266	1512.938
-18.721	44.055	1651.626	1511.560
-17.706	44.030	1649.555	1509.416
-16.692	43.974	1648.194	1507.701
-15.677	44.003	1646.584	1506.383
-14.663	43.971	1645.440	1505.038
-13.648	43.971	1644.383	1504.012
-12.633	44.065	1642.256	1502.703
-11.619	44.102	1640.667	1501.458
-10.604	44.043	1639.424	1499.830
-9.590	44.036	1638.329	1498.716
-8.575	44.023	1637.007	1497.349
-7.560	44.108	1635.580	1496.613
-6.546	44.031	1634.848	1495.315
-5.531	44.044	1633.757	1494.357
-4.517	44.064	1631.710	1492.573
-3.502	44.041	1631.219	1491.892
-2.487	44.125	1629.368	1490.757
-1.473	43.945	1618.323	1479.282
-0.458	41.485	1597.324	1442.274
0.556	36.188	1594.603	1400.365
1.571	32.840	1617.370	1395.520
2.586	31.872	1631.504	1400.366
3.600	27.975	1577.996	1326.102
4.615	15.330	1457.382	1139.297
5.629	3.464	1380.961	1002.674
6.644	1.236	1370.331	980.483
7.659	1.138	1368.188	978.233
8.673	1.128	1366.634	976.965
9.688	1.038	1365.353	975.387
10.702	0.696	1363.203	971.565
11.717	4.564	1371.321	1002.242
12.731	15.765	1392.346	1090.508
13.746	23.740	1405.589	1152.757
14.761	24.758	1406.458	1159.970
15.775	24.977	1406.011	1160.920
16.790	25.038	1405.791	1161.027
17.804	24.949	1405.327	1159.968
18.819	25.168	1404.919	1160.945
19.834	25.379	1403.792	1161.275
20.848	25.360	1402.977	1160.374
21.863	25.237	1402.256	1158.884
22.877	25.348	1401.212	1158.636
23.892	25.269	1400.990	1157.840
24.907	25.238	1399.963	1156.688
25.921	25.336	1398.946	1156.373
26.936	25.348	1397.508	1155.164
27.950	25.327	1396.485	1154.080
28.965	25.255	1395.269	1152.510
29.980	25.337	1393.792	1151.716
30.994	25.324	1392.716	1150.643
32.009	25.412	1391.536	1150.128
33.023	25.289	1390.573	1148.441
34.038	25.348	1389.429	1147.774
35.053	25.330	1388.524	1146.811
36.067	25.411	1387.279	1146.198
37.082	25.326	1386.609	1145.000
38.096	25.344	1385.746	1144.302
39.111	25.310	1384.908	1143.291
40.126	25.273	1384.221	1142.385
41.140	25.320	1383.366	1141.878
42.155	25.280	1383.367	1141.524
43.169	25.244	1383.374	1141.197
44.184	25.245	1382.912	1140.727
45.199	25.290	1382.825	1140.837
46.213	25.279	1382.112	1140.075
47.228	25.304	1380.903	1139.140
48.242	25.231	1380.180	1137.976
49.257	25.203	1378.543	1136.348
50.271	25.270	1376.794	1135.229
51.286	25.299	1375.833	1134.522
52.301	25.258	1374.464	1133.032
53.315	25.273	1373.313	1132.077
54.330	25.329	1372.606	1131.752
55.344	25.286	1371.528	1130.487
56.359	25.266	1370.167	1129.141
57.374	25.289	1369.710	1128.809
58.388	25.262	1369.134	1128.069
59.403	25.289	1368.709	1127.789
60.417	25.219	1368.272	1126.886
61.432	25.222	1367.134	1125.869
62.447	25.270	1366.366	1125.435
63.461	25.255	1365.081	1124.186
64.476	25.306	1364.391	1123.837
65.490	25.324	1363.118	1122.800
66.505	25.263	1361.446	1120.943
67.520	25.291	1360.129	1119.937
68.534	25.325	1358.924	1119.058
69.549	25.260	1358.544	1118.239
70.563	25.325	1357.434	1117.631
71.578	25.276	1356.787	1116.695
72.593	25.329	1355.688	1116.020
73.607	25.252	1354.909	1114.803
74.622	25.330	1353.964	1114.409
75.636	25.330	1353.104	1113.604
76.651	25.312	1352.865	1113.198
77.666	25.248	1352.617	1112.498
78.680	25.278	1351.770	1111.888
79.695	25.326	1351.061	1111.503
80.709	25.395	1350.041	1110.991
81.724	25.342	1349.065	1109.766
82.739	25.344	1347.879	1108.700
83.753	25.212	1347.575	1107.539
84.768	25.307	1346.157	1106.859
85.782	25.373	1344.897	1106.137
86.797	25.467	1343.891	1105.785
87.812	25.368	1342.790	1104.175
88.826	25.358	1341.611	1103.048
89.841	25.341	1340.786	1102.166
90.855	25.361	1339.794	1101.378
91.870	25.347	1339.046	1100.580
92.884	25.406	1338.044	1100.019
93.899	25.378	1337.572	1099.359
94.914	25.361	1336.435	1098.229
95.928	25.397	1336.000	1097.989
96.943	25.462	1335.058	1097.519
97.957	25.422	1334.151	1096.428
98.972	25.397	1333.414	1095.575
99.987	25.346	1332.752	1094.622
101.001	25.381	1331.267	1093.522
102.016	25.334	1330.675	1092.649
103.030	25.320	1329.836	1091.779
104.045	25.399	1328.887	1091.382
105.060	25.375	1328.232	1090.607
106.074	25.443	1326.540	1089.534
107.089	25.499	1325.849	1089.206
108.103	25.444	1324.727	1087.854
109.118	25.410	1323.874	1086.851
110.133	25.456	1322.931	1086.263
111.147	25.449	1321.011	1084.544
112.162	25.347	1320.827	1083.685
113.176	25.502	1318.872	1082.916
114.191	25.406	1318.429	1081.882
115.206	25.496	1317.304	1081.400
116.220	25.365	1316.587	1079.929
117.235	25.434	1315.658	1079.489
118.249	25.393	1314.742	1078.397
119.264	25.417	1313.554	1077.471
120.279	25.405	1313.146	1076.966
121.293	25.487	1312.143	1076.538
122.308	25.420	1311.554	1075.558
123.322	25.412	1310.646	1074.670
124.337	25.548	1309.869	1074.752
125.352	25.557	1308.993	1073.992
126.366	25.532	1308.046	1072.968
127.381	25.513	1307.044	1071.940
128.395	25.519	1306.472	1071.415
129.410	25.527	1305.371	1070.460
130.424	25.581	1304.819	1070.235
131.439	25.563	1303.901	1069.285
132.454	25.555	1303.049	1068.439
133.468	25.530	1302.647	1067.868
134.483	25.497	1302.214	1067.224
135.497	25.540	1301.205	1066.556
136.512	25.470	1300.188	1065.217
137.527	25.553	1298.731	1064.419
138.541	25.582	1297.865	1063.788
139.556	25.559	1296.511	1062.444
140.570	25.533	1295.546	1061.408
141.585	25.522	1294.879	1060.699
142.600	25.525	1293.957	1059.872
143.614	25.539	1292.552	1058.709
144.629	25.432	1291.740	1057.321
145.643	25.448	1290.779	1056.535
146.658	25.478	1289.597	1055.651
147.673	25.495	1288.511	1054.768
148.687	25.489	1287.517	1053.822
149.702	25.396	1286.526	1052.377
150.716	25.487	1284.801	1051.402
151.731	25.535	1284.339	1051.214
152.746	25.470	1283.414	1049.982
153.760	25.471	1282.399	1049.063
154.775	25.510	1281.336	1048.330
155.789	25.512	1280.238	1047.353
156.804	25.403	1279.617	1046.114
157.819	25.511	1278.291	1045.571
158.833	25.425	1277.832	1044.601
159.848	25.532	1276.975	1044.429
160.862	25.509	1276.407	1043.736
161.877	25.459	1275.981	1043.009
162.892	25.501	1274.871	1042.251
163.906	25.416	1274.140	1041.070
164.921	25.575	1272.954	1040.925
165.935	25.535	1272.543	1040.269
166.950	25.593	1271.922	1040.002
167.964	25.547	1271.108	1038.980
168.979	25.463	1270.835	1038.177
169.994	25.569	1270.016	1038.033
171.008	25.589	1269.289	1037.461
172.023	25.508	1268.510	1036.264
173.037	25.663	1267.709	1036.411
174.052	25.646	1267.011	1035.653
175.067	25.542	1266.506	1034.549
176.081	25.598	1265.435	1033.905
177.096	25.550	1264.776	1032.996
178.110	25.540	1263.612	1031.898
179.125	25.606	1262.699	1031.440
180.140	25.659	1261.603	1030.760
181.154	25.559	1260.625	1029.295
182.169	25.648	1259.405	1028.715
183.183	25.647	1258.370	1027.775
184.198	25.680	1257.469	1027.139
185.213	25.672	1256.570	1026.265
186.227	25.613	1255.818	1025.222
187.242	25.566	1255.167	1024.334
188.256	25.639	1254.188	1023.861
189.271	25.668	1253.033	1022.990
190.286	25.678	1252.476	1022.506
191.300	25.681	1252.235	1022.231
192.315	25.725	1250.992	1021.378
193.329	25.626	1250.965	1020.701
194.344	25.690	1250.550	1020.636
195.359	25.675	1249.908	1019.939
196.373	25.630	1249.446	1019.214
197.388	25.586	1249.359	1018.805
198.402	25.593	1248.969	1018.435
199.417	25.643	1248.338	1018.115
200.432	25.648	1247.495	1017.364
201.446	25.655	1246.832	1016.776
202.461	25.665	1246.217	1016.239
203.475	25.673	1245.520	1015.628
204.490	25.656	1244.568	1014.666
205.504	25.628	1243.501	1013.549
206.519	25.762	1242.554	1013.438
207.534	25.801	1241.152	1012.424
208.548	25.740	1240.712	1011.634
209.563	25.817	1239.502	1010.993
210.577	25.777	1238.947	1010.226
211.592	25.682	1238.176	1008.974
212.607	25.781	1237.464	1008.862
213.621	25.869	1236.623	1008.573
214.636	25.833	1235.765	1007.583
215.650	25.829	1234.972	1006.827
216.665	25.798	1233.761	1005.579
217.680	25.843	1233.027	1005.142
218.694	25.774	1232.314	1004.089
219.709	25.818	1231.853	1003.867
220.723	25.823	1230.807	1002.954
221.738	25.847	1230.080	1002.404
222.753	25.832	1229.476	1001.744
223.767	25.745	1229.311	1001.034
224.782	25.787	1228.789	1000.754
225.796	25.870	1228.253	1000.690
226.811	25.922	1227.419	1000.214
227.826	25.937	1226.732	999.646
228.840	25.961	1226.147	999.217
229.855	25.925	1225.328	998.260
230.869	25.925	1224.718	997.677
231.884	25.956	1223.737	996.957
232.899	25.803	1223.280	995.653
233.913	25.904	1223.018	995.910
234.928	26.070	1222.041	995.941
235.942	25.988	1221.420	994.894
236.957	25.908	1220.527	993.637
237.972	26.081	1220.348	994.359
238.986	25.861	1219.414	992.298
240.001	25.954	1219.295	992.627
241.015	26.107	1218.451	992.694
242.030	26.069	1217.529	991.643
243.045	26.134	1216.995	991.476
244.059	26.032	1215.649	989.736
245.074	26.123	1215.118	989.714
246.088	26.139	1214.353	989.090
247.103	25.980	1213.541	987.469
248.117	25.936	1213.130	986.810
249.132	26.066	1211.972	986.487
250.147	26.137	1211.578	986.471
251.161	26.071	1210.727	985.327
252.176	26.177	1209.736	985.012
253.190	26.108	1209.431	984.302
254.205	26.160	1208.487	983.727
255.220	26.105	1208.441	983.308
256.234	26.140	1207.624	982.745
257.249	26.190	1206.897	982.339
258.263	26.191	1206.063	981.575
259.278	26.201	1205.967	981.467
260.293	26.224	1205.492	981.117
261.307	26.214	1204.975	980.559
262.322	26.172	1204.148	979.569
263.336	26.261	1203.318	979.290
264.351	26.266	1202.590	978.636
265.366	26.186	1202.361	977.930
266.380	26.109	1201.837	977.003
267.395	26.266	1200.722	976.860
268.409	26.126	1200.231	975.615
269.424	26.234	1199.628	975.625
270.439	26.194	1199.205	974.976
271.453	26.147	1199.025	974.490
272.468	26.222	1197.519	973.582
273.482	26.099	1197.104	972.498
274.497	26.276	1196.668	973.013
275.512	26.220	1196.146	972.198
276.526	26.273	1195.259	971.678
277.541	26.256	1194.504	970.886
278.555	26.388	1193.670	970.833
279.570	26.293	1193.078	969.755
280.585	26.311	1192.714	969.466
281.599	26.256	1191.923	968.442
282.614	26.314	1191.007	967.926
283.628	26.366	1189.791	967.129
284.643	26.355	1189.032	966.368
285.657	26.307	1188.244	965.384
286.672	26.318	1187.458	964.719
287.687	26.472	1186.520	964.696
288.701	26.432	1186.047	964.011
289.716	26.357	1185.621	963.179
290.730	26.401	1184.741	962.615
291.745	26.485	1183.936	962.323
292.760	26.402	1183.408	961.368
293.774	26.485	1182.659	961.113
294.789	26.432	1182.293	960.450
295.803	26.500	1181.721	960.258
296.818	26.466	1181.170	959.547
297.833	26.390	1180.316	958.364
298.847	26.446	1179.253	957.717
299.862	26.493	1178.623	957.368
300.876	26.524	1178.133	957.051
301.891	26.558	1177.393	956.540
302.906	26.551	1177.101	956.183
303.920	26.653	1176.088	955.814
304.935	26.576	1175.514	954.855
305.949	26.426	1174.941	953.517
306.964	26.604	1174.059	953.652
307.979	26.662	1173.525	953.440
308.993	26.691	1172.771	952.894
310.008	26.698	1171.727	951.998
311.022	26.645	1171.435	951.403
312.037	26.649	1170.290	950.409
313.052	26.673	1169.327	949.668
314.066	26.663	1168.499	948.857
315.081	26.620	1168.062	948.196
316.095	26.715	1167.599	948.231
317.110	26.630	1167.600	947.706
318.125	26.727	1166.349	947.112
319.139	26.784	1165.708	946.806
320.154	26.716	1165.594	946.277
321.168	26.700	1164.924	945.561
322.183	26.628	1164.358	944.646
323.197	26.595	1163.726	943.877
324.212	26.685	1162.947	943.628
325.227	26.763	1162.447	943.544
326.241	26.847	1161.685	943.279
327.256	26.753	1161.109	942.244
328.270	26.678	1160.292	941.105
329.285	26.728	1159.228	940.420
330.300	26.728	1158.571	939.800
331.314	26.863	1157.770	939.768
332.329	26.972	1156.593	939.296
333.343	26.874	1156.258	938.432
334.358	26.834	1155.642	937.641
335.373	26.942	1154.724	937.371
336.387	26.974	1154.408	937.201
337.402	26.940	1153.583	936.269
338.416	26.949	1153.004	935.766
339.431	26.838	1152.579	934.766
340.446	26.907	1151.713	934.335
341.460	26.915	1151.346	933.994
342.475	26.955	1150.379	933.333
343.489	26.994	1149.675	932.880
344.504	26.958	1148.739	931.852
345.519	27.033	1147.821	931.411
346.533	27.017	1146.964	930.551
347.548	27.047	1146.200	930.004
348.562	27.060	1145.392	929.329
349.577	27.075	1144.922	928.944
350.592	26.949	1144.025	927.492
351.606	26.975	1143.427	927.058
352.621	27.043	1142.867	926.867
353.635	27.062	1142.247	926.380
354.650	27.012	1141.453	925.399
355.665	27.014	1140.882	924.864
356.679	27.117	1140.241	924.784
357.694	27.201	1139.793	924.770
358.708	27.159	1139.158	923.960
359.723	27.163	1138.513	923.372
360.738	27.051	1137.770	922.124
361.752	27.160	1137.208	922.138
362.767	27.158	1136.672	921.612
363.781	27.206	1136.099	921.305
364.796	27.267	1135.723	921.231
365.810	27.227	1135.045	920.394
366.825	27.214	1134.377	919.710
367.840	27.217	1133.849	919.214
368.854	27.325	1133.352	919.272
369.869	27.423	1132.486	918.986
370.883	27.271	1131.965	917.715
371.898	27.271	1131.327	917.116
372.913	27.260	1130.510	916.317
373.927	27.333	1130.026	916.214
374.942	27.370	1129.700	916.053
375.956	27.425	1129.096	915.760
376.971	27.397	1128.607	915.137
377.986	27.424	1127.647	914.415
379.000	27.429	1127.292	914.070
380.015	27.386	1126.660	913.265
381.029	27.473	1126.189	913.238
382.044	27.405	1125.445	912.213
383.059	27.493	1124.648	911.924
384.073	27.537	1123.986	911.528
385.088	27.473	1122.783	910.151
386.102	27.533	1122.261	909.948
387.117	27.396	1121.564	908.621
388.132	27.368	1120.796	907.778
389.146	27.432	1120.227	907.552
390.161	27.588	1119.224	907.440
391.175	27.565	1118.624	906.759
392.190	27.447	1118.472	905.965
393.205	27.429	1118.053	905.458
394.219	27.472	1116.982	904.722
395.234	27.593	1116.096	904.528
396.248	27.549	1115.178	903.482
397.263	27.662	1113.936	902.956
398.278	27.671	1113.680	902.713
399.292	27.678	1113.105	902.205
400.307	27.758	1112.305	901.870
401.321	27.738	1111.724	901.223
402.336	27.629	1111.342	900.294
403.350	27.651	1110.521	899.655
404.365	27.675	1110.087	899.346
405.380	27.802	1109.146	899.125
406.394	27.740	1108.401	898.140
407.409	27.712	1107.605	897.276
408.423	27.725	1107.051	896.813
409.438	27.842	1106.486	896.852
410.453	27.837	1105.646	896.067
411.467	27.829	1104.778	895.246
412.482	27.802	1104.320	894.662
413.496	27.763	1103.523	893.747
414.511	27.768	1103.443	893.628
415.526	27.868	1102.803	893.517
416.540	27.945	1102.054	893.210
417.555	27.840	1101.812	892.420
418.569	27.869	1101.041	891.861
419.584	27.832	1100.855	891.450
420.599	27.914	1100.125	891.178
421.613	75.606	1276.976	1295.847
422.628	70.821	1302.775	1295.999
