DTS Sentinel unit serial number:	SN413079Multiplexer serial number:	ORYXHardware model number:	OX4-SRSoftware version number:	ORYX F/W v4.00 Oryx Data Collector v3.7.2.0data status	okinstallation	princeton_trtdifferential loss correction	single-endedforward channel	channel 2reverse channel	N/Adate	2019/09/12time	19:30:49forward acquisition time	15.00reverse acquisition time	0.00gamma	496.2192k internal	0.2326k external	0.2326temperature offset calibration	1.0149default loss term (dB/km)	0.3790temperature slope calibration	1.0000multiplexer offset coefficient	1.0000multiplexer slope coefficient	1.0000fibre end	0.00T internal ref (°C)	32.25T ext. ref 1 (°C)	3.27T ext. ref 2 (°C)	26.76length (m)	temperature (°C)	Stokes	anti-Stokes-747.200	-95.896	-1.199	0.322
-746.185	63.417	-0.835	0.844
-745.171	-200.000	-0.069	0.355
-744.156	-161.138	-0.401	-0.021
-743.142	-84.957	-0.522	-0.165
-742.127	-200.000	-0.042	0.270
-741.112	27.854	0.152	-0.129
-740.098	286.106	0.332	-0.604
-739.083	703.871	-0.103	0.273
-738.069	-200.000	-0.033	0.470
-737.054	-57.854	0.534	-0.235
-736.039	800.000	-0.012	-0.033
-735.025	147.286	-0.904	1.226
-734.010	800.000	0.032	0.139
-732.996	-76.096	-0.523	-0.186
-731.981	-166.074	-0.255	-0.011
-730.966	-108.066	-0.375	-0.082
-729.952	-121.675	-0.213	0.036
-728.937	121.896	-0.588	0.739
-727.923	800.000	0.127	0.511
-726.908	-18.080	-0.970	-0.612
-725.894	52.967	0.324	-0.312
-724.879	800.000	0.081	-0.287
-723.864	-59.837	0.237	0.102
-722.850	-137.156	0.296	-0.034
-721.835	271.305	-0.184	0.326
-720.821	-12.100	-0.401	0.264
-719.806	64.530	0.575	-0.583
-718.791	-89.793	-0.353	0.104
-717.777	241.262	-0.320	-0.538
-716.762	-5.853	-0.333	-0.229
-715.748	191.274	-0.542	0.822
-714.733	-86.125	-0.680	-0.211
-713.718	-105.703	0.855	0.195
-712.704	1.319	0.594	-0.430
-711.689	105.750	0.112	-0.134
-710.675	757.409	-0.108	-0.294
-709.660	-136.893	0.635	0.073
-708.645	179.477	-0.359	0.530
-707.631	800.000	0.109	-0.356
-706.616	800.000	0.029	-0.099
-705.602	-67.182	0.519	-0.206
-704.587	355.088	-0.192	0.384
-703.572	167.588	-0.424	0.606
-702.558	800.000	0.126	-0.409
-701.543	-112.461	-0.667	-0.134
-700.529	261.792	-0.344	-0.601
-699.514	-119.509	-0.579	-0.101
-698.499	-64.070	-0.849	0.349
-697.485	41.677	-0.435	0.397
-696.470	-200.000	-0.023	-0.589
-695.456	800.000	-0.058	0.165
-694.441	627.867	-0.136	-0.345
-693.426	366.141	0.265	0.537
-692.412	220.820	0.304	-0.491
-691.397	-200.000	0.024	0.635
-690.383	800.000	0.187	-0.764
-689.368	-107.147	0.736	0.163
-688.354	-105.208	0.363	0.083
-687.339	2.455	0.839	0.611
-686.324	4.199	0.460	0.339
-685.310	-200.000	0.058	-0.502
-684.295	267.584	-0.278	0.490
-683.281	374.179	-0.207	0.424
-682.266	196.945	-0.279	0.428
-681.251	-39.107	-0.614	0.325
-680.237	800.000	-0.148	0.456
-679.222	-55.172	0.413	-0.187
-678.208	-13.310	-0.475	-0.310
-677.193	-200.000	-0.015	0.169
-676.178	800.000	-0.221	-0.664
-675.164	-76.837	-0.672	-0.236
-674.149	-146.992	0.388	0.033
-673.135	60.965	-0.135	-0.135
-672.120	-101.917	-0.900	0.219
-671.105	65.300	-0.250	0.254
-670.091	389.762	-0.190	0.396
-669.076	412.757	-0.261	0.558
-668.062	800.000	0.096	-0.356
-667.047	-99.329	-0.266	0.068
-666.032	-52.472	0.540	-0.251
-665.018	-83.489	-0.678	0.218
-664.003	-200.000	-0.099	-0.446
-662.989	-200.000	0.212	-1.285
-661.974	400.229	0.389	-0.820
-660.959	-112.890	-0.612	0.122
-659.945	800.000	0.089	-0.392
-658.930	-200.000	-0.062	0.483
-657.916	-140.116	0.134	0.014
-656.901	163.106	-0.397	-0.560
-655.886	198.486	-0.098	-0.151
-654.872	315.184	0.207	-0.393
-653.857	-59.975	-0.601	-0.258
-652.843	258.937	0.167	-0.290
-651.828	75.223	0.264	0.280
-650.814	-14.563	0.336	-0.217
-649.799	-107.549	0.176	0.039
-648.784	-83.368	-0.435	-0.140
-647.770	277.307	0.353	-0.630
-646.755	145.732	0.370	0.498
-645.741	-50.829	0.581	0.275
-644.726	7.975	0.465	0.350
-643.711	593.180	0.065	-0.162
-642.697	31.357	-0.655	-0.565
-641.682	237.716	-0.386	-0.644
-640.668	445.390	0.334	0.738
-639.653	37.072	-0.210	-0.187
-638.638	-200.000	0.564	-0.002
-637.624	-56.620	0.213	-0.095
-636.609	150.753	-0.576	-0.787
-635.595	-155.453	0.593	-0.039
-634.580	255.475	-0.234	-0.403
-633.565	78.458	0.350	-0.376
-632.551	91.691	0.449	-0.507
-631.536	-43.261	-0.384	0.195
-630.522	-142.813	0.583	0.057
-629.507	-200.000	0.108	1.019
-628.492	-74.568	0.511	0.185
-627.478	297.861	-0.158	-0.291
-626.463	156.137	0.441	0.611
-625.449	-21.885	-0.311	-0.190
-624.434	800.000	-0.187	-0.622
-623.419	800.000	-0.130	0.391
-622.405	-87.609	0.660	0.200
-621.390	138.446	-0.171	0.226
-620.376	-53.499	0.543	-0.249
-619.361	-200.000	-0.081	0.580
-618.346	-141.846	-1.268	0.127
-617.332	-200.000	-0.003	-0.573
-616.317	-83.969	0.577	-0.184
-615.303	-127.988	-0.585	-0.084
-614.288	-101.021	-0.320	-0.079
-613.273	-98.151	-0.224	0.058
-612.259	-200.000	-0.118	-0.583
-611.244	85.717	0.565	-0.623
-610.230	150.338	0.346	-0.471
-609.215	104.236	0.489	-0.577
-608.201	800.000	0.114	0.357
-607.186	-51.898	-0.335	-0.156
-606.171	8.491	-0.229	-0.173
-605.157	309.796	0.185	0.347
-604.142	-143.490	-0.818	-0.078
-603.128	-97.069	-0.275	0.072
-602.113	486.885	-0.229	-0.524
-601.098	104.824	-0.526	-0.622
-600.084	-165.707	-0.604	0.026
-599.069	-200.000	-0.021	-0.256
-598.055	-139.170	-0.640	0.069
-597.040	320.007	0.064	-0.121
-596.025	495.238	-0.154	-0.355
-595.011	-56.269	-0.352	-0.157
-593.996	61.384	0.568	-0.566
-592.982	-200.000	0.111	0.000
-591.967	-33.324	0.456	0.253
-590.952	800.000	-0.177	-0.637
-589.938	-200.000	0.059	0.382
-588.923	3.858	0.618	0.452
-587.909	-14.434	0.231	-0.149
-586.894	28.710	0.582	0.494
-585.879	-76.420	-0.697	-0.246
-584.865	-200.000	-0.036	-0.455
-583.850	-68.806	-0.184	-0.071
-582.836	82.044	-0.413	-0.449
-581.821	557.321	0.254	-0.613
-580.806	42.511	0.506	-0.461
-579.792	357.797	-0.180	0.359
-578.777	514.899	-0.176	-0.411
-577.763	-78.845	0.398	0.136
-576.748	-148.869	-0.518	-0.042
-575.733	132.523	0.191	-0.247
-574.719	-105.691	-1.282	0.291
-573.704	-65.833	0.244	-0.098
-572.690	-1.619	-0.681	-0.481
-571.675	-4.072	-0.193	-0.134
-570.661	-200.000	-0.046	0.549
-569.646	-179.377	0.529	0.012
-568.631	-30.506	-0.307	-0.174
-567.617	-124.405	-0.866	-0.135
-566.602	-50.683	-0.156	0.073
-565.588	-200.000	-0.036	-1.061
-564.573	-11.439	-0.922	-0.607
-563.558	291.204	0.154	0.281
-562.544	82.537	0.297	0.323
-561.529	-200.000	-0.007	-0.559
-560.515	186.659	0.518	0.773
-559.500	-35.901	-0.778	0.421
-558.485	203.626	0.498	0.772
-557.471	-91.387	0.787	-0.225
-556.456	625.190	0.509	1.285
-555.442	410.901	0.416	0.883
-554.427	-200.000	-0.045	0.746
-553.412	-22.329	-0.519	0.315
-552.398	-5.884	0.838	-0.574
-551.383	-74.060	0.285	0.103
-550.369	377.670	0.127	0.260
-549.354	-61.793	0.537	0.225
-548.339	49.189	-0.357	-0.336
-547.325	671.387	0.330	0.855
-546.310	-68.500	-0.161	0.062
-545.296	37.285	-0.263	0.233
-544.281	-138.672	0.205	-0.022
-543.266	48.094	0.382	0.358
-542.252	1.282	0.260	0.187
-541.237	-133.667	-0.586	0.073
-540.223	-58.113	-0.556	-0.242
-539.208	-64.300	0.230	0.094
-538.193	797.085	0.061	-0.169
-537.179	-107.182	-0.661	-0.146
-536.164	331.236	0.166	0.320
-535.150	-101.777	0.423	0.102
-534.135	134.395	0.493	-0.639
-533.121	800.000	-0.038	-0.118
-532.106	123.731	0.082	0.103
-531.091	65.332	0.874	0.884
-530.077	125.662	0.186	-0.235
-529.062	-178.957	-0.529	-0.012
-528.048	429.547	-0.115	0.248
-527.033	-200.000	0.033	-0.240
-526.018	800.000	-0.300	-0.937
-525.004	152.307	-0.301	-0.411
-523.989	63.171	-0.295	-0.296
-522.975	-20.228	0.575	0.354
-521.960	-200.000	-0.060	0.402
-520.945	189.129	0.273	0.408
-519.931	32.075	0.095	0.082
-518.916	167.363	0.267	-0.380
-517.902	-126.418	-0.457	-0.068
-516.887	-139.591	0.392	0.042
-515.872	-200.000	-0.034	0.363
-514.858	-173.625	0.182	0.005
-513.843	-200.000	0.046	0.203
-512.829	-121.028	0.607	-0.102
-511.814	105.195	0.304	-0.358
-510.799	194.688	0.152	-0.231
-509.785	-200.000	0.007	0.268
-508.770	-143.818	1.382	0.130
-507.756	-30.152	-0.276	-0.157
-506.741	-41.638	-0.627	0.322
-505.726	3.714	-0.416	-0.303
-504.712	-200.000	-0.082	-0.646
-503.697	-108.575	0.290	-0.062
-502.683	18.200	0.659	-0.525
-501.668	-56.374	-0.506	0.224
-500.653	-99.338	-0.346	-0.087
-499.639	282.712	0.011	0.020
-498.624	-4.981	0.587	-0.404
-497.610	800.000	-0.227	0.904
-496.595	291.684	0.129	-0.234
-495.581	-200.000	-0.048	0.276
-494.566	-8.484	-0.694	0.466
-493.551	414.742	0.064	-0.136
-492.537	311.214	0.026	0.048
-491.522	-54.734	-0.081	0.037
-490.508	314.347	-0.210	0.394
-489.493	18.831	0.563	-0.450
-488.478	-200.000	0.105	-0.796
-487.464	296.624	0.173	-0.317
-486.449	-200.000	-0.364	0.002
-485.435	-200.000	-0.021	-0.092
-484.420	-42.952	0.624	0.316
-483.405	99.420	-0.685	-0.791
-482.391	-200.000	0.117	0.592
-481.376	165.905	-0.507	-0.715
-480.362	4.388	-0.804	-0.588
-479.347	-16.357	1.019	-0.646
-478.332	32.223	-0.402	0.346
-477.318	771.964	-0.037	0.101
-476.303	800.000	0.225	0.823
-475.289	-13.579	0.621	0.401
-474.274	-200.000	-0.014	-0.258
-473.259	54.451	-0.338	-0.325
-472.245	-200.000	-0.071	0.518
-471.230	-189.837	0.771	0.009
-470.216	-200.000	-0.146	-1.044
-469.201	-200.000	-0.044	0.393
-468.186	12.506	0.486	-0.374
-467.172	800.000	0.133	-0.537
-466.157	-121.613	0.332	0.055
-465.143	-33.355	0.428	-0.236
-464.128	-18.553	-0.732	-0.456
-463.113	800.000	-0.202	0.600
-462.099	-20.398	-0.420	0.258
-461.084	210.983	-0.061	0.096
-460.070	-48.874	0.380	-0.182
-459.055	49.969	0.774	-0.728
-458.040	-61.925	-0.374	-0.156
-457.026	800.000	0.066	0.218
-456.011	-4.835	0.620	0.426
-454.997	93.458	-0.349	0.394
-453.982	153.527	0.140	0.192
-452.968	-15.228	0.343	0.219
-451.953	-112.464	0.731	0.146
-450.938	-62.418	0.525	0.218
-449.924	-6.111	0.289	0.197
-448.909	1.484	0.225	-0.161
-447.895	800.000	0.057	-0.208
-446.880	64.940	0.125	0.125
-445.865	259.737	-0.311	-0.535
-444.851	-20.878	-0.555	-0.339
-443.836	193.359	-0.198	0.299
-442.822	-200.000	-0.190	0.954
-441.807	82.050	0.317	-0.343
-440.792	-135.217	0.819	0.098
-439.778	-32.325	0.376	-0.209
-438.763	-174.448	0.929	-0.027
-437.749	800.000	-0.190	0.534
-436.734	800.000	0.139	0.422
-435.719	755.677	0.042	0.114
-434.705	-48.077	-0.968	0.466
-433.690	-79.632	0.936	0.315
-432.676	699.129	0.169	-0.443
-431.661	800.000	0.178	0.606
-430.646	800.000	-0.284	1.036
-429.632	-109.681	-0.033	-0.007
-428.617	786.788	0.055	0.151
-427.603	-25.168	0.547	-0.323
-426.588	-76.003	0.120	0.042
-425.573	326.700	0.171	-0.327
-424.559	800.000	0.193	0.592
-423.544	800.000	-0.156	0.433
-422.530	-200.000	-0.021	-0.971
-421.515	345.564	0.129	-0.253
-420.500	800.000	0.056	-0.231
-419.486	800.000	0.076	-0.298
-418.471	404.900	-0.092	0.193
-417.457	-115.129	-0.705	-0.133
-416.442	-2.408	0.587	0.409
-415.428	92.204	0.325	-0.365
-414.413	-87.047	0.049	0.015
-413.398	-107.439	-0.399	0.087
-412.384	-33.247	0.374	-0.206
-411.369	-188.118	-0.518	-0.007
-410.355	-200.000	0.165	-0.750
-409.340	800.000	-0.262	-0.790
-408.325	-92.895	0.324	-0.090
-407.311	-12.271	-0.508	-0.330
-406.296	537.402	0.253	0.598
-405.282	-85.955	-0.784	-0.241
-404.267	-122.493	-0.496	0.080
-403.252	150.230	0.164	0.221
-402.238	-66.228	0.297	-0.118
-401.223	-96.628	-0.481	0.126
-400.209	-82.197	0.862	0.280
-399.194	800.000	-0.182	-0.591
-398.179	-15.591	0.060	0.038
-397.165	205.136	-0.360	-0.556
-396.150	170.975	-0.623	0.889
-395.136	-109.473	0.557	-0.117
-394.121	-200.000	-0.004	-0.908
-393.106	-78.039	-0.031	0.011
-392.092	-42.859	0.502	-0.254
-391.077	194.828	0.113	0.170
-390.063	-200.000	-0.025	0.115
-389.048	214.762	0.410	-0.646
-388.033	-35.690	0.371	0.200
-387.019	-80.901	0.260	-0.086
-386.004	800.000	-0.093	0.330
-384.990	-19.290	-0.707	0.436
-383.975	223.148	0.177	-0.284
-382.960	2.488	-0.685	0.493
-381.946	384.706	0.155	0.318
-380.931	37.607	0.153	-0.135
-379.917	-44.760	-0.726	-0.360
-378.902	64.440	-0.164	-0.164
-377.888	-200.000	-0.093	0.539
-376.873	-98.326	-0.665	0.169
-375.858	-93.821	0.958	0.262
-374.844	262.210	0.222	0.383
-373.829	-176.019	-0.853	0.022
-372.815	800.000	0.132	0.444
-371.800	184.171	-0.204	-0.299
-370.785	305.062	-0.369	0.681
-369.771	-24.207	0.068	0.040
-368.756	27.587	-0.291	0.244
-367.742	800.000	-0.064	0.198
-366.727	-121.837	-0.350	-0.057
-365.712	-136.185	-0.417	-0.048
-364.698	-19.852	-0.545	0.334
-363.683	-76.773	0.685	-0.238
-362.669	92.232	-0.293	-0.328
-361.654	672.259	0.257	0.662
-360.639	800.000	-0.092	0.299
-359.625	-157.086	0.155	0.009
-358.610	-34.232	-1.065	0.581
-357.596	211.857	-0.196	-0.306
-356.581	43.169	-0.666	0.603
-355.566	800.000	-0.256	0.832
-354.552	800.000	0.094	-0.274
-353.537	-82.044	-0.334	0.108
-352.523	-200.000	-0.010	-0.461
-351.508	-143.220	-0.202	0.019
-350.493	82.771	-0.470	0.507
-349.479	633.565	-0.169	0.425
-348.464	-56.397	0.928	-0.409
-347.450	-20.379	-0.522	-0.319
-346.435	-200.000	0.080	0.592
-345.420	369.026	-0.226	-0.455
-344.406	-5.588	-0.526	0.358
-343.391	-72.702	-0.334	-0.122
-342.377	-14.423	-0.906	-0.579
-341.362	274.083	-0.353	0.620
-340.348	106.943	0.557	-0.657
-339.333	19.868	-0.425	0.340
-338.318	-139.391	0.929	0.099
-337.304	800.000	-0.190	-0.756
-336.289	-55.766	-0.305	0.136
-335.275	46.779	0.359	-0.331
-334.260	-200.000	0.079	0.421
-333.245	42.485	0.275	-0.249
-332.231	-200.000	-0.069	0.385
-331.216	-90.895	-0.520	-0.149
-330.202	-102.693	-0.470	0.111
-329.187	-25.916	-0.577	-0.337
-328.172	-79.868	0.175	-0.058
-327.158	-4.494	0.224	-0.154
-326.143	509.554	0.181	0.417
-325.129	-200.000	-0.053	0.332
-324.114	-53.524	0.644	0.292
-323.099	84.928	0.173	0.188
-322.085	59.465	0.510	-0.499
-321.070	4.944	0.293	-0.214
-320.056	-200.000	-0.086	-0.881
-319.041	-21.966	-0.986	-0.594
-318.026	12.053	0.433	0.331
-317.012	-200.000	0.015	0.316
-315.997	-122.482	-0.842	-0.136
-314.983	46.708	-0.325	0.300
-313.968	57.558	0.069	-0.066
-312.953	323.675	-0.290	-0.548
-311.939	19.088	-0.560	-0.446
-310.924	-174.992	0.486	-0.013
-309.910	641.554	0.225	-0.569
-308.895	-200.000	-0.076	0.391
-307.880	-148.198	-0.913	0.075
-306.866	-91.125	-0.690	-0.196
-305.851	16.825	-0.603	-0.473
-304.837	-78.260	-0.110	0.037
-303.822	-141.487	-0.148	-0.015
-302.807	196.530	-0.370	0.558
-301.793	-22.433	0.090	0.054
-300.778	-136.786	0.485	-0.055
-299.764	373.131	-0.151	0.304
-298.749	-136.379	0.601	-0.069
-297.735	34.319	-0.303	0.262
-296.720	-117.285	0.951	-0.171
-295.705	81.331	0.772	0.827
-294.691	-109.057	0.395	-0.083
-293.676	-90.227	-0.398	0.115
-292.662	24.892	0.434	0.357
-291.647	-86.182	-0.210	0.064
-290.632	118.754	0.128	-0.156
-289.618	800.000	-0.221	-0.746
-288.603	-111.678	0.676	-0.136
-287.589	503.744	-0.212	-0.487
-286.574	25.836	0.518	0.428
-285.559	76.307	0.440	0.461
-284.545	-136.136	0.508	-0.059
-283.530	42.558	0.124	0.111
-282.516	7.274	-0.551	0.408
-281.501	5.182	0.507	0.370
-280.486	307.227	0.149	-0.275
-279.472	403.009	0.044	-0.092
-278.457	155.872	-0.354	-0.483
-277.443	428.901	-0.169	0.362
-276.428	-140.993	-0.405	0.041
-275.413	115.684	0.427	-0.516
-274.399	-200.000	-0.072	-0.325
-273.384	-119.752	0.795	0.136
-272.370	83.941	-0.486	0.525
-271.355	124.079	-0.203	0.252
-270.340	-200.000	-0.046	-0.203
-269.326	26.631	0.334	0.277
-268.311	17.984	-0.419	0.330
-267.297	-200.000	0.009	0.663
-266.282	25.077	0.339	0.279
-265.267	-40.940	0.540	-0.276
-264.253	-19.864	-0.716	0.438
-263.238	143.089	0.108	0.143
-262.224	-21.992	0.579	-0.348
-261.209	602.138	-0.213	0.523
-260.195	445.794	-0.393	0.854
-259.180	-62.915	0.298	-0.122
-258.165	337.663	0.082	0.157
-257.151	800.000	-0.140	-0.513
-256.136	-101.841	-0.433	0.104
-255.122	92.361	-0.295	0.329
-254.107	-9.299	-0.470	0.311
-253.092	70.408	0.302	-0.309
-252.078	-67.996	0.199	-0.077
-251.063	-77.414	-0.321	-0.110
-250.049	780.805	-0.405	-1.095
-249.034	-105.528	0.859	0.193
-248.019	800.000	0.112	-0.460
-247.005	77.646	0.268	-0.282
-245.990	800.000	-0.223	0.622
-244.976	-200.000	-0.015	-0.149
-243.961	-86.951	-0.378	0.114
-242.946	311.923	-0.345	-0.641
-241.932	-99.385	1.084	-0.270
-240.917	-66.159	0.492	0.194
-239.903	769.496	-0.235	-0.633
-238.888	-45.764	-0.105	-0.051
-237.873	-97.916	-0.892	0.228
-236.859	290.378	-0.429	-0.769
-235.844	-200.000	0.071	-0.529
-234.830	-155.650	0.322	-0.020
-233.815	80.092	-0.709	-0.753
-232.800	2.968	-0.252	-0.181
-231.786	-70.986	-0.727	-0.270
-230.771	-53.779	-0.031	0.014
-229.757	84.044	0.462	-0.499
-228.742	135.943	-0.261	0.336
-227.727	216.696	-0.304	0.478
-226.713	160.674	-0.718	0.991
-225.698	388.348	0.486	0.994
-224.684	-56.379	0.127	0.056
-223.669	-108.605	0.799	-0.170
-222.655	-200.000	-0.010	-0.101
-221.640	-200.000	0.022	0.160
-220.625	19.028	-0.307	-0.243
-219.611	43.018	-0.472	-0.426
-218.596	800.000	-0.098	0.363
-217.582	98.760	-0.089	0.102
-216.567	71.552	0.631	-0.647
-215.552	38.197	0.397	0.349
-214.538	-200.000	-0.019	-0.507
-213.523	-97.764	-0.976	0.249
-212.509	40.341	0.116	0.103
-211.494	41.547	0.407	0.364
-210.479	800.000	-0.053	-0.199
-209.465	-184.780	-0.526	0.008
-208.450	-121.535	0.070	-0.012
-207.436	-111.377	-0.362	-0.073
-206.421	800.000	0.292	-1.043
-205.406	800.000	-0.182	0.545
-204.392	-200.000	-0.082	-0.493
-203.377	82.076	-0.293	0.314
-202.363	-13.540	-0.292	0.187
-201.348	-200.000	0.108	0.876
-200.333	-57.649	-0.916	-0.396
-199.319	-144.644	-0.067	0.006
-198.304	40.865	0.812	0.723
-197.290	68.975	-0.242	-0.246
-196.275	224.507	0.194	0.309
-195.260	800.000	0.163	-0.701
-194.246	155.195	-0.014	0.019
-193.231	-200.000	-0.064	-0.456
-192.217	-8.517	-0.412	0.273
-191.202	-200.000	0.078	-0.780
-190.187	-78.128	0.261	-0.089
-189.173	40.067	0.290	-0.257
-188.158	-28.177	-0.729	0.416
-187.144	-200.000	0.014	0.485
-186.129	-150.600	-0.637	0.048
-185.114	117.548	0.232	0.282
-184.100	-200.000	0.086	0.806
-183.085	502.800	0.103	-0.234
-182.071	-55.983	0.896	-0.394
-181.056	215.871	0.625	0.979
-180.042	-142.943	0.441	0.042
-179.027	-200.000	0.109	0.506
-178.012	-96.065	-0.283	0.074
-176.998	-123.520	-0.332	-0.052
-175.983	800.000	-0.185	-0.600
-174.969	800.000	-0.093	-0.378
-173.954	-127.014	-0.912	0.132
-172.939	723.393	0.124	0.326
-171.925	-200.000	-0.034	-0.376
-170.910	-200.000	0.099	-0.446
-169.896	-200.000	0.056	0.581
-168.881	51.137	0.248	0.232
-167.866	-200.000	0.125	0.539
-166.852	-13.577	0.135	-0.086
-165.837	-62.866	0.332	0.135
-164.823	-132.189	0.462	0.059
-163.808	-128.432	-0.437	0.061
-162.793	1.191	-0.139	-0.098
-161.779	-63.701	-0.538	0.217
-160.764	133.403	0.241	-0.307
-159.750	-49.708	0.610	-0.286
-158.735	20.813	0.309	-0.246
-157.720	-200.000	-0.005	0.426
-156.706	800.000	-0.264	-0.790
-155.691	-81.872	0.686	0.221
-154.677	117.790	-0.348	0.422
-153.662	-200.000	-0.185	1.049
-152.647	-180.034	0.403	-0.008
-151.633	-91.294	0.495	0.140
-150.618	62.334	0.282	-0.277
-149.604	-200.000	0.122	-0.536
-148.589	126.005	0.444	-0.553
-147.574	121.311	0.084	-0.103
-146.560	-200.000	-0.064	0.678
-145.545	120.258	-0.359	0.439
-144.531	287.007	-0.292	-0.519
-143.516	800.000	-0.387	-1.180
-142.502	711.857	-0.174	-0.454
-141.487	800.000	-0.156	-0.618
-140.472	12.228	0.624	0.473
-139.458	-14.869	0.786	0.497
-138.443	-145.449	0.752	-0.067
-137.429	-200.000	-0.093	-0.427
-136.414	32.724	0.360	0.307
-135.399	-200.000	-0.055	-0.730
-134.385	-175.469	0.379	0.010
-133.370	310.928	0.033	0.060
-132.356	65.917	-0.464	0.463
-131.341	94.007	-0.302	-0.338
-130.326	-200.000	-0.017	-0.414
-129.312	45.488	0.260	0.236
-128.297	-56.354	0.712	0.311
-127.283	-0.602	0.526	-0.367
-126.268	-200.000	0.053	0.611
-125.253	-2.914	-0.299	-0.206
-124.239	800.000	0.152	0.531
-123.224	-200.000	0.026	-0.244
-122.210	-7.401	0.215	0.144
-121.195	800.000	0.111	-0.341
-120.180	213.433	0.166	0.258
-119.166	-138.996	0.739	0.079
-118.151	-124.371	-0.486	0.075
-117.137	-200.000	0.015	0.565
-116.122	-200.000	0.016	-0.216
-115.107	-35.133	0.204	-0.110
-114.093	51.232	-0.370	-0.346
-113.078	-30.847	0.453	0.252
-112.064	-21.363	0.074	-0.045
-111.049	-93.367	-0.614	-0.167
-110.034	92.007	-0.515	0.570
-109.020	-83.585	1.003	0.315
-108.005	-149.456	-0.586	0.046
-106.991	240.400	-0.304	-0.499
-105.976	-200.000	-0.061	1.191
-104.962	-77.062	0.519	0.178
-103.947	29.778	-0.666	-0.557
-102.932	111.092	0.314	-0.372
-101.918	63.081	0.314	-0.310
-100.903	-69.450	0.928	-0.350
-99.889	679.145	-0.168	0.429
-98.874	-200.000	-0.050	0.495
-97.859	108.009	-0.627	-0.735
-96.845	-200.000	0.030	-0.271
-95.830	-70.442	0.445	0.166
-94.816	800.000	0.178	0.492
-93.801	-17.190	-0.596	-0.369
-92.786	72.840	-0.452	-0.464
-91.772	-139.625	0.619	-0.065
-90.757	-36.489	-0.384	-0.203
-89.743	-30.221	-0.416	0.232
-88.728	800.000	-0.079	0.302
-87.713	800.000	0.125	0.349
-86.699	-46.506	0.419	0.202
-85.684	-47.335	-0.444	0.212
-84.670	-14.109	-0.529	0.335
-83.655	-57.027	0.654	-0.284
-82.640	134.638	0.151	-0.193
-81.626	262.833	-0.463	0.790
-80.611	114.226	-0.306	-0.366
-79.597	-115.000	0.503	0.094
-78.582	31.790	0.563	0.476
-77.567	-200.000	0.086	0.496
-76.553	-59.407	-0.749	0.316
-75.538	-152.705	0.514	0.036
-74.524	164.545	0.201	-0.279
-73.509	203.747	-0.129	-0.196
-72.494	-107.530	-0.338	0.073
-71.480	782.857	-0.114	-0.308
-70.465	800.000	-0.271	-0.793
-69.451	-200.000	0.034	0.645
-68.436	294.512	-0.247	0.443
-67.422	800.000	-0.190	-0.723
-66.407	-200.000	-0.072	0.744
-65.392	-200.000	-0.040	-0.323
-64.378	39.364	0.380	-0.334
-63.363	674.889	-0.144	0.366
-62.349	-12.787	1.194	0.764
-61.334	-26.888	-1.249	-0.716
-60.319	18.821	-0.256	0.201
-59.305	-1.952	-0.736	-0.508
-58.290	764.278	0.574	1.530
-57.276	-36.417	1.217	0.643
-56.261	-200.000	95.243	592.406
-55.246	675.535	1352.913	3448.945
-54.232	203.900	2526.113	3839.447
-53.217	113.250	2245.573	2673.901
-52.203	41.659	1880.940	1672.408
-51.188	35.372	1673.408	1440.799
-50.173	32.846	1630.181	1385.012
-49.159	50.769	1679.169	1560.500
-48.144	51.928	1695.290	1584.049
-47.130	35.198	1656.181	1424.441
-46.115	32.211	1641.925	1390.070
-45.100	32.134	1636.470	1384.832
-44.086	32.053	1634.620	1382.610
-43.071	32.283	1631.009	1381.195
-42.057	31.911	1629.986	1377.538
-41.042	32.077	1626.891	1376.086
-40.027	32.002	1625.656	1374.439
-39.013	32.219	1622.525	1373.322
-37.998	31.929	1623.278	1371.785
-36.984	32.127	1620.610	1370.926
-35.969	32.346	1618.013	1370.270
-34.954	32.285	1617.771	1369.565
-33.940	32.259	1614.592	1366.626
-32.925	32.300	1612.784	1365.342
-31.911	32.233	1612.068	1364.197
-30.896	32.484	1609.563	1363.838
-29.881	32.183	1608.342	1360.575
-28.867	32.329	1606.688	1360.176
-27.852	32.147	1605.826	1358.078
-26.838	32.233	1603.920	1357.029
-25.823	32.303	1601.914	1355.788
-24.809	32.220	1602.568	1355.683
-23.794	32.174	1599.764	1352.932
-22.779	32.439	1596.942	1352.396
-21.765	32.227	1596.928	1350.803
-20.750	32.182	1595.803	1349.476
-19.736	32.343	1594.251	1349.266
-18.721	32.286	1593.445	1348.119
-17.706	32.050	1591.156	1344.442
-16.692	32.331	1589.200	1344.742
-15.677	32.054	1588.216	1341.881
-14.663	32.400	1587.417	1343.624
-13.648	32.346	1585.396	1341.472
-12.633	32.481	1582.790	1340.178
-11.619	32.306	1582.501	1338.630
-10.604	32.233	1581.215	1336.971
-9.590	32.358	1579.977	1336.762
-8.575	32.172	1579.316	1334.826
-7.560	32.474	1576.713	1334.717
-6.546	32.129	1576.518	1332.051
-5.531	32.168	1575.317	1331.257
-4.517	32.061	1574.886	1330.086
-3.502	32.397	1571.887	1329.877
-2.487	32.378	1571.389	1329.266
-1.473	32.104	1558.889	1316.715
-0.458	29.103	1540.133	1279.999
0.556	26.636	1539.870	1245.937
1.571	24.168	1563.796	1247.918
2.586	23.543	1575.451	1252.700
3.600	21.206	1522.459	1194.489
4.615	12.494	1413.707	1053.484
5.629	4.493	1351.163	957.624
6.644	3.528	1341.581	944.843
7.659	3.148	1341.205	942.169
8.673	3.211	1340.802	942.189
9.688	3.193	1337.830	939.905
10.702	3.054	1335.116	937.068
11.717	6.487	1341.099	962.172
12.731	15.820	1358.048	1031.714
13.746	23.195	1370.508	1086.545
14.761	24.923	1371.949	1098.196
15.775	24.681	1371.406	1096.183
16.790	24.407	1370.548	1093.719
17.804	24.129	1369.254	1090.887
18.819	24.019	1368.872	1089.812
19.834	24.185	1367.304	1089.483
20.848	24.097	1366.884	1088.513
21.863	24.270	1366.638	1089.283
22.877	24.316	1366.000	1088.958
23.892	24.421	1363.728	1087.690
24.907	24.298	1363.122	1086.360
25.921	24.319	1363.751	1086.896
26.936	24.232	1362.244	1085.064
27.950	24.448	1360.553	1084.936
28.965	24.407	1359.625	1083.850
29.980	24.317	1358.930	1082.653
30.994	24.243	1358.569	1081.826
32.009	24.548	1357.333	1082.593
33.023	24.415	1356.335	1080.894
34.038	24.326	1354.940	1079.148
35.053	24.445	1353.322	1078.486
36.067	24.108	1353.902	1076.812
37.082	24.126	1352.018	1075.329
38.096	24.447	1351.251	1076.562
39.111	24.504	1350.630	1076.313
40.126	24.243	1349.639	1073.857
41.140	24.312	1348.640	1073.384
42.155	24.182	1347.016	1071.210
43.169	23.969	1348.114	1070.710
44.184	24.088	1347.347	1070.721
45.199	24.069	1347.015	1070.250
46.213	24.282	1346.754	1071.226
47.228	24.372	1346.569	1071.527
48.242	24.610	1345.121	1071.704
49.257	24.455	1344.275	1070.009
50.271	24.404	1341.920	1067.733
51.286	24.514	1340.846	1067.441
52.301	24.138	1340.456	1064.789
53.315	24.305	1339.805	1065.178
54.330	24.210	1337.900	1063.000
55.344	24.175	1336.880	1061.887
56.359	23.985	1336.035	1059.993
57.374	23.992	1336.069	1059.963
58.388	24.027	1334.451	1058.796
59.403	24.055	1334.145	1058.625
60.417	23.918	1332.399	1056.332
61.432	23.909	1332.296	1056.101
62.447	23.748	1332.217	1054.992
63.461	24.016	1330.504	1055.131
64.476	23.723	1330.207	1053.067
65.490	23.987	1328.783	1053.406
66.505	23.756	1327.383	1050.841
67.520	23.819	1325.967	1049.995
68.534	23.689	1325.245	1048.567
69.549	23.875	1323.909	1048.514
70.563	23.519	1324.102	1046.474
71.578	23.857	1321.912	1046.637
72.593	23.704	1321.078	1044.988
73.607	23.860	1319.952	1044.920
74.622	23.867	1320.029	1044.931
75.636	23.760	1318.958	1043.359
76.651	23.538	1319.516	1042.406
77.666	23.795	1317.966	1042.597
78.680	23.910	1317.935	1043.157
79.695	23.895	1316.869	1042.130
80.709	23.862	1315.857	1041.045
81.724	24.032	1315.275	1041.487
82.739	24.355	1315.346	1043.339
83.753	24.390	1314.351	1042.663
84.768	24.511	1315.239	1043.982
85.782	24.602	1312.833	1042.512
86.797	24.521	1311.635	1040.997
87.812	24.131	1311.275	1038.344
88.826	24.365	1309.397	1038.126
89.841	24.432	1306.725	1036.306
90.855	24.636	1306.559	1037.270
91.870	24.478	1307.097	1036.684
92.884	24.488	1306.349	1036.059
93.899	24.678	1304.396	1035.521
94.914	24.582	1304.655	1035.075
95.928	24.744	1302.586	1034.284
96.943	24.591	1302.477	1033.217
97.957	24.578	1301.494	1032.271
98.972	24.519	1300.895	1031.365
99.987	24.574	1299.146	1030.201
101.001	24.481	1299.230	1029.643
102.016	24.533	1296.980	1028.067
103.030	24.554	1297.562	1028.557
104.045	24.591	1296.828	1028.099
105.060	24.553	1294.424	1025.883
106.074	23.982	1294.436	1022.521
107.089	24.012	1292.796	1021.308
108.103	23.992	1291.098	1019.762
109.118	23.727	1290.223	1017.463
110.133	23.606	1289.697	1016.265
111.147	24.072	1287.024	1016.732
112.162	23.935	1286.036	1015.081
113.176	23.855	1286.499	1014.896
114.191	24.195	1284.234	1014.961
115.206	24.020	1284.259	1013.894
116.220	24.045	1283.012	1012.958
117.235	23.975	1282.630	1012.170
118.249	23.632	1281.623	1009.337
119.264	23.717	1279.739	1008.248
120.279	23.819	1279.136	1008.262
121.293	23.767	1278.292	1007.210
122.308	23.575	1277.621	1005.504
123.322	23.501	1277.035	1004.534
124.337	23.646	1275.170	1003.801
125.352	23.781	1273.659	1003.284
126.366	23.619	1274.150	1002.667
127.381	23.735	1272.514	1001.944
128.395	23.422	1271.433	999.241
129.410	23.389	1271.452	998.980
130.424	23.346	1270.057	997.555
131.439	23.769	1268.776	998.837
132.454	23.985	1268.063	999.401
133.468	24.091	1268.748	1000.449
134.483	24.070	1267.350	999.140
135.497	23.884	1267.573	998.184
136.512	24.085	1266.182	998.127
137.527	23.912	1264.591	995.814
138.541	23.600	1263.816	993.370
139.556	24.219	1261.049	994.564
140.570	24.340	1261.582	995.571
141.585	24.179	1260.240	993.528
142.600	24.469	1259.733	994.657
143.614	24.548	1260.120	995.316
144.629	24.655	1258.885	994.849
145.643	24.274	1257.453	991.509
146.658	24.195	1256.749	990.424
147.673	24.479	1254.878	990.441
148.687	24.160	1253.681	987.640
149.702	24.067	1252.775	986.323
150.716	23.641	1251.224	982.658
151.731	23.628	1248.828	980.619
152.746	23.829	1248.597	981.458
153.760	23.909	1248.586	981.805
154.775	24.148	1247.459	982.149
155.789	24.408	1247.057	983.182
156.804	24.284	1245.237	980.974
157.819	24.138	1244.993	979.894
158.833	23.988	1243.905	978.123
159.848	24.608	1243.167	980.863
160.862	24.448	1242.730	979.555
161.877	24.291	1241.179	977.386
162.892	24.060	1240.075	975.166
163.906	23.325	1240.731	971.564
164.921	23.840	1238.750	972.744
165.935	23.969	1237.370	972.278
166.950	24.146	1236.982	972.857
167.964	24.075	1236.515	972.015
168.979	23.976	1235.527	970.614
169.994	23.848	1235.486	969.796
171.008	24.007	1235.236	970.380
172.023	24.100	1233.488	969.430
173.037	24.339	1232.509	969.873
174.052	23.958	1233.752	968.690
175.067	24.245	1231.309	968.247
176.081	23.639	1231.003	964.628
177.096	23.943	1229.866	965.300
178.110	23.845	1229.147	964.119
179.125	24.022	1227.240	963.497
180.140	24.075	1226.581	963.183
181.154	24.317	1225.643	963.669
182.169	24.292	1224.251	962.357
183.183	24.311	1223.930	962.119
184.198	24.341	1222.949	961.422
185.213	24.378	1222.239	960.980
186.227	24.510	1220.795	960.468
187.242	24.313	1219.580	958.372
188.256	24.379	1219.650	958.696
189.271	24.383	1218.917	958.058
190.286	24.349	1217.397	956.593
191.300	24.101	1215.798	953.926
192.315	24.151	1215.724	954.050
193.329	24.170	1216.576	954.738
194.344	23.970	1214.305	951.801
195.359	23.753	1214.072	950.371
196.373	23.495	1214.114	948.940
197.388	23.674	1213.124	949.041
198.402	24.162	1212.924	951.406
199.417	24.382	1213.152	952.678
200.432	24.727	1211.961	953.497
201.446	24.452	1211.646	951.698
202.461	24.766	1210.477	952.370
203.475	24.499	1210.232	950.669
204.490	24.171	1208.679	947.618
205.504	23.969	1207.026	945.169
206.519	23.882	1206.469	944.184
207.534	23.875	1203.986	942.120
208.548	24.057	1203.517	942.633
209.563	23.873	1202.415	940.717
210.577	23.522	1202.618	938.931
211.592	23.890	1201.538	939.953
212.607	24.121	1202.198	941.609
213.621	24.092	1201.333	940.693
214.636	24.155	1199.410	939.436
215.650	24.279	1199.376	939.983
216.665	24.010	1199.157	938.307
217.680	24.691	1197.149	940.237
218.694	24.757	1196.447	939.947
219.709	24.297	1196.522	937.505
220.723	24.387	1195.281	936.923
221.738	24.595	1193.845	936.807
222.753	24.258	1193.329	934.550
223.767	24.294	1192.379	933.916
224.782	24.641	1191.818	935.207
225.796	24.519	1192.258	934.831
226.811	24.463	1190.956	933.437
227.826	24.359	1191.009	932.852
228.840	24.213	1190.581	931.671
229.855	24.147	1189.565	930.448
230.869	24.016	1188.616	928.941
231.884	24.169	1187.704	928.940
232.899	23.803	1186.039	925.650
233.913	23.879	1185.622	925.643
234.928	24.368	1183.651	926.557
235.942	23.872	1184.382	924.471
236.957	23.617	1184.603	923.233
237.972	23.556	1182.093	920.880
238.986	24.021	1181.448	922.709
240.001	23.808	1181.399	921.485
241.015	23.729	1180.723	920.468
242.030	24.003	1179.246	920.651
243.045	24.170	1179.643	921.745
244.059	24.346	1178.397	921.601
245.074	24.383	1178.359	921.679
246.088	24.322	1177.924	920.940
247.103	24.382	1177.111	920.533
248.117	24.605	1175.903	920.658
249.132	24.815	1175.613	921.428
250.147	25.113	1175.034	922.427
251.161	25.136	1174.694	922.197
252.176	24.864	1175.277	921.174
253.190	25.250	1173.982	922.063
254.205	25.491	1172.019	921.674
255.220	25.208	1171.766	919.940
256.234	25.454	1171.276	920.739
257.249	25.038	1171.282	918.527
258.263	24.734	1171.397	916.977
259.278	24.971	1170.402	917.332
260.293	25.358	1169.190	918.283
261.307	25.140	1169.117	917.026
262.322	25.220	1167.869	916.376
263.336	24.990	1167.766	915.042
264.351	25.175	1166.900	915.227
265.366	25.012	1166.963	914.361
266.380	25.281	1165.367	914.399
267.395	24.983	1165.359	912.794
268.409	25.199	1163.594	912.433
269.424	24.993	1163.551	911.270
270.439	25.087	1162.297	910.686
271.453	24.967	1162.284	909.985
272.468	24.653	1162.008	908.093
273.482	24.548	1160.355	906.189
274.497	24.707	1159.275	906.068
275.512	24.782	1158.911	906.081
276.526	24.648	1158.482	904.990
277.541	24.803	1157.738	905.113
278.555	24.983	1157.224	905.540
279.570	24.773	1157.025	904.243
280.585	25.638	1154.660	906.679
281.599	25.317	1154.835	905.115
282.614	24.904	1154.175	902.437
283.628	24.598	1153.179	900.035
284.643	24.576	1151.999	898.926
285.657	24.761	1151.133	899.101
286.672	24.653	1151.506	898.767
287.687	24.880	1150.008	898.660
288.701	24.974	1148.160	897.606
289.716	24.534	1149.221	896.148
290.730	24.738	1147.608	895.838
291.745	24.978	1147.296	896.715
292.760	25.063	1146.174	896.181
293.774	25.238	1145.688	896.597
294.789	25.161	1146.159	896.500
295.803	24.948	1145.478	894.826
296.818	24.917	1143.616	893.139
297.833	24.847	1143.153	892.348
298.847	24.861	1141.921	891.378
299.862	25.080	1141.210	891.831
300.876	24.788	1141.099	890.214
301.891	24.879	1140.209	889.892
302.906	25.496	1139.539	892.357
303.920	25.372	1139.200	891.395
304.935	25.568	1138.608	891.825
305.949	25.606	1137.700	891.225
306.964	25.624	1137.741	891.268
307.979	25.533	1136.040	889.406
308.993	25.252	1135.842	887.784
310.008	25.425	1136.073	888.739
311.022	25.171	1134.357	886.064
312.037	25.329	1133.381	886.003
313.052	25.224	1133.168	885.238
314.066	24.860	1131.906	882.382
315.081	24.771	1130.985	881.146
316.095	24.612	1130.423	879.850
317.110	24.496	1129.311	878.336
318.125	24.785	1128.209	878.819
319.139	24.565	1128.394	877.806
320.154	25.079	1126.641	878.887
321.168	25.105	1126.190	878.582
322.183	24.651	1126.302	876.369
323.197	24.968	1124.690	876.586
324.212	24.717	1124.030	874.767
325.227	24.984	1124.445	876.320
326.241	24.882	1124.116	875.487
327.256	24.832	1123.135	874.401
328.270	25.006	1122.505	874.683
329.285	24.973	1121.217	873.442
330.300	24.979	1120.559	872.881
331.314	24.964	1120.008	872.298
332.329	24.836	1118.726	870.603
333.343	25.362	1118.217	872.686
334.358	25.089	1116.815	870.189
335.373	24.871	1118.093	870.047
336.387	25.456	1115.740	870.975
337.402	25.438	1115.862	870.908
338.416	25.666	1115.227	871.440
339.431	25.664	1113.982	870.380
340.446	25.602	1114.222	870.190
341.460	25.660	1113.217	869.610
342.475	25.768	1112.836	869.755
343.489	25.939	1112.329	870.109
344.504	25.704	1111.681	868.391
345.519	26.222	1109.945	869.452
346.533	25.957	1109.693	867.903
347.548	26.000	1109.266	867.698
348.562	25.947	1108.167	866.506
349.577	25.535	1107.015	863.552
350.592	25.260	1106.590	861.823
351.606	25.500	1104.800	861.505
352.621	25.090	1104.644	859.338
353.635	25.083	1103.849	858.613
354.650	25.110	1103.174	858.141
355.665	25.033	1101.985	856.773
356.679	24.927	1103.523	857.385
357.694	25.282	1101.356	857.321
358.708	25.618	1100.881	858.477
359.723	25.589	1100.862	858.251
360.738	25.158	1100.511	855.841
361.752	25.305	1099.664	855.812
362.767	25.212	1099.351	855.048
363.781	25.653	1098.062	856.068
364.796	25.522	1098.697	855.862
365.810	26.066	1097.781	857.659
366.825	26.138	1097.124	857.415
367.840	26.116	1096.539	856.778
368.854	26.198	1096.503	857.061
369.869	26.196	1095.890	856.495
370.883	26.051	1093.977	854.239
371.898	25.745	1093.069	852.007
372.913	25.980	1092.171	852.342
373.927	25.667	1092.722	851.215
374.942	26.091	1091.483	852.180
375.956	25.898	1092.251	851.791
376.971	25.870	1090.831	850.476
377.986	25.939	1089.893	849.998
379.000	25.949	1090.228	850.228
380.015	26.035	1089.272	849.814
381.029	26.029	1088.559	849.153
382.044	26.332	1088.344	850.336
383.059	26.203	1087.350	848.877
384.073	25.929	1087.099	847.317
385.088	25.828	1086.998	846.689
386.102	26.035	1085.607	846.505
387.117	25.827	1083.811	844.055
388.132	25.439	1083.060	841.578
389.146	25.668	1081.756	841.562
390.161	25.622	1081.282	840.901
391.175	25.692	1080.284	840.381
392.190	25.773	1079.781	840.291
393.205	26.024	1079.179	840.918
394.219	25.899	1079.020	840.138
395.234	25.952	1076.901	838.660
396.248	25.554	1076.618	836.516
397.263	25.579	1074.724	835.085
398.278	25.872	1074.741	836.385
399.292	25.581	1074.723	834.945
400.307	25.577	1075.236	835.253
401.321	25.739	1072.899	834.114
402.336	25.297	1072.178	831.433
403.350	25.538	1071.470	831.926
404.365	25.762	1070.783	832.354
405.380	25.718	1071.156	832.367
406.394	25.907	1069.091	831.559
407.409	26.242	1068.199	832.335
408.423	26.404	1068.675	833.382
409.438	26.487	1068.302	833.398
410.453	26.245	1068.543	832.397
411.467	26.308	1066.907	831.338
412.482	26.120	1066.470	830.061
413.496	26.386	1065.913	830.778
414.511	26.361	1065.050	829.917
415.526	26.289	1065.213	829.639
416.540	26.568	1065.161	830.806
417.555	26.562	1063.842	829.674
418.569	26.075	1063.878	827.396
419.584	26.306	1062.445	827.267
420.599	26.232	1063.140	827.397
421.613	153.658	1404.432	1792.652
422.628	141.326	1454.069	1792.742
