DTS Sentinel unit serial number:	SN413079Multiplexer serial number:	ORYXHardware model number:	OX4-SRSoftware version number:	ORYX F/W v4.00 Oryx Data Collector v3.7.2.0data status	okinstallation	princeton_trtdifferential loss correction	single-endedforward channel	channel 2reverse channel	N/Adate	2019/09/17time	12:39:35forward acquisition time	60.00reverse acquisition time	0.00gamma	496.2192k internal	0.2321k external	0.2321temperature offset calibration	0.9988default loss term (dB/km)	0.3790temperature slope calibration	1.0000multiplexer offset coefficient	1.0000multiplexer slope coefficient	1.0000fibre end	0.00T internal ref (°C)	32.30T ext. ref 1 (°C)	0.41T ext. ref 2 (°C)	30.07length (m)	temperature (°C)	Stokes	anti-Stokes-747.200	-58.462	-0.225	-0.099
-746.185	91.612	0.249	0.283
-745.171	800.000	0.033	-0.134
-744.156	14.084	0.026	-0.021
-743.142	640.522	-0.044	-0.114
-742.127	474.356	0.161	0.368
-741.112	-102.800	-0.114	0.027
-740.098	189.722	-0.141	0.214
-739.083	244.993	-0.054	0.092
-738.069	27.927	-0.291	0.248
-737.054	-200.000	0.009	0.244
-736.039	-85.712	-0.338	-0.106
-735.025	-158.351	0.397	0.023
-734.010	-147.867	-0.076	0.006
-732.996	-101.181	-0.178	-0.044
-731.981	78.208	-0.314	-0.339
-730.966	-8.981	-0.024	-0.016
-729.952	-125.725	-0.219	0.033
-728.937	598.354	0.138	-0.345
-727.923	-200.000	-0.008	-0.267
-726.908	7.558	0.129	-0.098
-725.894	-19.364	0.125	-0.079
-724.879	-141.022	0.320	0.033
-723.864	286.890	-0.113	-0.207
-722.850	-133.383	0.082	0.010
-721.835	327.296	0.017	-0.032
-720.821	-33.241	0.208	0.116
-719.806	19.907	0.068	-0.056
-718.791	-82.396	0.370	-0.121
-717.777	-200.000	-0.090	-0.482
-716.762	800.000	0.057	-0.248
-715.748	-179.491	-0.249	0.006
-714.733	-61.318	-0.180	0.076
-713.718	-59.089	0.323	0.141
-712.704	-5.253	-0.256	-0.178
-711.689	137.289	0.009	-0.012
-710.675	48.620	0.103	0.098
-709.660	-200.000	-0.043	-0.243
-708.645	160.820	-0.047	-0.067
-707.631	227.259	-0.071	-0.116
-706.616	18.537	0.080	0.064
-705.602	-44.055	-0.371	-0.188
-704.587	-19.661	0.084	0.052
-703.572	-14.305	-0.170	0.111
-702.558	-56.410	0.293	0.131
-701.543	-200.000	0.041	-0.255
-700.529	-82.146	-0.245	0.081
-699.514	-200.000	0.016	-0.155
-698.499	-200.000	0.000	0.314
-697.485	142.674	-0.207	-0.277
-696.470	-76.861	0.229	-0.081
-695.456	-68.670	-0.151	0.059
-694.441	103.771	-0.163	-0.194
-693.426	117.687	0.123	0.153
-692.412	-40.483	-0.195	-0.102
-691.397	-200.000	-0.011	-0.256
-690.383	71.524	0.073	-0.077
-689.368	-58.923	-0.311	0.135
-688.354	-200.000	-0.007	-0.251
-687.339	352.958	-0.084	0.167
-686.324	353.858	-0.114	-0.229
-685.310	-200.000	-0.024	-0.240
-684.295	-168.254	-0.407	-0.016
-683.281	405.849	0.095	-0.203
-682.266	-200.000	-0.001	0.066
-681.251	9.080	0.252	0.192
-680.237	67.070	-0.409	-0.420
-679.222	-7.694	0.295	0.201
-678.208	-57.301	-0.257	0.114
-677.193	11.096	-0.108	0.084
-676.178	179.880	-0.141	-0.209
-675.164	15.274	-0.146	0.115
-674.149	-161.025	0.146	-0.008
-673.135	565.144	0.102	0.249
-672.120	19.389	0.338	0.274
-671.105	-179.606	0.278	0.006
-670.091	51.428	0.061	-0.059
-669.076	619.434	-0.208	-0.526
-668.062	-95.212	0.118	-0.032
-667.047	-157.471	0.091	-0.005
-666.032	-151.294	0.328	-0.025
-665.018	119.420	0.122	-0.152
-664.003	-157.267	-0.316	-0.019
-662.989	419.401	-0.128	-0.277
-661.974	88.687	-0.046	-0.052
-660.959	6.137	0.115	-0.086
-659.945	29.069	-0.120	0.102
-658.930	800.000	-0.037	-0.158
-657.916	-146.288	-0.306	0.027
-656.901	-60.234	0.146	-0.063
-655.886	-200.000	0.004	-0.202
-654.872	-139.186	0.228	-0.025
-653.857	800.000	-0.064	0.210
-652.843	245.671	0.042	0.070
-651.828	57.030	0.150	0.147
-650.814	-45.135	0.285	0.143
-649.799	-8.165	-0.168	0.114
-648.784	34.565	0.102	0.090
-647.770	-29.992	-0.390	0.224
-646.755	40.847	-0.190	-0.173
-645.741	-94.209	-0.093	-0.026
-644.726	-138.882	-0.050	-0.005
-643.711	-141.057	0.140	-0.014
-642.697	-200.000	-0.126	-0.000
-641.682	-2.869	0.202	-0.142
-640.668	-150.506	0.296	-0.023
-639.653	-60.023	-0.428	-0.184
-638.638	-180.340	-0.340	0.007
-637.624	-97.351	0.165	-0.043
-636.609	-85.311	-0.365	-0.115
-635.595	58.075	-0.184	-0.181
-634.580	-200.000	0.074	-0.341
-633.565	800.000	0.093	0.311
-632.551	800.000	0.049	0.177
-631.536	399.731	-0.100	0.210
-630.522	8.523	-0.337	0.255
-629.507	-23.751	0.241	-0.145
-628.492	800.000	0.071	-0.226
-627.478	264.067	-0.127	-0.223
-626.463	-36.027	-0.235	-0.128
-625.449	-8.223	0.218	-0.147
-624.434	-13.974	0.196	0.127
-623.419	-14.022	-0.096	-0.062
-622.405	242.705	0.275	-0.463
-621.390	132.404	0.121	-0.157
-620.376	27.276	-0.078	-0.066
-619.361	295.932	0.125	-0.230
-618.346	-200.000	0.063	-0.307
-617.332	800.000	-0.106	0.357
-616.317	80.817	-0.108	0.117
-615.303	-200.000	0.040	0.181
-614.288	8.358	-0.191	0.145
-613.273	121.309	-0.052	-0.065
-612.259	184.668	-0.080	-0.119
-611.244	800.000	0.093	-0.407
-610.230	-200.000	0.080	0.000
-609.215	170.325	-0.168	0.242
-608.201	800.000	0.070	-0.216
-607.186	253.532	0.028	-0.048
-606.171	-36.534	-0.188	0.102
-605.157	70.835	-0.053	0.055
-604.142	-200.000	-0.028	-0.155
-603.128	-200.000	-0.015	-0.087
-602.113	167.827	0.187	-0.267
-601.098	20.003	-0.202	-0.164
-600.084	-110.866	-0.157	0.033
-599.069	341.314	-0.102	0.200
-598.055	-200.000	0.001	0.111
-597.040	85.847	0.063	0.070
-596.025	-128.420	0.100	0.014
-595.011	-200.000	0.029	-0.143
-593.996	116.456	0.127	-0.157
-592.982	23.673	0.167	-0.138
-591.967	-80.709	-0.235	-0.079
-590.952	13.895	-0.354	0.277
-589.938	164.251	0.095	-0.134
-588.923	295.960	0.051	0.094
-587.909	-120.326	-0.328	0.056
-586.894	-139.601	0.220	-0.024
-585.879	83.652	0.167	-0.183
-584.865	-200.000	-0.026	-0.120
-583.850	136.720	-0.181	-0.237
-582.836	800.000	0.024	-0.078
-581.821	0.482	0.269	-0.193
-580.806	-64.185	-0.175	-0.072
-579.792	-127.179	0.407	-0.060
-578.777	-113.548	-0.333	0.065
-577.763	-200.000	-0.000	0.015
-576.748	-163.808	0.429	-0.020
-575.733	715.213	-0.031	0.082
-574.719	11.132	0.216	-0.166
-573.704	-21.832	0.180	-0.110
-572.690	319.385	0.136	-0.259
-571.675	179.107	-0.211	0.310
-570.661	-176.326	-0.227	-0.006
-569.646	-80.197	-0.249	0.084
-568.631	-17.552	-0.154	-0.097
-567.617	-77.112	0.144	-0.050
-566.602	27.518	-0.217	0.183
-565.588	-200.000	0.204	0.000
-564.573	356.587	0.063	-0.125
-563.558	-66.792	0.181	0.072
-562.544	-32.308	0.179	-0.100
-561.529	-152.753	-0.289	-0.021
-560.515	-146.829	0.168	0.015
-559.500	-200.000	-0.002	0.115
-558.485	800.000	0.064	0.182
-557.471	-4.651	-0.207	-0.143
-556.456	-56.575	-0.309	0.137
-555.442	37.988	-0.189	0.169
-554.427	800.000	-0.029	0.099
-553.412	60.249	-0.084	0.084
-552.398	64.418	-0.243	-0.246
-551.383	-200.000	0.075	0.386
-550.369	24.598	-0.039	-0.032
-549.354	122.520	-0.075	0.094
-548.339	-200.000	0.177	0.000
-547.325	-113.666	0.260	0.051
-546.310	-200.000	-0.020	0.334
-545.296	-175.552	0.235	0.006
-544.281	-11.641	-0.197	-0.130
-543.266	-5.545	0.093	-0.064
-542.252	4.737	-0.124	0.091
-541.237	288.065	-0.028	-0.051
-540.223	-109.938	-0.206	0.043
-539.208	800.000	-0.075	-0.210
-538.193	-31.582	0.253	0.143
-537.179	-72.655	-0.199	-0.074
-536.164	87.925	0.018	-0.020
-535.150	-167.157	0.150	0.006
-534.135	-80.217	0.212	-0.071
-533.121	20.500	0.056	0.045
-532.106	-164.277	-0.293	-0.014
-531.091	-140.811	-0.089	0.009
-530.077	800.000	0.020	0.059
-529.062	-106.312	-0.115	-0.026
-528.048	-62.060	0.235	0.098
-527.033	190.797	0.013	-0.020
-526.018	-200.000	-0.023	0.228
-525.004	-44.934	0.143	-0.072
-523.989	70.983	-0.223	-0.232
-522.975	81.622	0.190	0.206
-521.960	-83.061	-0.108	0.035
-520.945	-102.748	0.302	0.072
-519.931	-16.810	-0.308	-0.195
-518.916	-140.536	0.211	-0.022
-517.902	-105.043	0.075	-0.017
-516.887	62.258	-0.213	0.213
-515.872	105.024	-0.120	0.142
-514.858	800.000	-0.096	0.292
-513.843	-200.000	-0.020	-0.188
-512.829	-162.846	0.244	0.012
-511.814	7.058	-0.342	0.255
-510.799	-193.180	0.118	0.001
-509.785	-85.561	0.096	0.030
-508.770	25.403	-0.244	-0.203
-507.756	-113.333	-0.235	0.046
-506.741	171.566	-0.070	0.101
-505.726	-200.000	0.008	-0.131
-504.712	-47.132	-0.175	-0.085
-503.697	138.920	0.091	-0.120
-502.683	-80.745	0.220	-0.073
-501.668	748.702	0.073	0.198
-500.653	-21.187	-0.236	0.144
-499.639	20.425	-0.249	-0.201
-498.624	-200.000	0.011	-0.207
-497.610	21.878	-0.143	0.117
-496.595	11.745	0.206	0.158
-495.581	-94.085	-0.296	-0.081
-494.566	-14.693	-0.364	-0.234
-493.551	75.133	-0.223	0.235
-492.537	-157.962	-0.347	0.021
-491.522	187.997	-0.203	-0.303
-490.508	-17.875	0.061	-0.038
-489.493	-0.280	-0.234	-0.166
-488.478	92.267	0.139	-0.157
-487.464	363.070	-0.104	-0.209
-486.449	653.353	-0.052	-0.135
-485.435	36.075	0.063	0.055
-484.420	800.000	0.026	-0.076
-483.405	-200.000	-0.036	0.166
-482.391	291.182	0.090	-0.163
-481.376	-130.305	0.097	-0.013
-480.362	-107.234	0.322	0.071
-479.347	308.521	-0.092	-0.172
-478.332	357.181	-0.189	-0.377
-477.318	-113.379	0.281	0.055
-476.303	-1.118	0.080	-0.057
-475.289	95.614	0.155	-0.177
-474.274	-70.973	0.275	-0.103
-473.259	800.000	0.012	0.048
-472.245	18.782	-0.237	-0.190
-471.230	-200.000	-0.008	0.112
-470.216	-38.825	0.365	0.193
-469.201	-121.990	0.294	-0.048
-468.186	132.994	-0.058	-0.075
-467.172	-127.746	-0.170	0.025
-466.157	-27.146	-0.330	0.192
-465.143	800.000	0.078	0.261
-464.128	390.018	-0.033	0.068
-463.113	88.862	0.146	0.163
-462.099	-31.646	-0.054	-0.030
-461.084	345.137	0.108	-0.213
-460.070	24.464	-0.227	-0.188
-459.055	-200.000	0.014	0.169
-458.040	-151.306	-0.161	0.012
-457.026	-80.112	0.083	0.028
-456.011	-200.000	0.082	0.395
-454.997	261.179	-0.136	-0.236
-453.982	800.000	-0.039	0.144
-452.968	-86.071	-0.155	0.048
-451.953	-200.000	0.017	0.172
-450.938	-180.953	0.088	-0.002
-449.924	800.000	0.123	0.380
-448.909	143.109	-0.146	0.194
-447.895	-200.000	0.001	-0.058
-446.880	-137.969	0.300	-0.033
-445.865	35.822	-0.178	-0.156
-444.851	408.254	-0.171	-0.361
-443.836	-124.833	0.284	-0.044
-442.822	-39.149	0.064	0.034
-441.807	-77.868	0.076	0.026
-440.792	272.593	0.155	0.274
-439.778	-163.041	-0.225	0.011
-438.763	344.857	0.210	0.412
-437.749	800.000	0.104	0.377
-436.734	-200.000	0.009	0.209
-435.719	289.889	0.152	-0.276
-434.705	800.000	0.073	0.205
-433.690	572.017	-0.076	0.184
-432.676	681.795	-0.064	-0.168
-431.661	122.897	-0.126	0.158
-430.646	523.285	0.188	-0.440
-429.632	-25.241	-0.168	-0.099
-428.617	-49.760	0.205	-0.097
-427.603	-49.367	0.256	-0.122
-426.588	51.189	-0.128	0.121
-425.573	105.629	0.052	0.062
-424.559	-87.841	0.390	-0.117
-423.544	-69.985	0.134	-0.051
-422.530	81.309	0.133	-0.144
-421.515	-160.121	0.156	-0.008
-420.500	-5.882	0.163	-0.111
-419.486	-57.927	0.337	-0.147
-418.471	663.443	0.028	0.071
-417.457	-84.973	-0.230	-0.072
-416.442	239.663	0.293	-0.486
-415.428	266.036	-0.095	-0.166
-414.413	-118.031	-0.213	0.038
-413.398	-90.236	-0.328	-0.095
-412.384	765.954	-0.016	0.042
-411.369	136.500	0.070	-0.091
-410.355	289.630	-0.213	-0.386
-409.340	157.285	-0.046	0.063
-408.325	329.720	-0.038	0.074
-407.311	81.217	-0.032	0.034
-406.296	-18.810	-0.388	-0.241
-405.282	-155.513	0.256	0.016
-404.267	222.478	-0.170	-0.272
-403.252	6.594	-0.227	0.168
-402.238	489.507	-0.122	-0.277
-401.223	420.203	0.060	0.128
-400.209	-200.000	0.027	0.145
-399.194	567.322	0.058	-0.141
-398.179	-200.000	0.006	0.101
-397.165	-46.113	0.187	0.092
-396.150	-131.191	-0.291	-0.039
-395.136	-128.644	0.339	-0.048
-394.121	201.110	0.069	0.105
-393.106	-200.000	0.058	-0.256
-392.092	-200.000	0.010	0.098
-391.077	476.300	-0.181	0.408
-390.063	-97.714	-0.124	-0.032
-389.048	-199.186	-0.166	-0.001
-388.033	-200.000	0.026	0.162
-387.019	135.930	0.060	-0.078
-386.004	6.549	0.391	0.290
-384.990	-200.000	0.030	-0.274
-383.975	-88.016	0.254	-0.076
-382.960	800.000	-0.107	0.331
-381.946	-126.416	0.176	0.026
-380.931	-128.344	0.166	-0.024
-379.917	151.886	0.062	0.084
-378.902	645.679	-0.050	-0.128
-377.888	-49.004	-0.213	-0.101
-376.873	156.013	0.127	-0.175
-375.858	-159.096	-0.042	0.002
-374.844	-200.000	0.042	0.201
-373.829	-132.585	-0.173	-0.022
-372.815	-133.572	-0.189	-0.024
-371.800	19.186	0.171	0.136
-370.785	-200.000	-0.028	0.182
-369.771	-200.000	-0.006	0.179
-368.756	-114.902	0.266	0.051
-367.742	-131.686	-0.223	0.029
-366.727	-200.000	0.042	0.253
-365.712	-200.000	0.021	0.113
-364.698	79.436	-0.259	-0.276
-363.683	105.681	0.097	0.114
-362.669	-86.375	0.349	-0.107
-361.654	800.000	-0.074	-0.320
-360.639	-147.370	-0.185	0.016
-359.625	-200.000	-0.001	0.153
-358.610	800.000	0.012	0.047
-357.596	33.597	-0.198	0.171
-356.581	-38.632	-0.097	0.051
-355.566	-35.033	-0.100	-0.054
-354.552	800.000	-0.066	0.249
-353.537	582.351	-0.061	-0.149
-352.523	-200.000	-0.001	0.136
-351.508	352.623	0.095	-0.188
-350.493	800.000	0.125	0.356
-349.479	18.086	0.206	0.164
-348.464	370.131	0.082	0.165
-347.450	77.429	-0.228	-0.242
-346.435	-200.000	-0.058	-0.432
-345.420	-21.147	0.246	-0.150
-344.406	-42.709	0.139	0.070
-343.391	-200.000	-0.012	-0.227
-342.377	-16.074	-0.106	-0.067
-341.362	439.490	0.114	-0.248
-340.348	18.172	-0.223	0.177
-339.333	-200.000	0.006	-0.253
-338.318	-72.472	-0.353	0.130
-337.304	-87.118	-0.289	0.087
-336.289	135.274	-0.042	-0.054
-335.275	-183.887	-0.265	-0.004
-334.260	-112.930	-0.331	-0.065
-333.245	-102.072	0.141	0.034
-332.231	161.595	0.155	-0.215
-331.216	51.461	-0.047	-0.045
-330.202	-200.000	-0.094	-0.419
-329.187	70.937	-0.175	-0.180
-328.172	-50.009	-0.107	0.051
-327.158	-5.465	-0.456	-0.311
-326.143	-200.000	-0.006	0.205
-325.129	311.038	0.089	0.166
-324.114	-140.242	0.171	0.018
-323.099	-200.000	0.012	0.083
-322.085	-152.433	-0.133	-0.009
-321.070	-62.783	0.279	0.115
-320.056	-163.425	-0.286	-0.014
-319.041	-0.318	-0.074	-0.052
-318.026	158.143	0.119	0.164
-317.012	-200.000	0.002	0.150
-315.997	800.000	-0.056	-0.235
-314.983	800.000	-0.028	-0.081
-313.968	-87.302	0.095	-0.029
-312.953	47.396	-0.027	0.025
-311.939	-82.684	0.152	-0.049
-310.924	800.000	-0.084	0.278
-309.910	800.000	0.093	-0.348
-308.895	522.221	-0.101	-0.236
-307.880	-12.894	-0.369	-0.239
-306.866	-10.679	0.080	-0.053
-305.851	13.961	0.113	-0.087
-304.837	-125.108	0.396	-0.060
-303.822	78.487	0.175	-0.186
-302.807	298.762	-0.050	0.091
-301.793	-11.740	0.086	-0.056
-300.778	101.769	-0.195	-0.226
-299.764	778.388	0.031	-0.085
-298.749	146.728	0.138	0.184
-297.735	175.987	0.238	-0.342
-296.720	-200.000	0.000	-0.066
-295.705	-2.049	0.177	0.123
-294.691	-62.831	0.605	0.249
-293.676	724.275	0.039	-0.104
-292.662	-200.000	-0.017	-0.165
-291.647	518.730	0.082	0.191
-290.632	-27.608	0.154	0.089
-289.618	800.000	0.127	0.459
-288.603	-48.208	0.166	-0.080
-287.589	-106.954	0.459	-0.101
-286.574	342.370	0.077	0.150
-285.559	-97.591	-0.052	0.014
-284.545	89.426	0.151	0.167
-283.530	9.529	-0.190	0.143
-282.516	-34.166	0.330	0.180
-281.501	-200.000	0.055	0.308
-280.486	106.418	0.025	0.029
-279.472	638.830	0.107	0.270
-278.457	-200.000	-0.127	0.000
-277.443	239.328	-0.177	0.292
-276.428	523.690	-0.022	0.051
-275.413	40.396	-0.080	-0.071
-274.399	102.003	-0.137	0.158
-273.384	-62.010	0.137	0.057
-272.370	-79.490	0.470	0.158
-271.355	-200.000	0.013	0.297
-270.340	-25.083	0.245	-0.144
-269.326	-20.760	0.256	-0.156
-268.311	534.307	0.124	0.292
-267.297	645.311	0.143	0.362
-266.282	-31.993	0.068	-0.038
-265.267	245.999	-0.155	0.259
-264.253	7.866	0.192	0.143
-263.238	-200.000	-0.302	-0.001
-262.224	-25.573	-0.074	-0.043
-261.209	-200.000	0.020	-0.172
-260.195	374.686	-0.074	0.150
-259.180	274.643	0.118	0.208
-258.165	-200.000	0.034	0.178
-257.151	800.000	0.063	0.194
-256.136	539.999	-0.140	0.330
-255.122	321.821	0.080	-0.151
-254.107	-52.425	0.205	-0.094
-253.092	-200.000	0.020	-0.177
-252.078	-200.000	0.014	-0.195
-251.063	26.826	0.092	0.076
-250.049	-121.281	-0.474	0.078
-249.034	350.718	-0.075	0.147
-248.019	191.805	-0.106	-0.158
-247.005	-38.610	0.153	0.080
-245.990	50.785	0.144	-0.135
-244.976	-13.823	-0.070	0.045
-243.961	100.253	0.139	-0.160
-242.946	-200.000	0.028	-0.200
-241.932	-200.000	0.092	-0.402
-240.917	-77.024	0.172	0.060
-239.903	-49.167	-0.016	-0.008
-238.888	168.203	-0.192	0.271
-237.873	123.190	-0.187	0.232
-236.859	800.000	-0.065	0.195
-235.844	800.000	0.073	-0.235
-234.830	378.429	-0.111	0.225
-233.815	79.165	0.059	-0.063
-232.800	-66.257	-0.165	-0.065
-231.786	-200.000	0.047	0.296
-230.771	136.982	0.135	-0.175
-229.757	-169.106	0.173	-0.006
-228.742	-35.266	-0.340	-0.183
-227.727	239.666	-0.234	0.387
-226.713	-200.000	-0.023	0.162
-225.698	6.106	-0.103	0.076
-224.684	54.038	0.192	0.182
-223.669	-96.101	0.101	0.027
-222.655	1.824	-0.179	0.128
-221.640	-156.208	0.112	0.007
-220.625	379.754	0.153	-0.310
-219.611	-200.000	0.031	-0.180
-218.596	-19.011	-0.125	0.077
-217.582	-104.136	0.379	0.087
-216.567	-200.000	-0.070	0.323
-215.552	-114.954	0.297	0.056
-214.538	-1.884	0.163	-0.114
-213.523	-200.000	0.006	-0.283
-212.509	4.511	0.040	0.029
-211.494	-45.016	-0.460	0.227
-210.479	-65.196	0.080	0.032
-209.465	579.677	-0.091	-0.221
-208.450	-38.393	0.142	0.074
-207.436	800.000	0.073	0.272
-206.421	21.369	-0.198	0.160
-205.406	46.403	0.064	0.059
-204.392	188.205	0.119	0.176
-203.377	70.988	-0.068	0.070
-202.363	800.000	0.086	-0.249
-201.348	428.151	-0.024	0.051
-200.333	-111.249	-0.259	0.052
-199.319	21.983	-0.107	-0.086
-198.304	800.000	-0.083	-0.303
-197.290	432.616	0.104	-0.223
-196.275	-54.731	0.263	-0.117
-195.260	-98.231	0.384	0.098
-194.246	-199.822	-0.150	0.001
-193.231	99.462	0.217	-0.248
-192.217	129.646	-0.192	0.243
-191.202	-85.969	0.232	-0.071
-190.187	800.000	-0.130	-0.417
-189.173	620.748	0.067	0.166
-188.158	-67.385	0.135	0.052
-187.144	32.964	-0.102	-0.087
-186.129	64.777	0.109	-0.108
-185.114	29.144	0.114	0.096
-184.100	-31.590	0.322	-0.179
-183.085	-200.000	-0.034	0.293
-182.071	49.627	-0.165	0.154
-181.056	-86.705	-0.308	0.093
-180.042	-57.421	0.109	-0.047
-179.027	281.431	-0.046	-0.081
-178.012	380.685	0.084	-0.171
-176.998	-31.830	0.112	0.062
-175.983	-34.401	-0.251	0.136
-174.969	-63.925	-0.268	-0.108
-173.954	-48.034	0.105	0.050
-172.939	166.271	-0.138	0.194
-171.925	-123.169	0.193	-0.031
-170.910	391.596	-0.155	-0.318
-169.896	-67.235	-0.158	0.061
-168.881	57.109	0.207	-0.199
-167.866	-200.000	-0.039	-0.239
-166.852	-200.000	-0.038	0.200
-165.837	-13.357	-0.050	-0.032
-164.823	142.900	-0.095	-0.125
-163.808	-4.120	0.247	-0.169
-162.793	-13.917	0.389	0.249
-161.779	-179.468	0.123	-0.003
-160.764	-5.093	-0.276	0.187
-159.750	468.368	-0.081	0.180
-158.735	-9.158	-0.245	0.162
-157.720	556.519	-0.121	-0.289
-156.706	-114.994	0.043	-0.008
-155.691	-67.231	-0.097	0.038
-154.677	23.866	0.197	0.160
-153.662	40.367	-0.145	0.129
-152.647	-200.000	0.033	0.239
-151.633	140.939	-0.136	0.177
-150.618	-37.322	0.167	-0.088
-149.604	-200.000	-0.024	-0.147
-148.589	-200.000	-0.013	0.095
-147.574	-200.000	-0.003	0.210
-146.560	-200.000	0.023	-0.102
-145.545	-181.930	-0.356	-0.007
-144.531	-41.198	0.322	-0.164
-143.516	-123.748	-0.087	-0.014
-142.502	800.000	-0.165	-0.509
-141.487	-200.000	-0.013	0.098
-140.472	-36.317	-0.248	-0.132
-139.458	165.831	0.231	0.322
-138.443	202.985	0.099	0.151
-137.429	306.556	-0.052	0.095
-136.414	-200.000	0.042	0.279
-135.399	-200.000	0.007	0.065
-134.385	196.712	0.100	-0.151
-133.370	-145.853	0.130	0.011
-132.356	800.000	-0.009	0.033
-131.341	-115.975	0.179	-0.033
-130.326	-106.459	-0.397	-0.087
-129.312	136.948	-0.100	0.130
-128.297	-66.365	-0.329	-0.129
-127.283	-130.253	-0.435	0.058
-126.268	-167.642	-0.223	-0.009
-125.253	376.051	0.127	0.256
-124.239	-38.228	-0.161	0.084
-123.224	-200.000	0.003	-0.144
-122.210	-32.595	-0.141	-0.077
-121.195	-97.228	-0.112	-0.029
-120.180	-77.637	-0.338	0.115
-119.166	-29.166	-0.152	-0.086
-118.151	-75.603	0.086	0.030
-117.137	-11.311	-0.118	-0.077
-116.122	-90.353	0.067	-0.019
-115.107	-22.889	-0.210	0.125
-114.093	366.720	0.143	-0.285
-113.078	800.000	0.050	-0.155
-112.064	316.543	-0.057	0.106
-111.049	-88.993	-0.191	-0.056
-110.034	76.213	-0.266	-0.277
-109.020	340.245	-0.012	-0.022
-108.005	-200.000	0.017	-0.250
-106.991	-112.257	0.229	-0.045
-105.976	308.567	0.031	0.056
-104.962	-79.391	0.128	0.043
-103.947	135.663	-0.023	0.030
-102.932	320.574	0.057	0.107
-101.918	15.088	-0.032	0.024
-100.903	-200.000	0.060	-0.343
-99.889	-140.787	-0.457	0.046
-98.874	121.541	-0.078	0.096
-97.859	-149.699	0.155	-0.012
-96.845	-0.756	0.059	-0.041
-95.830	617.300	-0.043	-0.106
-94.816	623.735	0.025	-0.063
-93.801	-200.000	-0.012	0.068
-92.786	563.355	-0.131	-0.313
-91.772	55.414	-0.046	0.044
-90.757	448.999	-0.035	0.076
-89.743	-200.000	-0.002	-0.027
-88.728	-45.476	0.224	-0.109
-87.713	261.968	0.298	-0.509
-86.699	-61.889	0.020	0.008
-85.684	-200.000	0.004	0.064
-84.670	-74.488	0.418	-0.149
-83.655	-64.114	0.185	-0.074
-82.640	-200.000	0.069	-0.371
-81.626	-37.053	-0.217	-0.114
-80.611	-104.198	0.134	0.031
-79.597	800.000	-0.048	-0.193
-78.582	-109.131	-0.050	0.010
-77.567	-115.074	-0.120	-0.022
-76.553	-118.292	0.064	0.011
-75.538	-200.000	0.075	0.502
-74.524	161.074	-0.140	0.193
-73.509	-200.000	0.025	-0.242
-72.494	-144.528	0.163	0.015
-71.480	167.057	0.214	-0.299
-70.465	800.000	0.079	0.234
-69.451	-169.122	0.268	0.010
-68.436	-25.449	0.241	-0.140
-67.422	343.619	-0.076	-0.146
-66.407	82.952	0.032	-0.035
-65.392	800.000	0.046	0.172
-64.378	512.326	0.185	-0.424
-63.363	283.935	0.124	-0.220
-62.349	9.698	-0.061	-0.045
-61.334	64.383	-0.892	-0.884
-60.319	130.761	0.268	0.339
-59.305	800.000	-0.236	-1.016
-58.290	245.836	0.523	0.866
-57.276	654.240	0.559	1.411
-56.261	-200.000	96.127	572.741
-55.246	517.474	1429.159	3288.919
-54.232	150.500	2622.373	3503.796
-53.217	105.256	2316.573	2690.616
-52.203	41.759	1928.657	1719.533
-51.188	35.544	1716.899	1482.873
-50.173	32.845	1672.028	1423.730
-49.159	50.981	1717.624	1601.408
-48.144	52.284	1734.088	1626.636
-47.130	35.341	1695.208	1462.360
-46.115	32.399	1681.406	1428.106
-45.100	32.244	1676.024	1422.308
-44.086	32.202	1673.403	1419.705
-43.071	32.195	1671.166	1417.705
-42.057	32.112	1668.942	1415.131
-41.042	32.194	1666.193	1413.366
-40.027	32.263	1664.453	1412.348
-39.013	32.054	1663.078	1409.555
-37.998	32.198	1660.907	1408.742
-36.984	32.208	1659.605	1407.659
-35.969	32.255	1658.782	1407.253
-34.954	32.329	1657.122	1406.346
-33.940	32.329	1654.746	1404.268
-32.925	32.282	1653.410	1402.730
-31.911	32.278	1651.828	1401.306
-30.896	32.320	1649.437	1399.528
-29.881	32.235	1648.285	1397.868
-28.867	32.312	1646.418	1396.803
-27.852	32.336	1644.691	1395.458
-26.838	32.319	1643.080	1393.910
-25.823	32.331	1641.673	1392.752
-24.809	32.354	1640.219	1391.630
-23.794	32.282	1639.709	1390.609
-22.779	32.347	1637.734	1389.363
-21.765	32.316	1636.328	1387.880
-20.750	32.280	1634.435	1385.958
-19.736	32.313	1633.269	1385.156
-18.721	32.370	1631.609	1384.113
-17.706	32.342	1630.264	1382.715
-16.692	32.317	1628.487	1380.965
-15.677	32.256	1627.426	1379.560
-14.663	32.359	1626.154	1379.188
-13.648	32.410	1624.484	1378.090
-12.633	32.344	1622.938	1376.241
-11.619	32.288	1621.300	1374.384
-10.604	32.343	1619.594	1373.289
-9.590	32.315	1618.503	1372.104
-8.575	32.364	1617.284	1371.372
-7.560	32.265	1616.206	1369.681
-6.546	32.345	1614.803	1369.025
-5.531	32.339	1613.639	1367.934
-4.517	32.308	1612.594	1366.770
-3.502	32.420	1611.187	1366.337
-2.487	32.391	1609.891	1364.976
-1.473	32.457	1598.556	1355.787
-0.458	30.391	1580.087	1325.343
0.556	25.600	1580.675	1295.077
1.571	22.964	1603.411	1294.311
2.586	22.149	1616.195	1298.494
3.600	20.148	1563.639	1241.841
4.615	11.370	1449.628	1092.647
5.629	2.438	1380.838	983.508
6.644	0.517	1371.998	964.853
7.659	0.441	1370.805	963.442
8.673	0.339	1369.738	961.958
9.688	0.353	1367.523	960.403
10.702	0.218	1364.750	957.512
11.717	4.076	1372.230	987.307
12.731	12.979	1386.258	1054.431
13.746	17.907	1391.498	1089.858
14.761	17.419	1390.030	1085.503
15.775	16.462	1387.090	1077.011
16.790	15.551	1384.177	1068.864
17.804	14.572	1382.490	1061.243
18.819	14.261	1380.571	1057.695
19.834	14.018	1379.330	1055.109
20.848	13.750	1378.099	1052.379
21.863	13.529	1377.111	1050.126
22.877	13.428	1375.495	1048.162
23.892	13.359	1374.803	1047.105
24.907	13.290	1373.850	1045.851
25.921	13.387	1372.814	1045.580
26.936	13.374	1372.187	1044.928
27.950	13.382	1371.106	1044.066
28.965	13.371	1370.879	1043.732
29.980	13.497	1369.395	1043.304
30.994	13.556	1368.077	1042.576
32.009	13.560	1367.202	1041.844
33.023	13.580	1366.313	1041.199
34.038	13.495	1365.005	1039.578
35.053	13.493	1363.704	1038.484
36.067	13.462	1362.803	1037.511
37.082	13.448	1362.106	1036.799
38.096	13.571	1361.113	1036.723
39.111	13.482	1360.180	1035.360
40.126	13.421	1359.145	1034.101
41.140	13.385	1358.324	1033.162
42.155	13.310	1358.145	1032.466
43.169	13.316	1357.904	1032.228
44.184	13.304	1357.564	1031.803
45.199	13.270	1357.395	1031.371
46.213	13.402	1356.536	1031.450
47.228	13.496	1355.622	1031.247
48.242	13.368	1354.729	1029.680
49.257	13.352	1352.878	1028.087
50.271	13.513	1351.130	1027.663
51.286	13.435	1350.585	1026.676
52.301	13.424	1348.866	1025.210
53.315	13.507	1348.018	1024.985
54.330	13.463	1347.067	1023.903
55.344	13.366	1345.644	1022.130
56.359	13.449	1344.252	1021.493
57.374	13.406	1343.795	1020.792
58.388	13.313	1343.265	1019.725
59.403	13.299	1342.565	1019.020
60.417	13.328	1342.085	1018.739
61.432	13.338	1340.784	1017.723
62.447	13.275	1339.918	1016.590
63.461	13.271	1338.779	1015.615
64.476	13.243	1338.085	1014.824
65.490	13.254	1336.688	1013.745
66.505	13.271	1335.367	1012.758
67.520	13.280	1333.703	1011.460
68.534	13.336	1332.754	1010.991
69.549	13.387	1332.136	1010.744
70.563	13.267	1331.020	1009.075
71.578	13.280	1329.766	1008.117
72.593	13.168	1328.838	1006.638
73.607	13.223	1328.201	1006.406
74.622	13.206	1327.166	1005.430
75.636	13.306	1326.349	1005.328
76.651	13.208	1325.575	1004.055
77.666	13.140	1325.525	1003.516
78.680	13.178	1324.561	1002.931
79.695	13.217	1323.853	1002.540
80.709	13.234	1322.915	1001.845
81.724	13.269	1322.260	1001.474
82.739	13.348	1320.867	1000.803
83.753	13.434	1319.869	1000.483
84.768	13.436	1318.985	999.731
85.782	13.488	1317.767	999.034
86.797	13.384	1316.927	997.685
87.812	13.465	1315.059	996.668
88.826	13.483	1314.114	995.973
89.841	13.451	1313.430	995.171
90.855	13.416	1312.790	994.391
91.870	13.506	1311.655	993.984
92.884	13.620	1310.588	993.771
93.899	13.607	1309.604	992.858
94.914	13.592	1309.161	992.343
95.928	13.689	1308.135	992.059
96.943	13.555	1307.681	990.828
97.957	13.516	1306.864	989.887
98.972	13.563	1305.642	989.153
99.987	13.500	1304.738	988.005
101.001	13.562	1303.269	987.175
102.016	13.495	1302.813	986.344
103.030	13.594	1301.467	985.824
104.045	13.514	1300.434	984.478
105.060	13.470	1299.258	983.242
106.074	13.451	1297.828	981.962
107.089	13.322	1296.676	980.239
108.103	13.416	1295.393	979.738
109.118	13.389	1294.068	978.489
110.133	13.463	1293.024	978.048
111.147	13.349	1291.480	976.124
112.162	13.438	1290.208	975.602
113.176	13.389	1289.307	974.543
114.191	13.432	1288.304	973.950
115.206	13.401	1287.273	972.905
116.220	13.505	1285.996	972.464
117.235	13.424	1285.188	971.292
118.249	13.361	1284.206	970.093
119.264	13.422	1283.089	969.519
120.279	13.365	1281.900	968.205
121.293	13.306	1281.280	967.304
122.308	13.387	1280.163	966.851
123.322	13.395	1278.934	965.881
124.337	13.420	1277.879	965.145
125.352	13.399	1276.696	964.046
126.366	13.330	1275.562	962.702
127.381	13.387	1274.392	962.063
128.395	13.426	1273.487	961.525
129.410	13.387	1272.347	960.354
130.424	13.321	1271.969	959.596
131.439	13.410	1271.405	959.601
132.454	13.464	1270.228	958.944
133.468	13.421	1269.347	957.946
134.483	13.440	1268.639	957.433
135.497	13.467	1267.289	956.484
136.512	13.494	1265.958	955.555
137.527	13.533	1264.466	954.570
138.541	13.442	1263.349	953.114
139.556	13.442	1261.768	951.841
140.570	13.540	1261.031	951.761
141.585	13.602	1259.798	951.101
142.600	13.661	1258.723	950.543
143.614	13.653	1256.970	949.089
144.629	13.642	1256.436	948.541
145.643	13.717	1255.115	947.886
146.658	13.652	1253.972	946.569
147.673	13.639	1252.669	945.428
148.687	13.535	1251.273	943.697
149.702	13.495	1249.938	942.384
150.716	13.560	1248.504	941.587
151.731	13.675	1247.357	941.294
152.746	13.581	1246.158	939.768
153.760	13.630	1244.750	938.904
154.775	13.601	1243.761	937.909
155.789	13.703	1242.609	937.534
156.804	13.594	1242.102	936.453
157.819	13.664	1240.742	935.741
158.833	13.736	1239.589	935.192
159.848	13.724	1238.496	934.221
160.862	13.812	1237.104	933.582
161.877	13.716	1236.366	932.405
162.892	13.546	1235.698	930.861
163.906	13.632	1234.887	930.652
164.921	13.745	1233.551	930.197
165.935	13.666	1233.150	929.368
166.950	13.653	1231.971	928.322
167.964	13.689	1231.303	927.942
168.979	13.718	1230.388	927.328
169.994	13.659	1229.834	926.502
171.008	13.783	1228.941	926.441
172.023	13.807	1227.980	925.766
173.037	13.942	1227.126	925.794
174.052	13.793	1226.337	924.285
175.067	13.680	1225.271	922.774
176.081	13.732	1224.213	922.181
177.096	13.746	1223.220	921.432
178.110	13.633	1222.677	920.312
179.125	13.847	1220.884	920.070
180.140	13.844	1219.776	919.138
181.154	13.835	1218.432	917.989
182.169	13.764	1217.797	917.041
183.183	13.889	1216.103	916.373
184.198	13.957	1215.010	915.842
185.213	14.033	1213.658	915.161
186.227	13.900	1212.594	913.545
187.242	13.873	1211.639	912.595
188.256	14.125	1210.398	912.965
189.271	14.068	1210.120	912.364
190.286	13.869	1209.203	910.499
191.300	13.841	1207.808	909.213
192.315	13.863	1207.152	908.761
193.329	13.868	1206.555	908.260
194.344	13.882	1206.390	908.131
195.359	13.946	1205.778	907.937
196.373	13.935	1205.407	907.520
197.388	13.993	1204.552	907.112
198.402	14.010	1204.238	906.889
199.417	14.127	1203.468	906.864
200.432	14.165	1202.542	906.297
201.446	14.109	1201.972	905.481
202.461	14.224	1200.621	905.007
203.475	14.267	1199.810	904.550
204.490	14.261	1197.952	903.033
205.504	14.282	1196.911	902.285
206.519	14.293	1195.825	901.448
207.534	14.280	1194.478	900.279
208.548	14.221	1193.517	899.159
209.563	14.128	1193.215	898.351
210.577	14.228	1192.268	898.094
211.592	14.265	1191.559	897.684
212.607	14.307	1190.764	897.232
213.621	14.254	1189.819	896.155
214.636	14.414	1188.449	895.900
215.650	14.406	1187.939	895.396
216.665	14.376	1187.017	894.458
217.680	14.379	1186.003	893.634
218.694	14.425	1185.164	893.167
219.709	14.409	1184.329	892.375
220.723	14.440	1183.492	891.830
221.738	14.431	1183.100	891.409
222.753	14.452	1182.040	890.645
223.767	14.509	1181.366	890.362
224.782	14.443	1180.810	889.511
225.796	14.533	1180.300	889.526
226.811	14.460	1179.950	888.796
227.826	14.546	1178.769	888.288
228.840	14.589	1178.077	887.912
229.855	14.623	1177.000	887.205
230.869	14.592	1176.374	886.491
231.884	14.503	1175.721	885.445
232.899	14.467	1174.828	884.507
233.913	14.501	1174.521	884.378
234.928	14.529	1173.401	883.601
235.942	14.527	1172.546	882.872
236.957	14.458	1172.044	882.047
237.972	14.526	1171.267	881.748
238.986	14.489	1170.968	881.247
240.001	14.586	1169.962	880.922
241.015	14.618	1168.979	880.275
242.030	14.555	1168.236	879.306
243.045	14.669	1167.304	879.126
244.059	14.703	1166.624	878.716
245.074	14.682	1166.072	878.110
246.088	14.626	1165.490	877.303
247.103	14.854	1164.070	877.352
248.117	14.853	1163.607	876.919
249.132	14.919	1162.742	876.536
250.147	14.905	1162.086	875.890
251.161	14.875	1161.430	875.162
252.176	14.929	1160.594	874.735
253.190	15.102	1159.873	875.020
254.205	15.117	1159.581	874.803
255.220	15.030	1158.973	873.812
256.234	15.115	1157.893	873.362
257.249	15.039	1157.800	872.821
258.263	15.078	1156.724	872.132
259.278	15.033	1156.344	871.535
260.293	15.060	1155.982	871.325
261.307	15.093	1155.318	870.921
262.322	15.165	1154.780	870.810
263.336	15.231	1153.403	870.040
264.351	15.206	1153.139	869.636
265.366	15.246	1152.537	869.310
266.380	15.284	1151.766	868.845
267.395	15.305	1150.883	868.213
268.409	15.228	1150.129	867.172
269.424	15.102	1149.799	866.193
270.439	15.156	1148.911	865.723
271.453	15.181	1148.266	865.290
272.468	15.204	1147.324	864.625
273.482	15.179	1146.564	863.844
274.497	15.301	1145.508	863.603
275.512	15.224	1145.400	863.050
276.526	15.217	1144.597	862.331
277.541	15.277	1143.663	861.858
278.555	15.340	1143.145	861.717
279.570	15.425	1142.559	861.636
280.585	15.452	1141.420	860.840
281.599	15.456	1140.517	860.103
282.614	15.297	1140.083	858.882
283.628	15.417	1138.402	858.153
284.643	15.391	1137.540	857.297
285.657	15.332	1136.822	856.378
286.672	15.390	1136.055	856.023
287.687	15.472	1134.898	855.493
288.701	15.397	1134.573	854.788
289.716	15.345	1133.632	853.739
290.730	15.436	1132.870	853.553
291.745	15.491	1132.202	853.253
292.760	15.655	1131.549	853.519
293.774	15.639	1131.034	852.976
294.789	15.635	1130.304	852.327
295.803	15.647	1129.882	851.996
296.818	15.572	1129.062	850.919
297.833	15.582	1128.331	850.346
298.847	15.637	1127.573	849.979
299.862	15.694	1126.158	849.122
300.876	15.697	1125.515	848.576
301.891	15.689	1125.334	848.323
302.906	15.748	1124.404	847.846
303.920	15.729	1123.878	847.279
304.935	15.800	1123.334	847.152
305.949	15.905	1122.450	846.938
306.964	15.932	1121.371	846.186
307.979	15.863	1120.836	845.362
308.993	15.847	1120.195	844.724
310.008	15.845	1119.755	844.303
311.022	15.929	1118.797	843.930
312.037	15.909	1117.986	843.140
313.052	16.006	1117.000	842.808
314.066	15.823	1116.225	841.233
315.081	15.840	1115.649	840.811
316.095	15.837	1114.689	840.000
317.110	15.777	1113.952	839.070
318.125	15.910	1113.302	839.169
319.139	15.866	1112.538	838.298
320.154	15.792	1111.920	837.389
321.168	15.992	1111.180	837.755
322.183	15.861	1110.976	836.875
323.197	15.950	1109.755	836.323
324.212	15.915	1109.202	835.660
325.227	15.924	1108.867	835.378
326.241	15.877	1108.493	834.790
327.256	16.003	1107.458	834.559
328.270	15.904	1106.768	833.477
329.285	15.901	1105.178	832.191
330.300	16.036	1104.410	832.207
331.314	15.946	1103.339	830.878
332.329	15.942	1102.609	830.238
333.343	16.125	1101.600	830.306
334.358	16.063	1100.736	829.277
335.373	16.149	1100.297	829.293
336.387	16.079	1099.801	828.502
337.402	16.055	1098.672	827.462
338.416	16.237	1097.706	827.551
339.431	16.199	1097.327	827.008
340.446	16.286	1097.044	827.147
341.460	16.292	1096.087	826.384
342.475	16.387	1095.278	826.162
343.489	16.317	1094.500	825.161
344.504	16.343	1093.346	824.344
345.519	16.340	1092.438	823.575
346.533	16.360	1091.944	823.228
347.548	16.461	1090.819	822.795
348.562	16.423	1090.331	822.172
349.577	16.292	1089.796	821.055
350.592	16.349	1089.022	820.679
351.606	16.294	1088.166	819.692
352.621	16.462	1087.346	819.817
353.635	16.302	1086.899	818.632
354.650	16.347	1086.134	818.202
355.665	16.323	1085.681	817.672
356.679	16.426	1084.590	817.277
357.694	16.411	1083.873	816.594
358.708	16.466	1083.364	816.404
359.723	16.517	1082.741	816.106
360.738	16.559	1082.213	815.838
361.752	16.574	1081.923	815.618
362.767	16.567	1081.046	814.852
363.781	16.476	1080.536	813.958
364.796	16.589	1080.125	814.123
365.810	16.558	1079.499	813.426
366.825	16.613	1078.584	812.928
367.840	16.594	1078.296	812.552
368.854	16.854	1077.076	812.805
369.869	16.744	1076.498	811.771
370.883	16.763	1075.721	811.202
371.898	16.705	1074.953	810.276
372.913	16.828	1074.233	810.248
373.927	16.901	1073.879	810.258
374.942	16.725	1073.651	809.173
375.956	16.700	1072.751	808.303
376.971	16.795	1072.433	808.449
377.986	16.867	1071.745	808.201
379.000	16.863	1071.198	807.697
380.015	16.983	1070.483	807.661
381.029	16.923	1070.049	806.976
382.044	16.908	1069.564	806.465
383.059	16.996	1068.655	806.126
384.073	17.105	1067.623	805.795
385.088	16.999	1067.198	804.900
386.102	16.977	1066.021	803.835
387.117	17.001	1065.032	803.133
388.132	16.953	1063.966	802.034
389.146	17.028	1063.332	801.836
390.161	17.039	1062.462	801.161
391.175	16.985	1062.039	800.518
392.190	16.929	1061.488	799.766
393.205	17.022	1060.476	799.371
394.219	17.032	1059.959	798.961
395.234	17.195	1058.593	798.624
396.248	17.211	1057.629	797.903
397.263	17.113	1056.887	796.813
398.278	16.933	1056.482	795.591
399.292	17.073	1055.323	795.307
400.307	16.993	1054.794	794.459
401.321	17.041	1054.104	794.096
402.336	17.034	1053.492	793.530
403.350	17.073	1052.829	793.146
404.365	17.225	1051.834	793.034
405.380	17.085	1051.614	792.146
406.394	17.108	1051.198	791.869
407.409	17.267	1049.876	791.541
408.423	17.305	1049.059	791.031
409.438	17.245	1048.643	790.370
410.453	17.405	1047.903	790.485
411.467	17.294	1047.402	789.525
412.482	17.449	1046.358	789.383
413.496	17.387	1045.641	788.486
414.511	17.387	1045.465	788.283
415.526	17.309	1045.115	787.590
416.540	17.536	1044.356	787.998
417.555	17.515	1043.783	787.397
418.569	17.471	1043.647	787.022
419.584	17.475	1043.145	786.595
420.599	17.516	1042.072	785.904
421.613	101.191	1318.048	1455.764
422.628	92.937	1358.253	1455.869
