DTS Sentinel unit serial number:	SN413079Multiplexer serial number:	ORYXHardware model number:	OX4-SRSoftware version number:	ORYX F/W v4.00 Oryx Data Collector v3.7.2.0data status	okinstallation	princeton_trtdifferential loss correction	single-endedforward channel	channel 2reverse channel	N/Adate	2019/09/11time	20:09:11forward acquisition time	60.00reverse acquisition time	0.00gamma	496.2192k internal	0.2315k external	0.2315temperature offset calibration	1.0053default loss term (dB/km)	0.3790temperature slope calibration	1.0000multiplexer offset coefficient	1.0000multiplexer slope coefficient	1.0000fibre end	0.00T internal ref (°C)	38.44T ext. ref 1 (°C)	1.43T ext. ref 2 (°C)	31.94length (m)	temperature (°C)	Stokes	anti-Stokes-747.200	-200.000	-0.020	0.091
-746.185	-14.516	-0.062	0.040
-745.171	-200.000	0.000	0.035
-744.156	-200.000	0.023	0.215
-743.142	13.973	0.073	0.057
-742.127	-200.000	-0.012	0.257
-741.112	-200.000	0.006	0.064
-740.098	800.000	0.066	0.262
-739.083	-115.728	0.194	0.037
-738.069	173.268	-0.168	0.245
-737.054	78.046	0.152	0.164
-736.039	-104.050	-0.066	-0.016
-735.025	-76.122	0.072	0.026
-734.010	-105.614	0.156	-0.036
-732.996	62.440	0.321	-0.324
-731.981	-167.788	-0.244	0.010
-730.966	-200.000	0.032	0.215
-729.952	-78.387	-0.232	-0.081
-728.937	-46.392	-0.252	-0.126
-727.923	-31.152	0.145	-0.083
-726.908	-10.275	-0.120	-0.081
-725.894	146.856	-0.063	-0.086
-724.879	-119.455	-0.289	0.051
-723.864	-99.370	-0.147	-0.038
-722.850	-20.869	-0.276	0.171
-721.835	-76.771	-0.181	-0.064
-720.821	240.962	0.050	0.084
-719.806	-200.000	-0.039	-0.338
-718.791	697.818	-0.127	-0.339
-717.777	-146.950	-0.473	-0.041
-716.762	-168.738	-0.618	-0.024
-715.748	71.426	0.083	-0.087
-714.733	-36.192	-0.345	0.188
-713.718	123.268	-0.126	-0.160
-712.704	-52.037	-0.058	-0.027
-711.689	225.577	-0.146	0.239
-710.675	-150.674	-0.363	-0.028
-709.660	286.613	-0.079	-0.145
-708.645	-30.468	0.054	-0.031
-707.631	-85.055	-0.167	0.053
-706.616	245.988	0.073	0.124
-705.602	-62.626	0.500	-0.210
-704.587	455.016	0.136	-0.305
-703.572	-96.162	-0.199	-0.053
-702.558	-200.000	-0.026	0.153
-701.543	168.844	-0.165	0.238
-700.529	9.088	-0.113	0.086
-699.514	159.963	-0.125	0.176
-698.499	177.073	-0.107	-0.158
-697.485	-41.336	-0.322	0.168
-696.470	-131.161	0.159	0.021
-695.456	-200.000	-0.026	0.161
-694.441	82.496	-0.284	-0.312
-693.426	238.907	0.111	0.186
-692.412	24.775	-0.151	0.127
-691.397	12.541	0.225	-0.175
-690.383	800.000	-0.020	0.088
-689.368	701.468	0.015	-0.039
-688.354	15.574	-0.058	0.046
-687.339	34.783	-0.253	-0.224
-686.324	800.000	-0.036	0.142
-685.310	326.799	-0.259	0.502
-684.295	114.267	0.120	-0.148
-683.281	-4.739	-0.194	0.135
-682.266	-83.248	-0.091	-0.030
-681.251	117.921	0.101	-0.126
-680.237	-20.567	0.192	-0.120
-679.222	-172.788	0.340	-0.011
-678.208	-3.757	0.081	0.057
-677.193	-61.687	0.460	0.195
-676.178	-200.000	-0.027	-0.229
-675.164	171.447	-0.081	0.118
-674.149	41.915	-0.091	-0.083
-673.135	106.603	0.275	0.330
-672.120	-32.673	0.025	0.014
-671.105	-26.071	0.148	-0.088
-670.091	800.000	0.087	-0.246
-669.076	436.492	0.053	-0.117
-668.062	-7.893	-0.229	0.156
-667.047	-200.000	0.002	-0.128
-666.032	360.173	-0.119	-0.240
-665.018	-168.109	0.399	0.016
-664.003	224.901	0.191	0.312
-662.989	-82.468	0.402	-0.132
-661.974	207.808	0.135	-0.213
-660.959	48.078	0.218	-0.206
-659.945	-134.158	-0.160	0.020
-658.930	-200.000	-0.029	0.231
-657.916	-200.000	0.002	-0.105
-656.901	-173.216	-0.203	-0.006
-655.886	-200.000	-0.068	0.325
-654.872	32.755	-0.261	0.228
-653.857	-93.066	-0.142	0.040
-652.843	323.696	-0.191	-0.368
-651.828	-38.826	-0.290	-0.155
-650.814	-200.000	-0.032	0.269
-649.799	-83.226	-0.463	0.150
-648.784	316.947	0.158	-0.301
-647.770	234.273	-0.106	-0.176
-646.755	271.662	-0.072	-0.128
-645.741	143.672	-0.267	0.360
-644.726	181.003	0.059	0.088
-643.711	4.390	-0.266	0.197
-642.697	283.261	-0.144	0.260
-641.682	23.128	0.232	-0.193
-640.668	-74.468	0.175	0.064
-639.653	767.949	0.082	0.224
-638.638	338.352	-0.227	-0.446
-637.624	800.000	0.064	-0.238
-636.609	278.507	0.091	0.163
-635.595	-97.992	0.099	0.026
-634.580	42.791	0.089	0.082
-633.565	-200.000	0.004	-0.027
-632.551	-200.000	-0.027	0.325
-631.536	690.480	0.072	-0.189
-630.522	74.782	0.238	0.253
-629.507	-200.000	0.007	-0.139
-628.492	89.301	-0.181	-0.204
-627.478	-64.852	0.364	-0.148
-626.463	232.573	0.117	-0.193
-625.449	-200.000	0.058	-0.690
-624.434	323.379	-0.019	0.036
-623.419	800.000	0.031	-0.106
-622.405	37.037	-0.142	0.126
-621.390	119.314	0.317	0.396
-620.376	-31.055	-0.230	0.131
-619.361	286.090	-0.032	-0.058
-618.346	13.919	-0.120	-0.094
-617.332	-63.821	0.265	-0.109
-616.317	122.659	-0.104	0.131
-615.303	76.033	0.077	0.082
-614.288	74.794	-0.196	-0.208
-613.273	133.153	-0.106	0.138
-612.259	-61.001	-0.330	0.140
-611.244	240.168	0.082	-0.137
-610.230	-16.115	0.155	-0.099
-609.215	-107.270	0.129	-0.029
-608.201	580.393	0.046	-0.114
-607.186	-134.630	0.241	0.030
-606.171	-102.635	-0.309	0.074
-605.157	226.899	0.267	0.436
-604.142	153.586	0.052	-0.071
-603.128	62.921	-0.088	-0.089
-602.113	474.834	-0.034	-0.077
-601.098	-200.000	0.008	0.101
-600.084	341.055	0.043	0.084
-599.069	-99.162	-0.096	-0.025
-598.055	-6.148	-0.158	0.109
-597.040	-149.087	-0.260	-0.021
-596.025	-88.903	0.187	-0.056
-595.011	90.033	-0.164	-0.185
-593.996	-33.025	-0.458	-0.256
-592.982	53.437	-0.306	-0.296
-591.967	-139.757	0.149	-0.016
-590.952	581.676	0.095	-0.235
-589.938	161.680	-0.156	-0.220
-588.923	-140.040	-0.208	-0.022
-587.909	-69.132	0.327	-0.127
-586.894	-200.000	0.017	-0.352
-585.879	-200.000	0.036	0.357
-584.865	-61.605	-0.244	-0.103
-583.850	-200.000	-0.001	0.110
-582.836	15.255	-0.243	0.192
-581.821	139.349	-0.089	0.118
-580.806	778.028	0.055	0.151
-579.792	16.747	-0.247	-0.197
-578.777	-121.705	-0.124	0.021
-577.763	57.806	0.056	-0.055
-576.748	-22.054	0.349	0.213
-575.733	560.972	-0.075	0.184
-574.719	160.786	0.124	-0.175
-573.704	800.000	-0.047	-0.191
-572.690	308.301	0.129	-0.242
-571.675	-200.000	-0.035	0.198
-570.661	800.000	0.076	-0.218
-569.646	-200.000	-0.118	0.565
-568.631	-200.000	-0.015	0.113
-567.617	-5.018	0.169	-0.117
-566.602	619.568	-0.087	-0.220
-565.588	-125.467	-0.141	0.022
-564.573	-200.000	0.009	0.040
-563.558	406.389	0.115	0.245
-562.544	87.416	-0.173	0.192
-561.529	492.929	-0.125	0.288
-560.515	-7.724	0.205	0.139
-559.500	83.147	0.245	-0.269
-558.485	-181.792	0.119	-0.002
-557.471	800.000	-0.040	0.154
-556.456	-98.653	-0.060	-0.016
-555.442	253.565	0.110	-0.190
-554.427	31.629	-0.072	0.063
-553.412	-29.242	-0.246	-0.142
-552.398	-200.000	0.093	-0.533
-551.383	56.291	0.145	0.142
-550.369	-200.000	-0.010	-0.174
-549.354	175.683	0.138	0.201
-548.339	-91.109	-0.102	0.029
-547.325	800.000	-0.036	-0.133
-546.310	-42.038	-0.239	0.123
-545.296	-72.062	0.146	0.055
-544.281	-83.782	0.400	0.128
-543.266	161.350	-0.105	0.147
-542.252	-200.000	0.018	0.139
-541.237	800.000	-0.026	-0.113
-540.223	189.569	0.172	0.259
-539.208	477.528	-0.229	-0.521
-538.193	-66.270	0.132	-0.053
-537.179	312.485	0.167	0.315
-536.164	69.810	0.153	0.159
-535.150	-200.000	-0.012	0.123
-534.135	594.689	0.149	-0.369
-533.121	400.040	0.068	-0.144
-532.106	271.574	-0.154	0.273
-531.091	207.869	-0.158	0.248
-530.077	53.730	-0.037	-0.036
-529.062	-63.683	0.176	-0.072
-528.048	-30.475	0.337	-0.192
-527.033	-200.000	-0.043	-0.300
-526.018	-63.680	-0.165	-0.068
-525.004	-152.422	0.145	0.010
-523.989	247.106	0.128	-0.216
-522.975	551.375	0.085	-0.205
-521.960	-200.000	0.027	0.276
-520.945	119.679	0.319	0.397
-519.931	130.111	0.080	0.103
-518.916	-163.656	0.440	-0.021
-517.902	22.533	-0.106	0.087
-516.887	117.938	-0.144	0.178
-515.872	-102.314	-0.255	0.061
-514.858	-66.619	0.105	-0.042
-513.843	-47.819	-0.162	-0.079
-512.829	130.736	0.171	0.221
-511.814	720.634	-0.073	-0.196
-510.799	-31.518	0.035	0.020
-509.785	-39.213	-0.182	0.096
-508.770	-48.525	0.143	0.069
-507.756	310.153	0.111	0.208
-506.741	-50.570	-0.261	-0.124
-505.726	-19.238	-0.245	0.153
-504.712	800.000	0.063	0.192
-503.697	-6.748	-0.208	-0.142
-502.683	417.511	-0.182	-0.389
-501.668	-45.377	0.252	-0.125
-500.653	800.000	0.130	0.455
-499.639	92.185	-0.312	0.353
-498.624	602.890	-0.087	-0.218
-497.610	-100.529	0.206	-0.051
-496.595	103.509	-0.069	-0.082
-495.581	-92.758	-0.191	0.054
-494.566	-200.000	0.000	0.315
-493.551	-70.815	-0.100	0.038
-492.537	273.664	0.186	0.331
-491.522	-200.000	0.004	-0.053
-490.508	-87.548	0.200	-0.061
-489.493	-200.000	-0.045	0.202
-488.478	410.787	-0.055	0.117
-487.464	800.000	-0.129	-0.368
-486.449	800.000	-0.048	0.189
-485.435	-13.156	-0.245	0.160
-484.420	-107.297	-0.262	0.058
-483.405	-200.000	-0.010	-0.405
-482.391	-42.795	-0.250	-0.127
-481.376	44.034	0.246	0.226
-480.362	107.675	-0.175	-0.209
-479.347	-54.812	-0.361	0.163
-478.332	-49.986	0.200	0.095
-477.318	-88.230	0.078	0.024
-476.303	-134.359	0.206	0.025
-475.289	-200.000	-0.004	0.089
-474.274	-140.970	0.021	0.002
-473.259	-200.000	0.004	-0.193
-472.245	53.038	-0.232	-0.223
-471.230	-200.000	0.077	0.411
-470.216	-200.000	0.027	0.170
-469.201	-86.513	0.149	0.046
-468.186	-87.178	-0.070	-0.021
-467.172	-20.685	0.099	-0.061
-466.157	-75.738	-0.207	-0.074
-465.143	132.083	-0.227	0.292
-464.128	233.857	-0.059	-0.097
-463.113	-200.000	0.000	-0.122
-462.099	-200.000	-0.050	0.230
-461.084	567.896	0.101	0.246
-460.070	-1.538	-0.044	0.031
-459.055	-195.924	-0.470	-0.003
-458.040	324.761	0.274	-0.524
-457.026	39.096	-0.120	-0.107
-456.011	155.724	0.133	0.184
-454.997	10.462	-0.056	0.043
-453.982	-88.115	0.234	-0.070
-452.968	7.629	0.201	0.151
-451.953	-75.860	0.261	-0.093
-450.938	414.233	-0.032	-0.069
-449.924	-77.995	0.051	0.017
-448.909	-72.833	-0.049	0.018
-447.895	-86.668	-0.093	0.029
-446.880	-200.000	0.018	0.268
-445.865	-51.686	0.237	-0.111
-444.851	690.590	-0.092	-0.242
-443.836	-143.384	-0.543	0.052
-442.822	195.096	-0.079	-0.120
-441.807	-79.930	0.344	0.116
-440.792	800.000	-0.042	0.141
-439.778	290.173	-0.070	0.127
-438.763	-40.552	-0.225	-0.117
-437.749	-136.703	-0.183	-0.021
-436.734	51.306	0.052	0.049
-435.719	-34.951	-0.311	-0.170
-434.705	-143.897	-0.257	-0.024
-433.690	28.664	-0.215	-0.182
-432.676	102.343	0.080	0.094
-431.661	-47.975	0.191	0.093
-430.646	13.793	-0.031	-0.024
-429.632	-135.847	-0.457	0.054
-428.617	-55.701	-0.151	-0.068
-427.603	-86.086	-0.117	-0.036
-426.588	-107.922	-0.170	-0.037
-425.573	-133.468	0.185	0.023
-424.559	-100.082	0.044	-0.011
-423.544	349.967	0.114	0.226
-422.530	388.176	0.134	0.277
-421.515	-74.289	-0.188	-0.068
-420.500	-66.257	-0.115	0.046
-419.486	-69.643	0.395	0.151
-418.471	800.000	0.073	-0.220
-417.457	-114.972	0.164	-0.031
-416.442	-33.299	0.142	-0.079
-415.428	-200.000	0.054	-0.333
-414.413	-200.000	-0.070	0.353
-413.398	-75.896	-0.085	0.030
-412.384	-90.286	-0.039	-0.011
-411.369	78.075	-0.157	-0.168
-410.355	-200.000	-0.014	-0.272
-409.340	512.472	0.055	0.129
-408.325	85.970	0.013	-0.014
-407.311	-200.000	-0.062	0.305
-406.296	280.041	-0.109	0.194
-405.282	-92.080	-0.084	0.024
-404.267	-200.000	-0.003	0.098
-403.252	408.808	-0.048	-0.102
-402.238	-127.875	0.395	0.057
-401.223	4.913	-0.169	0.124
-400.209	-72.963	-0.246	0.090
-399.194	-144.809	-0.309	0.028
-398.179	164.252	0.240	-0.338
-397.165	-55.420	0.153	-0.069
-396.150	18.396	-0.197	-0.158
-395.136	374.593	0.141	-0.287
-394.121	-200.000	0.016	0.372
-393.106	-200.000	0.035	-0.239
-392.092	4.842	0.130	0.095
-391.077	800.000	-0.077	-0.316
-390.063	-54.133	-0.339	-0.154
-389.048	-39.857	0.117	-0.061
-388.033	-200.000	-0.077	0.000
-387.019	243.131	0.099	-0.166
-386.004	-11.717	-0.366	-0.240
-384.990	-200.000	0.055	0.247
-383.975	-152.764	-0.126	-0.009
-382.960	53.568	-0.135	0.130
-381.946	5.986	-0.048	0.035
-380.931	53.452	-0.226	0.216
-379.917	149.867	-0.188	-0.255
-378.902	6.390	-0.401	-0.298
-377.888	-200.000	-0.036	-0.297
-376.873	-157.053	0.226	0.014
-375.858	-16.988	0.086	-0.054
-374.844	23.473	0.182	0.150
-373.829	-151.452	0.123	0.009
-372.815	800.000	0.031	-0.086
-371.800	800.000	0.015	-0.049
-370.785	-93.827	-0.171	0.047
-369.771	-36.099	0.308	-0.166
-368.756	-128.551	0.215	-0.030
-367.742	297.262	0.058	0.106
-366.727	355.548	-0.221	0.438
-365.712	578.191	-0.068	0.166
-364.698	-112.309	0.266	-0.053
-363.683	-7.739	-0.236	0.159
-362.669	800.000	-0.221	-0.610
-361.654	800.000	0.069	0.278
-360.639	800.000	0.032	0.115
-359.625	-200.000	0.013	0.169
-358.610	-16.552	-0.086	0.054
-357.596	246.803	-0.132	-0.222
-356.581	235.281	-0.202	0.332
-355.566	-123.076	0.321	-0.051
-354.552	216.765	0.086	0.137
-353.537	377.253	0.038	-0.077
-352.523	22.684	0.067	-0.055
-351.508	427.502	-0.137	-0.295
-350.493	-20.682	-0.230	0.141
-349.479	800.000	0.036	0.144
-348.464	-200.000	-0.000	0.330
-347.450	-119.868	-0.317	0.054
-346.435	-45.135	0.139	-0.069
-345.420	290.929	0.127	0.230
-344.406	-84.888	0.106	-0.033
-343.391	-57.133	0.247	-0.108
-342.377	-107.705	0.221	-0.048
-341.362	1.969	-0.042	0.030
-340.348	319.932	-0.181	0.342
-339.333	253.786	0.207	-0.352
-338.318	43.555	0.309	-0.282
-337.304	582.225	0.029	0.071
-336.289	-30.056	-0.226	0.128
-335.275	-71.969	0.195	0.072
-334.260	800.000	-0.104	-0.290
-333.245	60.207	0.199	-0.196
-332.231	-200.000	0.053	0.307
-331.216	31.219	0.229	-0.196
-330.202	318.177	-0.037	-0.070
-329.187	-46.997	0.136	0.066
-328.172	782.917	0.046	-0.126
-327.158	329.206	0.192	-0.367
-326.143	-53.663	0.309	-0.141
-325.129	176.765	0.113	-0.164
-324.114	121.919	-0.156	-0.194
-323.099	-48.933	0.236	-0.113
-322.085	-76.268	0.143	-0.050
-321.070	78.072	0.105	0.111
-320.056	-32.952	0.181	0.100
-319.041	544.013	0.070	0.167
-318.026	134.906	0.061	-0.079
-317.012	-151.619	0.166	-0.012
-315.997	43.823	0.122	-0.111
-314.983	497.131	0.055	-0.127
-313.968	114.587	-0.329	-0.400
-312.953	-155.556	0.149	-0.010
-311.939	-15.925	0.079	-0.050
-310.924	328.478	-0.126	0.241
-309.910	800.000	-0.029	-0.115
-308.895	71.370	0.242	-0.251
-307.880	-155.726	-0.254	-0.016
-306.866	-153.201	0.042	-0.003
-305.851	-35.007	0.208	-0.113
-304.837	-105.096	0.228	0.052
-303.822	10.320	-0.244	-0.185
-302.807	-169.565	0.411	0.015
-301.793	-200.000	0.019	0.112
-300.778	-90.021	0.159	0.046
-299.764	146.151	-0.316	0.422
-298.749	36.437	-0.113	-0.100
-297.735	800.000	0.075	0.243
-296.720	296.816	0.054	-0.099
-295.705	-200.000	-0.017	-0.189
-294.691	63.629	0.409	-0.409
-293.676	-79.064	0.155	-0.053
-292.662	-93.531	0.140	-0.039
-291.647	511.430	0.088	-0.204
-290.632	52.390	0.150	0.142
-289.618	-200.000	-0.007	-0.348
-288.603	-105.466	0.115	-0.026
-287.589	-28.902	0.124	0.071
-286.574	776.609	-0.079	-0.214
-285.559	360.512	-0.082	0.163
-284.545	154.529	-0.098	0.133
-283.530	164.429	0.110	0.154
-282.516	-60.672	-0.161	0.068
-281.501	-79.844	0.210	0.070
-280.486	-27.235	0.173	0.100
-279.472	-75.913	0.300	0.106
-278.457	-103.940	0.161	0.037
-277.443	-90.977	0.155	0.044
-276.428	191.790	0.113	-0.170
-275.413	-200.000	0.018	-0.210
-274.399	800.000	0.039	-0.108
-273.384	-41.708	-0.328	0.168
-272.370	243.891	-0.005	-0.009
-271.355	800.000	0.049	0.139
-270.340	68.679	0.232	-0.237
-269.326	-125.458	-0.283	-0.043
-268.311	20.093	-0.255	0.205
-267.297	800.000	0.070	0.215
-266.282	-200.000	0.019	-0.242
-265.267	-111.697	-0.097	-0.019
-264.253	146.577	-0.109	0.146
-263.238	-131.177	-0.180	0.024
-262.224	86.802	-0.108	-0.119
-261.209	153.484	0.105	0.143
-260.195	800.000	-0.023	-0.095
-259.180	-131.111	-0.275	0.036
-258.165	-70.569	0.210	-0.079
-257.151	-8.646	-0.091	-0.061
-256.136	71.336	-0.183	0.189
-255.122	30.483	0.125	-0.106
-254.107	55.827	0.298	0.288
-253.092	-200.000	-0.024	0.287
-252.078	409.446	-0.031	-0.065
-251.063	-35.522	0.423	-0.228
-250.049	-3.460	-0.191	-0.132
-249.034	299.828	-0.203	0.372
-248.019	-56.701	-0.197	-0.087
-247.005	259.455	-0.068	-0.116
-245.990	18.169	-0.239	-0.190
-244.976	265.703	0.103	0.179
-243.961	800.000	-0.032	0.092
-242.946	800.000	0.082	-0.289
-241.932	142.174	0.035	0.047
-240.917	6.787	-0.081	-0.060
-239.903	-200.000	-0.016	0.162
-238.888	-200.000	0.012	0.207
-237.873	800.000	-0.056	0.235
-236.859	-113.837	0.187	-0.036
-235.844	800.000	0.068	0.189
-234.830	-68.059	-0.360	-0.139
-233.815	406.832	-0.191	0.402
-232.800	800.000	-0.038	0.156
-231.786	-161.775	-0.166	0.008
-230.771	70.625	-0.051	0.052
-229.757	-200.000	-0.005	-0.350
-228.742	-51.919	0.208	0.096
-227.727	-200.000	0.006	-0.033
-226.713	800.000	-0.054	0.149
-225.698	24.242	0.304	0.250
-224.684	-153.471	0.512	0.035
-223.669	377.844	-0.063	0.128
-222.655	-121.623	-0.243	-0.040
-221.640	-37.687	-0.238	0.126
-220.625	-48.187	0.410	-0.197
-219.611	-53.045	0.078	0.036
-218.596	204.098	-0.210	-0.323
-217.582	347.321	-0.140	0.273
-216.567	800.000	0.030	0.087
-215.552	-200.000	0.004	0.241
-214.538	10.747	-0.150	0.113
-213.523	174.602	0.198	-0.284
-212.509	328.881	0.034	-0.066
-211.494	-162.109	0.046	0.002
-210.479	175.332	-0.153	-0.220
-209.465	-114.215	-0.258	0.049
-208.450	-161.710	0.345	0.017
-207.436	-53.683	0.140	0.063
-206.421	26.784	-0.146	-0.121
-205.406	-75.040	-0.321	0.114
-204.392	800.000	-0.087	0.243
-203.377	-110.266	0.231	-0.048
-202.363	-88.469	-0.145	-0.043
-201.348	38.678	-0.160	-0.142
-200.333	800.000	0.147	0.469
-199.319	97.355	-0.060	0.068
-198.304	-200.000	0.028	-0.150
-197.290	-54.091	-0.163	0.074
-196.275	238.260	0.086	-0.141
-195.260	-62.753	-0.113	0.046
-194.246	284.907	0.103	-0.184
-193.231	41.880	-0.085	0.077
-192.217	18.766	-0.222	-0.176
-191.202	56.242	-0.084	0.081
-190.187	285.957	0.052	-0.094
-189.173	67.651	0.120	-0.122
-188.158	-200.000	0.003	-0.162
-187.144	7.709	0.201	0.149
-186.129	12.690	-0.103	-0.079
-185.114	-96.157	-0.167	-0.044
-184.100	-54.413	-0.161	0.073
-183.085	347.189	0.041	0.079
-182.071	11.574	0.104	0.079
-181.056	-49.504	0.077	0.037
-180.042	800.000	-0.123	0.342
-179.027	179.890	0.200	0.291
-178.012	17.818	0.202	-0.159
-176.998	-119.603	-0.055	-0.009
-175.983	-200.000	-0.000	-0.358
-174.969	-5.249	-0.249	-0.169
-173.954	-169.387	0.260	0.009
-172.939	-97.931	0.066	-0.017
-171.925	115.897	-0.233	-0.282
-170.910	-200.000	0.021	0.305
-169.896	383.247	0.141	0.287
-168.881	-94.072	-0.047	-0.013
-167.866	423.984	0.049	-0.105
-166.852	-137.823	-0.195	-0.022
-165.837	-4.451	0.169	0.116
-164.823	-20.970	-0.060	0.036
-163.808	-121.534	0.112	0.018
-162.793	367.101	0.103	-0.207
-161.779	-9.764	0.076	0.050
-160.764	-200.000	0.018	0.158
-159.750	447.178	0.127	-0.277
-158.735	-200.000	0.003	0.317
-157.720	154.047	0.091	-0.124
-156.706	-200.000	0.029	-0.254
-155.691	54.855	-0.168	-0.161
-154.677	-145.046	-0.282	0.025
-153.662	-200.000	0.035	0.172
-152.647	-117.193	-0.088	-0.016
-151.633	217.636	0.154	-0.244
-150.618	-12.525	-0.132	0.085
-149.604	500.451	-0.065	-0.149
-148.589	-200.000	0.019	-0.107
-147.574	-200.000	-0.004	0.041
-146.560	-47.687	-0.438	-0.210
-145.545	438.497	0.065	0.140
-144.531	-109.328	0.280	0.059
-143.516	-55.148	-0.152	0.068
-142.502	-200.000	0.006	-0.030
-141.487	800.000	0.059	-0.188
-140.472	444.003	0.147	-0.320
-139.458	418.953	-0.043	-0.091
-138.443	21.472	-0.245	0.198
-137.429	-132.485	-0.235	-0.030
-136.414	-200.000	-0.007	-0.327
-135.399	-131.705	0.325	-0.042
-134.385	126.098	-0.140	-0.175
-133.370	-30.834	0.026	0.014
-132.356	-181.582	-0.266	0.005
-131.341	800.000	0.098	0.325
-130.326	-6.704	0.155	0.104
-129.312	-17.509	0.359	-0.224
-128.297	800.000	-0.032	-0.104
-127.283	-76.096	0.175	-0.061
-126.268	-103.983	0.353	-0.082
-125.253	-28.364	-0.378	-0.216
-124.239	-141.862	0.154	-0.015
-123.224	-200.000	-0.016	-0.087
-122.210	-109.889	0.349	-0.072
-121.195	10.813	-0.120	0.090
-120.180	186.846	0.029	0.043
-119.166	800.000	0.093	0.403
-118.151	-110.686	0.305	-0.062
-117.137	13.868	0.158	0.121
-116.122	-138.300	-0.054	0.006
-115.107	-200.000	0.045	-0.359
-114.093	-95.875	-0.072	0.019
-113.078	-200.000	0.021	0.510
-112.064	-200.000	0.039	-0.318
-111.049	800.000	0.017	-0.069
-110.034	-200.000	-0.057	-0.368
-109.020	-200.000	-0.002	-0.394
-108.005	562.614	0.057	-0.137
-106.991	761.666	0.070	0.187
-105.976	-200.000	0.062	-0.331
-104.962	-200.000	-0.007	0.097
-103.947	137.231	-0.099	-0.128
-102.932	56.096	-0.075	0.072
-101.918	-200.000	0.004	-0.256
-100.903	46.033	0.028	0.026
-99.889	800.000	0.010	0.037
-98.874	-172.375	0.173	0.005
-97.859	123.702	0.320	0.397
-96.845	597.895	-0.052	0.127
-95.830	277.265	0.080	-0.141
-94.816	86.852	-0.258	-0.281
-93.801	2.590	-0.345	-0.247
-92.786	800.000	0.084	-0.246
-91.772	-47.765	0.291	0.139
-90.757	-200.000	0.044	0.224
-89.743	109.010	0.076	-0.090
-88.728	-200.000	-0.005	0.212
-87.713	800.000	0.104	-0.347
-86.699	-79.155	-0.300	0.101
-85.684	406.989	0.044	-0.093
-84.670	331.829	-0.062	0.119
-83.655	-200.000	-0.014	0.351
-82.640	-121.197	0.332	0.055
-81.626	-200.000	0.020	-0.119
-80.611	42.527	-0.219	-0.197
-79.597	-141.593	0.023	-0.002
-78.582	91.305	0.053	0.059
-77.567	135.997	-0.171	0.220
-76.553	-95.991	0.297	0.078
-75.538	-63.835	0.171	-0.069
-74.524	170.667	0.132	0.186
-73.509	800.000	0.108	0.424
-72.494	50.431	-0.040	-0.037
-71.480	579.087	-0.102	0.245
-70.465	-200.000	0.010	0.253
-69.451	-87.481	-0.492	0.147
-68.436	-44.785	0.053	0.026
-67.422	746.840	0.056	0.148
-66.407	800.000	-0.007	-0.023
-65.392	800.000	0.061	0.257
-64.378	195.640	-0.140	0.209
-63.363	107.639	0.183	0.215
-62.349	559.211	0.013	-0.031
-61.334	115.998	-0.769	-0.929
-60.319	800.000	0.165	0.685
-59.305	800.000	0.214	-0.857
-58.290	602.020	0.405	0.994
-57.276	800.000	0.611	1.671
-56.261	-200.000	85.129	493.714
-55.246	499.044	1357.552	3086.492
-54.232	151.172	2578.885	3461.974
-53.217	109.302	2313.241	2732.085
-52.203	47.484	1932.836	1777.507
-51.188	41.623	1722.875	1539.350
-50.173	38.870	1677.585	1478.121
-49.159	53.525	1720.900	1628.359
-48.144	57.631	1739.693	1677.402
-47.130	41.527	1698.539	1516.638
-46.115	38.460	1684.264	1480.668
-45.100	38.308	1679.156	1474.976
-44.086	38.407	1676.407	1473.246
-43.071	38.312	1673.950	1470.314
-42.057	38.234	1671.509	1467.528
-41.042	38.316	1669.630	1466.435
-40.027	38.392	1667.805	1465.344
-39.013	38.344	1665.612	1463.001
-37.998	38.224	1663.731	1460.392
-36.984	38.290	1662.231	1459.506
-35.969	38.494	1660.670	1459.601
-34.954	38.463	1659.455	1458.249
-33.940	38.505	1657.113	1456.446
-32.925	38.391	1655.878	1454.452
-31.911	38.517	1653.883	1453.580
-30.896	38.456	1652.015	1451.429
-29.881	38.364	1650.794	1449.616
-28.867	38.391	1649.496	1448.618
-27.852	38.493	1647.931	1447.937
-26.838	38.399	1646.544	1445.965
-25.823	38.450	1645.256	1445.154
-24.809	38.433	1644.164	1444.012
-23.794	38.490	1642.210	1442.661
-22.779	38.459	1640.923	1441.243
-21.765	38.435	1639.053	1439.366
-20.750	38.467	1637.280	1437.993
-19.736	38.459	1636.028	1436.775
-18.721	38.425	1634.675	1435.282
-17.706	38.429	1633.442	1434.172
-16.692	38.392	1632.061	1432.630
-15.677	38.489	1630.278	1431.713
-14.663	38.428	1629.459	1430.492
-13.648	38.541	1627.693	1429.714
-12.633	38.489	1626.052	1427.832
-11.619	38.495	1624.819	1426.743
-10.604	38.433	1623.004	1424.636
-9.590	38.472	1621.593	1423.630
-8.575	38.538	1620.063	1422.706
-7.560	38.512	1619.410	1421.886
-6.546	38.481	1617.976	1420.350
-5.531	38.475	1616.532	1418.980
-4.517	38.465	1615.890	1418.288
-3.502	38.352	1615.515	1417.084
-2.487	38.491	1613.263	1416.058
-1.473	37.967	1601.550	1401.958
-0.458	34.853	1580.204	1361.089
0.556	30.423	1578.464	1322.955
1.571	27.650	1601.468	1322.043
2.586	26.957	1616.492	1329.254
3.600	24.038	1562.965	1264.422
4.615	13.354	1448.288	1100.825
5.629	3.464	1376.853	983.599
6.644	1.565	1367.344	964.681
7.659	1.483	1365.341	962.666
8.673	1.325	1364.986	961.328
9.688	1.338	1363.219	960.082
10.702	1.082	1360.204	956.257
11.717	4.566	1367.588	983.439
12.731	15.087	1387.598	1064.981
13.746	23.322	1402.024	1128.657
14.761	25.256	1403.921	1142.408
15.775	25.443	1403.670	1143.297
16.790	25.574	1403.210	1143.654
17.804	25.549	1402.832	1143.087
18.819	25.807	1402.283	1144.174
19.834	25.935	1401.375	1144.144
20.848	25.788	1400.994	1142.798
21.863	25.969	1400.036	1143.067
22.877	25.993	1399.037	1142.299
23.892	25.860	1398.319	1140.775
24.907	25.968	1396.907	1140.201
25.921	25.870	1396.316	1138.999
26.936	25.996	1395.113	1138.710
27.950	25.989	1394.026	1137.681
28.965	26.008	1392.569	1136.510
29.980	26.020	1391.376	1135.511
30.994	25.874	1390.379	1133.678
32.009	25.884	1389.490	1132.918
33.023	25.952	1388.379	1132.341
34.038	26.028	1386.600	1131.264
35.053	25.901	1386.047	1129.916
36.067	25.978	1384.901	1129.363
37.082	25.973	1384.307	1128.746
38.096	25.999	1382.872	1127.644
39.111	25.926	1382.170	1126.513
40.126	25.947	1382.104	1126.489
41.140	25.950	1381.018	1125.522
42.155	25.927	1380.923	1125.203
43.169	25.856	1381.100	1124.806
44.184	25.850	1380.661	1124.309
45.199	25.901	1380.235	1124.184
46.213	25.808	1380.012	1123.319
47.228	25.897	1378.447	1122.503
48.242	25.976	1377.220	1121.895
49.257	25.921	1376.102	1120.544
50.271	25.924	1374.527	1119.181
51.286	25.906	1373.540	1118.168
52.301	26.004	1371.655	1117.138
53.315	25.964	1370.839	1116.126
54.330	25.927	1370.323	1115.383
55.344	25.823	1369.103	1113.646
56.359	25.987	1368.119	1113.760
57.374	25.885	1367.748	1112.730
58.388	25.963	1366.833	1112.367
59.403	25.972	1366.633	1112.163
60.417	25.928	1365.881	1111.181
61.432	25.835	1365.033	1109.819
62.447	25.968	1363.993	1109.695
63.461	26.024	1362.967	1109.107
64.476	25.942	1361.976	1107.700
65.490	25.855	1361.404	1106.599
66.505	25.912	1358.972	1104.875
67.520	25.947	1358.075	1104.266
68.534	25.995	1356.845	1103.461
69.549	25.920	1356.239	1102.407
70.563	25.852	1355.658	1101.426
71.578	25.968	1354.464	1101.067
72.593	26.023	1353.562	1100.571
73.607	25.937	1352.868	1099.383
74.622	25.977	1352.150	1098.949
75.636	26.051	1351.117	1098.458
76.651	25.935	1350.660	1097.283
77.666	25.902	1350.562	1096.910
78.680	25.908	1349.739	1096.179
79.695	25.939	1348.664	1095.395
80.709	25.918	1348.198	1094.794
81.724	25.946	1347.325	1094.158
82.739	26.000	1346.558	1093.764
83.753	25.873	1345.394	1091.956
84.768	25.971	1343.936	1091.269
85.782	25.847	1343.110	1089.754
86.797	25.926	1342.075	1089.292
87.812	25.926	1340.765	1088.134
88.826	26.023	1339.418	1087.530
89.841	26.016	1338.686	1086.795
90.855	26.005	1337.457	1085.633
91.870	25.890	1336.979	1084.458
92.884	25.981	1336.016	1084.128
93.899	25.960	1335.511	1083.494
94.914	26.033	1334.556	1083.066
95.928	26.005	1334.023	1082.368
96.943	26.081	1332.749	1081.697
97.957	25.882	1332.544	1080.242
98.972	25.995	1331.295	1079.810
99.987	25.933	1330.679	1078.840
101.001	25.994	1329.640	1078.271
102.016	25.984	1328.776	1077.410
103.030	25.957	1327.882	1076.432
104.045	26.031	1326.717	1075.835
105.060	25.990	1326.433	1075.266
106.074	26.048	1325.130	1074.459
107.089	26.080	1324.015	1073.647
108.103	26.024	1323.171	1072.536
109.118	26.037	1321.994	1071.566
110.133	26.098	1320.569	1070.679
111.147	25.999	1319.825	1069.395
112.162	26.110	1318.300	1068.716
113.176	26.048	1317.474	1067.591
114.191	26.077	1316.779	1067.099
115.206	26.101	1315.493	1066.106
116.220	25.954	1315.183	1064.891
117.235	26.054	1313.686	1064.174
118.249	25.916	1313.528	1063.140
119.264	25.918	1312.553	1062.267
120.279	26.112	1311.513	1062.476
121.293	26.039	1310.874	1061.433
122.308	26.054	1310.139	1060.835
123.322	26.134	1308.889	1060.198
124.337	26.083	1308.096	1059.161
125.352	26.211	1307.170	1059.072
126.366	26.175	1306.557	1058.268
127.381	25.971	1305.847	1056.404
128.395	26.134	1304.579	1056.237
129.410	26.143	1303.576	1055.387
130.424	26.178	1303.099	1055.111
131.439	26.131	1302.313	1054.106
132.454	26.113	1301.070	1052.904
133.468	26.177	1300.733	1052.907
134.483	26.062	1300.446	1051.916
135.497	26.176	1299.040	1051.348
136.512	26.050	1298.252	1049.883
137.527	26.113	1297.089	1049.215
138.541	26.139	1295.540	1048.023
139.556	26.096	1294.373	1046.735
140.570	26.037	1293.824	1045.854
141.585	26.102	1292.774	1045.292
142.600	26.102	1291.565	1044.222
143.614	26.086	1290.918	1043.513
144.629	26.137	1289.822	1042.832
145.643	25.991	1288.961	1041.198
146.658	25.986	1287.619	1039.991
147.673	26.020	1287.136	1039.705
148.687	26.013	1285.889	1038.568
149.702	26.017	1284.765	1037.590
150.716	26.034	1283.127	1036.276
151.731	26.008	1282.828	1035.789
152.746	26.007	1281.516	1034.637
153.760	26.076	1280.678	1034.263
154.775	26.078	1279.295	1033.068
155.789	26.039	1278.990	1032.505
156.804	26.012	1277.847	1031.336
157.819	26.135	1276.813	1031.112
158.833	26.121	1276.139	1030.400
159.848	26.126	1275.167	1029.552
160.862	26.105	1274.750	1029.004
161.877	26.182	1273.868	1028.639
162.892	26.134	1273.493	1027.969
163.906	26.123	1272.942	1027.371
164.921	26.233	1271.754	1026.946
165.935	26.142	1271.327	1025.995
166.950	26.208	1270.123	1025.310
167.964	26.194	1269.479	1024.616
168.979	26.140	1269.160	1023.963
169.994	26.158	1268.654	1023.567
171.008	26.226	1267.690	1023.083
172.023	26.270	1267.015	1022.694
173.037	26.303	1266.428	1022.318
174.052	26.179	1265.938	1021.135
175.067	26.217	1264.692	1020.251
176.081	26.208	1264.226	1019.736
177.096	26.121	1263.931	1018.915
178.110	26.314	1262.105	1018.442
179.125	26.172	1261.403	1016.982
180.140	26.221	1260.325	1016.304
181.154	26.217	1259.326	1015.383
182.169	26.211	1258.105	1014.274
183.183	26.217	1257.323	1013.586
184.198	26.329	1256.001	1013.061
185.213	26.277	1255.363	1012.164
186.227	26.272	1254.398	1011.270
187.242	26.340	1253.709	1011.005
188.256	26.302	1253.097	1010.208
189.271	26.366	1251.549	1009.231
190.286	26.225	1251.540	1008.344
191.300	26.279	1250.889	1008.035
192.315	26.309	1249.866	1007.290
193.329	26.214	1249.820	1006.630
194.344	26.298	1249.179	1006.492
195.359	26.310	1248.790	1006.156
196.373	26.285	1248.234	1005.484
197.388	26.338	1247.633	1005.202
198.402	26.174	1247.619	1004.192
199.417	26.320	1246.803	1004.257
200.432	26.321	1246.241	1003.724
201.446	26.208	1245.826	1002.673
202.461	26.290	1244.698	1002.126
203.475	26.242	1244.313	1001.467
204.490	26.254	1243.120	1000.481
205.504	26.325	1242.036	999.913
206.519	26.412	1240.811	999.321
207.534	26.402	1239.970	998.501
208.548	26.352	1239.344	997.630
209.563	26.314	1238.783	996.880
210.577	26.398	1237.886	996.532
211.592	26.400	1236.854	995.629
212.607	26.367	1236.263	994.880
213.621	26.412	1235.331	994.291
214.636	26.286	1235.010	993.251
215.650	26.449	1233.838	993.118
216.665	26.399	1232.573	991.734
217.680	26.406	1232.041	991.260
218.694	26.474	1230.896	990.622
219.709	26.442	1230.674	990.178
220.723	26.502	1229.937	989.829
221.738	26.313	1229.631	988.461
222.753	26.298	1228.783	987.608
223.767	26.402	1228.122	987.559
224.782	26.638	1226.931	987.800
225.796	26.472	1226.910	986.791
226.811	26.436	1226.526	986.201
227.826	26.563	1225.719	986.155
228.840	26.455	1225.326	985.161
229.855	26.455	1224.722	984.592
230.869	26.433	1223.977	983.784
231.884	26.464	1223.057	983.126
232.899	26.487	1222.320	982.569
233.913	26.498	1221.713	982.054
234.928	26.589	1221.441	982.246
235.942	26.601	1220.472	981.445
236.957	26.584	1219.832	980.749
237.972	26.542	1218.952	979.726
238.986	26.497	1218.755	979.238
240.001	26.670	1217.716	979.253
241.015	26.668	1217.264	978.794
242.030	26.640	1216.606	978.026
243.045	26.698	1215.637	977.471
244.059	26.637	1214.977	976.528
245.074	26.715	1213.987	976.064
246.088	26.755	1212.939	975.350
247.103	26.696	1212.586	974.665
248.117	26.732	1211.696	974.057
249.132	26.751	1211.087	973.585
250.147	26.821	1210.247	973.198
251.161	26.647	1209.720	971.755
252.176	26.764	1208.832	971.581
253.190	26.770	1208.129	970.963
254.205	26.730	1207.583	970.222
255.220	26.634	1207.760	969.764
256.234	26.845	1206.399	969.715
257.249	26.859	1205.506	968.987
258.263	26.808	1205.038	968.254
259.278	26.759	1204.990	967.867
260.293	26.780	1204.172	967.233
261.307	26.839	1203.758	967.134
262.322	26.795	1203.148	966.323
263.336	26.845	1202.285	965.810
264.351	26.887	1201.487	965.306
265.366	26.767	1200.769	964.007
266.380	26.844	1200.200	963.872
267.395	26.890	1199.568	963.525
268.409	26.770	1199.165	962.478
269.424	26.905	1198.334	962.443
270.439	26.805	1198.518	961.973
271.453	26.811	1197.355	960.988
272.468	26.867	1196.616	960.606
273.482	26.839	1195.743	959.674
274.497	26.925	1195.518	959.860
275.512	26.916	1195.166	959.449
276.526	26.856	1194.272	958.325
277.541	26.966	1193.453	958.165
278.555	26.983	1192.565	957.456
279.570	27.032	1191.786	957.009
280.585	26.912	1191.529	956.083
281.599	26.824	1190.619	954.806
282.614	26.942	1189.381	954.350
283.628	26.941	1188.639	953.662
284.643	26.973	1187.834	953.100
285.657	26.962	1186.900	952.210
286.672	27.013	1185.997	951.668
287.687	26.924	1185.561	950.766
288.701	27.057	1184.498	950.527
289.716	26.918	1184.568	949.770
290.730	27.082	1183.435	949.634
291.745	26.987	1182.871	948.604
292.760	27.034	1182.132	948.174
293.774	27.101	1181.753	948.135
294.789	27.122	1181.198	947.715
295.803	27.040	1180.536	946.670
296.818	26.963	1180.056	945.802
297.833	27.080	1179.367	945.776
298.847	27.080	1178.539	945.028
299.862	27.183	1177.650	944.766
300.876	27.150	1177.160	944.121
301.891	27.130	1176.617	943.498
302.906	27.210	1175.801	943.171
303.920	27.213	1175.321	942.721
304.935	27.232	1174.645	942.194
305.949	27.291	1173.762	941.708
306.964	27.202	1173.184	940.698
307.979	27.322	1172.767	940.900
308.993	27.225	1172.268	939.915
310.008	27.236	1171.266	939.085
311.022	27.340	1170.346	938.801
312.037	27.293	1169.847	938.078
313.052	27.203	1168.880	936.754
314.066	27.209	1168.137	936.106
315.081	27.167	1167.254	935.100
316.095	27.273	1166.797	935.195
317.110	27.216	1166.041	934.216
318.125	27.268	1165.340	933.840
319.139	27.292	1164.998	933.605
320.154	27.251	1164.095	932.586
321.168	27.184	1164.020	932.101
322.183	27.305	1163.037	931.852
323.197	27.401	1162.400	931.752
324.212	27.336	1162.386	931.323
325.227	27.355	1161.693	930.782
326.241	27.382	1160.992	930.277
327.256	27.506	1160.057	930.081
328.270	27.556	1158.773	929.221
329.285	27.396	1158.168	927.839
330.300	27.380	1157.739	927.331
331.314	27.358	1156.939	926.496
332.329	27.455	1156.163	926.291
333.343	27.535	1155.694	926.237
334.358	27.433	1154.639	924.794
335.373	27.608	1153.754	924.888
336.387	27.529	1153.333	924.067
337.402	27.630	1152.631	923.935
338.416	27.597	1151.924	923.121
339.431	27.570	1151.606	922.647
340.446	27.487	1150.849	921.538
341.460	27.739	1149.714	921.825
342.475	27.694	1148.895	920.859
343.489	27.608	1148.681	920.171
344.504	27.541	1147.719	918.983
345.519	27.676	1146.587	918.674
346.533	27.722	1145.746	918.151
347.548	27.540	1145.705	917.121
348.562	27.636	1144.458	916.523
349.577	27.652	1143.867	916.046
350.592	27.529	1143.327	914.919
351.606	27.537	1142.587	914.283
352.621	27.626	1142.272	914.397
353.635	27.720	1141.253	913.970
354.650	27.796	1140.029	913.289
355.665	27.699	1140.176	912.845
356.679	27.677	1139.609	912.196
357.694	27.672	1139.062	911.652
358.708	27.725	1138.302	911.230
359.723	27.749	1137.285	910.455
360.738	27.735	1136.699	909.835
361.752	27.732	1136.362	909.473
362.767	27.810	1135.910	909.416
363.781	27.755	1135.494	908.727
364.796	27.899	1134.174	908.307
365.810	27.836	1133.975	907.757
366.825	27.860	1133.511	907.425
367.840	27.772	1132.955	906.460
368.854	27.938	1132.293	906.675
369.869	27.864	1131.765	905.804
370.883	27.896	1130.980	905.253
371.898	27.974	1130.014	904.788
372.913	27.975	1129.465	904.272
373.927	27.964	1129.141	903.881
374.942	28.020	1128.398	903.480
375.956	27.981	1128.058	902.937
376.971	28.053	1127.550	902.806
377.986	27.985	1126.864	901.842
379.000	28.032	1126.486	901.688
380.015	28.099	1126.141	901.664
381.029	28.068	1125.271	900.738
382.044	28.095	1124.212	899.942
383.059	28.075	1123.913	899.526
384.073	28.012	1123.541	898.838
385.088	28.097	1122.576	898.403
386.102	28.113	1121.185	897.290
387.117	28.034	1120.828	896.538
388.132	28.008	1119.521	895.283
389.146	28.062	1119.134	895.159
390.161	28.055	1118.586	894.608
391.175	28.059	1117.928	894.023
392.190	28.135	1117.120	893.669
393.205	28.217	1116.355	893.377
394.219	28.125	1115.683	892.311
395.234	28.289	1114.631	892.189
396.248	28.170	1114.779	891.650
397.263	28.260	1113.138	890.697
398.278	28.365	1112.755	890.824
399.292	28.267	1112.226	889.842
400.307	28.317	1111.465	889.398
401.321	28.323	1110.823	888.835
402.336	28.389	1110.022	888.436
403.350	28.287	1109.689	887.594
404.365	28.451	1108.676	887.502
405.380	28.397	1108.458	886.986
406.394	28.346	1107.809	886.144
407.409	28.413	1106.684	885.490
408.423	28.391	1106.294	884.994
409.438	28.501	1105.234	884.596
410.453	28.459	1104.772	883.945
411.467	28.452	1104.561	883.662
412.482	28.493	1103.278	882.754
413.496	28.391	1103.125	882.065
414.511	28.393	1102.377	881.401
415.526	28.416	1101.795	880.968
416.540	28.467	1101.815	881.150
417.555	28.622	1100.690	880.915
418.569	28.489	1100.454	880.009
419.584	28.484	1099.898	879.463
420.599	28.489	1099.622	879.188
421.613	95.711	1310.463	1413.928
422.628	89.516	1341.164	1414.057
