DTS Sentinel unit serial number:	SN413079Multiplexer serial number:	ORYXHardware model number:	OX4-SRSoftware version number:	ORYX F/W v4.00 Oryx Data Collector v3.7.2.0data status	okinstallation	princeton_trtdifferential loss correction	single-endedforward channel	channel 2reverse channel	N/Adate	2019/09/19time	01:39:34forward acquisition time	60.00reverse acquisition time	0.00gamma	496.2192k internal	0.2354k external	0.2354temperature offset calibration	1.0013default loss term (dB/km)	0.3790temperature slope calibration	1.0000multiplexer offset coefficient	1.0000multiplexer slope coefficient	1.0000fibre end	0.00T internal ref (°C)	21.50T ext. ref 1 (°C)	0.69T ext. ref 2 (°C)	14.88length (m)	temperature (°C)	Stokes	anti-Stokes-747.200	-66.056	-0.158	0.063
-746.185	671.033	0.119	0.307
-745.171	-43.166	0.117	0.059
-744.156	264.106	-0.243	0.422
-743.142	-100.080	0.152	-0.038
-742.127	18.032	-0.270	0.215
-741.112	29.815	-0.073	0.062
-740.098	-200.000	-0.031	0.179
-739.083	477.676	-0.094	-0.212
-738.069	74.474	-0.041	0.043
-737.054	-18.293	0.188	-0.117
-736.039	-57.545	-0.308	-0.134
-735.025	113.753	-0.207	0.251
-734.010	-116.405	-0.515	-0.095
-732.996	-200.000	0.035	0.255
-731.981	92.781	0.236	0.265
-730.966	126.852	-0.273	0.345
-729.952	-200.000	-0.016	-0.168
-728.937	-200.000	-0.002	-0.222
-727.923	-100.887	0.254	0.062
-726.908	98.734	-0.144	-0.165
-725.894	314.826	0.155	-0.292
-724.879	166.500	-0.128	-0.181
-723.864	-14.566	-0.361	0.231
-722.850	-200.000	0.009	-0.072
-721.835	-0.485	0.080	0.057
-720.821	364.354	-0.046	0.092
-719.806	-25.879	0.038	0.022
-718.791	-19.600	0.055	-0.034
-717.777	76.830	-0.233	0.246
-716.762	-137.658	0.294	-0.033
-715.748	-122.310	-0.247	-0.040
-714.733	-42.170	0.030	-0.015
-713.718	-121.561	-0.273	-0.045
-712.704	-124.889	0.137	0.021
-711.689	800.000	0.028	0.092
-710.675	589.607	-0.024	0.059
-709.660	166.193	0.099	-0.139
-708.645	79.721	0.105	-0.113
-707.631	-50.870	-0.267	-0.125
-706.616	-104.104	-0.016	0.004
-705.602	-114.485	0.159	0.030
-704.587	-80.757	-0.043	0.014
-703.572	800.000	-0.063	-0.232
-702.558	-187.915	-0.192	-0.002
-701.543	-90.506	-0.235	-0.068
-700.529	-200.000	-0.038	-0.389
-699.514	325.347	0.181	0.345
-698.499	800.000	0.072	0.225
-697.485	-124.920	-0.117	0.018
-696.470	800.000	0.033	0.096
-695.456	-200.000	0.012	-0.154
-694.441	800.000	-0.057	0.234
-693.426	-200.000	-0.033	0.186
-692.412	-200.000	-0.086	0.399
-691.397	-43.434	0.093	0.047
-690.383	62.939	0.271	-0.270
-689.368	-1.545	0.183	0.128
-688.354	-200.000	0.013	-0.436
-687.339	601.467	0.064	-0.158
-686.324	800.000	-0.051	-0.197
-685.310	800.000	0.041	0.115
-684.295	6.248	-0.106	-0.079
-683.281	800.000	-0.107	-0.316
-682.266	174.027	-0.108	-0.155
-681.251	266.281	-0.026	-0.045
-680.237	9.973	-0.192	0.145
-679.222	-200.000	-0.051	0.296
-678.208	-51.365	-0.397	-0.184
-677.193	-200.000	0.114	0.000
-676.178	738.681	-0.120	-0.320
-675.164	-200.000	0.006	-0.116
-674.149	470.870	0.142	-0.317
-673.135	800.000	-0.106	0.297
-672.120	134.039	-0.186	0.239
-671.105	-81.529	-0.087	0.028
-670.091	-62.679	-0.317	-0.131
-669.076	800.000	-0.075	0.292
-668.062	-143.713	-0.090	0.008
-667.047	-78.238	-0.059	0.020
-666.032	758.271	0.055	-0.148
-665.018	67.352	0.268	-0.272
-664.003	-47.927	-0.196	-0.094
-662.989	244.718	-0.039	-0.065
-661.974	61.065	-0.187	-0.185
-660.959	-184.224	0.192	-0.003
-659.945	-76.478	-0.132	-0.046
-658.930	91.027	0.147	-0.163
-657.916	-200.000	0.002	-0.081
-656.901	537.948	0.092	-0.216
-655.886	-200.000	-0.002	0.085
-654.872	-200.000	0.030	0.215
-653.857	-200.000	0.025	0.130
-652.843	157.254	-0.178	0.244
-651.828	-200.000	-0.039	0.262
-650.814	729.678	0.066	0.175
-649.799	-45.578	-0.049	0.024
-648.784	171.012	0.108	-0.154
-647.770	509.054	-0.066	0.152
-646.755	262.208	0.022	-0.037
-645.741	-145.730	0.200	0.018
-644.726	-200.000	-0.060	-0.384
-643.711	55.204	0.150	0.144
-642.697	59.810	-0.274	0.268
-641.682	119.959	0.228	0.281
-640.668	-200.000	0.060	0.273
-639.653	347.770	-0.023	0.046
-638.638	-66.472	-0.306	-0.120
-637.624	-200.000	0.029	0.145
-636.609	344.047	0.142	-0.276
-635.595	150.976	0.156	-0.211
-634.580	-200.000	0.058	-0.265
-633.565	-193.292	0.073	0.001
-632.551	-117.776	-0.277	0.049
-631.536	800.000	-0.094	0.338
-630.522	-135.541	-0.160	-0.019
-629.507	50.713	0.224	0.210
-628.492	-48.894	-0.350	-0.166
-627.478	-97.551	-0.087	-0.022
-626.463	56.341	0.071	-0.068
-625.449	105.268	0.150	-0.175
-624.434	-71.156	-0.186	-0.069
-623.419	62.268	-0.206	0.204
-622.405	56.219	-0.304	0.293
-621.390	33.183	0.261	0.224
-620.376	423.868	0.138	0.294
-619.361	800.000	-0.061	-0.194
-618.346	64.084	-0.059	0.059
-617.332	-78.269	-0.226	-0.077
-616.317	-200.000	-0.031	-0.256
-615.303	23.759	0.030	-0.025
-614.288	-15.626	-0.167	0.106
-613.273	800.000	-0.050	0.176
-612.259	492.463	-0.133	0.302
-611.244	-24.126	-0.277	0.164
-610.230	800.000	0.019	0.079
-609.215	-200.000	-0.053	0.342
-608.201	-87.376	-0.195	0.059
-607.186	-200.000	-0.013	-0.428
-606.171	-200.000	-0.022	-0.169
-605.157	-200.000	0.065	-0.292
-604.142	-200.000	-0.002	0.307
-603.128	-194.988	0.170	-0.001
-602.113	13.722	-0.153	-0.118
-601.098	-200.000	-0.021	-0.492
-600.084	-200.000	0.325	0.000
-599.069	17.376	-0.281	-0.222
-598.055	794.651	0.180	0.492
-597.040	-93.783	0.150	0.041
-596.025	181.785	-0.083	0.122
-595.011	-26.577	-0.080	0.046
-593.996	-14.170	0.106	0.068
-592.982	-132.701	0.287	0.036
-591.967	-31.213	0.239	-0.134
-590.952	125.069	-0.148	-0.184
-589.938	470.556	-0.136	0.303
-588.923	315.270	0.120	-0.224
-587.909	-13.342	-0.160	-0.103
-586.894	-200.000	-0.020	-0.156
-585.879	-149.965	0.480	-0.037
-584.865	-200.000	-0.009	0.173
-583.850	-61.054	-0.303	-0.127
-582.836	-85.990	0.228	0.070
-581.821	-49.185	-0.401	-0.190
-580.806	-47.750	0.258	0.124
-579.792	-50.155	-0.110	0.051
-578.777	-76.106	-0.320	-0.112
-577.763	-200.000	0.008	-0.207
-576.748	16.620	0.206	-0.161
-575.733	-160.596	0.086	0.005
-574.719	-37.334	0.186	0.098
-573.704	-11.137	0.107	-0.070
-572.690	-38.730	0.294	0.154
-571.675	540.926	-0.051	-0.119
-570.661	-85.098	-0.097	-0.030
-569.646	-160.807	0.115	0.006
-568.631	-200.000	0.049	0.295
-567.617	-111.218	-0.121	0.025
-566.602	-14.890	0.272	-0.173
-565.588	310.875	0.134	-0.248
-564.573	800.000	-0.138	0.384
-563.558	-200.000	-0.057	-0.290
-562.544	-68.088	-0.245	0.095
-561.529	-46.085	0.207	0.101
-560.515	58.579	-0.171	0.166
-559.500	-0.232	0.044	-0.031
-558.485	-200.000	-0.006	-0.195
-557.471	-2.248	0.126	-0.087
-556.456	584.024	0.101	-0.246
-555.442	-200.000	-0.040	-0.217
-554.427	-124.983	-0.104	0.016
-553.412	-137.466	-0.201	0.023
-552.398	193.126	-0.045	0.068
-551.383	85.086	-0.073	-0.079
-550.369	-79.196	0.095	-0.032
-549.354	-167.622	0.218	0.009
-548.339	410.420	-0.142	0.298
-547.325	-200.000	-0.022	-0.154
-546.310	-168.616	-0.121	-0.005
-545.296	-100.886	-0.122	0.030
-544.281	-149.670	0.336	0.026
-543.266	800.000	-0.066	-0.194
-542.252	-200.000	-0.022	-0.417
-541.237	-145.668	0.225	-0.020
-540.223	17.131	0.065	-0.051
-539.208	800.000	0.053	-0.157
-538.193	30.810	0.118	0.100
-537.179	-22.705	-0.226	-0.135
-536.164	-84.080	-0.071	-0.022
-535.150	-200.000	-0.037	0.168
-534.135	-57.610	-0.056	0.024
-533.121	-200.000	-0.006	-0.132
-532.106	-200.000	0.046	-0.271
-531.091	-105.820	-0.188	-0.042
-530.077	-131.990	0.156	-0.020
-529.062	-194.099	0.150	-0.001
-528.048	800.000	-0.084	-0.297
-527.033	221.001	-0.219	-0.347
-526.018	4.668	-0.079	-0.057
-525.004	173.433	-0.076	-0.108
-523.989	-200.000	0.020	0.100
-522.975	-95.676	0.465	0.123
-521.960	207.619	-0.081	0.125
-520.945	262.502	-0.059	-0.101
-519.931	-22.943	0.223	-0.133
-518.916	800.000	-0.111	-0.323
-517.902	62.855	-0.095	-0.094
-516.887	3.289	0.232	-0.167
-515.872	-32.141	-0.358	-0.198
-514.858	-67.790	0.094	-0.036
-513.843	73.446	-0.073	-0.075
-512.829	800.000	-0.062	0.213
-511.814	-83.864	-0.061	0.019
-510.799	12.645	0.225	-0.171
-509.785	-147.218	-0.197	-0.017
-508.770	222.676	0.196	-0.312
-507.756	699.750	0.079	0.206
-506.741	-200.000	0.026	0.135
-505.726	83.468	-0.069	-0.075
-504.712	542.215	-0.035	0.082
-503.697	-2.879	-0.140	0.097
-502.683	-200.000	-0.005	0.124
-501.668	-117.054	-0.266	0.048
-500.653	-84.710	0.132	0.041
-499.639	-0.689	0.146	0.102
-498.624	271.017	0.025	0.044
-497.610	-166.054	-0.202	0.008
-496.595	-200.000	-0.007	0.151
-495.581	134.967	0.098	-0.125
-494.566	317.648	-0.176	-0.329
-493.551	-200.000	0.032	-0.172
-492.537	18.937	-0.095	-0.075
-491.522	-200.000	0.004	-0.181
-490.508	800.000	-0.066	0.273
-489.493	0.815	0.188	-0.133
-488.478	-75.633	0.218	0.076
-487.464	143.884	0.175	-0.230
-486.449	-45.676	-0.131	-0.064
-485.435	-70.949	-0.457	-0.170
-484.420	101.023	-0.298	0.342
-483.405	745.998	-0.025	0.067
-482.391	-121.845	0.162	-0.026
-481.376	-3.584	-0.244	-0.167
-480.362	76.541	0.124	0.130
-479.347	-200.000	-0.012	-0.116
-478.332	-116.741	-0.307	0.056
-477.318	537.211	-0.121	0.284
-476.303	-200.000	0.007	-0.068
-475.289	121.523	0.139	0.171
-474.274	800.000	-0.091	-0.311
-473.259	784.189	0.105	-0.284
-472.245	-200.000	-0.010	0.472
-471.230	-53.585	-0.401	0.181
-470.216	716.411	-0.165	-0.431
-469.201	-200.000	-0.026	-0.239
-468.186	202.755	0.115	0.175
-467.172	-10.372	-0.307	0.200
-466.157	42.839	-0.141	0.127
-465.143	-122.722	0.285	0.045
-464.128	-5.826	0.170	0.115
-463.113	199.454	0.314	-0.475
-462.099	-26.856	0.142	-0.082
-461.084	-200.000	-0.051	0.346
-460.070	22.543	0.345	0.278
-459.055	428.586	0.135	0.287
-458.040	800.000	-0.029	-0.113
-457.026	-149.356	-0.313	-0.025
-456.011	800.000	0.045	-0.143
-454.997	78.643	0.193	-0.204
-453.982	-200.000	-0.009	0.187
-452.968	-96.045	-0.350	-0.092
-451.953	198.787	-0.176	0.266
-450.938	-200.000	-0.040	-0.288
-449.924	-200.000	0.063	0.377
-448.909	-73.804	0.066	0.023
-447.895	-151.646	0.344	0.025
-446.880	-200.000	0.026	-0.276
-445.865	-2.455	-0.084	0.058
-444.851	-150.500	-0.402	-0.030
-443.836	306.237	0.117	-0.214
-442.822	68.468	0.173	0.174
-441.807	77.175	-0.064	0.067
-440.792	800.000	0.119	-0.347
-439.778	61.905	0.048	-0.047
-438.763	-53.569	-0.337	0.152
-437.749	179.144	0.215	0.310
-436.734	104.235	0.263	0.305
-435.719	286.083	-0.045	-0.080
-434.705	233.274	0.221	-0.359
-433.690	-200.000	-0.055	0.271
-432.676	-57.162	0.273	0.118
-431.661	143.804	-0.148	-0.194
-430.646	403.017	0.038	-0.078
-429.632	109.325	-0.121	0.143
-428.617	52.968	-0.308	0.291
-427.603	-16.481	0.198	-0.124
-426.588	263.295	0.208	0.356
-425.573	403.538	0.110	0.228
-424.559	800.000	0.110	0.326
-423.544	-72.895	0.082	-0.030
-422.530	-92.630	-0.147	-0.040
-421.515	-11.797	-0.112	0.072
-420.500	-200.000	-0.018	-0.161
-419.486	93.128	-0.126	-0.140
-418.471	-200.000	-0.023	0.265
-417.457	-113.838	-0.024	0.005
-416.442	-200.000	0.061	0.285
-415.428	175.497	-0.158	-0.225
-414.413	386.292	0.045	0.092
-413.398	-200.000	0.049	0.326
-412.384	-8.016	-0.125	0.083
-411.369	800.000	-0.032	-0.107
-410.355	-4.157	-0.054	-0.037
-409.340	209.689	-0.066	-0.101
-408.325	59.642	0.081	-0.078
-407.311	-32.611	0.233	-0.128
-406.296	-28.051	0.203	-0.116
-405.282	578.501	-0.066	-0.158
-404.267	-113.858	0.008	-0.001
-403.252	-78.803	-0.451	0.151
-402.238	222.016	-0.054	-0.086
-401.223	-123.740	0.223	0.035
-400.209	-200.000	-0.010	0.050
-399.194	7.035	-0.200	-0.146
-398.179	101.500	-0.248	0.285
-397.165	431.468	0.151	-0.321
-396.150	86.783	-0.135	-0.146
-395.136	-200.000	-0.019	-0.447
-394.121	-131.193	-0.171	0.022
-393.106	-112.435	0.261	-0.051
-392.092	-78.285	-0.214	-0.072
-391.077	800.000	-0.072	-0.241
-390.063	-28.914	0.008	-0.004
-389.048	56.801	-0.128	0.122
-388.033	-200.000	-0.015	0.170
-387.019	-89.057	0.108	0.031
-386.004	-19.898	-0.094	0.057
-384.990	9.094	-0.172	-0.127
-383.975	794.768	-0.079	-0.214
-382.960	426.292	0.064	-0.135
-381.946	528.886	0.207	0.480
-380.931	-200.000	-0.068	0.355
-379.917	142.264	0.164	0.213
-378.902	-129.894	0.198	-0.027
-377.888	-200.000	0.001	0.107
-376.873	800.000	-0.150	0.496
-375.858	58.250	0.391	0.377
-374.844	-200.000	0.031	0.189
-373.829	-200.000	0.082	-0.359
-372.815	12.040	0.081	0.061
-371.800	370.152	-0.127	-0.252
-370.785	-176.501	0.060	-0.002
-369.771	-98.332	-0.323	-0.081
-368.756	510.886	-0.015	0.034
-367.742	-154.844	0.150	-0.010
-366.727	269.067	0.116	-0.201
-365.712	132.014	0.032	-0.041
-364.698	-75.934	-0.068	0.024
-363.683	-38.294	-0.115	-0.060
-362.669	800.000	0.132	0.457
-361.654	-76.936	-0.273	0.094
-360.639	58.381	0.195	0.188
-359.625	436.610	0.067	0.144
-358.610	98.071	0.175	-0.198
-357.596	173.583	0.042	0.059
-356.581	0.185	0.145	-0.101
-355.566	-62.929	-0.247	-0.100
-354.552	-90.691	-0.066	0.019
-353.537	23.635	0.352	-0.285
-352.523	45.181	0.069	0.063
-351.508	52.122	-0.113	-0.106
-350.493	117.011	0.135	0.162
-349.479	-132.762	0.356	0.045
-348.464	-154.954	-0.055	0.004
-347.450	-200.000	-0.013	-0.278
-346.435	800.000	-0.051	0.141
-345.420	-46.654	-0.118	0.057
-344.406	800.000	-0.060	0.253
-343.391	-200.000	0.032	-0.214
-342.377	653.561	-0.041	0.104
-341.362	50.433	-0.246	-0.229
-340.348	93.354	-0.131	0.145
-339.333	-80.535	-0.188	0.061
-338.318	-200.000	-0.065	-0.345
-337.304	22.341	-0.077	-0.061
-336.289	87.759	0.060	-0.065
-335.275	-200.000	0.007	0.112
-334.260	-200.000	-0.030	-0.390
-333.245	-184.480	0.161	0.003
-332.231	316.087	0.065	0.120
-331.216	800.000	-0.055	-0.195
-330.202	-120.150	-0.112	0.019
-329.187	66.521	-0.264	-0.263
-328.172	227.238	-0.022	0.035
-327.158	107.765	0.290	0.339
-326.143	-17.741	-0.444	0.273
-325.129	189.995	0.250	0.368
-324.114	14.730	0.133	-0.102
-323.099	469.775	-0.066	0.145
-322.085	-82.364	-0.213	-0.068
-321.070	-91.518	0.441	0.123
-320.056	616.584	-0.063	-0.155
-319.041	-129.180	0.238	0.033
-318.026	13.797	-0.205	-0.156
-317.012	-104.890	-0.037	0.008
-315.997	-64.625	0.196	0.078
-314.983	-56.644	-0.154	0.067
-313.968	360.099	0.159	-0.312
-312.953	234.881	0.081	-0.130
-311.939	117.225	0.177	0.214
-310.924	-67.150	-0.232	-0.089
-309.910	84.301	-0.111	-0.119
-308.895	66.249	-0.174	0.173
-307.880	-7.056	0.155	-0.103
-306.866	47.387	0.054	0.049
-305.851	-22.894	0.262	0.155
-304.837	-1.839	0.240	0.166
-303.822	-200.000	0.017	0.129
-302.807	36.505	0.205	0.177
-301.793	70.902	-0.113	0.114
-300.778	107.819	0.176	0.205
-299.764	85.609	0.187	0.202
-298.749	-149.439	0.389	-0.030
-297.735	-79.022	0.178	0.059
-296.720	-97.085	0.091	0.023
-295.705	6.087	-0.018	0.013
-294.691	-200.000	0.000	0.117
-293.676	-200.000	-0.022	-0.216
-292.662	-200.000	0.066	0.319
-291.647	345.023	0.028	-0.053
-290.632	-200.000	-0.029	-0.234
-289.618	40.297	-0.130	-0.115
-288.603	-143.430	-0.197	0.018
-287.589	69.598	0.269	0.271
-286.574	15.220	-0.052	-0.040
-285.559	409.991	-0.112	0.233
-284.545	331.004	0.080	-0.150
-283.530	-69.967	0.176	-0.066
-282.516	676.810	0.192	0.487
-281.501	-200.000	0.062	-0.300
-280.486	-96.357	-0.267	0.069
-279.472	17.606	-0.230	0.179
-278.457	-125.513	-0.207	-0.031
-277.443	44.921	-0.069	0.062
-276.428	-181.683	-0.383	-0.007
-275.413	-131.540	-0.415	-0.054
-274.399	-43.815	-0.207	0.102
-273.384	99.247	0.085	0.097
-272.370	-34.138	0.110	0.059
-271.355	54.187	-0.092	-0.087
-270.340	-38.311	-0.112	0.058
-269.326	800.000	-0.021	-0.069
-268.311	-103.797	-0.311	0.071
-267.297	-81.728	0.291	-0.093
-266.282	-28.264	-0.068	0.038
-265.267	54.260	0.154	0.145
-264.253	361.411	-0.136	0.266
-263.238	1.463	0.230	0.162
-262.224	392.718	-0.098	-0.199
-261.209	-131.186	-0.546	0.071
-260.195	-200.000	0.049	-0.211
-259.180	107.676	-0.084	-0.097
-258.165	99.258	0.085	-0.096
-257.151	-37.708	0.169	-0.088
-256.136	-88.910	-0.090	0.026
-255.122	-200.000	-0.025	-0.182
-254.107	-77.700	0.365	-0.123
-253.092	451.034	-0.117	-0.252
-252.078	800.000	-0.035	-0.125
-251.063	-40.639	0.098	-0.050
-250.049	228.160	0.074	-0.118
-249.034	256.188	0.009	-0.016
-248.019	800.000	0.087	-0.243
-247.005	105.495	-0.310	0.358
-245.990	612.309	0.023	0.056
-244.976	-77.777	0.093	-0.031
-243.961	-200.000	0.029	-0.394
-242.946	124.092	-0.254	0.312
-241.932	-168.831	-0.110	0.004
-240.917	-68.328	0.129	-0.049
-239.903	-53.932	0.306	0.136
-238.888	27.330	0.188	-0.155
-237.873	96.685	0.129	-0.145
-236.859	-49.764	0.220	-0.102
-235.844	-84.367	-0.137	0.042
-234.830	-200.000	-0.002	0.065
-233.815	24.841	0.247	0.200
-232.800	104.122	0.258	0.297
-231.786	-15.577	-0.105	-0.066
-230.771	15.521	0.077	0.059
-229.757	-8.954	-0.113	0.074
-228.742	-200.000	0.023	0.249
-227.727	-135.195	-0.187	0.022
-226.713	-37.856	-0.271	0.141
-225.698	-200.000	0.023	-0.148
-224.684	-152.998	-0.147	-0.010
-223.669	-57.346	-0.114	-0.049
-222.655	800.000	0.103	-0.305
-221.640	800.000	-0.070	0.221
-220.625	-200.000	-0.047	0.320
-219.611	469.165	0.168	-0.368
-218.596	45.415	-0.117	0.105
-217.582	-200.000	-0.150	-0.000
-216.567	31.744	0.014	0.011
-215.552	11.391	-0.268	-0.201
-214.538	-200.000	0.001	0.035
-213.523	324.695	-0.060	-0.112
-212.509	-112.571	-0.166	-0.032
-211.494	169.598	-0.118	-0.164
-210.479	-200.000	0.391	0.001
-209.465	114.098	-0.151	-0.179
-208.450	41.685	-0.091	0.080
-207.436	-37.663	0.260	0.135
-206.421	800.000	0.053	0.150
-205.406	-172.489	-0.080	-0.002
-204.392	-124.846	0.035	0.005
-203.377	-100.493	-0.217	0.052
-202.363	62.079	-0.104	0.101
-201.348	-200.000	0.007	0.049
-200.333	-127.397	0.156	0.022
-199.319	201.521	0.232	0.349
-198.304	-110.051	0.342	-0.070
-197.290	236.780	-0.180	0.291
-196.275	-121.505	0.248	0.040
-195.260	-24.951	-0.021	0.012
-194.246	85.263	-0.381	0.408
-193.231	-148.651	0.394	-0.031
-192.217	800.000	0.138	-0.493
-191.202	374.804	0.051	0.101
-190.187	-24.878	0.130	0.075
-189.173	-200.000	0.025	-0.480
-188.158	-65.774	-0.096	-0.038
-187.144	709.889	0.074	-0.191
-186.129	-57.687	0.039	0.017
-185.114	557.015	0.137	0.323
-184.100	135.874	0.088	-0.112
-183.085	70.006	0.253	0.254
-182.071	-82.951	-0.333	-0.105
-181.056	-19.018	0.053	-0.032
-180.042	562.114	0.050	-0.119
-179.027	74.930	0.135	0.139
-178.012	-83.478	0.206	0.064
-176.998	-113.467	-0.160	0.031
-175.983	80.037	-0.150	-0.157
-174.969	496.557	-0.052	0.117
-173.954	589.589	-0.107	0.258
-172.939	188.710	0.200	0.291
-171.925	-132.789	0.331	-0.041
-170.910	-38.389	0.186	0.096
-169.896	-200.000	-0.029	-0.213
-168.881	-200.000	-0.023	-0.357
-167.866	800.000	0.023	-0.078
-166.852	483.974	-0.086	0.191
-165.837	-137.344	-0.112	0.012
-164.823	-200.000	0.021	-0.346
-163.808	-44.179	-0.120	-0.059
-162.793	338.300	0.107	-0.203
-161.779	70.329	0.334	-0.336
-160.764	800.000	-0.185	-0.698
-159.750	-77.861	-0.085	-0.029
-158.735	0.494	0.136	0.095
-157.720	800.000	0.064	0.254
-156.706	59.290	0.068	0.065
-155.691	-188.431	-0.191	0.002
-154.677	-109.955	-0.248	-0.051
-153.662	154.642	0.093	-0.124
-152.647	-200.000	0.030	0.282
-151.633	-88.785	-0.172	-0.050
-150.618	-36.432	-0.374	0.196
-149.604	28.186	0.099	-0.082
-148.589	800.000	0.064	0.220
-147.574	358.057	0.214	-0.417
-146.560	-200.000	-0.050	-0.265
-145.545	800.000	0.138	-0.396
-144.531	84.537	0.168	-0.179
-143.516	-111.162	0.410	-0.082
-142.502	-41.059	-0.116	0.058
-141.487	-72.561	-0.086	-0.031
-140.472	-122.729	0.200	0.031
-139.458	33.152	0.454	0.383
-138.443	-166.317	-0.298	0.012
-137.429	-200.000	0.038	-0.256
-136.414	-200.000	-0.030	-0.171
-135.399	180.536	0.105	0.150
-134.385	800.000	0.068	-0.277
-133.370	84.162	0.144	0.153
-132.356	-18.055	-0.240	0.146
-131.341	-115.876	-0.427	-0.078
-130.326	-33.279	0.223	-0.120
-129.312	73.587	0.139	-0.142
-128.297	244.741	0.073	-0.119
-127.283	-128.627	-0.208	-0.029
-126.268	-99.571	-0.326	0.080
-125.253	-200.000	-0.120	0.607
-124.239	571.013	0.207	0.490
-123.224	-6.934	0.008	-0.005
-122.210	-90.198	0.081	-0.023
-121.195	557.575	0.020	0.047
-120.180	125.689	-0.059	0.072
-119.166	-58.709	0.230	0.097
-118.151	-47.670	-0.052	-0.024
-117.137	800.000	-0.026	-0.089
-116.122	101.252	-0.308	0.348
-115.107	239.837	-0.199	0.323
-114.093	-200.000	-0.022	0.143
-113.078	-32.782	0.234	0.126
-112.064	-156.934	0.113	0.007
-111.049	800.000	-0.115	0.416
-110.034	-160.554	-0.328	-0.017
-109.020	-200.000	0.026	-0.278
-108.005	800.000	0.066	0.209
-106.991	-200.000	0.001	0.260
-105.976	16.369	-0.173	0.132
-104.962	67.937	0.222	0.221
-103.947	-80.711	-0.282	-0.091
-102.932	-161.938	-0.171	0.008
-101.918	223.812	-0.046	-0.073
-100.903	-68.547	0.210	0.079
-99.889	800.000	0.056	0.168
-98.874	-15.080	0.155	0.097
-97.859	209.428	-0.062	0.095
-96.845	-46.268	-0.088	0.042
-95.830	-47.929	0.255	-0.120
-94.816	-79.936	-0.200	-0.065
-93.801	-79.588	-0.103	0.034
-92.786	59.335	0.192	0.184
-91.772	-6.810	0.185	-0.122
-90.757	-200.000	0.001	0.052
-89.743	-73.637	0.173	0.061
-88.728	-61.518	-0.169	-0.069
-87.713	800.000	-0.126	0.354
-86.699	-125.737	0.169	-0.025
-85.684	60.854	-0.266	0.257
-84.670	237.380	0.069	-0.111
-83.655	-48.618	-0.189	0.088
-82.640	-200.000	-0.033	0.329
-81.626	224.223	-0.094	0.147
-80.611	-200.000	-0.031	-0.154
-79.597	-119.449	-0.227	0.038
-78.582	-94.742	0.214	-0.057
-77.567	352.346	0.116	-0.223
-76.553	51.346	0.266	-0.245
-75.538	-16.943	0.278	-0.171
-74.524	-171.450	0.389	0.013
-73.509	61.302	0.102	-0.098
-72.494	-64.411	-0.063	-0.025
-71.480	-44.891	0.070	0.034
-70.465	-49.261	-0.251	-0.116
-69.451	-200.000	0.036	-0.349
-68.436	67.752	0.254	0.252
-67.422	-41.814	0.185	0.092
-66.407	-200.000	0.070	0.459
-65.392	122.965	0.233	-0.283
-64.378	-46.031	-0.114	0.054
-63.363	-113.236	-0.341	0.065
-62.349	327.173	0.159	0.296
-61.334	38.314	-1.216	-1.051
-60.319	55.652	0.951	0.894
-59.305	800.000	-0.478	-1.566
-58.290	117.111	0.995	1.186
-57.276	800.000	0.548	1.650
-56.261	-200.000	134.741	686.371
-55.246	346.582	1674.980	3197.031
-54.232	133.944	2815.079	3536.512
-53.217	84.734	2310.070	2454.162
-52.203	30.483	1907.004	1581.324
-51.188	24.539	1701.758	1365.773
-50.173	22.555	1663.908	1320.493
-49.159	44.821	1738.117	1551.318
-48.144	41.788	1747.033	1535.954
-47.130	24.118	1697.387	1358.834
-46.115	21.585	1682.196	1327.442
-45.100	21.356	1677.429	1321.897
-44.086	21.335	1674.859	1319.660
-43.071	21.381	1672.090	1317.768
-42.057	21.302	1670.592	1315.945
-41.042	21.454	1667.857	1314.881
-40.027	21.396	1665.742	1312.728
-39.013	21.315	1664.577	1311.146
-37.998	21.338	1663.278	1310.242
-36.984	21.411	1661.950	1309.691
-35.969	21.527	1660.008	1308.975
-34.954	21.487	1658.581	1307.505
-33.940	21.469	1656.642	1305.784
-32.925	21.415	1654.986	1304.030
-31.911	21.422	1653.611	1302.945
-30.896	21.468	1651.507	1301.574
-29.881	21.388	1650.736	1300.322
-28.867	21.484	1648.950	1299.580
-27.852	21.466	1647.948	1298.600
-26.838	21.470	1646.118	1297.138
-25.823	21.594	1644.244	1296.526
-24.809	21.537	1643.608	1295.553
-23.794	21.531	1641.842	1294.067
-22.779	21.481	1640.959	1292.948
-21.765	21.529	1638.785	1291.543
-20.750	21.477	1636.993	1289.690
-19.736	21.516	1636.009	1289.153
-18.721	21.540	1634.672	1288.228
-17.706	21.559	1632.947	1286.958
-16.692	21.580	1631.331	1285.781
-15.677	21.590	1630.093	1284.828
-14.663	21.541	1629.343	1283.826
-13.648	21.580	1627.681	1282.753
-12.633	21.651	1625.495	1281.501
-11.619	21.546	1624.196	1279.657
-10.604	21.513	1623.019	1278.440
-9.590	21.605	1621.349	1277.743
-8.575	21.544	1619.991	1276.175
-7.560	21.593	1619.071	1275.756
-6.546	21.546	1618.059	1274.566
-5.531	21.531	1616.847	1273.458
-4.517	21.630	1615.406	1272.989
-3.502	21.501	1614.922	1271.622
-2.487	21.591	1612.839	1270.579
-1.473	21.060	1600.685	1257.131
-0.458	18.157	1580.696	1220.690
0.556	13.288	1582.781	1187.689
1.571	11.040	1606.438	1188.933
2.586	10.771	1617.826	1195.274
3.600	10.147	1563.066	1150.278
4.615	5.760	1458.141	1043.813
5.629	1.454	1402.521	976.285
6.644	0.733	1395.755	966.879
7.659	0.651	1395.260	965.927
8.673	0.775	1393.516	965.426
9.688	0.621	1391.380	962.880
10.702	0.468	1388.447	959.790
11.717	2.605	1390.693	974.860
12.731	8.716	1399.392	1019.899
13.746	14.724	1409.031	1065.260
14.761	17.082	1412.020	1082.479
15.775	16.699	1410.252	1078.594
16.790	15.604	1407.549	1069.464
17.804	14.886	1405.934	1063.573
18.819	14.559	1403.955	1059.907
19.834	14.332	1402.904	1057.577
20.848	14.060	1401.729	1054.871
21.863	13.885	1399.747	1052.181
22.877	13.685	1398.815	1050.116
23.892	13.542	1398.092	1048.575
24.907	13.467	1397.396	1047.487
25.921	13.539	1396.493	1047.172
26.936	13.598	1395.272	1046.540
27.950	13.765	1393.844	1046.431
28.965	13.821	1393.477	1046.415
29.980	13.691	1392.816	1045.006
30.994	13.780	1391.903	1044.790
32.009	13.835	1390.588	1044.053
33.023	13.934	1389.325	1043.637
34.038	13.790	1388.418	1041.960
35.053	13.727	1387.432	1040.732
36.067	13.775	1386.194	1040.008
37.082	13.822	1385.171	1039.445
38.096	13.803	1384.228	1038.524
39.111	13.729	1383.882	1037.713
40.126	13.659	1382.519	1036.163
41.140	13.653	1382.015	1035.654
42.155	13.616	1381.925	1035.263
43.169	13.517	1381.765	1034.434
44.184	13.677	1380.910	1034.699
45.199	13.669	1380.290	1034.097
46.213	13.674	1379.665	1033.569
47.228	13.679	1379.028	1033.030
48.242	13.652	1377.847	1031.883
49.257	13.662	1376.151	1030.586
50.271	13.739	1374.721	1029.904
51.286	13.676	1373.494	1028.499
52.301	13.670	1371.789	1027.094
53.315	13.618	1370.894	1026.015
54.330	13.577	1370.058	1025.045
55.344	13.658	1368.621	1024.377
56.359	13.563	1368.088	1023.303
57.374	13.556	1366.469	1021.954
58.388	13.584	1366.188	1021.829
59.403	13.557	1365.416	1020.996
60.417	13.467	1365.222	1020.204
61.432	13.533	1363.637	1019.338
62.447	13.451	1363.254	1018.453
63.461	13.581	1361.916	1018.165
64.476	13.532	1360.132	1016.439
65.490	13.623	1359.178	1016.193
66.505	13.606	1357.235	1014.548
67.520	13.612	1356.198	1013.720
68.534	13.564	1354.952	1012.407
69.549	13.546	1354.472	1011.849
70.563	13.559	1353.163	1010.856
71.578	13.495	1352.447	1009.846
72.593	13.534	1351.189	1009.053
73.607	13.537	1350.325	1008.340
74.622	13.453	1349.523	1007.139
75.636	13.499	1348.669	1006.693
76.651	13.553	1347.998	1006.429
77.666	13.396	1347.706	1005.167
78.680	13.491	1347.358	1005.400
79.695	13.486	1346.376	1004.548
80.709	13.453	1345.617	1003.689
81.724	13.559	1344.074	1003.091
82.739	13.602	1343.720	1003.000
83.753	13.576	1342.899	1002.140
84.768	13.729	1341.747	1002.116
85.782	13.687	1340.578	1000.901
86.797	13.769	1338.881	1000.041
87.812	13.709	1337.596	998.630
88.826	13.659	1336.627	997.516
89.841	13.757	1335.104	996.883
90.855	13.725	1334.386	996.068
91.870	13.738	1333.629	995.488
92.884	13.735	1332.648	994.652
93.899	13.810	1332.387	994.818
94.914	13.797	1331.059	993.661
95.928	13.907	1329.936	993.393
96.943	13.804	1329.576	992.422
97.957	13.763	1328.188	991.054
98.972	13.799	1327.309	990.524
99.987	13.854	1326.244	989.966
101.001	13.803	1325.043	988.682
102.016	13.727	1324.746	987.922
103.030	13.726	1323.858	987.162
104.045	13.793	1322.539	986.493
105.060	13.824	1321.219	985.601
106.074	13.683	1320.008	983.778
107.089	13.673	1318.768	982.707
108.103	13.617	1317.419	981.279
109.118	13.568	1316.436	980.176
110.133	13.680	1314.601	979.380
111.147	13.568	1313.712	977.969
112.162	13.641	1311.927	976.986
113.176	13.799	1310.815	977.003
114.191	13.678	1309.774	975.429
115.206	13.660	1309.016	974.670
116.220	13.773	1307.135	973.848
117.235	13.738	1306.460	973.053
118.249	13.726	1305.586	972.246
119.264	13.681	1304.482	971.076
120.279	13.650	1303.382	969.987
121.293	13.871	1301.272	969.623
122.308	13.791	1300.728	968.668
123.322	13.592	1300.314	967.111
124.337	13.626	1299.148	966.354
125.352	13.535	1298.159	965.002
126.366	13.574	1296.551	963.949
127.381	13.500	1295.923	962.968
128.395	13.582	1294.625	962.393
129.410	13.593	1293.657	961.651
130.424	13.653	1292.858	961.325
131.439	13.666	1291.544	960.336
132.454	13.718	1291.096	960.218
133.468	13.734	1289.613	959.123
134.483	13.693	1288.853	958.237
135.497	13.703	1287.853	957.466
136.512	13.680	1286.390	956.162
137.527	13.638	1285.270	955.002
138.541	13.780	1283.066	954.094
139.556	13.747	1282.145	953.137
140.570	13.734	1281.529	952.522
141.585	13.837	1279.832	951.764
142.600	13.786	1278.983	950.759
143.614	13.776	1278.265	950.080
144.629	13.804	1277.224	949.387
145.643	13.877	1275.783	948.648
146.658	13.803	1274.476	947.166
147.673	13.909	1273.076	946.647
148.687	13.728	1271.806	944.590
149.702	13.784	1271.126	944.320
150.716	13.788	1269.937	943.376
151.731	13.879	1268.130	942.465
152.746	13.808	1267.373	941.419
153.760	13.898	1265.746	940.635
154.775	13.946	1264.672	940.028
155.789	13.998	1263.538	939.393
156.804	14.003	1262.418	938.504
157.819	13.989	1261.420	937.604
158.833	14.042	1260.146	936.870
159.848	13.977	1259.729	936.115
160.862	14.045	1258.357	935.392
161.877	14.072	1257.361	934.721
162.892	13.981	1256.352	933.378
163.906	14.007	1255.344	932.691
164.921	14.016	1254.561	932.077
165.935	14.030	1253.841	931.538
166.950	14.086	1253.099	931.221
167.964	14.105	1252.531	930.820
168.979	13.973	1251.600	929.307
169.994	14.043	1250.703	928.953
171.008	14.042	1250.205	928.495
172.023	14.224	1248.509	928.169
173.037	14.149	1248.080	927.350
174.052	14.169	1247.379	926.859
175.067	14.082	1245.870	925.172
176.081	14.043	1245.589	924.661
177.096	14.120	1244.380	924.109
178.110	14.087	1243.327	923.066
179.125	14.097	1242.021	922.066
180.140	14.090	1240.855	921.079
181.154	14.177	1239.543	920.509
182.169	14.283	1238.138	919.971
183.183	14.201	1237.180	918.724
184.198	14.219	1235.811	917.726
185.213	14.355	1234.392	917.338
186.227	14.240	1233.809	916.190
187.242	14.279	1232.737	915.530
188.256	14.344	1231.793	915.101
189.271	14.253	1230.566	913.614
190.286	14.244	1229.488	912.679
191.300	14.301	1228.516	912.188
192.315	14.217	1228.220	911.428
193.329	14.270	1227.406	911.035
194.344	14.321	1226.801	910.783
195.359	14.293	1226.293	910.173
196.373	14.326	1225.540	909.716
197.388	14.416	1225.324	909.964
198.402	14.331	1224.774	909.011
199.417	14.474	1223.837	909.017
200.432	14.450	1223.430	908.501
201.446	14.531	1222.309	908.033
202.461	14.639	1220.860	907.462
203.475	14.592	1220.146	906.595
204.490	14.545	1219.013	905.418
205.504	14.586	1217.748	904.623
206.519	14.447	1217.065	903.282
207.534	14.457	1215.662	902.212
208.548	14.476	1214.600	901.448
209.563	14.595	1213.614	901.281
210.577	14.517	1213.004	900.323
211.592	14.568	1212.164	899.899
212.607	14.636	1210.972	899.301
213.621	14.709	1210.124	898.983
214.636	14.703	1209.087	898.102
215.650	14.685	1208.286	897.327
216.665	14.688	1207.023	896.328
217.680	14.682	1206.364	895.726
218.694	14.720	1205.574	895.264
219.709	14.749	1204.657	894.659
220.723	14.695	1204.868	894.450
221.738	14.753	1203.712	893.820
222.753	14.719	1202.852	892.924
223.767	14.864	1201.525	892.635
224.782	14.823	1201.232	892.118
225.796	14.814	1200.786	891.660
226.811	14.959	1199.774	891.602
227.826	14.982	1198.530	890.721
228.840	14.808	1198.295	889.540
229.855	14.897	1197.611	889.428
230.869	14.887	1196.889	888.758
231.884	14.888	1196.022	888.044
232.899	14.977	1194.867	887.579
233.913	14.888	1194.365	886.653
234.928	14.893	1193.626	886.055
235.942	14.942	1192.846	885.657
236.957	14.837	1192.304	884.621
237.972	14.913	1191.293	884.196
238.986	14.938	1190.849	883.917
240.001	14.891	1190.129	883.059
241.015	14.921	1189.355	882.561
242.030	14.898	1188.127	881.450
243.045	15.064	1187.612	881.866
244.059	14.871	1187.212	880.473
245.074	14.937	1186.066	879.895
246.088	15.008	1185.124	879.491
247.103	15.024	1184.425	878.981
248.117	15.188	1183.376	878.983
249.132	15.219	1182.618	878.505
250.147	15.261	1182.100	878.264
251.161	15.292	1181.535	877.925
252.176	15.449	1180.276	877.733
253.190	15.318	1180.062	876.812
254.205	15.351	1179.452	876.453
255.220	15.272	1178.738	875.434
256.234	15.346	1178.113	875.279
257.249	15.457	1177.236	875.130
258.263	15.417	1177.080	874.726
259.278	15.423	1176.017	873.891
260.293	15.426	1175.543	873.475
261.307	15.494	1174.430	872.925
262.322	15.515	1173.917	872.575
263.336	15.488	1173.784	872.261
264.351	15.562	1172.783	871.824
265.366	15.673	1171.433	871.317
266.380	15.582	1171.454	870.783
267.395	15.658	1170.072	870.076
268.409	15.527	1170.009	869.270
269.424	15.595	1169.249	868.980
270.439	15.640	1168.515	868.592
271.453	15.558	1168.028	867.731
272.468	15.526	1167.121	866.812
273.482	15.637	1166.232	866.648
274.497	15.546	1165.688	865.701
275.512	15.556	1165.574	865.592
276.526	15.478	1164.697	864.461
277.541	15.652	1163.479	864.374
278.555	15.742	1162.698	864.179
279.570	15.643	1162.143	863.181
280.585	15.733	1161.110	862.802
281.599	15.722	1160.484	862.206
282.614	15.651	1159.230	860.834
283.628	15.717	1158.560	860.595
284.643	15.777	1157.573	860.091
285.657	15.942	1155.889	859.608
286.672	15.832	1155.432	858.633
287.687	15.723	1154.899	857.605
288.701	15.830	1153.862	857.303
289.716	15.923	1152.644	856.796
290.730	15.879	1152.189	856.156
291.745	15.954	1151.527	855.969
292.760	15.931	1150.730	855.185
293.774	15.877	1150.636	854.767
294.789	15.915	1149.920	854.353
295.803	16.049	1148.922	854.215
296.818	16.004	1148.520	853.613
297.833	15.965	1147.628	852.676
298.847	16.006	1146.948	852.301
299.862	16.041	1145.982	851.683
300.876	15.980	1145.319	850.806
301.891	16.121	1144.274	850.667
302.906	16.025	1144.288	850.118
303.920	16.222	1142.901	850.006
304.935	16.191	1142.528	849.498
305.949	16.266	1141.626	849.131
306.964	16.190	1140.967	848.180
307.979	16.177	1140.380	847.605
308.993	16.255	1139.665	847.390
310.008	16.223	1139.139	846.766
311.022	16.327	1138.149	846.475
312.037	16.242	1137.028	845.140
313.052	16.351	1136.107	844.924
314.066	16.198	1135.534	843.659
315.081	16.214	1134.648	843.006
316.095	16.105	1134.132	842.007
317.110	16.108	1133.464	841.451
318.125	16.281	1132.261	841.345
319.139	16.196	1131.749	840.464
320.154	16.309	1131.357	840.662
321.168	16.308	1130.451	839.909
322.183	16.276	1130.065	839.392
323.197	16.316	1129.376	839.002
324.212	16.279	1128.932	838.415
325.227	16.392	1128.180	838.343
326.241	16.395	1127.608	837.858
327.256	16.402	1126.435	836.947
328.270	16.366	1125.480	835.984
329.285	16.358	1124.838	835.394
330.300	16.291	1124.138	834.470
331.314	16.412	1123.011	834.158
332.329	16.389	1121.954	833.186
333.343	16.437	1120.941	832.595
334.358	16.505	1120.108	832.239
335.373	16.492	1119.581	831.710
336.387	16.460	1118.851	830.935
337.402	16.407	1118.360	830.235
338.416	16.501	1117.539	830.016
339.431	16.580	1116.437	829.513
340.446	16.547	1116.157	829.068
341.460	16.668	1115.268	828.924
342.475	16.712	1114.388	828.416
343.489	16.728	1113.407	827.692
344.504	16.725	1112.686	827.068
345.519	16.732	1111.793	826.363
346.533	16.827	1110.790	826.007
347.548	16.730	1109.993	824.869
348.562	16.786	1109.419	824.642
349.577	16.786	1108.633	823.985
350.592	16.738	1108.243	823.391
351.606	16.804	1107.073	822.768
352.621	16.765	1106.364	821.978
353.635	16.760	1105.603	821.315
354.650	16.902	1105.166	821.606
355.665	16.769	1104.147	820.136
356.679	16.799	1103.600	819.801
357.694	16.794	1103.704	819.781
358.708	16.825	1102.711	819.118
359.723	16.844	1101.705	818.393
360.738	16.950	1100.877	818.217
361.752	16.799	1100.789	817.350
362.767	17.048	1099.916	817.827
363.781	16.971	1099.918	817.385
364.796	16.844	1099.458	816.360
365.810	17.011	1098.337	816.262
366.825	17.115	1097.404	815.995
367.840	17.070	1097.115	815.489
368.854	17.133	1096.268	815.091
369.869	17.086	1095.726	814.393
370.883	17.079	1095.147	813.856
371.898	17.018	1094.435	812.962
372.913	17.127	1094.017	813.100
373.927	17.150	1093.038	812.411
374.942	17.261	1092.401	812.399
375.956	17.115	1092.138	811.433
376.971	17.226	1091.452	811.380
377.986	17.217	1090.906	810.858
379.000	17.332	1090.404	810.963
380.015	17.226	1089.721	809.877
381.029	17.214	1089.203	809.362
382.044	17.327	1088.189	809.077
383.059	17.278	1087.861	808.529
384.073	17.296	1086.803	807.757
385.088	17.373	1085.703	807.235
386.102	17.431	1084.840	806.795
387.117	17.341	1084.164	805.794
388.132	17.318	1083.199	804.899
389.146	17.366	1082.060	804.208
390.161	17.461	1081.609	804.247
391.175	17.325	1080.969	803.059
392.190	17.338	1080.524	802.721
393.205	17.483	1079.564	802.619
394.219	17.525	1078.587	802.017
395.234	17.517	1077.590	801.171
396.248	17.517	1076.914	800.597
397.263	17.368	1075.832	799.022
398.278	17.526	1075.159	799.194
399.292	17.409	1074.469	798.061
400.307	17.488	1073.436	797.594
401.321	17.427	1073.180	797.044
402.336	17.509	1072.549	796.891
403.350	17.541	1071.612	796.273
404.365	17.461	1071.441	795.702
405.380	17.578	1070.351	795.368
406.394	17.535	1069.635	794.564
407.409	17.642	1068.911	794.455
408.423	17.695	1068.266	794.153
409.438	17.633	1067.589	793.291
410.453	17.755	1066.834	793.227
411.467	17.759	1066.026	792.572
412.482	17.715	1065.447	791.872
413.496	17.895	1064.826	792.174
414.511	17.774	1064.176	791.059
415.526	17.862	1063.734	791.067
416.540	17.898	1063.316	790.852
417.555	17.908	1062.448	790.184
418.569	17.955	1062.146	790.108
419.584	17.885	1061.615	789.320
420.599	17.843	1061.483	788.956
421.613	109.556	1332.051	1489.699
422.628	101.194	1371.402	1489.792
