DTS Sentinel unit serial number:	SN413079Multiplexer serial number:	ORYXHardware model number:	OX4-SRSoftware version number:	ORYX F/W v4.00 Oryx Data Collector v3.7.2.0data status	okinstallation	princeton_trtdifferential loss correction	single-endedforward channel	channel 2reverse channel	N/Adate	2019/09/18time	04:11:35forward acquisition time	60.00reverse acquisition time	0.00gamma	496.2192k internal	0.2348k external	0.2348temperature offset calibration	0.9985default loss term (dB/km)	0.3790temperature slope calibration	1.0000multiplexer offset coefficient	1.0000multiplexer slope coefficient	1.0000fibre end	0.00T internal ref (°C)	23.28T ext. ref 1 (°C)	0.18T ext. ref 2 (°C)	17.73length (m)	temperature (°C)	Stokes	anti-Stokes-747.200	405.147	-0.083	-0.174
-746.185	800.000	-0.065	0.228
-745.171	7.229	0.287	0.214
-744.156	-71.285	-0.058	0.022
-743.142	290.412	0.197	0.358
-742.127	-8.194	0.142	-0.096
-741.112	562.647	0.059	0.143
-740.098	-15.818	-0.270	0.172
-739.083	10.095	0.316	0.240
-738.069	272.810	-0.060	0.106
-737.054	112.204	0.172	-0.207
-736.039	-137.343	-0.136	0.015
-735.025	62.061	0.152	-0.151
-734.010	-200.000	-0.018	-0.172
-732.996	101.558	0.141	0.164
-731.981	39.151	-0.412	-0.368
-730.966	686.818	0.133	-0.348
-729.952	-49.260	-0.199	-0.095
-728.937	-200.000	0.019	0.184
-727.923	800.000	0.025	-0.093
-726.908	364.273	0.108	0.217
-725.894	-22.118	0.104	-0.063
-724.879	-124.878	-0.248	-0.038
-723.864	-146.902	0.393	-0.034
-722.850	322.265	-0.055	-0.104
-721.835	-118.739	-0.527	0.093
-720.821	179.614	0.335	-0.489
-719.806	-200.000	-0.009	-0.125
-718.791	11.030	0.154	-0.117
-717.777	-200.000	-0.002	0.316
-716.762	800.000	-0.026	-0.084
-715.748	-81.121	0.171	-0.056
-714.733	800.000	-0.060	-0.187
-713.718	114.295	-0.359	-0.436
-712.704	614.490	0.128	0.321
-711.689	-152.573	0.215	-0.015
-710.675	16.735	-0.087	0.068
-709.660	667.202	0.049	0.126
-708.645	43.047	-0.095	-0.087
-707.631	38.278	-0.226	-0.201
-706.616	-75.600	-0.164	0.058
-705.602	-71.206	-0.072	0.027
-704.587	12.689	-0.447	0.344
-703.572	298.526	-0.185	-0.340
-702.558	-78.759	0.079	-0.027
-701.543	-121.576	-0.149	-0.025
-700.529	-35.889	0.201	-0.109
-699.514	-84.866	0.280	-0.088
-698.499	130.395	0.248	-0.317
-697.485	94.775	0.254	-0.289
-696.470	420.276	0.036	-0.076
-695.456	-200.000	0.024	0.176
-694.441	-200.000	-0.004	0.171
-693.426	-135.519	0.072	0.009
-692.412	-104.825	-0.193	0.044
-691.397	404.999	-0.064	-0.135
-690.383	120.824	0.116	-0.144
-689.368	-45.981	0.229	-0.113
-688.354	187.479	-0.036	-0.054
-687.339	239.534	0.063	0.104
-686.324	326.730	-0.138	0.264
-685.310	-200.000	-0.005	-0.143
-684.295	529.265	0.014	-0.033
-683.281	56.157	-0.275	0.266
-682.266	16.381	-0.145	0.114
-681.251	90.171	0.459	-0.512
-680.237	-200.000	0.036	-0.268
-679.222	71.197	0.260	0.269
-678.208	58.331	-0.058	0.057
-677.193	-200.000	0.033	-0.229
-676.178	-200.000	0.011	-0.142
-675.164	-108.315	0.294	-0.063
-674.149	800.000	0.004	0.011
-673.135	-200.000	0.029	-0.135
-672.120	-107.155	-0.125	-0.027
-671.105	88.516	-0.122	-0.135
-670.091	-200.000	0.008	0.291
-669.076	800.000	-0.061	-0.171
-668.062	-200.000	-0.001	0.029
-667.047	-51.685	-0.139	0.064
-666.032	31.846	-0.047	-0.040
-665.018	201.955	-0.182	0.280
-664.003	-200.000	-0.016	-0.072
-662.989	-51.825	-0.138	0.064
-661.974	-183.806	-0.239	-0.004
-660.959	-120.506	0.249	-0.042
-659.945	-200.000	-0.002	-0.099
-658.930	87.848	-0.047	0.052
-657.916	-102.718	0.113	-0.027
-656.901	38.469	0.294	-0.261
-655.886	800.000	-0.033	0.122
-654.872	476.204	0.087	0.195
-653.857	19.974	-0.171	-0.137
-652.843	-53.560	0.025	0.012
-651.828	800.000	-0.045	0.178
-650.814	167.050	0.132	0.186
-649.799	28.472	-0.272	0.229
-648.784	151.991	0.032	0.044
-647.770	79.810	0.164	0.175
-646.755	-138.748	-0.087	0.009
-645.741	-102.910	0.079	0.019
-644.726	281.204	-0.023	0.041
-643.711	-200.000	0.011	0.197
-642.697	800.000	0.074	-0.299
-641.682	-110.799	0.252	0.052
-640.668	5.978	0.169	-0.124
-639.653	-36.759	-0.442	0.236
-638.638	-22.519	-0.351	0.211
-637.624	148.081	-0.177	0.238
-636.609	-36.778	0.060	-0.032
-635.595	-91.542	-0.192	-0.054
-634.580	182.271	0.133	-0.195
-633.565	-30.850	0.185	-0.104
-632.551	18.346	-0.025	-0.019
-631.536	-132.914	-0.056	0.007
-630.522	-200.000	0.028	0.176
-629.507	-200.000	-0.003	0.124
-628.492	-23.620	-0.257	0.153
-627.478	-19.744	-0.288	-0.177
-626.463	118.199	-0.226	-0.278
-625.449	676.985	0.048	0.123
-624.434	-64.196	0.334	-0.135
-623.419	764.635	0.021	-0.056
-622.405	-146.421	0.335	0.029
-621.390	671.309	-0.067	-0.174
-620.376	-21.579	-0.309	0.187
-619.361	-11.603	-0.045	-0.030
-618.346	-200.000	0.047	-0.453
-617.332	2.817	-0.130	-0.094
-616.317	-200.000	0.006	0.163
-615.303	-178.094	0.285	-0.007
-614.288	-97.034	0.090	-0.023
-613.273	-19.595	0.147	-0.090
-612.259	-5.473	0.151	-0.103
-611.244	-101.471	-0.250	-0.061
-610.230	39.862	-0.225	0.201
-609.215	6.903	0.095	0.070
-608.201	-54.067	-0.130	0.059
-607.186	546.366	-0.094	-0.224
-606.171	40.182	-0.046	0.042
-605.157	60.502	0.150	-0.148
-604.142	-143.944	-0.297	0.028
-603.128	-6.596	0.148	0.100
-602.113	8.471	-0.217	0.162
-601.098	503.994	-0.145	-0.333
-600.084	93.976	-0.148	0.167
-599.069	21.549	-0.162	0.131
-598.055	-200.000	-0.066	0.461
-597.040	-34.569	-0.282	0.153
-596.025	9.019	-0.085	0.064
-595.011	136.542	0.095	-0.123
-593.996	-200.000	-0.005	-0.213
-592.982	-24.293	0.094	0.056
-591.967	-27.814	-0.181	-0.104
-590.952	800.000	0.076	-0.271
-589.938	36.216	0.148	-0.130
-588.923	-200.000	-0.055	0.274
-587.909	-130.248	0.272	-0.037
-586.894	-168.918	-0.427	-0.016
-585.879	-61.264	-0.200	0.084
-584.865	26.161	0.328	-0.272
-583.850	88.320	0.152	-0.168
-582.836	-100.319	0.040	0.010
-581.821	508.360	0.062	0.143
-580.806	-200.000	0.038	0.211
-579.792	-130.495	0.050	0.007
-578.777	-200.000	-0.015	-0.387
-577.763	-34.683	-0.101	0.055
-576.748	-147.282	-0.164	-0.014
-575.733	413.241	-0.146	-0.308
-574.719	8.875	-0.103	-0.077
-573.704	40.850	-0.131	-0.117
-572.690	-5.554	-0.310	-0.211
-571.675	-200.000	0.081	-0.371
-570.661	-33.455	0.123	0.067
-569.646	49.759	0.227	-0.212
-568.631	175.818	0.204	0.293
-567.617	-35.095	-0.150	-0.081
-566.602	-200.000	0.027	-0.211
-565.588	35.909	0.069	0.060
-564.573	279.418	-0.153	-0.272
-563.558	208.554	-0.143	-0.222
-562.544	-136.864	-0.221	0.025
-561.529	651.420	-0.100	0.254
-560.515	-200.000	-0.018	-0.169
-559.500	-1.071	0.137	0.096
-558.485	-200.000	0.022	-0.285
-557.471	330.338	-0.200	0.383
-556.456	-200.000	-0.045	-0.277
-555.442	422.212	-0.081	0.173
-554.427	-200.000	0.025	-0.137
-553.412	32.934	-0.092	0.079
-552.398	666.537	-0.073	-0.186
-551.383	-3.730	-0.085	-0.059
-550.369	101.518	-0.061	0.071
-549.354	-103.683	0.066	-0.015
-548.339	42.986	-0.103	-0.093
-547.325	-112.880	-0.398	-0.078
-546.310	-63.765	-0.261	-0.106
-545.296	-40.494	-0.117	-0.060
-544.281	800.000	-0.086	-0.260
-543.266	93.306	-0.190	0.213
-542.252	-68.933	0.278	0.106
-541.237	-84.648	-0.140	-0.044
-540.223	800.000	-0.054	-0.202
-539.208	-78.548	-0.139	0.047
-538.193	-21.830	0.288	-0.173
-537.179	215.077	-0.068	-0.107
-536.164	2.971	-0.102	-0.074
-535.150	-143.480	0.107	-0.010
-534.135	-200.000	-0.022	0.350
-533.121	-184.246	0.134	0.002
-532.106	4.274	-0.048	0.035
-531.091	-66.635	-0.228	-0.089
-530.077	725.466	-0.086	0.227
-529.062	800.000	0.052	-0.204
-528.048	-200.000	0.006	0.065
-527.033	14.369	-0.071	0.055
-526.018	-63.474	0.092	-0.037
-525.004	800.000	0.078	-0.288
-523.989	-200.000	0.019	-0.150
-522.975	58.415	-0.249	0.242
-521.960	-200.000	0.048	0.310
-520.945	5.648	0.161	-0.118
-519.931	162.285	-0.078	0.109
-518.916	201.458	0.098	-0.150
-517.902	-200.000	0.005	0.243
-516.887	800.000	0.051	-0.184
-515.872	-44.289	-0.253	-0.126
-514.858	-43.338	-0.116	-0.058
-513.843	-200.000	-0.011	-0.273
-512.829	-26.152	-0.053	0.031
-511.814	-30.462	-0.118	-0.066
-510.799	-67.890	-0.332	0.128
-509.785	-190.349	-0.231	0.003
-508.770	130.905	-0.027	0.034
-507.756	147.707	-0.134	-0.179
-506.741	-61.507	0.207	-0.086
-505.726	-200.000	0.015	-0.300
-504.712	-128.786	-0.261	-0.036
-503.697	-130.472	0.292	-0.039
-502.683	641.284	0.026	0.065
-501.668	10.506	0.179	-0.135
-500.653	-110.155	0.304	-0.063
-499.639	123.355	0.117	-0.145
-498.624	-200.000	-0.011	-0.366
-497.610	-200.000	-0.017	0.256
-496.595	-118.851	-0.060	0.011
-495.581	-126.569	0.211	-0.031
-494.566	72.377	-0.233	-0.240
-493.551	87.177	0.107	0.117
-492.537	-99.713	-0.530	-0.132
-491.522	-200.000	-0.062	-0.276
-490.508	-3.256	0.086	0.059
-489.493	-46.126	-0.049	-0.024
-488.478	11.576	0.158	-0.120
-487.464	-23.716	0.288	-0.171
-486.449	-200.000	-0.037	0.257
-485.435	-151.139	-0.114	0.008
-484.420	94.636	-0.117	0.131
-483.405	-158.097	0.189	0.011
-482.391	-29.258	-0.018	-0.010
-481.376	-14.109	0.168	-0.107
-480.362	-200.000	-0.074	-0.332
-479.347	643.012	-0.146	-0.369
-478.332	94.908	0.272	-0.306
-477.318	-18.759	-0.349	0.215
-476.303	188.426	-0.090	-0.134
-475.289	560.661	0.088	0.211
-474.274	51.007	-0.173	-0.162
-473.259	-37.069	0.156	-0.083
-472.245	-200.000	0.001	-0.013
-471.230	48.389	0.153	0.141
-470.216	540.950	-0.048	-0.113
-469.201	-200.000	-0.006	-0.076
-468.186	-103.765	0.426	0.099
-467.172	-59.672	0.355	0.150
-466.157	38.808	-0.153	-0.135
-465.143	87.339	-0.254	-0.277
-464.128	-155.244	0.198	0.013
-463.113	-68.915	0.032	0.012
-462.099	-114.077	-0.062	-0.012
-461.084	415.660	-0.019	0.039
-460.070	-73.574	-0.188	0.068
-459.055	-149.579	-0.221	-0.017
-458.040	91.714	0.114	-0.127
-457.026	-139.580	-0.160	0.017
-456.011	196.201	0.068	-0.102
-454.997	-59.313	0.332	0.141
-453.982	49.952	0.069	-0.064
-452.968	-200.000	0.001	0.035
-451.953	42.990	0.071	0.064
-450.938	-200.000	-0.016	-0.078
-449.924	292.897	-0.067	-0.120
-448.909	-151.701	0.255	-0.019
-447.895	-200.000	-0.024	0.400
-446.880	703.857	0.092	0.240
-445.865	92.436	-0.207	0.231
-444.851	14.006	-0.136	-0.104
-443.836	-200.000	0.033	-0.242
-442.822	5.512	-0.087	0.064
-441.807	-133.178	0.238	0.030
-440.792	69.820	-0.355	-0.362
-439.778	-7.572	0.284	-0.189
-438.763	56.874	0.052	0.050
-437.749	-9.808	-0.352	-0.231
-436.734	396.219	0.137	-0.283
-435.719	235.876	0.112	-0.183
-434.705	800.000	-0.052	0.203
-433.690	519.649	0.203	0.469
-432.676	274.999	0.162	-0.284
-431.661	-153.902	0.123	0.008
-430.646	196.671	-0.288	-0.434
-429.632	-53.090	-0.134	-0.061
-428.617	-106.867	-0.061	0.013
-427.603	-28.600	0.444	-0.252
-426.588	-94.118	-0.097	0.026
-425.573	1.920	-0.259	0.185
-424.559	800.000	-0.057	-0.212
-423.544	-94.269	-0.283	0.076
-422.530	-200.000	-0.022	0.347
-421.515	46.529	0.158	0.145
-420.500	205.292	-0.110	-0.169
-419.486	281.054	0.042	0.075
-418.471	397.552	-0.098	-0.203
-417.457	-105.436	-0.017	0.004
-416.442	26.098	0.280	0.231
-415.428	76.038	-0.055	-0.057
-414.413	-200.000	-0.039	0.167
-413.398	-97.424	0.170	0.044
-412.384	478.335	0.061	0.136
-411.369	44.863	0.239	-0.217
-410.355	-167.549	0.004	-0.000
-409.340	-114.234	0.276	0.053
-408.325	291.242	-0.188	0.338
-407.311	800.000	0.038	-0.129
-406.296	-38.910	0.286	-0.149
-405.282	800.000	0.052	0.150
-404.267	40.143	0.172	0.152
-403.252	800.000	-0.038	0.130
-402.238	54.165	0.192	0.182
-401.223	54.118	-0.290	-0.275
-400.209	-68.039	-0.099	-0.038
-399.194	-162.229	0.198	0.010
-398.179	-63.177	-0.347	-0.141
-397.165	-99.286	0.242	0.060
-396.150	312.108	-0.273	-0.504
-395.136	-200.000	-0.038	-0.415
-394.121	42.081	0.187	0.167
-393.106	25.001	0.138	0.113
-392.092	88.709	-0.018	-0.019
-391.077	-148.077	0.336	0.027
-390.063	-200.000	-0.016	-0.241
-389.048	-64.067	0.300	0.121
-388.033	-75.125	0.253	0.089
-387.019	-55.181	-0.229	0.102
-386.004	-44.856	-0.088	-0.043
-384.990	800.000	0.101	0.348
-383.975	-40.517	-0.353	-0.181
-382.960	39.250	-0.118	-0.104
-381.946	-154.143	0.086	0.006
-380.931	301.988	-0.092	-0.168
-379.917	-143.217	0.160	-0.015
-378.902	-200.000	0.035	0.157
-377.888	-200.000	0.041	0.505
-376.873	-200.000	-0.048	-0.279
-375.858	800.000	-0.059	-0.174
-374.844	-161.203	0.303	0.016
-373.829	-200.000	-0.048	0.273
-372.815	-120.160	-0.181	0.031
-371.800	800.000	0.076	0.214
-370.785	-200.000	-0.020	0.177
-369.771	-66.819	-0.061	-0.024
-368.756	142.682	-0.122	-0.159
-367.742	-200.000	0.045	-0.205
-366.727	800.000	0.120	0.471
-365.712	-160.668	-0.139	-0.007
-364.698	-68.119	-0.205	0.079
-363.683	48.687	-0.060	0.055
-362.669	787.452	-0.079	-0.213
-361.654	-49.886	0.185	0.086
-360.639	-68.382	-0.054	-0.021
-359.625	-200.000	-0.035	0.252
-358.610	49.098	0.077	0.071
-357.596	75.999	-0.413	-0.430
-356.581	47.452	-0.212	0.195
-355.566	17.274	0.228	0.178
-354.552	800.000	0.075	-0.236
-353.537	28.598	-0.034	-0.029
-352.523	97.749	0.161	-0.182
-351.508	-200.000	0.028	0.223
-350.493	338.529	0.098	0.189
-349.479	-200.000	0.048	-0.220
-348.464	487.949	0.055	0.123
-347.450	800.000	-0.022	0.064
-346.435	8.898	0.124	0.092
-345.420	32.665	-0.163	-0.139
-344.406	391.959	0.074	0.152
-343.391	-4.707	-0.348	-0.236
-342.377	66.802	-0.083	0.083
-341.362	-128.778	-0.118	-0.016
-340.348	-65.027	-0.192	-0.076
-339.333	463.372	0.122	0.269
-338.318	81.764	-0.169	0.180
-337.304	-89.054	0.360	0.105
-336.289	113.792	-0.078	-0.094
-335.275	-104.760	-0.268	0.061
-334.260	144.686	0.041	0.054
-333.245	-181.472	-0.179	-0.003
-332.231	-200.000	0.014	-0.217
-331.216	41.295	0.217	-0.193
-330.202	-200.000	-0.060	-0.266
-329.187	800.000	0.007	0.027
-328.172	-86.842	-0.186	-0.056
-327.158	19.377	0.149	-0.118
-326.143	663.292	-0.083	-0.211
-325.129	319.993	0.182	-0.339
-324.114	-200.000	0.149	-0.000
-323.099	453.213	0.068	0.148
-322.085	-144.418	-0.171	-0.016
-321.070	-200.000	-0.013	-0.186
-320.056	-162.189	0.181	0.009
-319.041	800.000	0.104	0.402
-318.026	-157.417	-0.053	-0.003
-317.012	-200.000	-0.006	0.063
-315.997	-200.000	-0.035	0.339
-314.983	692.066	-0.147	-0.380
-313.968	26.790	-0.194	-0.160
-312.953	5.261	0.258	0.187
-311.939	-91.244	0.579	0.163
-310.924	7.263	0.032	-0.023
-309.910	36.511	0.207	0.179
-308.895	414.017	0.134	-0.279
-307.880	800.000	-0.060	-0.168
-306.866	-200.000	-0.008	0.056
-305.851	48.595	-0.331	0.305
-304.837	679.117	-0.068	0.173
-303.822	-200.000	-0.003	0.094
-302.807	76.969	0.071	0.074
-301.793	66.376	0.049	-0.049
-300.778	118.477	-0.210	0.255
-299.764	-39.284	0.147	0.076
-298.749	533.565	-0.053	-0.123
-297.735	-64.065	-0.266	0.107
-296.720	-110.713	-0.348	0.071
-295.705	-18.215	0.109	-0.067
-294.691	363.180	-0.072	-0.142
-293.676	-200.000	0.017	0.123
-292.662	-200.000	0.008	-0.177
-291.647	55.401	0.127	-0.120
-290.632	-177.003	-0.246	0.006
-289.618	56.112	0.177	0.169
-288.603	277.171	0.114	0.199
-287.589	-161.145	-0.137	-0.007
-286.574	800.000	0.088	-0.257
-285.559	-107.165	-0.083	-0.018
-284.545	-95.996	0.239	0.062
-283.530	-38.418	-0.322	0.167
-282.516	-149.338	0.344	-0.027
-281.501	-125.109	-0.083	-0.012
-280.486	-192.296	0.130	-0.001
-279.472	141.939	-0.236	0.307
-278.457	671.084	-0.129	0.328
-277.443	-78.069	0.393	0.133
-276.428	-34.937	-0.218	0.117
-275.413	-73.849	-0.176	-0.063
-274.399	156.609	0.204	0.277
-273.384	179.597	0.098	0.141
-272.370	800.000	-0.137	-0.411
-271.355	49.635	-0.073	0.067
-270.340	-149.138	-0.191	-0.015
-269.326	28.403	0.153	-0.127
-268.311	-200.000	0.011	-0.090
-267.297	-72.118	-0.136	0.049
-266.282	209.754	-0.060	0.092
-265.267	23.633	0.156	-0.126
-264.253	693.588	0.047	-0.120
-263.238	-148.730	0.117	0.009
-262.224	42.693	0.292	0.260
-261.209	-77.198	0.151	-0.051
-260.195	-80.289	0.260	-0.085
-259.180	-106.936	-0.333	0.072
-258.165	800.000	-0.083	0.298
-257.151	509.124	-0.104	0.237
-256.136	-153.393	-0.113	0.008
-255.122	-112.075	0.305	-0.060
-254.107	14.632	0.088	0.068
-253.092	800.000	0.007	0.024
-252.078	24.679	0.061	-0.049
-251.063	800.000	-0.031	-0.132
-250.049	177.628	0.141	0.201
-249.034	345.193	0.131	-0.253
-248.019	800.000	-0.032	0.128
-247.005	550.444	0.049	0.115
-245.990	-101.430	-0.201	-0.048
-244.976	11.366	0.072	-0.054
-243.961	-59.028	0.140	-0.059
-242.946	-200.000	-0.054	-0.234
-241.932	82.019	-0.157	-0.167
-240.917	-84.955	0.132	0.041
-239.903	85.491	-0.291	0.313
-238.888	149.821	-0.186	-0.248
-237.873	-26.451	0.051	0.030
-236.859	-138.872	0.261	-0.028
-235.844	42.572	0.249	-0.222
-234.830	343.160	0.131	0.252
-233.815	631.906	-0.009	-0.023
-232.800	-200.000	-0.012	-0.332
-231.786	-29.353	-0.147	0.082
-230.771	-65.937	-0.265	0.104
-229.757	-200.000	0.081	0.423
-228.742	-93.967	0.428	-0.115
-227.727	-150.955	-0.194	0.014
-226.713	-40.500	0.199	-0.101
-225.698	-133.276	0.089	-0.011
-224.684	-85.414	0.259	0.079
-223.669	308.924	-0.095	-0.174
-222.655	337.324	0.090	-0.171
-221.640	-91.832	0.077	0.022
-220.625	-200.000	0.048	0.534
-219.611	220.898	0.094	0.148
-218.596	101.284	0.141	0.161
-217.582	-147.844	0.302	-0.025
-216.567	7.756	-0.209	0.153
-215.552	32.221	-0.016	0.014
-214.538	-153.377	-0.208	-0.014
-213.523	-122.470	0.187	0.030
-212.509	406.529	0.132	0.273
-211.494	-191.142	-0.252	-0.003
-210.479	-93.536	-0.106	0.029
-209.465	-24.811	0.105	-0.061
-208.450	125.154	0.175	-0.216
-207.436	144.387	-0.041	-0.054
-206.421	-52.163	0.159	-0.072
-205.406	-115.148	-0.238	0.044
-204.392	-200.000	0.001	0.518
-203.377	553.600	0.121	-0.284
-202.363	600.347	-0.048	-0.117
-201.348	-58.928	0.171	0.072
-200.333	283.162	-0.031	0.054
-199.319	-67.670	0.249	0.095
-198.304	-129.998	0.455	0.061
-197.290	-147.919	-0.145	0.012
-196.275	183.463	0.197	-0.284
-195.260	38.394	-0.090	-0.078
-194.246	-200.000	-0.033	0.263
-193.231	65.357	0.171	0.169
-192.217	42.493	0.104	0.092
-191.202	351.732	0.170	0.329
-190.187	601.554	0.150	0.365
-189.173	118.510	-0.177	0.214
-188.158	184.689	-0.069	-0.100
-187.144	-200.000	0.032	0.247
-186.129	87.522	0.203	-0.219
-185.114	-200.000	-0.039	0.284
-184.100	751.354	-0.122	0.323
-183.085	-42.295	-0.097	0.048
-182.071	800.000	0.032	0.094
-181.056	800.000	0.022	0.071
-180.042	-138.653	-0.176	0.019
-179.027	385.966	0.193	0.390
-178.012	-100.562	-0.263	0.064
-176.998	-42.113	0.461	0.230
-175.983	-79.159	0.195	0.065
-174.969	-200.000	-0.010	0.340
-173.954	-200.000	0.008	0.094
-172.939	74.056	0.149	0.153
-171.925	-96.012	0.094	0.024
-170.910	800.000	-0.023	-0.065
-169.896	800.000	0.108	0.311
-168.881	-72.990	-0.363	0.130
-167.866	-50.680	-0.211	-0.097
-166.852	-106.511	0.260	-0.057
-165.837	-200.000	-0.080	-0.378
-164.823	-92.520	-0.250	0.069
-163.808	350.471	0.062	-0.120
-162.793	-162.114	-0.370	-0.018
-161.779	-112.556	0.310	0.060
-160.764	-50.685	-0.032	-0.015
-159.750	-96.856	-0.316	-0.081
-158.735	-106.730	0.119	0.026
-157.720	-65.239	-0.108	0.043
-156.706	-111.273	0.679	-0.135
-155.691	9.040	-0.323	0.238
-154.677	117.802	-0.039	-0.047
-153.662	187.438	0.134	-0.196
-152.647	-102.017	0.385	-0.091
-151.633	-200.000	0.027	-0.189
-150.618	340.721	0.077	0.147
-149.604	27.301	-0.099	0.081
-148.589	-45.881	0.283	-0.136
-147.574	800.000	-0.138	-0.540
-146.560	-123.793	-0.558	-0.086
-145.545	-200.000	-0.020	-0.252
-144.531	101.647	0.181	0.206
-143.516	-45.590	0.164	0.079
-142.502	-200.000	0.009	0.105
-141.487	114.791	0.063	0.075
-140.472	-163.553	0.022	0.001
-139.458	-130.115	0.143	0.019
-138.443	-89.301	0.183	0.053
-137.429	290.672	-0.009	0.016
-136.414	-158.636	0.273	-0.015
-135.399	-200.000	0.036	-0.181
-134.385	126.586	0.086	-0.106
-133.370	14.417	0.109	-0.083
-132.356	-200.000	0.053	0.286
-131.341	-200.000	0.033	-0.302
-130.326	-76.129	-0.071	0.024
-129.312	247.628	0.056	-0.093
-128.297	-200.000	-0.068	0.533
-127.283	187.252	-0.062	0.090
-126.268	104.065	0.086	0.098
-125.253	-90.700	-0.272	-0.077
-124.239	116.276	0.261	-0.312
-123.224	-178.939	0.113	0.002
-122.210	-44.505	-0.110	0.053
-121.195	-200.000	-0.016	0.448
-120.180	-200.000	-0.006	-0.070
-119.166	800.000	0.015	-0.052
-118.151	-200.000	0.010	0.048
-117.137	143.197	0.218	-0.283
-116.122	-200.000	0.053	-0.306
-115.107	340.168	-0.070	0.134
-114.093	58.773	0.157	0.150
-113.078	-200.000	0.120	-0.577
-112.064	-120.297	0.448	0.075
-111.049	366.411	-0.061	-0.121
-110.034	-200.000	-0.014	0.396
-109.020	-38.499	0.109	-0.056
-108.005	77.783	0.289	-0.300
-106.991	50.407	0.166	0.153
-105.976	223.350	-0.235	-0.369
-104.962	293.846	0.062	-0.110
-103.947	16.443	-0.140	0.108
-102.932	313.954	0.018	-0.032
-101.918	572.482	0.166	0.395
-100.903	-200.000	0.008	-0.071
-99.889	-200.000	-0.088	-0.419
-98.874	156.877	-0.053	-0.072
-97.859	-200.000	-0.010	-0.447
-96.845	800.000	-0.074	-0.304
-95.830	800.000	0.072	-0.252
-94.816	77.964	0.280	0.291
-93.801	-200.000	0.051	0.510
-92.786	324.778	-0.071	-0.132
-91.772	49.778	0.064	-0.058
-90.757	-200.000	0.000	0.240
-89.743	-36.446	-0.170	0.089
-88.728	800.000	-0.110	0.298
-87.713	20.150	0.200	0.157
-86.699	-200.000	0.005	0.249
-85.684	-200.000	-0.006	0.131
-84.670	-147.767	0.108	-0.009
-83.655	221.392	0.207	0.323
-82.640	-69.021	0.343	-0.129
-81.626	684.209	0.079	0.202
-80.611	-22.690	0.316	0.186
-79.597	194.317	-0.052	-0.077
-78.582	-82.583	-0.250	0.079
-77.567	116.673	0.149	0.178
-76.553	-200.000	0.045	-0.302
-75.538	800.000	-0.137	0.370
-74.524	800.000	-0.066	-0.212
-73.509	307.920	0.107	-0.195
-72.494	-7.575	-0.419	0.276
-71.480	-103.520	0.125	-0.029
-70.465	183.602	0.135	0.194
-69.451	-188.741	0.259	0.003
-68.436	166.365	-0.173	0.239
-67.422	29.707	0.261	-0.216
-66.407	-70.712	-0.353	0.130
-65.392	-200.000	-0.068	0.446
-64.378	122.276	0.107	0.130
-63.363	-200.000	0.080	0.357
-62.349	65.319	-0.384	0.378
-61.334	172.669	-0.781	-1.094
-60.319	41.010	0.806	0.708
-59.305	382.452	-0.577	-1.154
-58.290	179.842	0.966	1.377
-57.276	-200.000	0.347	1.766
-56.261	-200.000	124.475	640.588
-55.246	411.113	1563.375	3226.384
-54.232	143.093	2732.154	3534.653
-53.217	89.240	2305.343	2498.170
-52.203	32.288	1914.781	1607.329
-51.188	26.158	1710.669	1388.936
-50.173	24.172	1671.491	1342.134
-49.159	45.260	1740.728	1561.016
-48.144	43.340	1752.124	1556.392
-47.130	25.934	1703.643	1381.296
-46.115	23.424	1688.578	1349.941
-45.100	23.163	1684.064	1344.298
-44.086	23.109	1681.152	1341.508
-43.071	23.061	1679.172	1339.511
-42.057	23.179	1676.313	1338.073
-41.042	23.187	1674.244	1336.430
-40.027	23.221	1672.373	1335.135
-39.013	23.186	1670.332	1333.192
-37.998	23.147	1669.136	1331.888
-36.984	23.239	1668.184	1331.768
-35.969	23.254	1666.730	1330.670
-34.954	23.405	1664.704	1330.128
-33.940	23.275	1662.977	1327.725
-32.925	23.228	1661.607	1326.225
-31.911	23.312	1659.727	1325.297
-30.896	23.306	1657.627	1323.527
-29.881	23.274	1656.881	1322.640
-28.867	23.370	1654.688	1321.553
-27.852	23.277	1653.555	1319.902
-26.838	23.254	1652.111	1318.527
-25.823	23.329	1650.440	1317.696
-24.809	23.258	1649.808	1316.608
-23.794	23.328	1647.761	1315.444
-22.779	23.352	1646.424	1314.506
-21.765	23.221	1645.366	1312.637
-20.750	23.242	1643.386	1311.157
-19.736	23.310	1641.681	1310.251
-18.721	23.322	1640.149	1309.062
-17.706	23.274	1638.969	1307.717
-16.692	23.310	1637.438	1306.705
-15.677	23.333	1635.911	1305.611
-14.663	23.348	1634.785	1304.770
-13.648	23.327	1633.821	1303.790
-12.633	23.345	1631.878	1302.321
-11.619	23.276	1630.617	1300.755
-10.604	23.295	1628.717	1299.328
-9.590	23.281	1627.277	1298.028
-8.575	23.255	1626.346	1297.045
-7.560	23.317	1625.084	1296.437
-6.546	23.340	1623.795	1295.525
-5.531	23.200	1623.349	1294.097
-4.517	23.242	1622.033	1293.299
-3.502	23.324	1620.496	1292.624
-2.487	23.361	1618.743	1291.443
-1.473	22.989	1606.438	1278.884
-0.458	20.274	1587.113	1244.010
0.556	15.431	1589.776	1214.904
1.571	13.385	1613.385	1217.791
2.586	13.208	1625.656	1225.630
3.600	12.358	1570.115	1177.558
4.615	6.767	1462.672	1059.460
5.629	1.341	1402.899	981.082
6.644	0.272	1396.403	969.574
7.659	0.226	1395.192	968.354
8.673	0.180	1394.468	967.471
9.688	0.043	1392.265	964.976
10.702	-0.031	1388.603	961.883
11.717	2.729	1392.779	982.385
12.731	9.541	1403.534	1033.728
13.746	15.306	1411.383	1076.531
14.761	16.738	1412.520	1086.496
15.775	16.169	1410.506	1081.204
16.790	15.120	1408.440	1072.806
17.804	14.480	1405.679	1066.521
18.819	14.159	1404.299	1063.322
19.834	13.814	1403.457	1060.388
20.848	13.643	1401.984	1058.089
21.863	13.295	1400.746	1054.843
22.877	13.213	1399.307	1053.144
23.892	13.152	1398.526	1052.073
24.907	13.141	1397.627	1051.235
25.921	13.146	1396.733	1050.504
26.936	13.122	1396.316	1049.941
27.950	13.188	1395.193	1049.424
28.965	13.187	1394.099	1048.502
29.980	13.319	1392.836	1048.298
30.994	13.379	1391.951	1047.916
32.009	13.462	1390.706	1047.410
33.023	13.473	1389.639	1046.587
34.038	13.396	1388.364	1045.048
35.053	13.335	1387.716	1044.084
36.067	13.352	1386.205	1042.960
37.082	13.305	1384.952	1041.630
38.096	13.347	1383.744	1040.892
39.111	13.408	1383.344	1040.880
40.126	13.296	1382.173	1039.206
41.140	13.229	1381.489	1038.176
42.155	13.229	1381.253	1037.912
43.169	13.118	1381.330	1037.180
44.184	13.262	1380.498	1037.365
45.199	13.107	1380.337	1036.179
46.213	13.153	1380.031	1036.146
47.228	13.293	1378.642	1035.887
48.242	13.267	1377.096	1034.476
49.257	13.259	1375.607	1033.213
50.271	13.226	1374.157	1031.829
51.286	13.263	1373.132	1031.195
52.301	13.321	1371.405	1030.170
53.315	13.252	1371.200	1029.494
54.330	13.207	1369.812	1028.084
55.344	13.152	1368.466	1026.639
56.359	13.199	1367.074	1025.797
57.374	13.115	1366.822	1024.996
58.388	13.154	1365.755	1024.343
59.403	13.124	1365.363	1023.778
60.417	13.112	1364.160	1022.708
61.432	13.126	1363.211	1021.995
62.447	12.975	1362.427	1020.379
63.461	13.108	1361.051	1020.084
64.476	13.139	1359.984	1019.382
65.490	13.068	1359.099	1018.192
66.505	13.094	1357.271	1016.892
67.520	13.069	1356.093	1015.765
68.534	13.145	1354.880	1015.237
69.549	13.128	1354.433	1014.704
70.563	13.140	1352.930	1013.563
71.578	13.042	1351.915	1012.113
72.593	13.074	1350.764	1011.354
73.607	13.039	1349.773	1010.312
74.622	13.048	1349.188	1009.838
75.636	13.032	1348.500	1009.134
76.651	13.036	1347.598	1008.396
77.666	13.098	1346.650	1007.977
78.680	12.996	1347.091	1007.592
79.695	13.064	1345.215	1006.519
80.709	13.110	1344.364	1006.073
81.724	13.023	1344.245	1005.364
82.739	13.161	1342.791	1005.028
83.753	13.126	1342.085	1004.196
84.768	13.160	1340.875	1003.407
85.782	13.222	1339.986	1003.029
86.797	13.232	1338.408	1001.823
87.812	13.222	1337.000	1000.622
88.826	13.196	1336.168	999.752
89.841	13.137	1335.249	998.619
90.855	13.255	1334.271	998.512
91.870	13.232	1333.338	997.588
92.884	13.299	1332.324	997.144
93.899	13.324	1331.570	996.639
94.914	13.346	1330.447	995.845
95.928	13.422	1329.729	995.677
96.943	13.257	1328.754	993.869
97.957	13.311	1327.900	993.462
98.972	13.278	1326.790	992.349
99.987	13.242	1326.039	991.483
101.001	13.311	1324.644	990.766
102.016	13.334	1323.646	990.068
103.030	13.257	1322.834	988.910
104.045	13.283	1322.031	988.383
105.060	13.385	1320.423	987.701
106.074	13.205	1318.977	985.456
107.089	13.181	1317.779	984.331
108.103	13.173	1316.306	983.096
109.118	13.059	1315.367	981.632
110.133	13.084	1313.939	980.630
111.147	13.234	1312.331	980.229
112.162	13.198	1311.248	979.118
113.176	13.195	1310.267	978.282
114.191	13.243	1309.364	977.808
115.206	13.322	1307.840	977.051
116.220	13.269	1306.849	975.912
117.235	13.238	1305.632	974.735
118.249	13.195	1304.460	973.516
119.264	13.248	1303.493	973.025
120.279	13.193	1302.378	971.780
121.293	13.288	1300.969	971.202
122.308	13.164	1300.301	969.887
123.322	13.138	1299.114	968.763
124.337	13.284	1297.995	968.699
125.352	13.165	1296.984	967.165
126.366	13.238	1295.774	966.601
127.381	13.085	1295.086	965.106
128.395	13.095	1293.806	964.128
129.410	13.239	1292.425	963.853
130.424	13.150	1291.915	962.870
131.439	13.140	1291.316	962.281
132.454	13.256	1289.628	961.608
133.468	13.175	1288.822	960.457
134.483	13.136	1288.148	959.641
135.497	13.211	1286.831	959.010
136.512	13.220	1285.594	958.056
137.527	13.189	1283.958	956.574
138.541	13.288	1282.058	955.642
139.556	13.272	1281.039	954.706
140.570	13.286	1280.479	954.284
141.585	13.284	1279.240	953.264
142.600	13.426	1277.650	952.813
143.614	13.431	1276.527	951.924
144.629	13.414	1275.620	951.061
145.643	13.370	1274.428	949.839
146.658	13.300	1273.208	948.446
147.673	13.366	1271.912	947.774
148.687	13.299	1271.368	946.901
149.702	13.271	1269.806	945.493
150.716	13.400	1268.113	944.884
151.731	13.318	1267.100	943.577
152.746	13.305	1265.918	942.540
153.760	13.344	1264.881	941.905
154.775	13.401	1263.319	940.982
155.789	13.436	1262.450	940.452
156.804	13.401	1261.835	939.714
157.819	13.528	1260.432	939.303
158.833	13.441	1259.756	938.226
159.848	13.535	1258.609	937.823
160.862	13.513	1257.267	936.611
161.877	13.353	1257.153	935.541
162.892	13.415	1255.049	934.243
163.906	13.424	1254.340	933.685
164.921	13.450	1253.390	933.040
165.935	13.600	1252.321	933.005
166.950	13.564	1251.777	932.315
167.964	13.543	1251.151	931.646
168.979	13.646	1249.919	931.225
169.994	13.452	1249.722	929.908
171.008	13.524	1248.618	929.409
172.023	13.703	1247.218	929.286
173.037	13.669	1246.979	928.834
174.052	13.690	1245.966	928.119
175.067	13.655	1244.516	926.757
176.081	13.606	1244.293	926.236
177.096	13.572	1243.339	925.255
178.110	13.622	1242.294	924.675
179.125	13.604	1241.095	923.601
180.140	13.687	1239.657	922.908
181.154	13.725	1238.207	921.961
182.169	13.677	1237.290	920.932
183.183	13.732	1236.210	920.350
184.198	13.777	1234.553	919.281
185.213	13.702	1233.894	918.299
186.227	13.711	1232.501	917.231
187.242	13.865	1231.455	917.217
188.256	13.855	1230.254	916.190
189.271	13.850	1229.520	915.534
190.286	13.840	1228.618	914.728
191.300	13.703	1227.663	913.178
192.315	13.673	1226.859	912.334
193.329	13.710	1226.257	912.012
194.344	13.732	1225.631	911.584
195.359	13.802	1225.190	911.561
196.373	13.854	1224.794	911.470
197.388	13.853	1224.251	910.980
198.402	13.933	1223.876	911.058
199.417	13.990	1223.152	910.752
200.432	14.037	1221.924	910.014
201.446	13.961	1221.159	908.949
202.461	14.155	1219.884	908.978
203.475	14.168	1219.157	908.430
204.490	14.020	1218.284	906.891
205.504	13.990	1217.102	905.769
206.519	14.055	1215.566	904.900
207.534	14.057	1214.702	904.187
208.548	14.062	1213.250	903.054
209.563	14.090	1212.561	902.610
210.577	14.137	1211.543	902.029
211.592	14.070	1210.747	900.992
212.607	14.148	1209.719	900.570
213.621	14.109	1209.140	899.848
214.636	14.168	1208.205	899.394
215.650	14.131	1207.406	898.518
216.665	14.176	1206.381	897.918
217.680	14.234	1205.374	897.403
218.694	14.291	1204.669	897.105
219.709	14.238	1203.937	896.194
220.723	14.251	1203.470	895.840
221.738	14.288	1202.207	895.020
222.753	14.278	1201.677	894.489
223.767	14.367	1200.596	894.083
224.782	14.351	1200.246	893.656
225.796	14.369	1199.531	893.145
226.811	14.457	1198.478	892.750
227.826	14.352	1198.006	891.760
228.840	14.373	1197.505	891.422
229.855	14.308	1196.778	890.452
230.869	14.409	1195.800	890.183
231.884	14.387	1195.017	889.405
232.899	14.337	1194.033	888.327
233.913	14.338	1193.792	888.075
234.928	14.341	1192.767	887.250
235.942	14.413	1191.924	886.929
236.957	14.441	1191.230	886.480
237.972	14.333	1190.933	885.609
238.986	14.375	1189.758	884.881
240.001	14.410	1189.352	884.684
241.015	14.472	1188.165	884.054
242.030	14.603	1187.239	883.979
243.045	14.614	1186.112	883.121
244.059	14.648	1185.736	882.942
245.074	14.587	1184.846	881.879
246.088	14.582	1184.341	881.400
247.103	14.562	1183.425	880.531
248.117	14.647	1182.823	880.458
249.132	14.786	1181.577	880.185
250.147	14.708	1181.246	879.446
251.161	14.594	1180.677	878.347
252.176	14.750	1179.637	878.315
253.190	14.965	1178.712	878.677
254.205	14.809	1178.602	877.700
255.220	14.832	1177.962	877.267
256.234	14.957	1176.967	877.101
257.249	14.951	1176.507	876.650
258.263	14.923	1175.796	875.895
259.278	14.970	1174.872	875.375
260.293	14.971	1174.538	875.058
261.307	15.005	1174.158	874.874
262.322	14.985	1173.141	873.931
263.336	14.930	1173.033	873.488
264.351	15.032	1171.958	873.143
265.366	15.114	1171.083	872.838
266.380	14.984	1170.572	871.704
267.395	15.101	1169.653	871.552
268.409	15.098	1169.040	871.003
269.424	15.141	1168.271	870.578
270.439	15.030	1167.855	869.615
271.453	15.056	1166.988	869.027
272.468	15.030	1165.880	867.988
273.482	15.008	1165.355	867.405
274.497	15.156	1164.823	867.699
275.512	15.064	1164.267	866.735
276.526	15.126	1163.681	866.541
277.541	15.086	1162.572	865.434
278.555	15.179	1161.432	864.988
279.570	15.282	1160.980	865.107
280.585	15.375	1159.938	864.735
281.599	15.361	1158.759	863.704
282.614	15.336	1157.955	862.899
283.628	15.223	1157.142	861.636
284.643	15.269	1156.437	861.272
285.657	15.231	1155.525	860.319
286.672	15.273	1154.640	859.804
287.687	15.370	1153.256	859.194
288.701	15.370	1152.709	858.710
289.716	15.321	1151.983	857.841
290.730	15.241	1151.485	856.984
291.745	15.241	1150.770	856.378
292.760	15.318	1150.456	856.459
293.774	15.400	1149.592	856.160
294.789	15.422	1149.057	855.797
295.803	15.411	1148.168	855.004
296.818	15.359	1147.658	854.284
297.833	15.466	1146.359	853.785
298.847	15.484	1145.688	853.303
299.862	15.424	1144.948	852.369
300.876	15.571	1144.611	852.791
301.891	15.509	1143.844	851.831
302.906	15.586	1142.864	851.415
303.920	15.613	1142.245	851.014
304.935	15.555	1141.950	850.424
305.949	15.627	1141.090	850.076
306.964	15.672	1140.343	849.669
307.979	15.677	1139.625	849.088
308.993	15.598	1138.955	848.112
310.008	15.638	1137.951	847.490
311.022	15.713	1137.386	847.373
312.037	15.768	1136.281	846.753
313.052	15.812	1135.428	846.263
314.066	15.684	1134.605	844.931
315.081	15.648	1133.908	844.157
316.095	15.681	1132.968	843.546
317.110	15.577	1132.268	842.428
318.125	15.828	1131.801	843.268
319.139	15.686	1131.196	842.028
320.154	15.702	1130.387	841.436
321.168	15.733	1129.603	840.929
322.183	15.741	1129.074	840.502
323.197	15.718	1128.375	839.791
324.212	15.713	1128.039	839.444
325.227	15.776	1127.009	838.918
326.241	15.836	1126.361	838.658
327.256	15.805	1125.707	837.943
328.270	15.646	1125.114	836.637
329.285	15.867	1123.698	836.607
330.300	15.791	1122.668	835.392
331.314	15.784	1122.030	834.805
332.329	15.830	1121.007	834.197
333.343	15.826	1120.270	833.556
334.358	15.831	1119.402	832.865
335.373	15.950	1118.435	832.660
336.387	15.949	1117.569	831.936
337.402	15.950	1117.247	831.626
338.416	16.056	1116.249	831.331
339.431	16.123	1115.518	831.045
340.446	16.080	1114.555	830.040
341.460	16.170	1114.079	830.057
342.475	16.185	1113.395	829.546
343.489	16.178	1112.215	828.563
344.504	16.170	1111.558	827.961
345.519	16.238	1110.578	827.489
346.533	16.204	1109.912	826.752
347.548	16.225	1109.470	826.453
348.562	16.298	1108.249	825.826
349.577	16.276	1107.548	825.127
350.592	16.182	1107.373	824.463
351.606	16.225	1105.903	823.504
352.621	16.171	1105.922	823.182
353.635	16.284	1105.085	823.040
354.650	16.195	1104.190	821.864
355.665	16.129	1103.433	820.907
356.679	16.262	1103.018	821.175
357.694	16.362	1102.325	821.071
358.708	16.373	1101.616	820.523
359.723	16.384	1100.901	819.969
360.738	16.392	1100.358	819.535
361.752	16.336	1100.026	818.942
362.767	16.401	1099.130	818.519
363.781	16.370	1098.654	817.938
364.796	16.394	1098.061	817.543
365.810	16.458	1097.164	817.111
366.825	16.497	1096.669	816.859
367.840	16.509	1096.456	816.688
368.854	16.515	1095.523	815.948
369.869	16.583	1094.780	815.651
370.883	16.571	1093.780	814.774
371.898	16.612	1093.222	814.486
372.913	16.601	1092.890	814.114
373.927	16.710	1092.241	814.080
374.942	16.659	1091.804	813.437
375.956	16.744	1091.063	813.222
376.971	16.683	1090.496	812.437
377.986	16.698	1090.198	812.212
379.000	16.603	1089.480	811.148
380.015	16.813	1088.875	811.636
381.029	16.723	1088.038	810.506
382.044	16.813	1087.370	810.369
383.059	16.773	1086.537	809.486
384.073	16.888	1085.775	809.395
385.088	16.924	1084.602	808.622
386.102	16.875	1083.707	807.649
387.117	16.784	1083.003	806.617
388.132	16.790	1081.973	805.812
389.146	16.851	1081.614	805.759
390.161	16.795	1080.995	804.961
391.175	16.868	1079.993	804.492
392.190	16.928	1078.785	803.807
393.205	16.943	1078.753	803.781
394.219	16.915	1077.551	802.683
395.234	16.890	1076.584	801.775
396.248	16.969	1075.679	801.402
397.263	16.949	1075.067	800.778
398.278	16.984	1073.943	800.038
399.292	16.972	1073.125	799.298
400.307	16.888	1072.685	798.506
401.321	16.769	1072.611	797.820
402.336	16.940	1071.569	797.776
403.350	16.966	1070.574	797.091
404.365	17.057	1069.737	796.825
405.380	16.966	1068.833	795.651
406.394	17.045	1068.468	795.679
407.409	17.106	1067.440	795.130
408.423	17.251	1066.627	795.133
409.438	17.273	1066.024	794.717
410.453	17.037	1065.724	793.321
411.467	17.281	1064.842	793.733
412.482	17.247	1064.312	793.106
413.496	17.305	1063.527	792.723
414.511	17.287	1063.080	792.236
415.526	17.280	1062.583	791.764
416.540	17.378	1062.160	791.831
417.555	17.376	1061.398	791.187
418.569	17.342	1061.199	790.807
419.584	17.349	1060.968	790.600
420.599	17.411	1059.978	790.079
421.613	107.749	1331.152	1487.545
422.628	99.430	1370.624	1487.609
