DTS Sentinel unit serial number:	SN413079Multiplexer serial number:	ORYXHardware model number:	OX4-SRSoftware version number:	ORYX F/W v4.00 Oryx Data Collector v3.7.2.0data status	okinstallation	princeton_trtdifferential loss correction	single-endedforward channel	channel 2reverse channel	N/Adate	2019/09/11time	20:01:11forward acquisition time	60.00reverse acquisition time	0.00gamma	496.2192k internal	0.2313k external	0.2313temperature offset calibration	1.0052default loss term (dB/km)	0.3790temperature slope calibration	1.0000multiplexer offset coefficient	1.0000multiplexer slope coefficient	1.0000fibre end	0.00T internal ref (°C)	38.78T ext. ref 1 (°C)	1.39T ext. ref 2 (°C)	31.99length (m)	temperature (°C)	Stokes	anti-Stokes-747.200	24.044	-0.167	0.140
-746.185	287.535	-0.171	0.314
-745.171	-77.756	0.281	-0.098
-744.156	-35.241	-0.161	0.089
-743.142	800.000	0.027	0.089
-742.127	171.776	-0.368	0.536
-741.112	39.443	-0.039	0.035
-740.098	-200.000	-0.044	0.295
-739.083	-25.678	-0.154	0.092
-738.069	263.422	0.244	0.429
-737.054	-200.000	0.036	0.393
-736.039	-128.454	-0.056	-0.008
-735.025	-200.000	-0.026	0.211
-734.010	92.507	-0.162	-0.185
-732.996	353.093	0.058	0.116
-731.981	-61.796	-0.241	0.102
-730.966	54.879	0.083	-0.081
-729.952	-23.849	-0.251	-0.152
-728.937	139.202	-0.058	-0.077
-727.923	-200.000	-0.007	-0.242
-726.908	23.865	0.196	-0.164
-725.894	26.038	0.434	-0.367
-724.879	678.819	0.038	0.100
-723.864	-200.000	0.052	0.500
-722.850	-200.000	-0.019	0.288
-721.835	-50.802	-0.227	-0.108
-720.821	-32.393	-0.286	-0.162
-719.806	103.222	-0.313	0.372
-718.791	12.800	-0.225	0.176
-717.777	-184.053	-0.254	0.004
-716.762	77.822	-0.043	0.046
-715.748	-135.426	-0.163	0.020
-714.733	-75.379	-0.027	0.010
-713.718	-91.227	0.026	0.008
-712.704	-200.000	-0.071	0.336
-711.689	-131.973	-0.247	-0.033
-710.675	-200.000	-0.078	-0.548
-709.660	-200.000	0.007	-0.182
-708.645	-159.527	0.339	-0.019
-707.631	-200.000	-0.033	-0.468
-706.616	-200.000	0.004	-0.377
-705.602	77.407	-0.193	-0.208
-704.587	-200.000	0.013	-0.084
-703.572	-99.743	0.354	0.090
-702.558	800.000	-0.044	-0.127
-701.543	-138.811	0.358	0.039
-700.529	349.387	-0.070	-0.139
-699.514	-48.312	0.129	0.063
-698.499	-4.799	0.278	-0.194
-697.485	5.963	0.066	-0.049
-696.470	202.127	-0.205	-0.320
-695.456	-126.350	0.123	0.019
-694.441	46.148	-0.183	0.172
-693.426	-109.699	-0.329	0.070
-692.412	-114.791	0.170	-0.033
-691.397	-123.634	-0.178	-0.029
-690.383	394.471	-0.044	0.093
-689.368	31.242	0.128	-0.112
-688.354	-159.307	-0.117	-0.007
-687.339	-141.924	-0.240	-0.024
-686.324	0.096	0.204	0.147
-685.310	-200.000	0.032	-0.304
-684.295	240.638	0.176	-0.297
-683.281	246.144	-0.112	-0.191
-682.266	0.016	0.047	0.034
-681.251	-200.000	0.026	-0.158
-680.237	495.015	-0.104	-0.241
-679.222	-200.000	0.008	0.102
-678.208	112.893	-0.226	0.277
-677.193	-91.310	-0.419	0.121
-676.178	586.069	-0.063	0.157
-675.164	273.709	0.219	0.391
-674.149	-115.493	-0.322	0.061
-673.135	-77.920	0.323	-0.113
-672.120	-60.190	-0.172	0.074
-671.105	306.403	0.096	0.181
-670.091	-159.576	-0.216	0.012
-669.076	-200.000	-0.020	-0.394
-668.062	0.308	0.270	0.195
-667.047	-55.082	-0.129	0.059
-666.032	-200.000	0.005	-0.076
-665.018	-163.939	0.092	-0.004
-664.003	-64.235	-0.220	-0.091
-662.989	38.328	0.162	0.146
-661.974	64.366	-0.122	0.124
-660.959	-139.851	0.168	-0.018
-659.945	-101.263	-0.172	-0.043
-658.930	209.291	0.130	0.206
-657.916	-200.000	-0.010	-0.106
-656.901	-60.722	-0.160	0.069
-655.886	696.814	-0.112	-0.298
-654.872	-97.702	0.045	0.012
-653.857	-128.627	-0.205	0.029
-652.843	-13.124	-0.089	-0.058
-651.828	234.463	0.140	-0.233
-650.814	-34.452	0.069	0.038
-649.799	-161.956	0.051	0.003
-648.784	-36.206	0.094	0.051
-647.770	-149.136	-0.170	0.014
-646.755	-139.328	-0.142	0.015
-645.741	-3.721	-0.202	0.142
-644.726	-200.000	0.028	0.409
-643.711	407.947	0.007	-0.015
-642.697	291.907	-0.036	-0.066
-641.682	-68.111	0.176	-0.069
-640.668	10.707	0.157	0.121
-639.653	44.004	0.122	-0.113
-638.638	570.801	0.089	0.219
-637.624	-49.688	-0.153	0.074
-636.609	800.000	-0.090	-0.275
-635.595	725.661	0.071	0.190
-634.580	80.354	-0.160	-0.173
-633.565	-107.111	-0.138	-0.031
-632.551	2.090	-0.094	0.069
-631.536	534.395	-0.221	-0.528
-630.522	800.000	-0.157	-0.450
-629.507	-200.000	0.011	-0.173
-628.492	-25.606	-0.333	-0.199
-627.478	-22.052	0.207	-0.127
-626.463	-59.641	-0.162	0.070
-625.449	-59.912	0.050	-0.022
-624.434	33.766	0.171	-0.150
-623.419	242.284	0.173	-0.292
-622.405	-162.810	-0.392	0.019
-621.390	-34.668	0.090	0.050
-620.376	-18.291	-0.157	0.099
-619.361	-103.322	-0.340	-0.081
-618.346	800.000	0.056	0.197
-617.332	-95.963	0.124	-0.033
-616.317	0.054	-0.240	0.172
-615.303	25.704	0.221	0.185
-614.288	-136.277	-0.151	0.018
-613.273	-16.564	-0.003	0.002
-612.259	-48.450	0.295	-0.143
-611.244	-200.000	0.097	0.562
-610.230	-107.485	-0.186	0.041
-609.215	-200.000	0.048	0.336
-608.201	-88.623	-0.149	-0.045
-607.186	53.106	-0.130	-0.126
-606.171	-61.420	-0.073	-0.031
-605.157	213.752	0.108	-0.172
-604.142	-200.000	-0.028	0.243
-603.128	241.200	-0.153	-0.258
-602.113	-200.000	-0.068	-0.393
-601.098	46.198	-0.097	0.091
-600.084	43.605	0.131	-0.121
-599.069	-189.302	-0.380	0.005
-598.055	-164.834	-0.561	-0.025
-597.040	-77.511	-0.449	0.157
-596.025	178.963	-0.087	-0.129
-595.011	302.652	0.063	0.117
-593.996	-111.302	-0.278	0.057
-592.982	160.307	-0.116	0.163
-591.967	-11.858	-0.387	-0.256
-590.952	640.683	-0.101	-0.260
-589.938	-87.365	-0.254	-0.078
-588.923	-173.495	0.169	-0.005
-587.909	79.333	0.117	0.126
-586.894	-9.766	0.039	-0.026
-585.879	297.696	0.054	0.101
-584.865	-153.205	-0.090	-0.006
-583.850	-200.000	0.027	0.338
-582.836	-2.032	0.181	-0.128
-581.821	-136.909	-0.499	-0.058
-580.806	-153.267	0.244	0.017
-579.792	-200.000	0.009	0.168
-578.777	-98.370	0.010	0.003
-577.763	800.000	0.023	0.065
-576.748	-142.825	0.242	0.024
-575.733	-28.347	0.089	0.052
-574.719	800.000	0.067	0.195
-573.704	471.151	-0.113	0.257
-572.690	450.062	0.043	-0.096
-571.675	430.123	-0.150	0.326
-570.661	800.000	-0.043	-0.123
-569.646	367.110	-0.094	-0.192
-568.631	-24.877	-0.134	-0.080
-567.617	39.940	0.233	-0.211
-566.602	15.939	-0.291	-0.230
-565.588	-180.945	0.168	0.003
-564.573	-156.961	-0.213	-0.013
-563.558	-163.762	-0.110	-0.005
-562.544	800.000	-0.037	0.108
-561.529	-16.837	-0.234	0.149
-560.515	-100.007	0.148	-0.037
-559.500	397.396	0.158	0.333
-558.485	208.182	0.156	-0.245
-557.471	-88.296	-0.273	-0.082
-556.456	48.804	-0.110	-0.103
-555.442	170.254	0.095	0.137
-554.427	-86.434	0.337	-0.104
-553.412	11.900	-0.226	0.175
-552.398	800.000	-0.133	-0.494
-551.383	-80.990	0.265	-0.088
-550.369	129.999	-0.254	-0.327
-549.354	-112.805	-0.132	-0.026
-548.339	-70.224	0.116	0.044
-547.325	-152.374	-0.205	0.015
-546.310	-8.685	0.149	0.101
-545.296	800.000	0.056	0.167
-544.281	-15.174	0.178	0.115
-543.266	107.468	0.125	0.149
-542.252	-113.131	-0.201	-0.040
-541.237	-200.000	0.002	0.174
-540.223	-127.814	0.180	0.026
-539.208	800.000	0.086	0.255
-538.193	-200.000	-0.006	0.064
-537.179	800.000	0.053	0.151
-536.164	-155.699	0.054	0.003
-535.150	-200.000	-0.023	0.368
-534.135	-16.856	-0.142	0.091
-533.121	83.592	-0.059	-0.065
-532.106	145.066	-0.234	0.315
-531.091	-1.828	0.051	-0.036
-530.077	218.137	0.176	0.283
-529.062	-48.483	0.245	-0.118
-528.048	-200.000	-0.013	-0.191
-527.033	-108.460	0.226	-0.049
-526.018	-200.000	0.052	0.305
-525.004	-127.136	0.297	-0.044
-523.989	-200.000	-0.042	-0.260
-522.975	-200.000	-0.041	-0.219
-521.960	113.934	-0.053	-0.065
-520.945	-130.505	0.168	-0.023
-519.931	-200.000	0.038	0.227
-518.916	266.346	0.099	0.174
-517.902	-50.447	0.389	0.185
-516.887	490.792	0.032	-0.073
-515.872	800.000	0.040	-0.176
-514.858	-200.000	-0.007	-0.072
-513.843	-122.502	0.275	0.045
-512.829	77.897	0.040	-0.043
-511.814	-87.150	-0.095	0.029
-510.799	-200.000	-0.036	0.195
-509.785	510.532	0.106	0.248
-508.770	-37.430	-0.060	0.032
-507.756	10.593	-0.043	0.033
-506.741	-200.000	0.040	0.217
-505.726	-164.120	-0.407	0.019
-504.712	-170.988	0.139	-0.005
-503.697	578.084	-0.099	-0.242
-502.683	57.911	-0.137	-0.135
-501.668	125.885	0.220	0.280
-500.653	108.829	0.222	-0.267
-499.639	-200.000	0.031	-0.253
-498.624	510.391	-0.176	-0.412
-497.610	136.987	0.197	-0.259
-496.595	800.000	0.044	0.165
-495.581	252.753	-0.217	-0.372
-494.566	-200.000	0.021	-0.160
-493.551	268.872	0.065	-0.115
-492.537	-112.358	-0.069	0.014
-491.522	61.041	0.093	-0.093
-490.508	800.000	-0.005	0.017
-489.493	177.209	-0.073	-0.106
-488.478	9.871	-0.252	-0.192
-487.464	54.419	-0.167	-0.162
-486.449	3.140	0.070	-0.051
-485.435	-19.020	-0.196	-0.123
-484.420	-2.496	-0.143	0.101
-483.405	342.512	0.091	-0.178
-482.391	-135.577	-0.148	-0.018
-481.376	800.000	0.019	0.062
-480.362	-167.552	-0.271	-0.011
-479.347	800.000	-0.132	0.375
-478.332	100.904	0.083	0.097
-477.318	-164.345	0.267	-0.012
-476.303	80.644	-0.105	0.113
-475.289	800.000	0.057	-0.206
-474.274	800.000	0.076	0.275
-473.259	-8.165	0.285	0.192
-472.245	-130.980	0.297	0.040
-471.230	-66.518	0.119	0.048
-470.216	-91.756	-0.244	-0.070
-469.201	-108.375	0.139	0.030
-468.186	-200.000	-0.001	-0.129
-467.172	-200.000	0.044	0.241
-466.157	-142.525	-0.365	0.036
-465.143	162.331	0.187	0.262
-464.128	18.635	0.410	0.329
-463.113	23.754	0.198	0.164
-462.099	-49.497	0.406	-0.194
-461.084	71.730	-0.084	-0.088
-460.070	402.132	-0.119	0.250
-459.055	-96.462	-0.132	0.035
-458.040	-64.972	0.074	-0.030
-457.026	-200.000	0.016	-0.180
-456.011	587.588	0.035	-0.087
-454.997	47.350	0.294	0.275
-453.982	-200.000	0.039	-0.339
-452.968	19.400	0.104	0.084
-451.953	53.598	0.352	-0.338
-450.938	-115.079	0.286	0.054
-449.924	-11.194	-0.059	0.039
-448.909	-37.271	-0.414	0.222
-447.895	442.362	0.049	-0.106
-446.880	2.659	0.151	-0.109
-445.865	-172.422	-0.107	0.003
-444.851	-200.000	-0.020	-0.097
-443.836	394.590	-0.064	0.133
-442.822	-2.862	-0.207	-0.145
-441.807	190.533	0.052	-0.079
-440.792	800.000	0.043	0.182
-439.778	-200.000	0.018	-0.350
-438.763	-200.000	0.055	-0.273
-437.749	-127.523	0.145	-0.021
-436.734	-105.182	-0.105	0.024
-435.719	157.420	0.066	0.092
-434.705	-129.912	0.072	0.010
-433.690	-200.000	-0.012	-0.169
-432.676	-62.950	0.246	0.102
-431.661	16.855	-0.089	-0.070
-430.646	58.808	-0.076	-0.075
-429.632	39.202	0.187	0.168
-428.617	54.400	-0.059	0.057
-427.603	800.000	-0.001	0.002
-426.588	-200.000	0.015	-0.102
-425.573	-200.000	0.010	-0.105
-424.559	73.890	0.192	-0.201
-423.544	-200.000	0.045	-0.274
-422.530	76.301	0.049	-0.052
-421.515	800.000	-0.117	-0.362
-420.500	800.000	-0.046	-0.160
-419.486	137.657	-0.171	-0.224
-418.471	-159.513	-0.097	-0.005
-417.457	-178.034	0.468	0.011
-416.442	315.804	0.160	0.303
-415.428	-131.533	0.183	-0.024
-414.413	755.334	-0.036	-0.098
-413.398	-138.148	-0.108	0.012
-412.384	192.842	-0.040	-0.061
-411.369	9.000	0.174	-0.131
-410.355	-105.215	-0.175	-0.040
-409.340	800.000	0.077	0.215
-408.325	80.970	-0.165	0.178
-407.311	-106.539	-0.210	0.047
-406.296	-200.000	-0.001	0.188
-405.282	-200.000	0.058	-0.466
-404.267	110.569	-0.121	0.145
-403.252	-30.949	-0.262	0.148
-402.238	-135.363	-0.382	0.046
-401.223	239.741	0.130	-0.217
-400.209	118.004	0.105	0.130
-399.194	-119.057	0.215	-0.038
-398.179	-200.000	0.003	0.101
-397.165	173.613	0.235	0.339
-396.150	609.776	-0.096	-0.239
-395.136	-200.000	-0.013	-0.069
-394.121	360.747	0.019	-0.037
-393.106	487.299	-0.109	-0.249
-392.092	-91.909	0.184	-0.052
-391.077	-200.000	0.015	-0.131
-390.063	345.932	0.073	-0.143
-389.048	-200.000	0.038	0.325
-388.033	347.203	0.114	-0.225
-387.019	-60.294	0.152	-0.065
-386.004	39.678	-0.127	-0.114
-384.990	523.259	0.074	-0.174
-383.975	-137.078	0.254	-0.029
-382.960	-130.639	0.222	0.030
-381.946	698.726	0.074	-0.195
-380.931	156.662	-0.144	-0.198
-379.917	-131.786	0.165	-0.022
-378.902	71.982	0.245	-0.255
-377.888	-78.809	0.295	-0.100
-376.873	112.321	0.134	0.163
-375.858	26.563	0.038	0.032
-374.844	249.227	0.263	0.445
-373.829	-200.000	0.006	0.344
-372.815	-85.106	-0.360	0.113
-371.800	138.096	-0.197	-0.258
-370.785	266.221	-0.157	-0.275
-369.771	-200.000	-0.029	0.182
-368.756	512.642	0.102	0.238
-367.742	-33.537	-0.195	-0.108
-366.727	-108.465	-0.258	-0.056
-365.712	-53.473	-0.128	0.059
-364.698	-77.933	0.173	-0.060
-363.683	76.098	-0.024	-0.025
-362.669	91.220	0.021	-0.024
-361.654	-55.647	0.164	-0.073
-360.639	189.279	0.096	0.144
-359.625	-200.000	0.007	-0.226
-358.610	344.814	0.096	0.189
-357.596	-45.846	-0.128	0.063
-356.581	800.000	-0.018	0.055
-355.566	158.790	-0.115	0.159
-354.552	-39.590	0.160	0.083
-353.537	407.495	-0.096	0.202
-352.523	171.269	0.146	-0.209
-351.508	177.629	-0.117	-0.171
-350.493	-46.813	0.089	0.044
-349.479	-68.097	0.210	0.082
-348.464	-74.045	-0.042	0.015
-347.450	-75.757	0.261	-0.092
-346.435	-106.283	-0.089	-0.020
-345.420	-200.000	-0.024	0.175
-344.406	-200.000	0.020	-0.348
-343.391	-200.000	0.024	-0.217
-342.377	-1.052	-0.076	-0.053
-341.362	181.299	0.057	-0.083
-340.348	-98.832	0.289	0.073
-339.333	298.172	0.061	0.112
-338.318	-86.315	-0.217	0.067
-337.304	20.245	0.132	-0.106
-336.289	-159.229	-0.341	-0.019
-335.275	33.819	-0.077	-0.067
-334.260	123.626	-0.148	0.185
-333.245	270.496	-0.072	0.126
-332.231	-200.000	-0.122	-0.727
-331.216	323.526	0.018	-0.034
-330.202	-89.936	0.263	0.077
-329.187	-200.000	0.009	-0.120
-328.172	97.273	-0.147	-0.168
-327.158	-111.397	0.176	-0.036
-326.143	-150.282	-0.092	0.007
-325.129	4.802	-0.096	-0.071
-324.114	-200.000	-0.065	-0.283
-323.099	-200.000	0.026	-0.124
-322.085	654.027	-0.093	-0.239
-321.070	800.000	-0.055	-0.202
-320.056	-10.783	0.418	-0.276
-319.041	169.970	-0.108	0.155
-318.026	-96.191	0.367	0.097
-317.012	-47.364	-0.209	-0.102
-315.997	-200.000	0.019	0.123
-314.983	45.117	0.213	-0.196
-313.968	-200.000	0.014	0.275
-312.953	-59.351	-0.179	0.077
-311.939	-200.000	-0.012	0.366
-310.924	61.750	0.339	0.336
-309.910	800.000	0.103	-0.312
-308.895	366.427	-0.035	-0.071
-307.880	800.000	-0.118	-0.328
-306.866	32.636	0.130	0.112
-305.851	-148.988	-0.431	0.035
-304.837	-200.000	-0.013	0.206
-303.822	-200.000	0.006	0.052
-302.807	99.386	0.314	-0.362
-301.793	-60.779	0.107	0.045
-300.778	124.327	0.225	0.282
-299.764	800.000	-0.086	-0.335
-298.749	745.269	-0.092	-0.246
-297.735	29.076	0.203	0.171
-296.720	63.491	0.154	-0.154
-295.705	71.118	0.145	0.150
-294.691	-200.000	0.004	-0.087
-293.676	145.967	0.143	-0.191
-292.662	800.000	0.178	-0.504
-291.647	583.810	-0.036	-0.089
-290.632	-115.459	-0.274	-0.051
-289.618	-200.000	0.002	-0.318
-288.603	33.636	0.061	0.053
-287.589	800.000	-0.047	-0.154
-286.574	109.518	-0.206	-0.246
-285.559	44.664	-0.245	0.224
-284.545	35.142	0.123	0.107
-283.530	6.211	-0.212	-0.157
-282.516	36.513	-0.182	-0.160
-281.501	-81.467	0.034	0.011
-280.486	800.000	0.056	-0.154
-279.472	29.170	0.360	0.304
-278.457	-0.226	0.159	0.113
-277.443	-200.000	0.000	-0.053
-276.428	-200.000	0.030	0.191
-275.413	-97.577	0.073	-0.019
-274.399	265.275	0.085	0.147
-273.384	130.101	0.113	0.144
-272.370	28.948	-0.152	0.129
-271.355	90.719	0.189	0.211
-270.340	800.000	0.206	0.623
-269.326	167.540	-0.122	0.173
-268.311	469.517	-0.211	0.472
-267.297	583.176	-0.029	-0.071
-266.282	-200.000	-0.085	0.387
-265.267	275.574	-0.083	0.146
-264.253	800.000	-0.156	0.489
-263.238	275.601	0.088	0.155
-262.224	-200.000	-0.069	0.417
-261.209	118.858	-0.057	-0.070
-260.195	-30.788	-0.290	-0.163
-259.180	133.330	-0.130	0.168
-258.165	404.438	0.115	0.240
-257.151	-200.000	0.017	-0.114
-256.136	15.637	0.089	0.070
-255.122	-90.498	0.142	-0.041
-254.107	-29.386	0.092	0.053
-253.092	133.694	0.123	-0.159
-252.078	52.227	0.150	-0.143
-251.063	164.701	-0.195	0.274
-250.049	-60.095	-0.195	-0.083
-249.034	-42.614	0.176	0.089
-248.019	800.000	-0.021	0.068
-247.005	538.632	0.039	-0.092
-245.990	607.316	0.147	-0.365
-244.976	-200.000	-0.011	0.148
-243.961	-139.050	-0.332	0.036
-242.946	688.164	0.146	0.380
-241.932	800.000	-0.077	0.320
-240.917	-88.497	-0.242	0.072
-239.903	297.894	0.374	-0.683
-238.888	-111.951	0.236	-0.047
-237.873	-200.000	-0.036	0.227
-236.859	-200.000	-0.060	0.349
-235.844	800.000	-0.083	-0.250
-234.830	111.046	0.063	0.075
-233.815	-200.000	-0.007	-0.380
-232.800	-99.167	-0.294	0.074
-231.786	5.706	0.165	0.121
-230.771	113.985	0.111	0.134
-229.757	-101.336	-0.284	-0.069
-228.742	742.928	0.097	-0.259
-227.727	-104.425	-0.295	0.068
-226.713	-0.947	-0.214	0.150
-225.698	-200.000	0.121	0.576
-224.684	102.575	-0.019	0.022
-223.669	-38.740	-0.234	0.122
-222.655	363.681	-0.048	-0.097
-221.640	103.873	-0.135	-0.157
-220.625	-42.704	-0.209	0.106
-219.611	-52.285	0.275	0.127
-218.596	661.759	-0.109	0.279
-217.582	98.497	-0.178	0.204
-216.567	-111.444	-0.187	-0.038
-215.552	-76.361	-0.216	-0.075
-214.538	-200.000	0.139	0.000
-213.523	-0.238	0.258	0.182
-212.509	366.190	0.141	0.282
-211.494	228.415	-0.220	0.356
-210.479	41.542	0.282	-0.254
-209.465	380.346	0.136	-0.276
-208.450	-24.348	-0.302	-0.179
-207.436	800.000	0.106	-0.394
-206.421	-30.877	-0.100	-0.056
-205.406	-200.000	0.005	0.165
-204.392	461.077	0.050	-0.111
-203.377	-113.769	-0.295	-0.057
-202.363	-200.000	-0.011	0.052
-201.348	800.000	0.084	-0.284
-200.333	-76.938	0.194	0.067
-199.319	444.275	0.067	0.146
-198.304	-101.353	-0.531	-0.128
-197.290	644.548	0.084	-0.213
-196.275	800.000	0.064	-0.202
-195.260	-200.000	-0.017	0.203
-194.246	-83.738	-0.105	-0.033
-193.231	-99.059	-0.244	-0.061
-192.217	-15.520	0.054	-0.034
-191.202	800.000	0.043	0.126
-190.187	-174.745	-0.170	-0.005
-189.173	-128.949	-0.553	0.077
-188.158	-68.800	0.276	0.106
-187.144	24.897	0.131	0.108
-186.129	35.811	0.221	0.193
-185.114	239.288	-0.178	-0.294
-184.100	-200.000	-0.018	0.148
-183.085	-100.150	-0.231	-0.057
-182.071	128.816	0.131	0.165
-181.056	47.042	-0.079	-0.073
-180.042	-121.798	-0.075	0.012
-179.027	-42.753	0.190	0.096
-178.012	-200.000	0.002	-0.345
-176.998	87.298	0.127	0.139
-175.983	-33.372	0.095	-0.052
-174.969	-69.510	0.114	-0.043
-173.954	-110.707	-0.183	-0.037
-172.939	800.000	0.073	0.277
-171.925	-200.000	0.129	0.575
-170.910	-51.566	0.259	0.120
-169.896	-175.223	0.065	0.002
-168.881	139.524	-0.039	-0.051
-167.866	11.798	0.137	-0.104
-166.852	-40.282	-0.377	0.194
-165.837	-59.178	-0.218	0.093
-164.823	253.287	-0.180	-0.305
-163.808	-158.863	0.310	0.018
-162.793	-200.000	0.025	0.153
-161.779	-87.421	-0.062	0.019
-160.764	-2.605	-0.297	0.206
-159.750	-200.000	-0.009	-0.137
-158.735	-89.174	0.157	-0.046
-157.720	-37.678	0.357	0.188
-156.706	-123.332	-0.152	0.024
-155.691	2.931	0.033	-0.023
-154.677	-88.352	0.129	-0.038
-153.662	-136.236	0.095	0.011
-152.647	102.378	0.061	-0.071
-151.633	536.303	0.087	-0.204
-150.618	763.356	0.087	-0.235
-149.604	261.175	0.027	-0.046
-148.589	299.497	0.120	0.220
-147.574	-131.423	0.194	0.025
-146.560	-91.001	0.224	0.064
-145.545	-200.000	0.002	-0.209
-144.531	-61.504	0.058	-0.024
-143.516	-97.157	-0.207	0.054
-142.502	-111.551	-0.117	-0.024
-141.487	432.807	0.054	0.115
-140.472	800.000	0.027	0.076
-139.458	-73.446	0.457	0.165
-138.443	30.983	-0.163	-0.138
-137.429	-108.672	0.322	-0.068
-136.414	-200.000	-0.012	0.118
-135.399	-43.989	0.182	-0.091
-134.385	-147.075	-0.113	0.010
-133.370	800.000	-0.111	-0.328
-132.356	-200.000	0.003	-0.268
-131.341	-200.000	-0.011	-0.150
-130.326	800.000	0.062	0.262
-129.312	29.314	-0.334	-0.281
-128.297	55.367	0.346	0.331
-127.283	-52.877	-0.137	-0.063
-126.268	-144.526	0.166	0.015
-125.253	-200.000	0.007	0.520
-124.239	-69.542	0.165	0.063
-123.224	-200.000	-0.003	-0.485
-122.210	-200.000	-0.001	0.139
-121.195	104.793	-0.210	0.245
-120.180	-151.736	0.209	-0.015
-119.166	-21.668	0.223	-0.135
-118.151	162.388	-0.057	-0.079
-117.137	211.412	-0.175	-0.272
-116.122	-19.678	0.100	-0.061
-115.107	-16.581	-0.044	-0.028
-114.093	-46.737	0.236	-0.114
-113.078	-200.000	-0.028	-0.351
-112.064	-99.744	0.146	-0.036
-111.049	-200.000	-0.053	0.311
-110.034	-200.000	-0.061	0.321
-109.020	285.524	-0.079	-0.142
-108.005	-65.103	0.304	0.121
-106.991	800.000	-0.078	-0.288
-105.976	701.818	-0.112	-0.293
-104.962	-116.885	0.135	-0.025
-103.947	800.000	0.090	0.353
-102.932	117.532	-0.093	0.114
-101.918	800.000	0.148	0.442
-100.903	-41.908	-0.449	0.227
-99.889	209.733	0.091	0.141
-98.874	603.954	-0.074	-0.183
-97.859	378.204	0.095	-0.192
-96.845	-104.177	0.162	0.037
-95.830	706.741	-0.107	0.280
-94.816	-76.080	-0.178	0.062
-93.801	-40.243	-0.216	0.111
-92.786	521.943	-0.056	0.130
-91.772	208.526	0.095	0.147
-90.757	-156.209	0.074	0.005
-89.743	122.472	-0.035	0.044
-88.728	367.222	0.008	0.015
-87.713	800.000	0.024	0.088
-86.699	688.560	-0.104	-0.268
-85.684	243.252	0.205	-0.340
-84.670	-40.657	-0.112	-0.057
-83.655	-30.623	0.243	0.136
-82.640	373.761	0.093	-0.187
-81.626	191.081	0.118	0.175
-80.611	-126.779	-0.167	0.024
-79.597	800.000	0.035	0.149
-78.582	-200.000	0.011	0.229
-77.567	80.988	0.210	0.224
-76.553	-200.000	0.010	0.056
-75.538	-72.089	0.370	-0.136
-74.524	30.724	-0.194	0.164
-73.509	-92.084	0.054	-0.015
-72.494	455.670	-0.117	0.256
-71.480	800.000	0.086	0.365
-70.465	-21.124	-0.389	-0.235
-69.451	-200.000	0.008	0.141
-68.436	-200.000	0.009	-0.063
-67.422	800.000	-0.094	-0.386
-66.407	-28.221	0.282	-0.161
-65.392	-200.000	0.033	0.377
-64.378	153.813	0.065	0.088
-63.363	-10.470	-0.055	0.036
-62.349	-200.000	-0.024	0.281
-61.334	24.002	-0.937	-0.763
-60.319	-3.239	0.309	0.213
-59.305	800.000	-0.282	-0.953
-58.290	166.935	0.480	0.672
-57.276	780.816	0.481	1.299
-56.261	-200.000	85.026	499.823
-55.246	503.864	1353.666	3091.919
-54.232	150.922	2575.744	3457.575
-53.217	108.376	2317.763	2730.551
-52.203	47.697	1936.689	1784.020
-51.188	41.998	1726.197	1546.204
-50.173	39.270	1680.276	1484.455
-49.159	53.660	1722.337	1631.781
-48.144	57.914	1742.022	1682.881
-47.130	41.904	1700.489	1522.219
-46.115	38.823	1686.193	1486.063
-45.100	38.719	1681.948	1481.476
-44.086	38.666	1679.560	1478.914
-43.071	38.612	1676.942	1476.145
-42.057	38.483	1674.445	1472.920
-41.042	38.616	1671.902	1471.620
-40.027	38.693	1669.982	1470.448
-39.013	38.743	1667.479	1468.562
-37.998	38.670	1666.703	1467.278
-36.984	38.689	1665.497	1466.298
-35.969	38.747	1663.735	1465.124
-34.954	38.801	1661.798	1463.758
-33.940	38.811	1659.968	1462.165
-32.925	38.806	1658.008	1460.343
-31.911	38.742	1656.825	1458.769
-30.896	38.822	1654.588	1457.333
-29.881	38.719	1653.320	1455.391
-28.867	38.819	1651.346	1454.342
-27.852	38.798	1650.243	1453.153
-26.838	38.777	1649.553	1452.338
-25.823	38.727	1647.819	1450.378
-24.809	38.866	1646.040	1449.784
-23.794	38.857	1644.604	1448.398
-22.779	38.811	1643.460	1446.992
-21.765	38.788	1641.982	1445.460
-20.750	38.757	1640.448	1443.826
-19.736	38.744	1638.993	1442.390
-18.721	38.825	1637.206	1441.356
-17.706	38.841	1635.713	1440.107
-16.692	38.807	1634.443	1438.678
-15.677	38.739	1633.383	1437.193
-14.663	38.813	1631.743	1436.236
-13.648	38.860	1630.322	1435.269
-12.633	38.761	1628.916	1433.251
-11.619	38.826	1627.192	1432.150
-10.604	38.860	1625.471	1430.826
-9.590	38.799	1624.124	1429.139
-8.575	38.860	1622.794	1428.358
-7.560	38.752	1622.141	1426.937
-6.546	38.755	1621.531	1426.369
-5.531	38.826	1619.425	1424.975
-4.517	38.751	1618.594	1423.641
-3.502	38.729	1617.497	1422.463
-2.487	38.815	1615.930	1421.654
-1.473	38.418	1603.285	1407.616
-0.458	35.137	1582.571	1366.023
0.556	30.611	1580.034	1326.612
1.571	27.672	1603.649	1325.008
2.586	27.058	1617.168	1331.560
3.600	23.885	1564.807	1265.779
4.615	13.446	1448.728	1102.603
5.629	3.528	1377.213	985.013
6.644	1.587	1367.571	965.715
7.659	1.382	1366.235	963.387
8.673	1.310	1365.314	962.196
9.688	1.300	1363.444	960.727
10.702	1.107	1360.766	957.537
11.717	4.690	1368.019	985.278
12.731	15.156	1387.834	1066.407
13.746	23.455	1402.004	1130.343
14.761	25.277	1404.106	1143.558
15.775	25.540	1403.808	1144.891
16.790	25.617	1403.376	1144.929
17.804	25.590	1402.824	1144.203
18.819	25.836	1402.589	1145.477
19.834	25.925	1402.085	1145.530
20.848	25.993	1400.756	1144.770
21.863	25.997	1400.233	1144.270
22.877	25.932	1399.450	1143.115
23.892	25.933	1398.145	1141.955
24.907	25.907	1397.814	1141.420
25.921	25.932	1396.529	1140.427
26.936	25.929	1395.480	1139.447
27.950	26.028	1394.245	1138.964
28.965	25.992	1393.243	1137.820
29.980	25.941	1391.793	1136.216
30.994	25.881	1390.393	1134.592
32.009	25.972	1389.563	1134.389
33.023	25.908	1388.681	1133.164
34.038	25.956	1387.438	1132.353
35.053	25.949	1386.537	1131.473
36.067	25.872	1385.769	1130.264
37.082	25.904	1384.497	1129.325
38.096	25.927	1383.417	1128.489
39.111	25.961	1382.624	1127.957
40.126	25.935	1382.139	1127.296
41.140	25.880	1381.863	1126.630
42.155	25.891	1381.249	1126.097
43.169	25.899	1381.606	1126.338
44.184	25.864	1381.103	1125.609
45.199	25.888	1380.837	1125.443
46.213	25.942	1379.624	1124.692
47.228	25.907	1379.259	1124.073
48.242	25.896	1377.905	1122.802
49.257	25.957	1376.408	1121.863
50.271	25.881	1375.343	1120.426
51.286	26.033	1373.673	1119.906
52.301	25.954	1372.280	1118.182
53.315	25.974	1371.439	1117.523
54.330	25.858	1371.033	1116.375
55.344	25.960	1369.619	1115.755
56.359	25.889	1368.426	1114.249
57.374	25.892	1367.640	1113.525
58.388	25.797	1367.465	1112.699
59.403	25.797	1367.089	1112.294
60.417	25.769	1366.366	1111.433
61.432	25.837	1365.462	1111.021
62.447	25.886	1364.680	1110.589
63.461	25.912	1363.317	1109.544
64.476	25.917	1362.322	1108.665
65.490	25.985	1361.090	1107.983
66.505	25.866	1359.859	1106.153
67.520	25.938	1358.295	1105.219
68.534	25.891	1357.538	1104.218
69.549	25.977	1356.336	1103.671
70.563	25.915	1355.643	1102.628
71.578	25.914	1354.642	1101.715
72.593	25.947	1353.811	1101.140
73.607	25.936	1353.118	1100.410
74.622	25.881	1352.618	1099.572
75.636	25.958	1351.548	1099.073
76.651	25.879	1351.394	1098.368
77.666	25.815	1350.734	1097.347
78.680	25.871	1350.369	1097.295
79.695	25.929	1349.085	1096.508
80.709	25.900	1348.210	1095.522
81.724	25.871	1347.767	1094.891
82.739	25.957	1346.095	1093.956
83.753	25.916	1345.388	1093.037
84.768	25.839	1344.166	1091.481
85.782	25.976	1342.972	1091.247
86.797	25.888	1342.312	1090.077
87.812	25.974	1340.893	1089.347
88.826	25.860	1339.997	1087.833
89.841	25.903	1339.017	1087.206
90.855	25.958	1338.238	1086.806
91.870	25.892	1337.247	1085.511
92.884	25.893	1336.577	1084.875
93.899	25.955	1335.874	1084.579
94.914	25.903	1334.956	1083.425
95.928	25.905	1334.427	1082.916
96.943	26.011	1332.692	1082.044
97.957	25.968	1332.218	1081.310
98.972	25.979	1331.416	1080.626
99.987	25.910	1330.420	1079.313
101.001	25.929	1329.478	1078.562
102.016	25.938	1328.608	1077.818
103.030	25.918	1328.085	1077.178
104.045	25.988	1326.959	1076.589
105.060	26.052	1326.022	1076.114
106.074	26.098	1324.523	1075.074
107.089	26.050	1323.532	1073.891
108.103	26.075	1322.562	1073.157
109.118	25.985	1321.396	1071.583
110.133	26.104	1320.125	1071.161
111.147	26.007	1319.193	1069.737
112.162	26.115	1318.220	1069.491
113.176	26.037	1317.480	1068.334
114.191	26.107	1316.683	1068.006
115.206	26.074	1315.638	1066.871
116.220	26.102	1314.422	1065.959
117.235	26.096	1313.332	1064.940
118.249	26.053	1312.685	1064.072
119.264	26.032	1311.842	1063.170
120.279	26.039	1311.034	1062.460
121.293	26.090	1310.608	1062.323
122.308	26.029	1309.934	1061.324
123.322	26.158	1308.462	1060.796
124.337	26.140	1308.035	1060.250
125.352	26.115	1306.945	1059.123
126.366	26.190	1305.717	1058.473
127.381	26.100	1304.948	1057.233
128.395	26.040	1304.598	1056.504
129.410	26.017	1303.896	1055.708
130.424	26.173	1302.582	1055.460
131.439	26.039	1301.803	1053.956
132.454	26.007	1301.705	1053.596
133.468	26.071	1300.478	1052.878
134.483	26.038	1300.225	1052.393
135.497	26.129	1298.974	1051.814
136.512	26.159	1297.867	1050.997
137.527	26.063	1296.717	1049.415
138.541	26.201	1295.357	1049.028
139.556	26.165	1294.407	1047.956
140.570	26.088	1293.559	1046.730
141.585	26.076	1292.955	1046.077
142.600	26.074	1291.388	1044.708
143.614	26.094	1290.677	1044.154
144.629	26.080	1289.663	1043.161
145.643	26.037	1288.436	1041.829
146.658	26.041	1287.400	1040.921
147.673	25.972	1286.829	1039.967
148.687	26.078	1285.352	1039.294
149.702	26.045	1284.190	1038.074
150.716	25.911	1283.561	1036.703
151.731	26.064	1282.459	1036.598
152.746	26.043	1281.403	1035.530
153.760	26.136	1279.906	1034.765
154.775	26.075	1279.074	1033.649
155.789	26.022	1278.622	1032.893
156.804	26.039	1277.655	1032.118
157.819	25.997	1277.112	1031.346
158.833	26.089	1275.878	1030.785
159.848	26.131	1275.431	1030.571
160.862	26.078	1274.504	1029.428
161.877	26.071	1273.683	1028.634
162.892	26.038	1273.209	1027.971
163.906	26.126	1272.199	1027.564
164.921	26.195	1271.528	1027.327
165.935	26.265	1270.635	1026.910
166.950	26.168	1269.857	1025.643
167.964	26.210	1269.210	1025.268
168.979	26.045	1269.282	1024.298
169.994	26.193	1268.381	1024.318
171.008	26.173	1267.188	1023.151
172.023	26.103	1266.868	1022.404
173.037	26.120	1266.184	1021.858
174.052	26.229	1265.449	1021.790
175.067	26.178	1264.433	1020.594
176.081	26.188	1263.945	1020.164
177.096	26.140	1263.286	1019.273
178.110	26.175	1261.991	1018.335
179.125	26.181	1260.682	1017.221
180.140	26.323	1259.805	1017.222
181.154	26.196	1258.914	1015.699
182.169	26.094	1257.899	1014.216
183.183	26.235	1256.714	1013.963
184.198	26.094	1255.912	1012.436
185.213	26.157	1255.172	1012.106
186.227	26.372	1253.471	1011.847
187.242	26.406	1252.635	1011.275
188.256	26.473	1251.691	1010.794
189.271	26.259	1251.705	1009.519
190.286	26.320	1250.776	1009.025
191.300	26.254	1250.186	1008.087
192.315	26.241	1249.935	1007.726
193.329	26.256	1249.176	1007.106
194.344	26.398	1248.756	1007.473
195.359	26.381	1248.335	1006.950
196.373	26.253	1248.132	1005.983
197.388	26.194	1247.221	1004.831
198.402	26.209	1246.781	1004.470
199.417	26.177	1246.870	1004.273
200.432	26.216	1246.604	1004.187
201.446	26.272	1245.372	1003.422
202.461	26.246	1244.597	1002.563
203.475	26.307	1243.613	1002.020
204.490	26.344	1242.321	1001.092
205.504	26.301	1241.579	1000.172
206.519	26.420	1240.254	999.673
207.534	26.321	1239.564	998.478
208.548	26.303	1238.947	997.793
209.563	26.329	1238.514	997.501
210.577	26.244	1237.654	996.253
211.592	26.363	1236.454	995.851
212.607	26.388	1235.852	995.417
213.621	26.516	1234.876	995.250
214.636	26.494	1233.802	994.173
215.650	26.460	1233.583	993.723
216.665	26.373	1232.550	992.324
217.680	26.443	1231.839	992.046
218.694	26.395	1231.246	991.221
219.709	26.399	1230.408	990.477
220.723	26.447	1229.454	989.889
221.738	26.430	1228.695	989.094
222.753	26.362	1228.313	988.330
223.767	26.338	1227.611	987.545
224.782	26.482	1227.048	987.789
225.796	26.442	1226.496	987.042
226.811	26.440	1225.811	986.391
227.826	26.463	1225.214	985.947
228.840	26.554	1224.378	985.683
229.855	26.413	1223.891	984.438
230.869	26.441	1223.241	983.982
231.884	26.382	1222.516	982.988
232.899	26.518	1221.418	982.759
233.913	26.495	1221.091	982.283
234.928	26.639	1220.520	982.519
235.942	26.638	1219.943	981.963
236.957	26.661	1219.258	981.446
237.972	26.564	1218.344	980.102
238.986	26.485	1217.937	979.258
240.001	26.532	1217.278	978.898
241.015	26.645	1216.521	978.813
242.030	26.647	1215.539	977.945
243.045	26.678	1215.301	977.834
244.059	26.679	1214.345	976.986
245.074	26.788	1213.135	976.511
246.088	26.799	1212.353	975.853
247.103	26.642	1212.057	974.686
248.117	26.780	1211.046	974.530
249.132	26.758	1210.460	973.850
250.147	26.696	1210.063	973.114
251.161	26.721	1208.972	972.282
252.176	26.668	1208.597	971.610
253.190	26.668	1207.970	971.023
254.205	26.723	1207.132	970.558
255.220	26.800	1206.433	970.321
256.234	26.871	1205.846	970.141
257.249	26.732	1205.411	968.962
258.263	26.737	1204.558	968.219
259.278	26.814	1204.005	968.099
260.293	26.781	1204.136	967.945
261.307	26.737	1203.302	966.953
262.322	26.750	1202.614	966.385
263.336	26.782	1201.740	965.767
264.351	26.758	1201.486	965.348
265.366	26.826	1200.741	965.029
266.380	26.970	1199.581	964.776
267.395	26.762	1199.108	963.204
268.409	26.784	1198.655	962.873
269.424	26.716	1198.278	962.122
270.439	26.767	1197.765	961.897
271.453	26.844	1196.865	961.494
272.468	26.827	1196.255	960.829
273.482	26.886	1195.316	960.303
274.497	26.901	1194.820	959.900
275.512	26.867	1194.115	959.067
276.526	26.958	1193.348	958.847
277.541	26.936	1193.166	958.499
278.555	26.911	1192.536	957.777
279.570	26.880	1191.625	956.799
280.585	26.957	1190.587	956.289
281.599	26.991	1189.313	955.355
282.614	26.957	1188.660	954.569
283.628	26.926	1188.072	953.849
284.643	27.071	1186.920	953.600
285.657	26.954	1186.400	952.483
286.672	26.944	1185.992	952.019
287.687	27.107	1184.932	951.939
288.701	27.083	1184.410	951.313
289.716	27.004	1183.737	950.270
290.730	27.054	1182.880	949.762
291.745	27.061	1182.168	949.142
292.760	27.206	1181.489	949.268
293.774	27.050	1181.280	948.203
294.789	27.102	1180.365	947.658
295.803	27.013	1180.285	947.046
296.818	27.099	1179.477	946.759
297.833	27.077	1178.658	945.905
298.847	27.158	1177.782	945.542
299.862	27.192	1177.081	945.069
300.876	27.139	1176.553	944.286
301.891	27.132	1175.938	943.677
302.906	27.176	1175.512	943.478
303.920	27.273	1174.376	942.987
304.935	27.286	1173.691	942.420
305.949	27.153	1173.394	941.409
306.964	27.329	1172.467	941.494
307.979	27.155	1172.332	940.400
308.993	27.206	1171.875	940.214
310.008	27.169	1170.822	939.097
311.022	27.335	1169.874	939.105
312.037	27.252	1169.561	938.346
313.052	27.220	1168.389	937.157
314.066	27.292	1167.403	936.654
315.081	27.201	1167.103	935.861
316.095	27.208	1166.315	935.186
317.110	27.320	1165.334	934.890
318.125	27.340	1165.037	934.673
319.139	27.262	1164.186	933.507
320.154	27.339	1163.456	933.233
321.168	27.354	1163.033	932.887
322.183	27.385	1162.858	932.825
323.197	27.313	1162.025	931.705
324.212	27.288	1161.677	931.213
325.227	27.325	1160.747	930.576
326.241	27.402	1160.361	930.576
327.256	27.450	1159.724	930.227
328.270	27.378	1158.838	929.071
329.285	27.530	1157.609	928.779
330.300	27.412	1157.386	927.915
331.314	27.461	1156.176	927.111
332.329	27.357	1155.756	926.162
333.343	27.461	1154.849	925.884
334.358	27.555	1153.987	925.590
335.373	27.528	1153.552	925.019
336.387	27.538	1152.611	924.235
337.402	27.587	1151.851	923.790
338.416	27.517	1151.261	922.881
339.431	27.555	1150.765	922.594
340.446	27.582	1150.518	922.450
341.460	27.675	1149.580	922.088
342.475	27.682	1148.771	921.392
343.489	27.593	1147.513	919.855
344.504	27.613	1147.123	919.561
345.519	27.650	1146.237	918.956
346.533	27.715	1145.432	918.555
347.548	27.670	1144.725	917.683
348.562	27.631	1144.139	916.933
349.577	27.665	1143.391	916.425
350.592	27.633	1142.539	915.499
351.606	27.549	1141.900	914.487
352.621	27.667	1141.372	914.575
353.635	27.668	1140.706	913.963
354.650	27.639	1140.365	913.464
355.665	27.734	1139.883	913.474
356.679	27.749	1138.927	912.699
357.694	27.797	1138.402	912.438
358.708	27.862	1137.367	911.852
359.723	27.745	1136.921	910.830
360.738	27.766	1136.517	910.531
361.752	27.663	1136.291	909.755
362.767	27.810	1135.575	909.837
363.781	27.848	1134.665	909.216
364.796	27.894	1134.200	908.992
365.810	27.946	1133.369	908.503
366.825	27.911	1133.078	908.017
367.840	27.870	1132.555	907.313
368.854	27.847	1132.179	906.818
369.869	27.840	1131.337	906.027
370.883	27.967	1130.266	905.720
371.898	28.013	1129.196	905.008
372.913	27.901	1129.311	904.468
373.927	27.870	1128.945	903.942
374.942	28.051	1128.418	904.333
375.956	28.015	1127.409	903.265
376.971	28.050	1127.055	903.077
377.986	27.926	1126.539	901.972
379.000	28.062	1125.731	901.914
380.015	28.049	1125.345	901.460
381.029	27.919	1124.999	900.464
382.044	28.043	1124.098	900.272
383.059	28.071	1123.431	899.798
384.073	28.130	1122.554	899.304
385.088	28.092	1121.822	898.456
386.102	28.036	1121.075	897.502
387.117	28.073	1120.116	896.835
388.132	28.116	1119.234	896.260
389.146	28.078	1118.894	895.722
390.161	28.087	1118.433	895.319
391.175	28.126	1117.858	894.970
392.190	28.262	1116.525	894.485
393.205	28.231	1116.324	894.097
394.219	28.092	1115.331	892.543
395.234	28.193	1114.358	892.178
396.248	28.247	1113.666	891.810
397.263	28.214	1113.194	891.193
398.278	28.282	1112.499	890.886
399.292	28.308	1111.859	890.423
400.307	28.282	1111.116	889.623
401.321	28.235	1110.779	889.044
402.336	28.170	1110.132	888.133
403.350	28.185	1109.289	887.453
404.365	28.297	1108.740	887.476
405.380	28.354	1107.546	886.719
406.394	28.333	1107.107	886.186
407.409	28.398	1106.631	886.043
408.423	28.439	1105.613	885.345
409.438	28.396	1105.018	884.585
410.453	28.519	1104.267	884.497
411.467	28.500	1103.487	883.703
412.482	28.550	1102.723	883.253
413.496	28.532	1102.192	882.664
414.511	28.513	1101.576	882.001
415.526	28.481	1101.481	881.694
416.540	28.571	1100.620	881.358
417.555	28.386	1100.455	880.259
418.569	28.385	1100.152	879.937
419.584	28.586	1099.456	880.265
420.599	28.514	1099.175	879.618
421.613	94.977	1308.947	1409.577
422.628	88.830	1339.477	1409.683
