DTS Sentinel unit serial number:	SN413079Multiplexer serial number:	ORYXHardware model number:	OX4-SRSoftware version number:	ORYX F/W v4.00 Oryx Data Collector v3.7.2.0data status	okinstallation	princeton_trtdifferential loss correction	single-endedforward channel	channel 2reverse channel	N/Adate	2019/09/11time	06:29:10forward acquisition time	60.00reverse acquisition time	0.00gamma	496.2192k internal	0.2328k external	0.2328temperature offset calibration	0.9932default loss term (dB/km)	0.3790temperature slope calibration	1.0000multiplexer offset coefficient	1.0000multiplexer slope coefficient	1.0000fibre end	0.00T internal ref (°C)	29.62T ext. ref 1 (°C)	-0.17T ext. ref 2 (°C)	24.25length (m)	temperature (°C)	Stokes	anti-Stokes-747.200	-44.887	-0.116	0.058
-746.185	72.315	-0.223	0.234
-745.171	-85.921	0.105	-0.033
-744.156	464.956	-0.148	0.333
-743.142	800.000	0.042	0.144
-742.127	482.322	-0.206	0.471
-741.112	800.000	-0.040	-0.152
-740.098	105.682	0.134	-0.160
-739.083	-92.281	-0.291	-0.083
-738.069	-59.382	-0.196	-0.085
-737.054	78.582	-0.095	0.102
-736.039	9.326	-0.148	0.113
-735.025	-115.220	-0.274	-0.052
-734.010	-7.598	0.167	-0.114
-732.996	800.000	0.085	-0.244
-731.981	220.950	0.155	0.251
-730.966	800.000	-0.040	-0.144
-729.952	588.945	-0.210	-0.521
-728.937	320.801	0.071	0.135
-727.923	-200.000	0.034	-0.382
-726.908	98.763	-0.131	-0.152
-725.894	-200.000	0.002	0.091
-724.879	-101.915	0.223	0.054
-723.864	-65.842	0.201	-0.081
-722.850	-128.775	0.100	0.014
-721.835	-200.000	-0.033	-0.249
-720.821	-1.533	0.219	-0.155
-719.806	-172.110	0.378	-0.012
-718.791	-30.662	-0.090	0.051
-717.777	271.945	-0.162	-0.288
-716.762	270.889	0.073	-0.130
-715.748	-117.312	-0.290	-0.053
-714.733	113.628	0.083	0.101
-713.718	800.000	0.031	0.095
-712.704	-188.181	-0.112	-0.001
-711.689	-135.199	-0.401	-0.048
-710.675	142.718	-0.247	-0.330
-709.660	-89.997	0.274	0.080
-708.645	20.913	0.157	0.128
-707.631	800.000	0.072	-0.294
-706.616	800.000	-0.082	0.232
-705.602	-134.403	0.364	-0.045
-704.587	726.324	0.130	-0.348
-703.572	-61.338	-0.203	0.086
-702.558	106.418	0.126	-0.151
-701.543	-191.572	0.356	0.004
-700.529	-136.280	0.152	0.018
-699.514	-63.564	0.149	0.061
-698.499	188.594	-0.143	-0.215
-697.485	393.218	-0.014	0.030
-696.470	-186.531	-0.045	0.001
-695.456	-145.581	-0.382	-0.034
-694.441	69.839	-0.037	0.038
-693.426	-120.355	0.309	-0.053
-692.412	-182.202	-0.168	0.003
-691.397	58.907	0.065	-0.064
-690.383	-110.044	-0.099	-0.021
-689.368	422.064	0.205	0.443
-688.354	800.000	-0.048	0.212
-687.339	62.039	-0.259	0.259
-686.324	-37.412	-0.207	0.111
-685.310	-173.787	-0.234	0.007
-684.295	800.000	0.024	0.098
-683.281	800.000	-0.056	-0.174
-682.266	203.506	-0.098	0.153
-681.251	-85.329	0.307	0.096
-680.237	28.918	0.096	-0.082
-679.222	-125.284	-0.450	-0.069
-678.208	83.677	0.375	-0.411
-677.193	96.212	-0.253	0.291
-676.178	632.234	-0.193	0.491
-675.164	-10.827	-0.223	0.148
-674.149	1.518	-0.066	-0.047
-673.135	-85.497	-0.033	-0.010
-672.120	24.512	0.316	-0.263
-671.105	-130.411	0.169	0.023
-670.091	800.000	-0.128	0.360
-669.076	159.907	0.030	0.042
-668.062	-65.071	0.043	0.018
-667.047	-134.579	-0.183	0.022
-666.032	-32.814	-0.212	0.118
-665.018	24.271	-0.200	-0.166
-664.003	-24.750	-0.208	0.124
-662.989	-14.702	0.233	-0.150
-661.974	53.042	-0.069	0.066
-660.959	-98.124	0.207	0.054
-659.945	-118.673	-0.215	0.038
-658.930	-80.311	-0.305	-0.102
-657.916	63.575	-0.039	0.039
-656.901	-200.000	0.024	0.191
-655.886	224.232	-0.124	-0.200
-654.872	-200.000	-0.029	-0.326
-653.857	-89.019	-0.253	0.075
-652.843	370.101	0.123	-0.250
-651.828	800.000	-0.091	0.330
-650.814	-65.623	-0.149	-0.060
-649.799	-200.000	0.067	-0.378
-648.784	17.511	-0.185	-0.148
-647.770	-84.366	-0.066	0.021
-646.755	-53.979	-0.154	-0.071
-645.741	45.771	-0.046	-0.043
-644.726	218.291	0.003	-0.005
-643.711	344.407	0.090	-0.177
-642.697	122.361	-0.082	-0.102
-641.682	-129.442	-0.300	0.042
-640.668	-81.648	0.095	0.031
-639.653	80.720	-0.349	-0.378
-638.638	335.742	-0.017	0.033
-637.624	8.444	-0.154	0.116
-636.609	-74.982	0.157	-0.056
-635.595	-64.415	0.346	-0.141
-634.580	80.650	-0.088	0.095
-633.565	567.525	0.053	-0.129
-632.551	0.440	-0.245	-0.175
-631.536	800.000	-0.073	0.237
-630.522	-200.000	0.006	0.158
-629.507	-106.483	0.242	-0.054
-628.492	199.167	0.098	0.150
-627.478	369.722	0.044	-0.089
-626.463	646.468	0.151	0.386
-625.449	374.071	-0.118	0.241
-624.434	-66.153	0.054	-0.022
-623.419	-200.000	-0.028	0.143
-622.405	800.000	-0.039	0.121
-621.390	102.647	-0.314	0.368
-620.376	112.992	-0.180	0.218
-619.361	-66.359	-0.021	-0.008
-618.346	-4.363	-0.113	-0.079
-617.332	14.067	0.334	0.261
-616.317	-200.000	-0.022	0.176
-615.303	-105.910	-0.296	-0.067
-614.288	351.059	0.105	0.208
-613.273	-200.000	-0.021	0.236
-612.259	200.736	0.061	-0.094
-611.244	-200.000	0.009	0.195
-610.230	151.882	-0.257	-0.351
-609.215	177.617	0.167	0.244
-608.201	76.911	0.157	-0.167
-607.186	-46.568	-0.377	0.185
-606.171	93.036	0.119	0.135
-605.157	321.997	0.046	-0.088
-604.142	800.000	0.051	-0.177
-603.128	358.323	0.115	0.230
-602.113	681.226	-0.069	-0.179
-601.098	330.795	-0.079	0.153
-600.084	34.443	-0.089	0.078
-599.069	128.407	0.193	0.247
-598.055	82.993	-0.090	-0.099
-597.040	14.086	0.056	-0.044
-596.025	71.903	-0.170	0.177
-595.011	800.000	-0.073	-0.295
-593.996	-200.000	-0.001	-0.145
-592.982	-67.951	0.141	-0.055
-591.967	-64.081	-0.244	0.100
-590.952	-109.425	-0.409	-0.087
-589.938	-167.241	-0.231	0.009
-588.923	-200.000	0.002	0.054
-587.909	-130.434	0.151	0.020
-586.894	200.922	0.134	-0.206
-585.879	-12.226	0.206	0.135
-584.865	-142.262	-0.275	-0.027
-583.850	56.525	0.072	0.070
-582.836	80.646	0.247	0.266
-581.821	200.840	-0.274	-0.422
-580.806	-163.255	-0.163	-0.008
-579.792	11.969	0.278	0.214
-578.777	-162.408	-0.139	-0.007
-577.763	-200.000	-0.026	0.115
-576.748	-200.000	-0.004	0.185
-575.733	-127.178	-0.306	0.045
-574.719	800.000	0.077	0.265
-573.704	225.903	0.130	-0.210
-572.690	167.617	-0.213	0.304
-571.675	-162.170	0.222	0.011
-570.661	51.947	-0.225	-0.215
-569.646	20.989	0.091	0.074
-568.631	541.572	0.063	-0.151
-567.617	-84.933	0.341	0.107
-566.602	503.418	0.104	0.241
-565.588	739.014	-0.085	-0.228
-564.573	35.536	0.076	-0.067
-563.558	-200.000	0.063	0.409
-562.544	-112.612	0.172	0.034
-561.529	-97.188	-0.314	-0.082
-560.515	32.164	0.082	-0.071
-559.500	-104.669	0.105	-0.024
-558.485	-109.656	-0.123	-0.026
-557.471	127.324	0.094	-0.119
-556.456	-200.000	-0.000	0.077
-555.442	-163.336	-0.257	-0.012
-554.427	66.163	-0.098	0.100
-553.412	-179.316	0.234	-0.005
-552.398	-200.000	0.008	-0.236
-551.383	5.228	0.234	0.173
-550.369	18.178	-0.138	-0.110
-549.354	155.325	0.132	0.181
-548.339	43.747	-0.179	-0.164
-547.325	-13.021	0.221	0.144
-546.310	141.362	0.133	-0.175
-545.296	800.000	0.037	-0.152
-544.281	-200.000	-0.002	-0.209
-543.266	46.833	-0.280	-0.260
-542.252	230.294	0.209	-0.342
-541.237	17.546	0.221	0.176
-540.223	20.092	-0.166	0.134
-539.208	-23.141	-0.258	0.155
-538.193	429.479	-0.020	-0.044
-537.179	-75.868	0.059	0.021
-536.164	-39.137	-0.293	-0.154
-535.150	800.000	-0.056	0.184
-534.135	-89.325	-0.292	-0.086
-533.121	623.243	0.066	-0.167
-532.106	800.000	-0.113	-0.347
-531.091	-61.272	-0.282	0.119
-530.077	-133.057	0.260	0.033
-529.062	-31.107	0.119	-0.067
-528.048	514.530	0.065	-0.152
-527.033	-106.344	-0.253	-0.056
-526.018	-87.678	0.236	0.071
-525.004	-102.023	-0.109	-0.026
-523.989	-200.000	0.008	-0.185
-522.975	-44.557	-0.497	-0.248
-521.960	323.509	0.077	0.147
-520.945	-128.355	-0.216	-0.031
-519.931	167.024	0.097	-0.137
-518.916	566.197	-0.140	-0.340
-517.902	-81.336	-0.269	-0.088
-516.887	36.171	0.081	-0.072
-515.872	54.572	-0.196	-0.189
-514.858	-9.146	-0.133	-0.089
-513.843	202.077	0.139	-0.214
-512.829	-22.324	-0.240	-0.145
-511.814	259.092	0.110	-0.189
-510.799	125.358	0.088	0.110
-509.785	109.204	0.110	-0.131
-508.770	-64.224	-0.078	-0.032
-507.756	216.512	-0.133	-0.212
-506.741	-200.000	0.031	0.260
-505.726	-200.000	-0.017	0.269
-504.712	85.381	0.191	0.209
-503.697	-160.597	0.355	0.019
-502.683	-56.083	-0.385	-0.171
-501.668	-200.000	0.075	-0.350
-500.653	-129.027	0.269	0.038
-499.639	800.000	0.085	0.295
-498.624	21.268	-0.256	-0.208
-497.610	459.134	-0.158	-0.350
-496.595	256.043	0.126	0.215
-495.581	271.065	0.091	-0.159
-494.566	-200.000	0.001	-0.078
-493.551	2.527	-0.139	-0.101
-492.537	412.678	0.143	-0.303
-491.522	-59.180	0.206	-0.088
-490.508	-9.083	-0.184	-0.123
-489.493	-200.000	0.065	0.359
-488.478	20.340	0.046	0.037
-487.464	-75.701	-0.136	-0.048
-486.449	-64.289	0.127	-0.052
-485.435	126.312	-0.197	0.249
-484.420	-57.579	-0.074	0.032
-483.405	800.000	0.032	-0.093
-482.391	124.260	0.213	-0.267
-481.376	-200.000	-0.000	-0.109
-480.362	75.349	-0.056	-0.059
-479.347	-91.202	-0.395	-0.113
-478.332	128.985	0.177	0.226
-477.318	254.112	0.065	-0.111
-476.303	-200.000	0.018	-0.210
-475.289	-129.090	-0.267	0.037
-474.274	5.818	0.201	-0.148
-473.259	-13.832	-0.178	0.115
-472.245	528.012	-0.051	0.121
-471.230	800.000	-0.101	-0.313
-470.216	104.504	0.113	0.132
-469.201	22.311	-0.201	-0.164
-468.186	265.861	0.059	-0.102
-467.172	-58.851	-0.330	-0.142
-466.157	469.025	-0.029	0.064
-465.143	-200.000	0.041	0.241
-464.128	111.657	0.144	0.173
-463.113	25.959	-0.108	-0.089
-462.099	-44.786	-0.274	0.136
-461.084	-85.234	-0.224	0.070
-460.070	-7.910	0.154	0.104
-459.055	-102.390	0.257	0.061
-458.040	-65.594	-0.051	0.020
-457.026	560.158	-0.112	-0.269
-456.011	76.892	-0.247	0.261
-454.997	-143.863	-0.164	-0.015
-453.982	-199.112	-0.253	0.001
-452.968	-87.949	0.252	0.076
-451.953	-26.407	0.290	0.170
-450.938	-174.462	0.396	0.011
-449.924	166.318	0.278	-0.393
-448.909	800.000	-0.061	-0.168
-447.895	655.795	0.017	-0.044
-446.880	16.556	0.100	-0.078
-445.865	-79.011	-0.282	-0.095
-444.851	800.000	-0.088	-0.356
-443.836	-83.056	0.170	0.055
-442.822	-87.251	0.406	-0.123
-441.807	-13.362	0.116	0.075
-440.792	-200.000	0.074	0.353
-439.778	-43.056	-0.388	0.196
-438.763	386.569	0.018	0.037
-437.749	-151.154	0.202	-0.015
-436.734	273.938	-0.036	0.064
-435.719	800.000	-0.036	0.138
-434.705	-200.000	0.014	0.163
-433.690	488.125	-0.161	0.366
-432.676	-3.227	-0.094	0.065
-431.661	-200.000	-0.006	0.064
-430.646	-72.826	0.252	0.092
-429.632	-103.115	0.181	-0.043
-428.617	159.859	-0.147	-0.204
-427.603	-82.810	-0.251	-0.081
-426.588	42.339	-0.282	-0.255
-425.573	-121.663	0.206	-0.034
-424.559	170.658	0.139	0.198
-423.544	713.020	0.056	0.147
-422.530	800.000	0.052	0.150
-421.515	-5.826	0.159	0.108
-420.500	72.603	0.328	0.340
-419.486	-169.920	-0.180	0.006
-418.471	308.832	-0.069	-0.128
-417.457	236.878	0.061	-0.101
-416.442	21.971	0.315	0.255
-415.428	68.763	-0.118	-0.121
-414.413	78.354	0.281	-0.299
-413.398	8.561	-0.167	-0.125
-412.384	-200.000	-0.051	0.298
-411.369	-185.466	0.213	-0.003
-410.355	-200.000	-0.042	0.224
-409.340	90.284	0.091	-0.101
-408.325	267.682	-0.125	0.217
-407.311	-54.173	0.177	0.080
-406.296	-69.517	-0.249	0.095
-405.282	58.288	-0.395	0.385
-404.267	58.140	-0.066	-0.064
-403.252	119.767	-0.178	-0.219
-402.238	-114.022	0.078	0.015
-401.223	-200.000	0.044	-0.285
-400.209	-35.709	0.018	-0.010
-399.194	751.314	0.048	0.130
-398.179	-200.000	-0.014	0.072
-397.165	-129.685	0.134	0.018
-396.150	-93.497	-0.044	0.012
-395.136	609.730	-0.059	-0.145
-394.121	-55.848	-0.166	0.074
-393.106	-152.827	-0.294	-0.021
-392.092	58.954	-0.241	0.235
-391.077	64.335	-0.195	0.195
-390.063	2.874	-0.234	-0.169
-389.048	-200.000	0.044	-0.221
-388.033	8.640	0.441	0.330
-387.019	84.243	0.116	0.126
-386.004	-169.668	-0.456	-0.016
-384.990	-82.362	-0.258	0.083
-383.975	-18.102	0.047	0.029
-382.960	-171.535	-0.125	-0.004
-381.946	-169.238	0.130	0.005
-380.931	-41.211	0.194	0.100
-379.917	80.549	-0.150	0.161
-378.902	131.750	-0.067	0.085
-377.888	-45.837	-0.254	0.125
-376.873	-46.242	0.079	-0.039
-375.858	94.056	0.190	0.214
-374.844	-30.173	0.161	0.091
-373.829	-154.342	0.376	0.025
-372.815	-200.000	-0.011	-0.488
-371.800	-21.067	0.109	0.066
-370.785	800.000	0.066	0.253
-369.771	-200.000	-0.039	-0.218
-368.756	-65.996	0.542	-0.215
-367.742	-20.397	-0.113	-0.069
-366.727	-12.641	0.174	0.112
-365.712	-138.269	-0.437	-0.048
-364.698	-9.707	-0.128	0.085
-363.683	-129.508	0.132	0.018
-362.669	224.852	-0.050	0.081
-361.654	-200.000	0.062	-0.292
-360.639	75.235	0.178	-0.186
-359.625	77.859	-0.137	-0.145
-358.610	82.144	0.133	-0.143
-357.596	-59.762	0.092	-0.039
-356.581	39.750	-0.140	-0.124
-355.566	660.579	-0.098	-0.250
-354.552	-200.000	0.053	0.268
-353.537	-44.978	-0.285	-0.141
-352.523	-64.988	-0.107	-0.043
-351.508	90.338	-0.243	0.269
-350.493	-200.000	0.043	0.646
-349.479	800.000	0.062	0.243
-348.464	20.992	0.048	0.038
-347.450	-90.993	0.483	-0.138
-346.435	276.517	-0.174	-0.306
-345.420	-112.279	-0.352	-0.070
-344.406	48.188	0.075	0.070
-343.391	-92.387	-0.189	0.053
-342.377	800.000	0.017	0.048
-341.362	-200.000	-0.062	0.379
-340.348	-99.347	-0.120	-0.030
-339.333	52.163	-0.281	-0.265
-338.318	701.668	-0.167	0.436
-337.304	-200.000	0.020	-0.139
-336.289	171.827	0.046	-0.066
-335.275	-200.000	-0.030	0.146
-334.260	448.807	-0.082	0.179
-333.245	-100.106	-0.245	-0.060
-332.231	-16.027	-0.235	-0.148
-331.216	-200.000	0.055	0.256
-330.202	-140.447	-0.016	-0.002
-329.187	-200.000	0.017	0.120
-328.172	212.348	0.147	0.229
-327.158	-47.268	-0.059	-0.029
-326.143	-21.999	0.348	-0.210
-325.129	-105.728	-0.281	0.063
-324.114	666.203	0.047	-0.120
-323.099	-143.301	-0.139	0.013
-322.085	531.724	0.116	-0.273
-321.070	47.860	0.176	0.163
-320.056	55.454	0.064	0.062
-319.041	-40.971	-0.225	-0.115
-318.026	-200.000	-0.031	0.320
-317.012	-94.597	0.273	-0.074
-315.997	-49.617	-0.077	-0.036
-314.983	285.626	0.137	0.244
-313.968	274.467	0.076	0.133
-312.953	-131.646	0.177	0.023
-311.939	-51.815	0.253	0.117
-310.924	19.878	0.124	-0.099
-309.910	-5.013	0.247	0.168
-308.895	318.070	0.183	-0.342
-307.880	-200.000	-0.039	0.197
-306.866	-156.568	-0.182	0.011
-305.851	-66.113	-0.347	-0.137
-304.837	800.000	0.093	0.391
-303.822	800.000	0.079	0.248
-302.807	4.910	-0.084	-0.061
-301.793	-200.000	-0.005	-0.047
-300.778	-159.512	-0.475	0.026
-299.764	-75.005	0.418	-0.148
-298.749	120.840	0.146	0.180
-297.735	-119.274	-0.292	-0.050
-296.720	800.000	0.046	-0.127
-295.705	-3.013	-0.165	-0.114
-294.691	-2.360	0.361	0.251
-293.676	-90.977	0.230	-0.065
-292.662	-151.637	-0.388	0.028
-291.647	-16.882	0.287	0.179
-290.632	800.000	-0.108	0.351
-289.618	168.767	-0.036	-0.051
-288.603	172.242	0.221	0.315
-287.589	-200.000	0.034	0.249
-286.574	-129.616	-0.021	0.003
-285.559	-88.639	-0.336	0.099
-284.545	266.855	-0.080	0.138
-283.530	-200.000	0.057	0.504
-282.516	-27.538	0.101	-0.058
-281.501	-60.000	-0.137	-0.058
-280.486	-139.112	0.115	0.012
-279.472	44.349	0.186	-0.169
-278.457	10.390	0.485	-0.365
-277.443	5.970	0.152	-0.111
-276.428	-13.606	0.115	0.074
-275.413	-126.294	0.192	-0.028
-274.399	-200.000	0.015	-0.087
-273.384	800.000	-0.020	0.075
-272.370	167.059	0.229	0.321
-271.355	318.139	0.167	-0.313
-270.340	392.861	0.169	-0.347
-269.326	65.259	-0.140	0.140
-268.311	223.690	-0.123	0.197
-267.297	-149.588	-0.125	-0.010
-266.282	-189.544	-0.164	-0.002
-265.267	-179.276	-0.303	-0.007
-264.253	166.420	0.077	-0.108
-263.238	-124.560	-0.193	-0.030
-262.224	2.560	-0.223	-0.160
-261.209	51.577	0.190	-0.178
-260.195	-40.339	-0.117	-0.060
-259.180	-82.283	0.087	-0.028
-258.165	703.104	-0.111	0.290
-257.151	567.739	-0.158	-0.378
-256.136	175.607	-0.130	0.187
-255.122	-41.805	0.393	0.199
-254.107	371.557	0.028	-0.057
-253.092	-74.130	0.068	0.024
-252.078	800.000	0.216	-0.600
-251.063	-200.000	-0.011	-0.119
-250.049	317.539	0.082	0.153
-249.034	309.242	0.159	-0.293
-248.019	-103.121	0.093	0.022
-247.005	107.305	-0.129	-0.152
-245.990	9.496	0.250	-0.187
-244.976	307.038	-0.177	0.326
-243.961	-200.000	0.017	0.263
-242.946	-4.830	0.215	-0.146
-241.932	-84.802	-0.435	-0.135
-240.917	-200.000	0.004	-0.044
-239.903	-7.553	0.079	-0.053
-238.888	-97.761	-0.464	-0.119
-237.873	-179.234	0.205	0.004
-236.859	0.819	0.199	0.140
-235.844	-200.000	0.013	0.082
-234.830	331.829	-0.038	0.072
-233.815	100.295	0.144	0.165
-232.800	510.383	-0.071	0.164
-231.786	-25.171	-0.148	-0.087
-230.771	-200.000	0.018	-0.328
-229.757	-200.000	-0.048	-0.377
-228.742	68.929	0.065	0.066
-227.727	-200.000	0.020	0.378
-226.713	800.000	0.126	-0.377
-225.698	464.250	-0.038	0.084
-224.684	-200.000	0.007	-0.043
-223.669	-200.000	-0.041	0.373
-222.655	800.000	0.034	-0.096
-221.640	-108.665	0.526	-0.111
-220.625	-175.359	-0.176	0.005
-219.611	800.000	-0.048	-0.149
-218.596	-153.607	0.389	-0.027
-217.582	-200.000	0.000	0.105
-216.567	-88.366	0.256	-0.076
-215.552	-104.068	0.207	0.047
-214.538	-159.303	-0.538	-0.030
-213.523	118.538	0.206	-0.251
-212.509	-99.630	0.120	-0.030
-211.494	579.493	0.104	-0.251
-210.479	-10.796	-0.417	-0.272
-209.465	525.722	0.141	-0.328
-208.450	29.961	-0.251	0.211
-207.436	-74.049	0.006	0.002
-206.421	121.297	0.196	-0.241
-205.406	-200.000	0.013	0.206
-204.392	-200.000	-0.033	-0.282
-203.377	-99.198	-0.350	0.087
-202.363	-200.000	0.010	-0.252
-201.348	-155.711	0.086	-0.005
-200.333	800.000	0.118	-0.413
-199.319	-200.000	0.084	0.365
-198.304	-28.458	0.200	0.114
-197.290	42.124	-0.210	0.188
-196.275	167.603	-0.062	-0.086
-195.260	-63.147	0.284	-0.115
-194.246	521.174	-0.083	0.191
-193.231	-75.487	0.233	0.082
-192.217	-200.000	0.028	0.382
-191.202	174.262	0.125	0.179
-190.187	-7.741	0.189	0.126
-189.173	147.760	0.190	0.252
-188.158	-81.937	-0.130	0.042
-187.144	-200.000	-0.005	-0.048
-186.129	-53.701	0.040	0.018
-185.114	-148.012	-0.160	0.013
-184.100	-84.775	-0.116	0.036
-183.085	800.000	0.031	0.127
-182.071	-33.628	0.084	-0.046
-181.056	-21.213	0.097	-0.059
-180.042	-90.321	-0.135	-0.039
-179.027	600.579	-0.054	-0.133
-178.012	7.709	0.180	0.133
-176.998	800.000	-0.095	-0.276
-175.983	-35.440	0.064	0.034
-174.969	446.009	-0.130	0.281
-173.954	239.871	0.075	-0.123
-172.939	-112.117	0.162	-0.032
-171.925	800.000	0.070	-0.196
-170.910	-200.000	0.043	0.216
-169.896	41.183	-0.307	-0.274
-168.881	392.028	-0.105	-0.214
-167.866	31.228	-0.068	-0.058
-166.852	-58.795	-0.157	-0.067
-165.837	-123.977	0.254	-0.039
-164.823	-197.689	0.550	0.003
-163.808	800.000	-0.053	0.197
-162.793	800.000	0.121	-0.336
-161.779	-200.000	-0.014	0.062
-160.764	800.000	0.091	-0.251
-159.750	617.754	-0.042	-0.105
-158.735	-105.946	-0.169	0.037
-157.720	102.509	0.078	-0.090
-156.706	21.810	0.298	-0.239
-155.691	157.814	0.185	0.252
-154.677	-200.000	0.025	-0.366
-153.662	175.927	0.098	0.140
-152.647	-66.967	0.439	0.171
-151.633	-200.000	0.022	0.117
-150.618	-159.010	0.153	-0.009
-149.604	248.854	-0.103	0.172
-148.589	-115.513	-0.144	-0.027
-147.574	-72.008	0.071	-0.026
-146.560	20.131	-0.140	-0.111
-145.545	106.337	0.113	0.132
-144.531	800.000	-0.043	0.153
-143.516	251.922	-0.117	-0.196
-142.502	46.136	-0.129	0.117
-141.487	134.662	0.230	0.294
-140.472	-105.780	0.142	0.031
-139.458	-200.000	0.052	0.301
-138.443	-130.593	0.334	-0.044
-137.429	-200.000	-0.014	0.272
-136.414	388.943	0.209	0.426
-135.399	-200.000	-0.009	-0.239
-134.385	156.093	0.074	-0.100
-133.370	151.762	-0.147	-0.198
-132.356	35.741	0.120	0.104
-131.341	-78.550	0.072	-0.024
-130.326	4.494	0.172	-0.124
-129.312	-142.020	0.097	0.010
-128.297	565.296	-0.102	0.243
-127.283	-98.968	0.292	-0.073
-126.268	-30.963	-0.062	-0.034
-125.253	-44.059	-0.133	0.066
-124.239	-9.259	-0.217	-0.142
-123.224	86.481	-0.132	0.143
-122.210	271.814	0.045	0.078
-121.195	-114.753	0.103	0.019
-120.180	381.262	0.046	0.094
-119.166	-46.027	0.075	0.037
-118.151	800.000	-0.062	-0.226
-117.137	-123.002	0.367	0.058
-116.122	-27.302	0.139	0.080
-115.107	-30.751	0.207	0.115
-114.093	364.663	0.077	0.153
-113.078	668.931	0.041	0.104
-112.064	-36.968	0.231	-0.122
-111.049	-200.000	0.028	-0.249
-110.034	800.000	-0.064	-0.269
-109.020	-200.000	0.013	-0.220
-108.005	-200.000	0.044	-0.239
-106.991	-159.131	-0.155	-0.009
-105.976	378.466	-0.082	0.165
-104.962	-12.195	0.243	0.156
-103.947	111.745	-0.112	0.133
-102.932	-71.847	0.052	0.019
-101.918	110.850	-0.131	-0.155
-100.903	800.000	-0.010	-0.034
-99.889	138.462	0.167	0.215
-98.874	14.931	-0.175	0.135
-97.859	39.987	0.089	0.078
-96.845	97.553	0.128	0.145
-95.830	-200.000	-0.018	-0.226
-94.816	299.967	0.022	0.039
-93.801	67.793	0.143	-0.143
-92.786	-200.000	-0.002	0.162
-91.772	-200.000	-0.024	-0.107
-90.757	800.000	-0.042	-0.129
-89.743	580.991	0.221	0.532
-88.728	-200.000	-0.063	0.577
-87.713	-9.511	0.156	-0.102
-86.699	800.000	-0.084	0.254
-85.684	-76.598	0.163	0.056
-84.670	-27.079	-0.162	-0.093
-83.655	260.624	-0.145	-0.247
-82.640	78.690	-0.342	0.359
-81.626	-200.000	0.318	-0.000
-80.611	-13.021	0.109	0.070
-79.597	-79.170	0.238	0.079
-78.582	800.000	0.119	-0.347
-77.567	69.446	-0.219	-0.221
-76.553	800.000	0.019	-0.076
-75.538	-200.000	-0.015	0.119
-74.524	-200.000	-0.046	0.251
-73.509	-161.122	0.294	-0.015
-72.494	369.021	0.092	-0.183
-71.480	13.385	0.449	0.342
-70.465	260.117	-0.212	-0.359
-69.451	-200.000	0.032	-0.238
-68.436	34.060	-0.111	0.095
-67.422	155.485	0.135	-0.182
-66.407	-38.989	0.128	0.066
-65.392	-197.125	0.229	-0.001
-64.378	381.007	0.071	0.143
-63.363	141.139	-0.130	-0.168
-62.349	-16.610	-0.206	-0.128
-61.334	156.971	-1.021	-1.384
-60.319	27.259	0.611	0.503
-59.305	800.000	-0.369	-1.200
-58.290	213.730	0.754	1.169
-57.276	-200.000	0.277	1.555
-56.261	-200.000	105.322	606.239
-55.246	496.092	1503.432	3389.408
-54.232	175.259	2706.206	3845.359
-53.217	104.463	2301.974	2657.998
-52.203	38.647	1905.934	1667.547
-51.188	32.683	1691.780	1434.887
-50.173	30.251	1647.884	1379.544
-49.159	48.668	1701.143	1563.802
-48.144	49.341	1716.805	1583.221
-47.130	32.434	1674.038	1417.737
-46.115	29.661	1659.512	1384.636
-45.100	29.597	1654.687	1380.075
-44.086	29.485	1652.225	1377.135
-43.071	29.585	1648.968	1375.110
-42.057	29.483	1646.946	1372.613
-41.042	29.553	1645.193	1371.610
-40.027	29.475	1643.456	1369.536
-39.013	29.505	1641.369	1367.959
-37.998	29.530	1639.696	1366.696
-36.984	29.429	1638.618	1364.999
-35.969	29.660	1636.624	1364.987
-34.954	29.650	1635.070	1363.566
-33.940	29.626	1633.676	1362.174
-32.925	29.613	1631.772	1360.436
-31.911	29.514	1630.309	1358.431
-30.896	29.624	1627.906	1357.184
-29.881	29.542	1626.995	1355.769
-28.867	29.592	1625.295	1354.668
-27.852	29.603	1623.156	1352.911
-26.838	29.593	1622.135	1351.930
-25.823	29.608	1620.820	1350.890
-24.809	29.666	1619.795	1350.407
-23.794	29.656	1618.172	1348.931
-22.779	29.681	1616.861	1347.966
-21.765	29.757	1614.710	1346.667
-20.750	29.591	1613.632	1344.512
-19.736	29.641	1612.288	1343.699
-18.721	29.726	1610.264	1342.574
-17.706	29.670	1608.594	1340.727
-16.692	29.596	1607.378	1339.120
-15.677	29.628	1606.396	1338.483
-14.663	29.641	1605.271	1337.589
-13.648	29.714	1603.458	1336.554
-12.633	29.651	1602.002	1334.826
-11.619	29.641	1600.571	1333.509
-10.604	29.687	1599.494	1332.896
-9.590	29.691	1597.884	1331.524
-8.575	29.619	1596.760	1330.017
-7.560	29.707	1595.576	1329.616
-6.546	29.823	1593.976	1329.058
-5.531	29.628	1593.552	1327.257
-4.517	29.713	1592.028	1326.539
-3.502	29.721	1591.053	1325.737
-2.487	29.806	1589.272	1324.805
-1.473	29.527	1577.239	1312.737
-0.458	26.831	1558.985	1278.517
0.556	21.055	1561.081	1249.686
1.571	19.113	1585.679	1255.118
2.586	18.731	1600.213	1263.699
3.600	16.913	1546.875	1208.524
4.615	8.960	1436.489	1069.348
5.629	1.305	1372.983	973.058
6.644	-0.060	1364.688	958.390
7.659	-0.170	1363.625	956.860
8.673	-0.193	1362.768	956.029
9.688	-0.277	1360.794	954.022
10.702	-0.470	1357.687	950.533
11.717	3.088	1364.784	978.082
12.731	12.473	1382.461	1050.891
13.746	19.946	1394.796	1108.192
14.761	21.906	1397.910	1123.133
15.775	22.264	1397.762	1125.204
16.790	22.299	1397.306	1124.958
17.804	22.382	1396.958	1125.110
18.819	22.612	1396.227	1125.891
19.834	22.643	1395.991	1125.798
20.848	22.655	1395.024	1124.997
21.863	22.703	1394.090	1124.450
22.877	22.775	1393.020	1123.946
23.892	22.666	1392.295	1122.570
24.907	22.683	1391.642	1122.049
25.921	22.708	1390.324	1121.043
26.936	22.700	1389.446	1120.190
27.950	22.739	1388.468	1119.551
28.965	22.717	1387.496	1118.524
29.980	22.756	1386.223	1117.648
30.994	22.715	1385.266	1116.516
32.009	22.777	1384.070	1115.847
33.023	22.657	1383.239	1114.321
34.038	22.717	1381.558	1113.245
35.053	22.725	1380.930	1112.689
36.067	22.670	1380.224	1111.674
37.082	22.700	1379.348	1111.063
38.096	22.689	1378.302	1110.055
39.111	22.708	1377.065	1109.081
40.126	22.702	1376.714	1108.658
41.140	22.741	1375.882	1108.133
42.155	22.670	1375.742	1107.480
43.169	22.752	1375.515	1107.710
44.184	22.625	1374.976	1106.382
45.199	22.660	1374.899	1106.446
46.213	22.708	1374.316	1106.177
47.228	22.781	1372.781	1105.299
48.242	22.684	1372.017	1103.980
49.257	22.622	1370.813	1102.525
50.271	22.716	1369.095	1101.636
51.286	22.681	1368.168	1100.575
52.301	22.744	1366.636	1099.638
53.315	22.644	1366.176	1098.545
54.330	22.706	1365.056	1097.934
55.344	22.739	1363.855	1097.077
56.359	22.694	1362.720	1095.786
57.374	22.759	1362.071	1095.572
58.388	22.697	1361.598	1094.712
59.403	22.639	1361.192	1093.927
60.417	22.613	1360.541	1093.143
61.432	22.705	1359.465	1092.751
62.447	22.740	1358.583	1092.163
63.461	22.705	1357.481	1090.967
64.476	22.685	1356.795	1090.195
65.490	22.693	1355.419	1089.043
66.505	22.754	1353.928	1088.126
67.520	22.704	1353.158	1087.099
68.534	22.681	1352.080	1085.996
69.549	22.780	1350.756	1085.443
70.563	22.750	1349.990	1084.552
71.578	22.695	1349.269	1083.534
72.593	22.778	1348.299	1083.169
73.607	22.797	1347.375	1082.448
74.622	22.770	1346.384	1081.391
75.636	22.824	1345.653	1081.041
76.651	22.894	1344.581	1080.513
77.666	22.698	1344.634	1079.257
78.680	22.785	1344.007	1079.194
79.695	22.799	1343.451	1078.738
80.709	22.722	1342.651	1077.528
81.724	22.778	1341.596	1076.925
82.739	22.674	1340.998	1075.717
83.753	22.691	1339.671	1074.662
84.768	22.709	1338.438	1073.688
85.782	22.764	1337.599	1073.251
86.797	22.802	1336.058	1072.151
87.812	22.695	1335.611	1071.048
88.826	22.815	1334.235	1070.579
89.841	22.789	1333.341	1069.612
90.855	22.795	1332.022	1068.493
91.870	22.780	1331.515	1067.903
92.884	22.827	1330.682	1067.422
93.899	22.749	1329.594	1065.986
94.914	22.818	1329.097	1065.910
95.928	22.849	1328.306	1065.366
96.943	22.888	1327.650	1064.980
97.957	22.717	1327.187	1063.488
98.972	22.855	1325.920	1063.208
99.987	22.777	1325.287	1062.136
101.001	22.795	1323.999	1061.118
102.016	22.746	1323.211	1060.100
103.030	22.851	1321.894	1059.577
104.045	22.731	1321.626	1058.553
105.060	22.901	1320.210	1058.345
106.074	22.858	1319.400	1057.339
107.089	22.898	1318.426	1056.707
108.103	22.844	1317.391	1055.461
109.118	22.835	1316.214	1054.370
110.133	22.859	1315.067	1053.504
111.147	22.937	1313.502	1052.623
112.162	22.960	1312.433	1051.806
113.176	22.900	1311.788	1050.841
114.191	22.940	1311.172	1050.491
115.206	22.937	1309.855	1049.323
116.220	22.811	1308.791	1047.631
117.235	22.915	1307.639	1047.233
118.249	22.876	1306.694	1046.153
119.264	22.896	1305.930	1045.566
120.279	22.888	1305.285	1044.912
121.293	22.882	1304.154	1043.878
122.308	22.963	1303.402	1043.663
123.322	22.936	1302.479	1042.673
124.337	22.897	1301.617	1041.656
125.352	22.936	1300.530	1040.927
126.366	22.937	1299.810	1040.263
127.381	22.898	1298.947	1039.254
128.395	22.956	1298.277	1038.964
129.410	22.992	1297.185	1038.213
130.424	22.920	1296.602	1037.229
131.439	23.012	1295.370	1036.693
132.454	22.916	1294.650	1035.462
133.468	22.919	1294.218	1035.043
134.483	22.922	1293.737	1034.580
135.497	22.864	1292.743	1033.355
136.512	22.933	1291.710	1032.843
137.527	22.998	1290.477	1032.144
138.541	22.949	1289.149	1030.704
139.556	22.894	1288.023	1029.397
140.570	22.848	1287.422	1028.555
141.585	22.873	1286.218	1027.648
142.600	23.001	1284.886	1027.234
143.614	22.824	1284.531	1025.831
144.629	23.003	1282.747	1025.355
145.643	22.959	1281.458	1023.979
146.658	22.901	1280.750	1022.991
147.673	22.946	1280.028	1022.584
148.687	22.843	1278.819	1020.929
149.702	22.836	1278.153	1020.266
150.716	22.796	1277.240	1019.217
151.731	22.904	1275.793	1018.596
152.746	22.892	1275.063	1017.853
153.760	23.006	1273.789	1017.401
154.775	22.957	1272.721	1016.178
155.789	23.040	1271.240	1015.380
156.804	23.008	1271.088	1014.987
157.819	22.890	1270.299	1013.588
158.833	23.015	1269.428	1013.521
159.848	22.996	1268.747	1012.777
160.862	23.070	1268.147	1012.632
161.877	23.011	1267.273	1011.513
162.892	23.005	1266.213	1010.538
163.906	23.033	1265.397	1009.958
164.921	23.108	1264.618	1009.675
165.935	23.134	1263.936	1009.192
166.950	22.958	1263.675	1007.891
167.964	23.090	1262.571	1007.671
168.979	23.064	1261.866	1006.871
169.994	23.106	1261.808	1006.974
171.008	23.061	1260.766	1005.796
172.023	23.073	1260.159	1005.292
173.037	23.146	1259.234	1004.884
174.052	23.152	1258.593	1004.317
175.067	23.125	1257.809	1003.446
176.081	23.046	1257.030	1002.289
177.096	22.959	1256.185	1001.036
178.110	23.112	1255.116	1000.959
179.125	23.039	1254.458	999.931
180.140	23.103	1253.281	999.267
181.154	23.157	1252.007	998.470
182.169	23.101	1250.971	997.238
183.183	23.141	1250.052	996.643
184.198	23.290	1248.615	996.247
185.213	23.050	1248.167	994.450
186.227	23.036	1247.280	993.578
187.242	23.087	1246.661	993.285
188.256	23.138	1245.587	992.627
189.271	23.155	1244.751	991.966
190.286	23.167	1244.061	991.397
191.300	23.071	1243.351	990.209
192.315	23.082	1242.895	989.819
193.329	23.102	1242.925	989.869
194.344	23.232	1241.885	989.676
195.359	23.211	1241.314	989.020
196.373	23.152	1240.998	988.347
197.388	23.032	1240.579	987.255
198.402	23.129	1240.044	987.286
199.417	23.090	1239.814	986.796
200.432	23.086	1239.324	986.297
201.446	23.130	1238.283	985.627
202.461	23.194	1237.187	985.024
203.475	23.069	1236.536	983.722
204.490	23.236	1235.548	983.780
205.504	23.172	1234.459	982.470
206.519	23.228	1233.498	981.928
207.534	23.220	1232.695	981.158
208.548	23.278	1231.269	980.254
209.563	23.191	1231.321	979.727
210.577	23.205	1230.061	978.719
211.592	23.157	1229.280	977.746
212.607	23.269	1228.898	977.972
213.621	23.280	1228.220	977.407
214.636	23.278	1227.525	976.755
215.650	23.271	1226.149	975.535
216.665	23.239	1225.591	974.828
217.680	23.269	1224.691	974.196
218.694	23.228	1223.756	973.139
219.709	23.300	1223.051	972.888
220.723	23.398	1222.389	972.809
221.738	23.317	1221.619	971.670
222.753	23.186	1220.949	970.332
223.767	23.234	1220.657	970.274
224.782	23.382	1219.887	970.389
225.796	23.312	1219.947	969.967
226.811	23.361	1218.837	969.267
227.826	23.442	1218.135	969.064
228.840	23.330	1217.950	968.222
229.855	23.359	1217.182	967.681
230.869	23.474	1215.898	967.205
231.884	23.459	1215.280	966.543
232.899	23.382	1214.914	965.746
233.913	23.390	1214.475	965.357
234.928	23.446	1213.659	964.929
235.942	23.466	1213.241	964.617
236.957	23.438	1212.568	963.847
237.972	23.490	1211.126	962.898
238.986	23.484	1210.819	962.535
240.001	23.499	1210.215	962.054
241.015	23.468	1209.572	961.286
242.030	23.522	1208.693	960.799
243.045	23.600	1208.093	960.657
244.059	23.592	1207.328	959.922
245.074	23.558	1206.597	959.073
246.088	23.556	1205.507	958.109
247.103	23.549	1204.693	957.337
248.117	23.529	1204.129	956.699
249.132	23.527	1203.332	955.970
250.147	23.657	1202.545	955.958
251.161	23.570	1201.817	954.831
252.176	23.593	1200.871	954.115
253.190	23.575	1200.693	953.791
254.205	23.683	1199.835	953.607
255.220	23.637	1199.548	953.050
256.234	23.656	1199.024	952.650
257.249	23.650	1198.419	952.054
258.263	23.648	1197.650	951.344
259.278	23.744	1196.979	951.243
260.293	23.664	1196.451	950.313
261.307	23.716	1196.187	950.294
262.322	23.652	1195.481	949.310
263.336	23.669	1194.873	948.832
264.351	23.660	1194.366	948.297
265.366	23.671	1193.277	947.406
266.380	23.643	1192.696	946.712
267.395	23.686	1191.996	946.304
268.409	23.733	1191.355	945.962
269.424	23.733	1190.733	945.385
270.439	23.808	1190.282	945.339
271.453	23.794	1189.633	944.668
272.468	23.818	1188.496	943.811
273.482	23.781	1188.147	943.248
274.497	23.660	1188.097	942.488
275.512	23.823	1187.105	942.480
276.526	23.688	1186.776	941.422
277.541	23.700	1186.003	940.786
278.555	23.698	1185.457	940.262
279.570	23.847	1184.239	940.001
280.585	23.877	1183.588	939.557
281.599	23.866	1182.417	938.487
282.614	23.793	1181.982	937.671
283.628	23.816	1181.044	936.964
284.643	23.860	1180.483	936.670
285.657	23.795	1179.797	935.699
286.672	23.849	1178.531	934.900
287.687	23.915	1177.768	934.557
288.701	23.880	1177.073	933.741
289.716	23.953	1176.600	933.666
290.730	23.923	1175.784	932.776
291.745	23.930	1175.372	932.403
292.760	23.756	1175.079	931.177
293.774	23.948	1174.178	931.384
294.789	23.975	1173.768	931.119
295.803	23.944	1173.065	930.318
296.818	23.898	1172.299	929.387
297.833	24.054	1171.123	929.186
298.847	24.028	1170.829	928.734
299.862	23.978	1170.328	927.998
300.876	24.088	1169.693	927.981
301.891	24.112	1168.759	927.283
302.906	24.074	1168.315	926.652
303.920	24.071	1167.772	926.126
304.935	24.069	1166.980	925.403
305.949	23.961	1166.300	924.225
306.964	24.106	1165.649	924.376
307.979	24.056	1165.187	923.670
308.993	23.914	1164.677	922.447
310.008	24.072	1163.984	922.636
311.022	24.065	1163.322	921.993
312.037	24.155	1161.967	921.304
313.052	24.114	1161.227	920.423
314.066	24.192	1160.281	919.994
315.081	24.142	1159.799	919.275
316.095	24.005	1159.602	918.329
317.110	24.086	1159.003	918.189
318.125	24.204	1157.923	917.861
319.139	24.164	1157.478	917.220
320.154	24.143	1156.486	916.248
321.168	24.132	1156.293	915.956
322.183	24.138	1155.699	915.437
323.197	24.165	1154.992	914.932
324.212	24.138	1154.606	914.405
325.227	24.325	1153.795	914.646
326.241	24.324	1153.413	914.256
327.256	24.232	1152.878	913.279
328.270	24.268	1151.714	912.461
329.285	24.288	1151.022	911.935
330.300	24.286	1150.120	911.125
331.314	24.252	1149.596	910.459
332.329	24.256	1148.565	909.580
333.343	24.419	1148.053	909.926
334.358	24.227	1147.209	908.197
335.373	24.396	1146.413	908.351
336.387	24.361	1145.865	907.654
337.402	24.335	1145.266	906.969
338.416	24.399	1144.393	906.522
339.431	24.429	1143.885	906.195
340.446	24.406	1143.452	905.652
341.460	24.445	1142.692	905.170
342.475	24.508	1141.399	904.384
343.489	24.515	1140.895	903.939
344.504	24.499	1139.952	903.029
345.519	24.495	1139.027	902.197
346.533	24.466	1138.369	901.449
347.548	24.541	1137.688	901.209
348.562	24.635	1136.791	900.894
349.577	24.492	1136.594	899.935
350.592	24.405	1135.930	898.895
351.606	24.373	1134.984	897.906
352.621	24.515	1134.315	898.010
353.635	24.574	1133.959	897.944
354.650	24.599	1133.116	897.322
355.665	24.616	1132.549	896.881
356.679	24.595	1131.779	896.088
357.694	24.584	1131.324	895.591
358.708	24.560	1130.567	894.794
359.723	24.614	1129.981	894.521
360.738	24.643	1129.406	894.130
361.752	24.590	1128.761	893.278
362.767	24.715	1127.972	893.198
363.781	24.718	1127.755	892.962
364.796	24.693	1126.865	892.053
365.810	24.730	1126.285	891.698
366.825	24.712	1125.700	891.068
367.840	24.725	1125.494	890.890
368.854	24.861	1124.697	890.857
369.869	24.780	1124.123	889.920
370.883	24.799	1123.038	889.079
371.898	24.779	1122.847	888.751
372.913	24.673	1122.027	887.495
373.927	24.700	1121.744	887.326
374.942	24.810	1121.063	887.253
375.956	24.761	1120.610	886.574
376.971	24.785	1120.206	886.294
377.986	24.832	1119.517	885.902
379.000	24.780	1119.084	885.227
380.015	24.939	1118.438	885.422
381.029	24.840	1117.772	884.327
382.044	24.888	1116.935	883.825
383.059	24.934	1116.512	883.637
384.073	24.909	1115.854	882.917
385.088	24.897	1114.778	881.930
386.102	24.888	1114.205	881.350
387.117	25.100	1112.629	881.071
388.132	24.953	1112.107	879.856
389.146	24.897	1112.027	879.439
390.161	24.848	1111.436	878.657
391.175	24.990	1110.480	878.519
392.190	25.009	1109.972	878.133
393.205	25.021	1108.881	877.247
394.219	25.000	1108.445	876.722
395.234	25.023	1107.468	875.985
396.248	25.097	1106.587	875.571
397.263	25.127	1105.698	874.938
398.278	25.148	1105.389	874.717
399.292	25.058	1104.874	873.797
400.307	25.079	1104.372	873.423
401.321	25.166	1103.268	872.896
402.336	25.068	1102.785	871.961
403.350	25.301	1101.898	872.312
404.365	25.262	1101.125	871.435
405.380	25.145	1100.927	870.636
406.394	25.187	1100.247	870.221
407.409	25.193	1099.450	869.544
408.423	25.214	1098.979	869.195
409.438	25.294	1097.903	868.656
410.453	25.242	1097.320	867.867
411.467	25.258	1096.336	867.088
412.482	25.346	1095.979	867.153
413.496	25.302	1095.165	866.222
414.511	25.296	1094.644	865.704
415.526	25.279	1094.169	865.171
416.540	25.216	1093.694	864.412
417.555	25.296	1092.776	863.995
418.569	25.298	1092.743	863.905
419.584	25.290	1092.418	863.529
420.599	25.362	1091.897	863.389
421.613	147.465	1404.184	1798.808
422.628	136.446	1449.674	1798.908
