DTS Sentinel unit serial number:	SN413079Multiplexer serial number:	ORYXHardware model number:	OX4-SRSoftware version number:	ORYX F/W v4.00 Oryx Data Collector v3.7.2.0data status	okinstallation	princeton_trtdifferential loss correction	single-endedforward channel	channel 2reverse channel	N/Adate	2019/09/13time	20:19:35forward acquisition time	60.00reverse acquisition time	0.00gamma	496.2192k internal	0.2333k external	0.2333temperature offset calibration	1.0129default loss term (dB/km)	0.3790temperature slope calibration	1.0000multiplexer offset coefficient	1.0000multiplexer slope coefficient	1.0000fibre end	0.00T internal ref (°C)	29.31T ext. ref 1 (°C)	3.20T ext. ref 2 (°C)	23.84length (m)	temperature (°C)	Stokes	anti-Stokes-747.200	78.428	0.113	-0.122
-746.185	482.152	-0.044	-0.100
-745.171	-36.676	-0.220	0.119
-744.156	-200.000	-0.008	0.331
-743.142	107.721	-0.139	0.167
-742.127	-84.732	0.303	0.096
-741.112	125.315	0.267	-0.339
-740.098	800.000	-0.085	0.304
-739.083	89.628	0.097	-0.109
-738.069	210.444	-0.175	0.276
-737.054	-25.346	-0.124	0.073
-736.039	-125.355	-0.095	0.015
-735.025	62.354	0.114	-0.114
-734.010	-153.791	0.232	0.016
-732.996	66.268	-0.216	0.221
-731.981	-200.000	0.032	-0.281
-730.966	55.323	-0.015	0.014
-729.952	26.547	-0.080	0.067
-728.937	800.000	0.081	-0.325
-727.923	-200.000	0.017	0.198
-726.908	-132.047	0.257	-0.034
-725.894	-76.509	-0.128	-0.045
-724.879	550.867	-0.164	-0.394
-723.864	-200.000	-0.042	-0.405
-722.850	209.560	0.245	0.386
-721.835	-102.589	0.142	-0.034
-720.821	296.739	0.040	-0.073
-719.806	-200.000	-0.013	-0.319
-718.791	-32.440	0.100	-0.056
-717.777	-111.699	0.211	-0.043
-716.762	148.504	0.128	-0.174
-715.748	-51.740	0.221	0.104
-714.733	-114.058	0.301	0.058
-713.718	-169.431	-0.108	0.004
-712.704	160.187	0.049	0.068
-711.689	-200.000	-0.045	-0.374
-710.675	-102.551	0.125	-0.030
-709.660	2.004	-0.125	0.091
-708.645	-32.474	0.141	-0.079
-707.631	779.011	0.113	-0.311
-706.616	-130.115	-0.453	0.062
-705.602	45.382	0.149	-0.138
-704.587	73.935	0.091	-0.096
-703.572	-135.018	0.323	-0.039
-702.558	185.341	-0.264	-0.394
-701.543	-45.714	-0.183	0.091
-700.529	56.905	0.144	-0.140
-699.514	800.000	0.025	-0.080
-698.499	-40.101	0.103	0.054
-697.485	95.899	-0.202	-0.232
-696.470	80.356	0.051	-0.055
-695.456	-200.000	-0.001	0.095
-694.441	-200.000	0.002	0.050
-693.426	-200.000	0.079	0.349
-692.412	92.939	0.285	-0.323
-691.397	729.430	-0.123	-0.329
-690.383	91.592	-0.057	0.064
-689.368	800.000	0.075	0.281
-688.354	157.427	-0.022	-0.030
-687.339	-126.714	0.178	0.026
-686.324	800.000	-0.076	0.252
-685.310	719.359	-0.144	0.384
-684.295	-36.660	-0.206	-0.111
-683.281	-39.125	0.144	-0.076
-682.266	46.238	0.085	-0.079
-681.251	-200.000	-0.030	0.241
-680.237	-128.570	0.176	0.025
-679.222	-101.568	-0.388	0.095
-678.208	-200.000	-0.016	0.089
-677.193	119.476	-0.253	-0.314
-676.178	158.366	-0.105	-0.146
-675.164	-200.000	-0.004	0.234
-674.149	501.142	-0.113	-0.262
-673.135	-144.102	-0.139	0.013
-672.120	-200.000	0.027	-0.322
-671.105	780.270	-0.110	-0.302
-670.091	778.631	-0.050	-0.138
-669.076	-85.004	0.410	0.129
-668.062	-150.082	-0.383	0.030
-667.047	374.033	-0.197	-0.402
-666.032	800.000	0.087	-0.340
-665.018	-191.625	-0.226	-0.002
-664.003	9.608	0.048	0.036
-662.989	-105.461	0.279	-0.064
-661.974	68.589	-0.198	-0.203
-660.959	141.102	0.043	0.056
-659.945	-126.467	-0.112	0.017
-658.930	622.702	-0.025	-0.062
-657.916	-200.000	-0.027	0.134
-656.901	-117.305	0.115	0.021
-655.886	-200.000	0.037	-0.179
-654.872	800.000	-0.117	-0.364
-653.857	527.395	0.056	-0.133
-652.843	689.435	-0.129	-0.338
-651.828	159.932	-0.081	-0.114
-650.814	508.185	-0.092	0.215
-649.799	800.000	-0.037	-0.144
-648.784	800.000	-0.085	-0.246
-647.770	48.082	-0.060	-0.056
-646.755	209.044	-0.063	0.099
-645.741	593.314	0.022	0.055
-644.726	39.995	-0.166	0.149
-643.711	-83.858	0.099	0.032
-642.697	-200.000	-0.038	-0.187
-641.682	-200.000	-0.011	0.073
-640.668	-145.723	-0.229	-0.020
-639.653	-200.000	0.011	-0.277
-638.638	-200.000	0.006	-0.160
-637.624	-133.104	-0.260	-0.033
-636.609	-39.792	0.078	0.041
-635.595	-200.000	0.042	0.211
-634.580	212.228	-0.099	0.156
-633.565	-25.257	-0.431	-0.255
-632.551	10.595	-0.284	0.217
-631.536	-20.602	0.185	0.114
-630.522	120.547	0.080	-0.100
-629.507	-108.833	0.422	-0.090
-628.492	-41.338	-0.269	0.138
-627.478	-64.874	0.135	-0.055
-626.463	-200.000	-0.007	0.285
-625.449	-139.595	0.324	-0.035
-624.434	68.935	-0.127	0.131
-623.419	-200.000	-0.065	0.497
-622.405	63.243	0.219	0.220
-621.390	-15.709	-0.183	0.117
-620.376	-46.669	-0.190	0.093
-619.361	117.879	-0.111	-0.137
-618.346	-106.166	-0.355	-0.080
-617.332	800.000	-0.116	-0.367
-616.317	-62.179	-0.285	-0.119
-615.303	-148.350	0.347	-0.029
-614.288	-78.322	-0.360	0.124
-613.273	93.684	0.121	0.137
-612.259	-148.960	0.247	-0.020
-611.244	-200.000	0.004	-0.067
-610.230	197.790	-0.215	0.329
-609.215	-130.539	0.179	0.024
-608.201	261.399	-0.083	-0.144
-607.186	-200.000	-0.002	0.265
-606.171	-46.641	0.072	0.035
-605.157	-200.000	0.006	-0.064
-604.142	117.842	0.066	-0.081
-603.128	-200.000	-0.048	0.255
-602.113	-133.148	-0.127	0.016
-601.098	-200.000	-0.074	0.430
-600.084	-200.000	-0.033	0.175
-599.069	-83.065	0.281	0.091
-598.055	147.412	-0.071	0.096
-597.040	-104.292	-0.398	0.092
-596.025	91.127	-0.115	-0.129
-595.011	418.379	-0.127	-0.271
-593.996	800.000	0.121	-0.445
-592.982	-176.730	-0.224	-0.006
-591.967	155.202	0.046	0.064
-590.952	47.782	0.089	-0.083
-589.938	-109.395	0.403	0.085
-588.923	-37.003	0.147	-0.079
-587.909	168.775	0.100	0.142
-586.894	-7.154	0.224	-0.152
-585.879	-125.178	-0.210	-0.032
-584.865	-200.000	0.041	-0.267
-583.850	242.992	0.154	-0.259
-582.836	-0.990	0.109	-0.077
-581.821	5.012	0.052	0.039
-580.806	-167.424	0.187	-0.007
-579.792	-6.560	0.096	-0.065
-578.777	-107.374	-0.160	0.035
-577.763	-146.369	0.214	-0.019
-576.748	-61.104	-0.298	0.126
-575.733	163.531	-0.078	-0.109
-574.719	-197.544	-0.226	0.001
-573.704	-22.656	-0.217	0.131
-572.690	-62.594	-0.017	-0.007
-571.675	-66.201	0.218	-0.087
-570.661	44.395	-0.200	-0.183
-569.646	152.569	-0.092	0.126
-568.631	-118.450	0.174	0.031
-567.617	91.970	0.124	0.139
-566.602	-29.034	0.086	-0.049
-565.588	151.315	-0.129	-0.176
-564.573	-91.076	0.321	0.092
-563.558	-2.622	-0.383	-0.268
-562.544	-200.000	0.028	-0.212
-561.529	17.024	0.161	-0.128
-560.515	7.115	-0.120	-0.089
-559.500	526.545	0.148	0.348
-558.485	-36.905	0.357	-0.191
-557.471	-114.897	0.109	0.021
-556.456	-200.000	0.030	0.336
-555.442	-32.890	-0.196	0.109
-554.427	-200.000	0.005	-0.098
-553.412	-97.207	-0.360	0.094
-552.398	109.976	0.157	-0.188
-551.383	1.462	-0.164	0.118
-550.369	-39.255	-0.167	-0.087
-549.354	465.024	0.070	0.157
-548.339	-0.665	0.182	-0.129
-547.325	-25.984	0.373	-0.219
-546.310	-11.424	-0.154	-0.101
-545.296	-46.256	-0.011	-0.005
-544.281	-79.034	-0.165	-0.056
-543.266	-106.278	0.346	0.077
-542.252	-100.623	0.363	0.089
-541.237	-200.000	0.002	-0.108
-540.223	3.229	0.123	-0.089
-539.208	-200.000	-0.070	-0.347
-538.193	-125.177	-0.206	0.032
-537.179	43.065	-0.029	0.027
-536.164	32.258	0.035	-0.030
-535.150	224.058	0.079	0.127
-534.135	-200.000	-0.005	0.097
-533.121	-6.022	0.416	0.284
-532.106	80.622	0.031	-0.034
-531.091	21.833	0.094	-0.077
-530.077	800.000	-0.050	-0.195
-529.062	46.186	0.134	-0.124
-528.048	-147.729	-0.186	-0.016
-527.033	268.100	0.067	-0.117
-526.018	-200.000	0.037	0.212
-525.004	137.571	0.099	-0.129
-523.989	-200.000	-0.064	0.387
-522.975	800.000	0.065	0.202
-521.960	-200.000	0.025	-0.221
-520.945	-1.334	0.195	-0.137
-519.931	-181.654	-0.343	-0.007
-518.916	-200.000	0.050	-0.343
-517.902	-200.000	0.027	-0.314
-516.887	-74.317	0.347	0.125
-515.872	-9.279	-0.349	0.233
-514.858	357.349	0.041	-0.081
-513.843	-69.142	0.098	0.038
-512.829	800.000	0.089	0.253
-511.814	-144.464	0.468	0.043
-510.799	-200.000	0.055	-0.429
-509.785	-79.240	0.120	-0.041
-508.770	7.896	-0.169	-0.126
-507.756	-59.112	0.369	-0.158
-506.741	-58.639	-0.234	0.101
-505.726	42.665	-0.012	0.011
-504.712	-123.200	0.395	0.063
-503.697	800.000	-0.036	-0.154
-502.683	-191.765	0.139	-0.001
-501.668	312.397	-0.140	0.262
-500.653	-14.113	0.164	-0.106
-499.639	-200.000	0.066	0.440
-498.624	800.000	0.036	-0.106
-497.610	44.731	-0.291	0.266
-496.595	-41.630	-0.042	-0.022
-495.581	-200.000	-0.002	-0.399
-494.566	15.393	0.293	-0.229
-493.551	-75.024	0.249	0.089
-492.537	-200.000	-0.006	0.210
-491.522	32.814	-0.161	0.138
-490.508	-147.984	0.216	0.018
-489.493	97.496	-0.107	0.122
-488.478	-94.859	-0.466	-0.126
-487.464	-200.000	-0.024	-0.249
-486.449	-119.950	-0.168	-0.029
-485.435	441.265	-0.071	0.155
-484.420	-172.676	0.213	0.007
-483.405	-78.803	-0.098	0.033
-482.391	388.111	-0.132	-0.273
-481.376	-152.895	0.172	0.012
-480.362	-120.418	-0.319	-0.054
-479.347	-200.000	0.007	0.179
-478.332	-42.542	0.120	0.061
-477.318	69.479	0.209	0.214
-476.303	410.199	0.150	-0.317
-475.289	-200.000	-0.001	0.265
-474.274	22.780	0.222	0.181
-473.259	-90.658	-0.355	0.102
-472.245	120.453	0.122	0.150
-471.230	-200.000	0.029	0.137
-470.216	212.895	-0.105	-0.164
-469.201	23.651	0.187	-0.153
-468.186	800.000	-0.075	0.302
-467.172	-90.901	-0.235	0.067
-466.157	144.551	-0.147	-0.195
-465.143	24.244	0.111	-0.091
-464.128	96.096	0.198	-0.226
-463.113	800.000	0.032	0.094
-462.099	-200.000	0.026	-0.225
-461.084	-89.047	0.106	0.031
-460.070	-200.000	0.041	-0.242
-459.055	67.052	0.098	-0.099
-458.040	-136.264	0.137	-0.016
-457.026	-134.501	-0.231	0.028
-456.011	-200.000	-0.003	0.041
-454.997	-88.141	0.153	0.046
-453.982	224.535	0.072	-0.116
-452.968	72.035	-0.208	-0.215
-451.953	12.473	0.203	-0.156
-450.938	-58.949	-0.333	0.143
-449.924	19.622	0.130	-0.104
-448.909	444.074	0.123	-0.269
-447.895	33.616	0.341	-0.295
-446.880	-116.642	-0.108	-0.020
-445.865	-200.000	0.031	0.165
-444.851	184.327	-0.162	-0.238
-443.836	11.500	-0.147	-0.112
-442.822	75.521	-0.128	0.134
-441.807	500.936	-0.053	0.121
-440.792	73.691	-0.185	0.192
-439.778	7.185	-0.215	-0.160
-438.763	-31.692	-0.245	-0.136
-437.749	26.812	0.185	-0.154
-436.734	-200.000	0.025	-0.190
-435.719	-126.033	-0.149	0.022
-434.705	-17.614	0.247	0.154
-433.690	236.578	0.066	0.109
-432.676	280.880	-0.126	0.224
-431.661	-122.274	-0.204	0.033
-430.646	5.851	0.108	0.080
-429.632	-154.026	-0.396	-0.027
-428.617	211.438	0.086	-0.134
-427.603	-29.999	-0.345	-0.195
-426.588	-200.000	0.003	0.071
-425.573	-85.899	-0.180	-0.055
-424.559	226.286	0.052	0.084
-423.544	-200.000	0.008	-0.099
-422.530	-108.758	0.235	-0.050
-421.515	106.798	-0.216	0.255
-420.500	235.742	-0.197	-0.323
-419.486	175.637	0.140	-0.201
-418.471	-200.000	0.029	0.169
-417.457	-61.079	0.030	-0.013
-416.442	-104.956	0.195	-0.044
-415.428	800.000	0.029	0.085
-414.413	-56.049	0.170	0.075
-413.398	-200.000	0.006	-0.136
-412.384	-18.738	0.206	-0.127
-411.369	-22.429	-0.247	-0.148
-410.355	-101.587	0.294	-0.071
-409.340	-85.259	0.199	0.062
-408.325	-63.226	-0.153	-0.063
-407.311	2.835	-0.189	-0.136
-406.296	800.000	0.091	0.290
-405.282	29.623	0.195	-0.165
-404.267	-23.659	-0.049	0.029
-403.252	361.416	-0.116	0.230
-402.238	800.000	0.005	-0.018
-401.223	-70.259	-0.433	0.163
-400.209	-82.511	-0.179	-0.058
-399.194	613.737	-0.057	-0.141
-398.179	-68.140	-0.237	-0.092
-397.165	293.826	-0.115	-0.208
-396.150	-10.952	0.436	0.285
-395.136	-190.731	-0.250	0.003
-394.121	32.189	0.141	-0.121
-393.106	305.413	0.169	0.312
-392.092	-9.292	0.376	0.249
-391.077	-200.000	-0.014	-0.210
-390.063	19.993	0.172	-0.137
-389.048	18.134	0.256	-0.203
-388.033	10.277	0.090	-0.068
-387.019	-79.951	-0.193	-0.064
-386.004	-110.547	-0.203	0.042
-384.990	187.604	0.171	-0.252
-383.975	180.802	0.080	-0.116
-382.960	-102.501	0.176	0.042
-381.946	-74.052	0.307	0.110
-380.931	-46.789	0.177	0.086
-379.917	-200.000	0.010	0.242
-378.902	223.932	-0.168	0.270
-377.888	800.000	-0.068	-0.223
-376.873	55.275	0.090	-0.086
-375.858	-10.114	0.089	-0.059
-374.844	149.745	-0.338	-0.454
-373.829	316.981	-0.046	-0.087
-372.815	286.787	0.105	0.188
-371.800	59.911	0.162	-0.159
-370.785	-5.393	-0.179	0.122
-369.771	32.544	0.301	-0.258
-368.756	-67.282	-0.269	0.105
-367.742	33.167	-0.258	-0.221
-366.727	-76.630	-0.093	0.032
-365.712	-134.346	-0.080	-0.010
-364.698	26.009	-0.109	-0.090
-363.683	800.000	0.062	0.194
-362.669	-200.000	0.048	-0.287
-361.654	-13.479	0.078	-0.050
-360.639	-5.440	0.159	0.108
-359.625	-76.266	0.130	0.045
-358.610	119.912	-0.182	-0.223
-357.596	800.000	-0.032	0.093
-356.581	-120.529	-0.116	-0.019
-355.566	-200.000	0.104	0.508
-354.552	19.078	0.238	-0.189
-353.537	500.359	-0.027	-0.061
-352.523	-200.000	-0.056	0.420
-351.508	15.088	-0.224	0.174
-350.493	-182.018	-0.347	0.006
-349.479	-200.000	0.010	0.165
-348.464	800.000	0.047	-0.153
-347.450	-200.000	0.082	0.000
-346.435	-19.291	0.090	-0.055
-345.420	-89.367	0.041	-0.012
-344.406	117.203	0.088	0.107
-343.391	-153.913	0.383	0.026
-342.377	-200.000	0.014	0.137
-341.362	-41.079	0.141	-0.072
-340.348	-19.886	0.323	0.198
-339.333	221.935	0.149	-0.238
-338.318	-110.031	0.134	-0.028
-337.304	217.552	0.085	0.134
-336.289	-27.201	-0.384	0.222
-335.275	800.000	0.029	-0.089
-334.260	434.228	0.062	0.132
-333.245	-75.690	-0.112	-0.039
-332.231	-61.936	-0.224	-0.093
-331.216	257.362	-0.095	0.161
-330.202	-200.000	0.021	-0.175
-329.187	-108.924	-0.309	-0.065
-328.172	181.027	0.087	0.126
-327.158	-5.902	-0.189	-0.128
-326.143	155.035	-0.111	0.151
-325.129	-200.000	0.007	-0.195
-324.114	83.398	-0.041	-0.044
-323.099	352.614	-0.128	-0.252
-322.085	-127.752	0.178	0.025
-321.070	43.423	0.146	0.132
-320.056	-200.000	-0.043	-0.307
-319.041	800.000	0.090	0.256
-318.026	444.512	-0.090	-0.196
-317.012	-72.453	-0.212	-0.078
-315.997	22.716	-0.083	0.067
-314.983	15.122	-0.186	0.144
-313.968	-84.619	0.366	-0.114
-312.953	8.602	0.407	-0.303
-311.939	-200.000	-0.004	0.078
-310.924	800.000	-0.009	0.029
-309.910	800.000	0.108	0.329
-308.895	316.226	-0.111	0.207
-307.880	-73.429	-0.256	0.093
-306.866	145.005	0.164	-0.217
-305.851	-200.000	-0.059	-0.480
-304.837	-200.000	-0.015	-0.269
-303.822	-200.000	0.009	0.188
-302.807	800.000	-0.063	-0.192
-301.793	-200.000	-0.015	-0.166
-300.778	7.501	-0.165	-0.122
-299.764	172.170	0.050	0.071
-298.749	-192.570	0.153	0.001
-297.735	480.727	-0.115	-0.257
-296.720	214.824	0.063	0.099
-295.705	-140.843	0.334	-0.034
-294.691	-200.000	0.007	-0.153
-293.676	186.393	0.051	0.074
-292.662	677.526	-0.099	0.253
-291.647	-107.260	-0.048	0.011
-290.632	-200.000	0.006	-0.099
-289.618	8.661	-0.043	0.032
-288.603	67.429	0.050	-0.050
-287.589	-45.607	0.132	-0.065
-286.574	390.847	-0.057	-0.118
-285.559	800.000	0.071	-0.238
-284.545	-200.000	-0.027	0.206
-283.530	-11.944	-0.253	-0.164
-282.516	-200.000	0.025	-0.184
-281.501	1.483	-0.230	0.163
-280.486	389.312	-0.150	0.306
-279.472	800.000	-0.037	0.139
-278.457	-173.763	-0.315	0.009
-277.443	227.128	-0.048	-0.078
-276.428	-200.000	-0.069	-0.358
-275.413	-149.348	0.537	0.042
-274.399	800.000	-0.041	-0.138
-273.384	150.752	0.281	0.376
-272.370	-72.803	0.340	0.123
-271.355	129.421	0.110	-0.139
-270.340	-122.607	-0.097	0.015
-269.326	-93.626	0.105	0.029
-268.311	104.829	0.146	0.169
-267.297	46.897	-0.293	0.268
-266.282	243.218	0.139	-0.231
-265.267	106.612	0.212	0.248
-264.253	-22.090	-0.117	-0.070
-263.238	-200.000	0.000	-0.033
-262.224	274.700	0.286	-0.499
-261.209	800.000	-0.013	-0.057
-260.195	-35.919	-0.237	-0.126
-259.180	-200.000	0.073	-0.365
-258.165	77.094	-0.315	-0.330
-257.151	123.316	0.046	-0.057
-256.136	236.032	0.204	-0.333
-255.122	-200.000	0.006	-0.046
-254.107	-117.482	-0.280	0.050
-253.092	-40.377	-0.309	0.158
-252.078	-11.023	-0.165	-0.107
-251.063	122.255	-0.118	0.146
-250.049	224.204	-0.266	0.424
-249.034	-6.514	0.350	0.235
-248.019	-200.000	-0.023	-0.149
-247.005	81.750	0.219	0.234
-245.990	624.606	0.075	-0.186
-244.976	126.533	0.074	0.093
-243.961	-141.514	0.063	0.006
-242.946	105.859	-0.197	-0.230
-241.932	16.565	0.203	-0.158
-240.917	17.345	-0.180	0.141
-239.903	-93.409	-0.420	-0.115
-238.888	-108.040	-0.291	-0.062
-237.873	141.005	-0.176	0.229
-236.859	-200.000	0.004	0.244
-235.844	54.073	-0.028	0.026
-234.830	-200.000	-0.004	0.244
-233.815	90.943	0.181	0.200
-232.800	-149.074	-0.281	0.022
-231.786	-69.145	0.225	0.085
-230.771	-200.000	-0.001	-0.098
-229.757	-85.917	-0.212	-0.065
-228.742	-81.849	0.073	0.024
-227.727	-54.779	-0.178	0.079
-226.713	-200.000	0.013	0.371
-225.698	-38.221	-0.265	0.139
-224.684	16.823	0.074	0.058
-223.669	-43.948	0.128	0.064
-222.655	-200.000	-0.063	0.351
-221.640	409.685	0.115	0.241
-220.625	318.128	0.106	0.198
-219.611	-200.000	0.030	-0.258
-218.596	-200.000	-0.022	-0.158
-217.582	16.710	-0.133	0.103
-216.567	9.294	0.284	0.212
-215.552	96.276	-0.224	0.253
-214.538	-43.158	0.315	0.157
-213.523	-144.688	0.063	0.006
-212.509	-200.000	-0.047	-0.246
-211.494	-200.000	0.027	0.127
-210.479	-200.000	-0.017	0.244
-209.465	-101.116	0.093	0.022
-208.450	194.977	0.187	0.279
-207.436	-200.000	-0.032	0.258
-206.421	14.049	0.140	0.107
-205.406	-71.284	0.242	0.089
-204.392	107.095	-0.158	0.185
-203.377	-140.618	-0.262	0.027
-202.363	-200.000	0.002	-0.162
-201.348	-24.833	-0.123	-0.072
-200.333	90.634	0.081	-0.089
-199.319	-3.922	0.185	0.127
-198.304	-21.424	-0.128	0.077
-197.290	181.504	-0.204	0.296
-196.275	47.984	-0.125	-0.115
-195.260	43.691	0.203	-0.183
-194.246	129.167	0.127	0.159
-193.231	-200.000	-0.000	-0.056
-192.217	-200.000	-0.031	0.355
-191.202	-1.798	0.255	0.177
-190.187	800.000	0.054	0.203
-189.173	-200.000	-0.020	0.306
-188.158	184.529	-0.183	-0.266
-187.144	171.917	-0.106	0.150
-186.129	-151.669	-0.105	-0.008
-185.114	800.000	0.017	0.053
-184.100	590.605	-0.072	0.174
-183.085	152.638	-0.172	0.231
-182.071	112.010	0.354	0.421
-181.056	32.951	0.012	0.011
-180.042	443.316	-0.019	-0.041
-179.027	2.206	-0.141	0.100
-178.012	77.528	0.247	-0.258
-176.998	40.133	0.099	0.088
-175.983	-5.363	0.145	0.098
-174.969	-200.000	0.026	-0.384
-173.954	-200.000	-0.028	-0.195
-172.939	-38.132	-0.237	-0.123
-171.925	145.838	-0.046	-0.061
-170.910	94.709	0.173	0.193
-169.896	-200.000	0.002	0.020
-168.881	-158.125	-0.521	0.030
-167.866	-134.049	-0.334	-0.041
-166.852	711.212	-0.059	-0.154
-165.837	-200.000	0.020	0.172
-164.823	-200.000	-0.003	-0.115
-163.808	-56.353	0.075	-0.033
-162.793	-37.067	0.251	-0.132
-161.779	-200.000	-0.002	-0.059
-160.764	-175.271	0.222	0.006
-159.750	398.819	0.091	0.186
-158.735	-147.543	-0.323	-0.027
-157.720	-78.330	0.245	0.083
-156.706	266.349	-0.138	-0.238
-155.691	-43.012	-0.147	0.073
-154.677	-60.635	0.168	0.070
-153.662	-200.000	0.036	-0.363
-152.647	-48.573	-0.348	0.165
-151.633	45.867	-0.108	-0.098
-150.618	-150.003	-0.390	-0.030
-149.604	-66.858	0.252	0.098
-148.589	-41.780	-0.049	0.025
-147.574	-200.000	0.022	-0.183
-146.560	-200.000	-0.020	0.192
-145.545	-56.581	-0.359	0.156
-144.531	-200.000	-0.023	0.125
-143.516	268.581	-0.145	0.249
-142.502	800.000	0.073	0.240
-141.487	-40.174	-0.259	0.133
-140.472	-51.321	-0.136	0.062
-139.458	86.682	0.354	0.384
-138.443	7.854	-0.218	0.160
-137.429	-83.277	-0.184	-0.058
-136.414	15.764	-0.018	-0.014
-135.399	-200.000	-0.120	0.528
-134.385	-127.655	0.103	0.015
-133.370	-91.093	-0.047	0.013
-132.356	28.259	-0.262	0.217
-131.341	257.704	0.106	0.179
-130.326	71.065	-0.164	0.166
-129.312	176.666	0.325	0.464
-128.297	-48.041	-0.102	-0.048
-127.283	-200.000	-0.038	0.215
-126.268	-82.840	-0.123	-0.039
-125.253	-171.130	0.222	0.007
-124.239	-87.606	0.105	-0.031
-123.224	387.219	0.061	-0.123
-122.210	-157.258	-0.016	0.001
-121.195	398.105	-0.197	0.404
-120.180	800.000	-0.053	0.192
-119.166	111.380	-0.162	0.192
-118.151	-38.255	0.235	0.122
-117.137	-58.073	-0.360	-0.154
-116.122	-36.860	0.258	0.136
-115.107	-200.000	-0.002	0.110
-114.093	-200.000	-0.022	-0.111
-113.078	-146.224	0.158	0.014
-112.064	-32.289	0.135	0.074
-111.049	800.000	0.089	0.266
-110.034	83.154	-0.198	-0.212
-109.020	123.469	-0.173	-0.213
-108.005	800.000	0.039	0.136
-106.991	174.179	-0.093	-0.132
-105.976	69.073	-0.042	0.042
-104.962	-200.000	0.000	-0.062
-103.947	-20.559	-0.173	0.104
-102.932	161.827	-0.214	0.293
-101.918	-200.000	-0.025	0.245
-100.903	93.948	0.086	-0.096
-99.889	595.338	-0.053	-0.129
-98.874	419.652	-0.166	-0.349
-97.859	-60.340	-0.442	0.184
-96.845	-70.531	0.475	-0.176
-95.830	17.112	-0.216	-0.168
-94.816	800.000	0.018	-0.061
-93.801	-101.366	0.293	-0.070
-92.786	800.000	-0.110	0.365
-91.772	800.000	0.042	0.178
-90.757	800.000	0.045	-0.179
-89.743	-19.418	-0.270	-0.164
-88.728	245.369	0.187	0.308
-87.713	-12.107	0.049	-0.032
-86.699	483.329	-0.028	-0.063
-85.684	-114.746	0.257	0.048
-84.670	-200.000	0.005	-0.131
-83.655	-200.000	-0.042	-0.433
-82.640	-60.370	-0.485	0.202
-81.626	-176.926	0.212	0.005
-80.611	-150.221	0.272	0.021
-79.597	800.000	0.082	0.263
-78.582	70.008	0.080	-0.081
-77.567	-150.917	0.173	-0.013
-76.553	28.913	0.152	0.126
-75.538	-20.980	0.090	0.054
-74.524	181.208	0.169	0.244
-73.509	-103.203	0.342	-0.079
-72.494	-145.103	0.284	0.025
-71.480	178.921	-0.087	-0.125
-70.465	255.476	-0.075	0.126
-69.451	87.041	-0.031	-0.034
-68.436	134.403	0.152	0.194
-67.422	800.000	0.046	-0.165
-66.407	-37.067	0.174	0.091
-65.392	590.781	-0.062	-0.150
-64.378	660.337	-0.098	0.247
-63.363	-107.779	0.045	0.010
-62.349	-91.666	0.262	0.073
-61.334	3.244	-1.017	-0.724
-60.319	326.969	0.404	0.757
-59.305	-200.000	-0.158	-0.969
-58.290	195.689	0.876	1.303
-57.276	800.000	0.414	1.697
-56.261	-200.000	110.614	628.292
-55.246	524.205	1508.271	3471.544
-54.232	177.068	2697.772	3842.710
-53.217	105.367	2282.665	2638.669
-52.203	38.464	1892.415	1650.839
-51.188	32.518	1682.464	1422.872
-50.173	29.953	1640.079	1368.045
-49.159	49.594	1695.656	1562.514
-48.144	49.672	1710.876	1577.063
-47.130	32.072	1667.643	1406.769
-46.115	29.445	1652.730	1374.596
-45.100	29.162	1648.377	1368.819
-44.086	29.191	1645.262	1366.388
-43.071	29.175	1642.359	1363.811
-42.057	29.103	1640.155	1361.389
-41.042	29.158	1638.255	1360.164
-40.027	29.275	1635.750	1358.899
-39.013	29.142	1634.331	1356.687
-37.998	29.216	1632.500	1355.656
-36.984	29.218	1631.749	1354.992
-35.969	29.265	1630.097	1353.915
-34.954	29.362	1628.146	1352.948
-33.940	29.357	1626.778	1351.721
-32.925	29.180	1625.434	1349.252
-31.911	29.309	1623.553	1348.586
-30.896	29.289	1621.856	1346.975
-29.881	29.293	1620.220	1345.594
-28.867	29.289	1618.444	1344.031
-27.852	29.241	1617.297	1342.678
-26.838	29.341	1615.124	1341.547
-25.823	29.244	1614.431	1340.213
-24.809	29.355	1613.076	1339.843
-23.794	29.318	1611.789	1338.449
-22.779	29.315	1610.324	1337.162
-21.765	29.237	1608.616	1335.127
-20.750	29.267	1606.738	1333.727
-19.736	29.387	1605.672	1333.656
-18.721	29.401	1604.039	1332.353
-17.706	29.419	1602.413	1331.075
-16.692	29.415	1601.213	1330.003
-15.677	29.355	1599.724	1328.276
-14.663	29.478	1597.972	1327.657
-13.648	29.356	1597.175	1326.060
-12.633	29.342	1595.317	1324.369
-11.619	29.325	1593.730	1322.878
-10.604	29.326	1592.574	1321.868
-9.590	29.419	1591.459	1321.557
-8.575	29.345	1590.107	1319.856
-7.560	29.394	1588.740	1319.018
-6.546	29.380	1587.657	1317.964
-5.531	29.279	1586.827	1316.502
-4.517	29.322	1585.460	1315.620
-3.502	29.303	1584.135	1314.338
-2.487	29.496	1582.414	1314.231
-1.473	28.848	1571.076	1300.177
-0.458	25.920	1550.976	1263.009
0.556	22.931	1552.012	1228.856
1.571	20.472	1575.265	1229.777
2.586	19.898	1587.837	1235.385
3.600	17.369	1534.386	1176.226
4.615	10.205	1427.135	1047.674
5.629	4.149	1366.410	965.373
6.644	3.295	1358.355	954.307
7.659	3.062	1358.501	952.881
8.673	3.180	1356.822	952.351
9.688	3.283	1354.668	951.391
10.702	3.208	1352.040	948.995
11.717	5.837	1357.067	968.697
12.731	13.428	1371.500	1026.132
13.746	19.647	1380.986	1071.845
14.761	20.631	1382.218	1078.810
15.775	19.854	1380.051	1072.213
16.790	19.012	1377.136	1064.642
17.804	18.179	1374.877	1057.656
18.819	17.949	1373.710	1055.239
19.834	17.786	1372.616	1053.302
20.848	17.602	1371.471	1051.193
21.863	17.342	1370.293	1048.595
22.877	17.282	1369.497	1047.522
23.892	17.308	1368.212	1046.610
24.907	17.234	1367.749	1045.706
25.921	17.181	1366.712	1044.497
26.936	17.238	1365.911	1044.139
27.950	17.290	1364.966	1043.646
28.965	17.388	1363.915	1043.352
29.980	17.605	1362.100	1043.199
30.994	17.487	1361.802	1042.154
32.009	17.533	1361.021	1041.750
33.023	17.507	1359.645	1040.441
34.038	17.384	1358.364	1038.621
35.053	17.322	1356.818	1036.970
36.067	17.434	1355.462	1036.523
37.082	17.472	1354.815	1036.164
38.096	17.407	1354.516	1035.452
39.111	17.559	1352.938	1035.078
40.126	17.384	1352.428	1033.530
41.140	17.243	1350.908	1031.421
42.155	16.969	1350.345	1029.239
43.169	16.937	1350.127	1028.787
44.184	16.961	1349.752	1028.557
45.199	17.023	1349.584	1028.714
46.213	17.116	1348.861	1028.637
47.228	17.280	1348.175	1029.016
48.242	17.356	1347.116	1028.575
49.257	17.289	1345.635	1026.949
50.271	17.318	1344.734	1026.343
51.286	17.416	1342.882	1025.431
52.301	17.414	1341.643	1024.380
53.315	17.319	1340.315	1022.702
54.330	17.199	1339.469	1021.250
55.344	17.087	1337.930	1019.314
56.359	17.010	1337.095	1018.121
57.374	17.053	1335.938	1017.409
58.388	16.971	1335.245	1016.299
59.403	17.011	1335.020	1016.276
60.417	17.005	1334.179	1015.512
61.432	16.862	1332.913	1013.603
62.447	16.886	1331.870	1012.868
63.461	16.809	1330.969	1011.630
64.476	16.749	1330.164	1010.572
65.490	16.758	1328.737	1009.449
66.505	16.855	1326.857	1008.514
67.520	16.839	1326.254	1007.868
68.534	16.958	1324.636	1007.255
69.549	16.858	1323.977	1006.073
70.563	16.767	1322.943	1004.661
71.578	16.736	1321.489	1003.285
72.593	16.787	1320.341	1002.623
73.607	16.711	1319.945	1001.786
74.622	16.617	1319.953	1001.146
75.636	16.642	1318.825	1000.350
76.651	16.681	1318.445	1000.200
77.666	16.736	1317.882	1000.012
78.680	16.791	1317.122	999.674
79.695	16.918	1316.373	999.763
80.709	16.956	1315.656	999.356
81.724	16.984	1315.157	999.049
82.739	17.129	1314.189	999.084
83.753	17.307	1313.203	999.290
84.768	17.354	1312.620	999.034
85.782	17.440	1311.399	998.518
86.797	17.402	1310.628	997.624
87.812	17.303	1308.794	995.560
88.826	17.293	1308.157	994.929
89.841	17.350	1307.092	994.365
90.855	17.406	1305.970	993.748
91.870	17.494	1305.130	993.535
92.884	17.503	1304.290	992.859
93.899	17.537	1303.420	992.304
94.914	17.562	1303.077	992.105
95.928	17.530	1301.902	990.935
96.943	17.410	1301.166	989.592
97.957	17.408	1300.129	988.702
98.972	17.395	1299.185	987.822
99.987	17.411	1298.714	987.468
101.001	17.457	1297.303	986.575
102.016	17.390	1296.254	985.305
103.030	17.489	1295.288	985.053
104.045	17.475	1294.087	983.970
105.060	17.363	1293.085	982.476
106.074	17.194	1291.507	980.216
107.089	16.977	1289.732	977.532
108.103	16.817	1288.879	975.877
109.118	16.816	1287.377	974.646
110.133	16.898	1286.005	973.995
111.147	16.860	1284.847	972.811
112.162	16.901	1283.935	972.272
113.176	16.920	1283.090	971.655
114.191	16.965	1282.126	971.094
115.206	17.072	1280.363	970.285
116.220	16.927	1279.282	968.552
117.235	17.087	1277.762	968.230
118.249	16.955	1277.339	967.071
119.264	17.024	1275.706	966.143
120.279	16.883	1274.808	964.571
121.293	16.807	1273.647	963.174
122.308	16.853	1272.766	962.688
123.322	16.741	1271.800	961.237
124.337	16.701	1270.645	960.050
125.352	16.784	1269.234	959.368
126.366	16.695	1268.593	958.297
127.381	16.731	1267.351	957.478
128.395	16.856	1266.247	957.262
129.410	16.768	1265.450	956.079
130.424	16.794	1264.928	955.747
131.439	16.853	1264.303	955.527
132.454	16.935	1263.049	954.955
133.468	16.996	1262.085	954.486
134.483	16.987	1261.857	954.178
135.497	17.092	1260.509	953.661
136.512	17.086	1259.339	952.658
137.527	17.080	1258.001	951.531
138.541	17.022	1257.351	950.628
139.556	17.219	1255.181	950.004
140.570	17.217	1254.498	949.394
141.585	17.362	1253.363	949.261
142.600	17.288	1252.895	948.406
143.614	17.426	1251.678	948.170
144.629	17.479	1250.940	947.826
145.643	17.407	1249.366	946.147
146.658	17.346	1248.214	944.851
147.673	17.201	1247.035	943.073
148.687	17.171	1245.824	941.904
149.702	17.161	1243.927	940.332
150.716	16.972	1243.249	938.693
151.731	17.042	1242.323	938.298
152.746	17.126	1240.800	937.529
153.760	17.289	1239.587	937.428
154.775	17.253	1238.386	936.235
155.789	17.308	1237.723	935.956
156.804	17.401	1237.061	935.884
157.819	17.341	1235.561	934.339
158.833	17.452	1234.837	934.316
159.848	17.492	1234.724	934.367
160.862	17.399	1233.375	932.756
161.877	17.282	1231.708	930.767
162.892	17.191	1230.264	929.100
163.906	17.160	1229.612	928.355
164.921	17.260	1228.878	928.265
165.935	17.234	1228.492	927.752
166.950	17.277	1227.608	927.235
167.964	17.309	1226.621	926.580
168.979	17.277	1226.216	926.019
169.994	17.245	1225.145	924.956
171.008	17.306	1224.520	924.734
172.023	17.335	1223.979	924.398
173.037	17.525	1223.168	924.738
174.052	17.455	1221.908	923.321
175.067	17.317	1221.008	921.812
176.081	17.100	1219.784	919.632
177.096	17.262	1219.027	919.859
178.110	17.306	1217.852	919.124
179.125	17.332	1216.530	918.186
180.140	17.485	1215.237	917.954
181.154	17.400	1214.574	916.914
182.169	17.399	1213.471	915.996
183.183	17.529	1212.648	915.994
184.198	17.666	1211.096	915.474
185.213	17.669	1210.214	914.747
186.227	17.613	1209.467	913.799
187.242	17.651	1208.181	912.948
188.256	17.778	1207.100	912.734
189.271	17.819	1206.112	912.124
190.286	17.514	1205.428	909.898
191.300	17.119	1204.233	906.802
192.315	17.062	1203.229	905.665
193.329	17.143	1203.210	906.001
194.344	17.303	1202.513	906.249
195.359	17.393	1202.041	906.291
196.373	17.534	1201.455	906.523
197.388	17.534	1201.214	906.260
198.402	17.728	1200.811	906.907
199.417	17.796	1200.056	906.618
200.432	17.943	1199.312	906.758
201.446	18.028	1198.675	906.644
202.461	18.016	1197.464	905.587
203.475	18.123	1196.118	905.054
204.490	17.812	1195.285	902.698
205.504	17.793	1193.918	901.486
206.519	17.782	1192.526	900.299
207.534	17.659	1191.669	898.921
208.548	17.652	1190.918	898.240
209.563	17.626	1189.948	897.288
210.577	17.701	1188.946	896.850
211.592	17.897	1187.843	896.969
212.607	17.907	1187.442	896.637
213.621	17.935	1186.349	895.880
214.636	17.920	1186.113	895.544
215.650	17.888	1184.921	894.400
216.665	18.110	1183.809	894.641
217.680	18.089	1183.538	894.251
218.694	18.208	1182.399	893.932
219.709	18.048	1181.945	892.673
220.723	18.074	1180.669	891.763
221.738	18.058	1179.959	891.067
222.753	18.096	1179.197	890.611
223.767	18.119	1178.713	890.287
224.782	18.178	1178.156	890.094
225.796	18.239	1177.717	889.998
226.811	18.308	1176.677	889.491
227.826	18.122	1175.928	887.884
228.840	18.058	1175.485	887.140
229.855	18.063	1174.517	886.354
230.869	18.049	1173.493	885.429
231.884	17.943	1172.912	884.364
232.899	17.899	1172.512	883.759
233.913	17.926	1171.161	882.802
234.928	17.885	1170.566	882.062
235.942	17.886	1169.577	881.246
236.957	17.829	1168.874	880.345
237.972	17.819	1168.086	879.619
238.986	17.997	1167.037	879.669
240.001	17.865	1166.612	878.591
241.015	17.885	1165.941	878.112
242.030	18.086	1165.078	878.418
243.045	18.042	1164.706	877.832
244.059	18.137	1163.406	877.263
245.074	18.266	1162.847	877.424
246.088	18.275	1162.372	877.036
247.103	18.289	1161.716	876.531
248.117	18.385	1161.119	876.497
249.132	18.498	1160.417	876.467
250.147	18.669	1159.737	876.751
251.161	18.741	1159.024	876.499
252.176	18.792	1158.635	876.388
253.190	18.790	1158.023	875.837
254.205	18.879	1157.483	875.805
255.220	18.878	1156.896	875.278
256.234	19.009	1155.835	875.066
257.249	18.898	1155.335	874.044
258.263	18.843	1154.960	873.404
259.278	18.829	1154.050	872.566
260.293	18.927	1153.063	872.244
261.307	19.004	1153.007	872.510
262.322	18.971	1152.524	871.900
263.336	18.991	1151.719	871.317
264.351	19.120	1151.002	871.354
265.366	19.140	1150.295	870.838
266.380	19.017	1149.690	869.682
267.395	19.007	1148.286	868.495
268.409	18.831	1147.978	867.296
269.424	18.902	1147.203	866.992
270.439	18.837	1146.627	866.152
271.453	18.847	1145.893	865.572
272.468	18.809	1145.003	864.629
273.482	18.763	1143.740	863.372
274.497	18.785	1143.385	863.135
275.512	18.739	1143.043	862.572
276.526	18.808	1141.922	861.992
277.541	18.795	1141.328	861.406
278.555	18.808	1140.856	861.036
279.570	19.049	1140.433	861.848
280.585	19.134	1139.220	861.281
281.599	19.055	1138.473	860.248
282.614	18.996	1137.437	859.089
283.628	18.867	1136.423	857.606
284.643	18.945	1135.441	857.178
285.657	18.935	1134.333	856.214
286.672	18.975	1133.577	855.770
287.687	19.071	1132.780	855.569
288.701	18.946	1132.572	854.712
289.716	19.094	1131.096	854.260
290.730	19.004	1130.856	853.555
291.745	19.178	1129.929	853.643
292.760	19.153	1129.319	852.982
293.774	19.238	1128.871	852.988
294.789	19.187	1128.536	852.408
295.803	19.364	1127.278	852.260
296.818	19.146	1126.749	850.704
297.833	19.200	1125.459	849.922
298.847	19.078	1125.277	849.107
299.862	19.224	1124.268	848.992
300.876	19.239	1123.614	848.499
301.891	19.196	1123.139	847.854
302.906	19.316	1122.620	847.974
303.920	19.395	1121.747	847.626
304.935	19.408	1121.531	847.453
305.949	19.586	1121.007	847.859
306.964	19.557	1120.568	847.308
307.979	19.507	1119.318	846.042
308.993	19.328	1118.789	844.693
310.008	19.543	1118.023	845.090
311.022	19.620	1117.154	844.737
312.037	19.615	1116.365	844.040
313.052	19.445	1115.406	842.409
314.066	19.286	1114.406	840.802
315.081	19.099	1113.870	839.416
316.095	19.199	1112.739	838.973
317.110	19.171	1111.856	838.099
318.125	19.216	1111.382	837.884
319.139	19.316	1110.531	837.653
320.154	19.218	1110.035	836.733
321.168	19.371	1109.178	836.755
322.183	19.262	1108.881	835.927
323.197	19.364	1108.256	835.877
324.212	19.327	1107.747	835.238
325.227	19.295	1107.064	834.494
326.241	19.432	1106.518	834.674
327.256	19.455	1105.142	833.670
328.270	19.381	1104.448	832.716
329.285	19.294	1104.206	832.042
330.300	19.318	1103.240	831.354
331.314	19.359	1101.833	830.421
332.329	19.381	1101.135	829.924
333.343	19.362	1100.137	829.011
334.358	19.481	1099.470	829.007
335.373	19.465	1099.006	828.504
336.387	19.574	1098.189	828.339
337.402	19.577	1097.518	827.772
338.416	19.543	1096.905	827.074
339.431	19.683	1096.179	827.125
340.446	19.783	1095.730	827.189
341.460	19.867	1095.510	827.352
342.475	19.749	1094.503	825.958
343.489	20.038	1093.415	826.442
344.504	20.042	1092.415	825.630
345.519	20.034	1091.569	824.881
346.533	20.019	1091.099	824.379
347.548	20.166	1090.127	824.275
348.562	20.190	1089.166	823.587
349.577	19.916	1088.853	821.977
350.592	19.877	1087.500	820.696
351.606	19.815	1087.015	819.963
352.621	19.767	1086.352	819.166
353.635	19.562	1085.693	817.625
354.650	19.588	1084.819	817.017
355.665	19.757	1083.905	817.054
356.679	19.792	1083.614	816.927
357.694	19.959	1082.969	817.156
358.708	19.992	1082.404	816.816
359.723	19.972	1081.855	816.236
360.738	19.941	1081.208	815.527
361.752	19.989	1080.757	815.344
362.767	20.015	1079.944	814.778
363.781	19.996	1079.230	814.080
364.796	20.145	1078.705	814.311
365.810	20.274	1078.295	814.537
366.825	20.264	1078.031	814.214
367.840	20.473	1077.081	814.407
368.854	20.439	1076.784	813.952
369.869	20.478	1076.411	813.777
370.883	20.389	1075.057	812.269
371.898	20.280	1074.625	811.361
372.913	20.349	1073.459	810.731
373.927	20.424	1072.901	810.585
374.942	20.453	1073.018	810.740
375.956	20.497	1072.034	810.127
376.971	20.488	1071.214	809.396
377.986	20.396	1071.087	808.800
379.000	20.487	1070.842	808.966
380.015	20.575	1070.362	808.943
381.029	20.606	1069.447	808.323
382.044	20.653	1068.426	807.697
383.059	20.499	1068.174	806.720
384.073	20.597	1067.028	806.239
385.088	20.844	1065.615	806.240
386.102	20.675	1065.355	805.193
387.117	20.468	1064.125	803.236
388.132	20.409	1063.154	802.157
389.146	20.342	1062.474	801.264
390.161	20.334	1061.772	800.627
391.175	20.283	1061.275	799.946
392.190	20.472	1060.816	800.402
393.205	20.563	1060.139	800.237
394.219	20.609	1059.186	799.659
395.234	20.404	1058.476	798.112
396.248	20.492	1057.111	797.414
397.263	20.420	1056.581	796.616
398.278	20.392	1055.404	795.527
399.292	20.400	1054.426	794.759
400.307	20.365	1053.716	793.993
401.321	20.350	1053.458	793.658
402.336	20.275	1052.400	792.450
403.350	20.410	1051.876	792.601
404.365	20.354	1051.425	791.935
405.380	20.418	1050.955	791.803
406.394	20.538	1049.974	791.537
407.409	20.627	1049.409	791.449
408.423	20.730	1048.996	791.533
409.438	20.785	1048.448	791.301
410.453	20.792	1048.085	790.988
411.467	20.912	1047.047	790.683
412.482	20.931	1046.340	790.162
413.496	20.911	1045.895	789.666
414.511	20.982	1045.078	789.300
415.526	21.138	1044.901	789.802
416.540	21.298	1044.259	789.970
417.555	21.180	1043.487	788.785
418.569	21.110	1042.863	787.928
419.584	20.984	1042.378	786.921
420.599	21.079	1042.126	787.092
421.613	154.943	1403.537	1796.071
422.628	141.822	1456.150	1796.182
