DTS Sentinel unit serial number:	SN413079Multiplexer serial number:	ORYXHardware model number:	OX4-SRSoftware version number:	ORYX F/W v4.00 Oryx Data Collector v3.7.2.0data status	okinstallation	princeton_trtdifferential loss correction	single-endedforward channel	channel 2reverse channel	N/Adate	2019/09/10time	23:41:10forward acquisition time	60.00reverse acquisition time	0.00gamma	496.2192k internal	0.2331k external	0.2331temperature offset calibration	0.9945default loss term (dB/km)	0.3790temperature slope calibration	1.0000multiplexer offset coefficient	1.0000multiplexer slope coefficient	1.0000fibre end	0.00T internal ref (°C)	29.61T ext. ref 1 (°C)	-0.31T ext. ref 2 (°C)	22.95length (m)	temperature (°C)	Stokes	anti-Stokes-747.200	-200.000	0.041	-0.442
-746.185	-138.541	-0.141	-0.016
-745.171	-62.752	0.372	0.155
-744.156	418.726	-0.139	0.300
-743.142	-200.000	-0.051	0.356
-742.127	33.712	0.066	-0.058
-741.112	-200.000	0.010	0.255
-740.098	170.106	-0.233	0.335
-739.083	74.706	0.278	0.295
-738.069	34.799	-0.348	0.306
-737.054	780.927	-0.084	0.231
-736.039	107.270	-0.190	0.227
-735.025	536.565	0.052	0.125
-734.010	-80.291	-0.207	-0.070
-732.996	-17.333	0.123	0.078
-731.981	-124.108	-0.311	0.049
-730.966	14.203	0.120	-0.094
-729.952	800.000	0.074	-0.311
-728.937	800.000	0.073	-0.292
-727.923	153.873	-0.199	-0.274
-726.908	80.280	-0.103	0.112
-725.894	-181.871	0.278	-0.005
-724.879	93.867	0.045	-0.051
-723.864	-88.960	0.184	0.055
-722.850	18.295	-0.231	0.186
-721.835	-97.349	-0.421	-0.110
-720.821	-78.460	0.167	-0.057
-719.806	-200.000	-0.032	0.223
-718.791	-200.000	0.018	-0.138
-717.777	-92.747	-0.209	0.059
-716.762	-34.071	0.144	0.079
-715.748	254.837	0.146	0.251
-714.733	800.000	0.062	-0.187
-713.718	13.970	0.103	0.080
-712.704	230.667	-0.192	0.316
-711.689	14.753	0.156	-0.122
-710.675	-87.445	-0.433	0.132
-709.660	-66.555	-0.427	-0.170
-708.645	61.730	0.290	-0.291
-707.631	405.716	0.050	-0.106
-706.616	-74.262	-0.307	0.112
-705.602	-135.224	-0.475	0.057
-704.587	-75.052	0.168	0.060
-703.572	330.997	0.135	-0.261
-702.558	294.613	-0.148	0.272
-701.543	-79.676	0.193	0.065
-700.529	-19.790	-0.216	0.134
-699.514	-22.420	-0.197	0.120
-698.499	-120.353	-0.091	0.016
-697.485	133.401	-0.096	-0.125
-696.470	-110.593	0.233	0.048
-695.456	46.167	-0.186	0.174
-694.441	168.147	-0.079	0.113
-693.426	-120.321	-0.112	0.019
-692.412	15.764	-0.308	-0.244
-691.397	-200.000	-0.045	0.237
-690.383	-176.271	0.164	-0.004
-689.368	73.321	0.155	-0.163
-688.354	-10.571	0.146	0.097
-687.339	643.413	0.112	0.287
-686.324	-0.378	0.133	0.095
-685.310	-101.573	-0.077	0.019
-684.295	-132.518	0.348	-0.045
-683.281	146.362	-0.198	-0.266
-682.266	-200.000	-0.061	-0.319
-681.251	-195.592	-0.242	0.002
-680.237	643.156	-0.066	0.170
-679.222	-200.000	-0.035	-0.345
-678.208	325.628	0.078	-0.151
-677.193	369.078	0.083	0.168
-676.178	132.538	-0.061	-0.079
-675.164	-97.698	-0.187	0.049
-674.149	252.414	0.068	-0.116
-673.135	800.000	-0.049	0.193
-672.120	800.000	0.085	-0.315
-671.105	-58.320	-0.480	0.210
-670.091	227.458	0.129	-0.210
-669.076	142.525	-0.071	-0.095
-668.062	131.135	-0.125	0.161
-667.047	-64.490	-0.163	0.066
-666.032	-28.784	0.169	-0.097
-665.018	-200.000	0.009	-0.227
-664.003	9.884	0.162	0.123
-662.989	-18.230	-0.149	-0.093
-661.974	-38.501	-0.050	0.026
-660.959	67.064	-0.018	0.018
-659.945	-39.486	-0.405	-0.213
-658.930	126.142	-0.109	0.139
-657.916	9.180	0.118	-0.089
-656.901	-200.000	0.005	0.116
-655.886	-5.251	-0.184	0.127
-654.872	85.272	-0.228	-0.251
-653.857	799.964	-0.137	-0.379
-652.843	-90.111	-0.241	-0.070
-651.828	-140.364	-0.469	-0.049
-650.814	247.428	-0.103	-0.174
-649.799	-84.707	-0.371	-0.117
-648.784	-112.525	0.191	-0.038
-647.770	7.670	0.216	-0.162
-646.755	-102.840	-0.106	-0.025
-645.741	59.802	-0.080	0.080
-644.726	-200.000	0.028	-0.192
-643.711	57.420	0.181	0.178
-642.697	439.943	0.047	-0.103
-641.682	522.455	0.023	0.053
-640.668	-200.000	0.017	-0.198
-639.653	404.712	-0.142	-0.301
-638.638	-140.663	-0.359	-0.037
-637.624	16.591	-0.189	0.150
-636.609	430.987	0.067	0.146
-635.595	-15.522	-0.240	-0.154
-634.580	84.244	0.165	0.181
-633.565	-54.292	0.144	-0.065
-632.551	183.416	-0.046	0.068
-631.536	203.449	-0.134	0.207
-630.522	-47.912	0.064	0.031
-629.507	-69.014	0.284	-0.110
-628.492	416.208	0.059	-0.126
-627.478	29.255	-0.030	-0.026
-626.463	-200.000	0.023	-0.118
-625.449	-25.243	-0.192	-0.114
-624.434	46.337	-0.125	0.117
-623.419	-200.000	-0.010	-0.420
-622.405	-200.000	-0.011	-0.119
-621.390	717.832	-0.093	-0.248
-620.376	-108.749	0.138	-0.030
-619.361	-78.405	-0.372	0.128
-618.346	58.942	0.136	0.134
-617.332	36.940	-0.188	-0.166
-616.317	673.142	0.081	-0.210
-615.303	-22.825	-0.116	-0.070
-614.288	-200.000	0.014	-0.068
-613.273	-135.089	0.472	-0.057
-612.259	-49.528	0.116	0.055
-611.244	49.593	-0.020	-0.018
-610.230	-91.982	0.309	-0.088
-609.215	45.450	-0.046	0.043
-608.201	-94.581	-0.272	0.074
-607.186	-57.568	0.271	-0.119
-606.171	379.707	0.045	0.091
-605.157	220.231	0.156	-0.250
-604.142	100.749	0.170	0.198
-603.128	120.190	-0.117	0.146
-602.113	487.286	-0.084	-0.193
-601.098	800.000	0.018	-0.073
-600.084	437.626	0.069	-0.150
-599.069	-200.000	-0.010	0.118
-598.055	-200.000	0.020	-0.180
-597.040	-200.000	-0.452	0.000
-596.025	-95.270	0.085	-0.023
-595.011	81.142	0.152	0.164
-593.996	-137.337	-0.179	0.020
-592.982	69.607	-0.123	-0.127
-591.967	72.007	0.318	-0.331
-590.952	800.000	-0.037	0.160
-589.938	-21.806	-0.068	0.041
-588.923	-147.866	0.199	-0.017
-587.909	51.742	-0.166	-0.158
-586.894	800.000	-0.076	0.248
-585.879	800.000	-0.056	0.211
-584.865	-200.000	-0.003	-0.199
-583.850	-190.129	0.081	-0.001
-582.836	257.025	-0.113	0.194
-581.821	94.046	0.126	0.143
-580.806	226.199	-0.161	-0.261
-579.792	400.739	0.032	-0.068
-578.777	497.694	0.098	0.226
-577.763	-0.616	0.207	-0.147
-576.748	28.947	0.018	0.015
-575.733	-40.648	0.130	-0.067
-574.719	-73.580	-0.166	-0.060
-573.704	13.680	0.239	-0.186
-572.690	800.000	0.119	0.379
-571.675	800.000	-0.070	0.283
-570.661	5.099	0.200	-0.148
-569.646	-23.649	-0.358	-0.214
-568.631	-60.899	-0.227	0.096
-567.617	-200.000	0.039	0.425
-566.602	171.586	-0.048	0.068
-565.588	-60.207	0.197	-0.084
-564.573	-26.224	0.088	0.052
-563.558	-135.030	-0.224	-0.027
-562.544	37.766	-0.018	0.016
-561.529	-68.639	0.167	0.065
-560.515	-93.437	0.095	-0.026
-559.500	194.938	-0.049	0.075
-558.485	37.872	0.089	-0.079
-557.471	32.917	-0.175	-0.152
-556.456	-149.887	0.207	0.016
-555.442	445.225	-0.023	-0.050
-554.427	79.278	0.223	0.238
-553.412	86.665	0.013	-0.015
-552.398	96.338	-0.072	0.082
-551.383	394.020	-0.128	0.266
-550.369	-157.293	-0.214	-0.013
-549.354	-15.563	-0.420	-0.268
-548.339	-71.552	-0.525	0.196
-547.325	-200.000	-0.013	-0.144
-546.310	-200.000	-0.025	-0.159
-545.296	538.213	0.078	-0.184
-544.281	382.930	-0.014	0.028
-543.266	219.886	0.117	0.187
-542.252	-52.551	0.095	-0.044
-541.237	245.548	0.177	0.297
-540.223	800.000	-0.016	0.065
-539.208	-200.000	-0.026	0.249
-538.193	-200.000	-0.005	0.077
-537.179	20.515	-0.177	-0.143
-536.164	13.024	-0.328	-0.253
-535.150	-43.990	0.174	0.087
-534.135	-33.486	-0.237	-0.131
-533.121	800.000	-0.105	0.432
-532.106	-200.000	0.013	0.313
-531.091	-85.343	-0.078	0.024
-530.077	-200.000	-0.047	-0.295
-529.062	255.533	-0.082	-0.140
-528.048	-184.407	0.182	0.003
-527.033	203.822	0.100	-0.154
-526.018	1.774	0.458	-0.329
-525.004	-102.154	0.333	-0.080
-523.989	-79.549	0.088	0.030
-522.975	-200.000	0.011	0.053
-521.960	-106.616	0.238	0.053
-520.945	-54.140	0.105	0.048
-519.931	-150.587	0.126	-0.010
-518.916	800.000	-0.080	-0.258
-517.902	-6.004	-0.235	-0.160
-516.887	133.600	-0.198	0.255
-515.872	353.534	0.075	-0.148
-514.858	-70.505	-0.034	0.013
-513.843	-200.000	-0.030	0.234
-512.829	-84.036	0.193	0.061
-511.814	258.068	-0.105	-0.180
-510.799	-200.000	0.083	-0.430
-509.785	-200.000	0.000	0.289
-508.770	-107.960	-0.371	-0.080
-507.756	326.601	-0.063	-0.120
-506.741	12.443	-0.093	0.071
-505.726	436.323	-0.142	0.309
-504.712	800.000	-0.032	-0.140
-503.697	-200.000	0.031	0.164
-502.683	-92.475	-0.089	0.025
-501.668	-200.000	-0.002	-0.075
-500.653	0.270	0.091	0.065
-499.639	-122.777	-0.275	0.044
-498.624	0.915	0.067	-0.048
-497.610	-200.000	-0.015	-0.400
-496.595	301.725	-0.034	-0.063
-495.581	-28.118	-0.098	-0.056
-494.566	528.770	0.030	0.071
-493.551	-113.326	0.095	-0.019
-492.537	800.000	-0.034	-0.110
-491.522	-175.003	-0.165	0.005
-490.508	800.000	-0.029	-0.086
-489.493	603.181	0.127	-0.314
-488.478	-200.000	-0.006	0.187
-487.464	-37.671	-0.295	0.156
-486.449	139.517	0.149	-0.195
-485.435	-125.530	-0.268	-0.041
-484.420	-38.205	0.167	-0.088
-483.405	-200.000	0.029	0.263
-482.391	800.000	0.099	-0.360
-481.376	155.546	-0.034	0.047
-480.362	-196.667	-0.200	0.001
-479.347	-167.235	-0.118	-0.005
-478.332	-45.827	-0.114	0.056
-477.318	-200.000	0.018	0.134
-476.303	-200.000	-0.042	0.327
-475.289	-200.000	-0.024	-0.239
-474.274	-200.000	-0.010	0.205
-473.259	-200.000	0.020	0.093
-472.245	657.256	0.041	-0.105
-471.230	800.000	-0.072	0.216
-470.216	552.467	-0.167	0.400
-469.201	-34.165	0.298	0.163
-468.186	175.011	0.206	-0.296
-467.172	-200.000	-0.022	-0.396
-466.157	-81.472	0.154	-0.050
-465.143	98.498	-0.089	0.102
-464.128	-131.302	0.721	0.095
-463.113	22.382	-0.254	0.207
-462.099	800.000	0.059	0.178
-461.084	374.805	-0.116	0.236
-460.070	425.576	-0.078	0.167
-459.055	800.000	-0.082	0.347
-458.040	-46.848	-0.292	-0.142
-457.026	-104.894	0.202	-0.046
-456.011	-27.445	-0.030	-0.017
-454.997	-139.199	-0.111	-0.012
-453.982	-200.000	-0.035	-0.435
-452.968	193.373	0.152	-0.229
-451.953	-42.492	-0.253	0.128
-450.938	-126.972	-0.263	-0.038
-449.924	-92.384	-0.430	-0.120
-448.909	-200.000	0.027	-0.319
-447.895	-157.248	-0.079	0.005
-446.880	-100.797	-0.253	0.062
-445.865	612.705	-0.079	-0.197
-444.851	187.738	0.203	-0.302
-443.836	-5.100	0.121	-0.083
-442.822	232.652	0.081	-0.132
-441.807	-200.000	-0.013	0.220
-440.792	171.107	0.149	-0.213
-439.778	-16.305	-0.124	-0.078
-438.763	62.819	-0.106	0.105
-437.749	800.000	-0.079	0.229
-436.734	95.978	-0.095	0.108
-435.719	-116.579	-0.131	0.024
-434.705	59.755	-0.124	-0.122
-433.690	-200.000	-0.054	-0.249
-432.676	-109.118	0.068	0.014
-431.661	9.166	0.386	0.290
-430.646	-0.579	0.059	-0.041
-429.632	-69.465	-0.180	-0.069
-428.617	73.961	-0.060	-0.063
-427.603	79.764	-0.287	-0.306
-426.588	-75.907	0.155	-0.055
-425.573	721.477	-0.103	-0.273
-424.559	-16.545	-0.144	0.090
-423.544	-160.730	-0.205	-0.011
-422.530	223.501	-0.290	-0.464
-421.515	-142.136	0.223	-0.022
-420.500	-200.000	-0.016	-0.125
-419.486	-200.000	0.033	-0.188
-418.471	-153.367	0.152	0.011
-417.457	-111.718	0.229	-0.046
-416.442	-15.075	-0.033	-0.021
-415.428	-35.308	0.169	-0.091
-414.413	263.969	0.212	0.366
-413.398	228.516	-0.112	-0.182
-412.384	-14.400	0.174	-0.111
-411.369	-59.091	0.247	0.106
-410.355	-200.000	0.118	-0.570
-409.340	97.474	-0.146	0.166
-408.325	123.475	-0.135	0.169
-407.311	800.000	-0.052	-0.210
-406.296	627.687	0.145	0.363
-405.282	-173.642	0.340	-0.010
-404.267	-81.902	0.340	-0.110
-403.252	102.925	-0.137	-0.159
-402.238	474.189	-0.056	0.126
-401.223	97.524	-0.204	-0.233
-400.209	-1.057	0.127	-0.089
-399.194	-33.770	-0.264	0.144
-398.179	-200.000	0.010	0.065
-397.165	335.083	-0.122	-0.235
-396.150	-13.582	0.269	0.173
-395.136	-18.339	-0.296	0.183
-394.121	-12.285	-0.128	0.083
-393.106	-7.414	0.032	-0.022
-392.092	118.551	-0.096	0.118
-391.077	-4.191	0.315	0.217
-390.063	-200.000	0.035	0.170
-389.048	-85.206	-0.321	0.100
-388.033	800.000	-0.021	0.071
-387.019	243.238	-0.084	-0.140
-386.004	-158.643	0.029	0.002
-384.990	-24.031	-0.089	0.053
-383.975	183.615	0.044	0.065
-382.960	86.944	0.153	-0.168
-381.946	314.901	0.131	0.245
-380.931	453.794	0.097	0.214
-379.917	-29.939	-0.109	-0.061
-378.902	-162.797	-0.098	-0.005
-377.888	-200.000	-0.003	-0.243
-376.873	-65.615	0.207	-0.082
-375.858	-95.555	0.227	0.060
-374.844	-35.779	0.139	-0.075
-373.829	-110.925	0.114	-0.023
-372.815	-56.625	0.123	-0.054
-371.800	-75.074	0.344	0.122
-370.785	94.891	0.249	0.281
-369.771	800.000	0.024	-0.083
-368.756	-179.296	-0.189	-0.004
-367.742	-168.864	0.151	-0.006
-366.727	197.641	-0.047	-0.072
-365.712	34.826	-0.325	0.282
-364.698	664.659	0.140	0.358
-363.683	363.969	0.100	-0.199
-362.669	800.000	0.045	-0.149
-361.654	-27.651	0.131	0.075
-360.639	316.462	-0.166	-0.311
-359.625	348.980	-0.079	-0.155
-358.610	-200.000	-0.041	0.224
-357.596	19.492	0.321	-0.256
-356.581	0.239	-0.243	-0.172
-355.566	134.506	0.051	0.066
-354.552	170.814	0.079	-0.113
-353.537	800.000	0.057	0.178
-352.523	-156.332	-0.609	0.038
-351.508	-15.822	-0.157	-0.099
-350.493	-52.452	-0.472	-0.216
-349.479	-23.877	0.168	-0.100
-348.464	-36.846	0.199	-0.106
-347.450	-200.000	-0.001	-0.359
-346.435	800.000	-0.013	0.049
-345.420	-200.000	0.013	-0.141
-344.406	45.610	-0.069	-0.063
-343.391	-162.070	0.083	0.004
-342.377	258.081	0.111	0.189
-341.362	47.268	0.085	0.079
-340.348	-121.983	0.261	-0.043
-339.333	62.671	0.023	-0.023
-338.318	105.367	0.074	0.087
-337.304	-102.678	0.112	-0.026
-336.289	-98.245	-0.222	-0.056
-335.275	800.000	0.070	0.277
-334.260	-200.000	-0.028	0.142
-333.245	-54.999	0.151	0.067
-332.231	-89.016	0.123	0.036
-331.216	800.000	-0.017	-0.048
-330.202	-69.368	0.102	-0.039
-329.187	-16.596	0.254	0.160
-328.172	322.846	0.090	0.170
-327.158	70.835	-0.201	-0.207
-326.143	800.000	0.096	0.298
-325.129	-83.548	0.464	0.147
-324.114	-200.000	-0.071	-0.478
-323.099	-200.000	0.013	0.181
-322.085	231.451	0.158	0.257
-321.070	-115.371	0.145	0.027
-320.056	146.479	-0.158	0.210
-319.041	53.616	-0.096	-0.092
-318.026	41.424	0.284	-0.254
-317.012	-33.690	0.348	0.190
-315.997	-200.000	0.007	0.075
-314.983	-59.072	0.107	0.046
-313.968	55.975	0.171	-0.164
-312.953	-110.814	-0.307	0.063
-311.939	-92.022	-0.129	-0.036
-310.924	-36.941	0.251	-0.133
-309.910	-200.000	0.072	0.339
-308.895	449.138	-0.264	0.576
-307.880	-165.371	0.243	-0.011
-306.866	-105.906	-0.264	0.059
-305.851	-110.120	-0.245	0.051
-304.837	-167.173	-0.048	0.002
-303.822	-94.047	0.366	0.099
-302.807	800.000	-0.081	0.335
-301.793	-60.649	-0.468	-0.196
-300.778	181.448	-0.075	-0.109
-299.764	-200.000	-0.007	0.542
-298.749	241.457	0.081	0.135
-297.735	130.996	0.289	-0.367
-296.720	-200.000	0.059	-0.271
-295.705	103.441	-0.141	0.164
-294.691	-85.094	0.168	0.052
-293.676	5.110	0.055	-0.040
-292.662	519.801	0.042	-0.096
-291.647	34.548	-0.258	-0.223
-290.632	-0.275	-0.136	0.095
-289.618	-86.838	0.176	-0.053
-288.603	-200.000	-0.053	0.306
-287.589	17.619	0.240	0.189
-286.574	-102.525	-0.252	-0.060
-285.559	-200.000	-0.027	-0.173
-284.545	249.582	-0.068	-0.114
-283.530	56.698	-0.178	0.171
-282.516	205.228	-0.136	-0.209
-281.501	146.002	0.189	-0.250
-280.486	672.690	0.077	0.198
-279.472	800.000	-0.082	0.278
-278.457	800.000	-0.056	0.228
-277.443	103.904	-0.101	-0.117
-276.428	-158.216	-0.442	0.026
-275.413	255.669	0.097	0.164
-274.399	-10.301	0.195	-0.128
-273.384	-43.062	-0.268	0.134
-272.370	-75.774	-0.311	0.109
-271.355	-132.873	0.210	-0.026
-270.340	800.000	-0.079	-0.215
-269.326	261.417	0.029	0.050
-268.311	608.598	0.105	0.260
-267.297	97.342	0.166	-0.188
-266.282	-66.599	0.226	0.089
-265.267	-200.000	-0.020	0.302
-264.253	-47.730	0.160	0.077
-263.238	-62.358	0.196	0.081
-262.224	308.527	0.111	0.205
-261.209	-20.684	0.137	-0.083
-260.195	28.689	0.219	-0.183
-259.180	-19.744	0.298	-0.182
-258.165	473.964	-0.100	0.224
-257.151	800.000	-0.019	0.074
-256.136	-200.000	0.026	-0.165
-255.122	-31.009	0.247	-0.138
-254.107	263.072	0.142	-0.244
-253.092	213.287	0.033	-0.052
-252.078	-21.251	0.243	-0.147
-251.063	95.919	0.173	0.195
-250.049	-136.282	0.338	0.039
-249.034	100.250	-0.251	0.287
-248.019	-200.000	-0.083	0.395
-247.005	37.872	-0.213	0.187
-245.990	123.414	-0.127	-0.157
-244.976	4.341	-0.199	0.144
-243.961	-61.070	0.313	-0.130
-242.946	257.779	0.033	-0.056
-241.932	111.879	0.221	-0.264
-240.917	-145.155	-0.190	0.017
-239.903	152.852	-0.113	-0.153
-238.888	681.913	0.219	0.563
-237.873	-200.000	-0.008	0.221
-236.859	237.282	-0.121	0.198
-235.844	800.000	-0.006	-0.016
-234.830	-105.783	0.344	0.077
-233.815	195.318	0.032	0.048
-232.800	32.340	-0.193	0.165
-231.786	0.997	-0.103	-0.073
-230.771	-200.000	-0.026	-0.216
-229.757	-55.020	-0.373	0.166
-228.742	-71.567	-0.164	0.061
-227.727	-148.327	0.165	-0.013
-226.713	-79.239	-0.085	-0.028
-225.698	-200.000	-0.017	-0.131
-224.684	-200.000	-0.067	-0.332
-223.669	-200.000	0.033	-0.448
-222.655	71.494	0.150	-0.153
-221.640	-108.078	0.145	-0.031
-220.625	108.090	-0.196	-0.230
-219.611	-96.685	-0.233	0.061
-218.596	-85.148	0.419	-0.129
-217.582	-200.000	0.044	-0.323
-216.567	-104.030	0.165	0.038
-215.552	-32.032	-0.389	0.215
-214.538	426.604	-0.062	-0.132
-213.523	-22.922	-0.108	0.064
-212.509	-85.457	0.086	0.027
-211.494	741.571	0.024	-0.064
-210.479	16.932	-0.195	-0.152
-209.465	17.351	-0.114	-0.089
-208.450	31.650	-0.199	-0.169
-207.436	-152.649	0.386	-0.027
-206.421	-122.348	0.156	0.025
-205.406	-113.960	-0.259	0.050
-204.392	-200.000	0.021	-0.146
-203.377	16.108	-0.084	-0.065
-202.363	-14.116	0.135	-0.086
-201.348	-0.427	-0.281	-0.197
-200.333	-24.067	-0.131	0.077
-199.319	-200.000	0.062	0.319
-198.304	-146.594	-0.520	-0.044
-197.290	132.066	-0.251	0.318
-196.275	-39.337	-0.296	0.153
-195.260	-54.722	-0.109	0.048
-194.246	-189.609	-0.273	0.003
-193.231	59.596	-0.133	-0.129
-192.217	-83.551	-0.166	-0.052
-191.202	86.823	0.170	0.185
-190.187	30.109	0.315	-0.264
-189.173	-105.830	-0.376	-0.084
-188.158	-46.832	0.133	0.064
-187.144	-200.000	-0.008	-0.147
-186.129	-70.550	0.156	-0.058
-185.114	199.731	0.140	-0.211
-184.100	261.950	0.093	0.159
-183.085	25.492	-0.068	-0.056
-182.071	18.956	0.241	0.190
-181.056	38.854	0.229	0.202
-180.042	-200.000	-0.031	0.196
-179.027	-200.000	0.032	0.218
-178.012	346.764	-0.124	-0.241
-176.998	294.064	-0.088	-0.157
-175.983	-112.540	0.154	0.030
-174.969	-113.466	0.168	-0.032
-173.954	-200.000	0.042	0.239
-172.939	-58.516	0.188	0.080
-171.925	-137.644	-0.123	0.014
-170.910	65.663	0.216	-0.216
-169.896	150.210	-0.151	0.201
-168.881	-161.084	0.346	0.018
-167.866	-200.000	-0.023	0.158
-166.852	142.617	-0.142	-0.185
-165.837	267.322	0.234	0.402
-164.823	-200.000	0.003	-0.138
-163.808	-200.000	0.008	-0.040
-162.793	27.950	-0.097	0.081
-161.779	3.911	0.133	0.096
-160.764	-14.009	-0.066	-0.042
-159.750	65.735	-0.056	-0.055
-158.735	211.538	0.041	-0.063
-157.720	-19.989	-0.281	0.171
-156.706	106.707	-0.144	0.168
-155.691	800.000	0.018	-0.064
-154.677	61.215	0.256	0.250
-153.662	-200.000	-0.016	0.191
-152.647	727.201	-0.111	0.291
-151.633	141.713	-0.086	0.113
-150.618	146.345	-0.144	-0.190
-149.604	-54.748	0.141	-0.062
-148.589	18.031	-0.123	-0.097
-147.574	-68.336	0.407	-0.156
-146.560	-200.000	-0.036	0.166
-145.545	26.990	-0.171	-0.141
-144.531	-142.978	0.139	0.013
-143.516	800.000	-0.079	-0.224
-142.502	-7.498	0.141	-0.094
-141.487	56.410	0.090	0.086
-140.472	128.572	0.038	0.048
-139.458	286.331	-0.039	-0.069
-138.443	-150.830	0.422	-0.031
-137.429	511.350	0.005	0.011
-136.414	800.000	-0.035	0.151
-135.399	-44.961	-0.262	0.128
-134.385	39.406	0.305	-0.269
-133.370	-32.865	0.115	-0.063
-132.356	264.148	-0.104	0.178
-131.341	502.246	-0.095	0.216
-130.326	-31.328	-0.211	-0.117
-129.312	-129.612	0.452	-0.061
-128.297	154.743	-0.106	-0.143
-127.283	-21.875	0.161	0.096
-126.268	150.683	0.029	0.039
-125.253	45.210	0.086	0.078
-124.239	408.389	0.114	0.236
-123.224	47.560	-0.209	-0.191
-122.210	-20.419	-0.066	0.040
-121.195	33.836	-0.163	0.139
-120.180	-200.000	0.028	0.204
-119.166	-59.107	-0.200	-0.085
-118.151	59.704	0.031	0.030
-117.137	-76.649	-0.387	-0.133
-116.122	82.314	0.280	-0.298
-115.107	-102.705	-0.218	0.051
-114.093	-60.518	0.206	0.086
-113.078	423.745	0.118	-0.249
-112.064	184.506	0.126	-0.183
-111.049	-80.707	-0.082	0.027
-110.034	-200.000	-0.006	-0.168
-109.020	-130.123	0.190	0.026
-108.005	-56.956	0.055	0.024
-106.991	376.855	-0.135	0.270
-105.976	-63.523	-0.135	0.055
-104.962	-37.282	-0.431	0.226
-103.947	-200.000	-0.044	0.225
-102.932	126.536	0.271	0.337
-101.918	-47.237	0.138	-0.066
-100.903	-59.528	-0.151	0.064
-99.889	-69.174	-0.177	-0.067
-98.874	-100.398	0.208	0.051
-97.859	205.478	0.163	0.248
-96.845	-79.719	0.231	-0.077
-95.830	89.778	-0.178	-0.195
-94.816	-151.585	-0.133	0.010
-93.801	-103.604	0.289	-0.067
-92.786	-10.393	0.233	-0.152
-91.772	332.554	0.213	-0.404
-90.757	-200.000	-0.069	0.369
-89.743	246.016	-0.049	-0.081
-88.728	57.104	-0.213	-0.204
-87.713	-10.049	0.171	-0.112
-86.699	320.320	0.141	0.263
-85.684	-50.932	0.233	-0.108
-84.670	-59.089	-0.322	0.136
-83.655	269.312	0.046	-0.080
-82.640	-73.074	0.297	0.107
-81.626	-48.847	0.161	0.076
-80.611	298.473	0.124	0.224
-79.597	-200.000	-0.003	0.132
-78.582	-123.657	0.072	-0.011
-77.567	96.660	-0.292	0.328
-76.553	-76.666	-0.319	0.110
-75.538	38.267	-0.169	0.148
-74.524	78.485	-0.248	0.260
-73.509	800.000	-0.043	-0.172
-72.494	-72.339	0.052	-0.019
-71.480	-2.832	-0.355	-0.243
-70.465	10.456	-0.123	0.091
-69.451	113.328	-0.216	-0.257
-68.436	800.000	0.118	-0.325
-67.422	-85.903	0.447	0.136
-66.407	207.887	-0.212	-0.324
-65.392	67.828	0.176	0.177
-64.378	-200.000	0.061	0.282
-63.363	-112.196	-0.032	-0.006
-62.349	-200.000	-0.056	0.374
-61.334	34.719	-1.038	-0.889
-60.319	179.672	0.449	0.645
-59.305	-200.000	-0.119	-0.891
-58.290	583.014	0.574	1.380
-57.276	291.657	0.978	1.745
-56.261	-200.000	105.448	620.616
-55.246	525.529	1499.473	3458.395
-54.232	176.733	2699.158	3845.462
-53.217	106.252	2290.725	2658.817
-52.203	38.816	1897.756	1660.173
-51.188	32.782	1684.875	1428.364
-50.173	30.191	1641.394	1372.305
-49.159	49.367	1694.990	1561.811
-48.144	49.485	1710.218	1576.665
-47.130	32.470	1668.042	1411.532
-46.115	29.784	1653.175	1378.901
-45.100	29.554	1648.798	1373.487
-44.086	29.557	1646.264	1371.343
-43.071	29.530	1643.067	1368.423
-42.057	29.399	1641.051	1365.720
-41.042	29.555	1638.522	1364.713
-40.027	29.498	1637.282	1363.210
-39.013	29.449	1634.976	1360.876
-37.998	29.577	1632.732	1359.895
-36.984	29.567	1631.965	1359.130
-35.969	29.539	1631.013	1358.077
-34.954	29.659	1628.979	1357.211
-33.940	29.546	1628.137	1355.626
-32.925	29.616	1625.360	1353.773
-31.911	29.641	1623.504	1352.356
-30.896	29.639	1621.827	1350.887
-29.881	29.553	1620.849	1349.392
-28.867	29.596	1618.595	1347.773
-27.852	29.660	1616.839	1346.728
-26.838	29.599	1616.034	1345.559
-25.823	29.624	1614.706	1344.583
-24.809	29.668	1613.771	1344.065
-23.794	29.607	1612.000	1342.095
-22.779	29.602	1610.857	1341.057
-21.765	29.551	1608.994	1339.083
-20.750	29.542	1607.356	1337.600
-19.736	29.656	1605.990	1337.235
-18.721	29.670	1604.380	1335.942
-17.706	29.587	1602.968	1334.115
-16.692	29.637	1601.532	1333.226
-15.677	29.604	1599.778	1331.479
-14.663	29.623	1599.004	1330.915
-13.648	29.681	1597.193	1329.773
-12.633	29.654	1595.659	1328.249
-11.619	29.579	1594.140	1326.395
-10.604	29.542	1592.917	1325.059
-9.590	29.737	1590.974	1324.786
-8.575	29.736	1589.944	1323.867
-7.560	29.720	1589.160	1323.051
-6.546	29.716	1588.095	1322.084
-5.531	29.586	1587.475	1320.583
-4.517	29.625	1585.746	1319.370
-3.502	29.567	1584.722	1318.055
-2.487	29.741	1582.971	1317.786
-1.473	29.320	1571.680	1305.356
-0.458	26.509	1551.414	1268.795
0.556	20.640	1553.053	1237.394
1.571	18.394	1577.348	1240.400
2.586	18.105	1591.272	1249.122
3.600	16.440	1538.997	1196.204
4.615	8.713	1430.301	1060.616
5.629	1.289	1366.265	965.923
6.644	-0.226	1358.329	950.637
7.659	-0.253	1357.130	949.548
8.673	-0.351	1356.239	948.216
9.688	-0.400	1354.102	946.333
10.702	-0.560	1350.949	943.035
11.717	2.516	1356.558	966.296
12.731	11.552	1373.939	1036.129
13.746	18.897	1387.081	1092.815
14.761	20.837	1389.187	1106.715
15.775	20.994	1389.123	1107.563
16.790	21.045	1388.937	1107.643
17.804	21.201	1387.798	1107.628
18.819	21.326	1388.112	1108.573
19.834	21.449	1387.233	1108.554
20.848	21.557	1386.201	1108.316
21.863	21.546	1385.195	1107.341
22.877	21.526	1384.741	1106.751
23.892	21.494	1383.610	1105.552
24.907	21.549	1382.632	1105.017
25.921	21.557	1382.136	1104.574
26.936	21.520	1381.067	1103.390
27.950	21.447	1380.150	1102.100
28.965	21.477	1378.973	1101.250
29.980	21.624	1377.206	1100.663
30.994	21.573	1376.242	1099.476
32.009	21.536	1375.097	1098.234
33.023	21.559	1373.758	1097.212
34.038	21.533	1372.574	1096.005
35.053	21.553	1371.492	1095.171
36.067	21.597	1370.554	1094.596
37.082	21.477	1369.764	1093.122
38.096	21.617	1368.472	1092.866
39.111	21.567	1368.024	1092.102
40.126	21.508	1367.602	1091.300
41.140	21.505	1367.074	1090.760
42.155	21.565	1366.777	1090.801
43.169	21.559	1366.431	1090.391
44.184	21.484	1366.795	1090.121
45.199	21.496	1365.897	1089.384
46.213	21.519	1365.295	1088.947
47.228	21.466	1364.452	1087.846
48.242	21.566	1363.044	1087.255
49.257	21.531	1361.950	1086.063
50.271	21.631	1360.112	1085.124
51.286	21.590	1359.154	1084.008
52.301	21.543	1358.015	1082.714
53.315	21.480	1357.192	1081.575
54.330	21.609	1356.252	1081.523
55.344	21.612	1354.417	1079.984
56.359	21.561	1353.731	1079.029
57.374	21.586	1353.147	1078.618
58.388	21.528	1352.611	1077.742
59.403	21.574	1351.994	1077.436
60.417	21.644	1351.222	1077.159
61.432	21.568	1350.460	1075.986
62.447	21.632	1349.633	1075.626
63.461	21.574	1348.224	1074.055
64.476	21.588	1347.452	1073.429
65.490	21.615	1346.008	1072.348
66.505	21.494	1344.746	1070.506
67.520	21.601	1343.601	1070.156
68.534	21.580	1342.556	1069.100
69.549	21.661	1341.319	1068.515
70.563	21.584	1340.783	1067.526
71.578	21.611	1339.351	1066.451
72.593	21.594	1338.491	1065.568
73.607	21.574	1338.037	1064.993
74.622	21.578	1337.670	1064.628
75.636	21.574	1336.556	1063.625
76.651	21.485	1336.054	1062.593
77.666	21.495	1335.669	1062.252
78.680	21.569	1334.890	1061.988
79.695	21.624	1334.001	1061.519
80.709	21.505	1333.746	1060.501
81.724	21.584	1332.493	1059.889
82.739	21.525	1331.833	1058.914
83.753	21.522	1330.474	1057.724
84.768	21.580	1329.121	1056.901
85.782	21.499	1328.178	1055.568
86.797	21.552	1327.093	1054.935
87.812	21.562	1325.734	1053.824
88.826	21.591	1325.031	1053.346
89.841	21.551	1324.132	1052.295
90.855	21.553	1323.262	1051.521
91.870	21.646	1322.156	1051.112
92.884	21.572	1321.004	1049.657
93.899	21.657	1320.118	1049.367
94.914	21.678	1318.997	1048.512
95.928	21.607	1318.596	1047.673
96.943	21.698	1318.025	1047.673
97.957	21.697	1317.131	1046.861
98.972	21.635	1316.279	1045.724
99.987	21.660	1315.207	1044.928
101.001	21.621	1313.861	1043.532
102.016	21.559	1313.141	1042.503
103.030	21.598	1312.265	1041.946
104.045	21.599	1311.383	1041.161
105.060	21.625	1310.662	1040.648
106.074	21.706	1309.374	1040.016
107.089	21.694	1308.511	1039.164
108.103	21.718	1307.203	1038.179
109.118	21.751	1306.038	1037.357
110.133	21.671	1305.245	1036.161
111.147	21.676	1304.395	1035.423
112.162	21.755	1302.951	1034.650
113.176	21.790	1301.571	1033.673
114.191	21.595	1301.065	1032.029
115.206	21.781	1299.543	1031.828
116.220	21.774	1298.561	1030.913
117.235	21.715	1298.199	1030.187
118.249	21.646	1297.387	1029.045
119.264	21.653	1296.566	1028.344
120.279	21.803	1295.138	1028.003
121.293	21.756	1294.857	1027.412
122.308	21.740	1294.030	1026.569
123.322	21.790	1292.836	1025.828
124.337	21.745	1292.250	1025.004
125.352	21.851	1291.063	1024.594
126.366	21.771	1290.143	1023.303
127.381	21.727	1289.263	1022.259
128.395	21.871	1287.906	1021.935
129.410	21.801	1287.009	1020.726
130.424	21.902	1286.218	1020.593
131.439	21.752	1285.766	1019.273
132.454	21.696	1285.336	1018.517
133.468	21.749	1284.191	1017.828
134.483	21.685	1283.740	1017.004
135.497	21.694	1282.810	1016.231
136.512	21.792	1281.425	1015.615
137.527	21.697	1280.041	1013.874
138.541	21.593	1279.285	1012.588
139.556	21.717	1277.092	1011.476
140.570	21.777	1276.469	1011.239
141.585	21.759	1274.948	1009.843
142.600	21.722	1274.720	1009.360
143.614	21.726	1273.845	1008.601
144.629	21.765	1272.304	1007.516
145.643	21.685	1271.416	1006.264
146.658	21.644	1270.790	1005.444
147.673	21.699	1269.548	1004.688
148.687	21.655	1268.486	1003.507
149.702	21.784	1266.830	1002.844
150.716	21.742	1266.031	1001.886
151.731	21.687	1265.615	1001.150
152.746	21.785	1263.958	1000.310
153.760	21.710	1263.311	999.283
154.775	21.729	1261.972	998.243
155.789	21.816	1261.104	997.964
156.804	21.771	1260.243	996.938
157.819	21.779	1259.610	996.394
158.833	21.775	1258.767	995.619
159.848	21.731	1258.015	994.682
160.862	21.894	1257.232	994.900
161.877	21.800	1255.944	993.263
162.892	21.868	1255.024	992.830
163.906	21.743	1254.978	991.999
164.921	21.928	1253.902	992.110
165.935	21.794	1252.939	990.500
166.950	21.802	1252.424	990.051
167.964	21.885	1251.663	989.829
168.979	21.759	1251.625	989.001
169.994	21.942	1250.178	988.804
171.008	21.972	1249.544	988.381
172.023	21.977	1248.641	987.609
173.037	21.916	1248.290	986.903
174.052	21.748	1247.976	985.620
175.067	21.954	1247.077	985.982
176.081	21.897	1245.922	984.657
177.096	21.895	1245.327	984.089
178.110	21.971	1244.013	983.395
179.125	21.902	1243.382	982.419
180.140	21.915	1242.503	981.710
181.154	21.918	1241.253	980.655
182.169	22.006	1240.110	980.156
183.183	21.866	1239.388	978.718
184.198	21.913	1238.229	977.980
185.213	21.991	1237.161	977.480
186.227	21.982	1236.547	976.857
187.242	21.983	1235.395	975.870
188.256	22.039	1234.490	975.378
189.271	21.926	1233.949	974.238
190.286	22.084	1232.706	974.044
191.300	21.913	1232.725	973.028
192.315	21.985	1231.946	972.722
193.329	22.018	1231.797	972.701
194.344	22.060	1230.729	972.008
195.359	21.996	1230.616	971.477
196.373	22.000	1230.287	971.153
197.388	21.958	1229.723	970.388
198.402	21.822	1229.651	969.497
199.417	21.896	1228.891	969.219
200.432	21.967	1228.166	968.955
201.446	22.049	1226.970	968.376
202.461	22.067	1226.676	968.155
203.475	22.077	1225.800	967.434
204.490	22.003	1224.622	966.015
205.504	21.921	1224.122	965.082
206.519	22.138	1223.165	965.432
207.534	22.038	1222.048	963.918
208.548	21.947	1221.381	962.811
209.563	21.987	1220.626	962.350
210.577	22.125	1219.555	962.175
211.592	22.031	1218.769	960.956
212.607	22.100	1218.022	960.656
213.621	22.053	1217.422	959.843
214.636	22.123	1216.672	959.551
215.650	22.052	1215.927	958.487
216.665	22.058	1214.754	957.514
217.680	22.110	1213.797	956.958
218.694	22.061	1213.372	956.270
219.709	22.246	1212.585	956.570
220.723	22.115	1211.960	955.280
221.738	22.087	1211.251	954.483
222.753	22.148	1210.074	953.802
223.767	22.123	1209.973	953.503
224.782	22.190	1209.146	953.134
225.796	22.249	1208.747	953.051
226.811	22.114	1208.211	951.816
227.826	22.182	1207.357	951.427
228.840	22.302	1206.727	951.496
229.855	22.231	1205.762	950.264
230.869	22.099	1205.504	949.267
231.884	22.171	1204.911	949.102
232.899	22.180	1204.119	948.445
233.913	22.231	1203.417	948.084
234.928	22.283	1202.993	947.945
235.942	22.345	1202.205	947.574
236.957	22.178	1201.918	946.366
237.972	22.278	1200.606	945.784
238.986	22.278	1200.382	945.526
240.001	22.349	1199.723	945.301
241.015	22.426	1198.604	944.753
242.030	22.364	1197.957	943.825
243.045	22.395	1197.188	943.300
244.059	22.379	1196.714	942.757
245.074	22.282	1196.238	941.783
246.088	22.400	1194.983	941.340
247.103	22.328	1194.306	940.342
248.117	22.284	1193.361	939.276
249.132	22.332	1193.006	939.168
250.147	22.397	1192.528	939.058
251.161	22.443	1191.412	938.340
252.176	22.461	1190.591	937.711
253.190	22.392	1190.415	937.120
254.205	22.355	1189.849	936.392
255.220	22.509	1188.503	936.068
256.234	22.508	1188.269	935.800
257.249	22.392	1187.407	934.418
258.263	22.451	1187.002	934.330
259.278	22.481	1186.787	934.240
260.293	22.480	1186.125	933.628
261.307	22.511	1185.463	933.189
262.322	22.480	1184.637	932.292
263.336	22.496	1184.363	932.078
264.351	22.528	1183.557	931.531
265.366	22.549	1182.652	930.846
266.380	22.549	1182.091	930.323
267.395	22.438	1181.530	929.216
268.409	22.475	1181.181	929.054
269.424	22.478	1180.465	928.423
270.439	22.475	1179.943	927.918
271.453	22.537	1179.225	927.595
272.468	22.621	1178.083	927.058
273.482	22.414	1177.760	925.633
274.497	22.545	1177.256	925.842
275.512	22.482	1176.870	925.128
276.526	22.529	1176.283	924.829
277.541	22.530	1175.781	924.360
278.555	22.550	1174.915	923.701
279.570	22.592	1173.867	923.014
280.585	22.629	1173.014	922.454
281.599	22.625	1172.316	921.804
282.614	22.625	1171.698	921.235
283.628	22.715	1170.214	920.460
284.643	22.588	1169.689	919.301
285.657	22.537	1169.190	918.563
286.672	22.561	1168.229	917.849
287.687	22.702	1167.262	917.743
288.701	22.775	1166.681	917.587
289.716	22.820	1165.923	917.143
290.730	22.794	1165.040	916.232
291.745	22.838	1164.353	915.840
292.760	22.767	1163.776	914.935
293.774	22.815	1163.435	914.833
294.789	22.813	1162.742	914.199
295.803	22.860	1162.112	913.863
296.818	22.714	1161.805	912.786
297.833	22.770	1161.265	912.574
298.847	22.838	1160.099	911.924
299.862	22.747	1159.597	910.982
300.876	22.819	1159.316	911.049
301.891	22.915	1158.398	910.746
302.906	23.022	1157.456	910.473
303.920	22.877	1157.083	909.355
304.935	22.940	1156.288	908.975
305.949	22.957	1155.797	908.595
306.964	23.028	1154.971	908.231
307.979	22.954	1154.327	907.264
308.993	23.005	1153.638	906.902
310.008	22.951	1153.117	906.137
311.022	22.928	1152.774	905.667
312.037	22.910	1151.649	904.609
313.052	22.872	1151.039	903.860
314.066	22.955	1150.035	903.414
315.081	22.937	1149.315	902.675
316.095	22.934	1148.549	901.978
317.110	23.049	1147.538	901.692
318.125	23.070	1147.432	901.636
319.139	22.965	1146.843	900.559
320.154	23.021	1146.250	900.299
321.168	23.014	1145.735	899.780
322.183	23.017	1144.681	898.889
323.197	23.082	1144.211	898.767
324.212	22.970	1144.002	897.955
325.227	23.078	1143.487	898.021
326.241	23.168	1142.460	897.591
327.256	22.995	1142.021	896.290
328.270	23.062	1141.158	895.870
329.285	23.203	1140.251	895.793
330.300	23.107	1139.683	894.784
331.314	23.097	1138.845	893.995
332.329	23.111	1138.036	893.351
333.343	23.127	1137.472	892.912
334.358	23.128	1136.669	892.206
335.373	23.237	1135.822	892.014
336.387	23.258	1135.044	891.428
337.402	23.193	1134.230	890.383
338.416	23.215	1133.646	889.958
339.431	23.200	1133.095	889.371
340.446	23.254	1132.700	889.251
341.460	23.219	1131.860	888.337
342.475	23.308	1131.244	888.224
343.489	23.240	1130.225	887.001
344.504	23.271	1129.056	886.164
345.519	23.257	1128.498	885.576
346.533	23.349	1127.954	885.529
347.548	23.226	1127.231	884.271
348.562	23.331	1126.314	883.995
349.577	23.368	1125.670	883.596
350.592	23.226	1125.263	882.495
351.606	23.365	1123.910	882.043
352.621	23.375	1123.554	881.737
353.635	23.312	1123.053	880.953
354.650	23.389	1122.321	880.683
355.665	23.404	1121.970	880.403
356.679	23.453	1121.400	880.121
357.694	23.369	1120.869	879.213
358.708	23.289	1120.345	878.323
359.723	23.257	1119.735	877.610
360.738	23.344	1118.916	877.324
361.752	23.494	1118.108	877.353
362.767	23.520	1117.620	877.020
363.781	23.611	1116.925	876.846
364.796	23.480	1116.750	875.984
365.810	23.514	1115.974	875.467
366.825	23.529	1115.736	875.278
367.840	23.633	1114.954	875.101
368.854	23.619	1114.322	874.457
369.869	23.419	1114.068	873.195
370.883	23.677	1112.610	873.244
371.898	23.700	1111.667	872.538
372.913	23.628	1111.633	872.081
373.927	23.642	1111.200	871.734
374.942	23.585	1110.603	870.907
375.956	23.738	1109.791	870.943
376.971	23.747	1108.975	870.272
377.986	23.695	1108.870	869.859
379.000	23.710	1108.108	869.255
380.015	23.705	1108.113	869.157
381.029	23.608	1107.015	867.746
382.044	23.661	1106.374	867.426
383.059	23.704	1105.688	867.021
384.073	23.793	1105.080	866.904
385.088	23.777	1104.101	865.981
386.102	23.860	1103.115	865.533
387.117	23.795	1102.426	864.598
388.132	23.684	1101.933	863.596
389.146	23.772	1101.438	863.560
390.161	23.839	1100.155	862.806
391.175	23.740	1099.844	862.000
392.190	23.773	1099.388	861.732
393.205	23.848	1098.375	861.222
394.219	23.886	1097.436	860.593
395.234	23.913	1096.650	860.030
396.248	23.901	1096.087	859.458
397.263	23.872	1095.499	858.781
398.278	23.884	1094.809	858.219
399.292	23.980	1093.814	857.827
400.307	23.936	1093.702	857.452
401.321	23.966	1092.937	856.921
402.336	23.825	1092.470	855.802
403.350	23.922	1091.810	855.673
404.365	24.010	1090.802	855.229
405.380	24.053	1090.009	854.739
406.394	24.029	1089.274	853.974
407.409	24.031	1088.886	853.602
408.423	24.048	1088.136	853.022
409.438	24.026	1087.649	852.456
410.453	24.130	1086.668	852.111
411.467	24.074	1086.150	851.363
412.482	24.149	1085.165	850.873
413.496	24.085	1084.682	850.111
414.511	24.061	1084.378	849.686
415.526	24.153	1083.480	849.346
416.540	24.053	1083.606	848.893
417.555	24.150	1082.353	848.295
418.569	24.094	1082.141	847.789
419.584	24.128	1081.936	847.715
420.599	24.163	1081.339	847.337
421.613	149.075	1401.075	1798.695
422.628	137.703	1447.620	1798.809
