DTS Sentinel unit serial number:	SN413079Multiplexer serial number:	ORYXHardware model number:	OX4-SRSoftware version number:	ORYX F/W v4.00 Oryx Data Collector v3.7.2.0data status	okinstallation	princeton_trtdifferential loss correction	single-endedforward channel	channel 2reverse channel	N/Adate	2019/09/13time	16:07:34forward acquisition time	60.00reverse acquisition time	0.00gamma	496.2192k internal	0.2314k external	0.2314temperature offset calibration	1.0211default loss term (dB/km)	0.3790temperature slope calibration	1.0000multiplexer offset coefficient	1.0000multiplexer slope coefficient	1.0000fibre end	0.00T internal ref (°C)	34.70T ext. ref 1 (°C)	4.84T ext. ref 2 (°C)	31.56length (m)	temperature (°C)	Stokes	anti-Stokes-747.200	22.316	0.256	-0.212
-746.185	88.917	0.212	0.239
-745.171	-13.053	-0.106	0.070
-744.156	-200.000	0.044	0.319
-743.142	-108.513	-0.425	0.093
-742.127	293.048	-0.172	0.317
-741.112	-56.799	-0.138	-0.062
-740.098	77.598	-0.320	0.346
-739.083	46.856	0.094	-0.089
-738.069	41.072	0.188	0.172
-737.054	-12.465	-0.501	-0.331
-736.039	190.891	0.027	0.041
-735.025	800.000	-0.049	0.136
-734.010	83.076	0.131	0.145
-732.996	770.397	-0.036	0.098
-731.981	40.708	-0.113	-0.103
-730.966	-160.276	-0.428	-0.023
-729.952	-127.992	0.115	0.017
-728.937	-200.000	0.069	-0.336
-727.923	-200.000	0.010	0.291
-726.908	-152.864	-0.346	0.025
-725.894	800.000	0.036	-0.125
-724.879	269.647	-0.144	-0.257
-723.864	-200.000	-0.027	-0.261
-722.850	142.544	-0.101	-0.136
-721.835	-112.473	0.108	0.022
-720.821	187.545	0.062	0.093
-719.806	-63.033	0.344	0.144
-718.791	-47.380	-0.161	0.080
-717.777	216.822	0.109	-0.176
-716.762	-101.177	0.169	-0.042
-715.748	-56.135	-0.379	0.171
-714.733	578.432	-0.043	-0.106
-713.718	800.000	-0.012	-0.037
-712.704	13.046	-0.104	-0.082
-711.689	50.991	-0.026	0.025
-710.675	-200.000	0.005	-0.222
-709.660	-83.779	0.265	0.086
-708.645	-160.976	0.532	-0.028
-707.631	800.000	0.106	0.302
-706.616	47.140	0.178	0.167
-705.602	-49.803	0.311	0.149
-704.587	18.486	0.024	0.020
-703.572	-27.648	-0.167	-0.098
-702.558	-112.528	0.067	-0.014
-701.543	358.929	0.078	0.159
-700.529	186.689	-0.119	0.180
-699.514	-200.000	-0.048	0.245
-698.499	-92.467	-0.138	-0.039
-697.485	-84.965	-0.197	-0.062
-696.470	-120.821	0.114	-0.019
-695.456	-200.000	-0.059	0.453
-694.441	224.327	-0.090	0.148
-693.426	800.000	0.041	0.152
-692.412	-37.315	-0.190	0.103
-691.397	126.852	-0.141	-0.181
-690.383	20.870	-0.060	-0.049
-689.368	-83.059	-0.298	-0.097
-688.354	-27.345	0.253	-0.149
-687.339	-87.944	0.432	-0.131
-686.324	-200.000	0.014	-0.110
-685.310	-130.779	0.057	-0.008
-684.295	63.519	-0.214	-0.217
-683.281	41.420	0.147	0.134
-682.266	317.430	-0.050	0.095
-681.251	-51.247	-0.208	0.098
-680.237	96.127	0.038	-0.044
-679.222	-1.239	-0.316	-0.226
-678.208	-72.248	-0.115	-0.043
-677.193	80.393	0.144	-0.157
-676.178	138.902	0.176	0.234
-675.164	353.621	0.082	0.165
-674.149	-200.000	0.010	0.101
-673.135	507.120	-0.181	0.425
-672.120	73.690	-0.232	-0.245
-671.105	-80.558	0.470	0.158
-670.091	800.000	-0.118	-0.385
-669.076	16.996	0.086	0.069
-668.062	258.346	0.043	-0.074
-667.047	204.199	0.096	-0.150
-666.032	-39.403	0.119	-0.063
-665.018	-200.000	-0.001	-0.316
-664.003	800.000	-0.118	-0.516
-662.989	-115.782	-0.295	-0.056
-661.974	-200.000	-0.007	0.129
-660.959	-150.834	0.113	-0.009
-659.945	-200.000	-0.025	-0.336
-658.930	-200.000	0.031	0.340
-657.916	262.057	0.275	0.482
-656.901	-196.987	-0.094	-0.001
-655.886	487.499	0.101	-0.232
-654.872	178.418	-0.159	-0.234
-653.857	-24.264	-0.087	-0.052
-652.843	-13.264	0.025	-0.017
-651.828	125.382	-0.173	-0.220
-650.814	-200.000	-0.004	-0.076
-649.799	-48.567	-0.242	-0.118
-648.784	-21.290	0.295	-0.182
-647.770	-164.447	-0.189	-0.009
-646.755	-58.484	-0.211	0.093
-645.741	-152.167	-0.421	-0.031
-644.726	202.057	0.101	-0.158
-643.711	86.737	-0.194	-0.216
-642.697	408.956	-0.030	0.064
-641.682	-80.975	-0.300	-0.101
-640.668	800.000	-0.059	0.242
-639.653	553.269	-0.095	-0.230
-638.638	51.493	0.135	0.130
-637.624	-117.873	-0.052	-0.009
-636.609	200.210	-0.259	0.401
-635.595	-200.000	-0.005	0.678
-634.580	-9.846	0.044	0.030
-633.565	411.909	-0.030	-0.065
-632.551	69.688	0.266	0.277
-631.536	30.852	0.144	0.124
-630.522	59.321	0.079	0.078
-629.507	-118.476	-0.316	0.057
-628.492	-78.112	0.240	-0.083
-627.478	800.000	0.040	-0.112
-626.463	-17.187	-0.294	0.187
-625.449	74.398	-0.274	-0.290
-624.434	800.000	-0.069	-0.293
-623.419	30.628	-0.112	-0.097
-622.405	97.244	0.178	0.207
-621.390	-159.088	0.200	-0.011
-620.376	82.695	-0.221	0.242
-619.361	800.000	-0.045	-0.132
-618.346	-128.404	0.156	-0.022
-617.332	-87.757	0.066	0.020
-616.317	-200.000	-0.020	-0.198
-615.303	-2.150	-0.091	0.064
-614.288	800.000	0.049	-0.170
-613.273	-139.837	-0.302	-0.032
-612.259	38.448	0.161	-0.145
-611.244	164.625	-0.054	0.077
-610.230	-200.000	-0.018	-0.218
-609.215	11.758	0.178	0.137
-608.201	-2.279	0.183	-0.129
-607.186	800.000	-0.038	-0.149
-606.171	800.000	-0.008	-0.026
-605.157	166.214	0.208	0.297
-604.142	7.831	-0.182	-0.138
-603.128	582.656	0.072	-0.179
-602.113	-20.245	-0.225	0.140
-601.098	-95.662	0.277	0.075
-600.084	97.166	0.129	-0.149
-599.069	-94.549	0.231	0.063
-598.055	-200.000	-0.022	-0.210
-597.040	-200.000	-0.013	0.078
-596.025	129.749	0.144	-0.186
-595.011	-31.715	-0.252	0.142
-593.996	84.402	0.071	0.078
-592.982	-64.492	0.251	-0.103
-591.967	629.162	-0.104	0.266
-590.952	-68.316	-0.150	0.059
-589.938	504.779	-0.039	0.090
-588.923	83.416	-0.044	0.048
-587.909	126.030	0.056	0.071
-586.894	-24.211	-0.338	-0.203
-585.879	-38.060	-0.230	0.123
-584.865	-200.000	-0.014	-0.146
-583.850	80.103	0.164	-0.178
-582.836	-10.848	-0.149	-0.099
-581.821	-32.247	0.283	-0.159
-580.806	1.699	0.291	0.211
-579.792	-200.000	-0.066	-0.349
-578.777	38.611	-0.213	0.192
-577.763	-105.298	0.099	0.023
-576.748	-200.000	0.071	0.318
-575.733	3.391	0.147	-0.108
-574.719	88.472	0.090	-0.101
-573.704	782.506	-0.103	0.285
-572.690	-54.017	0.191	-0.087
-571.675	1.133	0.204	0.147
-570.661	-101.486	-0.153	0.037
-569.646	-18.842	0.171	0.107
-568.631	-26.718	-0.131	0.077
-567.617	-200.000	0.014	0.094
-566.602	800.000	-0.043	-0.169
-565.588	-138.726	0.259	-0.028
-564.573	62.869	0.187	-0.188
-563.558	-161.219	-0.284	-0.015
-562.544	-145.135	0.350	-0.032
-561.529	-200.000	0.039	0.177
-560.515	-48.323	-0.134	-0.065
-559.500	79.718	0.186	0.200
-558.485	-54.553	0.047	-0.021
-557.471	-77.260	-0.184	0.064
-556.456	-89.394	0.187	-0.055
-555.442	-77.137	0.261	0.092
-554.427	-73.573	0.168	-0.062
-553.412	-195.508	0.244	-0.002
-552.398	800.000	0.021	-0.065
-551.383	-200.000	0.013	-0.065
-550.369	800.000	0.016	0.070
-549.354	782.243	0.088	-0.243
-548.339	179.284	-0.159	-0.235
-547.325	17.866	-0.262	0.210
-546.310	119.173	-0.037	0.046
-545.296	-200.000	-0.032	0.402
-544.281	24.923	-0.044	-0.037
-543.266	53.983	-0.075	-0.073
-542.252	-35.362	0.171	-0.094
-541.237	274.779	-0.132	-0.234
-540.223	611.621	0.092	-0.231
-539.208	44.230	0.106	0.098
-538.193	119.764	-0.280	-0.350
-537.179	-200.000	0.071	-0.345
-536.164	43.115	-0.290	-0.266
-535.150	-118.307	-0.357	0.064
-534.135	743.910	0.037	0.100
-533.121	-61.332	0.367	-0.155
-532.106	648.881	0.078	-0.200
-531.091	85.970	0.083	-0.091
-530.077	28.112	0.049	0.042
-529.062	-45.100	0.223	0.112
-528.048	-200.000	-0.024	-0.114
-527.033	-200.000	0.018	0.193
-526.018	800.000	-0.102	0.322
-525.004	-135.115	-0.110	0.013
-523.989	412.556	0.057	0.121
-522.975	-200.000	0.009	0.210
-521.960	800.000	0.069	0.196
-520.945	587.743	-0.062	-0.153
-519.931	111.541	0.081	-0.098
-518.916	-32.673	-0.124	-0.070
-517.902	19.609	0.101	-0.082
-516.887	413.324	0.100	-0.214
-515.872	-90.798	-0.302	0.087
-514.858	800.000	0.077	-0.228
-513.843	-39.363	0.252	-0.133
-512.829	42.936	0.099	0.091
-511.814	-114.013	-0.287	0.056
-510.799	-200.000	0.009	0.069
-509.785	-15.822	-0.243	0.156
-508.770	-200.000	-0.029	0.169
-507.756	-2.673	-0.192	-0.135
-506.741	50.570	-0.056	-0.053
-505.726	-58.909	-0.233	-0.101
-504.712	-68.336	-0.207	0.081
-503.697	-34.870	-0.320	-0.175
-502.683	800.000	-0.025	-0.099
-501.668	-44.803	-0.290	0.145
-500.653	-83.044	0.092	0.030
-499.639	-162.547	-0.132	0.007
-498.624	-66.200	0.263	-0.105
-497.610	137.758	-0.069	-0.091
-496.595	8.684	0.020	0.015
-495.581	-49.021	0.363	-0.175
-494.566	392.575	0.061	-0.128
-493.551	-105.863	0.195	0.044
-492.537	-200.000	0.011	0.054
-491.522	800.000	-0.137	0.400
-490.508	-13.719	-0.446	0.290
-489.493	-82.476	0.211	0.069
-488.478	36.512	-0.036	0.032
-487.464	28.861	-0.295	0.251
-486.449	-50.946	-0.079	-0.037
-485.435	59.996	-0.268	-0.266
-484.420	-65.623	0.077	0.031
-483.405	-200.000	-0.044	0.199
-482.391	-200.000	0.011	0.163
-481.376	-86.961	-0.168	-0.051
-480.362	175.981	-0.183	0.267
-479.347	109.609	-0.157	-0.188
-478.332	-184.463	0.389	0.006
-477.318	353.026	0.134	0.268
-476.303	800.000	0.063	0.196
-475.289	-1.162	-0.323	-0.229
-474.274	-178.496	-0.197	0.005
-473.259	-65.338	-0.253	0.102
-472.245	68.464	-0.211	-0.217
-471.230	99.324	0.101	-0.118
-470.216	80.281	-0.098	-0.105
-469.201	117.373	-0.220	0.271
-468.186	137.314	0.113	0.148
-467.172	-16.414	-0.262	0.167
-466.157	123.789	0.071	-0.090
-465.143	-180.858	0.242	0.005
-464.128	-200.000	0.013	0.219
-463.113	-200.000	-0.036	0.261
-462.099	-200.000	-0.086	0.529
-461.084	-146.269	-0.244	-0.021
-460.070	-94.474	0.114	-0.031
-459.055	-118.999	0.220	-0.039
-458.040	184.007	-0.133	-0.197
-457.026	800.000	-0.040	0.173
-456.011	-98.313	-0.044	0.011
-454.997	-86.920	-0.190	0.058
-453.982	-194.953	-0.369	-0.003
-452.968	800.000	0.078	-0.305
-451.953	126.271	-0.219	-0.277
-450.938	800.000	0.071	-0.199
-449.924	-51.265	-0.295	-0.138
-448.909	202.610	-0.101	-0.157
-447.895	-143.343	0.110	-0.011
-446.880	-42.104	0.177	-0.091
-445.865	-145.685	0.118	-0.011
-444.851	800.000	0.046	0.156
-443.836	-49.145	-0.114	0.055
-442.822	-200.000	-0.027	0.195
-441.807	-126.790	-0.433	0.064
-440.792	-200.000	-0.000	0.114
-439.778	-20.821	0.065	0.040
-438.763	800.000	-0.052	-0.219
-437.749	-119.881	-0.212	0.036
-436.734	81.719	-0.172	-0.187
-435.719	-70.304	0.099	-0.038
-434.705	-81.144	0.330	-0.109
-433.690	345.012	-0.105	-0.206
-432.676	-200.000	-0.005	0.067
-431.661	217.015	0.123	0.196
-430.646	-33.624	0.095	0.053
-429.632	35.541	-0.044	0.039
-428.617	-87.948	-0.136	0.041
-427.603	-32.907	-0.187	0.104
-426.588	-200.000	0.071	0.366
-425.573	56.903	0.278	0.271
-424.559	305.786	0.165	0.307
-423.544	-176.263	0.176	-0.005
-422.530	657.911	0.020	0.052
-421.515	-18.313	0.204	-0.127
-420.500	94.046	0.042	-0.047
-419.486	800.000	-0.108	0.473
-418.471	249.977	0.264	0.448
-417.457	-117.569	-0.235	0.043
-416.442	-85.016	0.355	0.111
-415.428	423.041	-0.199	0.428
-414.413	-9.095	-0.132	-0.088
-413.398	416.699	0.201	-0.430
-412.384	-164.201	-0.134	-0.006
-411.369	-39.697	-0.308	0.161
-410.355	38.256	0.081	-0.072
-409.340	-165.959	-0.420	-0.018
-408.325	502.377	-0.183	-0.424
-407.311	-200.000	-0.077	-0.409
-406.296	-142.413	0.213	-0.021
-405.282	-46.782	0.097	-0.047
-404.267	-200.000	-0.006	0.114
-403.252	-10.822	0.207	-0.137
-402.238	800.000	0.064	0.273
-401.223	-11.106	-0.179	0.118
-400.209	176.851	-0.193	0.280
-399.194	800.000	0.020	0.064
-398.179	-200.000	0.037	-0.221
-397.165	170.890	-0.128	-0.184
-396.150	-43.468	-0.089	0.045
-395.136	472.626	-0.121	-0.273
-394.121	-200.000	-0.000	0.323
-393.106	-102.062	0.175	0.042
-392.092	-200.000	0.018	-0.275
-391.077	-10.271	0.128	-0.085
-390.063	46.015	-0.017	-0.016
-389.048	609.424	0.090	0.224
-388.033	-104.392	-0.143	0.033
-387.019	-58.923	0.080	0.035
-386.004	-200.000	0.043	0.285
-384.990	268.450	0.142	-0.249
-383.975	-66.319	0.378	0.150
-382.960	173.173	0.126	0.182
-381.946	-200.000	0.048	-0.317
-380.931	-200.000	-0.007	0.198
-379.917	-200.000	-0.007	-0.211
-378.902	-114.169	0.242	-0.047
-377.888	-200.000	-0.045	-0.243
-376.873	-200.000	-0.032	-0.162
-375.858	-78.506	0.265	-0.091
-374.844	-112.011	-0.188	0.038
-373.829	232.491	-0.246	-0.404
-372.815	304.373	-0.063	0.117
-371.800	-200.000	-0.027	-0.145
-370.785	-200.000	-0.009	-0.199
-369.771	235.881	-0.193	-0.319
-368.756	82.579	-0.337	0.366
-367.742	800.000	0.128	-0.482
-366.727	393.261	-0.068	-0.142
-365.712	679.813	-0.109	0.283
-364.698	-200.000	-0.024	-0.133
-363.683	-200.000	0.028	-0.275
-362.669	135.550	0.145	0.188
-361.654	477.035	-0.082	-0.186
-360.639	35.931	0.068	-0.060
-359.625	-200.000	-0.040	-0.263
-358.610	175.183	0.142	-0.206
-357.596	346.476	-0.076	0.150
-356.581	800.000	-0.068	-0.274
-355.566	-136.130	-0.120	-0.014
-354.552	-161.782	0.129	-0.007
-353.537	26.842	-0.117	0.098
-352.523	-200.000	0.004	0.109
-351.508	-177.145	0.198	0.005
-350.493	800.000	-0.027	0.101
-349.479	-200.000	0.009	0.127
-348.464	-200.000	-0.023	-0.247
-347.450	67.328	0.237	-0.241
-346.435	-200.000	-0.005	-0.049
-345.420	-99.020	0.154	-0.039
-344.406	-112.063	-0.092	-0.019
-343.391	-200.000	-0.034	-0.379
-342.377	800.000	-0.049	0.160
-341.362	60.463	-0.051	0.050
-340.348	9.870	-0.259	0.196
-339.333	68.137	0.389	-0.397
-338.318	-33.338	0.457	-0.253
-337.304	-71.285	-0.161	0.060
-336.289	-200.000	-0.006	0.131
-335.275	99.132	-0.228	0.263
-334.260	148.605	0.133	0.179
-333.245	-200.000	0.027	-0.212
-332.231	-200.000	0.006	-0.090
-331.216	800.000	0.015	-0.058
-330.202	-78.694	0.098	-0.033
-329.187	74.519	0.098	-0.103
-328.172	132.848	0.138	-0.178
-327.158	800.000	0.025	0.096
-326.143	-92.290	-0.175	-0.049
-325.129	-23.724	0.160	0.096
-324.114	-156.821	-0.326	0.020
-323.099	-200.000	-0.004	-0.081
-322.085	800.000	-0.042	-0.153
-321.070	-38.232	0.154	-0.081
-320.056	800.000	0.054	-0.227
-319.041	-19.052	-0.084	0.052
-318.026	48.221	0.070	-0.065
-317.012	-15.893	0.150	0.095
-315.997	-41.440	-0.095	0.049
-314.983	-200.000	-0.011	0.160
-313.968	157.853	0.113	-0.156
-312.953	-35.239	-0.348	0.189
-311.939	-200.000	0.036	0.416
-310.924	642.969	0.090	0.228
-309.910	-136.859	-0.018	0.002
-308.895	800.000	0.112	0.399
-307.880	29.605	-0.082	-0.069
-306.866	-148.024	-0.209	-0.017
-305.851	800.000	0.056	-0.177
-304.837	-115.577	-0.319	0.060
-303.822	395.193	-0.084	0.174
-302.807	125.757	-0.134	0.169
-301.793	-152.179	0.150	-0.011
-300.778	-200.000	-0.000	0.115
-299.764	186.487	-0.255	-0.378
-298.749	129.327	0.263	-0.335
-297.735	656.404	0.092	0.236
-296.720	-200.000	0.038	0.209
-295.705	126.311	-0.094	-0.118
-294.691	-66.115	-0.280	0.111
-293.676	136.299	0.158	-0.206
-292.662	300.094	0.073	-0.134
-291.647	-200.000	-0.007	0.201
-290.632	-200.000	0.025	0.113
-289.618	-200.000	-0.009	-0.078
-288.603	328.777	-0.097	-0.186
-287.589	190.462	-0.050	-0.075
-286.574	42.760	-0.218	-0.197
-285.559	119.313	-0.127	0.157
-284.545	422.892	0.118	-0.253
-283.530	126.945	-0.125	-0.158
-282.516	-108.145	0.147	-0.032
-281.501	-23.328	-0.090	0.054
-280.486	-93.150	0.295	0.082
-279.472	87.995	0.098	0.109
-278.457	129.072	-0.130	0.164
-277.443	23.431	-0.038	-0.031
-276.428	77.358	0.072	0.076
-275.413	-116.453	-0.135	0.025
-274.399	-108.110	0.216	-0.047
-273.384	158.820	0.142	-0.197
-272.370	-175.939	-0.184	-0.005
-271.355	800.000	0.022	0.062
-270.340	-173.358	-0.276	0.008
-269.326	-84.633	-0.206	-0.065
-268.311	0.042	0.153	-0.109
-267.297	-88.736	-0.353	-0.104
-266.282	69.249	-0.130	-0.133
-265.267	-92.818	0.327	-0.091
-264.253	-29.926	0.260	0.147
-263.238	131.044	0.058	-0.075
-262.224	-39.026	-0.210	-0.110
-261.209	-200.000	-0.031	-0.257
-260.195	800.000	0.087	0.292
-259.180	-200.000	0.038	0.339
-258.165	541.527	0.115	0.272
-257.151	47.600	-0.236	0.219
-256.136	1.140	-0.329	-0.235
-255.122	-70.611	0.276	-0.104
-254.107	113.755	0.177	0.214
-253.092	300.667	0.135	-0.247
-252.078	319.404	0.024	0.044
-251.063	-200.000	-0.003	-0.165
-250.049	-77.461	0.058	-0.020
-249.034	-113.794	-0.168	0.033
-248.019	-32.509	-0.148	-0.082
-247.005	33.072	0.136	0.117
-245.990	-200.000	0.251	0.001
-244.976	-52.429	0.212	-0.098
-243.961	64.491	0.045	0.045
-242.946	800.000	0.118	0.471
-241.932	430.651	0.060	0.130
-240.917	-105.068	0.170	0.039
-239.903	-33.811	0.137	-0.075
-238.888	-183.973	0.197	-0.003
-237.873	65.478	0.090	0.091
-236.859	-164.251	0.111	-0.005
-235.844	151.182	0.142	0.192
-234.830	800.000	-0.083	0.280
-233.815	182.081	0.076	-0.112
-232.800	-200.000	0.040	-0.425
-231.786	-47.916	0.284	0.136
-230.771	0.485	-0.142	0.101
-229.757	-45.038	0.304	-0.150
-228.742	222.125	0.195	-0.311
-227.727	-200.000	0.002	-0.063
-226.713	67.249	0.092	-0.093
-225.698	-183.070	0.225	-0.004
-224.684	-136.231	0.274	0.032
-223.669	581.360	-0.106	-0.258
-222.655	19.565	0.082	-0.066
-221.640	-137.754	0.165	0.018
-220.625	-73.429	0.448	0.163
-219.611	-128.818	-0.089	0.012
-218.596	-96.097	-0.143	0.038
-217.582	-71.699	-0.077	-0.029
-216.567	55.671	-0.120	-0.116
-215.552	-200.000	-0.025	0.226
-214.538	-41.619	-0.176	-0.090
-213.523	102.153	0.183	0.212
-212.509	319.556	-0.077	-0.145
-211.494	-168.427	-0.192	0.007
-210.479	791.341	0.084	0.230
-209.465	115.126	0.061	0.073
-208.450	509.112	-0.113	0.260
-207.436	-200.000	-0.001	0.008
-206.421	118.318	0.105	-0.128
-205.406	-200.000	-0.013	-0.217
-204.392	-76.510	-0.150	0.052
-203.377	-81.312	0.421	-0.138
-202.363	-94.502	0.079	0.021
-201.348	86.377	0.355	0.389
-200.333	56.417	0.222	-0.214
-199.319	-163.547	0.389	0.018
-198.304	-200.000	0.059	-0.279
-197.290	187.597	-0.238	0.353
-196.275	496.032	-0.041	-0.093
-195.260	142.921	0.163	-0.215
-194.246	-45.829	0.124	-0.061
-193.231	133.251	0.220	-0.282
-192.217	800.000	-0.090	-0.274
-191.202	412.800	0.018	0.037
-190.187	366.361	0.039	-0.079
-189.173	782.684	0.109	0.295
-188.158	-200.000	-0.041	0.241
-187.144	15.224	-0.045	0.035
-186.129	217.284	-0.045	0.071
-185.114	800.000	0.029	0.090
-184.100	43.988	0.239	0.218
-183.085	-117.295	0.241	-0.043
-182.071	-200.000	-0.007	-0.278
-181.056	-114.963	-0.092	0.017
-180.042	17.274	-0.173	0.136
-179.027	-71.771	-0.247	0.091
-178.012	-161.707	0.097	-0.005
-176.998	565.169	0.087	-0.210
-175.983	800.000	-0.029	0.093
-174.969	-84.771	-0.064	-0.020
-173.954	-200.000	0.002	-0.063
-172.939	-119.109	0.371	0.064
-171.925	-200.000	-0.019	0.243
-170.910	-108.270	0.013	0.003
-169.896	-47.120	-0.221	0.107
-168.881	130.170	0.166	0.210
-167.866	-200.000	0.013	0.215
-166.852	56.666	-0.243	0.234
-165.837	800.000	0.089	-0.248
-164.823	-24.255	0.294	0.174
-163.808	577.028	-0.101	-0.244
-162.793	-70.949	0.056	-0.021
-161.779	-136.181	-0.320	0.037
-160.764	86.637	-0.100	-0.109
-159.750	-150.165	-0.334	0.026
-158.735	-57.322	0.053	-0.023
-157.720	-25.676	-0.026	0.015
-156.706	-25.927	0.028	0.016
-155.691	-200.000	-0.008	-0.106
-154.677	800.000	-0.034	-0.139
-153.662	800.000	-0.024	0.093
-152.647	413.010	-0.091	0.191
-151.633	99.693	-0.121	0.139
-150.618	-61.926	0.083	-0.034
-149.604	42.508	0.174	-0.156
-148.589	79.945	0.070	0.075
-147.574	284.398	0.140	0.250
-146.560	-123.849	-0.185	-0.029
-145.545	112.572	-0.135	0.162
-144.531	264.188	0.174	0.300
-143.516	546.068	-0.061	0.143
-142.502	146.140	-0.148	0.196
-141.487	378.078	0.227	0.459
-140.472	-92.613	0.412	0.115
-139.458	-91.079	-0.405	-0.115
-138.443	-200.000	-0.007	-0.131
-137.429	158.025	-0.092	0.127
-136.414	-70.365	0.115	-0.043
-135.399	-200.000	-0.101	-0.458
-134.385	394.141	0.143	-0.295
-133.370	-90.526	0.219	0.063
-132.356	-116.270	-0.106	0.019
-131.341	-200.000	-0.017	0.088
-130.326	-200.000	-0.001	-0.269
-129.312	-63.442	-0.020	-0.008
-128.297	-71.280	-0.241	0.089
-127.283	-100.453	0.292	-0.072
-126.268	30.639	-0.276	0.234
-125.253	800.000	0.075	0.312
-124.239	800.000	0.068	0.189
-123.224	-152.671	-0.196	-0.014
-122.210	-11.797	-0.181	0.118
-121.195	-200.000	0.049	-0.388
-120.180	-200.000	0.054	-0.242
-119.166	-114.879	0.409	0.077
-118.151	-37.853	-0.359	0.189
-117.137	136.479	-0.101	0.130
-116.122	800.000	0.044	-0.152
-115.107	-198.785	0.186	0.001
-114.093	-200.000	-0.100	-0.458
-113.078	74.919	0.100	0.104
-112.064	196.113	-0.065	0.098
-111.049	-200.000	0.011	0.155
-110.034	54.089	-0.034	0.032
-109.020	-200.000	-0.033	-0.199
-108.005	108.329	0.174	0.206
-106.991	328.040	-0.148	-0.280
-105.976	138.067	-0.046	-0.060
-104.962	43.419	0.314	0.283
-103.947	-132.020	-0.355	0.046
-102.932	-200.000	-0.051	0.231
-101.918	-200.000	-0.021	-0.092
-100.903	379.075	0.229	0.463
-99.889	10.099	-0.306	0.230
-98.874	-145.844	-0.236	0.021
-97.859	550.745	0.036	-0.086
-96.845	-3.562	0.152	0.105
-95.830	-200.000	-0.058	0.374
-94.816	-200.000	0.040	0.247
-93.801	-37.419	0.196	-0.103
-92.786	496.958	-0.089	0.202
-91.772	-99.636	0.175	-0.043
-90.757	153.100	0.101	-0.137
-89.743	258.821	-0.028	-0.048
-88.728	-71.525	-0.277	0.102
-87.713	-103.432	0.065	-0.015
-86.699	-72.937	0.177	0.064
-85.684	-200.000	-0.035	-0.363
-84.670	-200.000	0.026	0.232
-83.655	-139.166	-0.219	0.023
-82.640	-108.633	-0.135	-0.029
-81.626	110.550	0.241	-0.287
-80.611	369.823	0.074	-0.149
-79.597	-13.461	0.170	0.109
-78.582	71.499	-0.175	-0.180
-77.567	-95.047	-0.050	0.013
-76.553	-167.596	0.219	-0.009
-75.538	800.000	-0.104	0.335
-74.524	-112.012	-0.048	0.010
-73.509	80.651	0.202	0.215
-72.494	-121.026	-0.350	0.058
-71.480	-121.309	-0.084	-0.014
-70.465	-68.300	0.308	0.118
-69.451	28.731	0.271	0.226
-68.436	-19.817	0.278	0.170
-67.422	-30.040	-0.352	0.198
-66.407	88.287	0.117	0.129
-65.392	-103.063	-0.415	0.097
-64.378	202.967	0.052	0.079
-63.363	763.755	-0.155	-0.416
-62.349	77.378	-0.110	0.115
-61.334	262.943	-0.484	-0.830
-60.319	122.387	0.348	0.429
-59.305	66.582	-0.474	-0.476
-58.290	116.676	0.663	0.803
-57.276	373.025	0.631	1.265
-56.261	-200.000	95.392	564.900
-55.246	646.078	1382.017	3482.534
-54.232	187.106	2608.136	3836.248
-53.217	116.749	2307.901	2794.379
-52.203	44.519	1921.078	1741.491
-51.188	38.000	1707.501	1497.977
-50.173	35.125	1662.504	1436.915
-49.159	51.973	1711.082	1607.489
-48.144	55.729	1728.286	1652.138
-47.130	37.710	1684.472	1475.344
-46.115	34.765	1669.579	1440.091
-45.100	34.641	1664.544	1434.759
-44.086	34.584	1662.070	1432.141
-43.071	34.560	1659.362	1429.571
-42.057	34.560	1656.613	1427.147
-41.042	34.573	1654.823	1425.645
-40.027	34.476	1653.332	1423.579
-39.013	34.542	1650.909	1421.927
-37.998	34.538	1649.197	1420.366
-36.984	34.517	1648.430	1419.490
-35.969	34.621	1646.676	1418.703
-34.954	34.693	1645.261	1417.959
-33.940	34.659	1642.760	1415.499
-32.925	34.747	1640.882	1414.475
-31.911	34.683	1639.355	1412.631
-30.896	34.725	1637.324	1411.130
-29.881	34.749	1635.778	1409.921
-28.867	34.728	1634.681	1408.763
-27.852	34.785	1632.641	1407.367
-26.838	34.750	1631.399	1405.986
-25.823	34.669	1630.073	1404.190
-24.809	34.785	1628.580	1403.702
-23.794	34.736	1627.247	1402.140
-22.779	34.780	1625.575	1400.965
-21.765	34.724	1623.853	1399.014
-20.750	34.764	1622.065	1397.709
-19.736	34.732	1621.156	1396.637
-18.721	34.767	1619.281	1395.225
-17.706	34.704	1617.638	1393.292
-16.692	34.726	1615.902	1391.904
-15.677	34.678	1614.743	1390.496
-14.663	34.718	1613.552	1389.710
-13.648	34.741	1612.272	1388.721
-12.633	34.710	1610.511	1386.919
-11.619	34.722	1608.853	1385.524
-10.604	34.756	1607.320	1384.395
-9.590	34.798	1605.802	1383.337
-8.575	34.700	1605.323	1382.159
-7.560	34.763	1603.530	1381.020
-6.546	34.695	1602.458	1379.548
-5.531	34.749	1601.378	1378.952
-4.517	34.700	1600.434	1377.736
-3.502	34.752	1598.990	1376.813
-2.487	34.740	1598.056	1375.865
-1.473	34.717	1586.806	1365.958
-0.458	32.177	1567.420	1331.246
0.556	30.804	1566.462	1295.343
1.571	27.744	1589.662	1292.773
2.586	26.605	1601.682	1294.295
3.600	23.198	1547.967	1227.202
4.615	14.202	1436.800	1080.799
5.629	6.352	1370.729	982.196
6.644	4.905	1361.733	966.691
7.659	4.790	1360.265	964.849
8.673	4.827	1359.586	964.514
9.688	4.858	1358.544	963.883
10.702	4.845	1355.475	961.538
11.717	8.558	1363.110	989.888
12.731	17.179	1378.229	1054.515
13.746	22.556	1386.105	1093.922
14.761	22.633	1385.575	1093.886
15.775	21.720	1383.282	1086.322
16.790	20.753	1380.679	1078.193
17.804	19.940	1378.277	1071.197
18.819	19.540	1377.063	1067.683
19.834	19.333	1376.254	1065.680
20.848	19.232	1374.773	1063.818
21.863	19.008	1374.052	1061.780
22.877	18.882	1372.713	1059.875
23.892	18.832	1371.866	1058.818
24.907	18.981	1370.396	1058.506
25.921	18.932	1369.860	1057.701
26.936	18.929	1368.731	1056.718
27.950	19.024	1367.787	1056.478
28.965	19.196	1366.803	1056.680
29.980	19.179	1366.236	1056.043
30.994	19.314	1364.897	1055.741
32.009	19.294	1363.557	1054.493
33.023	19.215	1362.565	1053.148
34.038	19.232	1361.262	1052.148
35.053	19.167	1360.158	1050.804
36.067	19.189	1358.331	1049.436
37.082	19.169	1357.850	1048.849
38.096	19.134	1357.030	1047.911
39.111	19.184	1356.693	1047.862
40.126	19.058	1355.462	1046.050
41.140	18.809	1354.576	1043.763
42.155	18.581	1354.069	1041.893
43.169	18.763	1353.056	1042.130
44.184	18.636	1353.393	1041.526
45.199	18.758	1352.594	1041.558
46.213	18.845	1352.342	1041.802
47.228	18.979	1351.883	1042.168
48.242	19.077	1350.636	1041.706
49.257	19.049	1349.334	1040.442
50.271	19.037	1347.466	1038.834
51.286	19.056	1346.232	1037.905
52.301	19.131	1344.874	1037.217
53.315	18.824	1344.196	1034.757
54.330	18.805	1342.942	1033.585
55.344	18.767	1341.731	1032.332
56.359	18.756	1341.156	1031.730
57.374	18.714	1340.259	1030.702
58.388	18.659	1339.152	1029.427
59.403	18.622	1338.868	1028.897
60.417	18.771	1337.651	1028.763
61.432	18.586	1336.978	1027.046
62.447	18.450	1336.140	1025.496
63.461	18.448	1335.103	1024.596
64.476	18.417	1334.304	1023.710
65.490	18.399	1332.543	1022.158
66.505	18.470	1331.146	1021.419
67.520	18.521	1330.128	1020.857
68.534	18.526	1329.017	1019.943
69.549	18.554	1328.181	1019.374
70.563	18.408	1326.846	1017.395
71.578	18.325	1325.965	1016.138
72.593	18.338	1324.988	1015.374
73.607	18.330	1324.035	1014.503
74.622	18.224	1324.072	1013.817
75.636	18.449	1323.209	1014.400
76.651	18.429	1322.594	1013.717
77.666	18.364	1322.184	1012.932
78.680	18.420	1321.600	1012.722
79.695	18.600	1320.810	1013.094
80.709	18.613	1320.088	1012.527
81.724	18.656	1319.832	1012.492
82.739	18.752	1319.107	1012.412
83.753	18.918	1318.076	1012.513
84.768	19.059	1317.541	1012.842
85.782	19.184	1316.044	1012.337
86.797	19.145	1314.689	1010.972
87.812	19.056	1313.666	1009.574
88.826	18.997	1312.697	1008.398
89.841	18.953	1311.916	1007.451
90.855	19.126	1310.665	1007.409
91.870	19.119	1309.869	1006.668
92.884	19.172	1308.922	1006.160
93.899	19.245	1308.113	1005.880
94.914	19.319	1307.510	1005.756
95.928	19.343	1306.387	1004.943
96.943	19.282	1305.143	1003.541
97.957	19.208	1304.398	1002.452
98.972	19.209	1303.363	1001.570
99.987	19.192	1302.502	1000.722
101.001	19.189	1301.278	999.678
102.016	19.102	1300.910	998.803
103.030	19.153	1299.577	997.987
104.045	19.108	1299.259	997.393
105.060	19.032	1297.878	995.803
106.074	18.872	1296.058	993.396
107.089	18.613	1294.351	990.502
108.103	18.533	1293.108	989.002
109.118	18.548	1291.908	988.083
110.133	18.589	1290.339	987.031
111.147	18.593	1289.395	986.246
112.162	18.611	1288.388	985.489
113.176	18.653	1287.334	984.838
114.191	18.743	1286.209	984.409
115.206	18.695	1285.641	983.612
116.220	18.624	1284.106	981.944
117.235	18.668	1282.712	981.038
118.249	18.562	1281.960	979.772
119.264	18.533	1280.503	978.407
120.279	18.623	1278.919	977.622
121.293	18.417	1278.540	976.073
122.308	18.370	1277.359	974.820
123.322	18.263	1276.590	973.539
124.337	18.348	1275.078	972.780
125.352	18.357	1273.944	971.879
126.366	18.379	1272.894	971.120
127.381	18.281	1271.967	969.769
128.395	18.376	1270.802	969.334
129.410	18.403	1270.351	969.057
130.424	18.477	1269.352	968.627
131.439	18.666	1268.490	968.951
132.454	18.686	1267.419	968.160
133.468	18.672	1267.367	967.954
134.483	18.631	1266.182	966.733
135.497	18.740	1265.229	966.537
136.512	18.745	1263.933	965.485
137.527	18.733	1262.707	964.398
138.541	18.842	1261.023	963.635
139.556	18.830	1259.726	962.497
140.570	18.896	1259.399	962.529
141.585	19.027	1257.932	962.056
142.600	19.130	1256.932	961.778
143.614	19.072	1256.093	960.732
144.629	19.202	1255.365	960.812
145.643	19.208	1253.527	959.354
146.658	19.092	1252.713	958.000
147.673	18.866	1251.290	955.571
148.687	18.678	1249.963	953.428
149.702	18.746	1248.246	952.414
150.716	18.664	1246.990	950.915
151.731	18.703	1246.043	950.327
152.746	18.857	1244.575	949.974
153.760	18.708	1243.774	948.455
154.775	18.872	1242.695	948.450
155.789	18.927	1241.674	947.894
156.804	18.979	1240.468	947.174
157.819	19.007	1239.725	946.678
158.833	19.118	1238.998	946.650
159.848	19.211	1238.365	946.591
160.862	19.161	1237.494	945.568
161.877	18.974	1235.498	942.933
162.892	18.854	1234.594	941.503
163.906	18.792	1233.725	940.416
164.921	18.842	1232.408	939.604
165.935	18.914	1231.961	939.573
166.950	19.009	1231.111	939.363
167.964	18.883	1230.728	938.298
168.979	18.859	1229.792	937.371
169.994	18.900	1229.032	936.933
171.008	18.919	1228.569	936.603
172.023	19.000	1228.019	936.536
173.037	19.216	1227.186	936.997
174.052	19.083	1225.778	935.115
175.067	18.988	1224.597	933.619
176.081	18.781	1223.645	931.687
177.096	18.781	1223.056	931.152
178.110	18.788	1222.027	930.328
179.125	18.944	1220.313	929.785
180.140	19.001	1219.561	929.433
181.154	19.079	1218.246	928.770
182.169	19.105	1217.224	928.050
183.183	19.262	1216.441	928.220
184.198	19.312	1215.160	927.427
185.213	19.270	1214.169	926.361
186.227	19.317	1213.091	925.711
187.242	19.361	1212.320	925.279
188.256	19.542	1211.077	925.214
189.271	19.529	1210.404	924.550
190.286	19.099	1209.605	921.557
191.300	18.838	1207.845	918.740
192.315	18.724	1207.285	917.625
193.329	18.816	1206.719	917.602
194.344	18.886	1206.402	917.652
195.359	19.009	1205.427	917.486
196.373	19.151	1205.485	918.206
197.388	19.047	1205.273	917.410
198.402	19.504	1204.379	919.083
199.417	19.484	1203.996	918.601
200.432	19.665	1203.347	918.991
201.446	19.610	1203.060	918.395
202.461	19.801	1201.839	918.399
203.475	19.707	1201.407	917.486
204.490	19.565	1199.592	915.266
205.504	19.382	1198.412	913.316
206.519	19.311	1197.179	911.922
207.534	19.305	1196.328	911.162
208.548	19.342	1194.917	910.198
209.563	19.380	1194.383	909.912
210.577	19.440	1193.345	909.357
211.592	19.471	1192.791	909.017
212.607	19.677	1191.771	909.245
213.621	19.665	1191.003	908.514
214.636	19.514	1190.304	907.106
215.650	19.679	1188.860	906.793
216.665	19.662	1188.327	906.217
217.680	19.776	1187.548	906.143
218.694	19.837	1186.891	905.878
219.709	19.799	1185.947	904.880
220.723	19.689	1185.487	903.872
221.738	19.762	1184.435	903.375
222.753	19.790	1183.776	902.934
223.767	19.757	1183.442	902.429
224.782	19.818	1182.333	901.822
225.796	19.946	1182.019	902.169
226.811	19.927	1181.320	901.458
227.826	19.777	1180.251	899.779
228.840	19.697	1179.567	898.763
229.855	19.802	1178.712	898.578
230.869	19.728	1178.251	897.763
231.884	19.642	1177.229	896.457
232.899	19.663	1175.782	895.385
233.913	19.616	1175.532	894.872
234.928	19.534	1174.669	893.714
235.942	19.431	1173.923	892.534
236.957	19.434	1173.451	892.112
237.972	19.410	1172.612	891.271
238.986	19.589	1172.173	891.781
240.001	19.562	1171.195	890.819
241.015	19.586	1170.285	890.174
242.030	19.649	1169.731	890.000
243.045	19.681	1169.251	889.719
244.059	19.785	1168.149	889.336
245.074	19.891	1167.239	889.107
246.088	19.893	1166.754	888.668
247.103	19.978	1165.916	888.389
248.117	19.987	1165.671	888.171
249.132	20.175	1165.010	888.553
250.147	20.467	1164.444	889.539
251.161	20.539	1163.818	889.347
252.176	20.401	1163.199	888.093
253.190	20.528	1162.555	888.171
254.205	20.622	1162.059	888.190
255.220	20.647	1161.720	887.982
256.234	20.664	1160.588	887.126
257.249	20.567	1160.215	886.266
258.263	20.515	1159.301	885.228
259.278	20.526	1158.644	884.701
260.293	20.616	1158.404	884.897
261.307	20.699	1157.673	884.683
262.322	20.749	1157.056	884.385
263.336	20.757	1156.338	883.803
264.351	20.737	1155.541	883.013
265.366	20.786	1155.168	882.899
266.380	20.715	1154.700	882.104
267.395	20.710	1153.338	880.958
268.409	20.548	1152.657	879.543
269.424	20.681	1151.514	879.261
270.439	20.559	1151.562	878.607
271.453	20.507	1150.585	877.521
272.468	20.363	1149.623	875.980
273.482	20.463	1148.745	875.741
274.497	20.479	1148.247	875.360
275.512	20.425	1147.872	874.728
276.526	20.395	1147.266	874.038
277.541	20.446	1146.183	873.389
278.555	20.452	1145.746	873.011
279.570	20.795	1144.622	873.798
280.585	20.891	1144.205	873.886
281.599	20.799	1143.144	872.534
282.614	20.682	1142.332	871.252
283.628	20.617	1141.114	869.922
284.643	20.629	1140.327	869.305
285.657	20.494	1139.211	867.704
286.672	20.586	1138.366	867.442
287.687	20.628	1137.501	866.914
288.701	20.611	1137.127	866.470
289.716	20.783	1135.950	866.351
290.730	20.620	1135.385	865.031
291.745	20.684	1134.557	864.646
292.760	20.802	1134.002	864.733
293.774	20.861	1133.713	864.725
294.789	20.872	1133.632	864.640
295.803	20.880	1132.427	863.687
296.818	20.920	1130.911	862.652
297.833	20.754	1130.472	861.421
298.847	20.858	1129.791	861.337
299.862	20.816	1129.247	860.640
300.876	20.846	1128.414	860.075
301.891	21.021	1127.812	860.407
302.906	21.000	1127.514	859.997
303.920	21.109	1126.645	859.795
304.935	21.307	1125.939	860.158
305.949	21.294	1125.532	859.707
306.964	21.329	1125.006	859.401
307.979	21.135	1123.893	857.522
308.993	21.149	1123.226	857.005
310.008	21.107	1122.695	856.317
311.022	21.338	1121.743	856.647
312.037	21.170	1120.839	855.060
313.052	21.088	1119.737	853.742
314.066	20.975	1118.544	852.203
315.081	20.821	1117.817	850.820
316.095	20.766	1116.897	849.781
317.110	20.761	1116.598	849.453
318.125	20.799	1115.649	848.838
319.139	20.803	1115.206	848.450
320.154	20.904	1113.994	847.940
321.168	20.791	1113.726	847.115
322.183	20.895	1112.909	846.920
323.197	20.945	1112.677	846.914
324.212	20.951	1111.981	846.338
325.227	20.966	1111.517	845.980
326.241	21.004	1110.812	845.555
327.256	20.975	1110.201	844.874
328.270	20.967	1108.803	843.698
329.285	20.923	1108.301	843.028
330.300	20.894	1107.570	842.259
331.314	20.965	1106.557	841.757
332.329	20.922	1105.751	840.861
333.343	20.994	1104.660	840.305
334.358	21.188	1103.961	840.631
335.373	21.171	1103.532	840.149
336.387	21.309	1102.755	840.148
337.402	21.249	1101.973	839.190
338.416	21.323	1101.392	839.025
339.431	21.445	1100.798	839.086
340.446	21.366	1100.554	838.448
341.460	21.666	1099.398	838.928
342.475	21.681	1098.358	838.133
343.489	21.705	1097.874	837.801
344.504	21.666	1097.200	837.030
345.519	21.811	1096.296	836.957
346.533	21.963	1095.314	836.857
347.548	21.908	1094.605	835.979
348.562	21.875	1094.097	835.363
349.577	21.785	1092.814	833.879
350.592	21.499	1091.948	831.784
351.606	21.271	1091.736	830.468
352.621	21.395	1090.462	830.013
353.635	21.204	1089.830	828.551
354.650	21.251	1088.800	827.919
355.665	21.439	1088.687	828.649
356.679	21.385	1088.051	827.837
357.694	21.510	1087.945	828.277
358.708	21.620	1086.852	827.888
359.723	21.669	1086.406	827.708
360.738	21.629	1085.269	826.582
361.752	21.638	1084.937	826.298
362.767	21.656	1084.502	825.975
363.781	21.652	1083.960	825.473
364.796	21.772	1083.570	825.665
365.810	21.888	1082.772	825.533
366.825	21.907	1082.559	825.384
367.840	22.038	1082.169	825.630
368.854	22.185	1081.392	825.654
369.869	22.122	1080.897	824.907
370.883	22.085	1079.380	823.505
371.898	21.954	1078.794	822.371
372.913	21.984	1078.023	821.849
373.927	22.086	1077.609	821.939
374.942	22.095	1077.414	821.759
375.956	21.976	1076.961	820.785
376.971	22.016	1076.334	820.421
377.986	22.108	1075.725	820.316
379.000	22.253	1074.968	820.345
380.015	22.286	1074.803	820.297
381.029	22.387	1074.242	820.266
382.044	22.425	1073.186	819.567
383.059	22.402	1072.282	818.695
384.073	22.233	1071.908	817.552
385.088	22.398	1070.862	817.447
386.102	22.215	1070.101	815.945
387.117	22.066	1068.879	814.252
388.132	21.996	1067.524	812.824
389.146	21.921	1067.140	812.111
390.161	22.053	1066.433	812.114
391.175	22.044	1065.489	811.278
392.190	22.146	1064.889	811.223
393.205	22.385	1064.155	811.695
394.219	22.282	1063.500	810.649
395.234	22.154	1062.459	809.192
396.248	22.044	1061.420	807.822
397.263	22.027	1059.913	806.528
398.278	21.975	1059.742	806.087
399.292	21.861	1058.891	804.843
400.307	21.886	1058.118	804.303
401.321	21.935	1057.522	804.001
402.336	21.937	1056.908	803.474
403.350	21.929	1056.212	802.837
404.365	22.032	1055.464	802.667
405.380	22.105	1054.614	802.283
406.394	22.232	1054.069	802.376
407.409	22.227	1053.594	801.919
408.423	22.410	1052.828	802.102
409.438	22.453	1052.262	801.794
410.453	22.597	1051.504	801.800
411.467	22.624	1050.856	801.360
412.482	22.622	1050.284	800.845
413.496	22.711	1049.908	800.890
414.511	22.747	1049.238	800.470
415.526	22.909	1048.826	800.820
416.540	22.902	1048.562	800.518
417.555	22.755	1048.159	799.472
418.569	22.698	1047.294	798.486
419.584	22.605	1047.135	797.869
420.599	22.591	1046.466	797.227
421.613	154.366	1399.815	1788.537
422.628	141.522	1451.303	1788.684
