DTS Sentinel unit serial number:	SN413079Multiplexer serial number:	ORYXHardware model number:	OX4-SRSoftware version number:	ORYX F/W v4.00 Oryx Data Collector v3.7.2.0data status	okinstallation	princeton_trtdifferential loss correction	single-endedforward channel	channel 2reverse channel	N/Adate	2019/09/11time	20:25:10forward acquisition time	60.00reverse acquisition time	0.00gamma	496.2192k internal	0.2318k external	0.2318temperature offset calibration	1.0054default loss term (dB/km)	0.3790temperature slope calibration	1.0000multiplexer offset coefficient	1.0000multiplexer slope coefficient	1.0000fibre end	0.00T internal ref (°C)	37.83T ext. ref 1 (°C)	1.48T ext. ref 2 (°C)	31.55length (m)	temperature (°C)	Stokes	anti-Stokes-747.200	-174.908	0.107	-0.003
-746.185	104.263	-0.091	0.109
-745.171	-109.870	0.277	0.059
-744.156	112.890	-0.375	0.460
-743.142	-154.793	0.360	0.024
-742.127	216.000	-0.109	-0.176
-741.112	192.444	-0.156	-0.239
-740.098	93.813	-0.200	0.229
-739.083	-200.000	-0.043	0.208
-738.069	-10.877	0.225	0.150
-737.054	250.166	-0.098	0.168
-736.039	178.469	-0.174	-0.257
-735.025	84.834	0.187	0.208
-734.010	-71.948	-0.382	-0.144
-732.996	505.570	0.058	0.137
-731.981	215.972	0.156	0.251
-730.966	-63.546	-0.344	0.143
-729.952	-32.984	-0.258	0.145
-728.937	76.130	-0.300	-0.321
-727.923	17.275	-0.149	0.120
-726.908	-52.545	-0.121	-0.057
-725.894	-169.608	-0.112	0.004
-724.879	110.108	0.152	-0.185
-723.864	800.000	-0.008	-0.036
-722.850	193.666	-0.140	0.215
-721.835	5.613	0.145	-0.108
-720.821	-200.000	-0.013	-0.337
-719.806	800.000	0.063	0.178
-718.791	-67.367	-0.128	0.051
-717.777	378.476	-0.121	-0.250
-716.762	800.000	-0.102	-0.327
-715.748	-12.148	-0.324	-0.215
-714.733	113.181	0.189	0.232
-713.718	-200.000	-0.094	0.425
-712.704	-11.523	0.079	-0.052
-711.689	123.171	-0.137	-0.174
-710.675	-200.000	-0.040	-0.210
-709.660	113.338	0.041	-0.050
-708.645	94.980	0.090	-0.104
-707.631	75.894	-0.199	-0.213
-706.616	-174.560	-0.208	-0.006
-705.602	-200.000	-0.015	-0.082
-704.587	34.201	0.093	-0.082
-703.572	-26.756	-0.310	0.183
-702.558	231.553	-0.025	0.041
-701.543	221.368	0.102	-0.166
-700.529	-6.298	-0.178	-0.123
-699.514	-57.953	0.350	-0.154
-698.499	800.000	-0.061	-0.197
-697.485	-67.370	-0.132	0.052
-696.470	-28.820	0.232	0.135
-695.456	-36.123	-0.168	0.092
-694.441	-200.000	-0.015	0.386
-693.426	-86.341	-0.172	0.054
-692.412	-55.466	0.275	0.124
-691.397	-33.215	-0.094	0.053
-690.383	-200.000	-0.030	-0.148
-689.368	-30.015	-0.287	-0.165
-688.354	-200.000	-0.001	0.037
-687.339	-32.313	0.384	-0.216
-686.324	284.346	-0.102	0.185
-685.310	191.858	0.045	0.068
-684.295	644.070	-0.100	0.256
-683.281	-38.697	0.246	0.131
-682.266	116.670	0.063	-0.077
-681.251	103.471	-0.196	0.232
-680.237	157.322	-0.076	0.107
-679.222	800.000	0.042	0.175
-678.208	-42.079	-0.075	-0.039
-677.193	18.208	0.092	0.074
-676.178	-200.000	-0.079	-0.352
-675.164	-17.197	0.028	-0.018
-674.149	47.062	0.214	-0.201
-673.135	-118.797	-0.211	-0.037
-672.120	-200.000	0.023	-0.301
-671.105	-200.000	-0.036	-0.389
-670.091	-164.231	0.359	-0.017
-669.076	56.958	0.320	0.315
-668.062	800.000	0.088	0.304
-667.047	-7.653	0.225	0.153
-666.032	-155.068	-0.104	-0.007
-665.018	-95.581	0.039	-0.010
-664.003	-185.467	-0.246	0.004
-662.989	-42.264	0.261	0.134
-661.974	-200.000	-0.074	0.354
-660.959	26.491	-0.146	-0.123
-659.945	-200.000	-0.014	0.153
-658.930	432.694	0.175	0.382
-657.916	-54.005	-0.117	-0.054
-656.901	33.270	-0.116	-0.102
-655.886	-91.259	-0.082	-0.024
-654.872	113.493	-0.013	0.016
-653.857	96.057	-0.200	0.230
-652.843	800.000	-0.031	-0.124
-651.828	259.609	-0.118	-0.206
-650.814	-38.892	0.206	-0.109
-649.799	-97.079	-0.186	0.049
-648.784	689.276	0.041	0.109
-647.770	-200.000	0.050	-0.322
-646.755	-68.292	0.031	-0.012
-645.741	20.756	-0.168	0.138
-644.726	-200.000	-0.091	-0.464
-643.711	17.179	0.145	0.116
-642.697	-31.234	-0.223	0.127
-641.682	341.208	0.068	0.133
-640.668	-200.000	-0.039	-0.192
-639.653	-27.988	-0.259	0.151
-638.638	-3.311	0.077	-0.054
-637.624	-65.000	-0.117	-0.048
-636.609	-66.733	0.131	-0.052
-635.595	-96.969	0.452	-0.119
-634.580	-200.000	0.032	0.153
-633.565	229.600	0.101	0.166
-632.551	-30.103	-0.186	-0.107
-631.536	-134.053	0.208	-0.026
-630.522	81.478	-0.177	0.193
-629.507	-200.000	-0.036	-0.203
-628.492	-200.000	-0.012	-0.178
-627.478	-90.347	-0.142	0.041
-626.463	-56.504	-0.214	-0.096
-625.449	-10.805	-0.172	-0.115
-624.434	-200.000	0.055	-0.384
-623.419	166.487	-0.094	-0.134
-622.405	-200.000	-0.027	0.203
-621.390	401.485	0.161	-0.341
-620.376	-110.300	-0.198	-0.041
-619.361	106.985	-0.193	0.231
-618.346	59.868	-0.116	0.116
-617.332	800.000	-0.024	0.075
-616.317	-10.205	0.163	0.109
-615.303	-122.663	-0.370	0.060
-614.288	800.000	-0.088	-0.246
-613.273	772.600	-0.042	0.115
-612.259	214.992	-0.069	0.109
-611.244	-92.265	0.122	-0.035
-610.230	800.000	0.018	0.051
-609.215	-200.000	0.039	-0.287
-608.201	-20.475	-0.213	-0.132
-607.186	-5.253	0.328	-0.227
-606.171	677.746	0.040	-0.104
-605.157	-10.831	0.106	-0.071
-604.142	-143.758	-0.339	0.032
-603.128	139.429	-0.136	0.180
-602.113	-118.583	0.193	-0.034
-601.098	-41.158	-0.164	-0.085
-600.084	-200.000	-0.195	0.001
-599.069	-200.000	0.058	0.645
-598.055	365.676	-0.222	0.451
-597.040	-69.578	-0.441	-0.170
-596.025	96.032	-0.121	0.140
-595.011	382.022	-0.096	0.197
-593.996	-111.285	0.242	0.050
-592.982	-170.105	-0.214	-0.008
-591.967	-124.256	-0.419	-0.066
-590.952	302.824	0.126	-0.235
-589.938	-164.480	-0.376	-0.017
-588.923	-57.821	0.276	-0.122
-587.909	21.556	0.087	0.071
-586.894	-70.022	0.158	-0.060
-585.879	-50.863	0.224	-0.106
-584.865	-104.077	-0.236	0.055
-583.850	800.000	-0.036	0.109
-582.836	-200.000	-0.012	-0.232
-581.821	293.699	-0.027	-0.050
-580.806	-45.249	-0.361	0.180
-579.792	-145.509	0.510	-0.046
-578.777	-77.968	0.312	0.108
-577.763	152.083	-0.119	-0.163
-576.748	-5.782	0.352	0.243
-575.733	212.222	-0.114	-0.180
-574.719	-39.990	-0.087	-0.046
-573.704	461.299	-0.127	-0.285
-572.690	-200.000	-0.323	0.000
-571.675	-87.839	-0.165	-0.050
-570.661	377.278	-0.053	0.109
-569.646	213.366	-0.177	-0.280
-568.631	-200.000	-0.042	0.517
-567.617	-23.490	-0.324	0.196
-566.602	-200.000	0.026	0.157
-565.588	61.210	-0.292	0.292
-564.573	363.234	-0.072	0.145
-563.558	194.347	0.138	0.210
-562.544	-96.177	0.231	-0.062
-561.529	-85.241	-0.228	-0.072
-560.515	260.236	-0.075	-0.131
-559.500	-51.719	-0.179	-0.084
-558.485	151.746	-0.069	0.094
-557.471	146.548	-0.287	0.387
-556.456	800.000	-0.035	-0.108
-555.442	303.452	-0.072	0.135
-554.427	-86.167	-0.224	-0.069
-553.412	-44.386	0.095	0.048
-552.398	537.187	0.042	-0.101
-551.383	-144.911	-0.089	-0.008
-550.369	-200.000	-0.009	-0.144
-549.354	-200.000	0.019	-0.169
-548.339	137.229	-0.074	0.097
-547.325	-113.248	-0.124	-0.025
-546.310	-60.823	-0.271	0.115
-545.296	800.000	0.017	-0.074
-544.281	800.000	-0.050	-0.172
-543.266	-200.000	-0.026	-0.284
-542.252	-104.723	0.104	-0.024
-541.237	-93.251	-0.102	-0.029
-540.223	-200.000	0.016	0.120
-539.208	138.753	0.200	-0.264
-538.193	174.982	-0.063	0.091
-537.179	-101.946	0.190	-0.046
-536.164	800.000	-0.028	-0.120
-535.150	-200.000	-0.024	-0.365
-534.135	-200.000	-0.003	0.192
-533.121	98.153	0.111	0.129
-532.106	66.062	-0.317	-0.323
-531.091	305.911	0.169	0.315
-530.077	303.824	0.137	-0.256
-529.062	-157.333	0.142	-0.009
-528.048	-200.000	-0.019	-0.154
-527.033	-21.802	0.139	0.085
-526.018	398.979	0.031	-0.064
-525.004	-149.441	0.141	0.011
-523.989	-4.317	-0.211	0.147
-522.975	308.610	0.133	-0.249
-521.960	210.321	-0.065	-0.102
-520.945	389.898	0.128	-0.266
-519.931	-189.375	0.284	0.003
-518.916	39.481	0.100	0.090
-517.902	550.951	0.078	0.188
-516.887	800.000	-0.059	-0.172
-515.872	34.991	0.100	-0.088
-514.858	-156.216	0.137	-0.009
-513.843	800.000	0.101	0.379
-512.829	-21.809	0.349	-0.213
-511.814	-200.000	0.000	-0.113
-510.799	138.360	0.249	0.327
-509.785	800.000	0.021	-0.063
-508.770	-156.787	-0.265	-0.016
-507.756	201.439	-0.279	0.431
-506.741	43.966	-0.257	-0.236
-505.726	-24.638	0.080	0.048
-504.712	-42.868	-0.148	0.075
-503.697	143.165	-0.065	-0.087
-502.683	383.029	-0.028	-0.058
-501.668	800.000	0.056	0.156
-500.653	-13.499	0.285	-0.185
-499.639	-43.875	0.224	-0.113
-498.624	-200.000	0.023	-0.378
-497.610	243.560	0.157	-0.264
-496.595	-200.000	0.076	0.351
-495.581	-102.049	0.245	0.059
-494.566	737.814	0.022	-0.059
-493.551	-55.150	0.253	-0.114
-492.537	89.295	0.165	0.184
-491.522	160.637	-0.035	0.049
-490.508	-98.456	-0.213	-0.055
-489.493	800.000	-0.090	-0.249
-488.478	-116.560	0.175	0.032
-487.464	79.132	-0.140	-0.150
-486.449	-200.000	-0.024	-0.125
-485.435	177.770	-0.078	0.114
-484.420	36.591	0.103	-0.091
-483.405	-68.049	0.258	-0.101
-482.391	-32.144	0.083	0.046
-481.376	186.215	0.101	-0.150
-480.362	-200.000	0.031	0.163
-479.347	800.000	-0.052	-0.215
-478.332	-200.000	-0.004	-0.049
-477.318	156.967	0.292	-0.404
-476.303	100.973	0.348	-0.405
-475.289	-123.561	-0.343	-0.055
-474.274	-79.773	0.229	0.077
-473.259	-75.928	0.237	0.084
-472.245	21.825	-0.236	0.193
-471.230	-92.180	0.187	-0.053
-470.216	-18.588	0.137	-0.086
-469.201	522.279	0.054	0.127
-468.186	164.622	0.122	0.172
-467.172	32.750	0.137	-0.118
-466.157	-47.492	-0.294	0.143
-465.143	-0.835	-0.061	0.043
-464.128	73.891	0.055	-0.058
-463.113	-200.000	0.020	-0.131
-462.099	252.008	0.075	-0.128
-461.084	60.338	0.297	-0.294
-460.070	191.561	-0.267	-0.403
-459.055	694.225	0.082	0.216
-458.040	-30.947	0.148	-0.083
-457.026	-190.851	-0.064	0.001
-456.011	-165.993	-0.202	-0.009
-454.997	-200.000	0.031	-0.297
-453.982	-72.826	0.311	0.115
-452.968	686.178	-0.150	0.393
-451.953	46.768	0.097	0.090
-450.938	-39.986	0.278	-0.145
-449.924	51.976	-0.205	0.196
-448.909	-1.024	-0.187	-0.132
-447.895	-200.000	-0.025	-0.310
-446.880	-200.000	0.002	-0.086
-445.865	800.000	0.012	0.035
-444.851	-119.714	-0.621	-0.107
-443.836	-200.000	0.020	0.218
-442.822	-86.069	0.142	-0.044
-441.807	-16.616	0.289	0.183
-440.792	-144.306	-0.144	-0.013
-439.778	696.587	0.081	-0.213
-438.763	-200.000	-0.035	-0.202
-437.749	800.000	0.129	0.365
-436.734	347.309	-0.114	0.225
-435.719	-11.593	0.051	-0.034
-434.705	495.157	0.050	0.114
-433.690	267.734	-0.054	-0.094
-432.676	42.602	-0.097	-0.088
-431.661	-200.000	-0.004	-0.207
-430.646	-200.000	-0.003	-0.056
-429.632	-117.887	-0.436	-0.078
-428.617	133.746	-0.321	0.416
-427.603	-39.353	-0.490	0.257
-426.588	-100.353	0.281	-0.070
-425.573	800.000	0.069	0.189
-424.559	800.000	-0.028	-0.085
-423.544	418.358	-0.023	-0.048
-422.530	-148.596	0.232	-0.019
-421.515	229.726	0.071	-0.115
-420.500	-23.296	-0.109	0.066
-419.486	-200.000	0.005	-0.276
-418.471	-200.000	0.042	-0.306
-417.457	-142.695	-0.185	0.018
-416.442	-72.889	0.194	0.071
-415.428	-116.209	0.121	0.023
-414.413	800.000	-0.029	-0.123
-413.398	107.548	-0.268	0.319
-412.384	51.912	-0.281	0.267
-411.369	-200.000	-0.018	-0.121
-410.355	-200.000	0.012	-0.235
-409.340	89.395	0.076	-0.085
-408.325	-121.531	0.280	-0.046
-407.311	-111.037	-0.278	0.057
-406.296	177.342	0.070	0.102
-405.282	27.892	0.167	0.140
-404.267	-175.898	0.025	-0.001
-403.252	-200.000	0.002	-0.062
-402.238	-47.008	0.107	-0.052
-401.223	800.000	0.083	0.257
-400.209	-92.239	-0.311	0.088
-399.194	178.775	0.168	-0.246
-398.179	-30.359	-0.101	0.057
-397.165	218.390	-0.082	-0.131
-396.150	-18.347	0.111	0.069
-395.136	-85.366	0.230	-0.072
-394.121	-61.780	-0.054	-0.022
-393.106	196.781	-0.031	0.047
-392.092	-6.494	0.037	0.025
-391.077	-32.903	-0.028	0.015
-390.063	-52.554	-0.216	0.100
-389.048	-11.292	-0.165	0.108
-388.033	-84.399	0.228	0.072
-387.019	-200.000	-0.016	0.105
-386.004	130.886	-0.122	-0.156
-384.990	-200.000	-0.003	-0.086
-383.975	-24.158	-0.184	-0.110
-382.960	-22.807	-0.261	-0.157
-381.946	-200.000	-0.063	-0.391
-380.931	-129.241	-0.248	-0.034
-379.917	-200.000	-0.058	0.309
-378.902	419.156	-0.094	0.201
-377.888	-150.544	0.063	-0.005
-376.873	2.219	-0.111	-0.080
-375.858	-102.979	0.021	0.005
-374.844	-200.000	-0.008	0.074
-373.829	30.379	-0.124	0.106
-372.815	-85.438	0.130	0.040
-371.800	231.609	-0.076	0.123
-370.785	-152.922	-0.267	0.019
-369.771	-102.761	0.140	-0.033
-368.756	196.055	0.064	0.098
-367.742	699.217	0.039	-0.101
-366.727	-121.136	0.037	-0.006
-365.712	-200.000	0.004	-0.089
-364.698	131.141	0.206	0.263
-363.683	45.880	-0.081	0.075
-362.669	-200.000	0.020	-0.308
-361.654	11.168	0.111	0.084
-360.639	60.899	-0.241	-0.238
-359.625	373.351	0.107	-0.218
-358.610	800.000	-0.077	0.298
-357.596	12.379	0.182	-0.140
-356.581	40.040	0.220	-0.197
-355.566	-67.620	0.231	0.090
-354.552	-19.076	0.288	0.178
-353.537	61.406	-0.158	-0.157
-352.523	-200.000	0.007	-0.325
-351.508	-139.945	0.101	0.011
-350.493	-61.570	0.309	-0.129
-349.479	-141.316	-0.238	-0.024
-348.464	-200.000	0.010	0.089
-347.450	234.166	0.107	0.176
-346.435	-48.513	0.433	0.207
-345.420	-112.547	-0.054	0.011
-344.406	-160.051	-0.122	0.007
-343.391	-25.154	-0.232	-0.137
-342.377	90.706	0.146	-0.163
-341.362	-39.303	-0.334	0.174
-340.348	-63.289	0.074	-0.030
-339.333	-200.000	-0.046	-0.379
-338.318	-200.000	-0.037	0.234
-337.304	800.000	0.126	0.350
-336.289	-200.000	0.018	0.084
-335.275	107.227	-0.216	0.255
-334.260	-144.057	-0.167	-0.016
-333.245	-200.000	-0.004	-0.113
-332.231	-200.000	0.224	-0.001
-331.216	-200.000	0.038	0.254
-330.202	-200.000	0.017	-0.212
-329.187	-18.457	-0.179	-0.112
-328.172	-118.477	-0.210	0.037
-327.158	-101.087	-0.015	-0.004
-326.143	28.342	-0.084	0.070
-325.129	372.832	-0.122	0.246
-324.114	536.392	-0.103	0.244
-323.099	800.000	0.065	-0.281
-322.085	-200.000	0.008	0.294
-321.070	-33.486	-0.219	0.120
-320.056	-148.379	-0.051	-0.004
-319.041	20.531	0.066	-0.053
-318.026	-169.193	0.154	-0.006
-317.012	-55.978	0.088	-0.039
-315.997	-37.240	-0.264	0.140
-314.983	105.938	0.067	-0.079
-313.968	798.373	0.103	-0.281
-312.953	-175.686	0.208	0.006
-311.939	-111.027	0.259	-0.053
-310.924	-200.000	-0.016	-0.174
-309.910	-166.314	-0.406	0.017
-308.895	380.860	0.043	-0.087
-307.880	32.787	-0.051	-0.044
-306.866	-57.651	-0.353	0.154
-305.851	418.907	0.053	-0.113
-304.837	-200.000	0.002	-0.154
-303.822	-71.137	0.311	-0.116
-302.807	-200.000	-0.111	0.545
-301.793	473.020	-0.192	0.430
-300.778	568.380	-0.062	0.150
-299.764	-17.447	0.085	-0.053
-298.749	800.000	-0.107	0.352
-297.735	55.356	0.174	-0.168
-296.720	-137.724	0.188	0.021
-295.705	78.340	-0.116	0.124
-294.691	14.333	0.109	0.085
-293.676	207.207	0.084	0.130
-292.662	-30.976	0.192	0.108
-291.647	-6.724	0.130	0.088
-290.632	623.564	-0.045	-0.113
-289.618	-121.753	0.287	-0.047
-288.603	-15.876	-0.179	-0.114
-287.589	25.938	0.098	-0.082
-286.574	132.692	0.154	-0.198
-285.559	-135.055	-0.150	0.018
-284.545	65.561	0.249	-0.250
-283.530	800.000	0.083	0.318
-282.516	-84.133	-0.103	0.033
-281.501	-52.687	-0.184	-0.084
-280.486	-8.682	-0.195	-0.130
-279.472	-125.649	0.278	-0.042
-278.457	86.533	0.175	0.191
-277.443	800.000	-0.092	-0.268
-276.428	-126.070	-0.252	-0.038
-275.413	-18.985	0.163	-0.101
-274.399	-165.041	0.180	0.008
-273.384	18.190	0.151	0.120
-272.370	-91.549	0.056	0.016
-271.355	55.534	-0.093	-0.090
-270.340	-126.288	-0.099	-0.015
-269.326	-173.962	0.194	-0.006
-268.311	-116.521	0.285	-0.052
-267.297	-13.532	0.099	0.064
-266.282	-9.030	-0.168	-0.112
-265.267	-200.000	-0.015	0.261
-264.253	-200.000	-0.002	-0.110
-263.238	141.293	-0.106	-0.140
-262.224	800.000	0.041	-0.132
-261.209	800.000	-0.018	0.060
-260.195	-200.000	0.054	-0.453
-259.180	-46.559	0.298	-0.145
-258.165	-57.818	0.099	0.043
-257.151	-200.000	0.000	0.480
-256.136	12.782	0.168	-0.129
-255.122	1.168	-0.362	-0.258
-254.107	123.731	0.206	0.256
-253.092	232.833	0.209	-0.341
-252.078	-45.306	0.099	0.049
-251.063	-200.000	-0.017	0.109
-250.049	178.462	0.031	0.045
-249.034	4.436	0.246	0.179
-248.019	100.571	0.167	-0.192
-247.005	87.644	-0.179	0.197
-245.990	800.000	0.080	0.238
-244.976	-82.540	0.192	0.062
-243.961	569.988	0.061	-0.148
-242.946	49.249	0.282	-0.263
-241.932	-159.826	0.078	0.004
-240.917	-200.000	0.026	0.135
-239.903	-126.617	-0.024	0.003
-238.888	330.696	0.080	0.153
-237.873	800.000	0.034	-0.118
-236.859	-58.480	-0.244	0.105
-235.844	3.852	0.081	0.059
-234.830	-110.234	-0.308	0.064
-233.815	-53.969	-0.165	-0.075
-232.800	-126.045	-0.423	0.063
-231.786	281.824	-0.049	-0.088
-230.771	644.179	-0.168	0.426
-229.757	204.360	-0.186	-0.285
-228.742	-33.913	-0.068	-0.037
-227.727	376.845	0.034	-0.069
-226.713	800.000	-0.061	0.263
-225.698	-22.198	-0.142	0.085
-224.684	138.900	-0.084	-0.109
-223.669	181.540	0.082	-0.120
-222.655	360.057	0.036	0.071
-221.640	318.490	0.207	0.388
-220.625	38.404	0.059	0.052
-219.611	800.000	0.074	0.219
-218.596	362.793	-0.106	0.210
-217.582	-184.139	-0.185	0.003
-216.567	51.914	-0.491	-0.463
-215.552	279.384	0.081	-0.143
-214.538	130.336	0.170	0.216
-213.523	230.475	-0.168	0.273
-212.509	-105.521	0.169	-0.038
-211.494	-147.923	0.358	0.030
-210.479	124.443	0.162	-0.202
-209.465	60.821	-0.084	-0.082
-208.450	-63.267	0.149	0.061
-207.436	-200.000	0.008	0.253
-206.421	14.757	0.364	-0.282
-205.406	184.675	0.077	-0.113
-204.392	-52.478	0.105	-0.048
-203.377	-89.273	-0.308	0.090
-202.363	-0.455	-0.229	0.161
-201.348	-200.000	0.017	0.220
-200.333	-29.879	0.260	-0.147
-199.319	85.637	0.033	0.036
-198.304	-200.000	0.029	0.206
-197.290	-200.000	0.063	-0.536
-196.275	-148.836	0.258	-0.021
-195.260	-200.000	0.068	0.309
-194.246	167.157	-0.056	-0.079
-193.231	342.862	-0.080	0.155
-192.217	-35.054	0.226	-0.122
-191.202	-27.498	-0.036	0.021
-190.187	-200.000	0.020	-0.412
-189.173	-200.000	0.008	0.388
-188.158	-97.288	0.095	-0.025
-187.144	11.562	0.173	-0.131
-186.129	-188.541	-0.039	-0.000
-185.114	-59.524	0.248	0.106
-184.100	14.248	-0.096	-0.074
-183.085	-200.000	-0.053	0.322
-182.071	-20.357	-0.272	0.166
-181.056	-73.842	-0.250	0.090
-180.042	-13.250	-0.083	0.053
-179.027	-33.540	-0.141	-0.077
-178.012	246.881	0.062	0.103
-176.998	-200.000	-0.006	-0.083
-175.983	99.049	0.011	0.013
-174.969	91.761	-0.104	-0.116
-173.954	-118.558	0.157	0.027
-172.939	-200.000	-0.022	0.192
-171.925	800.000	0.081	0.249
-170.910	-187.380	0.250	-0.003
-169.896	-200.000	0.025	-0.203
-168.881	161.504	-0.223	-0.308
-167.866	207.302	0.070	-0.108
-166.852	-127.212	0.215	0.031
-165.837	800.000	0.097	-0.309
-164.823	677.510	-0.016	0.040
-163.808	34.882	-0.146	-0.126
-162.793	-107.199	0.286	0.062
-161.779	558.749	0.166	0.395
-160.764	-154.190	-0.148	0.010
-159.750	8.103	-0.217	0.161
-158.735	-200.000	-0.003	0.095
-157.720	659.687	-0.114	0.291
-156.706	800.000	0.066	-0.220
-155.691	-200.000	-0.004	0.222
-154.677	-200.000	-0.020	0.378
-153.662	36.274	0.438	0.381
-152.647	62.059	0.214	0.211
-151.633	220.474	-0.136	-0.216
-150.618	-200.000	-0.007	0.297
-149.604	-200.000	-0.040	0.182
-148.589	-36.966	-0.334	0.177
-147.574	-200.000	-0.004	-0.165
-146.560	800.000	-0.106	0.410
-145.545	-200.000	-0.072	-0.391
-144.531	-77.244	-0.264	-0.091
-143.516	357.127	0.157	0.310
-142.502	-141.057	-0.306	0.031
-141.487	-31.730	-0.049	-0.027
-140.472	800.000	-0.027	0.094
-139.458	43.425	0.198	0.179
-138.443	-91.156	-0.376	-0.107
-137.429	-200.000	-0.016	-0.230
-136.414	-35.819	-0.133	0.071
-135.399	-129.349	0.293	0.040
-134.385	-74.422	0.237	0.084
-133.370	175.653	0.123	0.176
-132.356	-184.903	-0.364	-0.006
-131.341	800.000	0.187	0.618
-130.326	-72.872	0.248	0.090
-129.312	416.327	-0.081	-0.171
-128.297	350.672	-0.154	0.300
-127.283	139.740	0.113	-0.148
-126.268	735.966	0.055	0.144
-125.253	800.000	-0.061	-0.243
-124.239	-116.021	0.195	-0.036
-123.224	105.761	-0.185	0.216
-122.210	-200.000	0.012	-0.262
-121.195	186.791	0.146	-0.216
-120.180	46.008	0.168	-0.154
-119.166	-144.988	-0.343	-0.031
-118.151	-44.020	-0.219	-0.109
-117.137	-195.215	-0.144	-0.001
-116.122	624.002	0.102	0.253
-115.107	156.697	-0.166	0.227
-114.093	800.000	0.072	-0.281
-113.078	-200.000	-0.004	0.105
-112.064	-196.650	0.035	0.000
-111.049	-123.466	0.191	-0.030
-110.034	-48.684	-0.228	-0.108
-109.020	176.052	0.107	-0.154
-108.005	-200.000	-0.036	0.232
-106.991	-30.937	0.433	-0.241
-105.976	392.435	0.111	-0.227
-104.962	-200.000	-0.012	0.168
-103.947	-200.000	-0.018	-0.105
-102.932	567.874	-0.085	0.204
-101.918	-140.435	-0.080	-0.008
-100.903	17.435	-0.209	-0.164
-99.889	-114.253	-0.198	0.038
-98.874	800.000	0.109	-0.360
-97.859	-51.206	0.204	-0.094
-96.845	-9.475	-0.184	-0.121
-95.830	-200.000	-0.030	-0.139
-94.816	-94.307	0.352	0.095
-93.801	-200.000	0.049	0.227
-92.786	471.446	0.051	0.114
-91.772	-99.710	0.219	-0.054
-90.757	-53.058	-0.503	0.228
-89.743	143.415	-0.123	0.162
-88.728	372.764	0.039	0.079
-87.713	576.643	-0.086	0.207
-86.699	155.020	0.021	-0.028
-85.684	377.536	0.084	-0.169
-84.670	-81.626	-0.348	-0.113
-83.655	800.000	-0.076	-0.217
-82.640	-104.814	0.381	-0.086
-81.626	55.544	-0.264	0.252
-80.611	-200.000	0.007	0.101
-79.597	-114.135	0.137	0.026
-78.582	415.974	-0.035	0.074
-77.567	136.096	0.088	-0.113
-76.553	-73.919	0.180	0.064
-75.538	800.000	-0.064	0.197
-74.524	-200.000	0.036	0.177
-73.509	-81.658	0.387	0.125
-72.494	-36.384	-0.127	-0.067
-71.480	-46.245	-0.193	-0.093
-70.465	11.622	-0.189	-0.143
-69.451	43.191	0.225	0.203
-68.436	-200.000	-0.014	0.097
-67.422	-58.264	0.081	0.035
-66.407	34.430	-0.069	-0.059
-65.392	326.000	0.059	0.111
-64.378	-200.000	-0.023	-0.244
-63.363	-66.289	-0.125	-0.049
-62.349	-113.409	0.210	-0.041
-61.334	135.475	-0.691	-0.885
-60.319	152.661	0.326	0.439
-59.305	800.000	-0.179	-0.759
-58.290	83.749	0.553	0.595
-57.276	666.345	0.679	1.728
-56.261	-200.000	86.885	490.300
-55.246	486.744	1361.680	3058.953
-54.232	151.854	2581.992	3467.110
-53.217	108.333	2307.652	2712.182
-52.203	46.854	1927.292	1764.200
-51.188	41.073	1718.483	1528.758
-50.173	38.265	1674.027	1468.095
-49.159	53.038	1718.445	1619.760
-48.144	56.901	1737.230	1666.819
-47.130	40.927	1695.435	1506.901
-46.115	37.852	1680.854	1470.732
-45.100	37.740	1675.937	1465.530
-44.086	37.759	1673.012	1463.054
-43.071	37.778	1670.281	1460.749
-42.057	37.743	1667.574	1458.061
-41.042	37.701	1666.350	1456.622
-40.027	37.778	1664.107	1455.181
-39.013	37.737	1662.067	1453.033
-37.998	37.669	1660.678	1451.251
-36.984	37.761	1659.012	1450.426
-35.969	37.916	1657.570	1450.254
-34.954	37.925	1655.781	1448.698
-33.940	37.798	1654.249	1446.361
-32.925	37.773	1652.816	1444.866
-31.911	37.766	1651.116	1443.271
-30.896	37.767	1649.153	1441.504
-29.881	37.813	1647.624	1440.451
-28.867	37.742	1646.419	1438.815
-27.852	37.838	1644.757	1438.015
-26.838	37.737	1643.020	1435.692
-25.823	37.914	1641.541	1435.646
-24.809	37.957	1639.873	1434.446
-23.794	37.868	1638.975	1432.951
-22.779	37.846	1637.371	1431.332
-21.765	37.870	1635.562	1429.869
-20.750	37.939	1633.707	1428.695
-19.736	37.841	1632.743	1427.077
-18.721	37.860	1631.429	1426.016
-17.706	37.854	1629.798	1424.485
-16.692	37.863	1628.394	1423.265
-15.677	37.825	1627.268	1421.952
-14.663	37.876	1626.145	1421.282
-13.648	37.857	1624.929	1420.028
-12.633	37.870	1622.674	1418.094
-11.619	37.786	1621.494	1416.400
-10.604	37.832	1619.810	1415.201
-9.590	37.888	1618.785	1414.660
-8.575	37.819	1617.333	1412.830
-7.560	37.911	1615.544	1411.882
-6.546	37.842	1614.888	1410.751
-5.531	37.846	1613.723	1409.708
-4.517	37.797	1612.228	1407.988
-3.502	37.763	1611.646	1407.181
-2.487	37.921	1609.989	1406.819
-1.473	37.514	1597.604	1393.028
-0.458	34.362	1577.701	1353.282
0.556	30.148	1576.017	1316.674
1.571	27.313	1599.761	1315.924
2.586	26.603	1614.270	1322.554
3.600	23.641	1560.583	1257.510
4.615	13.277	1446.546	1097.092
5.629	3.540	1375.662	981.543
6.644	1.638	1366.330	962.767
7.659	1.458	1365.000	960.610
8.673	1.422	1363.935	959.549
9.688	1.382	1361.799	957.709
10.702	1.169	1359.137	954.410
11.717	4.938	1366.558	983.355
12.731	15.253	1387.268	1063.946
13.746	23.559	1401.192	1127.551
14.761	25.382	1402.739	1140.286
15.775	25.597	1402.314	1141.202
16.790	25.666	1401.751	1141.078
17.804	25.600	1401.702	1140.519
18.819	25.932	1401.201	1142.115
19.834	25.985	1400.843	1142.061
20.848	25.941	1400.274	1141.215
21.863	26.002	1399.047	1140.499
22.877	26.032	1398.087	1139.805
23.892	26.032	1396.859	1138.704
24.907	25.990	1396.407	1137.969
25.921	26.022	1395.802	1137.580
26.936	26.084	1393.931	1136.341
27.950	26.063	1393.009	1135.358
28.965	26.014	1391.920	1134.062
29.980	26.051	1390.802	1133.283
30.994	26.065	1389.596	1132.289
32.009	26.092	1388.015	1131.067
33.023	26.037	1387.039	1129.830
34.038	25.957	1386.379	1128.693
35.053	26.032	1385.229	1128.125
36.067	26.007	1383.963	1126.834
37.082	26.003	1383.036	1125.959
38.096	26.006	1382.496	1125.437
39.111	25.965	1381.265	1124.081
40.126	25.939	1380.688	1123.350
41.140	25.894	1380.825	1123.082
42.155	25.951	1379.905	1122.586
43.169	26.023	1379.591	1122.678
44.184	25.985	1379.624	1122.370
45.199	25.977	1379.383	1122.029
46.213	26.016	1378.771	1121.673
47.228	25.969	1377.930	1120.596
48.242	25.994	1376.390	1119.398
49.257	26.066	1374.657	1118.336
50.271	26.056	1373.295	1117.068
51.286	26.055	1372.330	1116.179
52.301	26.102	1370.487	1114.871
53.315	25.999	1370.028	1113.761
54.330	26.056	1369.805	1113.835
55.344	26.027	1368.260	1112.299
56.359	25.970	1367.450	1111.196
57.374	26.098	1366.064	1110.756
58.388	25.952	1365.773	1109.521
59.403	25.985	1365.505	1109.413
60.417	25.944	1364.925	1108.587
61.432	26.020	1364.158	1108.336
62.447	25.954	1363.556	1107.342
63.461	26.061	1362.108	1106.722
64.476	25.997	1361.007	1105.343
65.490	26.065	1359.652	1104.562
66.505	26.001	1358.125	1102.829
67.520	25.951	1357.230	1101.697
68.534	26.003	1355.935	1100.868
69.549	26.044	1355.063	1100.313
70.563	25.986	1354.112	1099.093
71.578	26.155	1352.774	1098.936
72.593	26.089	1352.101	1097.888
73.607	25.953	1351.650	1096.600
74.622	26.037	1351.213	1096.656
75.636	26.014	1350.620	1095.938
76.651	26.008	1349.564	1094.951
77.666	25.967	1349.067	1094.200
78.680	26.084	1348.647	1094.472
79.695	25.985	1347.637	1092.954
80.709	26.026	1346.874	1092.488
81.724	26.136	1345.864	1092.239
82.739	26.106	1344.898	1091.180
83.753	26.087	1343.967	1090.208
84.768	26.135	1342.467	1089.185
85.782	26.040	1341.986	1088.125
86.797	26.055	1340.344	1086.789
87.812	26.025	1339.402	1085.752
88.826	26.088	1338.670	1085.439
89.841	26.046	1337.695	1084.301
90.855	26.010	1336.579	1083.083
91.870	25.992	1335.698	1082.163
92.884	26.000	1335.286	1081.784
93.899	26.054	1334.174	1081.111
94.914	26.147	1332.956	1080.585
95.928	26.037	1332.538	1079.496
96.943	26.101	1331.755	1079.148
97.957	26.070	1331.311	1078.503
98.972	26.152	1329.791	1077.669
99.987	26.174	1329.026	1077.084
101.001	26.154	1327.649	1075.754
102.016	26.146	1327.267	1075.302
103.030	26.112	1326.443	1074.337
104.045	26.075	1325.797	1073.497
105.060	26.058	1324.630	1072.355
106.074	26.089	1323.761	1071.743
107.089	26.154	1322.338	1070.878
108.103	26.117	1321.407	1069.812
109.118	26.077	1320.512	1068.756
110.133	26.179	1319.147	1068.162
111.147	26.228	1318.112	1067.517
112.162	26.142	1317.442	1066.371
113.176	26.097	1316.140	1064.960
114.191	26.150	1315.087	1064.326
115.206	26.146	1314.274	1063.551
116.220	26.207	1312.780	1062.605
117.235	26.154	1311.973	1061.548
118.249	26.064	1311.322	1060.399
119.264	26.055	1311.023	1060.005
120.279	26.068	1309.829	1059.025
121.293	26.181	1308.770	1058.736
122.308	26.122	1308.280	1057.903
123.322	26.105	1307.644	1057.194
124.337	26.276	1306.272	1056.990
125.352	26.216	1305.356	1055.805
126.366	26.220	1304.667	1055.182
127.381	26.170	1303.624	1053.951
128.395	26.247	1302.532	1053.424
129.410	26.200	1301.997	1052.626
130.424	26.114	1301.869	1051.927
131.439	26.275	1300.408	1051.592
132.454	26.155	1299.819	1050.321
133.468	26.141	1299.100	1049.566
134.483	26.168	1298.512	1049.157
135.497	26.141	1297.683	1048.236
136.512	26.210	1296.686	1047.741
137.527	26.231	1295.735	1046.999
138.541	26.250	1294.448	1045.975
139.556	26.129	1293.148	1044.136
140.570	26.196	1292.502	1043.905
141.585	26.126	1290.992	1042.190
142.600	26.125	1290.108	1041.379
143.614	26.198	1289.224	1040.996
144.629	26.213	1288.322	1040.261
145.643	26.100	1287.145	1038.566
146.658	26.071	1285.859	1037.270
147.673	26.084	1285.595	1037.041
148.687	26.104	1284.197	1035.939
149.702	26.121	1283.215	1035.150
150.716	26.027	1282.503	1033.946
151.731	26.079	1281.256	1033.145
152.746	26.164	1279.898	1032.446
153.760	26.130	1279.359	1031.725
154.775	26.206	1278.023	1030.990
155.789	26.182	1277.386	1030.250
156.804	26.178	1276.146	1029.135
157.819	26.237	1275.046	1028.492
158.833	26.202	1274.711	1027.931
159.848	26.163	1273.954	1027.008
160.862	26.241	1273.331	1026.861
161.877	26.109	1272.945	1025.705
162.892	26.201	1271.687	1025.124
163.906	26.307	1270.446	1024.637
164.921	26.198	1269.721	1023.343
165.935	26.316	1268.999	1023.335
166.950	26.265	1268.585	1022.626
167.964	26.335	1267.849	1022.337
168.979	26.216	1267.979	1021.680
169.994	26.346	1266.578	1021.193
171.008	26.235	1266.279	1020.232
172.023	26.354	1265.324	1020.049
173.037	26.345	1264.711	1019.413
174.052	26.237	1263.998	1018.139
175.067	26.355	1262.748	1017.704
176.081	26.407	1261.805	1017.146
177.096	26.377	1261.777	1016.864
178.110	26.337	1260.603	1015.609
179.125	26.325	1259.479	1014.542
180.140	26.428	1258.161	1013.972
181.154	26.254	1257.292	1012.202
182.169	26.308	1256.368	1011.674
183.183	26.392	1255.108	1011.038
184.198	26.319	1253.995	1009.646
185.213	26.361	1252.907	1008.914
186.227	26.382	1252.753	1008.818
187.242	26.405	1251.499	1007.847
188.256	26.399	1250.919	1007.256
189.271	26.346	1250.158	1006.261
190.286	26.377	1249.206	1005.579
191.300	26.300	1248.852	1004.774
192.315	26.277	1248.779	1004.498
193.329	26.360	1248.067	1004.301
194.344	26.433	1247.569	1004.217
195.359	26.411	1247.009	1003.553
196.373	26.444	1246.392	1003.149
197.388	26.355	1246.246	1002.450
198.402	26.392	1245.453	1001.930
199.417	26.271	1245.256	1001.013
200.432	26.226	1244.744	1000.263
201.446	26.400	1244.069	1000.593
202.461	26.371	1243.215	999.660
203.475	26.363	1242.447	998.906
204.490	26.223	1241.704	997.448
205.504	26.297	1240.915	997.139
206.519	26.435	1239.396	996.586
207.534	26.479	1238.075	995.682
208.548	26.517	1237.649	995.460
209.563	26.406	1236.680	993.982
210.577	26.439	1235.880	993.432
211.592	26.450	1234.878	992.597
212.607	26.571	1234.237	992.660
213.621	26.523	1233.326	991.577
214.636	26.506	1232.909	991.059
215.650	26.496	1231.991	990.180
216.665	26.560	1231.029	989.669
217.680	26.488	1230.236	988.546
218.694	26.556	1229.379	988.142
219.709	26.483	1228.906	987.276
220.723	26.513	1228.145	986.743
221.738	26.482	1227.451	985.929
222.753	26.355	1226.337	984.254
223.767	26.486	1226.216	984.786
224.782	26.595	1225.297	984.550
225.796	26.631	1224.874	984.318
226.811	26.599	1224.016	983.370
227.826	26.630	1223.552	983.077
228.840	26.597	1223.194	982.526
229.855	26.571	1222.340	981.609
230.869	26.559	1221.963	981.159
231.884	26.593	1220.728	980.260
232.899	26.613	1220.126	979.798
233.913	26.616	1219.750	979.426
234.928	26.645	1219.270	979.114
235.942	26.688	1218.846	978.917
236.957	26.606	1218.032	977.736
237.972	26.654	1217.211	977.248
238.986	26.687	1216.379	976.671
240.001	26.733	1215.755	976.330
241.015	26.784	1214.997	975.911
242.030	26.857	1214.053	975.460
243.045	26.821	1213.373	974.632
244.059	26.835	1212.524	973.940
245.074	26.684	1212.059	972.669
246.088	26.786	1211.187	972.433
247.103	26.904	1210.058	972.070
248.117	26.848	1209.467	971.210
249.132	26.738	1209.192	970.315
250.147	26.857	1208.460	970.277
251.161	26.770	1207.858	969.246
252.176	26.839	1206.460	968.407
253.190	26.878	1206.119	968.253
254.205	26.838	1205.511	967.469
255.220	26.828	1205.059	966.964
256.234	26.780	1204.693	966.329
257.249	26.882	1203.748	966.026
258.263	26.908	1203.225	965.660
259.278	26.923	1202.990	965.470
260.293	26.940	1202.293	964.914
261.307	26.911	1201.552	964.079
262.322	26.831	1201.110	963.212
263.336	26.887	1200.259	962.743
264.351	26.911	1199.705	962.339
265.366	26.964	1199.116	962.067
266.380	26.953	1198.408	961.353
267.395	26.951	1197.562	960.581
268.409	26.871	1197.210	959.790
269.424	26.913	1196.492	959.351
270.439	26.845	1196.176	958.653
271.453	26.969	1195.170	958.416
272.468	26.944	1194.567	957.719
273.482	26.805	1194.175	956.586
274.497	26.879	1193.446	956.303
275.512	27.048	1192.724	956.532
276.526	27.086	1192.082	956.132
277.541	27.060	1191.336	955.315
278.555	27.075	1190.943	954.991
279.570	27.038	1190.086	954.028
280.585	27.103	1189.266	953.624
281.599	26.955	1188.414	952.081
282.614	27.169	1187.127	952.087
283.628	27.050	1186.682	951.022
284.643	27.084	1185.446	950.125
285.657	27.082	1184.870	949.570
286.672	27.047	1184.198	948.765
287.687	27.136	1183.295	948.424
288.701	27.250	1182.443	948.249
289.716	27.076	1182.297	947.143
290.730	27.076	1181.675	946.559
291.745	27.212	1180.322	946.102
292.760	27.027	1180.318	945.052
293.774	27.213	1179.828	945.540
294.789	27.203	1179.185	944.892
295.803	27.119	1178.813	944.074
296.818	27.081	1178.158	943.268
297.833	27.118	1177.499	942.847
298.847	27.210	1176.696	942.598
299.862	27.180	1175.552	941.442
300.876	27.168	1174.953	940.819
301.891	27.179	1174.519	940.443
302.906	27.206	1174.077	940.144
303.920	27.164	1173.719	939.558
304.935	27.229	1172.825	939.098
305.949	27.221	1172.191	938.467
306.964	27.316	1171.292	938.152
307.979	27.197	1171.176	937.360
308.993	27.373	1170.154	937.368
310.008	27.436	1168.965	936.655
311.022	27.320	1168.820	935.860
312.037	27.394	1167.560	935.147
313.052	27.361	1166.821	934.304
314.066	27.368	1166.111	933.691
315.081	27.242	1165.130	932.175
316.095	27.350	1164.745	932.338
317.110	27.431	1163.895	931.992
318.125	27.435	1163.763	931.824
319.139	27.362	1163.025	930.777
320.154	27.380	1162.459	930.335
321.168	27.380	1161.852	929.762
322.183	27.452	1161.150	929.491
323.197	27.408	1160.757	928.869
324.212	27.431	1160.355	928.583
325.227	27.399	1159.925	927.989
326.241	27.414	1159.284	927.475
327.256	27.550	1158.403	927.378
328.270	27.602	1157.191	926.587
329.285	27.487	1156.558	925.418
330.300	27.583	1155.632	925.082
331.314	27.529	1154.988	924.209
332.329	27.462	1154.479	923.383
333.343	27.592	1153.514	923.188
334.358	27.621	1153.062	922.891
335.373	27.575	1152.154	921.846
336.387	27.658	1151.676	921.803
337.402	27.719	1150.961	921.456
338.416	27.777	1149.969	920.873
339.431	27.714	1149.622	920.200
340.446	27.697	1149.416	919.867
341.460	27.659	1148.591	918.935
342.475	27.744	1147.511	918.414
343.489	27.705	1146.316	917.183
344.504	27.747	1145.321	916.517
345.519	27.793	1144.840	916.282
346.533	27.762	1144.315	915.622
347.548	27.768	1143.172	914.659
348.562	27.773	1142.671	914.200
349.577	27.640	1142.525	913.335
350.592	27.663	1141.295	912.389
351.606	27.609	1140.530	911.425
352.621	27.637	1140.115	911.152
353.635	27.700	1139.508	910.902
354.650	27.720	1138.846	910.393
355.665	27.800	1138.415	910.368
356.679	27.762	1137.564	909.416
357.694	27.886	1136.970	909.476
358.708	27.845	1136.150	908.536
359.723	27.935	1135.268	908.197
360.738	27.899	1134.645	907.442
361.752	27.817	1134.686	906.988
362.767	27.885	1133.978	906.678
363.781	27.892	1133.314	906.104
364.796	27.959	1132.641	905.814
365.810	27.862	1132.426	905.085
366.825	27.926	1131.501	904.581
367.840	28.099	1131.113	905.047
368.854	28.019	1130.457	904.046
369.869	28.115	1129.563	903.724
370.883	27.951	1129.313	902.634
371.898	27.995	1128.514	902.135
372.913	28.029	1127.890	901.722
373.927	28.140	1127.334	901.745
374.942	28.051	1126.816	900.815
375.956	28.067	1126.123	900.259
376.971	28.086	1125.903	900.095
377.986	28.030	1125.145	899.133
379.000	28.129	1124.799	899.266
380.015	28.155	1124.402	898.995
381.029	28.103	1123.525	897.960
382.044	27.999	1122.997	896.949
383.059	28.174	1122.062	896.979
384.073	28.190	1121.220	896.306
385.088	28.125	1120.737	895.524
386.102	28.271	1119.344	895.043
387.117	28.099	1118.870	893.745
388.132	28.144	1118.184	893.338
389.146	28.192	1117.546	892.982
390.161	28.301	1116.869	892.894
391.175	28.223	1116.024	891.759
392.190	28.161	1116.051	891.401
393.205	28.205	1114.823	890.557
394.219	28.274	1114.285	890.384
395.234	28.215	1113.378	889.293
396.248	28.359	1112.467	889.184
397.263	28.301	1111.144	887.770
398.278	28.327	1111.152	887.823
399.292	28.440	1110.300	887.610
400.307	28.373	1109.857	886.851
401.321	28.444	1108.921	886.370
402.336	28.353	1108.602	885.598
403.350	28.323	1108.402	885.213
404.365	28.397	1107.088	884.445
405.380	28.434	1106.674	884.213
406.394	28.456	1105.702	883.462
407.409	28.534	1105.099	883.281
408.423	28.440	1104.517	882.283
409.438	28.436	1103.883	881.680
410.453	28.662	1102.735	881.768
411.467	28.572	1102.256	880.877
412.482	28.523	1101.520	879.975
413.496	28.474	1101.427	879.591
414.511	28.528	1100.767	879.243
415.526	28.613	1099.487	878.549
416.540	28.531	1099.895	878.403
417.555	28.604	1099.233	878.146
418.569	28.572	1098.363	877.224
419.584	28.596	1098.215	877.141
420.599	28.650	1097.901	877.069
421.613	96.848	1312.115	1419.127
422.628	90.521	1343.322	1419.248
