DTS Sentinel unit serial number:	SN413079Multiplexer serial number:	ORYXHardware model number:	OX4-SRSoftware version number:	ORYX F/W v4.00 Oryx Data Collector v3.7.2.0data status	okinstallation	princeton_trtdifferential loss correction	single-endedforward channel	channel 2reverse channel	N/Adate	2019/09/11time	04:17:11forward acquisition time	60.00reverse acquisition time	0.00gamma	496.2192k internal	0.2329k external	0.2329temperature offset calibration	0.9940default loss term (dB/km)	0.3790temperature slope calibration	1.0000multiplexer offset coefficient	1.0000multiplexer slope coefficient	1.0000fibre end	0.00T internal ref (°C)	29.56T ext. ref 1 (°C)	-0.28T ext. ref 2 (°C)	23.40length (m)	temperature (°C)	Stokes	anti-Stokes-747.200	-129.542	0.487	0.068
-746.185	-200.000	0.011	0.160
-745.171	-147.315	0.257	0.022
-744.156	292.339	-0.063	0.115
-743.142	-200.000	-0.029	-0.238
-742.127	702.025	-0.107	0.283
-741.112	608.837	-0.054	-0.136
-740.098	-200.000	-0.008	-0.289
-739.083	451.072	0.057	-0.127
-738.069	-200.000	-0.031	0.289
-737.054	1.385	0.190	0.138
-736.039	51.974	-0.219	-0.210
-735.025	-200.000	-0.056	0.296
-734.010	-109.420	-0.147	-0.031
-732.996	-200.000	-0.026	0.218
-731.981	-139.847	0.151	-0.016
-730.966	-100.714	-0.242	-0.060
-729.952	-200.000	-0.091	-0.411
-728.937	-153.232	-0.196	0.014
-727.923	-37.509	-0.161	0.087
-726.908	47.567	0.088	-0.083
-725.894	491.750	-0.147	-0.339
-724.879	92.095	0.040	-0.045
-723.864	-30.744	-0.146	0.083
-722.850	28.082	-0.287	-0.244
-721.835	-40.070	-0.154	-0.081
-720.821	411.777	0.045	-0.096
-719.806	437.887	-0.115	-0.253
-718.791	-200.000	-0.011	-0.062
-717.777	-200.000	-0.040	-0.256
-716.762	51.241	0.116	-0.111
-715.748	-171.064	-0.228	-0.008
-714.733	-35.015	0.272	-0.149
-713.718	495.667	0.181	-0.418
-712.704	800.000	-0.061	-0.240
-711.689	-127.508	0.137	0.020
-710.675	-76.683	0.150	0.053
-709.660	-30.448	0.057	0.032
-708.645	-172.321	-0.166	-0.005
-707.631	-74.299	-0.256	0.093
-706.616	-200.000	-0.036	0.221
-705.602	22.198	-0.109	-0.090
-704.587	35.349	0.148	-0.130
-703.572	-95.450	-0.292	-0.079
-702.558	-56.642	0.070	-0.031
-701.543	800.000	-0.108	0.351
-700.529	132.326	0.261	-0.339
-699.514	226.196	-0.166	-0.271
-698.499	145.245	0.129	0.174
-697.485	-200.000	-0.072	-0.612
-696.470	-200.000	-0.022	0.255
-695.456	279.712	-0.033	-0.059
-694.441	733.060	0.095	-0.255
-693.426	-80.138	0.118	0.040
-692.412	-138.699	-0.406	0.045
-691.397	30.299	-0.089	-0.077
-690.383	-200.000	-0.003	-0.220
-689.368	-200.000	-0.032	0.180
-688.354	-200.000	0.039	-0.324
-687.339	-106.057	-0.132	-0.030
-686.324	-157.813	0.147	-0.009
-685.310	800.000	0.128	-0.479
-684.295	137.925	0.188	-0.248
-683.281	-89.823	0.204	0.060
-682.266	23.659	0.166	0.138
-681.251	-68.617	0.331	0.129
-680.237	-200.000	-0.012	-0.307
-679.222	800.000	-0.101	-0.304
-678.208	359.706	0.094	0.189
-677.193	-9.236	-0.069	-0.046
-676.178	-153.407	-0.147	0.010
-675.164	-78.627	-0.040	0.014
-674.149	-99.767	-0.103	-0.026
-673.135	139.197	0.223	-0.295
-672.120	-31.731	0.076	-0.043
-671.105	755.591	-0.033	-0.091
-670.091	-200.000	0.014	0.281
-669.076	-29.167	-0.126	-0.073
-668.062	-99.376	0.420	-0.106
-667.047	579.671	-0.090	-0.222
-666.032	800.000	0.071	-0.221
-665.018	-51.961	0.260	0.121
-664.003	-200.000	-0.023	-0.320
-662.989	-200.000	-0.053	0.303
-661.974	-42.360	0.177	-0.091
-660.959	-200.000	0.017	0.136
-659.945	415.592	0.035	0.075
-658.930	760.224	-0.113	0.307
-657.916	-82.949	-0.431	-0.139
-656.901	-172.638	0.257	0.008
-655.886	-45.628	-0.202	0.101
-654.872	-159.559	-0.097	0.005
-653.857	70.143	-0.140	-0.145
-652.843	154.618	0.132	-0.183
-651.828	-116.805	-0.312	0.057
-650.814	-46.563	0.339	-0.167
-649.799	-159.355	-0.380	-0.021
-648.784	-157.388	-0.317	-0.019
-647.770	-76.486	-0.251	0.088
-646.755	800.000	-0.016	0.051
-645.741	-109.357	-0.071	0.015
-644.726	145.966	-0.251	0.338
-643.711	-200.000	0.027	-0.323
-642.697	-105.525	0.347	0.079
-641.682	-17.019	-0.136	0.086
-640.668	-120.379	0.133	0.023
-639.653	-50.250	-0.296	-0.140
-638.638	-48.658	-0.384	-0.185
-637.624	-7.739	0.127	-0.086
-636.609	308.911	0.118	-0.221
-635.595	-127.300	-0.230	0.034
-634.580	256.265	0.112	-0.193
-633.565	489.550	-0.106	0.242
-632.551	-200.000	-0.024	0.212
-631.536	-22.354	-0.140	-0.085
-630.522	132.062	-0.115	0.149
-629.507	127.369	0.281	-0.358
-628.492	86.741	-0.069	0.077
-627.478	-87.641	-0.339	-0.103
-626.463	-60.505	-0.236	0.101
-625.449	64.076	0.063	-0.064
-624.434	-123.930	0.025	0.004
-623.419	376.513	-0.062	-0.127
-622.405	800.000	-0.161	-0.556
-621.390	-52.111	-0.126	0.059
-620.376	376.436	0.034	-0.070
-619.361	-80.589	-0.201	0.067
-618.346	343.082	-0.125	-0.245
-617.332	800.000	0.059	0.191
-616.317	-99.813	-0.340	0.085
-615.303	-0.311	0.202	0.144
-614.288	420.411	-0.109	0.234
-613.273	-42.354	-0.278	0.142
-612.259	-172.164	-0.159	0.005
-611.244	52.826	-0.081	0.077
-610.230	800.000	-0.059	-0.165
-609.215	-130.858	-0.293	-0.039
-608.201	-200.000	-0.063	-0.352
-607.186	64.676	0.066	-0.067
-606.171	-65.924	0.149	-0.060
-605.157	-83.990	-0.244	0.078
-604.142	-132.652	-0.231	-0.030
-603.128	-74.317	0.162	-0.059
-602.113	160.836	0.123	0.172
-601.098	-200.000	-0.054	-0.277
-600.084	319.807	0.069	-0.132
-599.069	732.819	-0.101	-0.271
-598.055	-51.606	-0.155	0.073
-597.040	69.416	0.099	0.102
-596.025	-15.801	-0.369	0.235
-595.011	186.561	-0.109	-0.163
-593.996	107.819	0.030	-0.036
-592.982	151.664	-0.045	-0.061
-591.967	666.796	-0.043	-0.112
-590.952	-86.719	0.166	0.051
-589.938	-78.305	-0.146	-0.050
-588.923	117.374	-0.189	-0.233
-587.909	-200.000	0.001	0.219
-586.894	-52.907	0.027	-0.012
-585.879	-88.401	-0.208	-0.062
-584.865	-118.497	0.310	-0.055
-583.850	-121.212	-0.195	-0.033
-582.836	-55.805	0.113	0.051
-581.821	85.978	-0.150	0.166
-580.806	61.005	0.187	-0.186
-579.792	-34.252	-0.381	-0.209
-578.777	-123.062	0.115	0.019
-577.763	-110.195	0.455	0.095
-576.748	-19.604	0.108	-0.067
-575.733	-28.993	-0.295	0.169
-574.719	-14.885	0.214	0.137
-573.704	-70.524	-0.188	-0.071
-572.690	-112.510	0.152	0.030
-571.675	-200.000	0.045	-0.330
-570.661	82.091	-0.185	-0.200
-569.646	-84.769	0.315	0.099
-568.631	257.356	-0.055	-0.094
-567.617	-105.659	0.261	0.059
-566.602	-17.762	-0.163	-0.102
-565.588	62.264	0.089	-0.089
-564.573	-37.939	0.210	0.112
-563.558	1.661	-0.231	0.167
-562.544	296.555	0.057	0.105
-561.529	38.051	0.110	0.098
-560.515	-125.992	-0.302	-0.045
-559.500	800.000	0.116	0.360
-558.485	-200.000	-0.002	0.141
-557.471	29.523	0.030	-0.025
-556.456	-78.342	0.384	-0.132
-555.442	258.283	-0.189	-0.326
-554.427	800.000	-0.036	-0.155
-553.412	800.000	0.056	-0.179
-552.398	405.986	0.030	0.064
-551.383	-149.525	-0.331	0.026
-550.369	800.000	-0.004	-0.012
-549.354	-136.814	-0.189	-0.022
-548.339	-200.000	0.002	0.328
-547.325	90.915	0.180	-0.202
-546.310	4.461	0.174	0.128
-545.296	-99.570	0.323	0.081
-544.281	-200.000	0.044	0.211
-543.266	-68.896	-0.316	0.122
-542.252	284.939	-0.157	-0.282
-541.237	800.000	-0.104	0.393
-540.223	144.625	-0.082	0.110
-539.208	-200.000	0.031	-0.221
-538.193	800.000	0.107	-0.312
-537.179	114.685	-0.089	-0.108
-536.164	472.172	-0.060	-0.134
-535.150	-65.481	-0.272	0.109
-534.135	255.111	0.028	0.048
-533.121	465.774	-0.035	0.078
-532.106	-120.008	-0.282	0.048
-531.091	67.026	0.258	0.263
-530.077	-200.000	0.163	-0.000
-529.062	-41.112	-0.163	0.084
-528.048	-164.743	0.290	-0.013
-527.033	800.000	0.033	-0.139
-526.018	800.000	0.082	-0.293
-525.004	-200.000	-0.027	-0.506
-523.989	-36.566	-0.430	0.231
-522.975	800.000	0.036	0.112
-521.960	139.042	-0.308	0.404
-520.945	-96.311	0.097	0.026
-519.931	350.486	0.132	0.261
-518.916	-154.388	-0.189	-0.013
-517.902	61.896	0.096	-0.095
-516.887	596.968	-0.206	-0.508
-515.872	451.115	0.096	0.213
-514.858	48.796	0.330	0.309
-513.843	-200.000	0.034	0.198
-512.829	300.585	0.112	-0.206
-511.814	-138.941	0.139	0.015
-510.799	417.326	-0.075	0.159
-509.785	-1.628	-0.126	-0.089
-508.770	70.038	0.025	-0.026
-507.756	411.476	0.065	0.139
-506.741	-119.177	0.280	-0.049
-505.726	-176.489	-0.512	-0.013
-504.712	-200.000	-0.008	-0.068
-503.697	-102.079	0.227	0.055
-502.683	53.753	-0.072	-0.069
-501.668	552.069	0.109	0.262
-500.653	-51.209	-0.019	0.009
-499.639	-200.000	-0.027	0.331
-498.624	800.000	0.022	0.083
-497.610	-117.653	0.339	-0.061
-496.595	-62.162	0.247	0.103
-495.581	-111.539	0.246	0.050
-494.566	282.675	0.073	0.130
-493.551	393.986	-0.165	0.344
-492.537	-50.368	-0.202	0.095
-491.522	66.556	0.122	-0.123
-490.508	-31.199	-0.364	-0.205
-489.493	-124.913	-0.174	0.027
-488.478	32.586	0.212	0.183
-487.464	-69.921	-0.178	0.068
-486.449	27.152	0.112	-0.094
-485.435	32.945	-0.225	0.194
-484.420	-200.000	-0.010	0.199
-483.405	-23.694	0.168	-0.100
-482.391	81.701	0.083	-0.089
-481.376	222.808	0.154	0.247
-480.362	-95.809	0.108	-0.029
-479.347	-130.822	-0.102	0.014
-478.332	748.422	-0.049	0.131
-477.318	-63.962	0.185	-0.075
-476.303	-32.942	0.093	0.051
-475.289	227.925	-0.043	-0.070
-474.274	96.402	0.010	-0.011
-473.259	324.272	-0.099	0.188
-472.245	-33.579	0.039	-0.021
-471.230	-1.122	-0.128	-0.090
-470.216	300.931	0.047	0.087
-469.201	419.349	0.028	-0.061
-468.186	220.607	-0.022	0.035
-467.172	-165.204	-0.215	0.009
-466.157	607.770	0.079	-0.196
-465.143	800.000	0.040	0.121
-464.128	-200.000	0.002	-0.133
-463.113	-50.772	-0.030	0.014
-462.099	-78.020	0.241	0.083
-461.084	116.375	-0.085	-0.104
-460.070	-17.014	0.236	0.149
-459.055	-139.535	-0.396	0.042
-458.040	314.921	0.023	-0.044
-457.026	-20.190	0.166	-0.102
-456.011	-200.000	0.024	0.364
-454.997	569.410	-0.074	0.178
-453.982	-64.851	-0.332	-0.134
-452.968	281.130	0.127	-0.226
-451.953	280.109	0.189	-0.337
-450.938	-30.320	-0.223	0.126
-449.924	-0.647	0.125	-0.088
-448.909	-130.134	0.210	0.028
-447.895	-142.827	0.172	0.017
-446.880	-148.253	-0.262	0.022
-445.865	377.155	0.125	-0.253
-444.851	800.000	0.042	-0.143
-443.836	-15.966	-0.174	0.110
-442.822	282.544	0.120	0.214
-441.807	-200.000	-0.033	0.220
-440.792	-200.000	0.021	0.244
-439.778	-200.000	0.090	0.515
-438.763	566.097	-0.095	0.230
-437.749	-200.000	-0.015	-0.272
-436.734	85.166	-0.352	-0.385
-435.719	-200.000	-0.006	0.056
-434.705	-115.273	-0.172	-0.032
-433.690	-68.884	0.108	0.042
-432.676	97.257	0.038	-0.044
-431.661	-200.000	0.026	0.263
-430.646	104.973	0.258	-0.302
-429.632	-111.862	0.128	0.026
-428.617	424.288	-0.044	-0.094
-427.603	-82.588	-0.517	0.167
-426.588	574.198	0.108	0.262
-425.573	-128.569	-0.138	-0.019
-424.559	800.000	0.056	0.198
-423.544	117.688	0.046	-0.056
-422.530	194.536	-0.231	-0.349
-421.515	-127.676	0.073	-0.010
-420.500	-200.000	-0.013	-0.117
-419.486	-186.367	-0.234	0.003
-418.471	-138.106	0.141	-0.016
-417.457	25.679	0.516	-0.428
-416.442	-108.145	-0.273	-0.059
-415.428	-7.401	-0.319	-0.215
-414.413	-200.000	-0.022	0.148
-413.398	188.718	0.020	-0.030
-412.384	176.534	0.171	-0.247
-411.369	-106.065	0.269	-0.060
-410.355	4.345	-0.138	-0.100
-409.340	188.622	-0.144	-0.214
-408.325	-200.000	0.009	0.384
-407.311	605.252	-0.023	-0.057
-406.296	29.741	0.114	-0.097
-405.282	-81.865	0.279	0.091
-404.267	-15.851	-0.198	0.126
-403.252	-159.806	0.381	-0.021
-402.238	-200.000	-0.001	0.394
-401.223	26.977	-0.267	-0.222
-400.209	60.262	-0.156	-0.153
-399.194	-200.000	0.012	-0.145
-398.179	100.082	0.126	0.146
-397.165	161.393	0.197	0.275
-396.150	59.781	-0.115	0.112
-395.136	-84.587	0.182	0.057
-394.121	46.846	0.237	0.219
-393.106	514.269	0.099	0.229
-392.092	-200.000	0.007	0.077
-391.077	619.725	-0.126	-0.314
-390.063	171.039	0.106	0.151
-389.048	182.776	0.149	-0.218
-388.033	-200.000	-0.003	-0.077
-387.019	-110.463	0.168	-0.035
-386.004	99.769	-0.060	-0.070
-384.990	-200.000	0.015	-0.077
-383.975	735.457	-0.182	-0.483
-382.960	-200.000	0.016	-0.142
-381.946	34.559	0.057	-0.050
-380.931	270.242	-0.242	0.423
-379.917	-60.557	0.134	-0.056
-378.902	577.385	-0.138	-0.334
-377.888	68.459	0.153	0.156
-376.873	-68.046	0.159	-0.061
-375.858	-51.726	0.548	-0.253
-374.844	-200.000	-0.009	-0.310
-373.829	43.868	0.177	-0.161
-372.815	-16.739	-0.247	-0.155
-371.800	80.698	-0.062	-0.066
-370.785	-0.126	0.273	-0.193
-369.771	156.473	-0.227	-0.311
-368.756	-200.000	-0.061	-0.370
-367.742	800.000	0.065	0.263
-366.727	-200.000	-0.040	0.207
-365.712	-116.336	0.091	-0.017
-364.698	-200.000	-0.025	-0.130
-363.683	395.189	-0.110	-0.227
-362.669	-193.098	-0.124	-0.001
-361.654	-4.424	-0.169	0.116
-360.639	-68.509	-0.301	-0.116
-359.625	-59.985	-0.188	-0.080
-358.610	-24.995	0.257	0.151
-357.596	-27.603	0.136	-0.078
-356.581	-27.764	-0.171	0.098
-355.566	-200.000	0.021	-0.271
-354.552	-108.548	0.356	-0.076
-353.537	800.000	0.039	0.138
-352.523	103.666	-0.082	0.095
-351.508	-136.290	0.278	0.032
-350.493	498.184	0.071	0.163
-349.479	157.217	-0.183	-0.251
-348.464	-62.898	0.228	0.093
-347.450	-97.441	-0.557	0.144
-346.435	-200.000	0.002	0.209
-345.420	23.475	0.194	-0.158
-344.406	-92.890	-0.215	0.060
-343.391	90.556	-0.272	0.302
-342.377	-108.405	-0.085	-0.018
-341.362	-117.372	0.155	-0.028
-340.348	134.705	-0.069	0.089
-339.333	-148.680	-0.042	0.003
-338.318	800.000	0.130	0.423
-337.304	-104.825	-0.147	-0.033
-336.289	-116.036	-0.348	0.064
-335.275	-200.000	0.011	0.353
-334.260	104.956	0.075	-0.087
-333.245	-64.965	-0.221	0.088
-332.231	800.000	0.041	0.138
-331.216	-51.475	0.328	0.152
-330.202	-156.616	0.493	-0.030
-329.187	-86.230	0.238	-0.073
-328.172	-133.286	-0.185	0.023
-327.158	-200.000	0.016	0.213
-326.143	-200.000	0.007	0.063
-325.129	-32.313	0.349	-0.193
-324.114	800.000	-0.127	-0.407
-323.099	-85.481	0.055	0.017
-322.085	-117.686	0.057	-0.010
-321.070	711.103	0.058	-0.153
-320.056	-13.929	-0.221	0.141
-319.041	-200.000	-0.055	-0.388
-318.026	-143.763	-0.080	0.008
-317.012	131.901	-0.118	-0.150
-315.997	-30.259	0.301	0.169
-314.983	-149.005	0.236	0.019
-313.968	-152.947	0.211	-0.015
-312.953	-123.221	-0.275	-0.044
-311.939	-106.627	0.201	0.044
-310.924	-200.000	0.040	0.214
-309.910	47.902	0.275	0.254
-308.895	130.916	-0.230	0.292
-307.880	9.312	0.128	-0.096
-306.866	-200.000	-0.019	-0.142
-305.851	800.000	0.076	0.241
-304.837	84.006	0.163	0.177
-303.822	-93.995	0.162	0.044
-302.807	21.553	0.080	-0.065
-301.793	-200.000	-0.041	0.471
-300.778	134.020	0.139	-0.178
-299.764	97.434	-0.145	0.165
-298.749	-196.139	-0.322	0.002
-297.735	-125.960	-0.246	-0.037
-296.720	66.056	0.189	0.190
-295.705	88.278	0.068	-0.074
-294.691	800.000	0.049	-0.183
-293.676	-200.000	0.018	-0.217
-292.662	-92.522	0.124	0.034
-291.647	3.253	0.108	0.078
-290.632	-75.133	-0.196	-0.069
-289.618	800.000	-0.055	0.162
-288.603	-115.204	0.306	0.057
-287.589	135.832	0.155	0.199
-286.574	410.791	0.064	-0.134
-285.559	-96.824	0.120	0.031
-284.545	65.927	-0.102	-0.103
-283.530	83.373	-0.109	0.117
-282.516	-52.545	0.212	-0.097
-281.501	17.622	0.178	0.140
-280.486	-51.933	-0.179	-0.082
-279.472	-111.828	-0.419	0.084
-278.457	60.369	0.129	-0.126
-277.443	800.000	-0.106	-0.291
-276.428	98.907	-0.122	0.140
-275.413	-7.788	0.207	-0.138
-274.399	124.053	-0.156	-0.193
-273.384	109.350	-0.096	-0.113
-272.370	91.223	0.099	-0.110
-271.355	800.000	-0.078	0.223
-270.340	676.248	0.104	0.268
-269.326	-200.000	-0.002	-0.009
-268.311	-28.090	-0.317	0.181
-267.297	800.000	-0.070	0.275
-266.282	-87.017	-0.208	0.063
-265.267	510.945	0.036	0.083
-264.253	-136.621	0.160	0.018
-263.238	-200.000	0.033	0.207
-262.224	800.000	-0.081	0.251
-261.209	-2.952	-0.110	0.076
-260.195	-148.132	-0.254	0.021
-259.180	-200.000	0.006	0.197
-258.165	800.000	0.011	0.037
-257.151	591.454	-0.121	-0.295
-256.136	-99.841	0.295	-0.073
-255.122	307.173	-0.124	-0.229
-254.107	-78.213	-0.247	-0.084
-253.092	206.987	-0.176	-0.270
-252.078	104.223	0.171	0.199
-251.063	95.532	0.164	-0.184
-250.049	-200.000	-0.020	-0.278
-249.034	4.151	-0.222	0.161
-248.019	-43.032	0.110	0.055
-247.005	-161.897	0.108	0.005
-245.990	-50.723	0.158	0.073
-244.976	-96.373	0.244	0.064
-243.961	-31.292	0.241	-0.134
-242.946	81.447	-0.209	-0.223
-241.932	107.570	0.127	-0.150
-240.917	407.098	0.119	-0.248
-239.903	800.000	-0.077	-0.286
-238.888	-98.344	0.178	-0.045
-237.873	-36.072	-0.128	0.069
-236.859	-200.000	-0.033	0.259
-235.844	800.000	0.087	0.253
-234.830	-46.187	0.359	-0.175
-233.815	-45.994	0.018	-0.009
-232.800	-131.583	0.309	-0.040
-231.786	-118.787	-0.220	-0.038
-230.771	-20.725	-0.283	-0.172
-229.757	-200.000	0.035	0.389
-228.742	-87.861	-0.194	0.058
-227.727	625.525	0.034	-0.085
-226.713	505.517	-0.038	-0.086
-225.698	49.820	0.193	0.180
-224.684	-7.174	0.353	-0.236
-223.669	800.000	-0.153	-0.582
-222.655	-132.342	0.271	0.035
-221.640	556.422	0.107	-0.253
-220.625	-137.710	0.252	-0.028
-219.611	-132.481	-0.179	-0.023
-218.596	117.401	0.032	0.039
-217.582	-200.000	-0.026	-0.124
-216.567	-200.000	-0.012	-0.087
-215.552	-122.217	0.126	0.020
-214.538	41.866	-0.128	0.115
-213.523	706.206	-0.060	0.156
-212.509	-200.000	0.007	0.314
-211.494	3.640	0.043	0.031
-210.479	800.000	-0.062	0.180
-209.465	-48.585	0.139	-0.066
-208.450	243.284	0.128	-0.211
-207.436	-200.000	0.035	-0.383
-206.421	12.558	0.306	0.233
-205.406	85.842	0.330	0.358
-204.392	221.707	0.255	-0.404
-203.377	-100.860	0.227	0.055
-202.363	-164.266	-0.099	-0.005
-201.348	-104.623	-0.098	-0.022
-200.333	-200.000	-0.001	-0.018
-199.319	4.494	0.329	0.238
-198.304	-141.650	-0.231	-0.023
-197.290	800.000	-0.068	0.237
-196.275	119.565	-0.153	0.187
-195.260	-147.858	-0.173	0.014
-194.246	89.813	-0.062	0.068
-193.231	-107.254	0.284	0.062
-192.217	128.340	-0.110	-0.138
-191.202	800.000	-0.044	0.170
-190.187	800.000	-0.082	-0.335
-189.173	19.244	0.244	-0.193
-188.158	-49.484	-0.234	0.110
-187.144	-200.000	-0.004	0.066
-186.129	-63.413	0.073	-0.030
-185.114	174.968	0.162	-0.232
-184.100	116.517	-0.183	0.222
-183.085	800.000	-0.077	-0.307
-182.071	-193.400	0.301	-0.003
-181.056	-92.969	-0.131	0.036
-180.042	-172.629	0.251	-0.008
-179.027	49.393	0.218	0.202
-178.012	-150.799	-0.157	-0.012
-176.998	58.828	-0.083	-0.080
-175.983	93.082	-0.182	-0.203
-174.969	241.945	0.127	0.210
-173.954	124.909	-0.337	0.418
-172.939	58.009	0.270	0.261
-171.925	-200.000	0.026	-0.336
-170.910	673.488	-0.053	-0.136
-169.896	601.655	-0.178	0.437
-168.881	-46.597	-0.133	0.064
-167.866	800.000	-0.045	0.170
-166.852	-44.164	0.323	-0.160
-165.837	-130.125	0.157	0.021
-164.823	-200.000	0.019	-0.207
-163.808	82.585	0.336	0.359
-162.793	-49.182	0.135	0.064
-161.779	32.117	0.251	-0.213
-160.764	-51.708	0.028	0.013
-159.750	-35.914	-0.068	-0.036
-158.735	-92.670	-0.211	-0.058
-157.720	21.676	0.069	0.055
-156.706	155.459	-0.088	-0.120
-155.691	-45.887	-0.319	0.155
-154.677	800.000	-0.081	0.324
-153.662	-200.000	0.011	-0.317
-152.647	-200.000	-0.032	-0.176
-151.633	65.886	0.221	-0.220
-150.618	-16.936	0.151	-0.094
-149.604	-7.322	-0.212	-0.141
-148.589	-200.000	0.000	-0.125
-147.574	4.539	0.318	0.230
-146.560	-105.044	-0.249	0.056
-145.545	265.743	0.147	0.253
-144.531	-90.086	-0.232	-0.066
-143.516	-139.763	-0.263	-0.028
-142.502	-103.461	-0.199	0.046
-141.487	-34.006	0.341	0.184
-140.472	800.000	0.099	-0.311
-139.458	26.868	-0.340	0.280
-138.443	308.941	0.080	-0.147
-137.429	-200.000	-0.065	-0.359
-136.414	228.911	0.158	-0.254
-135.399	314.890	-0.136	-0.251
-134.385	-71.337	-0.482	0.178
-133.370	-200.000	0.030	-0.200
-132.356	-200.000	0.021	-0.195
-131.341	-80.751	-0.102	-0.033
-130.326	125.760	-0.215	-0.267
-129.312	-93.685	0.226	0.061
-128.297	163.341	0.112	0.155
-127.283	800.000	-0.024	-0.098
-126.268	788.813	0.099	-0.268
-125.253	-24.416	0.081	0.047
-124.239	800.000	-0.015	0.043
-123.224	-200.000	-0.060	-0.326
-122.210	266.671	0.097	-0.166
-121.195	-6.148	0.190	0.128
-120.180	125.376	-0.014	0.017
-119.166	50.942	-0.169	0.158
-118.151	-200.000	-0.006	0.069
-117.137	-91.423	0.243	-0.068
-116.122	231.110	0.157	0.252
-115.107	-133.482	0.171	-0.021
-114.093	22.129	-0.350	-0.281
-113.078	-50.890	-0.013	-0.006
-112.064	74.786	-0.152	0.157
-111.049	0.860	-0.123	-0.087
-110.034	67.738	-0.217	-0.218
-109.020	267.639	0.098	0.169
-108.005	800.000	-0.110	-0.338
-106.991	-89.342	-0.128	-0.037
-105.976	392.505	-0.147	0.301
-104.962	-149.461	-0.150	0.012
-103.947	6.296	-0.170	-0.124
-102.932	-0.906	0.336	-0.234
-101.918	-200.000	0.014	0.143
-100.903	-20.618	-0.288	0.173
-99.889	-200.000	-0.049	-0.223
-98.874	-40.185	0.283	0.145
-97.859	-141.265	-0.473	-0.047
-96.845	-38.329	0.171	-0.089
-95.830	800.000	0.054	0.182
-94.816	25.871	0.037	0.031
-93.801	-200.000	0.017	-0.090
-92.786	121.361	-0.120	-0.147
-91.772	-58.567	-0.242	-0.103
-90.757	800.000	-0.035	0.118
-89.743	108.584	-0.114	0.134
-88.728	800.000	0.095	-0.345
-87.713	67.410	0.125	-0.125
-86.699	-1.844	0.207	0.143
-85.684	-142.332	0.176	-0.017
-84.670	-200.000	0.013	0.250
-83.655	-200.000	-0.006	-0.107
-82.640	-200.000	0.023	-0.241
-81.626	-94.895	-0.336	-0.089
-80.611	-200.000	-0.007	0.272
-79.597	-68.939	0.103	-0.039
-78.582	516.269	-0.120	-0.276
-77.567	-200.000	0.004	-0.159
-76.553	55.564	-0.055	-0.052
-75.538	-200.000	-0.057	-0.447
-74.524	-200.000	0.007	0.175
-73.509	143.273	0.237	-0.309
-72.494	-23.207	-0.084	0.050
-71.480	306.540	-0.044	0.080
-70.465	-200.000	-0.007	0.276
-69.451	-97.230	-0.288	0.074
-68.436	82.924	-0.101	-0.108
-67.422	77.822	-0.177	0.185
-66.407	-76.558	-0.172	-0.059
-65.392	-13.496	-0.137	-0.087
-64.378	332.800	-0.151	0.286
-63.363	-97.942	-0.198	-0.050
-62.349	59.989	0.335	0.324
-61.334	113.760	-0.806	-0.960
-60.319	55.662	0.601	0.571
-59.305	800.000	-0.280	-1.029
-58.290	708.190	0.447	1.158
-57.276	800.000	0.606	1.654
-56.261	-200.000	106.155	613.723
-55.246	502.320	1508.431	3417.924
-54.232	174.616	2710.502	3844.875
-53.217	104.615	2302.120	2659.251
-52.203	38.661	1905.617	1667.179
-51.188	32.646	1691.832	1434.475
-50.173	30.150	1648.116	1378.816
-49.159	49.135	1702.012	1567.902
-48.144	49.340	1717.496	1583.654
-47.130	32.279	1674.824	1417.059
-46.115	29.614	1660.466	1384.906
-45.100	29.464	1655.034	1379.205
-44.086	29.407	1652.262	1376.414
-43.071	29.460	1649.371	1374.342
-42.057	29.431	1647.312	1372.359
-41.042	29.413	1645.208	1370.415
-40.027	29.492	1643.346	1369.395
-39.013	29.396	1642.034	1367.537
-37.998	29.376	1640.102	1365.726
-36.984	29.491	1638.737	1365.386
-35.969	29.567	1637.082	1364.520
-34.954	29.650	1635.435	1363.700
-33.940	29.642	1633.314	1361.818
-32.925	29.582	1631.951	1360.186
-31.911	29.600	1630.172	1358.783
-30.896	29.475	1628.480	1356.404
-29.881	29.547	1626.987	1355.629
-28.867	29.556	1625.337	1354.269
-27.852	29.555	1623.905	1353.019
-26.838	29.512	1622.330	1351.337
-25.823	29.490	1621.296	1350.257
-24.809	29.517	1620.018	1349.336
-23.794	29.563	1618.391	1348.267
-22.779	29.588	1617.209	1347.412
-21.765	29.562	1615.275	1345.553
-20.750	29.497	1614.224	1344.157
-19.736	29.672	1611.957	1343.486
-18.721	29.661	1610.436	1342.084
-17.706	29.586	1609.549	1340.750
-16.692	29.601	1607.520	1339.114
-15.677	29.614	1606.047	1337.927
-14.663	29.692	1604.784	1337.384
-13.648	29.661	1603.747	1336.245
-12.633	29.548	1602.381	1334.237
-11.619	29.609	1600.914	1333.402
-10.604	29.618	1599.018	1331.835
-9.590	29.586	1597.906	1330.625
-8.575	29.556	1596.957	1329.566
-7.560	29.520	1595.917	1328.389
-6.546	29.633	1594.600	1328.049
-5.531	29.636	1593.414	1327.033
-4.517	29.619	1592.337	1325.961
-3.502	29.555	1591.592	1324.832
-2.487	29.707	1589.075	1323.767
-1.473	29.394	1577.606	1311.941
-0.458	26.562	1558.920	1276.411
0.556	20.824	1560.575	1246.423
1.571	18.732	1585.341	1250.867
2.586	18.419	1599.120	1259.325
3.600	16.842	1545.936	1206.123
4.615	8.932	1436.497	1068.138
5.629	1.392	1372.187	972.111
6.644	-0.196	1364.758	956.645
7.659	-0.362	1363.430	954.575
8.673	-0.294	1362.562	954.314
9.688	-0.257	1360.356	952.919
10.702	-0.462	1357.174	949.312
11.717	3.099	1364.622	977.086
12.731	12.450	1382.090	1049.450
13.746	19.756	1394.546	1105.707
14.761	21.718	1396.620	1119.805
15.775	22.056	1396.512	1121.781
16.790	21.990	1396.472	1121.229
17.804	22.028	1395.693	1120.748
18.819	22.345	1395.141	1122.228
19.834	22.442	1394.604	1122.309
20.848	22.464	1393.398	1121.385
21.863	22.509	1392.863	1121.138
22.877	22.503	1391.976	1120.285
23.892	22.431	1391.275	1119.165
24.907	22.455	1390.509	1118.607
25.921	22.415	1389.657	1117.567
26.936	22.405	1388.445	1116.426
27.950	22.466	1387.425	1115.897
28.965	22.526	1386.145	1115.150
29.980	22.479	1385.150	1113.949
30.994	22.402	1383.921	1112.377
32.009	22.449	1383.013	1111.846
33.023	22.393	1381.659	1110.304
34.038	22.516	1380.331	1109.915
35.053	22.438	1379.632	1108.761
36.067	22.450	1378.775	1108.054
37.082	22.408	1377.966	1107.043
38.096	22.463	1377.211	1106.679
39.111	22.522	1376.033	1106.008
40.126	22.483	1375.054	1104.881
41.140	22.500	1374.816	1104.696
42.155	22.396	1374.777	1103.915
43.169	22.474	1374.662	1104.213
44.184	22.425	1373.774	1103.097
45.199	22.411	1374.007	1103.099
46.213	22.487	1373.029	1102.691
47.228	22.535	1372.193	1102.220
48.242	22.473	1371.193	1100.931
49.257	22.580	1369.239	1099.938
50.271	22.516	1368.233	1098.632
51.286	22.486	1366.993	1097.351
52.301	22.449	1365.738	1096.018
53.315	22.485	1364.487	1095.138
54.330	22.525	1363.760	1094.707
55.344	22.428	1362.754	1093.199
56.359	22.461	1361.690	1092.454
57.374	22.366	1361.155	1091.337
58.388	22.496	1360.346	1091.402
59.403	22.364	1359.981	1090.192
60.417	22.402	1359.042	1089.577
61.432	22.474	1358.351	1089.372
62.447	22.421	1357.500	1088.265
63.461	22.493	1356.346	1087.689
64.476	22.416	1355.398	1086.356
65.490	22.450	1354.468	1085.725
66.505	22.490	1352.706	1084.463
67.520	22.369	1352.015	1083.069
68.534	22.488	1350.673	1082.630
69.549	22.532	1349.431	1081.810
70.563	22.491	1348.892	1081.031
71.578	22.547	1347.698	1080.320
72.593	22.500	1346.779	1079.204
73.607	22.533	1346.198	1078.842
74.622	22.529	1345.345	1078.039
75.636	22.482	1344.975	1077.360
76.651	22.421	1344.716	1076.681
77.666	22.588	1343.578	1076.699
78.680	22.541	1342.785	1075.679
79.695	22.522	1341.987	1074.829
80.709	22.562	1341.223	1074.369
81.724	22.532	1340.220	1073.285
82.739	22.404	1339.590	1071.908
83.753	22.397	1338.937	1071.246
84.768	22.509	1337.306	1070.529
85.782	22.463	1336.216	1069.284
86.797	22.551	1334.801	1068.587
87.812	22.571	1333.761	1067.781
88.826	22.490	1333.343	1066.864
89.841	22.524	1332.164	1066.032
90.855	22.530	1331.053	1065.085
91.870	22.600	1330.133	1064.677
92.884	22.510	1329.350	1063.411
93.899	22.551	1328.449	1062.845
94.914	22.523	1327.931	1062.165
95.928	22.529	1326.793	1061.200
96.943	22.562	1326.001	1060.671
97.957	22.549	1325.238	1059.887
98.972	22.621	1324.282	1059.458
99.987	22.567	1322.975	1058.000
101.001	22.503	1322.199	1056.902
102.016	22.491	1321.632	1056.282
103.030	22.484	1320.721	1055.418
104.045	22.575	1319.636	1055.003
105.060	22.658	1318.576	1054.554
106.074	22.597	1317.424	1053.177
107.089	22.555	1316.455	1052.061
108.103	22.581	1315.583	1051.424
109.118	22.617	1314.460	1050.647
110.133	22.581	1313.476	1049.556
111.147	22.555	1312.343	1048.402
112.162	22.652	1310.820	1047.666
113.176	22.572	1310.093	1046.522
114.191	22.629	1309.546	1046.329
115.206	22.574	1308.222	1044.855
116.220	22.513	1307.479	1043.807
117.235	22.662	1306.032	1043.438
118.249	22.542	1305.232	1041.995
119.264	22.629	1303.827	1041.295
120.279	22.663	1303.519	1041.160
121.293	22.627	1302.579	1040.105
122.308	22.609	1301.629	1039.148
123.322	22.696	1300.928	1039.009
124.337	22.657	1300.316	1038.198
125.352	22.668	1299.252	1037.320
126.366	22.716	1298.121	1036.613
127.381	22.629	1297.669	1035.648
128.395	22.722	1296.259	1034.976
129.410	22.727	1295.435	1034.256
130.424	22.642	1294.828	1033.181
131.439	22.688	1293.870	1032.593
132.454	22.572	1293.393	1031.443
133.468	22.691	1292.702	1031.499
134.483	22.610	1292.400	1030.690
135.497	22.585	1291.225	1029.515
136.512	22.650	1289.746	1028.624
137.527	22.611	1289.043	1027.745
138.541	22.609	1287.147	1026.132
139.556	22.549	1286.009	1024.788
140.570	22.630	1285.544	1024.793
141.585	22.669	1284.194	1023.857
142.600	22.691	1282.743	1022.734
143.614	22.625	1282.166	1021.801
144.629	22.594	1281.561	1021.051
145.643	22.505	1280.247	1019.396
146.658	22.506	1279.115	1018.409
147.673	22.616	1277.860	1017.958
148.687	22.636	1276.963	1017.268
149.702	22.548	1275.548	1015.544
150.716	22.607	1274.995	1015.356
151.731	22.579	1274.057	1014.353
152.746	22.691	1272.694	1013.827
153.760	22.650	1271.768	1012.764
154.775	22.762	1270.921	1012.642
155.789	22.676	1269.788	1011.154
156.804	22.729	1268.704	1010.504
157.819	22.639	1268.011	1009.352
158.833	22.680	1267.202	1008.849
159.848	22.677	1266.834	1008.453
160.862	22.652	1266.224	1007.734
161.877	22.718	1265.298	1007.282
162.892	22.801	1263.937	1006.584
163.906	22.718	1263.250	1005.478
164.921	22.809	1262.728	1005.488
165.935	22.730	1262.005	1004.373
166.950	22.804	1261.117	1003.999
167.964	22.790	1260.365	1003.235
168.979	22.784	1260.086	1002.887
169.994	22.855	1259.286	1002.568
171.008	22.828	1258.405	1001.622
172.023	22.813	1257.938	1001.076
173.037	22.885	1256.878	1000.551
174.052	22.864	1256.250	999.847
175.067	22.659	1256.001	998.397
176.081	22.781	1254.756	998.013
177.096	22.736	1254.143	997.179
178.110	22.758	1253.162	996.435
179.125	22.854	1251.931	995.911
180.140	22.952	1250.923	995.575
181.154	22.800	1249.851	993.779
182.169	22.774	1248.767	992.682
183.183	22.731	1248.136	991.847
184.198	22.783	1247.231	991.332
185.213	22.738	1245.863	989.907
186.227	22.891	1245.026	990.010
187.242	22.904	1243.935	989.130
188.256	22.972	1243.271	988.894
189.271	22.851	1242.857	987.799
190.286	22.889	1241.764	987.060
191.300	22.834	1241.403	986.376
192.315	22.796	1241.344	986.031
193.329	22.834	1240.733	985.668
194.344	22.894	1239.907	985.260
195.359	22.942	1239.431	985.060
196.373	22.953	1238.959	984.662
197.388	22.898	1238.330	983.766
198.402	22.765	1238.387	982.988
199.417	22.852	1237.976	983.060
200.432	22.887	1237.076	982.451
201.446	22.837	1236.073	981.287
202.461	22.978	1235.746	981.726
203.475	22.920	1235.129	980.829
204.490	22.903	1233.826	979.609
205.504	22.786	1232.950	978.182
206.519	22.934	1231.906	978.084
207.534	22.967	1230.412	976.995
208.548	22.962	1229.976	976.534
209.563	22.961	1229.027	975.690
210.577	23.030	1228.165	975.300
211.592	22.942	1227.480	974.181
212.607	23.049	1226.598	973.985
213.621	23.034	1226.116	973.434
214.636	22.964	1225.566	972.527
215.650	23.032	1224.528	971.992
216.665	22.944	1223.416	970.539
217.680	23.036	1222.530	970.255
218.694	23.116	1221.751	969.992
219.709	23.050	1221.371	969.241
220.723	22.945	1220.667	968.019
221.738	22.999	1219.954	967.663
222.753	22.952	1219.185	966.715
223.767	22.968	1218.796	966.405
224.782	23.060	1218.380	966.495
225.796	23.078	1217.901	966.125
226.811	23.082	1217.268	965.563
227.826	23.093	1216.059	964.576
228.840	23.007	1215.913	963.905
229.855	23.033	1215.178	963.378
230.869	23.028	1214.256	962.539
231.884	23.082	1213.776	962.363
232.899	23.104	1212.616	961.477
233.913	23.028	1212.354	960.773
234.928	23.086	1211.951	960.685
235.942	23.183	1211.106	960.457
236.957	23.077	1210.281	959.139
237.972	23.165	1209.672	959.052
238.986	23.115	1209.228	958.342
240.001	23.051	1208.530	957.356
241.015	23.264	1207.649	957.730
242.030	23.227	1206.943	956.885
243.045	23.289	1206.304	956.625
244.059	23.211	1205.489	955.477
245.074	23.211	1204.635	954.713
246.088	23.390	1203.922	955.030
247.103	23.295	1202.995	953.696
248.117	23.287	1202.228	952.965
249.132	23.318	1201.750	952.664
250.147	23.264	1200.632	951.408
251.161	23.413	1199.953	951.581
252.176	23.477	1199.091	951.158
253.190	23.300	1199.040	950.085
254.205	23.348	1198.365	949.723
255.220	23.326	1197.724	949.010
256.234	23.439	1196.995	948.956
257.249	23.297	1196.888	948.029
258.263	23.345	1196.122	947.592
259.278	23.386	1195.357	947.121
260.293	23.390	1195.033	946.805
261.307	23.406	1194.229	946.169
262.322	23.359	1193.790	945.485
263.336	23.378	1192.905	944.802
264.351	23.361	1192.436	944.256
265.366	23.362	1191.811	943.682
266.380	23.326	1191.392	943.079
267.395	23.288	1190.527	942.105
268.409	23.374	1189.757	941.872
269.424	23.483	1189.263	941.976
270.439	23.389	1189.000	941.183
271.453	23.466	1187.817	940.573
272.468	23.409	1187.159	939.666
273.482	23.445	1186.493	939.247
274.497	23.445	1186.167	938.908
275.512	23.652	1185.328	939.253
276.526	23.534	1184.662	938.020
277.541	23.485	1184.171	937.290
278.555	23.501	1183.657	936.885
279.570	23.486	1182.540	935.840
280.585	23.514	1181.883	935.383
281.599	23.557	1181.168	934.962
282.614	23.450	1180.487	933.775
283.628	23.571	1179.341	933.420
284.643	23.557	1178.569	932.653
285.657	23.417	1178.209	931.550
286.672	23.544	1176.804	931.025
287.687	23.653	1175.714	930.653
288.701	23.682	1175.127	930.257
289.716	23.632	1174.894	929.727
290.730	23.636	1174.456	929.321
291.745	23.558	1173.681	928.218
292.760	23.776	1172.623	928.439
293.774	23.624	1172.693	927.619
294.789	23.678	1171.942	927.224
295.803	23.688	1171.420	926.780
296.818	23.703	1170.567	926.099
297.833	23.628	1170.134	925.284
298.847	23.727	1169.475	925.199
299.862	23.788	1168.572	924.719
300.876	23.738	1168.033	923.951
301.891	23.801	1167.454	923.737
302.906	23.864	1166.610	923.314
303.920	23.819	1165.691	922.271
304.935	23.860	1165.237	922.047
305.949	23.869	1164.533	921.453
306.964	23.849	1163.910	920.775
307.979	23.923	1163.344	920.627
308.993	23.801	1162.628	919.351
310.008	23.808	1162.109	918.897
311.022	23.762	1161.527	918.117
312.037	23.931	1160.579	918.157
313.052	23.855	1159.854	917.112
314.066	23.872	1158.606	916.131
315.081	23.946	1158.231	916.132
316.095	23.918	1157.510	915.338
317.110	23.912	1157.168	914.955
318.125	23.931	1156.315	914.298
319.139	23.830	1155.564	913.107
320.154	23.911	1155.094	913.070
321.168	23.878	1154.549	912.388
322.183	23.969	1153.643	912.059
323.197	24.005	1152.741	911.450
324.212	24.019	1152.682	911.393
325.227	23.967	1152.248	910.703
326.241	23.960	1151.783	910.220
327.256	23.916	1151.099	909.372
328.270	24.008	1149.884	908.803
329.285	23.994	1149.213	908.121
330.300	24.127	1148.209	907.925
331.314	23.871	1147.901	906.294
332.329	24.061	1146.789	906.306
333.343	24.150	1145.949	906.013
334.358	24.133	1145.538	905.521
335.373	24.060	1144.465	904.221
336.387	24.082	1144.015	903.901
337.402	24.119	1143.488	903.589
338.416	24.167	1142.991	903.361
339.431	24.111	1142.271	902.429
340.446	24.236	1141.257	902.179
341.460	24.241	1140.877	901.827
342.475	24.157	1139.889	900.541
343.489	24.129	1139.133	899.719
344.504	24.188	1138.224	899.219
345.519	24.201	1137.547	898.672
346.533	24.149	1137.070	897.954
347.548	24.145	1136.382	897.311
348.562	24.205	1135.756	897.040
349.577	24.202	1134.559	896.001
350.592	24.148	1133.837	895.078
351.606	24.168	1132.806	894.287
352.621	24.199	1133.103	894.595
353.635	24.199	1132.451	894.004
354.650	24.274	1131.700	893.706
355.665	24.297	1131.000	893.191
356.679	24.240	1130.117	892.126
357.694	24.380	1129.365	892.155
358.708	24.392	1128.799	891.688
359.723	24.300	1128.227	890.700
360.738	24.342	1127.380	890.159
361.752	24.284	1127.068	889.547
362.767	24.290	1126.493	889.047
363.781	24.451	1125.959	889.348
364.796	24.386	1125.500	888.580
365.810	24.359	1125.117	888.066
366.825	24.462	1124.011	887.626
367.840	24.519	1123.466	887.400
368.854	24.599	1122.633	887.064
369.869	24.545	1122.106	886.299
370.883	24.523	1121.542	885.669
371.898	24.519	1120.660	884.873
372.913	24.427	1120.532	884.239
373.927	24.671	1119.627	884.654
374.942	24.476	1119.656	883.630
375.956	24.559	1118.817	883.300
376.971	24.520	1118.768	882.990
377.986	24.630	1117.784	882.679
379.000	24.497	1117.445	881.675
380.015	24.672	1116.837	881.986
381.029	24.633	1116.063	881.104
382.044	24.585	1115.332	880.211
383.059	24.641	1114.661	879.877
384.073	24.760	1113.783	879.693
385.088	24.562	1112.916	877.960
386.102	24.740	1112.063	878.081
387.117	24.598	1111.066	876.521
388.132	24.636	1110.490	876.175
389.146	24.714	1109.953	876.053
390.161	24.706	1109.492	875.572
391.175	24.717	1108.739	874.958
392.190	24.793	1107.767	874.482
393.205	24.671	1107.298	873.442
394.219	24.784	1106.760	873.491
395.234	24.704	1105.869	872.319
396.248	24.804	1104.853	871.926
397.263	24.895	1103.886	871.531
398.278	24.788	1103.887	870.933
399.292	24.963	1103.056	871.054
400.307	24.759	1102.318	869.401
401.321	24.803	1101.762	869.100
402.336	24.812	1101.137	868.572
403.350	24.960	1100.244	868.511
404.365	24.860	1099.829	867.619
405.380	24.857	1098.942	866.829
406.394	24.877	1098.437	866.452
407.409	24.887	1097.702	865.844
408.423	24.880	1096.784	865.009
409.438	25.027	1096.140	865.135
410.453	24.997	1095.421	864.345
411.467	25.042	1094.195	863.516
412.482	24.991	1094.102	863.122
413.496	25.075	1093.516	862.990
414.511	24.995	1092.907	862.046
415.526	25.139	1092.129	862.047
416.540	24.990	1091.784	860.983
417.555	25.040	1091.641	861.035
418.569	25.045	1090.963	860.450
419.584	25.049	1090.705	860.186
420.599	25.000	1090.149	859.440
421.613	147.981	1403.088	1798.265
422.628	136.903	1448.671	1798.353
