DTS Sentinel unit serial number:	SN413079Multiplexer serial number:	ORYXHardware model number:	OX4-SRSoftware version number:	ORYX F/W v4.00 Oryx Data Collector v3.7.2.0data status	okinstallation	princeton_trtdifferential loss correction	single-endedforward channel	channel 2reverse channel	N/Adate	2019/09/19time	14:03:35forward acquisition time	60.00reverse acquisition time	0.00gamma	496.2192k internal	0.2325k external	0.2325temperature offset calibration	1.0017default loss term (dB/km)	0.3790temperature slope calibration	1.0000multiplexer offset coefficient	1.0000multiplexer slope coefficient	1.0000fibre end	0.00T internal ref (°C)	31.25T ext. ref 1 (°C)	1.02T ext. ref 2 (°C)	28.52length (m)	temperature (°C)	Stokes	anti-Stokes-747.200	107.335	0.165	-0.198
-746.185	317.104	-0.145	0.277
-745.171	-100.499	0.158	0.039
-744.156	-103.951	0.062	0.014
-743.142	-200.000	-0.079	-0.381
-742.127	-16.195	-0.271	-0.174
-741.112	-105.683	0.066	0.015
-740.098	394.657	0.176	0.371
-739.083	218.382	-0.162	0.262
-738.069	93.520	-0.045	0.052
-737.054	769.840	-0.103	-0.284
-736.039	-117.112	-0.165	0.030
-735.025	148.738	0.265	0.361
-734.010	-26.245	-0.394	-0.233
-732.996	-75.751	-0.296	-0.106
-731.981	3.577	-0.362	-0.266
-730.966	-200.000	0.032	-0.244
-729.952	-200.000	0.019	-0.188
-728.937	325.133	-0.062	0.119
-727.923	-200.000	-0.018	-0.344
-726.908	-87.811	0.193	-0.059
-725.894	31.163	-0.101	0.087
-724.879	521.927	-0.019	-0.046
-723.864	196.575	0.151	-0.232
-722.850	-10.275	0.070	-0.047
-721.835	-119.698	-0.322	-0.056
-720.821	68.131	-0.416	-0.430
-719.806	-200.000	-0.009	-0.065
-718.791	622.119	-0.042	-0.108
-717.777	-64.521	-0.190	0.078
-716.762	98.145	0.092	0.107
-715.748	93.484	-0.086	-0.098
-714.733	-111.064	0.258	0.053
-713.718	-88.178	0.248	0.075
-712.704	30.555	-0.277	0.238
-711.689	-200.000	0.033	-0.331
-710.675	15.267	-0.049	0.039
-709.660	43.113	0.073	-0.067
-708.645	20.013	0.162	-0.132
-707.631	800.000	-0.072	0.203
-706.616	681.983	0.097	0.256
-705.602	-147.666	-0.162	-0.014
-704.587	-14.447	0.279	-0.181
-703.572	-50.971	-0.251	0.119
-702.558	800.000	-0.029	-0.118
-701.543	800.000	0.075	-0.229
-700.529	192.250	0.124	0.189
-699.514	-200.000	-0.003	0.128
-698.499	-8.137	-0.414	-0.281
-697.485	-200.000	-0.010	-0.182
-696.470	800.000	-0.024	-0.094
-695.456	-139.332	-0.280	-0.030
-694.441	-34.032	-0.131	0.072
-693.426	-21.818	-0.275	0.169
-692.412	187.297	0.225	-0.338
-691.397	403.045	0.128	0.272
-690.383	-73.102	0.269	0.099
-689.368	240.096	-0.089	0.149
-688.354	-22.949	0.079	0.048
-687.339	-88.929	-0.324	0.097
-686.324	-47.299	-0.077	-0.038
-685.310	113.389	-0.007	0.008
-684.295	169.664	-0.097	-0.139
-683.281	388.883	-0.080	-0.167
-682.266	184.663	-0.202	-0.301
-681.251	333.115	-0.176	-0.342
-680.237	-5.252	-0.123	-0.085
-679.222	-66.855	-0.168	0.067
-678.208	613.238	-0.104	0.263
-677.193	800.000	0.024	0.089
-676.178	18.948	-0.302	0.244
-675.164	-11.695	-0.187	-0.124
-674.149	188.302	-0.210	-0.316
-673.135	-101.249	-0.414	-0.102
-672.120	407.175	-0.139	-0.297
-671.105	-34.165	0.170	-0.094
-670.091	76.731	-0.228	0.243
-669.076	800.000	-0.065	0.215
-668.062	221.774	-0.033	0.054
-667.047	-200.000	0.017	0.163
-666.032	-138.860	-0.052	-0.006
-665.018	-148.031	0.248	0.021
-664.003	250.564	-0.092	-0.156
-662.989	800.000	0.077	0.259
-661.974	432.866	-0.042	0.093
-660.959	596.093	-0.138	-0.344
-659.945	-30.843	-0.239	0.136
-658.930	316.571	-0.176	0.335
-657.916	280.165	0.152	-0.273
-656.901	-200.000	0.012	-0.090
-655.886	-27.695	0.251	0.147
-654.872	403.725	0.117	-0.248
-653.857	-200.000	-0.000	0.032
-652.843	-25.141	-0.143	-0.085
-651.828	-200.000	0.012	-0.292
-650.814	-15.300	-0.125	-0.080
-649.799	767.744	-0.110	-0.300
-648.784	-30.451	0.087	-0.049
-647.770	151.450	-0.121	0.166
-646.755	231.624	0.038	-0.063
-645.741	-37.988	0.306	-0.163
-644.726	486.041	0.063	0.144
-643.711	76.061	0.175	0.186
-642.697	546.350	0.125	-0.300
-641.682	-23.098	0.645	-0.390
-640.668	507.536	0.123	-0.287
-639.653	-33.257	-0.045	0.025
-638.638	-6.123	0.291	0.200
-637.624	93.672	0.078	0.089
-636.609	-43.829	-0.157	-0.080
-635.595	-200.000	0.026	0.122
-634.580	-53.444	-0.010	-0.005
-633.565	-60.924	0.157	0.067
-632.551	800.000	0.019	0.078
-631.536	54.478	-0.148	-0.143
-630.522	80.542	-0.076	-0.082
-629.507	-200.000	-0.019	-0.151
-628.492	-140.620	-0.230	0.024
-627.478	-200.000	0.004	-0.205
-626.463	54.104	0.278	-0.269
-625.449	-200.000	-0.007	0.312
-624.434	541.765	-0.078	0.187
-623.419	-66.295	0.119	-0.048
-622.405	-200.000	0.130	-0.000
-621.390	-200.000	-0.066	0.488
-620.376	-200.000	-0.004	0.196
-619.361	-200.000	0.089	-0.406
-618.346	239.977	0.118	-0.197
-617.332	-200.000	0.018	0.150
-616.317	9.969	0.319	0.244
-615.303	-100.685	-0.280	-0.069
-614.288	255.242	-0.053	-0.092
-613.273	292.707	0.212	0.388
-612.259	449.825	-0.009	0.020
-611.244	-32.028	-0.129	0.072
-610.230	87.443	0.150	0.167
-609.215	-40.101	0.302	-0.158
-608.201	-200.000	0.001	0.229
-607.186	800.000	-0.053	0.212
-606.171	173.126	-0.219	-0.316
-605.157	-200.000	-0.041	-0.292
-604.142	-46.366	-0.287	-0.142
-603.128	756.299	0.068	-0.184
-602.113	-85.553	-0.115	-0.036
-601.098	800.000	-0.067	-0.220
-600.084	204.441	-0.320	0.498
-599.069	274.288	-0.155	0.275
-598.055	-200.000	-0.041	0.362
-597.040	-101.398	0.131	0.032
-596.025	158.574	0.161	-0.224
-595.011	-18.776	-0.064	-0.040
-593.996	-0.919	-0.196	-0.139
-592.982	-64.420	-0.253	-0.103
-591.967	292.351	0.138	-0.252
-590.952	-190.241	0.104	-0.001
-589.938	60.683	-0.175	-0.174
-588.923	92.570	-0.120	-0.135
-587.909	-43.725	0.381	0.193
-586.894	-104.901	-0.447	-0.103
-585.879	-82.284	0.162	-0.053
-584.865	-200.000	-0.004	-0.094
-583.850	800.000	0.007	-0.023
-582.836	-140.185	0.271	0.029
-581.821	800.000	-0.077	-0.326
-580.806	3.113	0.243	0.177
-579.792	800.000	-0.074	0.290
-578.777	177.232	-0.159	0.232
-577.763	8.150	0.261	-0.197
-576.748	19.530	0.144	-0.116
-575.733	-118.305	-0.383	-0.068
-574.719	-9.915	-0.171	0.114
-573.704	99.403	-0.084	0.097
-572.690	-98.681	-0.250	-0.064
-571.675	800.000	0.025	-0.098
-570.661	-53.127	-0.346	-0.159
-569.646	800.000	0.085	0.270
-568.631	-200.000	0.046	0.253
-567.617	-200.000	0.039	0.470
-566.602	127.005	-0.072	-0.091
-565.588	-145.197	-0.278	-0.025
-564.573	800.000	0.087	-0.331
-563.558	122.879	0.037	-0.047
-562.544	166.745	0.116	0.165
-561.529	-8.279	-0.151	-0.102
-560.515	17.069	0.097	-0.077
-559.500	-49.746	-0.258	-0.123
-558.485	674.324	-0.042	-0.109
-557.471	-46.922	0.174	0.085
-556.456	-200.000	-0.031	0.359
-555.442	-200.000	-0.033	-0.171
-554.427	52.769	-0.090	-0.087
-553.412	-91.112	0.239	0.069
-552.398	-5.216	-0.097	-0.067
-551.383	404.669	0.055	-0.116
-550.369	-200.000	-0.007	0.345
-549.354	-104.286	0.260	0.061
-548.339	192.878	-0.244	-0.369
-547.325	-36.096	0.311	0.168
-546.310	136.737	-0.133	-0.174
-545.296	800.000	0.030	0.120
-544.281	-75.114	0.259	-0.093
-543.266	131.771	-0.074	-0.095
-542.252	28.783	-0.239	0.202
-541.237	-190.395	-0.036	0.000
-540.223	0.047	0.024	-0.017
-539.208	302.690	0.066	0.123
-538.193	184.646	0.209	-0.310
-537.179	-200.000	-0.021	0.212
-536.164	-155.103	0.177	0.012
-535.150	-200.000	-0.055	-0.257
-534.135	-76.446	-0.087	-0.031
-533.121	12.029	0.306	0.236
-532.106	800.000	-0.126	-0.369
-531.091	-60.674	0.178	-0.075
-530.077	-13.055	0.238	-0.155
-529.062	41.415	-0.116	0.105
-528.048	800.000	-0.048	0.140
-527.033	239.048	0.063	0.105
-526.018	311.741	-0.184	0.346
-525.004	45.187	-0.141	0.130
-523.989	-200.000	-0.010	0.098
-522.975	800.000	-0.092	0.261
-521.960	-44.195	-0.156	-0.078
-520.945	-200.000	-0.006	0.066
-519.931	-96.636	0.366	0.096
-518.916	-47.679	-0.320	-0.155
-517.902	-120.500	0.148	-0.025
-516.887	-149.211	-0.106	-0.009
-515.872	800.000	0.098	-0.297
-514.858	154.981	0.131	-0.180
-513.843	-64.136	0.137	-0.056
-512.829	255.374	-0.177	-0.304
-511.814	15.858	-0.031	-0.025
-510.799	-200.000	-0.031	-0.383
-509.785	-200.000	-0.048	-0.391
-508.770	800.000	-0.044	0.146
-507.756	-105.428	-0.681	-0.155
-506.741	-147.639	0.375	-0.032
-505.726	-87.397	0.458	-0.139
-504.712	-94.988	0.051	-0.014
-503.697	9.948	0.176	0.133
-502.683	800.000	-0.030	0.126
-501.668	-14.055	0.085	0.055
-500.653	-112.245	-0.028	-0.006
-499.639	-98.780	0.014	0.004
-498.624	-40.666	-0.280	-0.145
-497.610	86.849	-0.202	-0.223
-496.595	-43.416	0.112	0.057
-495.581	-171.136	0.063	0.002
-494.566	-65.141	-0.015	0.006
-493.551	212.061	-0.214	0.336
-492.537	-58.802	0.266	0.115
-491.522	-200.000	0.040	-0.313
-490.508	656.385	0.065	0.168
-489.493	800.000	0.029	0.092
-488.478	40.283	0.144	-0.130
-487.464	-62.163	-0.182	0.076
-486.449	-200.000	0.036	0.238
-485.435	237.837	0.061	0.101
-484.420	-104.582	0.132	0.030
-483.405	-147.469	-0.122	0.010
-482.391	-140.384	0.069	0.007
-481.376	-200.000	-0.005	-0.105
-480.362	11.521	-0.032	-0.024
-479.347	-24.825	0.238	0.141
-478.332	-92.666	0.131	0.037
-477.318	47.888	0.165	-0.154
-476.303	206.898	0.221	-0.344
-475.289	65.871	0.082	0.083
-474.274	-200.000	-0.042	-0.188
-473.259	-102.705	-0.269	-0.064
-472.245	-200.000	-0.033	0.274
-471.230	-146.066	-0.101	-0.009
-470.216	76.995	-0.062	-0.065
-469.201	245.185	0.170	0.285
-468.186	-17.886	0.096	0.060
-467.172	163.629	-0.063	0.089
-466.157	157.196	-0.102	0.141
-465.143	-84.701	0.045	-0.014
-464.128	-77.008	0.047	0.016
-463.113	-200.000	-0.026	-0.204
-462.099	641.355	0.046	0.117
-461.084	62.848	-0.091	-0.091
-460.070	58.390	-0.528	-0.517
-459.055	-32.628	0.154	-0.085
-458.040	-135.262	0.141	-0.017
-457.026	-99.986	0.353	-0.088
-456.011	369.416	-0.127	0.256
-454.997	-200.000	0.004	-0.148
-453.982	-200.000	-0.011	0.162
-452.968	-93.018	0.019	0.005
-451.953	282.245	-0.075	0.135
-450.938	-47.283	-0.246	0.120
-449.924	-120.869	0.219	0.037
-448.909	-200.000	-0.052	0.378
-447.895	28.005	0.144	0.121
-446.880	173.692	-0.065	0.094
-445.865	451.585	-0.063	-0.139
-444.851	63.687	-0.153	0.153
-443.836	-200.000	-0.039	0.482
-442.822	136.978	-0.202	-0.264
-441.807	-104.278	-0.231	0.053
-440.792	6.566	0.265	0.197
-439.778	103.999	-0.068	0.080
-438.763	-200.000	-0.037	0.337
-437.749	36.016	0.245	-0.215
-436.734	-200.000	-0.015	-0.148
-435.719	100.138	0.099	0.114
-434.705	-200.000	-0.007	-0.316
-433.690	-200.000	-0.010	0.169
-432.676	229.092	0.114	-0.186
-431.661	124.522	-0.130	-0.163
-430.646	-4.082	0.172	0.119
-429.632	111.784	-0.362	0.436
-428.617	800.000	-0.131	0.437
-427.603	-160.200	-0.068	0.004
-426.588	161.848	0.127	0.177
-425.573	-87.151	0.061	-0.019
-424.559	-167.078	-0.063	0.003
-423.544	127.638	-0.062	0.079
-422.530	27.030	0.243	-0.203
-421.515	-100.412	-0.106	0.026
-420.500	-197.922	-0.267	-0.002
-419.486	260.371	-0.178	-0.306
-418.471	-28.489	0.258	-0.148
-417.457	-138.011	-0.166	-0.018
-416.442	-200.000	-0.014	0.081
-415.428	39.928	-0.222	0.199
-414.413	-200.000	-0.004	-0.191
-413.398	131.788	-0.082	-0.105
-412.384	-143.609	-0.201	0.019
-411.369	800.000	-0.073	-0.201
-410.355	-119.720	0.232	0.040
-409.340	800.000	0.073	0.217
-408.325	19.719	0.231	0.185
-407.311	116.161	-0.109	-0.133
-406.296	270.672	-0.204	-0.357
-405.282	628.618	-0.132	-0.333
-404.267	-14.346	-0.405	-0.260
-403.252	-200.000	0.026	-0.411
-402.238	-6.482	-0.095	-0.065
-401.223	-169.789	0.382	-0.014
-400.209	-163.401	0.087	-0.004
-399.194	212.443	-0.053	-0.083
-398.179	-46.314	-0.141	-0.069
-397.165	-200.000	-0.024	0.111
-396.150	75.602	0.306	0.322
-395.136	-28.806	-0.159	-0.091
-394.121	396.112	0.165	0.342
-393.106	410.158	0.136	0.286
-392.092	-19.764	-0.220	0.135
-391.077	-127.695	-0.294	-0.042
-390.063	-4.553	0.040	0.028
-389.048	72.333	0.067	-0.070
-388.033	300.322	-0.050	0.091
-387.019	256.129	-0.083	-0.142
-386.004	-200.000	0.014	0.219
-384.990	-45.400	-0.132	-0.065
-383.975	176.628	-0.117	-0.169
-382.960	82.554	0.179	0.193
-381.946	382.302	-0.052	-0.106
-380.931	-12.567	0.214	0.139
-379.917	-86.796	0.130	0.039
-378.902	-80.139	-0.409	-0.136
-377.888	-116.933	0.336	-0.061
-376.873	800.000	-0.030	0.100
-375.858	-200.000	-0.080	0.408
-374.844	-200.000	-0.030	-0.258
-373.829	800.000	0.052	-0.192
-372.815	-146.895	-0.315	0.027
-371.800	30.361	-0.182	0.155
-370.785	100.089	0.156	0.180
-369.771	-51.653	-0.357	-0.165
-368.756	556.921	-0.020	-0.048
-367.742	88.991	-0.248	0.275
-366.727	-173.096	0.275	0.008
-365.712	1.170	-0.203	-0.145
-364.698	31.911	0.267	0.229
-363.683	-45.643	0.082	-0.040
-362.669	-200.000	-0.001	-0.259
-361.654	15.094	-0.195	0.152
-360.639	129.352	-0.034	0.043
-359.625	800.000	-0.073	-0.270
-358.610	-200.000	0.028	-0.140
-357.596	58.886	0.102	-0.100
-356.581	281.000	0.184	-0.328
-355.566	19.186	-0.109	-0.087
-354.552	-139.382	-0.098	0.010
-353.537	800.000	0.046	0.201
-352.523	-200.000	-0.043	-0.351
-351.508	405.299	0.155	-0.326
-350.493	-25.631	-0.210	0.123
-349.479	-73.032	-0.250	-0.091
-348.464	-81.808	0.119	0.039
-347.450	-34.915	0.123	0.067
-346.435	-78.087	0.098	0.034
-345.420	-72.446	0.067	-0.024
-344.406	-22.657	0.321	-0.193
-343.391	-173.131	0.284	0.009
-342.377	-40.604	-0.250	-0.129
-341.362	-200.000	-0.031	0.175
-340.348	-30.188	-0.093	0.052
-339.333	77.624	-0.102	0.108
-338.318	78.023	-0.108	-0.114
-337.304	44.697	0.102	-0.093
-336.289	-200.000	-0.022	-0.300
-335.275	-171.514	-0.323	-0.011
-334.260	-80.283	0.149	0.049
-333.245	80.451	-0.321	-0.343
-332.231	-200.000	0.001	-0.099
-331.216	-47.493	-0.086	-0.041
-330.202	-200.000	-0.010	-0.126
-329.187	-97.968	-0.180	0.046
-328.172	-164.587	-0.146	-0.007
-327.158	22.564	0.058	-0.047
-326.143	132.300	0.232	-0.297
-325.129	-200.000	0.038	0.183
-324.114	160.081	-0.046	0.063
-323.099	-200.000	-0.044	0.366
-322.085	80.934	0.093	-0.100
-321.070	111.013	-0.104	-0.124
-320.056	459.412	0.061	-0.135
-319.041	-107.404	-0.082	-0.018
-318.026	504.432	0.009	0.021
-317.012	634.244	-0.011	-0.029
-315.997	800.000	-0.100	-0.306
-314.983	204.083	-0.161	0.248
-313.968	-4.736	0.130	-0.089
-312.953	-47.573	-0.164	-0.079
-311.939	68.242	-0.103	0.105
-310.924	62.148	-0.062	0.061
-309.910	362.654	0.140	0.280
-308.895	69.504	-0.090	-0.092
-307.880	-38.277	-0.185	0.097
-306.866	-200.000	0.030	-0.218
-305.851	-41.822	0.212	-0.108
-304.837	-200.000	0.029	0.269
-303.822	-46.994	0.266	-0.129
-302.807	-111.206	0.194	-0.039
-301.793	800.000	-0.084	-0.275
-300.778	800.000	0.063	0.175
-299.764	-122.370	0.104	0.017
-298.749	-200.000	0.015	0.125
-297.735	-30.484	0.116	-0.065
-296.720	-124.161	0.220	-0.034
-295.705	-20.032	-0.086	0.053
-294.691	-144.607	-0.305	-0.028
-293.676	70.379	0.048	0.049
-292.662	96.669	-0.065	0.074
-291.647	-158.339	0.243	-0.014
-290.632	-200.000	-0.028	0.135
-289.618	-200.000	-0.001	0.099
-288.603	-31.799	0.144	0.080
-287.589	-121.104	0.115	-0.019
-286.574	731.362	0.113	0.299
-285.559	800.000	-0.079	-0.296
-284.545	-1.582	-0.188	-0.131
-283.530	51.312	0.111	0.104
-282.516	-94.791	-0.027	0.007
-281.501	-128.764	-0.401	0.056
-280.486	-200.000	-0.006	0.045
-279.472	-76.078	0.110	0.039
-278.457	68.290	-0.135	0.137
-277.443	-65.281	-0.157	0.063
-276.428	313.228	0.149	-0.278
-275.413	188.516	0.085	0.126
-274.399	-5.426	-0.262	0.178
-273.384	-87.918	0.201	0.060
-272.370	-84.338	-0.131	-0.041
-271.355	800.000	0.037	-0.121
-270.340	-18.791	-0.225	0.139
-269.326	-24.070	0.077	0.046
-268.311	-5.154	0.035	-0.024
-267.297	800.000	0.046	0.143
-266.282	-185.779	-0.023	0.000
-265.267	477.622	-0.189	0.423
-264.253	300.652	0.035	-0.065
-263.238	800.000	-0.090	-0.341
-262.224	-200.000	0.024	-0.200
-261.209	-200.000	0.013	0.392
-260.195	131.753	0.071	0.091
-259.180	800.000	-0.036	-0.147
-258.165	-124.577	-0.073	0.011
-257.151	41.665	-0.170	0.152
-256.136	159.520	0.061	0.084
-255.122	-200.000	-0.009	0.215
-254.107	-200.000	0.022	-0.394
-253.092	-61.344	-0.322	0.134
-252.078	-75.815	0.225	-0.079
-251.063	-169.190	0.480	0.018
-250.049	-101.262	0.087	0.021
-249.034	3.517	0.127	-0.092
-248.019	79.960	-0.227	0.242
-247.005	430.301	-0.248	0.531
-245.990	800.000	-0.082	-0.351
-244.976	-23.638	-0.172	0.102
-243.961	99.950	0.084	0.096
-242.946	-148.611	0.242	-0.020
-241.932	99.234	-0.100	0.114
-240.917	-32.661	-0.203	-0.112
-239.903	-8.709	0.100	-0.066
-238.888	-158.588	-0.075	0.004
-237.873	-99.205	0.358	0.090
-236.859	284.002	0.079	-0.141
-235.844	216.494	0.278	0.437
-234.830	-98.157	0.059	0.015
-233.815	-177.530	-0.290	0.007
-232.800	-200.000	-0.001	-0.148
-231.786	-114.266	0.131	-0.025
-230.771	-200.000	-0.008	0.212
-229.757	-101.229	0.073	0.018
-228.742	-154.334	-0.291	0.019
-227.727	-200.000	-0.005	-0.216
-226.713	-42.946	-0.130	-0.065
-225.698	-150.817	-0.078	0.006
-224.684	-58.989	0.246	0.105
-223.669	375.122	0.077	-0.155
-222.655	-22.902	-0.307	0.183
-221.640	26.339	0.112	-0.092
-220.625	105.878	-0.170	-0.199
-219.611	405.920	0.069	-0.144
-218.596	-200.000	0.016	0.364
-217.582	-106.467	0.152	0.034
-216.567	-133.707	-0.037	0.005
-215.552	-200.000	0.009	-0.085
-214.538	-200.000	0.011	-0.206
-213.523	-97.142	-0.015	-0.004
-212.509	-37.893	-0.207	0.109
-211.494	-57.195	-0.237	-0.103
-210.479	-90.493	0.267	-0.077
-209.465	181.243	0.088	0.128
-208.450	-140.282	-0.074	0.008
-207.436	-135.346	0.298	0.035
-206.421	-133.696	0.409	0.050
-205.406	24.733	0.122	0.100
-204.392	438.520	0.106	0.229
-203.377	305.373	0.096	-0.176
-202.363	255.403	0.022	-0.038
-201.348	-50.554	0.139	0.065
-200.333	-200.000	0.049	-0.420
-199.319	66.021	0.361	-0.362
-198.304	34.130	-0.024	0.021
-197.290	155.502	-0.100	-0.136
-196.275	-200.000	-0.030	0.186
-195.260	160.685	0.181	0.249
-194.246	-200.000	-0.032	0.183
-193.231	-54.123	0.081	0.037
-192.217	800.000	-0.076	-0.223
-191.202	595.338	-0.052	-0.127
-190.187	198.883	-0.026	0.039
-189.173	482.062	0.057	-0.127
-188.158	800.000	0.043	0.174
-187.144	-200.000	0.006	0.163
-186.129	57.523	0.168	0.162
-185.114	-200.000	0.018	0.118
-184.100	21.593	0.152	-0.122
-183.085	141.951	-0.193	0.253
-182.071	319.797	0.018	0.034
-181.056	96.828	-0.203	0.230
-180.042	551.281	0.014	-0.034
-179.027	526.275	0.018	0.043
-178.012	-40.453	0.431	0.221
-176.998	507.318	0.200	0.458
-175.983	-89.648	-0.314	-0.091
-174.969	-136.475	0.403	0.046
-173.954	-14.426	-0.176	0.112
-172.939	-82.067	-0.163	0.052
-171.925	800.000	0.046	0.150
-170.910	519.473	0.134	0.310
-169.896	99.873	-0.196	-0.224
-168.881	800.000	0.014	-0.049
-167.866	-118.269	-0.378	0.066
-166.852	-146.537	0.401	-0.034
-165.837	800.000	0.039	-0.117
-164.823	245.572	-0.056	-0.093
-163.808	90.229	-0.109	-0.121
-162.793	800.000	-0.046	0.185
-161.779	130.803	-0.060	-0.076
-160.764	105.743	-0.142	-0.165
-159.750	-62.685	-0.139	-0.057
-158.735	-39.441	-0.152	0.079
-157.720	-73.556	0.200	0.072
-156.706	-62.368	-0.196	-0.080
-155.691	-17.484	0.288	-0.179
-154.677	-200.000	-0.017	-0.397
-153.662	15.751	-0.072	0.056
-152.647	-200.000	0.017	-0.126
-151.633	-200.000	-0.014	-0.073
-150.618	-15.666	0.116	0.073
-149.604	5.756	-0.248	0.181
-148.589	330.308	-0.112	0.213
-147.574	-125.295	-0.181	-0.027
-146.560	-38.234	-0.267	0.140
-145.545	43.104	-0.069	-0.062
-144.531	578.102	0.099	-0.239
-143.516	635.822	-0.108	-0.271
-142.502	800.000	-0.080	-0.262
-141.487	-149.233	-0.175	0.014
-140.472	123.279	0.067	0.083
-139.458	-200.000	-0.043	-0.234
-138.443	-26.744	0.168	0.097
-137.429	114.588	-0.111	0.133
-136.414	-21.671	-0.218	0.131
-135.399	180.133	-0.097	0.139
-134.385	-146.863	-0.191	0.016
-133.370	40.151	0.187	0.166
-132.356	128.107	0.117	0.147
-131.341	-191.022	0.255	0.003
-130.326	-127.821	0.280	-0.040
-129.312	-200.000	-0.013	-0.056
-128.297	-41.653	-0.244	0.124
-127.283	800.000	0.062	-0.197
-126.268	-200.000	0.009	0.146
-125.253	37.633	0.094	-0.082
-124.239	-167.542	0.233	-0.009
-123.224	-200.000	0.027	-0.124
-122.210	33.011	-0.092	0.079
-121.195	381.926	-0.121	0.246
-120.180	-200.000	0.036	-0.227
-119.166	9.250	0.245	0.182
-118.151	-182.016	-0.130	0.002
-117.137	800.000	-0.105	0.316
-116.122	166.623	0.078	0.109
-115.107	800.000	-0.116	0.365
-114.093	64.033	-0.172	0.171
-113.078	64.941	0.305	0.303
-112.064	-107.798	0.300	0.064
-111.049	-200.000	-0.037	0.237
-110.034	-200.000	0.003	-0.074
-109.020	800.000	-0.071	-0.216
-108.005	-77.172	0.227	-0.078
-106.991	718.872	-0.094	0.247
-105.976	800.000	0.038	0.159
-104.962	-58.573	0.151	-0.065
-103.947	28.238	0.039	0.032
-102.932	-152.248	-0.135	0.010
-101.918	408.228	0.074	0.153
-100.903	-57.038	-0.296	-0.129
-99.889	-29.251	0.448	0.252
-98.874	42.334	0.118	0.106
-97.859	800.000	0.086	0.274
-96.845	37.046	-0.079	-0.069
-95.830	-200.000	0.019	-0.243
-94.816	-200.000	-0.014	-0.118
-93.801	23.394	-0.337	-0.272
-92.786	61.264	-0.189	0.185
-91.772	217.415	-0.013	0.020
-90.757	-200.000	0.020	0.213
-89.743	289.220	0.086	-0.154
-88.728	194.256	0.253	0.377
-87.713	14.009	0.172	0.131
-86.699	-12.841	-0.154	-0.099
-85.684	-149.640	-0.199	-0.015
-84.670	160.543	-0.069	0.095
-83.655	44.247	-0.175	-0.158
-82.640	14.311	-0.052	0.040
-81.626	-57.906	-0.199	0.086
-80.611	800.000	0.097	0.336
-79.597	-27.128	0.143	0.082
-78.582	-109.974	0.316	0.065
-77.567	-144.351	-0.193	-0.018
-76.553	10.385	-0.232	0.173
-75.538	181.864	-0.120	-0.174
-74.524	119.041	0.054	0.066
-73.509	-57.997	-0.170	0.073
-72.494	-102.040	0.114	0.027
-71.480	-66.497	-0.184	-0.072
-70.465	-125.948	0.440	0.065
-69.451	508.889	-0.098	0.224
-68.436	78.292	-0.157	0.165
-67.422	726.236	0.041	-0.108
-66.407	137.876	0.146	-0.189
-65.392	128.247	0.349	0.437
-64.378	-97.852	-0.134	-0.034
-63.363	-200.000	0.045	0.324
-62.349	560.887	0.109	-0.260
-61.334	-22.830	-1.060	-0.628
-60.319	186.947	0.241	0.354
-59.305	293.113	-0.487	-0.874
-58.290	216.170	0.703	1.097
-57.276	133.645	1.119	1.422
-56.261	-200.000	95.589	571.657
-55.246	502.065	1408.821	3197.024
-54.232	151.023	2628.819	3512.105
-53.217	103.199	2331.320	2684.302
-52.203	40.774	1948.034	1725.597
-51.188	34.445	1734.223	1486.981
-50.173	31.858	1689.953	1429.276
-49.159	49.384	1736.398	1604.229
-48.144	50.615	1752.606	1628.642
-47.130	34.077	1714.474	1466.979
-46.115	31.492	1699.377	1434.214
-45.100	31.245	1694.585	1428.226
-44.086	31.262	1691.718	1425.877
-43.071	31.165	1689.626	1423.319
-42.057	31.156	1686.972	1420.960
-41.042	31.131	1685.211	1419.234
-40.027	31.210	1682.456	1417.451
-39.013	31.157	1680.869	1415.656
-37.998	31.043	1679.446	1413.538
-36.984	31.177	1678.124	1413.384
-35.969	31.265	1676.540	1412.659
-34.954	31.212	1674.987	1410.893
-33.940	31.226	1673.407	1409.612
-32.925	31.244	1671.509	1408.097
-31.911	31.150	1669.876	1405.953
-30.896	31.275	1667.710	1405.014
-29.881	31.228	1666.135	1403.285
-28.867	31.159	1664.677	1401.482
-27.852	31.317	1662.770	1401.006
-26.838	31.218	1661.799	1399.384
-25.823	31.215	1660.216	1397.979
-24.809	31.380	1658.480	1397.695
-23.794	31.259	1657.270	1395.717
-22.779	31.246	1655.994	1394.486
-21.765	31.267	1654.248	1393.116
-20.750	31.207	1652.725	1391.330
-19.736	31.251	1651.480	1390.560
-18.721	31.328	1649.508	1389.413
-17.706	31.266	1648.389	1387.959
-16.692	31.226	1646.811	1386.274
-15.677	31.217	1645.351	1384.921
-14.663	31.261	1644.616	1384.578
-13.648	31.332	1642.491	1383.260
-12.633	31.344	1641.234	1382.232
-11.619	31.302	1639.352	1380.281
-10.604	31.342	1637.646	1379.088
-9.590	31.314	1636.750	1378.068
-8.575	31.348	1634.989	1376.782
-7.560	31.334	1633.940	1375.745
-6.546	31.320	1633.077	1374.857
-5.531	31.328	1631.690	1373.700
-4.517	31.300	1630.406	1372.354
-3.502	31.270	1629.413	1371.244
-2.487	31.286	1627.847	1369.989
-1.473	31.334	1616.445	1360.691
-0.458	29.111	1596.563	1327.890
0.556	24.281	1596.956	1293.012
1.571	21.317	1619.628	1289.416
2.586	19.982	1631.727	1289.000
3.600	17.551	1576.939	1228.104
4.615	9.853	1464.493	1088.688
5.629	2.584	1398.651	992.688
6.644	1.089	1390.307	977.044
7.659	0.994	1389.170	975.548
8.673	1.005	1387.999	974.714
9.688	0.992	1385.712	972.935
10.702	0.586	1382.987	968.330
11.717	3.941	1387.535	992.989
12.731	11.469	1399.799	1050.266
13.746	16.432	1406.630	1087.302
14.761	17.390	1406.547	1093.301
15.775	16.836	1404.740	1088.245
16.790	15.773	1402.173	1079.344
17.804	15.007	1399.518	1072.300
18.819	14.562	1398.673	1068.704
19.834	14.369	1397.009	1066.106
20.848	14.080	1395.938	1063.342
21.863	13.746	1394.724	1060.189
22.877	13.539	1393.380	1057.753
23.892	13.546	1392.247	1056.846
24.907	13.521	1391.595	1056.098
25.921	13.484	1391.082	1055.376
26.936	13.563	1389.732	1054.763
27.950	13.710	1388.528	1054.691
28.965	13.742	1387.604	1054.101
29.980	13.683	1386.803	1053.026
30.994	13.743	1385.863	1052.595
32.009	13.806	1384.750	1052.060
33.023	13.808	1383.307	1050.881
34.038	13.756	1382.040	1049.495
35.053	13.765	1381.355	1048.943
36.067	13.826	1379.796	1048.051
37.082	13.705	1379.371	1046.868
38.096	13.743	1377.917	1045.912
39.111	13.660	1378.036	1045.391
40.126	13.739	1376.783	1044.843
41.140	13.626	1376.049	1043.479
42.155	13.680	1375.606	1043.397
43.169	13.633	1375.147	1042.655
44.184	13.613	1374.946	1042.289
45.199	13.527	1374.628	1041.412
46.213	13.654	1373.960	1041.613
47.228	13.667	1372.767	1040.700
48.242	13.827	1370.974	1040.250
49.257	13.724	1369.954	1038.737
50.271	13.612	1368.661	1036.963
51.286	13.747	1367.014	1036.467
52.301	13.777	1365.658	1035.536
53.315	13.707	1364.830	1034.382
54.330	13.705	1364.111	1033.731
55.344	13.748	1362.581	1032.746
56.359	13.659	1361.954	1031.627
57.374	13.586	1361.120	1030.450
58.388	13.566	1360.084	1029.453
59.403	13.564	1359.842	1029.168
60.417	13.539	1359.390	1028.574
61.432	13.587	1357.866	1027.628
62.447	13.467	1357.419	1026.456
63.461	13.454	1356.037	1025.239
64.476	13.449	1355.177	1024.468
65.490	13.447	1353.508	1023.105
66.505	13.452	1352.201	1022.056
67.520	13.489	1350.861	1021.179
68.534	13.550	1349.647	1020.547
69.549	13.554	1348.197	1019.389
70.563	13.511	1347.493	1018.500
71.578	13.547	1345.973	1017.479
72.593	13.468	1345.557	1016.589
73.607	13.489	1344.525	1015.851
74.622	13.416	1343.751	1014.728
75.636	13.387	1343.018	1013.908
76.651	13.425	1342.402	1013.586
77.666	13.471	1341.669	1013.224
78.680	13.452	1341.027	1012.534
79.695	13.428	1340.164	1011.646
80.709	13.482	1339.449	1011.347
81.724	13.492	1338.507	1010.605
82.739	13.577	1337.570	1010.331
83.753	13.526	1336.858	1009.391
84.768	13.699	1335.409	1009.259
85.782	13.660	1333.987	1007.861
86.797	13.686	1332.924	1007.126
87.812	13.664	1331.923	1006.149
88.826	13.616	1330.439	1004.646
89.841	13.638	1329.422	1003.920
90.855	13.628	1328.742	1003.255
91.870	13.769	1327.587	1003.151
92.884	13.752	1326.921	1002.457
93.899	13.829	1325.543	1001.791
94.914	13.829	1325.348	1001.554
95.928	13.778	1324.356	1000.410
96.943	13.767	1323.370	999.511
97.957	13.747	1322.456	998.610
98.972	13.793	1321.335	997.950
99.987	13.767	1320.511	997.083
101.001	13.628	1319.663	995.519
102.016	13.666	1318.489	994.779
103.030	13.805	1317.484	994.764
104.045	13.795	1316.681	994.011
105.060	13.803	1315.005	992.705
106.074	13.661	1314.100	991.086
107.089	13.684	1312.841	990.186
108.103	13.611	1311.669	988.779
109.118	13.634	1310.076	987.627
110.133	13.635	1308.916	986.667
111.147	13.681	1307.439	985.740
112.162	13.640	1306.393	984.623
113.176	13.711	1305.417	984.223
114.191	13.699	1304.352	983.258
115.206	13.692	1303.316	982.351
116.220	13.737	1301.973	981.518
117.235	13.772	1300.942	980.860
118.249	13.729	1299.932	979.759
119.264	13.771	1298.633	978.939
120.279	13.757	1297.178	977.676
121.293	13.645	1296.509	976.423
122.308	13.652	1295.573	975.672
123.322	13.671	1294.476	974.871
124.337	13.679	1293.188	973.867
125.352	13.653	1292.130	972.827
126.366	13.692	1291.074	972.176
127.381	13.658	1289.856	970.974
128.395	13.611	1288.854	969.859
129.410	13.609	1288.059	969.164
130.424	13.639	1287.135	968.560
131.439	13.705	1286.366	968.278
132.454	13.778	1285.041	967.622
133.468	13.736	1284.760	967.078
134.483	13.757	1283.671	966.298
135.497	13.617	1283.099	964.967
136.512	13.721	1281.194	964.053
137.527	13.778	1279.816	963.263
138.541	13.715	1278.539	961.850
139.556	13.827	1276.990	961.248
140.570	13.841	1276.122	960.591
141.585	13.750	1275.022	959.152
142.600	13.797	1273.415	958.127
143.614	13.855	1272.815	957.927
144.629	13.795	1271.592	956.579
145.643	13.861	1270.346	955.932
146.658	13.833	1268.888	954.593
147.673	13.705	1267.914	953.038
148.687	13.784	1266.676	952.474
149.702	13.728	1265.381	951.098
150.716	13.745	1264.209	950.232
151.731	13.776	1262.677	949.173
152.746	13.760	1261.789	948.331
153.760	13.749	1260.746	947.397
154.775	13.819	1259.604	946.853
155.789	13.796	1258.632	945.909
156.804	13.890	1257.494	945.507
157.819	13.896	1257.043	945.119
158.833	13.916	1255.608	944.071
159.848	14.002	1254.650	943.754
160.862	14.004	1253.433	942.769
161.877	14.013	1252.221	941.825
162.892	14.025	1250.767	940.716
163.906	14.010	1250.533	940.371
164.921	14.014	1249.557	939.574
165.935	13.989	1249.159	939.050
166.950	13.856	1248.279	937.552
167.964	13.999	1247.453	937.658
168.979	14.009	1246.537	936.943
169.994	14.030	1245.895	936.499
171.008	13.958	1245.164	935.460
172.023	14.076	1244.185	935.306
173.037	14.147	1243.084	934.793
174.052	14.081	1242.257	933.718
175.067	14.077	1241.444	932.999
176.081	14.051	1240.535	932.092
177.096	14.059	1239.841	931.531
178.110	14.082	1238.332	930.445
179.125	14.071	1237.329	929.547
180.140	14.073	1236.011	928.483
181.154	14.041	1234.824	927.333
182.169	14.096	1233.259	926.381
183.183	14.180	1232.246	926.006
184.198	14.227	1231.020	925.263
185.213	14.259	1230.265	924.794
186.227	14.262	1229.391	924.074
187.242	14.263	1228.224	923.118
188.256	14.274	1227.204	922.333
189.271	14.339	1226.150	921.816
190.286	14.245	1224.984	920.336
191.300	14.147	1224.524	919.371
192.315	14.153	1223.983	918.913
193.329	14.085	1223.223	917.887
194.344	14.184	1222.509	917.815
195.359	14.182	1222.057	917.384
196.373	14.314	1221.369	917.516
197.388	14.339	1220.848	917.180
198.402	14.415	1220.425	917.199
199.417	14.373	1219.260	916.010
200.432	14.409	1218.733	915.735
201.446	14.424	1217.976	915.165
202.461	14.469	1216.696	914.370
203.475	14.439	1215.779	913.433
204.490	14.564	1214.458	913.045
205.504	14.644	1213.003	912.308
206.519	14.451	1212.120	910.510
207.534	14.492	1210.878	909.722
208.548	14.595	1209.719	909.330
209.563	14.553	1208.974	908.461
210.577	14.533	1208.057	907.581
211.592	14.631	1206.828	907.114
212.607	14.640	1206.165	906.584
213.621	14.657	1205.545	906.128
214.636	14.715	1204.400	905.502
215.650	14.679	1203.493	904.544
216.665	14.702	1202.338	903.722
217.680	14.692	1201.726	903.127
218.694	14.700	1201.146	902.656
219.709	14.718	1200.034	901.837
220.723	14.751	1199.201	901.306
221.738	14.738	1198.698	900.781
222.753	14.798	1197.949	900.461
223.767	14.795	1197.258	899.845
224.782	14.910	1196.288	899.655
225.796	14.847	1196.080	899.083
226.811	14.747	1195.765	898.228
227.826	14.793	1194.628	897.539
228.840	14.858	1193.487	896.952
229.855	14.884	1192.582	896.335
230.869	14.791	1192.216	895.482
231.884	14.799	1191.426	894.849
232.899	14.711	1190.849	893.869
233.913	14.850	1189.673	893.648
234.928	14.864	1189.187	893.276
235.942	14.860	1188.259	892.479
236.957	14.722	1187.719	891.258
237.972	14.909	1186.455	891.231
238.986	14.968	1185.552	890.786
240.001	14.859	1185.230	889.887
241.015	14.853	1184.507	889.231
242.030	14.841	1184.136	888.811
243.045	14.974	1182.826	888.457
244.059	14.885	1181.911	887.220
245.074	14.986	1181.210	887.149
246.088	15.047	1180.083	886.548
247.103	14.994	1179.906	886.054
248.117	15.110	1178.851	885.794
249.132	15.178	1177.706	885.216
250.147	15.183	1177.479	884.994
251.161	15.157	1176.535	884.069
252.176	15.138	1175.955	883.459
253.190	15.252	1175.165	883.385
254.205	15.244	1174.805	882.996
255.220	15.322	1173.895	882.641
256.234	15.316	1173.332	882.111
257.249	15.362	1172.367	881.548
258.263	15.369	1172.090	881.301
259.278	15.249	1172.090	880.590
260.293	15.326	1171.010	880.103
261.307	15.411	1170.152	879.830
262.322	15.441	1169.078	879.101
263.336	15.434	1168.425	878.491
264.351	15.467	1168.363	878.543
265.366	15.479	1167.641	877.986
266.380	15.566	1166.842	877.762
267.395	15.475	1165.631	876.297
268.409	15.449	1165.053	875.647
269.424	15.473	1164.721	875.445
270.439	15.525	1163.904	875.024
271.453	15.570	1162.996	874.500
272.468	15.482	1162.032	873.242
273.482	15.466	1161.516	872.695
274.497	15.385	1160.965	871.783
275.512	15.408	1160.544	871.509
276.526	15.536	1159.611	871.392
277.541	15.546	1158.934	870.860
278.555	15.654	1157.823	870.508
279.570	15.669	1157.195	870.034
280.585	15.722	1155.958	869.302
281.599	15.691	1155.034	868.372
282.614	15.732	1154.515	868.115
283.628	15.706	1153.382	867.051
284.643	15.688	1152.556	866.263
285.657	15.691	1151.585	865.469
286.672	15.735	1150.707	864.962
287.687	15.706	1149.962	864.175
288.701	15.794	1149.060	863.870
289.716	15.879	1147.920	863.372
290.730	15.768	1147.592	862.482
291.745	15.877	1146.591	862.212
292.760	15.813	1146.199	861.514
293.774	15.954	1145.537	861.662
294.789	15.858	1145.258	860.884
295.803	15.975	1144.641	860.943
296.818	15.955	1143.438	859.862
297.833	15.936	1142.872	859.261
298.847	15.793	1142.685	858.314
299.862	15.956	1141.521	858.194
300.876	15.892	1140.747	857.212
301.891	15.884	1140.257	856.727
302.906	16.084	1138.966	856.698
303.920	16.126	1138.381	856.395
304.935	16.106	1137.808	855.787
305.949	16.188	1136.960	855.489
306.964	15.992	1136.663	854.195
307.979	16.003	1135.651	853.414
308.993	16.010	1135.053	852.925
310.008	16.046	1134.613	852.704
311.022	16.185	1133.524	852.510
312.037	16.181	1132.480	851.627
313.052	16.005	1131.984	850.293
314.066	16.117	1131.012	850.051
315.081	16.121	1129.920	849.177
316.095	16.092	1129.385	848.556
317.110	16.219	1128.322	848.316
318.125	16.255	1127.998	848.179
319.139	16.175	1126.979	846.938
320.154	16.098	1126.560	846.163
321.168	16.178	1125.683	845.831
322.183	16.221	1125.195	845.603
323.197	16.230	1124.692	845.192
324.212	16.211	1123.794	844.350
325.227	16.304	1123.439	844.473
326.241	16.277	1122.669	843.686
327.256	16.291	1121.625	842.895
328.270	16.255	1121.211	842.330
329.285	16.301	1119.949	841.537
330.300	16.312	1119.146	840.916
331.314	16.349	1117.950	840.124
332.329	16.383	1116.997	839.505
333.343	16.277	1116.561	838.577
334.358	16.370	1115.041	837.820
335.373	16.491	1114.711	838.097
336.387	16.391	1114.073	837.052
337.402	16.519	1112.794	836.647
338.416	16.482	1112.592	836.241
339.431	16.494	1112.056	835.822
340.446	16.449	1111.468	835.081
341.460	16.541	1110.720	834.900
342.475	16.565	1109.339	833.910
343.489	16.666	1108.434	833.653
344.504	16.722	1107.928	833.474
345.519	16.547	1107.342	832.097
346.533	16.597	1106.496	831.636
347.548	16.761	1105.146	831.352
348.562	16.689	1104.709	830.596
349.577	16.665	1103.678	829.631
350.592	16.601	1103.213	828.893
351.606	16.676	1102.707	828.806
352.621	16.682	1101.708	828.013
353.635	16.665	1100.959	827.291
354.650	16.677	1100.371	826.833
355.665	16.661	1099.999	826.404
356.679	16.678	1099.001	825.663
357.694	16.682	1098.681	825.371
358.708	16.767	1097.705	824.977
359.723	16.767	1097.433	824.702
360.738	16.878	1096.652	824.580
361.752	16.865	1095.793	823.801
362.767	16.856	1095.236	823.262
363.781	16.919	1094.582	823.006
364.796	16.861	1094.366	822.490
365.810	17.061	1093.525	822.755
366.825	16.954	1092.868	821.669
367.840	16.911	1092.730	821.281
368.854	17.145	1091.646	821.529
369.869	17.052	1090.763	820.339
370.883	16.918	1090.394	819.344
371.898	16.990	1089.498	818.944
372.913	16.985	1089.022	818.493
373.927	17.043	1088.314	818.165
374.942	17.176	1087.701	818.273
375.956	17.037	1087.390	817.300
376.971	17.086	1086.898	817.093
377.986	17.035	1086.358	816.370
379.000	17.037	1085.759	815.853
380.015	17.174	1084.785	815.707
381.029	17.183	1084.040	815.119
382.044	17.137	1083.463	814.393
383.059	17.206	1082.647	814.038
384.073	17.259	1081.963	813.704
385.088	17.347	1081.012	813.339
386.102	17.319	1080.090	812.438
387.117	17.332	1079.343	811.869
388.132	17.238	1078.380	810.625
389.146	17.226	1077.694	809.979
390.161	17.365	1076.944	810.004
391.175	17.357	1076.191	809.327
392.190	17.330	1075.527	808.632
393.205	17.525	1074.292	808.555
394.219	17.398	1073.747	807.470
395.234	17.536	1072.956	807.460
396.248	17.450	1071.838	806.140
397.263	17.316	1071.088	804.872
398.278	17.321	1070.405	804.308
399.292	17.374	1069.960	804.153
400.307	17.398	1069.053	803.517
401.321	17.343	1068.524	802.786
402.336	17.410	1067.663	802.383
403.350	17.520	1067.204	802.486
404.365	17.545	1065.828	801.500
405.380	17.509	1065.371	800.915
406.394	17.559	1064.804	800.652
407.409	17.573	1063.870	799.945
408.423	17.626	1063.153	799.585
409.438	17.629	1062.476	799.018
410.453	17.613	1062.058	798.557
411.467	17.749	1061.156	798.446
412.482	17.647	1060.452	797.367
413.496	17.696	1059.992	797.184
414.511	17.744	1059.159	796.709
415.526	17.669	1059.256	796.361
416.540	17.856	1058.221	796.383
417.555	17.864	1057.657	795.928
418.569	17.921	1056.816	795.488
419.584	17.823	1056.668	794.851
420.599	17.815	1056.234	794.418
421.613	103.060	1322.851	1464.148
422.628	95.028	1361.654	1464.223
