DTS Sentinel unit serial number:	SN413079Multiplexer serial number:	ORYXHardware model number:	OX4-SRSoftware version number:	ORYX F/W v4.00 Oryx Data Collector v3.7.2.0data status	okinstallation	princeton_trtdifferential loss correction	single-endedforward channel	channel 2reverse channel	N/Adate	2019/09/18time	21:51:35forward acquisition time	60.00reverse acquisition time	0.00gamma	496.2192k internal	0.2348k external	0.2348temperature offset calibration	1.0016default loss term (dB/km)	0.3790temperature slope calibration	1.0000multiplexer offset coefficient	1.0000multiplexer slope coefficient	1.0000fibre end	0.00T internal ref (°C)	24.75T ext. ref 1 (°C)	0.81T ext. ref 2 (°C)	18.31length (m)	temperature (°C)	Stokes	anti-Stokes-747.200	-200.000	0.034	0.347
-746.185	-200.000	-0.022	0.297
-745.171	48.508	-0.099	-0.093
-744.156	130.180	0.058	-0.074
-743.142	-12.855	-0.025	0.016
-742.127	97.339	-0.143	-0.164
-741.112	-156.931	0.038	0.002
-740.098	248.811	-0.179	-0.303
-739.083	-200.000	-0.026	0.154
-738.069	-200.000	0.057	-0.274
-737.054	639.644	0.051	0.131
-736.039	-48.691	-0.271	-0.130
-735.025	-73.172	0.155	-0.057
-734.010	24.483	0.183	-0.151
-732.996	105.706	0.061	-0.072
-731.981	711.708	-0.107	0.284
-730.966	-124.321	-0.371	-0.058
-729.952	-150.490	0.093	0.007
-728.937	-200.000	-0.023	-0.235
-727.923	-200.000	0.055	-0.393
-726.908	191.661	-0.117	0.176
-725.894	170.195	0.180	0.257
-724.879	346.761	0.138	0.271
-723.864	536.825	-0.097	-0.231
-722.850	603.229	0.089	-0.220
-721.835	-117.117	0.238	0.043
-720.821	-104.638	-0.252	-0.058
-719.806	-59.862	-0.350	-0.150
-718.791	-166.122	0.151	-0.006
-717.777	-111.008	0.285	0.058
-716.762	248.257	-0.083	-0.141
-715.748	-200.000	-0.013	0.182
-714.733	-200.000	0.067	-0.339
-713.718	800.000	-0.037	-0.136
-712.704	-120.281	0.163	-0.028
-711.689	192.275	-0.119	0.179
-710.675	-200.000	-0.064	0.350
-709.660	-141.357	-0.266	0.027
-708.645	11.130	-0.140	0.107
-707.631	800.000	0.065	-0.215
-706.616	-118.977	0.290	0.051
-705.602	-126.429	0.031	-0.005
-704.587	150.509	-0.077	-0.104
-703.572	82.038	-0.304	-0.329
-702.558	800.000	0.040	-0.163
-701.543	-200.000	-0.043	-0.297
-700.529	-151.601	0.155	-0.011
-699.514	-200.000	-0.031	-0.137
-698.499	-140.113	-0.267	0.028
-697.485	-200.000	0.003	-0.019
-696.470	2.923	0.146	-0.106
-695.456	-112.939	-0.053	0.010
-694.441	-157.162	-0.299	0.018
-693.426	-200.000	0.004	-0.168
-692.412	-200.000	0.000	-0.017
-691.397	707.630	0.151	-0.399
-690.383	-62.774	-0.172	-0.071
-689.368	-114.768	0.273	0.052
-688.354	399.583	0.167	-0.349
-687.339	-200.000	0.013	-0.090
-686.324	800.000	-0.109	0.469
-685.310	-135.754	-0.171	-0.020
-684.295	-200.000	-0.035	-0.187
-683.281	-97.892	0.105	0.027
-682.266	800.000	0.029	0.112
-681.251	55.337	0.087	-0.084
-680.237	-41.619	0.389	-0.199
-679.222	-7.323	-0.124	0.083
-678.208	-144.883	-0.371	-0.034
-677.193	290.482	0.100	-0.181
-676.178	-57.580	-0.230	0.101
-675.164	-46.477	0.020	-0.010
-674.149	99.777	0.038	-0.044
-673.135	-200.000	-0.013	-0.306
-672.120	284.476	0.030	-0.054
-671.105	39.664	-0.034	-0.031
-670.091	-136.683	0.103	0.012
-669.076	-200.000	0.019	-0.143
-668.062	76.956	-0.080	-0.085
-667.047	-39.767	0.017	0.009
-666.032	-200.000	-0.017	0.228
-665.018	-113.029	-0.095	-0.019
-664.003	-199.228	0.480	-0.003
-662.989	-200.000	-0.000	0.011
-661.974	283.916	0.178	-0.318
-660.959	-43.578	0.403	-0.202
-659.945	-37.187	0.050	-0.027
-658.930	-69.762	-0.281	-0.107
-657.916	-166.292	0.014	0.001
-656.901	269.454	-0.048	0.084
-655.886	41.585	0.151	-0.137
-654.872	-59.935	-0.206	0.088
-653.857	-98.962	-0.188	-0.047
-652.843	24.147	-0.165	0.135
-651.828	-24.057	0.099	0.059
-650.814	-93.278	-0.365	-0.101
-649.799	364.952	0.124	-0.248
-648.784	-8.728	-0.271	-0.181
-647.770	413.943	0.079	-0.167
-646.755	-72.096	0.053	-0.020
-645.741	324.690	0.072	0.137
-644.726	-27.289	-0.121	0.070
-643.711	-200.000	0.023	0.176
-642.697	376.357	0.056	0.113
-641.682	290.945	-0.159	-0.287
-640.668	236.030	0.118	-0.193
-639.653	83.728	-0.259	-0.281
-638.638	-200.000	-0.051	0.256
-637.624	100.397	-0.169	0.195
-636.609	-200.000	-0.024	-0.119
-635.595	-200.000	-0.025	-0.386
-634.580	-200.000	-0.009	-0.124
-633.565	124.695	0.404	0.507
-632.551	2.223	-0.139	0.100
-631.536	115.891	0.082	0.099
-630.522	800.000	0.102	-0.378
-629.507	-1.183	-0.021	-0.015
-628.492	39.905	0.094	0.084
-627.478	394.440	0.124	-0.257
-626.463	159.995	0.052	-0.073
-625.449	-200.000	-0.013	-0.229
-624.434	-163.193	-0.230	0.011
-623.419	-117.618	-0.297	-0.053
-622.405	-18.739	-0.179	-0.111
-621.390	-200.000	-0.010	-0.080
-620.376	94.434	-0.148	-0.168
-619.361	-138.068	0.182	0.020
-618.346	-200.000	-0.004	-0.182
-617.332	-15.215	-0.365	-0.232
-616.317	-200.000	0.015	0.266
-615.303	800.000	-0.079	-0.226
-614.288	-200.000	-0.010	0.071
-613.273	23.935	-0.089	-0.073
-612.259	-93.540	0.105	-0.029
-611.244	-200.000	0.040	0.175
-610.230	-134.014	0.188	0.023
-609.215	-142.076	-0.180	0.018
-608.201	-200.000	-0.062	0.371
-607.186	56.557	0.059	-0.057
-606.171	-200.000	-0.009	0.335
-605.157	204.393	0.199	-0.306
-604.142	134.100	0.045	0.057
-603.128	800.000	0.037	0.158
-602.113	17.644	0.196	-0.155
-601.098	-40.533	-0.225	0.116
-600.084	276.345	0.082	0.145
-599.069	-49.230	-0.286	0.136
-598.055	235.716	0.162	-0.266
-597.040	96.019	-0.086	-0.098
-596.025	125.745	0.070	-0.088
-595.011	-200.000	0.022	-0.247
-593.996	-98.296	-0.139	0.036
-592.982	-152.235	-0.326	0.023
-591.967	800.000	0.077	0.224
-590.952	-200.000	-0.083	0.465
-589.938	145.932	0.081	0.108
-588.923	150.060	-0.061	0.082
-587.909	800.000	0.050	0.164
-586.894	-200.000	-0.021	-0.290
-585.879	-156.743	0.223	0.014
-584.865	160.343	0.135	-0.187
-583.850	-200.000	0.001	0.193
-582.836	-200.000	0.035	0.209
-581.821	-157.996	0.434	-0.025
-580.806	79.647	-0.181	-0.193
-579.792	21.511	-0.127	0.102
-578.777	305.908	0.069	-0.127
-577.763	117.277	0.078	0.095
-576.748	-77.638	0.135	0.046
-575.733	50.638	-0.144	-0.135
-574.719	-60.725	0.217	0.091
-573.704	-200.000	0.000	0.273
-572.690	-136.506	0.338	-0.039
-571.675	-141.894	-0.316	0.031
-570.661	-200.000	-0.062	0.324
-569.646	-160.577	-0.042	-0.002
-568.631	-52.071	0.132	0.061
-567.617	-131.350	0.273	-0.036
-566.602	-86.168	-0.118	0.036
-565.588	2.574	-0.087	-0.063
-564.573	-200.000	0.021	0.270
-563.558	-200.000	0.046	0.232
-562.544	98.833	-0.133	0.152
-561.529	-200.000	0.042	0.192
-560.515	-200.000	0.055	0.423
-559.500	-113.203	-0.103	-0.020
-558.485	441.407	-0.060	-0.131
-557.471	-200.000	0.042	0.187
-556.456	2.380	-0.276	0.198
-555.442	800.000	0.127	-0.373
-554.427	-20.681	-0.211	-0.128
-553.412	66.388	-0.185	0.186
-552.398	-200.000	0.026	-0.306
-551.383	-200.000	-0.037	-0.357
-550.369	421.104	0.096	-0.204
-549.354	134.543	0.238	-0.307
-548.339	-200.000	-0.045	-0.213
-547.325	61.776	-0.241	0.238
-546.310	10.998	-0.271	-0.205
-545.296	-128.479	-0.320	0.045
-544.281	-200.000	0.013	0.060
-543.266	531.983	0.019	0.045
-542.252	36.779	0.077	0.068
-541.237	-117.209	0.242	0.044
-540.223	141.543	-0.173	0.228
-539.208	800.000	-0.069	0.227
-538.193	603.601	0.088	0.218
-537.179	59.872	-0.219	0.214
-536.164	96.239	0.324	-0.367
-535.150	-200.000	-0.064	0.326
-534.135	3.871	0.243	0.176
-533.121	-96.228	-0.110	-0.029
-532.106	-200.000	0.045	0.355
-531.091	-42.066	0.100	0.051
-530.077	800.000	-0.049	0.181
-529.062	-200.000	0.038	0.246
-528.048	11.294	0.206	-0.156
-527.033	26.906	0.152	-0.127
-526.018	84.362	0.072	0.078
-525.004	-189.297	0.498	0.006
-523.989	-96.042	-0.202	0.053
-522.975	-0.886	-0.411	0.288
-521.960	45.923	0.168	0.154
-520.945	67.622	-0.284	0.287
-519.931	202.275	0.131	0.200
-518.916	800.000	0.063	0.192
-517.902	121.522	-0.250	-0.308
-516.887	-200.000	0.004	0.039
-515.872	80.294	0.078	0.083
-514.858	-90.964	0.128	-0.036
-513.843	-136.297	-0.221	-0.026
-512.829	-200.000	0.057	-0.295
-511.814	336.035	0.068	-0.132
-510.799	-200.000	-0.002	-0.242
-509.785	-43.852	-0.204	-0.102
-508.770	800.000	-0.108	-0.309
-507.756	-177.107	0.209	0.005
-506.741	-66.466	0.123	-0.048
-505.726	-200.000	0.036	0.286
-504.712	-22.840	-0.157	0.094
-503.697	343.474	-0.086	0.167
-502.683	196.510	-0.155	-0.234
-501.668	-101.347	0.242	0.058
-500.653	-52.967	0.308	-0.140
-499.639	-120.276	0.086	-0.015
-498.624	177.438	0.033	0.047
-497.610	61.303	-0.124	-0.122
-496.595	-60.525	0.136	0.057
-495.581	-67.914	-0.163	0.063
-494.566	626.454	0.154	-0.386
-493.551	-200.000	0.011	-0.257
-492.537	453.650	-0.191	-0.418
-491.522	-200.000	-0.051	0.296
-490.508	46.284	0.222	-0.203
-489.493	1.409	-0.141	-0.101
-488.478	41.545	-0.093	-0.084
-487.464	-30.021	-0.080	0.045
-486.449	-125.472	0.202	0.030
-485.435	800.000	-0.087	-0.299
-484.420	-197.978	0.198	-0.001
-483.405	-52.620	-0.080	-0.037
-482.391	-69.758	0.102	-0.039
-481.376	199.044	-0.081	-0.123
-480.362	-10.329	-0.089	-0.058
-479.347	95.194	0.120	-0.135
-478.332	290.122	-0.051	0.091
-477.318	212.870	0.075	-0.117
-476.303	-61.985	-0.305	-0.126
-475.289	-80.282	-0.494	-0.163
-474.274	800.000	-0.025	0.084
-473.259	-156.263	0.165	0.010
-472.245	-45.541	-0.314	-0.154
-471.230	1.426	0.210	-0.149
-470.216	-144.291	0.305	0.028
-469.201	-200.000	-0.001	0.362
-468.186	-3.254	0.258	-0.178
-467.172	-116.837	0.053	0.010
-466.157	612.672	0.067	-0.165
-465.143	100.277	-0.108	0.124
-464.128	-200.000	-0.050	0.338
-463.113	-161.674	0.327	-0.017
-462.099	131.126	0.237	-0.301
-461.084	126.469	0.061	0.076
-460.070	-18.220	-0.335	0.207
-459.055	127.045	-0.180	-0.226
-458.040	-200.000	-0.041	-0.435
-457.026	-99.850	-0.406	-0.100
-456.011	14.018	0.193	-0.148
-454.997	-200.000	0.006	-0.187
-453.982	-80.668	0.130	-0.043
-452.968	-200.000	0.055	-0.310
-451.953	29.917	-0.101	0.085
-450.938	-98.179	0.126	-0.032
-449.924	358.458	0.128	0.252
-448.909	-68.856	-0.111	-0.042
-447.895	163.017	-0.060	-0.083
-446.880	48.779	0.182	-0.169
-445.865	-38.482	0.358	0.187
-444.851	-93.506	0.096	0.026
-443.836	800.000	0.063	-0.231
-442.822	-104.979	0.152	-0.034
-441.807	-200.000	-0.003	0.044
-440.792	752.466	-0.053	-0.142
-439.778	-98.755	0.173	-0.043
-438.763	-42.432	-0.317	-0.160
-437.749	800.000	-0.107	-0.361
-436.734	326.818	-0.066	0.124
-435.719	-200.000	0.001	0.104
-434.705	-38.978	-0.167	-0.087
-433.690	198.408	-0.196	0.297
-432.676	800.000	-0.052	0.222
-431.661	-30.702	-0.242	-0.135
-430.646	-200.000	-0.047	-0.236
-429.632	564.635	0.051	-0.123
-428.617	-105.903	-0.073	-0.016
-427.603	-49.392	0.158	-0.074
-426.588	35.162	0.276	0.239
-425.573	-153.997	-0.226	0.015
-424.559	800.000	0.025	-0.104
-423.544	-200.000	-0.069	0.349
-422.530	-38.107	-0.248	0.130
-421.515	-200.000	-0.034	-0.281
-420.500	-200.000	0.082	-0.356
-419.486	800.000	-0.048	0.156
-418.471	-61.445	0.170	0.071
-417.457	-145.174	0.292	-0.026
-416.442	-67.447	-0.242	-0.094
-415.428	-24.886	-0.242	0.142
-414.413	640.325	-0.086	0.215
-413.398	342.895	-0.081	0.157
-412.384	-200.000	-0.050	-0.312
-411.369	247.677	-0.138	0.229
-410.355	386.614	-0.013	0.026
-409.340	-64.908	-0.137	-0.055
-408.325	-200.000	0.005	-0.177
-407.311	254.309	-0.032	-0.053
-406.296	-44.027	-0.332	0.164
-405.282	172.797	-0.170	0.241
-404.267	179.133	0.051	0.074
-403.252	-200.000	0.021	-0.366
-402.238	12.551	0.145	-0.111
-401.223	-40.299	-0.132	0.068
-400.209	-130.388	0.242	0.032
-399.194	312.996	0.105	-0.195
-398.179	-108.379	0.105	-0.022
-397.165	-57.271	0.149	0.065
-396.150	-167.577	-0.186	-0.007
-395.136	602.266	0.142	0.349
-394.121	-83.696	-0.076	-0.024
-393.106	-38.114	-0.132	0.069
-392.092	-200.000	-0.088	0.766
-391.077	303.624	-0.068	-0.124
-390.063	153.845	0.160	0.217
-389.048	-33.544	0.230	0.125
-388.033	67.540	-0.218	-0.219
-387.019	-106.096	0.538	-0.119
-386.004	-200.000	0.017	0.249
-384.990	-192.608	-0.209	-0.002
-383.975	-90.506	0.219	0.063
-382.960	-59.731	0.348	0.147
-381.946	-77.827	0.124	0.042
-380.931	800.000	-0.063	-0.246
-379.917	-83.275	0.201	-0.063
-378.902	-156.333	-0.373	0.023
-377.888	243.934	-0.148	-0.244
-376.873	2.016	0.189	-0.134
-375.858	-64.963	-0.321	-0.128
-374.844	27.632	0.136	0.113
-373.829	800.000	-0.101	0.303
-372.815	316.939	0.032	0.060
-371.800	-155.949	-0.212	-0.013
-370.785	-82.671	-0.195	0.062
-369.771	-122.588	0.287	-0.046
-368.756	12.204	-0.108	0.082
-367.742	-116.651	0.073	-0.013
-366.727	-120.601	0.398	-0.066
-365.712	-194.392	0.166	0.001
-364.698	-12.732	-0.145	-0.093
-363.683	86.094	0.239	-0.259
-362.669	34.606	-0.123	-0.106
-361.654	113.934	-0.134	-0.161
-360.639	-120.620	0.142	0.024
-359.625	-83.001	-0.158	0.050
-358.610	800.000	-0.084	0.256
-357.596	-44.156	0.232	-0.115
-356.581	30.153	-0.170	0.143
-355.566	-60.018	0.288	-0.121
-354.552	696.523	0.050	0.128
-353.537	-165.257	0.148	-0.006
-352.523	204.372	-0.062	0.095
-351.508	3.291	0.034	0.024
-350.493	-200.000	0.016	-0.341
-349.479	496.908	0.071	-0.162
-348.464	-142.016	0.202	0.020
-347.450	54.806	-0.314	-0.298
-346.435	613.564	-0.082	0.202
-345.420	180.867	0.088	0.127
-344.406	-34.218	0.041	-0.022
-343.391	-2.416	-0.221	0.152
-342.377	-129.104	0.162	0.022
-341.362	46.549	-0.107	0.098
-340.348	41.268	0.072	0.064
-339.333	-53.919	0.143	-0.064
-338.318	-44.544	0.184	0.090
-337.304	-59.129	0.107	0.045
-336.289	-200.000	-0.004	-0.262
-335.275	-117.389	-0.315	0.056
-334.260	-200.000	0.027	-0.230
-333.245	-178.275	0.031	0.001
-332.231	-93.137	0.378	0.104
-331.216	-200.000	-0.001	0.142
-330.202	50.069	-0.126	0.117
-329.187	-5.936	0.289	-0.194
-328.172	800.000	0.034	-0.123
-327.158	-121.633	-0.079	-0.013
-326.143	126.676	-0.172	0.214
-325.129	800.000	0.043	0.183
-324.114	-200.000	0.002	-0.241
-323.099	800.000	-0.041	0.155
-322.085	800.000	0.077	0.213
-321.070	129.192	-0.066	-0.083
-320.056	-135.516	-0.598	0.070
-319.041	-76.818	0.441	0.152
-318.026	-65.608	0.103	-0.041
-317.012	-37.043	0.120	0.063
-315.997	-43.946	-0.279	0.138
-314.983	123.709	-0.066	0.081
-313.968	394.347	0.130	-0.267
-312.953	320.059	-0.121	0.226
-311.939	711.760	-0.041	-0.107
-310.924	366.938	-0.077	0.152
-309.910	-200.000	0.009	-0.352
-308.895	-16.736	-0.136	-0.085
-307.880	527.466	-0.123	-0.285
-306.866	-200.000	0.005	-0.266
-305.851	32.527	0.125	-0.106
-304.837	-200.000	-0.064	0.464
-303.822	-116.880	0.101	-0.018
-302.807	313.120	0.122	-0.225
-301.793	-10.450	-0.213	-0.139
-300.778	-133.099	-0.307	-0.038
-299.764	441.919	0.042	0.091
-298.749	-200.000	0.006	0.232
-297.735	-47.212	0.133	0.064
-296.720	-200.000	-0.028	0.213
-295.705	47.605	0.102	-0.094
-294.691	-47.967	0.179	0.085
-293.676	-192.860	-0.303	0.003
-292.662	117.449	-0.152	0.184
-291.647	91.582	-0.157	-0.173
-290.632	-200.000	-0.032	0.232
-289.618	-97.060	0.079	-0.020
-288.603	-200.000	0.003	0.163
-287.589	381.354	0.047	0.095
-286.574	792.786	-0.113	-0.306
-285.559	-200.000	-0.007	0.279
-284.545	800.000	-0.081	-0.254
-283.530	-50.203	-0.060	-0.028
-282.516	-160.879	-0.075	-0.004
-281.501	40.774	0.157	0.139
-280.486	-200.000	-0.001	-0.315
-279.472	-109.485	0.132	-0.027
-278.457	800.000	-0.067	0.278
-277.443	-200.000	0.003	-0.041
-276.428	33.333	0.100	-0.085
-275.413	-108.823	-0.180	-0.038
-274.399	-200.000	0.024	0.185
-273.384	125.388	-0.097	0.120
-272.370	80.024	0.053	0.056
-271.355	-179.226	-0.144	0.003
-270.340	-200.000	0.016	0.219
-269.326	522.892	0.136	0.312
-268.311	-200.000	-0.010	-0.219
-267.297	800.000	-0.054	0.212
-266.282	144.073	0.237	0.311
-265.267	-39.233	-0.216	0.111
-264.253	8.940	0.305	0.225
-263.238	-18.702	0.023	0.014
-262.224	-128.186	0.119	-0.017
-261.209	93.463	0.106	0.118
-260.195	-200.000	-0.195	0.000
-259.180	205.389	-0.033	0.050
-258.165	-141.497	0.403	-0.040
-257.151	25.775	-0.186	0.152
-256.136	800.000	-0.040	-0.139
-255.122	-104.437	-0.315	-0.072
-254.107	111.471	-0.140	0.166
-253.092	-36.943	-0.232	0.122
-252.078	150.265	-0.101	0.134
-251.063	-98.089	0.224	0.056
-250.049	-200.000	0.013	0.103
-249.034	-139.528	-0.179	0.019
-248.019	-105.657	0.071	-0.016
-247.005	-137.700	-0.066	0.007
-245.990	-112.843	0.323	-0.063
-244.976	-112.367	-0.070	-0.014
-243.961	451.882	-0.031	-0.067
-242.946	800.000	0.038	-0.135
-241.932	26.718	0.060	-0.050
-240.917	800.000	0.036	0.110
-239.903	-200.000	0.049	-0.311
-238.888	303.851	0.032	0.058
-237.873	237.650	0.086	-0.140
-236.859	-113.391	0.452	-0.087
-235.844	587.774	-0.051	-0.122
-234.830	-156.170	0.192	-0.012
-233.815	-200.000	0.022	0.175
-232.800	-200.000	-0.015	0.107
-231.786	57.721	0.134	-0.128
-230.771	687.384	-0.085	0.217
-229.757	183.857	-0.082	-0.119
-228.742	303.344	0.073	0.132
-227.727	-57.139	-0.292	-0.126
-226.713	-6.137	0.148	0.099
-225.698	113.821	0.041	-0.048
-224.684	133.041	-0.047	-0.060
-223.669	-152.536	0.163	-0.011
-222.655	-80.357	0.366	-0.120
-221.640	90.020	-0.140	0.154
-220.625	-20.285	0.039	0.024
-219.611	-200.000	-0.023	0.106
-218.596	-90.252	-0.157	-0.045
-217.582	-200.000	0.045	-0.254
-216.567	78.211	-0.128	-0.133
-215.552	407.811	-0.030	0.063
-214.538	54.205	0.066	-0.062
-213.523	13.288	-0.174	0.132
-212.509	-15.877	0.415	0.259
-211.494	-45.985	0.333	-0.161
-210.479	-200.000	0.015	0.117
-209.465	-126.967	0.342	-0.049
-208.450	67.027	-0.281	-0.280
-207.436	545.328	0.053	0.124
-206.421	-55.695	0.081	0.036
-205.406	-112.769	0.202	0.039
-204.392	-200.000	0.004	0.214
-203.377	-159.682	0.220	-0.012
-202.363	-138.908	-0.414	0.044
-201.348	74.488	-0.127	-0.130
-200.333	164.686	-0.128	-0.177
-199.319	-200.000	0.036	-0.201
-198.304	-148.558	-0.088	0.007
-197.290	-200.000	0.014	0.094
-196.275	368.930	-0.139	-0.275
-195.260	-200.000	-0.040	-0.252
-194.246	98.260	-0.113	-0.128
-193.231	-189.006	0.229	-0.003
-192.217	-200.000	-0.042	-0.420
-191.202	-107.851	-0.213	0.045
-190.187	62.220	0.107	0.105
-189.173	-28.212	-0.180	0.102
-188.158	323.942	-0.171	-0.319
-187.144	-200.000	-0.024	0.370
-186.129	276.635	0.144	-0.251
-185.114	-84.283	0.064	0.020
-184.100	-200.000	-0.026	-0.142
-183.085	35.329	0.134	-0.115
-182.071	127.701	-0.067	0.083
-181.056	226.127	-0.074	0.117
-180.042	-200.000	-0.009	-0.084
-179.027	483.434	0.134	-0.297
-178.012	255.000	-0.061	0.102
-176.998	-0.663	-0.295	0.205
-175.983	-200.000	-0.009	-0.138
-174.969	491.449	-0.076	0.171
-173.954	-200.000	0.004	0.216
-172.939	339.516	0.118	0.225
-171.925	-55.453	-0.042	-0.018
-170.910	-118.282	0.280	-0.049
-169.896	-177.036	0.181	-0.004
-168.881	-79.662	-0.283	0.093
-167.866	800.000	0.034	-0.125
-166.852	-131.434	0.441	-0.057
-165.837	-84.328	-0.190	-0.059
-164.823	-103.160	0.031	0.007
-163.808	800.000	0.047	0.199
-162.793	14.468	-0.251	-0.191
-161.779	-45.554	0.045	-0.022
-160.764	800.000	-0.035	0.129
-159.750	103.510	-0.273	0.313
-158.735	-200.000	0.000	0.074
-157.720	112.983	-0.105	0.124
-156.706	78.291	-0.018	0.018
-155.691	-136.349	0.135	0.015
-154.677	-32.224	-0.194	0.106
-153.662	-200.000	0.021	-0.283
-152.647	-67.857	0.106	0.041
-151.633	58.262	0.100	-0.096
-150.618	-72.563	0.412	-0.149
-149.604	299.702	-0.089	-0.161
-148.589	11.996	-0.055	-0.041
-147.574	62.945	-0.193	-0.188
-146.560	-200.000	0.039	-0.530
-145.545	385.011	-0.050	-0.100
-144.531	105.351	0.204	-0.235
-143.516	800.000	-0.054	0.174
-142.502	55.700	0.126	-0.119
-141.487	137.292	-0.121	-0.155
-140.472	138.951	-0.156	-0.200
-139.458	800.000	-0.034	0.126
-138.443	102.142	0.231	-0.263
-137.429	-156.340	-0.360	0.022
-136.414	800.000	0.105	-0.374
-135.399	800.000	0.014	-0.055
-134.385	-200.000	-0.044	0.208
-133.370	114.909	-0.174	0.207
-132.356	-27.717	-0.140	0.079
-131.341	-4.319	-0.040	0.027
-130.326	-40.129	-0.300	-0.153
-129.312	96.297	0.122	0.137
-128.297	-24.316	-0.298	0.174
-127.283	16.196	0.288	-0.222
-126.268	-200.000	0.034	-0.246
-125.253	80.457	0.128	0.134
-124.239	652.517	0.090	-0.226
-123.224	-67.843	0.124	0.047
-122.210	-80.411	0.431	0.140
-121.195	-200.000	0.004	0.186
-120.180	-200.000	0.015	-0.175
-119.166	-53.702	-0.446	-0.199
-118.151	671.987	0.108	0.272
-117.137	56.332	-0.309	0.293
-116.122	-11.706	0.176	0.113
-115.107	243.118	-0.245	0.401
-114.093	800.000	-0.076	0.325
-113.078	22.317	-0.230	-0.183
-112.064	23.681	0.179	0.144
-111.049	-200.000	-0.001	0.125
-110.034	217.360	-0.146	0.226
-109.020	195.147	0.096	-0.142
-108.005	-33.925	0.226	0.121
-106.991	-164.313	0.255	-0.011
-105.976	-92.756	-0.296	-0.081
-104.962	330.291	0.058	-0.109
-103.947	576.412	-0.021	-0.051
-102.932	-200.000	-0.025	0.120
-101.918	-48.855	-0.212	0.099
-100.903	-20.513	0.121	0.072
-99.889	800.000	-0.061	-0.172
-98.874	88.750	0.164	-0.177
-97.859	-73.835	0.136	-0.048
-96.845	-49.860	0.096	0.044
-95.830	-200.000	0.008	0.105
-94.816	800.000	0.102	-0.373
-93.801	24.183	0.233	-0.188
-92.786	314.489	0.107	0.196
-91.772	-100.584	0.222	-0.053
-90.757	800.000	-0.041	0.152
-89.743	21.458	0.287	0.228
-88.728	800.000	-0.045	-0.130
-87.713	800.000	0.070	0.213
-86.699	761.988	0.028	0.074
-85.684	-200.000	-0.037	-0.169
-84.670	473.239	-0.084	-0.184
-83.655	163.926	-0.143	0.196
-82.640	-63.335	0.310	-0.124
-81.626	100.278	0.022	-0.025
-80.611	9.162	0.108	0.079
-79.597	-108.582	0.293	-0.061
-78.582	107.455	-0.072	-0.083
-77.567	-61.537	0.347	0.142
-76.553	251.484	-0.119	-0.198
-75.538	-94.548	0.178	-0.047
-74.524	11.295	0.161	0.120
-73.509	223.172	0.104	0.163
-72.494	-200.000	-0.045	0.198
-71.480	120.943	0.317	0.384
-70.465	-17.312	0.123	-0.075
-69.451	-87.306	-0.246	0.073
-68.436	-3.091	-0.224	-0.152
-67.422	800.000	0.064	0.178
-66.407	-101.802	0.181	-0.043
-65.392	-138.735	-0.127	0.013
-64.378	165.599	0.103	-0.142
-63.363	210.777	0.192	0.293
-62.349	132.806	-0.096	0.121
-61.334	134.605	-1.017	-1.285
-60.319	109.896	0.391	0.456
-59.305	800.000	-0.435	-1.212
-58.290	216.141	1.010	1.561
-57.276	800.000	0.556	1.716
-56.261	-200.000	120.094	625.697
-55.246	426.458	1529.528	3207.464
-54.232	149.154	2686.380	3535.768
-53.217	92.359	2268.485	2487.362
-52.203	33.451	1886.419	1593.466
-51.188	27.812	1683.382	1379.430
-50.173	25.488	1645.041	1330.775
-49.159	45.711	1711.128	1538.018
-48.144	43.909	1723.674	1535.587
-47.130	27.312	1675.802	1369.245
-46.115	24.885	1660.097	1338.238
-45.100	24.600	1656.024	1332.774
-44.086	24.636	1653.446	1330.919
-43.071	24.612	1651.135	1328.826
-42.057	24.611	1648.262	1326.453
-41.042	24.689	1646.373	1325.458
-40.027	24.620	1644.987	1323.776
-39.013	24.603	1642.812	1321.849
-37.998	24.655	1641.032	1320.750
-36.984	24.607	1639.799	1319.350
-35.969	24.705	1638.622	1319.073
-34.954	24.778	1636.335	1317.718
-33.940	24.786	1634.852	1316.533
-32.925	24.814	1633.439	1315.545
-31.911	24.818	1631.852	1314.243
-30.896	24.740	1630.390	1312.440
-29.881	24.755	1628.648	1311.099
-28.867	24.685	1627.402	1309.533
-27.852	24.696	1625.766	1308.241
-26.838	24.731	1624.349	1307.306
-25.823	24.721	1623.304	1306.341
-24.809	24.806	1621.536	1305.487
-23.794	24.808	1620.162	1304.340
-22.779	24.780	1618.895	1303.067
-21.765	24.792	1617.357	1301.864
-20.750	24.713	1615.859	1300.031
-19.736	24.727	1614.227	1298.767
-18.721	24.801	1612.869	1298.160
-17.706	24.695	1611.948	1296.597
-16.692	24.685	1610.304	1295.152
-15.677	24.760	1608.583	1294.261
-14.663	24.782	1607.215	1293.268
-13.648	24.886	1605.058	1292.231
-12.633	24.751	1604.936	1291.107
-11.619	24.740	1603.162	1289.550
-10.604	24.823	1601.706	1288.928
-9.590	24.771	1600.502	1287.529
-8.575	24.827	1598.644	1286.386
-7.560	24.815	1597.520	1285.348
-6.546	24.865	1596.549	1284.871
-5.531	24.822	1595.210	1283.434
-4.517	24.817	1594.657	1282.901
-3.502	24.882	1593.459	1282.353
-2.487	24.859	1591.718	1280.741
-1.473	24.338	1579.589	1267.228
-0.458	21.207	1560.735	1230.038
0.556	16.416	1562.180	1197.187
1.571	14.035	1585.191	1197.582
2.586	13.875	1597.621	1205.700
3.600	13.094	1544.798	1160.247
4.615	7.587	1439.087	1044.621
5.629	1.900	1379.725	965.503
6.644	0.814	1372.567	953.565
7.659	0.813	1371.701	952.876
8.673	0.851	1370.092	951.911
9.688	0.772	1368.113	949.958
10.702	0.606	1365.228	946.828
11.717	3.386	1368.614	966.549
12.731	10.324	1378.922	1017.456
13.746	15.856	1387.240	1058.382
14.761	17.399	1388.383	1068.858
15.775	16.799	1386.424	1063.490
16.790	15.758	1384.284	1055.232
17.804	15.021	1381.638	1048.506
18.819	14.607	1380.351	1044.842
19.834	14.332	1379.377	1042.293
20.848	14.119	1377.442	1039.407
21.863	13.927	1376.498	1037.405
22.877	13.738	1375.364	1035.280
23.892	13.660	1374.479	1034.030
24.907	13.622	1373.498	1032.968
25.921	13.684	1372.323	1032.376
26.936	13.696	1371.891	1032.033
27.950	13.769	1370.773	1031.558
28.965	13.830	1369.847	1031.145
29.980	13.774	1369.090	1030.142
30.994	13.792	1368.443	1029.675
32.009	13.904	1367.145	1029.303
33.023	13.951	1365.884	1028.551
34.038	13.874	1364.715	1027.099
35.053	13.756	1363.999	1025.746
36.067	13.779	1362.753	1024.857
37.082	13.755	1361.965	1024.028
38.096	13.834	1360.882	1023.610
39.111	13.853	1359.851	1022.859
40.126	13.779	1359.355	1021.941
41.140	13.712	1358.577	1020.853
42.155	13.670	1358.061	1020.114
43.169	13.654	1357.947	1019.842
44.184	13.613	1357.382	1019.075
45.199	13.573	1357.230	1018.624
46.213	13.754	1356.156	1018.840
47.228	13.695	1355.592	1017.963
48.242	13.793	1353.957	1017.247
49.257	13.813	1352.490	1016.179
50.271	13.812	1351.109	1015.044
51.286	13.815	1349.736	1013.942
52.301	13.716	1349.045	1012.730
53.315	13.694	1347.733	1011.519
54.330	13.724	1347.176	1011.196
55.344	13.806	1344.977	1009.954
56.359	13.707	1344.408	1008.835
57.374	13.735	1343.648	1008.345
58.388	13.592	1343.212	1007.062
59.403	13.617	1342.497	1006.586
60.417	13.632	1341.238	1005.644
61.432	13.579	1340.664	1004.800
62.447	13.658	1339.389	1004.236
63.461	13.684	1338.020	1003.278
64.476	13.629	1337.286	1002.306
65.490	13.639	1335.599	1001.013
66.505	13.653	1334.276	1000.020
67.520	13.689	1333.228	999.363
68.534	13.695	1332.153	998.504
69.549	13.710	1330.855	997.533
70.563	13.645	1329.930	996.362
71.578	13.610	1328.872	995.269
72.593	13.525	1328.307	994.248
73.607	13.567	1327.026	993.454
74.622	13.525	1326.447	992.684
75.636	13.601	1325.718	992.503
76.651	13.647	1325.152	992.265
77.666	13.566	1324.569	991.256
78.680	13.561	1323.742	990.520
79.695	13.557	1323.030	989.876
80.709	13.578	1322.366	989.420
81.724	13.545	1321.741	988.663
82.739	13.695	1320.559	988.585
83.753	13.763	1319.473	988.095
84.768	13.829	1318.222	987.463
85.782	13.752	1317.133	986.102
86.797	13.796	1315.738	985.230
87.812	13.681	1314.689	983.673
88.826	13.685	1313.354	982.610
89.841	13.655	1312.583	981.773
90.855	13.672	1311.633	981.074
91.870	13.769	1311.116	981.173
92.884	13.881	1309.301	980.389
93.899	13.867	1308.796	979.846
94.914	13.790	1308.260	978.899
95.928	13.835	1307.373	978.417
96.943	13.716	1306.751	977.162
97.957	13.805	1305.562	976.711
98.972	13.757	1304.273	975.376
99.987	13.822	1303.518	975.110
101.001	13.794	1302.311	973.957
102.016	13.780	1301.376	973.088
103.030	13.888	1300.258	972.802
104.045	13.775	1299.607	971.563
105.060	13.756	1298.878	970.823
106.074	13.785	1297.482	969.860
107.089	13.720	1295.935	968.242
108.103	13.642	1294.691	966.772
109.118	13.660	1293.506	965.905
110.133	13.614	1291.749	964.241
111.147	13.686	1290.891	963.931
112.162	13.721	1289.670	963.141
113.176	13.793	1288.249	962.409
114.191	13.769	1287.550	961.665
115.206	13.872	1286.281	961.226
116.220	13.792	1284.709	959.507
117.235	13.682	1283.855	958.144
118.249	13.761	1282.857	957.773
119.264	13.682	1281.780	956.426
120.279	13.658	1280.840	955.505
121.293	13.827	1279.573	955.448
122.308	13.772	1278.618	954.336
123.322	13.621	1277.636	952.646
124.337	13.640	1276.707	951.981
125.352	13.717	1275.008	951.069
126.366	13.745	1274.073	950.449
127.381	13.626	1273.265	949.082
128.395	13.664	1272.324	948.515
129.410	13.687	1271.181	947.710
130.424	13.716	1270.465	947.258
131.439	13.766	1269.303	946.595
132.454	13.738	1268.378	945.658
133.468	13.932	1267.276	945.861
134.483	13.805	1266.815	944.706
135.497	13.812	1265.631	943.783
136.512	13.769	1264.764	942.809
137.527	13.771	1263.094	941.489
138.541	13.765	1261.937	940.508
139.556	13.813	1260.320	939.493
140.570	13.792	1259.727	938.849
141.585	13.891	1257.846	937.923
142.600	13.834	1257.242	937.067
143.614	13.902	1256.284	936.658
144.629	13.937	1255.246	935.998
145.643	13.918	1254.055	934.918
146.658	13.969	1252.820	934.201
147.673	13.897	1251.392	932.652
148.687	13.953	1250.118	931.933
149.702	13.782	1249.182	930.195
150.716	13.887	1247.340	929.329
151.731	13.921	1246.375	928.715
152.746	13.789	1245.634	927.345
153.760	13.956	1244.137	927.079
154.775	13.942	1243.136	926.173
155.789	14.019	1242.051	925.711
156.804	14.004	1240.642	924.497
157.819	14.030	1239.920	924.023
158.833	14.087	1238.773	923.399
159.848	14.189	1237.904	923.240
160.862	14.058	1237.151	921.868
161.877	14.061	1235.594	920.644
162.892	13.967	1234.758	919.416
163.906	14.006	1233.855	918.882
164.921	13.995	1233.306	918.331
165.935	14.056	1232.003	917.618
166.950	14.128	1231.106	917.265
167.964	14.124	1230.418	916.649
168.979	14.033	1229.440	915.334
169.994	14.083	1229.002	915.206
171.008	14.119	1228.214	914.736
172.023	14.167	1227.545	914.419
173.037	14.049	1227.167	913.409
174.052	14.230	1225.577	913.137
175.067	14.205	1224.594	912.186
176.081	14.193	1223.622	911.313
177.096	14.121	1222.994	910.375
178.110	14.241	1221.742	910.019
179.125	14.071	1220.706	908.236
180.140	14.186	1219.577	907.945
181.154	14.225	1218.258	907.095
182.169	14.264	1217.194	906.435
183.183	14.196	1216.047	905.129
184.198	14.230	1215.057	904.497
185.213	14.276	1213.310	903.366
186.227	14.374	1212.514	903.226
187.242	14.278	1212.190	902.385
188.256	14.372	1210.823	901.793
189.271	14.403	1209.347	900.783
190.286	14.344	1208.488	899.747
191.300	14.174	1208.343	898.640
192.315	14.222	1207.571	898.245
193.329	14.173	1206.669	897.231
194.344	14.329	1206.015	897.507
195.359	14.301	1205.667	897.019
196.373	14.301	1204.937	896.393
197.388	14.379	1204.310	896.269
198.402	14.420	1203.856	896.071
199.417	14.440	1203.425	895.779
200.432	14.557	1202.050	895.305
201.446	14.663	1201.211	895.171
202.461	14.593	1200.787	894.398
203.475	14.650	1199.421	893.607
204.490	14.613	1198.004	892.275
205.504	14.619	1197.049	891.515
206.519	14.541	1195.794	890.086
207.534	14.612	1194.498	889.421
208.548	14.515	1193.970	888.431
209.563	14.607	1193.104	888.200
210.577	14.568	1192.270	887.293
211.592	14.659	1191.323	886.991
212.607	14.792	1190.394	886.931
213.621	14.703	1189.886	885.998
214.636	14.697	1188.885	885.146
215.650	14.692	1187.453	883.974
216.665	14.705	1186.830	883.501
217.680	14.737	1186.253	883.160
218.694	14.796	1185.094	882.533
219.709	14.764	1184.472	881.823
220.723	14.871	1183.480	881.568
221.738	14.813	1182.614	880.540
222.753	14.816	1182.184	880.160
223.767	14.764	1181.483	879.286
224.782	14.889	1181.237	879.683
225.796	14.907	1179.794	878.625
226.811	15.114	1179.104	879.121
227.826	14.912	1178.801	877.757
228.840	15.000	1177.827	877.415
229.855	14.962	1176.805	876.378
230.869	14.920	1176.168	875.606
231.884	14.899	1175.615	875.007
232.899	14.902	1174.831	874.362
233.913	14.933	1173.801	873.676
234.928	14.947	1173.261	873.271
235.942	14.991	1172.021	872.500
236.957	14.962	1171.412	871.816
237.972	14.843	1171.028	870.837
238.986	14.985	1170.268	870.933
240.001	14.886	1170.091	870.207
241.015	14.946	1168.440	869.217
242.030	14.957	1167.946	868.827
243.045	15.045	1167.126	868.600
244.059	15.043	1166.634	868.146
245.074	15.034	1165.592	867.244
246.088	15.123	1164.296	866.664
247.103	15.087	1164.229	866.353
248.117	15.174	1163.565	866.234
249.132	15.240	1162.202	865.483
250.147	15.264	1161.503	865.009
251.161	15.297	1160.995	864.724
252.176	15.352	1160.218	864.353
253.190	15.343	1159.469	863.670
254.205	15.380	1158.822	863.304
255.220	15.438	1158.404	863.211
256.234	15.280	1158.054	862.062
257.249	15.447	1156.937	862.014
258.263	15.386	1156.603	861.375
259.278	15.328	1156.152	860.666
260.293	15.493	1155.368	860.850
261.307	15.340	1154.903	859.643
262.322	15.517	1153.789	859.645
263.336	15.542	1153.084	859.175
264.351	15.532	1152.850	858.871
265.366	15.495	1152.291	858.190
266.380	15.526	1151.218	857.475
267.395	15.677	1150.552	857.672
268.409	15.622	1149.468	856.506
269.424	15.640	1149.362	856.443
270.439	15.533	1148.681	855.315
271.453	15.540	1147.885	854.684
272.468	15.593	1146.943	854.174
273.482	15.572	1146.082	853.350
274.497	15.586	1145.771	853.118
275.512	15.515	1145.279	852.313
276.526	15.584	1143.878	851.545
277.541	15.591	1143.314	851.084
278.555	15.693	1142.716	851.081
279.570	15.753	1141.736	850.578
280.585	15.694	1141.308	849.886
281.599	15.803	1140.090	849.457
282.614	15.702	1139.108	848.141
283.628	15.772	1138.230	847.766
284.643	15.697	1137.297	846.615
285.657	15.777	1136.268	846.179
286.672	15.829	1135.588	845.855
287.687	15.915	1134.386	845.320
288.701	15.841	1134.183	844.721
289.716	15.736	1133.305	843.468
290.730	15.850	1132.269	843.194
291.745	15.917	1131.491	842.874
292.760	16.016	1131.157	843.047
293.774	15.915	1130.657	842.092
294.789	16.064	1129.753	842.089
295.803	16.013	1129.124	841.291
296.818	15.862	1128.851	840.258
297.833	16.013	1127.543	839.966
298.847	15.991	1126.811	839.236
299.862	15.955	1126.294	838.599
300.876	16.006	1125.257	838.004
301.891	16.087	1125.062	838.187
302.906	16.061	1124.011	837.202
303.920	16.055	1123.732	836.891
304.935	16.034	1123.115	836.250
305.949	16.246	1122.117	836.484
306.964	16.208	1121.429	835.711
307.979	16.218	1120.621	835.086
308.993	16.137	1120.147	834.256
310.008	16.173	1119.234	833.682
311.022	16.257	1118.287	833.315
312.037	16.210	1117.238	832.230
313.052	16.218	1116.748	831.829
314.066	16.277	1115.684	831.252
315.081	16.194	1114.994	830.257
316.095	16.221	1114.268	829.778
317.110	16.113	1113.841	828.853
318.125	16.226	1112.500	828.339
319.139	16.273	1112.009	828.131
320.154	16.273	1111.637	827.778
321.168	16.125	1111.356	826.769
322.183	16.232	1110.456	826.553
323.197	16.311	1109.672	826.281
324.212	16.254	1109.326	825.671
325.227	16.348	1108.360	825.340
326.241	16.405	1107.700	825.056
327.256	16.330	1106.674	823.851
328.270	16.329	1106.062	823.316
329.285	16.360	1105.229	822.774
330.300	16.358	1104.212	821.937
331.314	16.303	1103.391	820.983
332.329	16.362	1102.269	820.361
333.343	16.366	1101.759	819.933
334.358	16.479	1100.678	819.603
335.373	16.505	1099.868	819.054
336.387	16.456	1099.419	818.408
337.402	16.415	1098.925	817.772
338.416	16.434	1097.983	817.086
339.431	16.550	1097.233	817.018
340.446	16.584	1096.540	816.594
341.460	16.656	1095.825	816.334
342.475	16.691	1094.913	815.753
343.489	16.787	1093.897	815.385
344.504	16.742	1093.156	814.544
345.519	16.760	1092.295	813.920
346.533	16.751	1091.870	813.485
347.548	16.771	1091.246	813.046
348.562	16.810	1090.145	812.342
349.577	16.831	1089.323	811.757
350.592	16.697	1088.519	810.442
351.606	16.712	1087.685	809.823
352.621	16.741	1087.248	809.563
353.635	16.713	1086.578	808.863
354.650	16.694	1085.763	808.090
355.665	16.709	1085.280	807.732
356.679	16.812	1084.470	807.548
357.694	16.803	1084.197	807.232
358.708	16.863	1083.481	806.911
359.723	16.866	1082.481	806.109
360.738	16.912	1081.998	805.899
361.752	17.027	1081.136	805.732
362.767	16.837	1081.172	804.786
363.781	16.913	1080.171	804.328
364.796	17.023	1079.276	804.114
365.810	17.136	1078.958	804.337
366.825	17.115	1078.111	803.539
367.840	17.103	1077.783	803.162
368.854	17.187	1076.929	802.855
369.869	17.111	1076.671	802.233
370.883	17.076	1075.728	801.294
371.898	17.102	1075.050	800.840
372.913	17.092	1074.501	800.314
373.927	17.088	1073.981	799.835
374.942	17.068	1073.555	799.353
375.956	17.126	1073.011	799.150
376.971	17.166	1072.164	798.638
377.986	17.222	1071.709	798.491
379.000	17.319	1071.160	798.468
380.015	17.222	1070.863	797.721
381.029	17.394	1069.893	797.732
382.044	17.437	1068.852	797.087
383.059	17.423	1068.550	796.725
384.073	17.299	1068.033	795.688
385.088	17.481	1066.677	795.460
386.102	17.474	1065.625	794.573
387.117	17.385	1064.936	793.573
388.132	17.334	1063.912	792.500
389.146	17.317	1063.647	792.155
390.161	17.409	1062.616	791.748
391.175	17.401	1061.933	791.129
392.190	17.451	1060.951	790.559
393.205	17.460	1060.702	790.346
394.219	17.505	1059.932	789.914
395.234	17.424	1058.868	788.675
396.248	17.472	1057.758	787.998
397.263	17.519	1056.713	787.370
398.278	17.404	1056.001	786.235
399.292	17.503	1055.745	786.435
400.307	17.436	1054.848	785.389
401.321	17.429	1054.409	784.956
402.336	17.587	1053.586	785.004
403.350	17.638	1052.502	784.361
404.365	17.527	1051.771	783.235
405.380	17.572	1051.095	782.873
406.394	17.566	1050.513	782.339
407.409	17.503	1050.251	781.787
408.423	17.827	1049.125	782.365
409.438	17.684	1048.450	781.139
410.453	17.664	1047.744	780.450
411.467	17.750	1047.248	780.407
412.482	17.767	1046.440	779.814
413.496	17.849	1045.397	779.343
414.511	17.752	1045.300	778.759
415.526	17.841	1044.606	778.577
416.540	17.951	1044.333	778.808
417.555	17.783	1044.057	777.765
418.569	17.892	1043.410	777.712
419.584	17.874	1042.641	776.988
420.599	17.915	1042.188	776.770
421.613	109.402	1328.653	1488.627
422.628	100.540	1370.334	1488.680
