DTS Sentinel unit serial number:	SN413079Multiplexer serial number:	ORYXHardware model number:	OX4-SRSoftware version number:	ORYX F/W v4.00 Oryx Data Collector v3.7.2.0data status	okinstallation	princeton_trtdifferential loss correction	single-endedforward channel	channel 2reverse channel	N/Adate	2019/09/10time	18:45:11forward acquisition time	60.00reverse acquisition time	0.00gamma	496.2192k internal	0.2322k external	0.2322temperature offset calibration	0.9942default loss term (dB/km)	0.3790temperature slope calibration	1.0000multiplexer offset coefficient	1.0000multiplexer slope coefficient	1.0000fibre end	0.00T internal ref (°C)	35.19T ext. ref 1 (°C)	-0.31T ext. ref 2 (°C)	27.32length (m)	temperature (°C)	Stokes	anti-Stokes-747.200	80.431	-0.115	0.125
-746.185	-98.218	0.129	0.033
-745.171	-50.229	0.235	0.112
-744.156	-164.166	-0.293	0.014
-743.142	290.786	-0.063	0.115
-742.127	2.058	-0.252	0.183
-741.112	-200.000	0.003	0.090
-740.098	-200.000	-0.024	0.186
-739.083	800.000	0.018	-0.060
-738.069	-127.871	0.208	0.030
-737.054	-91.911	-0.176	-0.050
-736.039	196.363	-0.012	0.018
-735.025	-8.245	0.308	0.209
-734.010	26.770	-0.041	0.035
-732.996	-116.188	0.108	0.020
-731.981	161.892	0.149	-0.211
-730.966	370.312	-0.234	-0.479
-729.952	800.000	-0.119	-0.432
-728.937	28.499	-0.081	-0.069
-727.923	131.494	-0.150	0.195
-726.908	-200.000	0.010	-0.191
-725.894	343.587	-0.164	0.325
-724.879	-200.000	-0.013	-0.067
-723.864	-65.878	0.106	-0.043
-722.850	-8.012	-0.431	-0.294
-721.835	3.036	0.056	0.041
-720.821	-17.717	0.048	-0.030
-719.806	58.435	0.211	-0.209
-718.791	110.243	-0.070	-0.085
-717.777	19.441	0.448	-0.363
-716.762	-32.272	-0.397	0.224
-715.748	-200.000	-0.017	-0.188
-714.733	-200.000	0.007	0.286
-713.718	191.557	0.082	0.125
-712.704	-200.000	0.027	-0.207
-711.689	-200.000	0.044	-0.331
-710.675	-99.237	0.292	-0.074
-709.660	128.130	0.189	0.242
-708.645	-28.810	-0.250	-0.145
-707.631	-135.615	-0.250	-0.030
-706.616	77.149	0.075	-0.081
-705.602	-122.375	0.135	0.022
-704.587	-111.076	0.044	-0.009
-703.572	95.081	0.132	0.151
-702.558	-200.000	0.031	-0.146
-701.543	588.636	-0.072	-0.178
-700.529	-37.980	0.199	0.107
-699.514	800.000	-0.051	0.159
-698.499	-109.409	-0.057	0.012
-697.485	78.213	-0.047	0.050
-696.470	18.254	-0.178	-0.143
-695.456	-70.610	0.095	-0.036
-694.441	4.934	-0.267	0.198
-693.426	-128.620	-0.162	0.023
-692.412	333.725	0.037	0.073
-691.397	-87.251	0.073	-0.022
-690.383	744.320	-0.038	-0.104
-689.368	-63.160	0.220	-0.092
-688.354	-20.057	-0.392	0.244
-687.339	-200.000	0.042	-0.305
-686.324	-34.169	0.170	0.094
-685.310	800.000	0.090	-0.311
-684.295	-200.000	-0.030	-0.155
-683.281	-84.234	-0.244	-0.078
-682.266	-107.791	-0.167	-0.037
-681.251	356.481	-0.193	-0.387
-680.237	-39.819	0.080	-0.042
-679.222	-147.042	-0.299	0.026
-678.208	190.898	0.173	-0.262
-677.193	800.000	0.091	-0.253
-676.178	410.196	0.030	-0.064
-675.164	-140.565	0.323	0.034
-674.149	-180.444	0.242	0.005
-673.135	-81.767	-0.063	-0.021
-672.120	300.788	-0.115	-0.214
-671.105	-60.687	0.239	0.102
-670.091	170.331	0.173	-0.249
-669.076	56.498	0.203	-0.199
-668.062	800.000	-0.017	0.061
-667.047	-200.000	0.007	-0.337
-666.032	-200.000	0.030	-0.275
-665.018	101.070	0.195	-0.229
-664.003	-123.290	-0.199	0.032
-662.989	-63.744	-0.311	0.128
-661.974	-200.000	0.028	0.187
-660.959	30.800	-0.193	-0.166
-659.945	-200.000	-0.025	-0.141
-658.930	-139.046	-0.120	0.013
-657.916	482.567	0.140	0.320
-656.901	-102.539	-0.203	0.049
-655.886	94.274	0.034	0.039
-654.872	14.514	0.320	-0.252
-653.857	8.153	-0.155	0.117
-652.843	256.660	-0.031	-0.054
-651.828	-54.263	0.156	-0.071
-650.814	-9.667	0.097	-0.065
-649.799	36.274	0.121	-0.108
-648.784	-100.878	0.565	0.140
-647.770	-133.910	0.272	-0.034
-646.755	-4.933	-0.223	-0.155
-645.741	111.081	-0.067	0.082
-644.726	44.861	0.332	-0.307
-643.711	-162.839	0.220	-0.011
-642.697	87.941	0.036	0.040
-641.682	800.000	0.042	-0.128
-640.668	85.233	-0.094	-0.104
-639.653	-200.000	0.051	-0.248
-638.638	-37.757	0.031	0.017
-637.624	-200.000	0.004	0.165
-636.609	800.000	-0.067	-0.253
-635.595	40.098	-0.340	0.307
-634.580	440.596	-0.094	0.206
-633.565	-78.477	-0.262	-0.090
-632.551	-40.175	-0.250	-0.131
-631.536	293.059	0.065	-0.120
-630.522	-57.920	-0.234	-0.103
-629.507	59.159	-0.173	-0.171
-628.492	-200.000	0.016	-0.185
-627.478	-69.306	-0.250	0.097
-626.463	-102.848	0.014	-0.003
-625.449	800.000	-0.111	0.428
-624.434	394.517	0.070	-0.147
-623.419	-129.577	0.103	-0.014
-622.405	-106.824	-0.279	-0.062
-621.390	-200.000	-0.077	-0.617
-620.376	155.153	-0.083	0.115
-619.361	-140.697	0.133	0.014
-618.346	-119.225	0.403	-0.071
-617.332	-35.770	-0.304	0.165
-616.317	-200.000	0.013	-0.063
-615.303	-24.569	-0.151	0.090
-614.288	-159.055	-0.117	0.007
-613.273	177.937	-0.126	0.184
-612.259	-52.259	-0.290	0.135
-611.244	-200.000	-0.022	-0.405
-610.230	-200.000	0.016	0.278
-609.215	-91.356	0.146	-0.042
-608.201	122.907	0.138	0.173
-607.186	-140.685	0.150	-0.016
-606.171	-22.194	0.209	0.128
-605.157	282.848	0.122	-0.220
-604.142	-200.000	0.009	0.132
-603.128	97.710	-0.186	-0.215
-602.113	19.688	-0.430	-0.348
-601.098	643.808	0.052	0.134
-600.084	-92.689	-0.144	-0.040
-599.069	800.000	0.058	0.174
-598.055	-200.000	0.029	0.139
-597.040	50.346	-0.072	0.068
-596.025	800.000	0.011	0.031
-595.011	-200.000	-0.002	0.064
-593.996	668.410	-0.024	-0.061
-592.982	-143.423	0.212	-0.020
-591.967	-43.446	0.122	-0.062
-590.952	265.405	0.019	-0.033
-589.938	-48.696	-0.146	0.071
-588.923	-4.531	0.019	0.014
-587.909	-7.969	0.159	-0.108
-586.894	219.795	0.035	0.056
-585.879	48.888	0.290	0.274
-584.865	-154.484	0.333	-0.022
-583.850	160.195	-0.233	0.327
-582.836	-200.000	0.007	0.154
-581.821	-47.588	-0.159	-0.077
-580.806	-17.565	0.253	0.160
-579.792	-200.000	-0.030	-0.143
-578.777	368.505	0.068	0.138
-577.763	-89.865	0.130	-0.038
-576.748	-200.000	-0.041	0.198
-575.733	-37.921	0.178	0.095
-574.719	414.798	-0.067	0.142
-573.704	-90.516	0.049	-0.014
-572.690	86.582	-0.103	0.114
-571.675	-22.923	-0.138	-0.084
-570.661	-75.669	-0.071	-0.025
-569.646	-100.762	-0.169	0.042
-568.631	-107.454	0.418	0.092
-567.617	-69.906	-0.145	-0.055
-566.602	-171.863	-0.132	0.004
-565.588	20.513	0.271	0.220
-564.573	28.829	0.048	-0.041
-563.558	-200.000	0.037	-0.263
-562.544	-82.647	-0.260	0.084
-561.529	583.943	0.043	0.105
-560.515	-73.089	-0.289	-0.106
-559.500	-108.907	-0.213	0.046
-558.485	357.548	0.058	-0.116
-557.471	800.000	-0.040	-0.151
-556.456	-200.000	-0.005	-0.476
-555.442	51.551	-0.142	0.136
-554.427	74.516	0.087	0.092
-553.412	-93.780	0.205	0.057
-552.398	113.326	-0.179	-0.218
-551.383	-200.000	0.012	-0.150
-550.369	-200.000	0.033	-0.153
-549.354	-200.000	-0.002	0.116
-548.339	-200.000	0.006	-0.050
-547.325	54.693	0.125	-0.121
-546.310	-10.902	-0.342	-0.227
-545.296	-166.724	0.193	0.008
-544.281	250.381	-0.084	-0.143
-543.266	-57.132	-0.407	-0.180
-542.252	150.482	0.091	0.123
-541.237	-172.574	0.192	-0.006
-540.223	-117.020	0.309	-0.057
-539.208	-200.000	0.058	-0.446
-538.193	150.490	-0.132	-0.180
-537.179	-92.463	-0.234	0.066
-536.164	-47.523	0.243	0.118
-535.150	-200.000	-0.035	0.244
-534.135	258.191	0.041	-0.071
-533.121	645.946	-0.132	-0.338
-532.106	-200.000	0.024	-0.116
-531.091	800.000	-0.040	-0.163
-530.077	-200.000	0.040	-0.288
-529.062	185.111	0.038	0.057
-528.048	800.000	-0.041	-0.128
-527.033	43.947	0.042	0.038
-526.018	75.847	-0.225	0.239
-525.004	154.789	-0.112	0.154
-523.989	-127.052	0.217	-0.032
-522.975	22.605	0.229	-0.188
-521.960	27.786	-0.048	-0.041
-520.945	-30.163	0.162	0.092
-519.931	-118.761	-0.033	-0.006
-518.916	274.317	0.119	-0.210
-517.902	224.734	-0.132	-0.213
-516.887	-8.929	0.181	0.121
-515.872	-47.795	-0.259	-0.126
-514.858	-76.606	0.080	-0.028
-513.843	800.000	-0.143	-0.458
-512.829	193.412	-0.265	-0.401
-511.814	-99.670	-0.067	-0.017
-510.799	107.440	0.204	0.243
-509.785	-72.726	-0.227	-0.084
-508.770	-200.000	0.024	-0.146
-507.756	44.069	0.161	0.147
-506.741	-200.000	0.028	-0.218
-505.726	-200.000	-0.023	0.122
-504.712	-28.589	-0.214	-0.124
-503.697	-200.000	0.019	-0.239
-502.683	-131.006	-0.254	-0.034
-501.668	-34.452	0.524	0.287
-500.653	-200.000	-0.012	-0.282
-499.639	156.036	0.157	0.217
-498.624	48.293	0.140	-0.131
-497.610	-200.000	-0.005	-0.035
-496.595	-94.428	-0.298	-0.081
-495.581	9.855	0.062	0.047
-494.566	-139.331	0.028	0.003
-493.551	34.790	0.094	0.082
-492.537	-135.308	0.160	0.019
-491.522	-135.821	0.165	0.019
-490.508	-159.830	-0.151	0.008
-489.493	132.395	-0.129	-0.166
-488.478	800.000	0.168	0.486
-487.464	-200.000	0.036	0.235
-486.449	-162.909	-0.085	-0.004
-485.435	24.616	-0.115	-0.095
-484.420	722.990	0.109	0.290
-483.405	293.744	-0.056	0.103
-482.391	-66.318	0.230	0.092
-481.376	-131.956	-0.174	-0.023
-480.362	-96.929	-0.310	0.081
-479.347	27.947	-0.339	-0.286
-478.332	800.000	-0.071	-0.277
-477.318	83.592	-0.147	-0.160
-476.303	108.663	0.026	-0.031
-475.289	800.000	0.052	0.147
-474.274	-200.000	-0.019	0.290
-473.259	-200.000	0.007	0.439
-472.245	-27.466	0.101	-0.058
-471.230	-158.637	-0.287	0.016
-470.216	124.686	-0.314	0.395
-469.201	-200.000	0.048	0.300
-468.186	467.766	0.060	0.135
-467.172	-200.000	0.030	-0.148
-466.157	-123.202	0.152	-0.024
-465.143	76.489	0.064	-0.068
-464.128	-106.242	0.095	0.021
-463.113	-87.971	-0.098	0.029
-462.099	-50.637	0.301	-0.142
-461.084	83.979	0.269	-0.293
-460.070	713.253	-0.065	-0.171
-459.055	148.084	0.184	-0.248
-458.040	-200.000	-0.080	0.395
-457.026	446.344	-0.053	-0.116
-456.011	-131.835	-0.537	0.070
-454.997	-84.817	0.069	0.022
-453.982	-36.870	-0.099	-0.053
-452.968	-189.634	0.192	-0.002
-451.953	-84.235	-0.199	-0.063
-450.938	-47.291	-0.243	-0.118
-449.924	-200.000	0.023	0.249
-448.909	-200.000	-0.056	0.477
-447.895	42.082	0.132	0.119
-446.880	22.799	0.159	0.130
-445.865	145.418	0.341	0.456
-444.851	-200.000	0.020	0.171
-443.836	154.618	-0.111	-0.152
-442.822	800.000	-0.051	-0.157
-441.807	192.193	0.100	0.150
-440.792	-109.804	-0.226	-0.047
-439.778	-33.422	0.225	-0.124
-438.763	78.498	-0.061	-0.065
-437.749	-200.000	0.060	-0.358
-436.734	-200.000	0.002	0.201
-435.719	-87.710	-0.043	-0.013
-434.705	38.652	0.137	0.122
-433.690	-200.000	-0.023	-0.287
-432.676	-200.000	-0.008	-0.201
-431.661	-142.875	-0.237	-0.023
-430.646	117.648	-0.235	0.289
-429.632	-200.000	0.013	-0.221
-428.617	-84.820	-0.153	-0.048
-427.603	-187.881	0.400	0.005
-426.588	-200.000	-0.010	-0.262
-425.573	-200.000	-0.025	-0.118
-424.559	-45.568	0.410	-0.202
-423.544	-200.000	-0.037	0.272
-422.530	-120.437	0.281	-0.048
-421.515	-154.676	-0.331	0.022
-420.500	-55.157	0.052	0.023
-419.486	-34.269	0.211	-0.115
-418.471	-96.070	0.338	-0.090
-417.457	-118.722	-0.548	0.096
-416.442	-139.094	0.305	-0.033
-415.428	173.555	0.152	-0.218
-414.413	-97.595	-0.448	0.116
-413.398	140.716	0.071	-0.094
-412.384	96.714	-0.167	-0.191
-411.369	-200.000	0.026	0.304
-410.355	800.000	0.051	-0.142
-409.340	-126.843	0.152	0.022
-408.325	161.539	0.169	-0.236
-407.311	-200.000	0.036	-0.301
-406.296	-200.000	0.017	0.167
-405.282	111.932	-0.147	-0.177
-404.267	-45.524	0.251	0.124
-403.252	322.951	-0.071	-0.135
-402.238	-200.000	-0.031	0.188
-401.223	18.602	0.096	0.076
-400.209	-170.799	0.195	0.007
-399.194	-136.125	-0.102	-0.012
-398.179	800.000	0.142	0.411
-397.165	-47.073	0.049	-0.024
-396.150	-200.000	-0.006	0.199
-395.136	-148.776	0.215	0.017
-394.121	1.877	0.033	-0.024
-393.106	-195.885	0.293	-0.002
-392.092	-67.756	0.085	0.033
-391.077	-132.412	0.171	0.022
-390.063	-9.105	-0.089	0.059
-389.048	-200.000	-0.042	0.309
-388.033	800.000	-0.140	0.471
-387.019	11.360	-0.160	-0.122
-386.004	800.000	-0.052	-0.166
-384.990	40.336	-0.102	-0.091
-383.975	-200.000	-0.015	0.097
-382.960	-200.000	0.009	0.075
-381.946	-39.794	-0.052	0.027
-380.931	-52.494	-0.182	-0.084
-379.917	227.986	0.146	0.236
-378.902	-96.320	0.184	-0.049
-377.888	-146.644	0.105	0.009
-376.873	800.000	0.060	-0.208
-375.858	115.185	0.041	-0.050
-374.844	800.000	0.057	-0.187
-373.829	-200.000	0.104	0.459
-372.815	30.487	0.085	-0.072
-371.800	800.000	-0.043	-0.164
-370.785	435.561	-0.136	0.295
-369.771	-24.139	-0.334	0.199
-368.756	-179.290	0.128	0.003
-367.742	-116.091	-0.334	0.062
-366.727	-200.000	-0.040	-0.371
-365.712	159.130	-0.208	0.288
-364.698	-37.051	-0.264	0.141
-363.683	234.979	0.067	-0.109
-362.669	800.000	-0.031	-0.098
-361.654	-19.973	0.145	-0.089
-360.639	71.084	0.117	0.121
-359.625	-3.819	-0.048	-0.033
-358.610	-147.253	-0.175	0.015
-357.596	49.486	0.153	-0.143
-356.581	-48.882	-0.148	-0.071
-355.566	-98.084	0.327	0.084
-354.552	6.439	0.145	0.107
-353.537	-47.061	-0.199	-0.097
-352.523	121.245	0.076	-0.094
-351.508	583.633	-0.065	0.159
-350.493	-79.729	0.251	0.084
-349.479	146.120	-0.081	-0.108
-348.464	127.770	-0.061	-0.077
-347.450	383.138	0.069	0.141
-346.435	-76.431	0.334	0.117
-345.420	-132.886	0.208	0.026
-344.406	41.712	-0.180	-0.162
-343.391	437.483	0.068	-0.146
-342.377	800.000	0.113	-0.392
-341.362	423.809	-0.073	-0.155
-340.348	-29.461	0.062	0.035
-339.333	151.729	0.039	0.053
-338.318	800.000	0.095	0.411
-337.304	21.189	-0.210	0.169
-336.289	22.948	0.043	0.035
-335.275	800.000	0.081	-0.239
-334.260	293.436	-0.143	0.259
-333.245	800.000	-0.061	0.222
-332.231	37.496	0.083	0.073
-331.216	-95.076	0.194	-0.052
-330.202	-81.414	0.174	0.057
-329.187	-102.655	0.058	0.014
-328.172	-50.763	0.190	-0.089
-327.158	28.542	0.245	-0.206
-326.143	-38.678	-0.377	-0.198
-325.129	206.981	-0.194	0.300
-324.114	-200.000	-0.025	0.336
-323.099	-101.415	0.155	0.038
-322.085	-59.788	0.128	-0.055
-321.070	800.000	0.036	0.117
-320.056	-102.798	0.340	0.080
-319.041	-129.287	-0.122	-0.017
-318.026	450.995	0.030	-0.065
-317.012	296.690	-0.151	-0.276
-315.997	-1.684	-0.290	0.203
-314.983	660.614	0.060	-0.154
-313.968	254.196	0.185	-0.313
-312.953	136.705	0.191	-0.247
-311.939	800.000	0.105	-0.355
-310.924	-172.935	-0.298	-0.009
-309.910	-200.000	0.003	0.222
-308.895	800.000	-0.063	-0.209
-307.880	37.468	0.155	-0.137
-306.866	67.838	-0.255	0.259
-305.851	620.042	-0.123	0.307
-304.837	-99.049	0.297	0.075
-303.822	61.458	0.224	-0.222
-302.807	-200.000	0.007	-0.285
-301.793	490.957	-0.116	0.264
-300.778	-59.211	0.369	0.158
-299.764	201.524	-0.160	0.244
-298.749	-200.000	-0.007	-0.180
-297.735	-66.885	0.167	0.065
-296.720	800.000	0.094	-0.353
-295.705	38.318	-0.148	-0.131
-294.691	-123.040	-0.163	-0.026
-293.676	-82.049	-0.177	-0.057
-292.662	83.299	0.091	0.099
-291.647	389.005	0.040	0.082
-290.632	-99.007	-0.268	-0.067
-289.618	-69.153	-0.281	-0.107
-288.603	800.000	0.106	0.375
-287.589	28.517	-0.258	0.217
-286.574	144.570	-0.069	-0.091
-285.559	1.754	-0.147	-0.105
-284.545	-76.503	-0.342	0.119
-283.530	36.871	0.204	-0.179
-282.516	-28.425	-0.245	-0.140
-281.501	-143.428	-0.217	-0.021
-280.486	800.000	0.068	-0.209
-279.472	-40.044	0.345	0.178
-278.457	404.175	0.106	0.221
-277.443	-128.915	-0.233	0.032
-276.428	658.648	-0.074	-0.188
-275.413	-81.457	0.180	-0.059
-274.399	89.708	0.090	0.099
-273.384	-13.621	0.180	-0.116
-272.370	89.709	0.104	0.115
-271.355	-40.772	0.240	-0.123
-270.340	-53.294	0.148	0.067
-269.326	8.070	-0.341	-0.254
-268.311	-200.000	-0.018	0.158
-267.297	-78.241	0.319	0.109
-266.282	-200.000	-0.036	0.233
-265.267	170.832	0.184	-0.262
-264.253	-200.000	0.043	0.201
-263.238	606.908	-0.094	-0.232
-262.224	738.739	0.065	-0.172
-261.209	-43.423	0.248	0.124
-260.195	-6.093	-0.140	-0.095
-259.180	79.299	-0.218	0.232
-258.165	-85.457	-0.229	-0.071
-257.151	-106.578	0.210	0.046
-256.136	-123.483	-0.271	0.043
-255.122	800.000	0.074	0.246
-254.107	-115.060	-0.226	0.043
-253.092	-131.324	-0.322	-0.042
-252.078	29.338	0.171	0.144
-251.063	3.575	-0.138	0.100
-250.049	-109.467	-0.087	0.018
-249.034	-200.000	-0.099	0.492
-248.019	58.154	-0.238	-0.231
-247.005	188.155	-0.069	0.101
-245.990	-185.986	0.437	0.006
-244.976	-117.330	0.095	-0.017
-243.961	-200.000	-0.018	0.191
-242.946	800.000	0.059	-0.214
-241.932	-98.379	0.138	0.035
-240.917	83.932	-0.193	-0.209
-239.903	205.677	0.028	-0.043
-238.888	-179.900	-0.077	-0.002
-237.873	-128.756	0.255	-0.036
-236.859	-152.999	-0.187	-0.013
-235.844	131.104	-0.213	-0.270
-234.830	800.000	-0.077	0.241
-233.815	-200.000	0.019	0.131
-232.800	2.894	0.391	-0.281
-231.786	-46.460	0.114	-0.055
-230.771	-200.000	-0.005	0.065
-229.757	128.740	0.055	0.069
-228.742	-200.000	0.019	0.312
-227.727	-200.000	0.001	0.279
-226.713	110.571	0.243	0.290
-225.698	800.000	0.075	0.272
-224.684	-79.750	-0.055	-0.018
-223.669	-200.000	0.002	-0.486
-222.655	-116.324	-0.304	0.056
-221.640	800.000	0.038	0.106
-220.625	-200.000	-0.019	-0.320
-219.611	800.000	0.101	0.373
-218.596	56.120	0.197	0.189
-217.582	334.915	0.121	-0.233
-216.567	800.000	-0.030	0.085
-215.552	36.971	-0.308	0.269
-214.538	-200.000	-0.027	-0.123
-213.523	-69.666	-0.281	0.107
-212.509	-200.000	0.001	0.044
-211.494	-200.000	0.003	-0.123
-210.479	-2.554	0.129	0.089
-209.465	-200.000	-0.008	-0.084
-208.450	800.000	0.069	0.284
-207.436	-91.411	-0.100	0.028
-206.421	340.415	-0.058	0.111
-205.406	-38.909	0.245	-0.128
-204.392	-200.000	-0.007	-0.085
-203.377	-160.591	0.144	0.008
-202.363	327.650	-0.081	0.153
-201.348	-9.992	0.126	0.083
-200.333	-156.511	-0.164	-0.010
-199.319	105.728	-0.147	0.172
-198.304	800.000	0.043	-0.142
-197.290	-200.000	-0.025	-0.403
-196.275	-200.000	0.021	0.111
-195.260	-200.000	0.005	0.222
-194.246	-200.000	0.016	0.092
-193.231	-108.949	-0.186	-0.039
-192.217	126.065	0.204	-0.255
-191.202	-200.000	-0.033	-0.293
-190.187	-0.159	-0.214	-0.151
-189.173	497.114	0.058	-0.132
-188.158	-29.557	-0.266	0.150
-187.144	13.356	0.125	-0.096
-186.129	-200.000	-0.055	0.272
-185.114	-200.000	-0.036	-0.388
-184.100	800.000	0.026	0.084
-183.085	-73.842	0.201	0.072
-182.071	87.710	-0.175	0.192
-181.056	-75.543	-0.285	0.100
-180.042	68.728	0.178	-0.181
-179.027	-200.000	-0.003	-0.062
-178.012	-28.368	0.123	0.070
-176.998	800.000	0.044	0.179
-175.983	-200.000	0.035	0.359
-174.969	615.791	-0.211	0.523
-173.954	733.383	0.094	-0.248
-172.939	330.447	0.148	0.282
-171.925	-142.290	0.366	0.036
-170.910	800.000	-0.072	-0.274
-169.896	37.329	-0.171	-0.150
-168.881	-200.000	-0.024	-0.306
-167.866	32.251	0.066	-0.057
-166.852	-90.256	0.320	-0.092
-165.837	89.319	-0.134	-0.148
-164.823	591.370	0.119	0.290
-163.808	800.000	-0.148	-0.479
-162.793	94.547	0.166	0.186
-161.779	-200.000	-0.008	-0.295
-160.764	265.012	0.036	-0.062
-159.750	115.823	0.133	0.160
-158.735	-78.181	0.044	-0.015
-157.720	22.687	0.201	0.163
-156.706	-145.452	-0.364	0.032
-155.691	-200.000	0.014	0.098
-154.677	2.551	-0.473	-0.338
-153.662	-28.479	-0.193	0.110
-152.647	52.206	0.131	0.124
-151.633	9.361	-0.383	0.286
-150.618	-24.625	0.138	0.081
-149.604	140.909	-0.105	-0.137
-148.589	-200.000	-0.009	0.275
-147.574	73.845	-0.102	-0.106
-146.560	74.678	0.045	-0.047
-145.545	-21.026	-0.029	0.018
-144.531	-151.245	-0.163	0.012
-143.516	-54.897	-0.161	0.071
-142.502	-153.202	-0.305	0.021
-141.487	-200.000	0.003	0.031
-140.472	-117.178	0.302	0.054
-139.458	245.404	0.101	0.168
-138.443	155.112	-0.159	0.215
-137.429	28.245	0.238	-0.198
-136.414	76.076	0.053	-0.055
-135.399	-150.877	-0.244	0.018
-134.385	-102.840	-0.116	0.027
-133.370	-130.892	0.396	0.052
-132.356	75.162	-0.146	-0.152
-131.341	73.459	-0.247	-0.255
-130.326	7.937	0.122	0.090
-129.312	400.531	-0.119	-0.246
-128.297	374.232	-0.030	-0.060
-127.283	409.810	0.065	-0.135
-126.268	-179.731	-0.041	-0.001
-125.253	-111.012	0.144	-0.029
-124.239	88.672	-0.317	0.347
-123.224	800.000	0.048	-0.138
-122.210	143.272	-0.155	0.203
-121.195	800.000	0.070	-0.241
-120.180	5.036	-0.229	0.166
-119.166	800.000	0.075	-0.216
-118.151	-66.631	0.099	-0.039
-117.137	-43.764	0.148	0.073
-116.122	-156.588	0.157	-0.010
-115.107	-141.295	0.132	0.013
-114.093	106.454	-0.158	0.185
-113.078	-106.982	0.365	-0.080
-112.064	-122.366	-0.151	0.024
-111.049	-200.000	-0.002	-0.111
-110.034	-113.188	0.100	0.019
-109.020	11.793	-0.226	0.171
-108.005	800.000	0.016	-0.062
-106.991	-65.175	-0.105	-0.042
-105.976	-134.369	-0.236	-0.028
-104.962	154.215	0.104	0.141
-103.947	120.546	-0.180	0.220
-102.932	-42.951	-0.142	0.071
-101.918	116.687	0.118	-0.143
-100.903	384.163	0.154	-0.312
-99.889	598.983	-0.070	0.171
-98.874	-200.000	0.014	-0.253
-97.859	6.821	0.134	-0.098
-96.845	800.000	0.118	-0.370
-95.830	-130.228	0.088	-0.012
-94.816	800.000	0.080	-0.263
-93.801	451.714	0.053	0.116
-92.786	-200.000	-0.066	0.350
-91.772	3.915	-0.083	0.060
-90.757	-23.552	0.392	0.232
-89.743	-200.000	0.011	0.334
-88.728	-200.000	0.019	0.087
-87.713	-9.946	0.131	0.086
-86.699	-200.000	0.008	-0.155
-85.684	82.403	0.030	0.032
-84.670	191.109	0.119	0.177
-83.655	123.908	-0.096	-0.118
-82.640	103.280	-0.093	-0.108
-81.626	-200.000	0.020	-0.172
-80.611	438.794	-0.037	0.080
-79.597	148.000	0.021	-0.028
-78.582	-24.281	-0.390	0.229
-77.567	385.293	0.037	-0.074
-76.553	235.747	0.104	-0.170
-75.538	172.002	-0.047	-0.066
-74.524	-200.000	0.051	-0.386
-73.509	20.821	0.114	0.091
-72.494	-52.996	0.240	-0.108
-71.480	478.895	0.099	-0.222
-70.465	95.512	-0.120	-0.135
-69.451	800.000	-0.161	-0.448
-68.436	-72.590	0.158	0.057
-67.422	93.594	0.227	-0.253
-66.407	37.351	0.145	0.126
-65.392	-38.298	0.336	-0.175
-64.378	-157.137	-0.156	0.009
-63.363	525.105	-0.067	-0.154
-62.349	249.169	-0.081	0.136
-61.334	73.978	-1.003	-1.034
-60.319	10.044	0.439	0.328
-59.305	568.559	-0.332	-0.794
-58.290	179.036	0.686	0.986
-57.276	493.380	0.586	1.322
-56.261	-200.000	98.680	560.742
-55.246	604.370	1399.721	3426.037
-54.232	183.776	2639.265	3838.476
-53.217	115.359	2319.318	2785.881
-52.203	44.956	1929.596	1746.976
-51.188	38.687	1713.870	1503.701
-50.173	35.686	1669.158	1441.942
-49.159	52.564	1718.949	1613.816
-48.144	56.095	1735.974	1656.582
-47.130	38.170	1691.479	1479.898
-46.115	35.297	1676.079	1444.757
-45.100	35.058	1671.281	1438.774
-44.086	34.984	1668.477	1435.741
-43.071	35.046	1665.782	1433.830
-42.057	35.014	1663.484	1431.562
-41.042	35.000	1661.528	1429.711
-40.027	35.005	1660.228	1428.576
-39.013	35.003	1657.858	1426.464
-37.998	34.999	1656.599	1425.296
-36.984	35.036	1655.273	1424.373
-35.969	35.246	1653.420	1424.282
-34.954	35.284	1651.303	1422.689
-33.940	35.186	1649.910	1420.701
-32.925	35.174	1648.034	1418.939
-31.911	35.170	1646.466	1417.505
-30.896	35.233	1644.532	1416.249
-29.881	35.175	1643.143	1414.569
-28.867	35.127	1641.845	1413.042
-27.852	35.146	1640.701	1412.141
-26.838	35.154	1638.691	1410.411
-25.823	35.104	1637.075	1408.596
-24.809	35.244	1635.384	1408.119
-23.794	35.272	1634.233	1407.275
-22.779	35.199	1632.568	1405.252
-21.765	35.271	1631.323	1404.654
-20.750	35.208	1629.364	1402.448
-19.736	35.275	1627.564	1401.330
-18.721	35.302	1626.218	1400.316
-17.706	35.240	1624.808	1398.596
-16.692	35.153	1623.735	1396.981
-15.677	35.176	1622.653	1396.163
-14.663	35.289	1620.044	1394.685
-13.648	35.288	1619.105	1393.809
-12.633	35.148	1618.088	1391.861
-11.619	35.241	1616.269	1390.919
-10.604	35.266	1614.399	1389.438
-9.590	35.197	1613.456	1388.068
-8.575	35.269	1612.426	1387.646
-7.560	35.059	1611.703	1385.453
-6.546	35.266	1609.720	1385.185
-5.531	35.218	1608.595	1383.817
-4.517	35.211	1607.570	1382.834
-3.502	35.248	1606.030	1381.720
-2.487	35.362	1604.380	1381.064
-1.473	34.845	1592.211	1366.836
-0.458	31.429	1571.324	1324.700
0.556	24.693	1569.775	1284.888
1.571	21.893	1593.270	1283.546
2.586	21.323	1607.210	1290.455
3.600	19.208	1554.977	1233.279
4.615	10.394	1442.641	1085.287
5.629	1.666	1373.908	977.610
6.644	-0.139	1364.916	959.607
7.659	-0.326	1363.453	957.297
8.673	-0.393	1362.205	955.908
9.688	-0.372	1360.052	954.448
10.702	-0.686	1357.399	950.509
11.717	2.724	1363.642	976.528
12.731	12.055	1381.351	1049.080
13.746	18.086	1391.473	1095.443
14.761	18.457	1390.998	1097.342
15.775	18.494	1390.383	1097.000
16.790	18.575	1389.747	1096.922
17.804	18.561	1389.081	1096.207
18.819	18.744	1388.994	1097.208
19.834	18.834	1388.022	1096.918
20.848	18.763	1387.689	1096.106
21.863	18.730	1386.359	1094.750
22.877	18.748	1385.942	1094.440
23.892	18.754	1384.764	1093.450
24.907	18.783	1384.188	1093.079
25.921	18.899	1383.019	1092.801
26.936	18.860	1382.125	1091.747
27.950	18.863	1380.840	1090.656
28.965	18.866	1379.365	1089.413
29.980	18.757	1378.598	1088.023
30.994	18.789	1377.288	1087.093
32.009	18.793	1376.074	1086.062
33.023	18.766	1375.038	1084.979
34.038	18.839	1373.258	1083.940
35.053	18.803	1372.429	1082.960
36.067	18.815	1371.122	1081.911
37.082	18.762	1370.515	1081.001
38.096	18.772	1369.635	1080.275
39.111	18.772	1368.664	1079.412
40.126	18.843	1368.102	1079.323
41.140	18.776	1367.619	1078.424
42.155	18.889	1366.807	1078.396
43.169	18.748	1367.031	1077.595
44.184	18.849	1366.470	1077.691
45.199	18.764	1366.554	1077.127
46.213	18.872	1365.682	1077.023
47.228	18.920	1364.277	1076.120
48.242	18.918	1363.331	1075.263
49.257	18.812	1361.898	1073.377
50.271	18.846	1360.539	1072.427
51.286	18.844	1359.281	1071.327
52.301	18.820	1357.916	1070.004
53.315	18.730	1357.156	1068.751
54.330	18.790	1356.493	1068.508
55.344	18.856	1354.853	1067.533
56.359	18.811	1354.242	1066.677
57.374	18.812	1353.123	1065.709
58.388	18.850	1352.319	1065.215
59.403	18.759	1352.175	1064.440
60.417	18.792	1351.243	1063.817
61.432	18.760	1350.433	1062.887
62.447	18.812	1349.171	1062.126
63.461	18.821	1348.008	1061.172
64.476	18.903	1347.252	1060.987
65.490	18.954	1345.570	1059.881
66.505	18.802	1344.624	1058.108
67.520	18.770	1343.209	1056.702
68.534	18.916	1341.613	1056.254
69.549	18.810	1341.075	1055.081
70.563	18.873	1339.672	1054.271
71.578	18.949	1338.735	1053.908
72.593	18.767	1338.816	1052.762
73.607	18.796	1337.664	1051.942
74.622	18.798	1336.769	1051.154
75.636	18.772	1335.926	1050.241
76.651	18.799	1334.855	1049.471
77.666	18.773	1334.604	1049.022
78.680	18.799	1334.153	1048.734
79.695	18.829	1332.995	1047.917
80.709	18.843	1332.135	1047.233
81.724	18.803	1331.346	1046.273
82.739	18.818	1329.952	1045.175
83.753	18.856	1329.034	1044.597
84.768	18.926	1327.782	1043.942
85.782	18.784	1326.898	1042.293
86.797	18.804	1325.478	1041.210
87.812	18.887	1324.469	1040.825
88.826	18.955	1323.238	1040.180
89.841	18.854	1322.213	1038.668
90.855	18.971	1321.059	1038.379
91.870	18.928	1320.109	1037.277
92.884	18.936	1319.463	1036.731
93.899	18.801	1318.928	1035.404
94.914	18.866	1318.123	1035.070
95.928	18.906	1317.333	1034.597
96.943	18.931	1316.129	1033.713
97.957	18.901	1315.397	1032.867
98.972	18.822	1314.944	1031.947
99.987	18.879	1313.427	1031.008
101.001	18.861	1312.370	1029.974
102.016	18.953	1310.877	1029.263
103.030	18.928	1310.072	1028.393
104.045	18.974	1309.339	1027.999
105.060	18.982	1308.056	1026.951
106.074	18.898	1306.924	1025.470
107.089	18.900	1305.953	1024.627
108.103	18.833	1304.788	1023.224
109.118	18.933	1303.250	1022.524
110.133	18.960	1302.212	1021.780
111.147	19.000	1300.993	1020.968
112.162	19.006	1299.478	1019.725
113.176	18.905	1298.336	1018.143
114.191	19.043	1297.519	1018.226
115.206	19.022	1296.113	1016.911
116.220	18.906	1295.264	1015.468
117.235	18.827	1294.377	1014.217
118.249	18.895	1293.054	1013.488
119.264	18.984	1291.911	1013.026
120.279	18.948	1291.487	1012.397
121.293	18.995	1290.661	1011.931
122.308	19.062	1289.204	1011.098
123.322	19.053	1287.989	1010.004
124.337	18.943	1287.175	1008.627
125.352	19.023	1286.032	1008.111
126.366	19.073	1284.668	1007.248
127.381	19.095	1283.991	1006.753
128.395	19.097	1282.839	1005.772
129.410	19.010	1282.019	1004.537
130.424	19.010	1281.464	1004.011
131.439	19.024	1280.467	1003.225
132.454	18.975	1279.551	1002.131
133.468	19.047	1278.682	1001.783
134.483	18.987	1278.257	1001.010
135.497	19.010	1277.255	1000.271
136.512	19.010	1275.768	999.014
137.527	18.947	1274.877	997.864
138.541	19.079	1272.655	996.802
139.556	19.073	1271.562	995.824
140.570	19.022	1270.741	994.795
141.585	18.930	1269.706	993.366
142.600	18.962	1268.276	992.344
143.614	19.032	1267.258	991.867
144.629	18.935	1266.597	990.704
145.643	18.905	1264.997	989.187
146.658	18.890	1264.077	988.295
147.673	18.965	1262.959	987.765
148.687	18.921	1262.266	986.883
149.702	18.870	1260.997	985.509
150.716	18.930	1259.977	984.969
151.731	19.017	1258.563	984.274
152.746	18.961	1257.842	983.308
153.760	19.018	1256.078	982.162
154.775	19.032	1255.334	981.574
155.789	18.911	1254.945	980.492
156.804	18.936	1254.051	979.853
157.819	18.887	1253.011	978.674
158.833	19.003	1251.781	978.284
159.848	19.043	1250.868	977.716
160.862	19.046	1249.844	976.844
161.877	19.138	1249.388	976.924
162.892	19.062	1248.321	975.574
163.906	19.096	1247.588	975.105
164.921	19.015	1247.164	974.229
165.935	19.153	1246.110	974.100
166.950	19.101	1245.146	972.965
167.964	19.020	1245.254	972.505
168.979	19.151	1244.248	972.377
169.994	19.108	1243.613	971.550
171.008	19.227	1242.590	971.333
172.023	19.269	1241.988	971.013
173.037	19.123	1241.264	969.543
174.052	19.084	1240.546	968.673
175.067	19.167	1239.401	968.163
176.081	19.216	1238.444	967.606
177.096	19.135	1237.979	966.699
178.110	19.114	1237.280	965.954
179.125	19.198	1236.336	965.598
180.140	19.136	1235.225	964.297
181.154	19.114	1233.864	963.026
182.169	19.130	1232.954	962.324
183.183	19.116	1231.917	961.348
184.198	19.076	1230.746	960.130
185.213	19.214	1229.925	960.173
186.227	19.246	1228.780	959.373
187.242	19.154	1228.102	958.245
188.256	19.198	1227.023	957.565
189.271	19.221	1226.600	957.277
190.286	19.225	1225.035	955.994
191.300	19.207	1224.826	955.646
192.315	19.200	1224.561	955.312
193.329	19.124	1224.411	954.691
194.344	19.166	1223.889	954.435
195.359	19.224	1223.291	954.204
196.373	19.160	1222.559	953.195
197.388	19.065	1222.198	952.300
198.402	19.137	1221.855	952.348
199.417	19.119	1220.876	951.402
200.432	19.235	1220.544	951.697
201.446	19.182	1219.530	950.532
202.461	19.106	1219.097	949.694
203.475	19.104	1218.302	948.979
204.490	19.255	1216.776	948.536
205.504	19.213	1215.966	947.591
206.519	19.300	1214.837	947.103
207.534	19.229	1214.188	946.122
208.548	19.300	1213.170	945.634
209.563	19.179	1212.577	944.426
210.577	19.258	1211.298	943.781
211.592	19.262	1210.630	943.196
212.607	19.270	1209.819	942.525
213.621	19.342	1208.984	942.187
214.636	19.149	1208.683	940.814
215.650	19.307	1207.595	940.746
216.665	19.226	1206.706	939.528
217.680	19.316	1205.490	938.991
218.694	19.357	1204.627	938.459
219.709	19.353	1204.241	938.052
220.723	19.333	1203.507	937.290
221.738	19.236	1202.443	935.846
222.753	19.168	1202.228	935.228
223.767	19.301	1201.673	935.437
224.782	19.395	1200.972	935.321
225.796	19.391	1200.323	934.709
226.811	19.507	1199.548	934.652
227.826	19.355	1198.976	933.298
228.840	19.314	1198.726	932.799
229.855	19.409	1197.706	932.437
230.869	19.467	1197.000	932.122
231.884	19.411	1196.022	930.974
232.899	19.480	1195.126	930.567
233.913	19.420	1194.794	929.899
234.928	19.520	1194.280	929.956
235.942	19.486	1193.874	929.375
236.957	19.441	1193.252	928.565
237.972	19.439	1192.749	928.082
238.986	19.589	1191.630	927.938
240.001	19.467	1191.428	927.041
241.015	19.485	1190.349	926.215
242.030	19.460	1189.441	925.292
243.045	19.630	1188.855	925.665
244.059	19.557	1188.001	924.526
245.074	19.505	1187.802	924.012
246.088	19.533	1186.680	923.207
247.103	19.632	1185.787	922.962
248.117	19.485	1185.289	921.709
249.132	19.534	1184.592	921.345
250.147	19.568	1183.488	920.585
251.161	19.589	1182.478	919.830
252.176	19.555	1182.536	919.616
253.190	19.703	1181.599	919.592
254.205	19.626	1180.881	918.542
255.220	19.590	1180.173	917.716
256.234	19.522	1179.778	916.971
257.249	19.688	1179.021	917.178
258.263	19.607	1178.451	916.228
259.278	19.717	1177.844	916.258
260.293	19.705	1177.543	915.877
261.307	19.672	1176.853	915.085
262.322	19.549	1176.363	913.973
263.336	19.680	1175.523	913.930
264.351	19.602	1175.222	913.205
265.366	19.701	1173.981	912.682
266.380	19.642	1173.830	912.170
267.395	19.671	1172.864	911.492
268.409	19.513	1172.740	910.482
269.424	19.728	1171.618	910.665
270.439	19.790	1170.703	910.196
271.453	19.705	1170.473	909.490
272.468	19.652	1169.587	908.445
273.482	19.674	1169.062	908.069
274.497	19.893	1168.386	908.615
275.512	19.779	1167.868	907.533
276.526	19.742	1167.182	906.727
277.541	19.767	1166.511	906.257
278.555	19.806	1165.842	905.863
279.570	19.762	1165.163	905.025
280.585	19.730	1164.254	904.072
281.599	19.828	1162.979	903.511
282.614	19.788	1162.536	902.878
283.628	19.823	1161.319	902.036
284.643	19.846	1160.577	901.497
285.657	19.884	1159.500	900.780
286.672	19.785	1159.013	899.807
287.687	20.009	1157.894	900.022
288.701	19.922	1157.381	899.096
289.716	19.899	1157.189	898.743
290.730	19.914	1156.523	898.228
291.745	19.990	1155.719	897.917
292.760	19.910	1154.395	896.396
293.774	19.978	1154.203	896.517
294.789	19.978	1153.451	895.856
295.803	19.992	1153.122	895.594
296.818	19.988	1151.911	894.554
297.833	19.960	1151.602	894.089
298.847	19.882	1151.388	893.441
299.862	20.077	1150.158	893.410
300.876	19.966	1149.598	892.324
301.891	19.999	1149.078	892.012
302.906	20.093	1148.485	891.957
303.920	20.126	1147.817	891.528
304.935	20.085	1147.229	890.786
305.949	20.035	1146.397	889.801
306.964	20.097	1145.636	889.450
307.979	20.185	1145.080	889.393
308.993	20.149	1144.160	888.415
310.008	20.125	1143.708	887.863
311.022	20.118	1142.682	886.951
312.037	20.103	1142.184	886.407
313.052	20.136	1141.327	885.832
314.066	20.111	1140.274	884.810
315.081	20.111	1139.705	884.292
316.095	20.082	1139.071	883.573
317.110	20.110	1138.406	883.121
318.125	20.145	1137.886	882.817
319.139	20.275	1136.834	882.583
320.154	20.070	1136.470	881.180
321.168	20.132	1136.322	881.305
322.183	20.149	1135.555	880.716
323.197	20.155	1134.765	880.058
324.212	20.244	1133.812	879.695
325.227	20.116	1133.937	879.064
326.241	20.235	1133.309	879.102
327.256	20.286	1132.375	878.557
328.270	20.127	1131.435	876.945
329.285	20.212	1130.808	876.811
330.300	20.192	1129.590	875.688
331.314	20.199	1129.345	875.457
332.329	20.261	1128.157	874.770
333.343	20.355	1127.161	874.397
334.358	20.229	1126.943	873.515
335.373	20.418	1126.030	873.681
336.387	20.290	1125.613	872.636
337.402	20.367	1124.605	872.161
338.416	20.434	1123.798	871.794
339.431	20.378	1123.282	871.039
340.446	20.468	1122.386	870.715
341.460	20.397	1121.961	869.954
342.475	20.421	1121.135	869.359
343.489	20.399	1120.411	868.607
344.504	20.548	1119.193	868.334
345.519	20.442	1118.496	867.184
346.533	20.464	1118.097	866.909
347.548	20.458	1116.980	865.938
348.562	20.416	1116.366	865.173
349.577	20.351	1115.892	864.406
350.592	20.473	1114.859	864.136
351.606	20.486	1114.108	863.542
352.621	20.597	1114.075	863.995
353.635	20.497	1113.170	862.718
354.650	20.540	1112.551	862.374
355.665	20.416	1112.093	861.328
356.679	20.596	1111.104	861.381
357.694	20.669	1110.449	861.156
358.708	20.678	1109.890	860.689
359.723	20.605	1109.147	859.678
360.738	20.621	1108.610	859.267
361.752	20.673	1108.263	859.177
362.767	20.604	1107.648	858.284
363.781	20.756	1106.972	858.434
364.796	20.666	1106.744	857.737
365.810	20.600	1106.048	856.796
366.825	20.727	1105.143	856.644
367.840	20.732	1104.680	856.234
368.854	20.794	1104.038	855.967
369.869	20.675	1103.522	854.905
370.883	20.840	1102.462	854.816
371.898	20.879	1101.656	854.309
372.913	20.799	1100.978	853.317
373.927	20.706	1101.037	852.830
374.942	20.825	1100.493	852.915
375.956	20.777	1099.931	852.171
376.971	20.765	1099.156	851.435
377.986	20.839	1099.121	851.696
379.000	20.858	1098.390	851.144
380.015	20.809	1097.700	850.295
381.029	20.868	1096.756	849.778
382.044	20.777	1096.370	848.958
383.059	20.961	1095.523	849.127
384.073	20.812	1095.084	847.984
385.088	20.884	1093.935	847.368
386.102	20.897	1093.102	846.714
387.117	20.919	1092.176	846.029
388.132	20.896	1091.293	845.158
389.146	20.855	1090.739	844.456
390.161	20.841	1090.305	843.975
391.175	20.898	1089.808	843.793
392.190	20.978	1088.921	843.416
393.205	20.958	1087.716	842.314
394.219	20.968	1087.004	841.737
395.234	21.021	1086.556	841.572
396.248	20.963	1085.444	840.353
397.263	21.142	1084.397	840.333
398.278	20.936	1083.990	838.949
399.292	21.051	1083.420	838.988
400.307	21.198	1082.100	838.596
401.321	21.040	1082.185	837.833
402.336	20.995	1081.561	837.058
403.350	21.016	1080.898	836.573
404.365	21.019	1079.971	835.796
405.380	21.085	1079.064	835.332
406.394	21.195	1078.595	835.424
407.409	21.192	1077.486	834.478
408.423	21.141	1077.139	833.888
409.438	21.201	1076.074	833.280
410.453	21.275	1075.395	833.031
411.467	21.234	1074.885	832.369
412.482	21.330	1073.923	832.005
413.496	21.126	1073.723	830.805
414.511	21.177	1072.903	830.342
415.526	21.214	1072.481	830.114
416.540	21.186	1072.380	829.831
417.555	21.217	1071.341	829.102
418.569	21.255	1070.496	828.556
419.584	21.314	1070.501	828.766
420.599	21.248	1070.438	828.330
421.613	147.604	1395.260	1790.976
422.628	136.087	1442.551	1791.076
