DTS Sentinel unit serial number:	SN413079Multiplexer serial number:	ORYXHardware model number:	OX4-SRSoftware version number:	ORYX F/W v4.00 Oryx Data Collector v3.7.2.0data status	okinstallation	princeton_trtdifferential loss correction	single-endedforward channel	channel 2reverse channel	N/Adate	2019/09/19time	12:27:35forward acquisition time	60.00reverse acquisition time	0.00gamma	496.2192k internal	0.2335k external	0.2335temperature offset calibration	1.0016default loss term (dB/km)	0.3790temperature slope calibration	1.0000multiplexer offset coefficient	1.0000multiplexer slope coefficient	1.0000fibre end	0.00T internal ref (°C)	26.94T ext. ref 1 (°C)	0.86T ext. ref 2 (°C)	24.35length (m)	temperature (°C)	Stokes	anti-Stokes-747.200	158.257	0.036	0.050
-746.185	800.000	0.076	0.215
-745.171	113.906	0.144	-0.176
-744.156	19.075	-0.138	0.111
-743.142	-200.000	-0.007	-0.183
-742.127	800.000	-0.163	0.508
-741.112	800.000	0.023	-0.069
-740.098	290.390	-0.022	0.040
-739.083	-200.000	0.004	0.131
-738.069	155.570	-0.156	0.216
-737.054	-200.000	-0.024	-0.224
-736.039	-200.000	-0.017	-0.271
-735.025	68.597	0.179	-0.185
-734.010	172.049	-0.186	0.269
-732.996	-129.709	-0.186	0.026
-731.981	-200.000	-0.014	0.409
-730.966	-200.000	-0.010	-0.244
-729.952	-200.000	0.038	0.305
-728.937	104.329	-0.193	-0.228
-727.923	-75.000	-0.263	-0.094
-726.908	-77.200	-0.261	-0.091
-725.894	-17.065	-0.243	0.154
-724.879	-200.000	0.015	-0.109
-723.864	93.769	0.232	0.264
-722.850	-62.794	-0.206	0.086
-721.835	-22.961	-0.260	-0.157
-720.821	415.829	-0.189	-0.404
-719.806	-145.280	0.189	-0.017
-718.791	-101.899	-0.111	-0.027
-717.777	33.769	-0.213	-0.186
-716.762	800.000	-0.039	0.158
-715.748	145.212	-0.093	-0.125
-714.733	-200.000	0.029	-0.132
-713.718	178.773	0.067	0.099
-712.704	-71.388	-0.086	0.032
-711.689	-103.423	0.339	-0.080
-710.675	800.000	-0.141	0.435
-709.660	116.304	-0.267	-0.329
-708.645	-146.443	0.256	0.022
-707.631	114.311	-0.270	0.330
-706.616	-200.000	-0.011	0.168
-705.602	-200.000	-0.056	0.298
-704.587	-200.000	0.030	-0.211
-703.572	-105.037	0.059	0.014
-702.558	-98.180	0.398	-0.102
-701.543	-85.127	-0.092	0.029
-700.529	-200.000	-0.025	-0.340
-699.514	-81.267	0.402	0.133
-698.499	32.094	0.040	-0.035
-697.485	3.362	0.147	0.107
-696.470	93.403	0.199	-0.225
-695.456	-40.724	-0.230	0.120
-694.441	-34.385	-0.046	0.025
-693.426	-60.177	0.037	-0.016
-692.412	800.000	0.009	-0.037
-691.397	105.248	0.100	-0.119
-690.383	-28.751	0.320	-0.185
-689.368	-200.000	-0.006	-0.182
-688.354	-14.596	-0.075	-0.048
-687.339	-31.533	-0.232	-0.131
-686.324	-200.000	-0.027	0.277
-685.310	-200.000	0.046	-0.288
-684.295	-64.313	0.128	0.052
-683.281	129.868	0.096	-0.124
-682.266	352.497	-0.097	0.193
-681.251	209.460	0.116	0.183
-680.237	-200.000	-0.018	0.317
-679.222	-200.000	-0.021	-0.233
-678.208	-52.197	0.066	-0.031
-677.193	-14.649	-0.128	0.082
-676.178	64.829	0.242	0.245
-675.164	-102.818	-0.321	-0.077
-674.149	-109.774	-0.255	-0.054
-673.135	68.528	-0.236	-0.243
-672.120	-75.505	-0.168	-0.060
-671.105	33.229	-0.070	-0.060
-670.091	181.482	0.067	0.099
-669.076	800.000	0.079	0.262
-668.062	697.771	0.089	0.234
-667.047	286.641	0.096	-0.174
-666.032	-200.000	0.027	0.188
-665.018	107.216	-0.141	0.168
-664.003	-200.000	0.040	-0.242
-662.989	-139.964	0.153	0.016
-661.974	800.000	-0.064	-0.207
-660.959	18.811	0.300	-0.240
-659.945	-184.999	0.141	0.002
-658.930	185.221	-0.023	0.034
-657.916	800.000	0.041	0.150
-656.901	282.168	0.036	-0.065
-655.886	758.944	0.146	-0.397
-654.872	452.246	-0.198	0.437
-653.857	365.100	0.053	0.108
-652.843	34.844	-0.209	-0.183
-651.828	-102.906	-0.074	0.018
-650.814	339.015	-0.121	0.236
-649.799	32.819	0.219	-0.190
-648.784	800.000	0.038	-0.140
-647.770	8.498	-0.073	-0.055
-646.755	346.445	-0.179	0.352
-645.741	-171.304	0.203	0.007
-644.726	14.524	-0.301	-0.235
-643.711	-88.011	0.198	-0.060
-642.697	-200.000	0.012	-0.055
-641.682	267.738	-0.032	0.056
-640.668	-200.000	-0.026	-0.219
-639.653	800.000	-0.035	-0.102
-638.638	-40.875	0.221	0.114
-637.624	24.265	-0.150	-0.124
-636.609	-109.800	0.454	-0.095
-635.595	115.944	-0.061	0.074
-634.580	0.781	0.304	-0.218
-633.565	16.280	0.311	-0.245
-632.551	257.104	-0.082	0.141
-631.536	-137.569	-0.242	0.027
-630.522	-49.319	-0.133	-0.064
-629.507	40.217	-0.275	0.247
-628.492	38.928	0.288	0.257
-627.478	-15.280	-0.446	0.285
-626.463	-38.663	-0.031	0.016
-625.449	141.025	-0.046	0.061
-624.434	-39.056	0.169	-0.089
-623.419	785.234	0.107	-0.294
-622.405	352.419	-0.048	0.095
-621.390	-30.809	0.154	-0.087
-620.376	-136.152	-0.091	0.011
-619.361	-162.417	0.254	-0.013
-618.346	-177.589	0.159	0.004
-617.332	73.570	0.194	0.203
-616.317	52.531	-0.138	-0.132
-615.303	154.990	-0.109	0.150
-614.288	128.437	0.080	-0.101
-613.273	82.410	0.062	-0.067
-612.259	800.000	-0.017	0.053
-611.244	459.474	-0.126	0.281
-610.230	-45.976	-0.110	-0.054
-609.215	-200.000	0.007	-0.056
-608.201	23.915	-0.034	0.028
-607.186	337.157	-0.032	0.063
-606.171	10.642	0.200	-0.152
-605.157	-108.706	0.294	0.063
-604.142	-200.000	0.038	0.426
-603.128	-66.949	-0.440	0.174
-602.113	188.243	-0.094	-0.140
-601.098	-0.297	0.151	-0.107
-600.084	84.335	0.118	0.129
-599.069	42.161	-0.306	-0.277
-598.055	126.547	0.100	0.127
-597.040	81.402	-0.159	0.172
-596.025	38.415	0.045	0.040
-595.011	-192.995	0.100	-0.001
-593.996	210.378	0.100	0.156
-592.982	800.000	0.055	-0.223
-591.967	-20.822	0.186	-0.114
-590.952	-122.428	-0.057	-0.009
-589.938	-134.866	0.050	-0.006
-588.923	470.856	-0.044	0.099
-587.909	-94.670	-0.343	-0.093
-586.894	-71.283	-0.132	-0.049
-585.879	-200.000	0.044	-0.208
-584.865	-110.702	-0.184	0.038
-583.850	-200.000	0.010	-0.271
-582.836	490.782	-0.064	0.147
-581.821	-65.692	0.326	0.130
-580.806	51.179	-0.189	-0.179
-579.792	-200.000	-0.030	-0.354
-578.777	800.000	-0.041	-0.158
-577.763	-36.715	0.214	-0.115
-576.748	-58.058	-0.261	0.114
-575.733	137.563	0.079	0.103
-574.719	-152.420	0.194	-0.014
-573.704	81.419	-0.084	-0.090
-572.690	227.493	-0.145	-0.235
-571.675	-20.310	0.303	0.186
-570.661	-90.414	-0.178	0.051
-569.646	225.325	-0.100	0.161
-568.631	-0.549	-0.091	-0.065
-567.617	234.998	-0.206	-0.339
-566.602	166.621	0.040	0.056
-565.588	185.370	-0.174	0.258
-564.573	-92.543	-0.286	-0.080
-563.558	-90.235	-0.195	0.057
-562.544	106.383	-0.132	-0.156
-561.529	800.000	-0.145	0.512
-560.515	-200.000	0.013	0.276
-559.500	31.713	-0.090	0.078
-558.485	800.000	0.163	0.463
-557.471	-119.616	0.151	0.026
-556.456	-163.482	0.113	-0.005
-555.442	52.353	-0.227	0.216
-554.427	-200.000	0.013	0.109
-553.412	303.520	-0.137	-0.252
-552.398	713.646	-0.050	-0.133
-551.383	33.400	-0.151	0.130
-550.369	-200.000	-0.003	-0.081
-549.354	-111.009	0.170	-0.035
-548.339	-45.069	0.123	0.061
-547.325	-49.698	0.062	-0.029
-546.310	472.930	-0.105	0.236
-545.296	-200.000	0.024	0.172
-544.281	200.448	-0.093	-0.143
-543.266	-176.056	-0.197	-0.005
-542.252	-99.363	0.304	-0.076
-541.237	574.195	-0.064	0.156
-540.223	-120.895	0.293	0.049
-539.208	92.379	-0.270	0.303
-538.193	-89.978	-0.354	0.103
-537.179	-128.020	-0.244	-0.035
-536.164	-88.681	0.214	0.063
-535.150	-200.000	-0.039	-0.397
-534.135	-53.914	0.182	-0.082
-533.121	-112.370	-0.199	0.040
-532.106	-114.065	0.161	-0.031
-531.091	-49.800	-0.043	0.020
-530.077	-85.123	0.137	0.043
-529.062	-56.843	-0.240	0.106
-528.048	800.000	0.092	0.367
-527.033	-200.000	0.007	0.361
-526.018	114.792	0.174	-0.211
-525.004	-130.550	-0.172	0.023
-523.989	-49.732	0.287	-0.136
-522.975	800.000	-0.115	0.439
-521.960	-200.000	0.013	0.070
-520.945	59.547	0.193	0.189
-519.931	-200.000	-0.007	0.191
-518.916	-60.512	0.080	0.034
-517.902	150.971	-0.253	0.343
-516.887	-12.726	0.170	0.111
-515.872	-200.000	-0.021	-0.211
-514.858	-200.000	0.010	-0.113
-513.843	-200.000	0.030	0.236
-512.829	-56.068	0.106	-0.047
-511.814	800.000	0.075	0.212
-510.799	7.537	-0.242	-0.180
-509.785	20.063	-0.119	-0.096
-508.770	36.016	-0.215	-0.188
-507.756	-200.000	-0.004	0.239
-506.741	-60.734	0.019	-0.008
-505.726	800.000	0.021	-0.075
-504.712	184.956	-0.160	-0.237
-503.697	-39.523	-0.291	-0.152
-502.683	-52.228	0.260	-0.120
-501.668	718.511	0.107	-0.284
-500.653	-107.902	-0.347	-0.075
-499.639	-156.502	-0.294	0.018
-498.624	-97.434	-0.112	0.029
-497.610	269.527	0.148	-0.258
-496.595	800.000	0.048	0.210
-495.581	800.000	0.052	0.223
-494.566	-137.106	0.187	-0.021
-493.551	40.895	0.142	-0.127
-492.537	-144.423	-0.156	0.014
-491.522	-200.000	0.055	0.247
-490.508	213.080	-0.144	0.227
-489.493	-67.228	0.134	0.053
-488.478	10.648	0.124	-0.094
-487.464	122.627	0.175	-0.217
-486.449	-155.385	0.276	0.018
-485.435	-106.565	0.215	-0.048
-484.420	-86.987	-0.081	-0.025
-483.405	322.624	0.092	0.174
-482.391	800.000	-0.036	-0.123
-481.376	-180.538	-0.448	0.009
-480.362	-200.000	0.031	0.345
-479.347	143.459	0.155	0.205
-478.332	166.725	-0.090	0.127
-477.318	-200.000	-0.009	-0.053
-476.303	-57.296	-0.329	-0.144
-475.289	-57.219	0.186	0.081
-474.274	-23.246	0.284	0.170
-473.259	594.972	-0.099	-0.244
-472.245	-150.284	0.141	-0.011
-471.230	-120.865	0.337	-0.056
-470.216	-200.000	-0.011	-0.114
-469.201	-184.541	-0.138	0.002
-468.186	-200.000	0.001	0.036
-467.172	-100.449	-0.248	-0.061
-466.157	10.099	-0.131	-0.099
-465.143	218.997	-0.147	0.234
-464.128	248.883	0.071	-0.119
-463.113	-56.428	-0.350	0.154
-462.099	-183.817	-0.140	-0.002
-461.084	800.000	-0.019	-0.066
-460.070	-200.000	0.010	0.165
-459.055	-7.263	-0.229	0.155
-458.040	-100.077	-0.055	-0.014
-457.026	-66.274	-0.326	-0.129
-456.011	-102.443	0.491	-0.117
-454.997	-194.584	0.320	0.003
-453.982	-45.242	-0.184	-0.091
-452.968	-10.314	-0.344	-0.226
-451.953	800.000	-0.026	-0.086
-450.938	-138.524	-0.211	0.023
-449.924	147.855	-0.035	-0.047
-448.909	96.421	0.074	-0.085
-447.895	-53.800	-0.257	-0.116
-446.880	-159.621	-0.261	0.014
-445.865	800.000	0.048	-0.171
-444.851	-140.752	-0.120	0.012
-443.836	-123.876	0.248	-0.039
-442.822	-75.072	0.111	-0.040
-441.807	0.337	-0.298	-0.211
-440.792	-178.143	-0.297	0.007
-439.778	340.132	0.166	0.322
-438.763	-109.539	0.222	-0.047
-437.749	-200.000	0.028	-0.259
-436.734	-200.000	-0.062	-0.318
-435.719	-200.000	0.005	-0.134
-434.705	112.691	-0.361	-0.433
-433.690	28.107	-0.356	-0.298
-432.676	-42.702	-0.087	-0.044
-431.661	-162.577	0.315	-0.015
-430.646	-73.956	0.106	0.038
-429.632	-200.000	-0.002	0.067
-428.617	-164.586	-0.132	-0.006
-427.603	17.894	-0.187	-0.148
-426.588	55.053	-0.223	0.214
-425.573	-200.000	0.017	0.161
-424.559	89.520	-0.030	-0.033
-423.544	-27.008	0.046	-0.027
-422.530	800.000	-0.030	-0.126
-421.515	-135.687	0.198	-0.023
-420.500	-34.731	-0.176	0.096
-419.486	-200.000	-0.019	-0.413
-418.471	-18.559	-0.091	0.056
-417.457	-140.823	0.207	-0.021
-416.442	-84.547	0.123	0.038
-415.428	-200.000	-0.032	-0.147
-414.413	-6.748	0.135	-0.091
-413.398	-63.848	-0.257	-0.104
-412.384	340.723	0.200	-0.388
-411.369	-121.200	-0.145	-0.024
-410.355	158.342	0.351	0.482
-409.340	-66.774	-0.271	0.106
-408.325	800.000	0.076	0.262
-407.311	-80.297	0.169	0.056
-406.296	-200.000	0.005	0.078
-405.282	108.487	0.293	-0.347
-404.267	800.000	-0.077	-0.271
-403.252	62.132	0.085	0.084
-402.238	-138.752	0.174	-0.019
-401.223	161.979	0.159	-0.221
-400.209	250.422	0.094	0.158
-399.194	-200.000	0.002	-0.069
-398.179	-200.000	-0.024	0.148
-397.165	-200.000	0.007	0.228
-396.150	-200.000	-0.046	0.253
-395.136	800.000	-0.158	-0.453
-394.121	-85.043	-0.057	-0.018
-393.106	-9.007	0.034	-0.023
-392.092	48.729	0.020	0.019
-391.077	-200.000	0.055	-0.278
-390.063	-88.677	0.209	-0.062
-389.048	800.000	0.035	-0.150
-388.033	199.874	-0.098	-0.148
-387.019	617.726	-0.120	0.299
-386.004	-200.000	-0.024	-0.127
-384.990	-22.669	0.127	-0.076
-383.975	-70.919	0.306	-0.114
-382.960	147.987	0.156	0.209
-381.946	315.424	0.102	0.191
-380.931	-128.281	-0.117	0.016
-379.917	-56.211	-0.281	0.124
-378.902	-58.934	0.174	-0.074
-377.888	62.652	-0.168	-0.167
-376.873	-200.000	-0.004	-0.174
-375.858	-151.542	-0.243	0.018
-374.844	-139.690	-0.100	-0.011
-373.829	17.230	0.211	-0.166
-372.815	-31.802	0.275	0.153
-371.800	-200.000	-0.018	-0.386
-370.785	-178.977	-0.186	0.004
-369.771	-151.205	0.188	0.014
-368.756	-29.218	-0.317	-0.180
-367.742	329.097	0.136	-0.259
-366.727	62.864	0.195	0.193
-365.712	-108.122	0.149	-0.032
-364.698	94.473	0.129	0.145
-363.683	-96.831	-0.132	0.034
-362.669	-200.000	0.024	-0.137
-361.654	-12.026	0.087	-0.057
-360.639	-95.714	-0.114	0.030
-359.625	-5.462	-0.194	-0.132
-358.610	-128.273	0.208	0.029
-357.596	85.804	-0.063	-0.069
-356.581	-200.000	0.003	0.100
-355.566	-7.685	0.312	-0.209
-354.552	-105.592	0.200	-0.045
-353.537	80.080	-0.039	0.041
-352.523	800.000	-0.136	-0.390
-351.508	800.000	-0.076	-0.274
-350.493	557.878	0.093	-0.221
-349.479	20.702	-0.276	-0.221
-348.464	36.567	0.143	0.125
-347.450	800.000	0.016	0.059
-346.435	-200.000	0.017	-0.144
-345.420	10.322	-0.343	0.258
-344.406	800.000	0.080	0.340
-343.391	92.558	0.013	-0.015
-342.377	-200.000	-0.013	-0.284
-341.362	-144.459	0.387	-0.035
-340.348	231.635	0.119	-0.194
-339.333	-144.093	-0.330	-0.031
-338.318	-93.810	-0.198	-0.054
-337.304	-200.000	0.033	-0.177
-336.289	-200.000	-0.029	-0.146
-335.275	-135.285	-0.510	-0.060
-334.260	-48.857	0.285	-0.135
-333.245	121.224	0.178	-0.219
-332.231	64.047	0.403	0.401
-331.216	-102.261	-0.319	-0.076
-330.202	-200.000	0.003	0.052
-329.187	-22.930	0.234	-0.140
-328.172	-64.518	0.377	0.151
-327.158	237.346	-0.097	-0.159
-326.143	-200.000	0.009	0.061
-325.129	-71.152	0.109	0.040
-324.114	800.000	-0.063	-0.175
-323.099	800.000	0.108	-0.419
-322.085	77.093	0.088	0.092
-321.070	-200.000	0.001	-0.046
-320.056	-77.796	-0.323	0.110
-319.041	800.000	0.028	0.099
-318.026	-34.515	-0.091	0.049
-317.012	-5.559	0.327	-0.222
-315.997	-134.450	-0.064	-0.008
-314.983	252.996	0.096	-0.162
-313.968	296.060	-0.171	-0.310
-312.953	81.270	-0.068	-0.072
-311.939	223.113	-0.164	0.261
-310.924	36.527	0.105	0.091
-309.910	238.151	0.146	0.239
-308.895	59.379	0.152	-0.148
-307.880	-168.614	0.032	0.001
-306.866	185.194	0.181	0.265
-305.851	-200.000	0.018	0.139
-304.837	4.828	0.166	0.121
-303.822	-119.718	-0.296	-0.050
-302.807	155.211	-0.129	-0.176
-301.793	286.086	-0.060	-0.106
-300.778	21.197	0.043	0.035
-299.764	-2.841	0.148	-0.102
-298.749	-90.280	0.152	-0.043
-297.735	580.460	-0.091	-0.219
-296.720	-200.000	-0.017	-0.251
-295.705	-66.858	-0.415	-0.162
-294.691	-200.000	0.040	0.385
-293.676	-93.992	-0.276	0.075
-292.662	-24.529	0.067	-0.039
-291.647	-75.428	-0.112	-0.039
-290.632	-200.000	-0.018	0.268
-289.618	-68.643	-0.321	-0.123
-288.603	358.142	0.081	-0.160
-287.589	12.376	-0.195	-0.149
-286.574	800.000	-0.061	0.198
-285.559	753.454	0.013	0.035
-284.545	-200.000	0.035	-0.399
-283.530	20.106	0.216	0.172
-282.516	79.978	-0.141	-0.150
-281.501	-103.389	-0.174	0.040
-280.486	800.000	-0.083	0.315
-279.472	-200.000	0.020	0.097
-278.457	800.000	0.061	0.258
-277.443	-110.378	0.013	-0.003
-276.428	667.531	0.041	0.104
-275.413	-179.765	0.154	0.003
-274.399	-200.000	-0.028	0.173
-273.384	-109.412	-0.311	0.065
-272.370	24.798	-0.266	-0.217
-271.355	275.176	-0.079	0.139
-270.340	-200.000	0.032	-0.181
-269.326	-63.076	-0.264	0.108
-268.311	448.983	0.159	0.345
-267.297	-95.854	0.286	0.075
-266.282	-200.000	0.042	-0.265
-265.267	-200.000	0.029	0.299
-264.253	107.005	-0.300	0.351
-263.238	-98.609	0.028	-0.007
-262.224	67.730	0.245	-0.247
-261.209	31.099	-0.309	0.262
-260.195	-200.000	-0.004	0.061
-259.180	800.000	0.009	0.036
-258.165	-114.148	0.177	-0.034
-257.151	-200.000	-0.012	-0.180
-256.136	-200.000	-0.040	-0.249
-255.122	-131.187	0.195	-0.025
-254.107	502.472	-0.097	0.221
-253.092	166.573	0.039	-0.055
-252.078	98.022	-0.262	0.297
-251.063	144.182	0.160	0.210
-250.049	-131.029	0.249	0.033
-249.034	-200.000	-0.043	-0.264
-248.019	800.000	0.044	-0.141
-247.005	-38.179	-0.114	-0.059
-245.990	-164.522	-0.123	-0.005
-244.976	515.000	-0.034	0.079
-243.961	-200.000	-0.010	0.339
-242.946	57.367	0.091	0.088
-241.932	64.466	0.113	-0.112
-240.917	-178.061	0.177	-0.004
-239.903	-200.000	0.020	0.296
-238.888	-1.387	0.273	0.190
-237.873	-90.321	-0.302	-0.086
-236.859	-49.782	-0.211	0.099
-235.844	86.927	-0.155	0.169
-234.830	161.664	-0.041	0.057
-233.815	-7.790	-0.202	0.134
-232.800	119.969	0.149	0.182
-231.786	429.566	-0.039	-0.084
-230.771	-123.475	0.077	-0.012
-229.757	800.000	-0.039	0.131
-228.742	474.945	-0.059	0.131
-227.727	133.938	0.132	-0.169
-226.713	-103.340	0.031	-0.007
-225.698	-200.000	-0.003	-0.187
-224.684	-28.017	-0.229	0.131
-223.669	205.111	0.126	-0.193
-222.655	210.946	0.199	-0.308
-221.640	263.008	0.230	-0.393
-220.625	-68.928	-0.075	-0.028
-219.611	80.081	0.225	0.238
-218.596	13.660	0.158	-0.121
-217.582	236.092	-0.267	0.434
-216.567	2.665	-0.088	-0.063
-215.552	122.583	0.257	0.316
-214.538	34.472	0.130	-0.112
-213.523	-122.547	0.248	-0.040
-212.509	-7.158	0.337	0.225
-211.494	-102.547	0.134	0.032
-210.479	448.572	0.131	0.284
-209.465	-52.158	0.222	-0.101
-208.450	-200.000	-0.013	0.072
-207.436	42.799	0.118	0.106
-206.421	397.959	-0.129	0.265
-205.406	-99.829	0.100	-0.025
-204.392	-149.386	-0.356	-0.028
-203.377	-157.490	0.158	0.009
-202.363	-144.378	-0.089	0.008
-201.348	-200.000	0.007	-0.101
-200.333	235.131	-0.072	0.117
-199.319	77.250	-0.188	-0.196
-198.304	-200.000	0.048	0.236
-197.290	800.000	0.068	0.272
-196.275	-63.632	-0.146	-0.059
-195.260	2.669	0.106	0.075
-194.246	-23.309	0.151	-0.089
-193.231	-104.009	0.346	-0.079
-192.217	800.000	-0.037	0.101
-191.202	-90.997	-0.221	0.063
-190.187	-93.141	-0.082	-0.023
-189.173	-57.388	-0.101	0.043
-188.158	800.000	0.071	-0.281
-187.144	-200.000	0.017	0.087
-186.129	99.667	0.102	0.116
-185.114	-200.000	0.009	0.358
-184.100	525.562	-0.038	0.088
-183.085	-200.000	-0.003	0.112
-182.071	-200.000	0.030	0.153
-181.056	-114.051	-0.302	-0.057
-180.042	-200.000	0.035	0.276
-179.027	14.438	0.110	0.085
-178.012	167.371	0.069	-0.097
-176.998	-10.146	0.203	-0.133
-175.983	800.000	-0.036	-0.120
-174.969	-182.133	0.450	0.008
-173.954	-142.768	0.139	-0.013
-172.939	-200.000	0.005	0.068
-171.925	-124.745	-0.184	0.028
-170.910	749.958	0.093	0.246
-169.896	47.130	0.507	-0.463
-168.881	527.380	0.057	0.132
-167.866	800.000	-0.070	0.194
-166.852	-200.000	0.036	-0.201
-165.837	483.369	-0.105	-0.234
-164.823	-200.000	0.036	0.163
-163.808	800.000	0.090	0.328
-162.793	20.886	-0.138	-0.109
-161.779	238.905	0.220	-0.359
-160.764	-49.529	-0.302	-0.141
-159.750	800.000	-0.020	0.070
-158.735	-72.460	-0.103	-0.037
-157.720	-200.000	-0.139	-0.001
-156.706	-200.000	0.134	0.000
-155.691	793.153	0.094	0.253
-154.677	-200.000	0.011	0.122
-153.662	401.093	0.103	-0.212
-152.647	127.451	-0.038	0.048
-151.633	-109.037	0.162	0.034
-150.618	-200.000	0.046	-0.486
-149.604	198.325	-0.169	0.253
-148.589	72.276	0.320	-0.327
-147.574	800.000	-0.067	0.246
-146.560	-200.000	0.016	0.269
-145.545	-111.294	-0.391	0.078
-144.531	-200.000	0.029	-0.180
-143.516	644.679	-0.067	-0.168
-142.502	800.000	0.051	-0.152
-141.487	800.000	-0.030	-0.084
-140.472	10.548	-0.081	-0.060
-139.458	35.242	0.247	-0.212
-138.443	60.770	0.068	-0.067
-137.429	-110.274	-0.284	0.058
-136.414	-200.000	-0.005	-0.376
-135.399	746.224	-0.013	0.034
-134.385	97.952	-0.137	0.154
-133.370	-71.329	-0.298	0.109
-132.356	292.292	0.212	-0.380
-131.341	139.826	0.245	0.316
-130.326	800.000	0.039	-0.143
-129.312	-71.284	0.577	-0.212
-128.297	-97.155	0.150	0.038
-127.283	0.427	0.285	-0.199
-126.268	-200.000	0.026	0.113
-125.253	42.322	0.192	-0.171
-124.239	161.498	-0.130	-0.178
-123.224	74.761	0.091	0.094
-122.210	-94.769	0.255	-0.068
-121.195	-59.112	0.260	0.110
-120.180	116.768	0.075	0.090
-119.166	132.729	0.134	0.169
-118.151	800.000	0.096	-0.305
-117.137	-30.131	-0.406	-0.226
-116.122	800.000	-0.075	0.218
-115.107	-63.819	0.365	-0.146
-114.093	358.552	-0.034	0.067
-113.078	800.000	-0.109	-0.333
-112.064	-114.013	0.404	-0.077
-111.049	268.044	-0.074	-0.127
-110.034	-200.000	0.005	0.104
-109.020	-18.893	-0.315	0.192
-108.005	800.000	0.033	-0.090
-106.991	800.000	0.084	-0.282
-105.976	800.000	0.005	0.020
-104.962	466.776	-0.035	-0.077
-103.947	42.229	0.306	-0.272
-102.932	-32.604	0.176	-0.096
-101.918	-43.622	0.095	-0.047
-100.903	-200.000	-0.007	0.196
-99.889	-200.000	0.015	0.105
-98.874	47.131	0.304	0.277
-97.859	33.146	0.078	0.067
-96.845	-69.903	0.227	0.085
-95.830	-79.910	0.256	0.084
-94.816	-97.750	0.130	-0.033
-93.801	310.047	-0.053	-0.097
-92.786	6.614	0.236	-0.172
-91.772	733.485	-0.065	-0.169
-90.757	-37.856	-0.345	0.180
-89.743	-71.845	0.200	0.073
-88.728	25.886	-0.096	-0.079
-87.713	-176.804	0.024	-0.001
-86.699	-48.860	-0.235	-0.110
-85.684	-169.722	0.306	-0.011
-84.670	227.185	-0.032	0.050
-83.655	800.000	-0.018	0.077
-82.640	23.198	0.035	-0.028
-81.626	-55.593	0.226	0.099
-80.611	257.911	0.132	0.223
-79.597	-121.076	0.164	0.027
-78.582	-110.736	-0.026	0.005
-77.567	-144.713	-0.086	0.008
-76.553	-200.000	-0.019	-0.100
-75.538	-83.722	0.253	-0.079
-74.524	-200.000	-0.120	0.598
-73.509	176.319	0.126	0.179
-72.494	800.000	-0.124	-0.353
-71.480	-88.725	0.258	0.075
-70.465	-139.775	0.270	0.028
-69.451	-118.156	-0.148	-0.026
-68.436	-200.000	-0.027	-0.175
-67.422	-46.205	0.094	-0.045
-66.407	670.674	0.113	0.286
-65.392	293.390	-0.129	-0.230
-64.378	-200.000	-0.012	-0.224
-63.363	-68.854	-0.157	-0.059
-62.349	800.000	0.065	0.232
-61.334	186.760	-0.725	-1.056
-60.319	61.376	0.532	0.518
-59.305	626.802	-0.375	-0.926
-58.290	800.000	0.387	1.146
-57.276	266.611	0.939	1.605
-56.261	-200.000	112.322	615.990
-55.246	439.455	1519.034	3243.903
-54.232	141.827	2721.458	3526.828
-53.217	94.699	2330.360	2590.922
-52.203	36.132	1931.500	1663.300
-51.188	30.045	1717.015	1431.670
-50.173	27.495	1674.878	1377.232
-49.159	48.595	1729.942	1585.058
-48.144	47.339	1744.239	1588.468
-47.130	29.629	1702.420	1416.086
-46.115	27.031	1687.914	1384.193
-45.100	26.771	1683.250	1378.334
-44.086	26.849	1680.404	1376.541
-43.071	26.819	1677.319	1373.734
-42.057	26.904	1674.736	1372.204
-41.042	26.853	1672.790	1370.171
-40.027	26.819	1670.947	1368.349
-39.013	26.852	1669.040	1366.983
-37.998	26.809	1667.792	1365.582
-36.984	26.831	1666.061	1364.278
-35.969	26.950	1664.482	1363.823
-34.954	26.991	1663.045	1362.905
-33.940	26.888	1661.139	1360.517
-32.925	26.987	1659.262	1359.663
-31.911	26.920	1658.120	1358.175
-30.896	26.927	1656.101	1356.515
-29.881	26.935	1653.944	1354.756
-28.867	26.900	1652.657	1353.390
-27.852	26.923	1651.365	1352.449
-26.838	26.922	1649.689	1351.010
-25.823	27.013	1648.209	1350.422
-24.809	26.970	1647.178	1349.205
-23.794	26.964	1645.305	1347.572
-22.779	26.974	1644.265	1346.744
-21.765	26.976	1642.289	1345.086
-20.750	26.866	1641.202	1343.328
-19.736	26.930	1640.118	1342.861
-18.721	26.990	1638.326	1341.786
-17.706	27.003	1636.621	1340.432
-16.692	27.005	1634.813	1338.911
-15.677	26.999	1633.377	1337.640
-14.663	27.044	1632.222	1336.971
-13.648	26.939	1630.688	1334.888
-12.633	26.945	1629.522	1333.927
-11.619	26.919	1627.728	1332.214
-10.604	26.983	1625.853	1331.091
-9.590	26.892	1625.501	1330.084
-8.575	27.004	1623.677	1329.358
-7.560	27.020	1622.599	1328.542
-6.546	26.943	1621.485	1327.014
-5.531	26.889	1620.748	1325.967
-4.517	26.954	1619.332	1325.225
-3.502	26.921	1617.887	1323.754
-2.487	27.101	1616.263	1323.685
-1.473	27.059	1604.844	1313.972
-0.458	24.883	1586.754	1283.526
0.556	20.650	1588.278	1254.171
1.571	17.997	1611.968	1253.328
2.586	17.335	1623.603	1257.369
3.600	15.682	1569.657	1203.659
4.615	8.939	1458.505	1073.325
5.629	2.218	1395.585	983.776
6.644	0.893	1388.432	970.156
7.659	0.868	1386.848	968.802
8.673	0.836	1386.260	968.102
9.688	0.844	1383.632	966.231
10.702	0.602	1380.456	962.391
11.717	3.693	1385.176	985.333
12.731	10.869	1396.308	1039.179
13.746	15.992	1403.054	1076.933
14.761	17.222	1403.883	1085.332
15.775	16.663	1402.242	1080.404
16.790	15.735	1399.531	1072.305
17.804	14.951	1397.442	1065.616
18.819	14.491	1396.223	1061.665
19.834	14.244	1395.333	1059.322
20.848	14.073	1393.434	1056.696
21.863	13.775	1392.231	1053.799
22.877	13.577	1391.026	1051.536
23.892	13.566	1390.024	1050.619
24.907	13.539	1388.874	1049.484
25.921	13.524	1388.296	1048.860
26.936	13.599	1387.162	1048.388
27.950	13.570	1386.479	1047.596
28.965	13.617	1385.291	1046.897
29.980	13.750	1384.049	1046.710
30.994	13.801	1382.940	1046.098
32.009	13.835	1382.072	1045.560
33.023	13.841	1380.867	1044.597
34.038	13.657	1380.469	1043.047
35.053	13.747	1379.077	1042.467
36.067	13.761	1377.692	1041.415
37.082	13.709	1377.094	1040.542
38.096	13.725	1375.747	1039.538
39.111	13.680	1375.075	1038.651
40.126	13.676	1374.004	1037.729
41.140	13.711	1372.993	1037.092
42.155	13.527	1372.621	1035.567
43.169	13.517	1372.531	1035.347
44.184	13.642	1372.249	1035.826
45.199	13.615	1371.509	1035.006
46.213	13.625	1371.419	1034.910
47.228	13.561	1370.440	1033.675
48.242	13.709	1368.854	1033.309
49.257	13.606	1367.709	1031.712
50.271	13.656	1366.477	1031.003
51.286	13.650	1364.997	1029.761
52.301	13.542	1364.123	1028.339
53.315	13.665	1362.660	1027.906
54.330	13.671	1361.639	1027.087
55.344	13.507	1360.922	1025.436
56.359	13.606	1359.593	1024.957
57.374	13.627	1358.580	1024.232
58.388	13.600	1357.874	1023.444
59.403	13.487	1357.500	1022.376
60.417	13.485	1356.990	1021.886
61.432	13.508	1355.944	1021.152
62.447	13.536	1354.739	1020.321
63.461	13.579	1353.360	1019.459
64.476	13.518	1352.309	1018.206
65.490	13.549	1350.991	1017.314
66.505	13.493	1349.751	1015.942
67.520	13.518	1348.330	1014.937
68.534	13.554	1347.500	1014.446
69.549	13.533	1346.354	1013.361
70.563	13.615	1345.298	1012.979
71.578	13.458	1344.905	1011.637
72.593	13.502	1343.150	1010.492
73.607	13.410	1343.186	1009.871
74.622	13.501	1341.623	1009.160
75.636	13.474	1340.683	1008.199
76.651	13.413	1340.068	1007.278
77.666	13.455	1339.535	1007.044
78.680	13.472	1339.075	1006.709
79.695	13.431	1338.390	1005.860
80.709	13.532	1337.459	1005.684
81.724	13.514	1336.527	1004.783
82.739	13.562	1335.813	1004.448
83.753	13.639	1334.467	1003.815
84.768	13.552	1334.169	1002.976
85.782	13.614	1332.444	1001.963
86.797	13.657	1331.078	1001.108
87.812	13.530	1330.446	999.779
88.826	13.596	1328.860	998.897
89.841	13.699	1327.371	998.308
90.855	13.613	1326.888	997.336
91.870	13.681	1325.856	996.881
92.884	13.693	1325.000	996.225
93.899	13.778	1324.041	995.921
94.914	13.736	1323.439	995.130
95.928	13.722	1322.455	994.220
96.943	13.750	1321.478	993.561
97.957	13.637	1321.035	992.467
98.972	13.713	1319.528	991.699
99.987	13.730	1318.605	991.022
101.001	13.748	1317.489	990.202
102.016	13.618	1316.451	988.558
103.030	13.749	1315.578	988.598
104.045	13.703	1314.651	987.539
105.060	13.720	1313.655	986.802
106.074	13.611	1311.998	984.827
107.089	13.569	1310.843	983.624
108.103	13.598	1309.636	982.804
109.118	13.662	1308.175	981.994
110.133	13.559	1307.330	980.667
111.147	13.614	1306.272	980.109
112.162	13.588	1304.511	978.549
113.176	13.626	1303.422	977.867
114.191	13.619	1302.621	977.140
115.206	13.688	1300.954	976.208
116.220	13.666	1299.816	975.138
117.235	13.623	1298.861	974.087
118.249	13.743	1297.451	973.644
119.264	13.628	1296.673	972.304
120.279	13.705	1295.824	972.029
121.293	13.693	1294.363	970.775
122.308	13.648	1293.109	969.487
123.322	13.595	1292.479	968.621
124.337	13.644	1291.327	967.955
125.352	13.607	1290.567	967.087
126.366	13.587	1289.338	965.965
127.381	13.622	1288.338	965.335
128.395	13.553	1287.547	964.252
129.410	13.535	1286.335	963.158
130.424	13.683	1285.242	963.110
131.439	13.656	1284.372	962.217
132.454	13.620	1283.210	961.056
133.468	13.706	1282.406	960.866
134.483	13.744	1281.347	960.204
135.497	13.685	1280.542	959.178
136.512	13.669	1278.881	957.753
137.527	13.717	1277.238	956.717
138.541	13.628	1276.318	955.428
139.556	13.681	1274.911	954.596
140.570	13.748	1273.948	954.180
141.585	13.728	1272.548	952.928
142.600	13.787	1271.314	952.257
143.614	13.822	1270.226	951.563
144.629	13.818	1269.356	950.801
145.643	13.901	1268.005	950.180
146.658	13.746	1266.634	948.183
147.673	13.750	1265.935	947.598
148.687	13.875	1264.502	947.154
149.702	13.690	1263.214	945.055
150.716	13.797	1261.810	944.529
151.731	13.794	1260.846	943.706
152.746	13.822	1259.388	942.688
153.760	13.838	1258.326	941.904
154.775	13.836	1257.197	940.964
155.789	13.944	1256.068	940.646
156.804	13.823	1255.573	939.508
157.819	13.966	1254.234	939.230
158.833	13.908	1253.272	938.100
159.848	13.929	1252.615	937.646
160.862	14.105	1251.320	937.583
161.877	13.998	1249.893	935.832
162.892	13.939	1249.072	934.797
163.906	13.997	1248.087	934.305
164.921	13.867	1247.284	932.892
165.935	13.987	1246.328	932.765
166.950	14.036	1245.403	932.269
167.964	13.974	1245.613	931.996
168.979	13.930	1244.650	930.944
169.994	14.070	1243.575	930.841
171.008	14.043	1242.863	930.075
172.023	13.991	1242.341	929.311
173.037	14.188	1240.962	929.297
174.052	14.128	1239.856	928.053
175.067	14.113	1239.032	927.273
176.081	14.101	1237.850	926.236
177.096	14.027	1237.285	925.323
178.110	14.037	1236.249	924.520
179.125	14.054	1235.382	923.884
180.140	13.978	1233.976	922.329
181.154	14.035	1232.898	921.760
182.169	14.124	1231.646	921.236
183.183	14.250	1230.145	920.726
184.198	14.229	1228.547	919.333
185.213	14.307	1227.742	919.078
186.227	14.199	1226.973	917.828
187.242	14.347	1225.208	917.242
188.256	14.328	1224.615	916.612
189.271	14.297	1223.609	915.604
190.286	14.178	1223.064	914.462
191.300	14.135	1222.155	913.466
192.315	14.162	1221.292	912.890
193.329	14.152	1220.603	912.238
194.344	14.166	1220.021	911.797
195.359	14.199	1219.182	911.272
196.373	14.312	1219.053	911.716
197.388	14.272	1218.436	910.953
198.402	14.441	1217.557	911.139
199.417	14.377	1217.347	910.554
200.432	14.539	1215.879	910.258
201.446	14.545	1214.665	909.302
202.461	14.571	1213.966	908.839
203.475	14.524	1213.142	907.886
204.490	14.473	1211.927	906.621
205.504	14.499	1210.479	905.596
206.519	14.560	1209.267	904.940
207.534	14.450	1208.477	903.672
208.548	14.472	1207.743	903.166
209.563	14.403	1206.574	901.833
210.577	14.558	1205.490	901.783
211.592	14.614	1205.141	901.748
212.607	14.596	1204.270	900.916
213.621	14.557	1203.355	899.941
214.636	14.601	1202.562	899.506
215.650	14.600	1201.524	898.646
216.665	14.825	1199.954	898.600
217.680	14.726	1199.394	897.570
218.694	14.699	1198.776	896.882
219.709	14.701	1198.009	896.243
220.723	14.756	1197.225	895.871
221.738	14.807	1196.186	895.286
222.753	14.828	1195.297	894.657
223.767	14.834	1194.922	894.325
224.782	14.767	1194.388	893.489
225.796	14.765	1193.912	893.042
226.811	14.857	1192.964	892.750
227.826	14.861	1192.117	892.057
228.840	14.905	1191.305	891.602
229.855	14.853	1190.797	890.866
230.869	14.899	1189.762	890.257
231.884	14.807	1189.178	889.252
232.899	14.841	1188.391	888.767
233.913	14.831	1187.757	888.161
234.928	14.882	1186.681	887.551
235.942	14.842	1186.026	886.767
236.957	14.806	1185.443	886.066
237.972	14.851	1184.458	885.487
238.986	14.881	1184.043	885.255
240.001	14.827	1183.543	884.520
241.015	14.887	1182.747	884.162
242.030	14.960	1181.735	883.715
243.045	14.982	1180.922	883.147
244.059	14.926	1179.924	882.023
245.074	14.954	1179.047	881.436
246.088	15.005	1178.381	881.132
247.103	15.112	1177.168	880.710
248.117	15.106	1176.562	880.144
249.132	15.100	1176.130	879.716
250.147	15.172	1175.141	879.272
251.161	15.231	1174.389	878.944
252.176	15.231	1174.011	878.580
253.190	15.296	1172.997	878.084
254.205	15.255	1172.556	877.462
255.220	15.329	1171.866	877.257
256.234	15.363	1171.297	876.932
257.249	15.355	1170.531	876.236
258.263	15.348	1170.071	875.781
259.278	15.466	1168.944	875.476
260.293	15.358	1168.567	874.551
261.307	15.383	1167.990	874.175
262.322	15.374	1167.332	873.554
263.336	15.433	1166.931	873.488
264.351	15.389	1166.173	872.610
265.366	15.530	1165.516	872.773
266.380	15.511	1164.848	872.101
267.395	15.510	1164.156	871.500
268.409	15.506	1163.451	870.872
269.424	15.530	1162.183	869.969
270.439	15.559	1161.773	869.740
271.453	15.514	1160.947	868.811
272.468	15.484	1160.035	867.897
273.482	15.539	1159.492	867.698
274.497	15.546	1158.708	867.069
275.512	15.537	1158.552	866.830
276.526	15.545	1157.877	866.290
277.541	15.573	1156.738	865.506
278.555	15.615	1155.935	865.045
279.570	15.654	1155.232	864.640
280.585	15.596	1154.556	863.762
281.599	15.748	1153.507	863.681
282.614	15.697	1152.391	862.503
283.628	15.632	1151.623	861.523
284.643	15.739	1150.675	861.286
285.657	15.705	1149.801	860.383
286.672	15.789	1148.557	859.803
287.687	15.714	1148.213	859.084
288.701	15.826	1146.868	858.573
289.716	15.738	1146.052	857.438
290.730	15.843	1145.300	857.337
291.745	15.813	1145.127	856.978
292.760	15.750	1144.782	856.323
293.774	15.758	1144.128	855.799
294.789	15.979	1142.876	855.911
295.803	15.968	1142.436	855.450
296.818	15.888	1142.035	854.667
297.833	15.916	1140.793	853.805
298.847	15.898	1139.971	853.021
299.862	15.933	1139.277	852.605
300.876	15.931	1138.889	852.227
301.891	16.019	1138.066	851.983
302.906	15.936	1137.335	850.942
303.920	16.077	1136.447	850.910
304.935	15.963	1136.276	850.131
305.949	16.205	1135.309	850.553
306.964	16.192	1134.685	849.944
307.979	16.078	1133.914	848.718
308.993	16.112	1133.490	848.498
310.008	16.112	1132.610	847.764
311.022	16.310	1131.276	847.684
312.037	16.244	1130.653	846.814
313.052	16.132	1129.972	845.666
314.066	16.216	1128.808	845.140
315.081	16.174	1128.167	844.377
316.095	16.123	1127.268	843.372
317.110	16.094	1126.613	842.662
318.125	16.098	1125.995	842.146
319.139	16.168	1125.360	841.947
320.154	16.221	1124.862	841.761
321.168	16.212	1123.977	840.983
322.183	16.237	1123.097	840.374
323.197	16.176	1123.137	840.027
324.212	16.238	1122.323	839.648
325.227	16.201	1121.565	838.825
326.241	16.270	1120.853	838.559
327.256	16.238	1120.193	837.835
328.270	16.356	1119.075	837.507
329.285	16.366	1117.915	836.615
330.300	16.273	1117.388	835.687
331.314	16.282	1116.421	834.934
332.329	16.365	1115.329	834.455
333.343	16.293	1114.241	833.211
334.358	16.359	1113.715	833.068
335.373	16.327	1112.923	832.248
336.387	16.421	1112.333	832.193
337.402	16.394	1111.835	831.613
338.416	16.525	1110.626	831.282
339.431	16.571	1110.184	831.102
340.446	16.462	1109.376	829.888
341.460	16.542	1108.559	829.598
342.475	16.549	1107.924	829.081
343.489	16.650	1106.621	828.531
344.504	16.637	1105.902	827.852
345.519	16.755	1105.062	827.729
346.533	16.669	1103.924	826.384
347.548	16.695	1103.762	826.315
348.562	16.798	1102.767	825.999
349.577	16.679	1102.062	824.819
350.592	16.666	1101.573	824.316
351.606	16.683	1100.896	823.821
352.621	16.812	1099.542	823.358
353.635	16.643	1099.251	822.248
354.650	16.659	1098.628	821.787
355.665	16.734	1097.639	821.337
356.679	16.811	1097.023	821.179
357.694	16.828	1096.606	820.877
358.708	16.787	1096.013	820.161
359.723	16.859	1095.471	820.034
360.738	16.918	1094.386	819.433
361.752	16.799	1094.436	818.820
362.767	16.722	1093.521	817.692
363.781	16.781	1093.120	817.605
364.796	16.913	1092.554	817.747
365.810	16.981	1091.645	817.320
366.825	16.933	1091.381	816.818
367.840	17.003	1090.739	816.602
368.854	17.073	1090.027	816.333
369.869	16.951	1089.254	815.096
370.883	16.989	1088.365	814.543
371.898	16.994	1087.755	814.040
372.913	17.093	1087.235	814.053
373.927	17.114	1086.810	813.762
374.942	17.110	1086.061	813.109
375.956	17.163	1085.268	812.697
376.971	17.165	1084.428	812.007
377.986	17.160	1084.223	811.758
379.000	17.141	1083.353	810.944
380.015	17.180	1082.967	810.768
381.029	17.267	1082.168	810.515
382.044	17.267	1081.391	809.860
383.059	17.271	1081.080	809.574
384.073	17.171	1080.283	808.430
385.088	17.285	1079.087	808.005
386.102	17.263	1078.310	807.247
387.117	17.382	1077.612	807.219
388.132	17.416	1076.272	806.303
389.146	17.211	1075.929	805.003
390.161	17.300	1074.644	804.395
391.175	17.320	1074.270	804.137
392.190	17.362	1073.509	803.693
393.205	17.395	1072.862	803.296
394.219	17.373	1072.024	802.492
395.234	17.337	1071.221	801.650
396.248	17.377	1070.261	801.050
397.263	17.274	1069.262	799.749
398.278	17.237	1068.743	799.114
399.292	17.414	1068.005	799.321
400.307	17.436	1067.184	798.741
401.321	17.374	1067.087	798.308
402.336	17.525	1065.921	798.070
403.350	17.477	1065.369	797.362
404.365	17.407	1064.680	796.448
405.380	17.452	1063.832	795.953
406.394	17.536	1062.958	795.624
407.409	17.630	1062.436	795.602
408.423	17.571	1061.635	794.654
409.438	17.598	1060.856	794.126
410.453	17.673	1060.138	793.869
411.467	17.721	1059.289	793.386
412.482	17.712	1058.753	792.872
413.496	17.752	1058.138	792.529
414.511	17.671	1057.592	791.675
415.526	17.857	1057.352	792.285
416.540	17.860	1056.366	791.494
417.555	17.777	1056.138	790.868
418.569	17.814	1055.422	790.433
419.584	17.823	1055.164	790.208
420.599	17.838	1054.253	789.528
421.613	106.158	1327.897	1479.086
422.628	97.819	1367.722	1479.162
