DTS Sentinel unit serial number:	SN413079Multiplexer serial number:	ORYXHardware model number:	OX4-SRSoftware version number:	ORYX F/W v4.00 Oryx Data Collector v3.7.2.0data status	okinstallation	princeton_trtdifferential loss correction	single-endedforward channel	channel 2reverse channel	N/Adate	2019/09/11time	20:49:10forward acquisition time	60.00reverse acquisition time	0.00gamma	496.2192k internal	0.2322k external	0.2322temperature offset calibration	1.0059default loss term (dB/km)	0.3790temperature slope calibration	1.0000multiplexer offset coefficient	1.0000multiplexer slope coefficient	1.0000fibre end	0.00T internal ref (°C)	37.00T ext. ref 1 (°C)	1.54T ext. ref 2 (°C)	30.83length (m)	temperature (°C)	Stokes	anti-Stokes-747.200	800.000	-0.060	0.259
-746.185	-200.000	0.019	0.140
-745.171	11.156	-0.089	0.069
-744.156	218.922	-0.133	0.214
-743.142	-105.409	0.176	0.040
-742.127	-174.680	-0.109	0.003
-741.112	-2.801	0.190	0.134
-740.098	-200.000	0.042	0.357
-739.083	176.504	0.191	-0.281
-738.069	800.000	-0.151	0.450
-737.054	-5.744	-0.288	0.200
-736.039	456.797	-0.035	-0.079
-735.025	-162.663	-0.337	-0.017
-734.010	-44.754	-0.205	-0.103
-732.996	549.489	0.064	0.155
-731.981	341.136	0.158	-0.312
-730.966	-75.299	0.099	0.036
-729.952	800.000	0.065	0.190
-728.937	800.000	-0.027	-0.081
-727.923	-80.777	0.171	-0.058
-726.908	800.000	0.049	-0.146
-725.894	-82.988	0.092	-0.030
-724.879	-89.466	-0.241	0.072
-723.864	-169.243	0.019	-0.001
-722.850	45.785	-0.086	0.080
-721.835	278.385	-0.028	0.051
-720.821	-200.000	-0.009	-0.201
-719.806	-45.287	0.284	-0.142
-718.791	-122.936	0.187	0.030
-717.777	800.000	-0.081	0.266
-716.762	-6.137	-0.299	-0.206
-715.748	23.706	-0.096	-0.080
-714.733	-17.263	0.284	-0.181
-713.718	-10.767	-0.022	-0.015
-712.704	-68.518	-0.479	-0.188
-711.689	800.000	0.057	-0.215
-710.675	800.000	0.066	0.200
-709.660	374.654	-0.042	0.086
-708.645	-29.869	0.153	0.088
-707.631	-90.654	0.197	0.058
-706.616	-200.000	0.033	-0.387
-705.602	800.000	-0.046	-0.138
-704.587	-100.028	-0.131	-0.033
-703.572	-51.247	0.084	0.039
-702.558	134.001	0.161	0.211
-701.543	-190.936	0.237	-0.003
-700.529	-104.570	-0.107	-0.025
-699.514	69.292	0.085	-0.088
-698.499	71.040	-0.139	-0.146
-697.485	800.000	-0.110	0.411
-696.470	800.000	-0.061	0.213
-695.456	24.753	0.036	0.030
-694.441	0.722	0.203	-0.147
-693.426	-200.000	-0.003	-0.097
-692.412	94.612	-0.237	-0.271
-691.397	96.296	0.083	-0.095
-690.383	800.000	-0.028	-0.082
-689.368	800.000	0.058	-0.176
-688.354	-200.000	-0.015	0.112
-687.339	-51.092	0.118	0.056
-686.324	48.413	-0.319	-0.301
-685.310	105.547	0.200	-0.239
-684.295	-89.585	-0.244	-0.072
-683.281	-41.916	0.245	0.127
-682.266	-58.327	0.252	-0.110
-681.251	-131.143	0.111	0.015
-680.237	800.000	0.087	-0.255
-679.222	-57.378	0.246	-0.109
-678.208	-179.533	0.440	0.010
-677.193	126.790	-0.152	0.194
-676.178	305.939	-0.090	-0.169
-675.164	789.791	0.072	0.200
-674.149	-29.170	-0.323	0.187
-673.135	602.645	0.144	0.362
-672.120	285.914	-0.034	-0.063
-671.105	656.289	-0.028	-0.072
-670.091	-118.134	0.156	-0.028
-669.076	-43.266	-0.460	-0.234
-668.062	-84.819	-0.246	-0.078
-667.047	413.082	-0.171	0.366
-666.032	-21.358	0.105	0.065
-665.018	-88.300	0.127	-0.038
-664.003	-59.038	-0.229	-0.100
-662.989	-200.000	0.038	0.175
-661.974	138.426	0.124	0.164
-660.959	-9.786	0.089	-0.060
-659.945	-200.000	0.019	-0.100
-658.930	-1.786	0.099	-0.070
-657.916	-166.923	0.181	0.007
-656.901	14.076	0.072	0.057
-655.886	-78.690	0.135	-0.047
-654.872	-130.643	-0.154	-0.021
-653.857	-200.000	0.038	-0.243
-652.843	-114.427	0.184	0.036
-651.828	-116.545	0.136	0.025
-650.814	-200.000	0.455	0.001
-649.799	78.812	0.291	0.313
-648.784	196.414	-0.149	-0.228
-647.770	516.622	0.117	0.275
-646.755	144.466	-0.147	0.198
-645.741	-63.134	0.074	-0.031
-644.726	-114.535	-0.268	-0.052
-643.711	97.895	0.121	0.140
-642.697	498.569	-0.074	-0.171
-641.682	29.251	0.030	0.026
-640.668	437.334	-0.173	-0.379
-639.653	578.074	-0.179	-0.441
-638.638	53.651	0.406	-0.393
-637.624	-30.634	-0.296	-0.168
-636.609	-200.000	-0.005	0.109
-635.595	105.955	0.144	0.171
-634.580	98.426	-0.248	0.288
-633.565	-110.846	-0.289	0.060
-632.551	39.747	-0.131	-0.118
-631.536	-58.837	0.075	-0.033
-630.522	-151.639	0.084	-0.006
-629.507	322.054	0.102	-0.195
-628.492	233.783	-0.142	0.234
-627.478	-200.000	-0.058	0.299
-626.463	-8.965	0.104	0.070
-625.449	-157.203	-0.285	0.017
-624.434	208.257	0.034	-0.053
-623.419	-5.758	-0.331	0.228
-622.405	-143.850	0.033	0.003
-621.390	-200.000	0.003	0.152
-620.376	-100.982	0.205	-0.051
-619.361	-200.000	-0.031	0.158
-618.346	-123.344	-0.354	-0.057
-617.332	-34.509	-0.254	0.140
-616.317	-186.066	-0.330	-0.005
-615.303	-200.000	-0.033	-0.182
-614.288	-200.000	-0.022	-0.099
-613.273	10.049	-0.230	-0.176
-612.259	1.395	-0.032	-0.023
-611.244	-19.891	-0.170	0.106
-610.230	800.000	0.053	0.171
-609.215	-0.415	0.119	-0.085
-608.201	-200.000	-0.033	-0.217
-607.186	-64.492	-0.115	-0.047
-606.171	52.163	0.198	0.190
-605.157	551.818	0.063	0.151
-604.142	-119.913	0.200	0.035
-603.128	134.255	0.175	0.228
-602.113	800.000	0.064	-0.249
-601.098	411.611	-0.064	-0.137
-600.084	-63.736	0.224	0.092
-599.069	127.635	-0.099	-0.126
-598.055	-50.742	-0.153	-0.072
-597.040	-20.355	-0.444	0.275
-596.025	-200.000	-0.039	0.228
-595.011	12.342	0.164	0.127
-593.996	800.000	-0.017	-0.069
-592.982	-64.892	-0.108	0.044
-591.967	114.217	-0.297	0.363
-590.952	93.106	0.050	-0.057
-589.938	-167.358	0.220	-0.009
-588.923	-78.705	0.370	-0.127
-587.909	-51.463	0.205	0.096
-586.894	-121.095	0.028	-0.005
-585.879	91.449	-0.073	-0.082
-584.865	-142.850	-0.040	-0.004
-583.850	35.210	0.229	-0.202
-582.836	-46.784	0.186	-0.092
-581.821	800.000	-0.049	0.165
-580.806	69.835	-0.161	0.167
-579.792	-148.782	0.264	-0.021
-578.777	-200.000	0.037	0.272
-577.763	-112.890	-0.140	0.028
-576.748	800.000	-0.096	-0.359
-575.733	800.000	0.080	-0.261
-574.719	-42.897	0.162	-0.083
-573.704	-200.000	0.015	0.179
-572.690	-107.582	0.207	0.045
-571.675	355.917	-0.045	-0.090
-570.661	-5.229	-0.351	-0.242
-569.646	-200.000	0.146	-0.000
-568.631	-104.661	-0.146	0.034
-567.617	-136.974	0.173	0.020
-566.602	-82.869	0.388	-0.126
-565.588	-200.000	-0.036	0.287
-564.573	-200.000	-0.015	0.477
-563.558	-112.417	-0.138	0.028
-562.544	-200.000	0.033	-0.322
-561.529	-200.000	0.034	-0.357
-560.515	567.171	0.050	0.121
-559.500	14.135	0.180	0.141
-558.485	-200.000	-0.036	0.323
-557.471	442.006	0.059	-0.130
-556.456	-163.829	0.156	0.007
-555.442	800.000	0.058	-0.239
-554.427	95.915	-0.152	-0.175
-553.412	-113.810	0.257	-0.050
-552.398	-41.714	-0.207	0.107
-551.383	179.540	-0.235	-0.346
-550.369	707.714	-0.121	-0.321
-549.354	-90.982	-0.264	0.076
-548.339	-38.819	-0.174	-0.092
-547.325	362.499	0.111	0.222
-546.310	326.568	0.177	0.340
-545.296	-83.252	-0.281	-0.090
-544.281	800.000	0.039	-0.135
-543.266	575.894	-0.118	-0.289
-542.252	-144.329	-0.193	-0.018
-541.237	129.207	0.082	-0.106
-540.223	506.437	0.124	0.288
-539.208	800.000	0.052	0.175
-538.193	-39.291	0.258	-0.136
-537.179	800.000	-0.039	-0.157
-536.164	189.068	0.162	-0.243
-535.150	-164.237	-0.212	-0.010
-534.135	51.465	0.247	0.235
-533.121	286.331	-0.192	-0.347
-532.106	-125.754	0.214	-0.032
-531.091	-72.023	-0.307	0.114
-530.077	-84.476	0.123	0.039
-529.062	102.529	-0.064	-0.075
-528.048	89.413	-0.135	0.150
-527.033	-200.000	-0.197	0.000
-526.018	-200.000	0.027	0.175
-525.004	-30.742	-0.112	-0.064
-523.989	-200.000	-0.020	0.121
-522.975	183.932	-0.263	0.390
-521.960	-139.850	-0.322	-0.034
-520.945	800.000	0.109	-0.383
-519.931	-15.925	0.248	0.158
-518.916	-176.767	-0.402	0.010
-517.902	-101.590	0.048	0.012
-516.887	136.159	-0.050	-0.065
-515.872	28.441	0.218	-0.185
-514.858	-200.000	0.018	0.205
-513.843	-200.000	-0.045	-0.199
-512.829	-79.736	0.274	0.092
-511.814	-139.848	0.153	0.016
-510.799	800.000	0.055	0.167
-509.785	584.039	-0.100	0.247
-508.770	-119.257	0.285	0.050
-507.756	-71.877	0.331	-0.123
-506.741	-102.216	0.070	-0.017
-505.726	428.222	-0.090	-0.195
-504.712	-15.717	-0.276	-0.176
-503.697	359.400	0.030	0.061
-502.683	-200.000	-0.013	0.160
-501.668	229.001	-0.078	-0.128
-500.653	-89.772	-0.102	-0.030
-499.639	800.000	0.067	0.191
-498.624	-67.974	0.166	-0.065
-497.610	453.908	-0.116	0.258
-496.595	84.903	0.006	-0.006
-495.581	149.667	0.057	0.077
-494.566	110.112	0.135	-0.163
-493.551	800.000	-0.048	0.185
-492.537	-200.000	0.003	0.050
-491.522	-54.136	-0.169	-0.077
-490.508	537.739	-0.121	0.287
-489.493	-48.922	-0.298	-0.143
-488.478	225.119	0.160	-0.260
-487.464	-114.589	-0.234	0.045
-486.449	701.081	-0.156	0.410
-485.435	15.213	0.169	-0.132
-484.420	65.871	-0.151	0.153
-483.405	800.000	0.065	-0.253
-482.391	800.000	0.047	-0.177
-481.376	-200.000	0.010	0.083
-480.362	-200.000	0.061	-0.271
-479.347	663.762	-0.059	-0.153
-478.332	391.361	0.039	-0.082
-477.318	-75.279	-0.435	0.155
-476.303	80.921	-0.092	-0.100
-475.289	-94.123	-0.133	-0.037
-474.274	328.579	0.120	0.231
-473.259	220.494	0.161	0.257
-472.245	-17.005	-0.109	-0.068
-471.230	-200.000	0.060	-0.391
-470.216	-33.271	-0.222	0.123
-469.201	-101.824	0.414	-0.100
-468.186	709.325	-0.068	0.180
-467.172	-64.217	-0.385	0.157
-466.157	-200.000	0.011	0.168
-465.143	800.000	0.110	0.349
-464.128	4.735	0.013	0.010
-463.113	-200.000	-0.017	-0.120
-462.099	800.000	0.031	0.124
-461.084	-24.696	0.262	-0.156
-460.070	-163.544	-0.260	0.012
-459.055	159.743	0.178	-0.248
-458.040	167.889	0.108	0.154
-457.026	-33.205	-0.034	-0.019
-456.011	-53.910	0.345	0.157
-454.997	800.000	-0.032	0.137
-453.982	-0.086	0.274	-0.195
-452.968	51.066	-0.232	-0.220
-451.953	241.728	0.078	0.130
-450.938	800.000	0.132	-0.515
-449.924	-133.829	0.279	-0.035
-448.909	212.279	-0.132	0.207
-447.895	800.000	-0.161	0.493
-446.880	800.000	-0.098	0.277
-445.865	-126.298	0.042	0.006
-444.851	-57.237	-0.136	0.060
-443.836	191.038	-0.063	0.094
-442.822	195.239	0.113	0.171
-441.807	795.683	-0.066	-0.180
-440.792	50.089	-0.038	0.036
-439.778	-66.413	-0.176	-0.070
-438.763	-200.000	-0.058	-0.263
-437.749	1.938	-0.201	-0.145
-436.734	-200.000	-0.049	-0.225
-435.719	800.000	-0.102	-0.291
-434.705	-65.311	0.404	0.162
-433.690	8.314	-0.182	-0.136
-432.676	266.350	-0.180	0.314
-431.661	-200.000	0.043	-0.282
-430.646	-50.907	0.022	0.010
-429.632	-188.644	-0.110	0.001
-428.617	49.256	-0.184	-0.172
-427.603	-200.000	0.024	-0.334
-426.588	123.001	-0.055	0.069
-425.573	-58.134	-0.101	0.044
-424.559	800.000	0.152	0.448
-423.544	-24.463	0.390	0.232
-422.530	-200.000	0.023	0.111
-421.515	-63.122	-0.281	0.116
-420.500	-142.607	-0.221	-0.022
-419.486	191.223	0.174	-0.261
-418.471	-75.446	-0.085	-0.030
-417.457	-200.000	-0.048	-0.385
-416.442	-151.738	0.276	0.020
-415.428	-24.526	-0.211	0.125
-414.413	-75.421	-0.242	-0.086
-413.398	-125.331	-0.256	0.039
-412.384	-200.000	-0.192	-0.001
-411.369	-200.000	0.034	0.355
-410.355	-13.055	-0.136	-0.088
-409.340	316.547	-0.068	0.128
-408.325	10.316	-0.192	0.146
-407.311	49.304	0.272	0.255
-406.296	-200.000	0.023	-0.196
-405.282	-152.696	-0.129	-0.009
-404.267	-14.241	-0.095	0.061
-403.252	54.345	-0.192	0.184
-402.238	32.071	0.168	-0.145
-401.223	247.780	-0.066	0.111
-400.209	116.107	0.169	-0.206
-399.194	-155.474	-0.426	0.027
-398.179	-200.000	0.028	-0.266
-397.165	11.181	-0.165	0.126
-396.150	57.193	-0.174	-0.170
-395.136	-194.482	-0.114	0.001
-394.121	136.703	0.079	-0.103
-393.106	-200.000	0.033	0.239
-392.092	-115.479	0.079	-0.015
-391.077	-200.000	0.021	-0.198
-390.063	800.000	-0.034	0.127
-389.048	40.647	0.054	-0.049
-388.033	-1.339	-0.154	0.109
-387.019	-40.894	0.074	-0.038
-386.004	-121.932	0.331	-0.054
-384.990	91.585	-0.115	-0.129
-383.975	95.421	0.051	0.057
-382.960	293.830	0.088	0.161
-381.946	-2.652	0.122	0.085
-380.931	357.682	0.142	-0.283
-379.917	-39.023	-0.182	-0.095
-378.902	-59.603	0.063	-0.027
-377.888	416.239	-0.030	0.064
-376.873	-200.000	0.006	-0.059
-375.858	40.967	0.226	-0.203
-374.844	538.501	0.076	0.180
-373.829	-200.000	0.017	-0.138
-372.815	24.532	-0.027	-0.022
-371.800	800.000	0.049	0.177
-370.785	189.628	-0.181	-0.270
-369.771	240.546	-0.107	0.178
-368.756	-200.000	-0.055	-0.256
-367.742	9.234	0.119	-0.090
-366.727	-58.654	-0.227	-0.098
-365.712	68.417	0.263	0.268
-364.698	165.260	-0.314	0.442
-363.683	46.566	-0.202	0.187
-362.669	-41.457	-0.165	0.085
-361.654	-78.080	0.517	-0.177
-360.639	84.062	0.237	0.258
-359.625	800.000	-0.013	-0.045
-358.610	568.747	0.106	-0.256
-357.596	366.890	-0.046	-0.092
-356.581	-200.000	-0.052	0.452
-355.566	-60.987	0.236	0.099
-354.552	256.566	0.115	-0.196
-353.537	-56.278	0.221	-0.098
-352.523	-9.478	-0.051	-0.034
-351.508	16.978	-0.330	-0.260
-350.493	48.409	0.287	0.268
-349.479	-182.871	-0.069	0.001
-348.464	78.093	0.222	0.235
-347.450	34.230	0.254	0.220
-346.435	-200.000	-0.030	-0.246
-345.420	-45.392	0.183	0.090
-344.406	142.208	0.108	-0.143
-343.391	-3.850	-0.331	-0.228
-342.377	-88.877	-0.137	0.040
-341.362	136.535	0.227	0.295
-340.348	-137.312	0.224	-0.025
-339.333	-87.375	0.065	0.020
-338.318	374.537	0.083	-0.168
-337.304	-70.046	0.237	-0.090
-336.289	-33.136	-0.025	-0.014
-335.275	-62.832	0.290	-0.119
-334.260	-130.329	0.233	0.031
-333.245	800.000	0.069	-0.210
-332.231	800.000	-0.085	0.329
-331.216	-131.992	-0.227	0.029
-330.202	403.163	0.172	0.361
-329.187	-76.502	0.306	0.107
-328.172	297.738	0.129	-0.235
-327.158	-200.000	-0.016	0.098
-326.143	-200.000	-0.031	-0.179
-325.129	139.597	0.185	-0.242
-324.114	-140.338	0.130	-0.013
-323.099	-156.192	-0.186	0.012
-322.085	213.073	0.033	-0.052
-321.070	53.720	-0.254	-0.243
-320.056	-101.750	0.329	-0.079
-319.041	49.492	-0.203	-0.190
-318.026	128.210	-0.172	-0.217
-317.012	-83.242	0.112	0.036
-315.997	-140.630	0.294	-0.030
-314.983	32.099	0.151	-0.129
-313.968	-200.000	-0.009	-0.057
-312.953	-6.661	0.373	-0.252
-311.939	274.906	0.119	0.210
-310.924	2.065	-0.309	0.222
-309.910	-200.000	-0.032	0.353
-308.895	109.356	-0.177	-0.211
-307.880	21.727	0.150	-0.121
-306.866	115.209	-0.251	-0.305
-305.851	620.049	0.033	0.082
-304.837	-137.692	0.059	-0.007
-303.822	80.102	-0.190	0.203
-302.807	150.943	0.118	0.159
-301.793	-181.230	-0.263	-0.005
-300.778	-20.972	-0.322	-0.196
-299.764	800.000	0.071	0.294
-298.749	373.331	-0.162	0.328
-297.735	159.318	0.134	-0.185
-296.720	369.478	-0.093	0.188
-295.705	-200.000	-0.050	0.226
-294.691	-200.000	0.049	-0.349
-293.676	-158.898	-0.097	-0.005
-292.662	203.949	0.218	-0.336
-291.647	-185.218	-0.213	0.003
-290.632	-45.562	0.094	-0.046
-289.618	438.231	-0.097	0.209
-288.603	-18.719	0.136	-0.084
-287.589	-200.000	-0.037	0.225
-286.574	187.746	0.181	0.269
-285.559	-200.000	0.013	-0.072
-284.545	46.111	-0.144	-0.132
-283.530	800.000	-0.086	0.283
-282.516	-200.000	-0.014	0.353
-281.501	488.472	-0.182	0.413
-280.486	800.000	0.192	0.546
-279.472	-146.372	0.154	0.013
-278.457	-123.962	0.128	0.020
-277.443	6.978	-0.098	0.072
-276.428	2.543	-0.248	0.178
-275.413	-157.739	0.588	0.035
-274.399	264.812	-0.132	0.228
-273.384	74.205	0.131	0.136
-272.370	19.461	0.212	-0.169
-271.355	293.625	-0.090	-0.163
-270.340	466.386	0.094	-0.209
-269.326	-94.782	-0.330	0.089
-268.311	-153.970	0.229	0.015
-267.297	-94.544	0.350	-0.094
-266.282	-200.000	0.000	-0.042
-265.267	-200.000	-0.047	0.234
-264.253	-200.000	-0.082	0.644
-263.238	-194.398	-0.244	0.002
-262.224	-11.284	0.183	0.119
-261.209	-200.000	0.103	-0.487
-260.195	-200.000	-0.023	0.291
-259.180	510.331	-0.068	0.157
-258.165	-155.690	-0.265	-0.017
-257.151	-20.346	0.174	0.106
-256.136	-200.000	0.051	-0.340
-255.122	108.088	0.181	-0.214
-254.107	-76.734	-0.351	-0.122
-253.092	531.197	0.080	-0.186
-252.078	-88.844	0.163	-0.048
-251.063	-58.757	0.217	0.093
-250.049	439.194	-0.044	0.095
-249.034	237.110	0.123	0.202
-248.019	-125.560	-0.159	0.024
-247.005	-200.000	0.040	-0.214
-245.990	-14.655	0.055	0.035
-244.976	-163.338	-0.213	0.010
-243.961	-153.345	-0.117	-0.008
-242.946	800.000	-0.096	-0.351
-241.932	800.000	-0.120	-0.334
-240.917	-200.000	-0.035	-0.218
-239.903	-200.000	-0.052	0.244
-238.888	-200.000	0.001	0.329
-237.873	800.000	0.040	-0.141
-236.859	-200.000	0.065	-0.294
-235.844	-12.889	-0.218	-0.141
-234.830	-200.000	0.008	0.316
-233.815	-200.000	0.067	0.300
-232.800	453.124	0.055	-0.121
-231.786	-71.158	0.048	-0.018
-230.771	-200.000	0.015	0.139
-229.757	800.000	-0.017	0.049
-228.742	-66.716	-0.257	-0.101
-227.727	19.774	0.204	-0.163
-226.713	72.090	-0.151	0.156
-225.698	384.514	-0.082	0.168
-224.684	11.060	-0.055	0.041
-223.669	-200.000	-0.028	-0.240
-222.655	419.059	-0.041	-0.086
-221.640	800.000	0.015	-0.060
-220.625	221.465	0.240	0.382
-219.611	-149.966	0.128	-0.010
-218.596	-73.309	-0.238	0.086
-217.582	-124.244	-0.207	0.032
-216.567	236.889	-0.051	0.084
-215.552	-133.834	0.469	-0.058
-214.538	-31.469	0.334	0.186
-213.523	35.479	-0.207	0.180
-212.509	-171.803	0.119	0.004
-211.494	179.088	0.077	-0.112
-210.479	-200.000	-0.014	-0.280
-209.465	-0.831	0.052	0.036
-208.450	800.000	0.041	-0.142
-207.436	-27.621	-0.166	0.095
-206.421	41.447	-0.168	-0.151
-205.406	411.284	0.067	0.142
-204.392	-62.883	0.165	-0.067
-203.377	209.440	-0.122	0.189
-202.363	-200.000	0.005	-0.044
-201.348	-200.000	-0.004	-0.100
-200.333	-117.333	-0.159	0.028
-199.319	9.825	-0.047	-0.035
-198.304	281.078	0.006	0.011
-197.290	800.000	0.134	-0.473
-196.275	74.639	0.149	-0.155
-195.260	-73.776	0.208	-0.075
-194.246	115.925	-0.146	-0.177
-193.231	-200.000	-0.004	-0.234
-192.217	-82.557	0.260	-0.083
-191.202	618.597	-0.065	0.162
-190.187	-106.141	-0.116	0.026
-189.173	-157.658	0.210	0.012
-188.158	175.398	0.147	-0.211
-187.144	43.340	-0.147	0.132
-186.129	-9.920	-0.214	0.141
-185.114	17.398	-0.145	-0.114
-184.100	-89.781	0.065	0.019
-183.085	-79.054	0.203	-0.068
-182.071	-117.661	0.256	-0.046
-181.056	51.480	-0.201	-0.189
-180.042	295.222	0.176	0.318
-179.027	150.070	-0.033	-0.044
-178.012	134.992	-0.141	-0.181
-176.998	165.801	0.138	0.193
-175.983	68.564	0.096	0.098
-174.969	-73.706	-0.259	0.093
-173.954	430.727	0.095	-0.203
-172.939	-38.737	-0.373	-0.194
-171.925	-200.000	0.027	-0.280
-170.910	-61.813	0.081	-0.033
-169.896	-200.000	0.024	0.219
-168.881	-125.656	0.212	-0.032
-167.866	46.348	0.075	-0.068
-166.852	37.483	-0.144	-0.126
-165.837	-111.566	0.329	0.066
-164.823	-200.000	-0.045	0.339
-163.808	401.757	0.181	-0.375
-162.793	800.000	-0.063	-0.210
-161.779	153.229	-0.051	-0.069
-160.764	-53.910	0.280	-0.126
-159.750	-102.945	0.174	0.041
-158.735	-15.962	-0.278	-0.175
-157.720	800.000	-0.020	0.066
-156.706	238.734	0.154	-0.253
-155.691	-167.612	-0.192	-0.008
-154.677	-29.571	-0.232	0.131
-153.662	-200.000	-0.034	-0.282
-152.647	90.736	0.158	0.175
-151.633	-28.184	0.239	-0.136
-150.618	-200.000	0.054	0.300
-149.604	-13.463	0.188	0.120
-148.589	-84.383	0.357	0.112
-147.574	-10.639	-0.192	0.126
-146.560	800.000	-0.147	0.540
-145.545	-37.667	-0.237	0.125
-144.531	-92.396	-0.197	0.055
-143.516	-200.000	0.014	-0.115
-142.502	-200.000	-0.017	0.137
-141.487	290.838	-0.113	-0.202
-140.472	259.888	0.014	0.025
-139.458	253.090	0.111	-0.187
-138.443	800.000	-0.102	-0.370
-137.429	261.131	0.057	0.098
-136.414	-146.313	0.154	-0.013
-135.399	31.521	-0.146	-0.124
-134.385	-119.162	0.044	0.008
-133.370	-87.803	-0.262	0.078
-132.356	-200.000	0.010	-0.089
-131.341	-73.799	0.123	0.044
-130.326	800.000	-0.096	0.346
-129.312	-78.745	0.447	0.150
-128.297	194.150	0.211	0.316
-127.283	-177.379	0.164	-0.004
-126.268	-191.966	0.129	0.001
-125.253	138.020	0.102	0.132
-124.239	58.098	0.229	-0.222
-123.224	-146.770	0.263	-0.022
-122.210	-131.595	0.234	-0.030
-121.195	33.066	0.186	-0.159
-120.180	66.961	-0.288	-0.289
-119.166	-200.000	0.006	0.103
-118.151	59.172	0.153	-0.149
-117.137	-169.457	0.086	-0.003
-116.122	315.689	-0.085	0.159
-115.107	-75.762	0.273	-0.095
-114.093	198.535	0.152	0.230
-113.078	-97.855	-0.133	-0.034
-112.064	-146.448	-0.190	0.016
-111.049	-200.000	0.006	0.060
-110.034	230.869	0.098	-0.158
-109.020	-200.000	-0.011	-0.282
-108.005	-200.000	-0.021	0.520
-106.991	-200.000	-0.001	-0.115
-105.976	-137.353	0.244	-0.027
-104.962	-200.000	0.001	-0.185
-103.947	-128.730	0.516	-0.072
-102.932	109.597	0.150	-0.177
-101.918	800.000	0.032	-0.126
-100.903	232.252	-0.080	0.129
-99.889	548.150	0.043	0.103
-98.874	36.694	0.100	0.087
-97.859	54.960	-0.083	-0.079
-96.845	-140.421	0.147	0.015
-95.830	-87.206	0.282	-0.084
-94.816	-45.154	0.475	0.233
-93.801	-155.905	0.134	-0.008
-92.786	35.310	-0.278	0.241
-91.772	64.079	-0.022	-0.022
-90.757	-51.551	-0.147	-0.068
-89.743	86.319	0.321	0.348
-88.728	-61.451	-0.235	-0.097
-87.713	93.508	-0.104	0.116
-86.699	-141.070	0.109	0.011
-85.684	42.882	-0.381	-0.342
-84.670	131.889	0.141	-0.179
-83.655	464.769	0.033	0.073
-82.640	194.244	-0.205	-0.305
-81.626	88.770	-0.071	-0.078
-80.611	-127.661	0.256	-0.036
-79.597	365.618	-0.040	-0.079
-78.582	-39.261	0.393	0.203
-77.567	-200.000	0.020	-0.100
-76.553	-60.542	-0.313	-0.131
-75.538	-18.852	0.191	0.117
-74.524	-2.562	0.114	-0.079
-73.509	638.246	0.010	-0.024
-72.494	-200.000	0.039	0.223
-71.480	-200.000	0.024	-0.326
-70.465	-200.000	-0.002	0.245
-69.451	131.963	0.120	-0.152
-68.436	-176.937	-0.161	-0.004
-67.422	800.000	0.058	0.251
-66.407	-68.628	0.053	-0.020
-65.392	-74.187	-0.240	0.085
-64.378	-80.536	0.247	0.081
-63.363	-145.431	0.277	0.025
-62.349	-118.414	0.054	0.010
-61.334	4.078	-0.737	-0.530
-60.319	99.133	0.214	0.244
-59.305	-200.000	0.105	-0.721
-58.290	253.796	0.548	0.921
-57.276	783.122	0.544	1.467
-56.261	-200.000	88.834	514.561
-55.246	514.478	1359.492	3120.498
-54.232	153.841	2577.948	3475.450
-53.217	110.484	2297.024	2715.470
-52.203	46.448	1917.048	1748.806
-51.188	40.139	1708.435	1510.463
-50.173	37.472	1663.312	1450.649
-49.159	53.486	1708.996	1611.858
-48.144	57.146	1727.076	1656.495
-47.130	40.039	1684.776	1488.558
-46.115	37.030	1669.717	1452.692
-45.100	36.909	1665.024	1447.645
-44.086	36.830	1662.576	1444.875
-43.071	36.778	1659.873	1442.074
-42.057	36.801	1657.142	1439.821
-41.042	36.812	1655.541	1438.454
-40.027	36.851	1653.590	1436.991
-39.013	36.920	1651.611	1435.725
-37.998	36.891	1649.703	1433.790
-36.984	36.905	1648.785	1433.043
-35.969	37.050	1647.171	1432.656
-34.954	37.070	1645.277	1431.098
-33.940	37.000	1643.871	1429.303
-32.925	36.937	1641.932	1427.096
-31.911	37.037	1640.386	1426.432
-30.896	36.895	1638.759	1423.919
-29.881	36.937	1636.861	1422.520
-28.867	37.013	1634.882	1421.298
-27.852	37.106	1633.670	1420.868
-26.838	36.997	1632.282	1418.810
-25.823	36.972	1630.907	1417.376
-24.809	36.953	1629.553	1416.000
-23.794	36.931	1628.279	1414.679
-22.779	37.008	1626.422	1413.571
-21.765	37.006	1624.886	1412.169
-20.750	37.029	1623.363	1410.952
-19.736	37.077	1621.912	1409.984
-18.721	37.074	1620.842	1408.975
-17.706	37.024	1619.151	1407.092
-16.692	37.054	1617.362	1405.696
-15.677	37.053	1616.361	1404.764
-14.663	37.044	1615.238	1403.668
-13.648	37.038	1614.107	1402.580
-12.633	36.948	1612.479	1400.466
-11.619	37.056	1610.456	1399.427
-10.604	37.024	1608.725	1397.640
-9.590	37.059	1607.984	1397.189
-8.575	37.058	1606.671	1395.988
-7.560	37.030	1605.375	1394.609
-6.546	37.049	1604.209	1393.671
-5.531	37.015	1603.131	1392.436
-4.517	37.033	1601.924	1391.464
-3.502	37.038	1601.216	1390.829
-2.487	36.995	1599.743	1389.184
-1.473	36.749	1587.765	1376.978
-0.458	33.753	1567.801	1338.529
0.556	29.701	1567.147	1303.613
1.571	27.048	1590.462	1303.871
2.586	26.355	1604.715	1310.420
3.600	23.449	1551.251	1246.250
4.615	12.977	1438.504	1086.938
5.629	3.506	1368.123	974.079
6.644	1.678	1359.080	956.078
7.659	1.489	1357.674	953.824
8.673	1.471	1355.883	952.364
9.688	1.523	1353.772	951.124
10.702	1.163	1351.917	947.490
11.717	4.854	1358.765	975.350
12.731	15.301	1378.503	1055.506
13.746	23.674	1392.934	1119.490
14.761	25.366	1395.251	1131.925
15.775	25.658	1394.958	1133.428
16.790	25.817	1393.944	1133.504
17.804	25.797	1393.763	1133.130
18.819	26.032	1393.514	1134.310
19.834	26.202	1392.230	1134.231
20.848	26.023	1392.423	1133.160
21.863	26.148	1391.229	1132.872
22.877	26.082	1390.598	1131.844
23.892	26.193	1389.130	1131.246
24.907	26.089	1388.886	1130.296
25.921	26.174	1387.752	1129.803
26.936	26.114	1386.723	1128.496
27.950	26.094	1385.319	1127.124
28.965	26.140	1384.027	1126.265
29.980	26.063	1383.112	1124.941
30.994	25.975	1382.298	1123.630
32.009	26.150	1380.829	1123.421
33.023	26.105	1379.704	1122.128
34.038	26.120	1378.547	1121.183
35.053	26.015	1377.751	1119.785
36.067	26.075	1376.743	1119.239
37.082	26.173	1375.291	1118.563
38.096	26.099	1374.369	1117.258
39.111	26.184	1373.411	1116.906
40.126	26.084	1372.944	1115.812
41.140	26.061	1372.617	1115.300
42.155	26.080	1372.047	1114.859
43.169	26.069	1372.338	1114.930
44.184	26.040	1371.616	1114.064
45.199	26.088	1371.501	1114.170
46.213	26.101	1370.637	1113.450
47.228	26.193	1369.462	1112.962
48.242	26.047	1368.898	1111.506
49.257	26.030	1367.344	1110.040
50.271	25.998	1366.156	1108.779
51.286	25.975	1364.957	1107.571
52.301	26.055	1363.548	1106.820
53.315	26.077	1362.392	1105.916
54.330	26.158	1361.487	1105.578
55.344	26.076	1360.656	1104.309
56.359	26.075	1359.369	1103.157
57.374	26.046	1358.835	1102.448
58.388	26.162	1357.875	1102.284
59.403	26.058	1357.469	1101.218
60.417	26.069	1356.692	1100.561
61.432	26.040	1356.233	1099.911
62.447	26.098	1355.145	1099.284
63.461	26.030	1354.405	1098.176
64.476	26.108	1353.128	1097.516
65.490	26.048	1352.153	1096.266
66.505	26.097	1350.520	1095.139
67.520	26.076	1349.330	1093.948
68.534	26.198	1348.211	1093.683
69.549	26.192	1347.369	1092.870
70.563	26.136	1346.082	1091.393
71.578	26.011	1345.655	1090.192
72.593	26.106	1344.310	1089.579
73.607	26.028	1344.222	1088.939
74.622	26.113	1343.096	1088.445
75.636	26.062	1342.560	1087.604
76.651	26.132	1341.377	1086.976
77.666	26.069	1341.615	1086.690
78.680	26.066	1340.824	1085.935
79.695	26.095	1340.105	1085.432
80.709	26.135	1339.102	1084.765
81.724	26.044	1338.261	1083.442
82.739	26.074	1337.223	1082.684
83.753	25.996	1336.603	1081.617
84.768	26.110	1334.865	1080.802
85.782	26.174	1334.227	1080.569
86.797	26.073	1333.274	1079.102
87.812	26.152	1331.885	1078.348
88.826	26.099	1331.251	1077.425
89.841	26.097	1330.180	1076.450
90.855	26.201	1328.738	1075.808
91.870	26.245	1328.076	1075.440
92.884	26.178	1327.307	1074.326
93.899	26.145	1326.521	1073.395
94.914	26.184	1325.758	1072.915
95.928	26.162	1325.081	1072.144
96.943	26.164	1324.142	1071.302
97.957	26.110	1324.101	1070.851
98.972	26.138	1322.941	1069.985
99.987	26.171	1322.024	1069.343
101.001	26.110	1320.742	1067.852
102.016	26.109	1319.825	1067.009
103.030	26.108	1319.333	1066.510
104.045	26.062	1318.474	1065.451
105.060	26.211	1317.440	1065.399
106.074	26.163	1316.558	1064.308
107.089	26.159	1315.405	1063.260
108.103	26.198	1314.237	1062.448
109.118	26.185	1313.591	1061.759
110.133	26.213	1311.891	1060.455
111.147	26.165	1311.165	1059.490
112.162	26.198	1310.144	1058.766
113.176	26.252	1308.819	1057.920
114.191	26.237	1308.066	1057.126
115.206	26.147	1307.082	1055.711
116.220	26.185	1305.745	1054.764
117.235	26.213	1304.959	1054.195
118.249	26.283	1304.146	1053.858
119.264	26.111	1303.506	1052.241
120.279	26.071	1303.253	1051.712
121.293	26.230	1301.811	1051.380
122.308	26.268	1301.130	1050.959
123.322	26.146	1300.166	1049.376
124.337	26.265	1299.381	1049.341
125.352	26.338	1298.304	1048.806
126.366	26.332	1297.473	1048.008
127.381	26.338	1296.949	1047.524
128.395	26.321	1296.042	1046.599
129.410	26.351	1295.095	1045.914
130.424	26.228	1294.496	1044.627
131.439	26.277	1293.773	1044.236
132.454	26.300	1292.766	1043.463
133.468	26.355	1291.924	1043.009
134.483	26.305	1291.592	1042.360
135.497	26.187	1291.070	1041.165
136.512	26.247	1289.451	1040.115
137.527	26.344	1288.541	1039.845
138.541	26.233	1287.473	1038.257
139.556	26.238	1286.380	1037.308
140.570	26.343	1285.229	1036.890
141.585	26.254	1284.209	1035.469
142.600	26.284	1283.346	1034.854
143.614	26.201	1282.255	1033.407
144.629	26.247	1281.194	1032.721
145.643	26.269	1280.074	1031.853
146.658	26.019	1279.825	1030.134
147.673	26.157	1278.640	1029.877
148.687	26.174	1277.620	1029.061
149.702	26.135	1276.519	1027.860
150.716	26.185	1275.318	1027.087
151.731	26.211	1274.169	1026.219
152.746	26.276	1273.104	1025.636
153.760	26.278	1272.133	1024.776
154.775	26.231	1271.387	1023.819
155.789	26.215	1270.633	1023.030
156.804	26.160	1270.118	1022.215
157.819	26.191	1269.081	1021.467
158.833	26.264	1267.949	1020.876
159.848	26.296	1267.425	1020.547
160.862	26.385	1266.562	1020.260
161.877	26.444	1265.323	1019.504
162.892	26.376	1264.798	1018.607
163.906	26.297	1264.251	1017.631
164.921	26.372	1263.350	1017.238
165.935	26.330	1263.169	1016.769
166.950	26.331	1261.910	1015.669
167.964	26.289	1261.935	1015.364
168.979	26.448	1260.861	1015.301
169.994	26.317	1260.605	1014.271
171.008	26.445	1259.534	1014.039
172.023	26.412	1259.052	1013.377
173.037	26.479	1258.291	1013.051
174.052	26.526	1257.012	1012.194
175.067	26.361	1256.475	1010.750
176.081	26.425	1255.980	1010.620
177.096	26.367	1255.616	1009.913
178.110	26.419	1254.673	1009.354
179.125	26.349	1253.380	1007.834
180.140	26.450	1252.265	1007.408
181.154	26.321	1251.271	1005.805
182.169	26.354	1250.095	1004.952
183.183	26.433	1249.040	1004.457
184.198	26.467	1247.848	1003.595
185.213	26.441	1247.384	1002.989
186.227	26.565	1246.044	1002.513
187.242	26.506	1245.045	1001.292
188.256	26.414	1244.554	1000.300
189.271	26.448	1243.516	999.565
190.286	26.412	1243.250	999.065
191.300	26.530	1242.293	998.856
192.315	26.407	1242.117	997.951
193.329	26.499	1241.246	997.671
194.344	26.462	1241.528	997.604
195.359	26.464	1240.659	996.828
196.373	26.372	1240.286	995.930
197.388	26.259	1240.077	995.054
198.402	26.398	1238.962	994.838
199.417	26.471	1239.087	995.251
200.432	26.517	1238.130	994.647
201.446	26.536	1237.624	994.258
202.461	26.473	1236.714	993.091
203.475	26.546	1235.546	992.463
204.490	26.504	1234.409	991.236
205.504	26.499	1233.871	990.685
206.519	26.601	1232.995	990.455
207.534	26.495	1231.958	988.953
208.548	26.428	1231.598	988.210
209.563	26.529	1230.333	987.663
210.577	26.609	1229.576	987.398
211.592	26.442	1229.266	986.152
212.607	26.580	1228.451	986.164
213.621	26.555	1227.233	984.965
214.636	26.685	1226.250	984.796
215.650	26.504	1225.459	983.092
216.665	26.627	1224.583	982.969
217.680	26.537	1223.882	981.828
218.694	26.539	1223.146	981.163
219.709	26.621	1222.447	980.961
220.723	26.651	1221.937	980.628
221.738	26.578	1220.914	979.322
222.753	26.555	1220.438	978.729
223.767	26.507	1219.867	977.926
224.782	26.683	1219.520	978.514
225.796	26.768	1218.748	978.265
226.811	26.671	1218.111	977.142
227.826	26.672	1217.849	976.854
228.840	26.583	1217.285	975.837
229.855	26.653	1216.564	975.548
230.869	26.745	1215.318	974.955
231.884	26.707	1214.727	974.194
232.899	26.725	1214.354	973.906
233.913	26.684	1213.710	973.082
234.928	26.818	1212.655	972.867
235.942	26.771	1212.336	972.271
236.957	26.701	1211.970	971.516
237.972	26.702	1211.182	970.806
238.986	26.839	1210.262	970.716
240.001	26.822	1209.957	970.294
241.015	26.724	1209.321	969.176
242.030	26.798	1208.126	968.524
243.045	26.757	1207.869	968.013
244.059	26.853	1206.905	967.671
245.074	26.945	1205.795	967.185
246.088	26.894	1204.773	966.007
247.103	26.849	1204.207	965.231
248.117	26.932	1203.408	964.943
249.132	26.899	1203.196	964.513
250.147	26.893	1202.265	963.650
251.161	26.942	1201.488	963.202
252.176	26.891	1200.857	962.343
253.190	26.853	1200.314	961.620
254.205	26.925	1199.788	961.492
255.220	26.868	1198.880	960.379
256.234	27.043	1198.433	960.860
257.249	26.911	1197.979	959.713
258.263	26.985	1197.080	959.301
259.278	27.089	1196.688	959.453
260.293	27.040	1196.070	958.614
261.307	27.047	1195.533	958.134
262.322	27.014	1195.236	957.636
263.336	26.984	1194.569	956.860
264.351	26.989	1193.878	956.249
265.366	26.966	1193.509	955.748
266.380	27.045	1192.576	955.331
267.395	27.018	1191.868	954.534
268.409	26.910	1191.420	953.525
269.424	26.961	1190.891	953.289
270.439	27.096	1190.286	953.428
271.453	26.975	1189.638	952.188
272.468	26.946	1188.525	951.060
273.482	27.010	1187.899	950.813
274.497	27.162	1187.468	951.175
275.512	27.172	1186.911	950.700
276.526	27.139	1186.090	949.786
277.541	27.096	1185.406	948.927
278.555	27.112	1184.644	948.317
279.570	27.086	1184.036	947.610
280.585	27.055	1183.078	946.598
281.599	27.126	1182.454	946.384
282.614	26.986	1181.768	945.023
283.628	27.117	1180.943	944.962
284.643	27.112	1180.039	944.132
285.657	27.141	1179.100	943.447
286.672	27.151	1178.169	942.670
287.687	27.183	1177.488	942.206
288.701	27.232	1176.755	941.789
289.716	27.183	1176.492	941.246
290.730	27.164	1175.699	940.426
291.745	27.331	1174.828	940.510
292.760	27.105	1174.914	939.330
293.774	27.099	1174.319	938.737
294.789	27.288	1173.369	938.872
295.803	27.287	1172.820	938.345
296.818	27.261	1172.212	937.642
297.833	27.325	1171.288	937.146
298.847	27.312	1170.936	936.714
299.862	27.243	1170.001	935.529
300.876	27.265	1169.078	934.822
301.891	27.430	1168.241	934.920
302.906	27.319	1168.098	934.149
303.920	27.383	1167.297	933.754
304.935	27.378	1166.481	932.995
305.949	27.368	1165.819	932.335
306.964	27.406	1165.460	932.155
307.979	27.431	1164.861	931.725
308.993	27.501	1163.995	931.305
310.008	27.463	1163.625	930.733
311.022	27.393	1162.673	929.535
312.037	27.448	1161.825	929.050
313.052	27.550	1160.671	928.566
314.066	27.444	1160.272	927.625
315.081	27.500	1159.101	926.893
316.095	27.492	1158.896	926.604
317.110	27.446	1158.554	926.017
318.125	27.526	1157.806	925.743
319.139	27.489	1157.122	924.927
320.154	27.439	1156.728	924.274
321.168	27.493	1156.096	923.966
322.183	27.477	1155.763	923.535
323.197	27.453	1154.993	922.716
324.212	27.531	1154.370	922.531
325.227	27.582	1153.546	922.051
326.241	27.528	1153.496	921.656
327.256	27.573	1152.653	921.125
328.270	27.585	1151.359	920.074
329.285	27.647	1150.585	919.683
330.300	27.462	1150.283	918.431
331.314	27.742	1148.843	918.608
332.329	27.682	1148.390	917.865
333.343	27.678	1147.529	917.075
334.358	27.808	1146.741	917.018
335.373	27.644	1146.233	915.703
336.387	27.630	1145.712	915.135
337.402	27.847	1144.727	915.356
338.416	27.734	1144.580	914.590
339.431	27.688	1144.001	913.821
340.446	27.653	1143.369	913.058
341.460	27.782	1142.385	912.834
342.475	27.857	1141.438	912.371
343.489	27.912	1140.631	911.920
344.504	27.739	1139.872	910.373
345.519	27.784	1139.145	909.936
346.533	27.881	1138.208	909.587
347.548	27.860	1137.751	909.038
348.562	27.906	1136.925	908.525
349.577	27.786	1136.467	907.482
350.592	27.805	1135.089	906.397
351.606	27.803	1134.857	906.121
352.621	27.755	1134.396	905.435
353.635	27.853	1133.521	905.142
354.650	27.876	1132.984	904.750
355.665	27.857	1132.236	903.975
356.679	27.879	1131.702	903.581
357.694	27.930	1131.233	903.379
358.708	27.896	1130.813	902.795
359.723	27.954	1129.660	902.079
360.738	27.844	1129.185	901.076
361.752	27.886	1128.408	900.585
362.767	27.985	1127.807	900.511
363.781	28.031	1127.511	900.423
364.796	28.091	1126.697	899.992
365.810	28.133	1126.304	899.805
366.825	28.074	1125.478	898.775
367.840	28.151	1125.142	898.803
368.854	28.026	1125.044	898.029
369.869	28.074	1124.064	897.407
370.883	28.132	1123.233	896.948
371.898	28.155	1122.687	896.543
372.913	28.214	1121.988	896.197
373.927	28.118	1121.505	895.261
374.942	28.240	1120.934	895.322
375.956	28.295	1120.328	895.030
376.971	28.139	1119.967	893.896
377.986	28.112	1119.653	893.436
379.000	28.239	1118.397	892.975
380.015	28.216	1118.257	892.672
381.029	28.116	1117.650	891.622
382.044	28.227	1116.887	891.475
383.059	28.222	1116.464	891.034
384.073	28.304	1115.793	890.819
385.088	28.423	1115.106	890.769
386.102	28.297	1114.054	889.239
387.117	28.180	1113.155	887.876
388.132	28.259	1112.261	887.466
389.146	28.310	1111.719	887.201
390.161	28.316	1111.090	886.648
391.175	28.222	1110.476	885.624
392.190	28.231	1109.771	885.028
393.205	28.366	1109.097	885.068
394.219	28.307	1108.319	884.081
395.234	28.363	1107.540	883.653
396.248	28.419	1106.850	883.296
397.263	28.405	1106.015	882.484
398.278	28.412	1105.649	882.146
399.292	28.456	1105.016	881.774
400.307	28.591	1104.160	881.662
401.321	28.426	1103.496	880.263
402.336	28.341	1103.254	879.582
403.350	28.434	1102.528	879.371
404.365	28.525	1101.804	879.154
405.380	28.496	1101.007	878.302
406.394	28.558	1100.238	877.908
407.409	28.675	1099.155	877.522
408.423	28.664	1098.712	877.039
409.438	28.600	1098.151	876.207
410.453	28.576	1098.015	875.909
411.467	28.707	1096.849	875.525
412.482	28.641	1096.218	874.631
413.496	28.657	1095.495	874.052
414.511	28.663	1094.781	873.430
415.526	28.670	1094.095	872.840
416.540	28.579	1094.128	872.358
417.555	28.582	1093.600	871.875
418.569	28.809	1092.971	872.375
419.584	28.765	1092.537	871.742
420.599	28.653	1092.257	870.909
421.613	98.854	1312.807	1427.450
422.628	92.282	1344.918	1427.571
