DTS Sentinel unit serial number:	SN413079Multiplexer serial number:	ORYXHardware model number:	OX4-SRSoftware version number:	ORYX F/W v4.00 Oryx Data Collector v3.7.2.0data status	okinstallation	princeton_trtdifferential loss correction	single-endedforward channel	channel 2reverse channel	N/Adate	2019/09/10time	21:25:11forward acquisition time	60.00reverse acquisition time	0.00gamma	496.2192k internal	0.2330k external	0.2330temperature offset calibration	0.9948default loss term (dB/km)	0.3790temperature slope calibration	1.0000multiplexer offset coefficient	1.0000multiplexer slope coefficient	1.0000fibre end	0.00T internal ref (°C)	31.19T ext. ref 1 (°C)	-0.32T ext. ref 2 (°C)	24.35length (m)	temperature (°C)	Stokes	anti-Stokes-747.200	399.711	-0.144	0.304
-746.185	-184.657	-0.128	0.002
-745.171	-103.002	0.101	0.024
-744.156	74.066	0.063	0.066
-743.142	-87.735	0.252	-0.076
-742.127	-100.921	-0.105	0.026
-741.112	265.532	-0.071	0.124
-740.098	77.659	0.191	0.205
-739.083	-9.210	-0.080	0.054
-738.069	163.790	0.084	0.118
-737.054	-69.133	0.056	0.022
-736.039	138.369	-0.021	-0.028
-735.025	30.705	0.329	0.284
-734.010	-46.196	-0.465	-0.230
-732.996	12.494	0.092	-0.072
-731.981	800.000	0.109	-0.420
-730.966	800.000	0.102	-0.284
-729.952	-2.077	-0.143	0.101
-728.937	-114.719	0.193	0.037
-727.923	800.000	0.034	0.126
-726.908	97.661	-0.224	-0.259
-725.894	-98.751	-0.197	-0.050
-724.879	274.265	-0.071	-0.126
-723.864	333.701	-0.097	-0.189
-722.850	-91.627	-0.449	0.129
-721.835	52.817	-0.207	-0.199
-720.821	220.105	-0.043	-0.069
-719.806	220.840	-0.197	-0.318
-718.791	144.388	-0.035	0.047
-717.777	-200.000	0.019	0.248
-716.762	-123.869	0.186	-0.030
-715.748	133.604	-0.171	0.222
-714.733	783.767	-0.070	-0.193
-713.718	772.709	-0.067	-0.185
-712.704	-133.374	-0.353	0.045
-711.689	-200.000	0.001	-0.400
-710.675	800.000	-0.109	-0.348
-709.660	-200.000	-0.063	0.376
-708.645	-200.000	-0.041	-0.290
-707.631	-200.000	0.004	-0.095
-706.616	-12.411	-0.358	0.235
-705.602	-200.000	-0.004	0.120
-704.587	-108.823	-0.241	-0.052
-703.572	93.425	-0.163	-0.186
-702.558	3.120	-0.246	0.180
-701.543	-200.000	0.051	-0.345
-700.529	-101.483	-0.205	-0.050
-699.514	-120.768	-0.337	-0.057
-698.499	-139.123	0.205	-0.022
-697.485	-200.000	-0.000	-0.299
-696.470	50.610	-0.151	0.144
-695.456	-23.868	-0.398	-0.240
-694.441	-200.000	-0.009	-0.082
-693.426	273.294	0.115	-0.204
-692.412	-4.571	-0.184	-0.127
-691.397	-104.071	0.321	-0.075
-690.383	-71.404	-0.102	-0.038
-689.368	-138.912	-0.164	0.018
-688.354	456.559	-0.060	0.134
-687.339	-184.934	-0.141	-0.002
-686.324	-63.145	0.178	-0.074
-685.310	-89.480	-0.088	-0.026
-684.295	27.906	-0.186	-0.157
-683.281	24.181	-0.118	0.098
-682.266	-55.027	-0.132	-0.060
-681.251	-192.988	0.215	-0.002
-680.237	-107.958	-0.054	-0.012
-679.222	-24.218	-0.419	-0.251
-678.208	108.113	0.071	0.085
-677.193	-25.009	-0.236	-0.141
-676.178	-16.094	0.049	0.031
-675.164	800.000	-0.028	0.119
-674.149	-68.949	0.117	0.045
-673.135	34.883	-0.208	0.183
-672.120	137.773	0.076	-0.100
-671.105	481.640	0.152	0.346
-670.091	-22.384	-0.277	-0.168
-669.076	155.768	0.181	-0.251
-668.062	-111.604	-0.042	-0.009
-667.047	579.747	-0.064	-0.156
-666.032	-24.597	0.249	-0.149
-665.018	23.738	0.053	-0.044
-664.003	-70.178	-0.191	0.073
-662.989	800.000	0.072	-0.291
-661.974	-200.000	0.015	-0.134
-660.959	448.875	-0.147	0.324
-659.945	343.832	-0.162	-0.319
-658.930	206.683	-0.072	-0.113
-657.916	-93.527	-0.230	-0.064
-656.901	800.000	0.050	0.183
-655.886	-134.100	-0.309	0.038
-654.872	-200.000	-0.044	0.210
-653.857	6.331	0.100	0.074
-652.843	-200.000	-0.061	-0.380
-651.828	-99.527	-0.269	-0.068
-650.814	11.120	-0.158	-0.121
-649.799	-148.552	0.235	-0.019
-648.784	2.813	-0.230	0.168
-647.770	-70.623	-0.163	0.062
-646.755	394.267	0.073	-0.153
-645.741	-146.635	0.266	0.023
-644.726	-112.542	-0.242	0.048
-643.711	78.273	0.029	0.031
-642.697	-139.001	0.142	-0.015
-641.682	170.840	-0.106	0.152
-640.668	-49.539	0.296	0.141
-639.653	-74.843	-0.166	-0.060
-638.638	-39.285	-0.316	0.166
-637.624	-200.000	-0.026	0.119
-636.609	734.875	0.068	0.182
-635.595	800.000	0.100	0.279
-634.580	171.840	0.144	0.208
-633.565	-200.000	0.001	-0.035
-632.551	-200.000	-0.028	0.159
-631.536	-200.000	-0.014	-0.156
-630.522	-132.728	0.147	-0.019
-629.507	156.308	-0.039	-0.054
-628.492	-69.259	0.253	0.098
-627.478	233.451	-0.187	0.308
-626.463	-41.630	0.046	-0.024
-625.449	71.926	-0.276	-0.288
-624.434	-94.064	-0.153	-0.042
-623.419	12.903	-0.209	-0.162
-622.405	387.129	-0.181	0.374
-621.390	-15.840	-0.188	0.120
-620.376	4.917	0.064	-0.047
-619.361	-25.306	-0.322	0.191
-618.346	152.948	0.140	0.192
-617.332	-200.000	0.032	-0.249
-616.317	-200.000	-0.024	-0.194
-615.303	-47.753	0.194	0.094
-614.288	-200.000	-0.016	0.203
-613.273	351.014	0.046	-0.091
-612.259	800.000	0.073	0.268
-611.244	-43.120	0.300	-0.152
-610.230	-200.000	-0.071	0.333
-609.215	425.358	-0.095	-0.205
-608.201	-141.905	0.342	-0.034
-607.186	-7.304	0.092	0.062
-606.171	-132.830	-0.281	0.036
-605.157	-199.036	0.029	-0.000
-604.142	-28.516	0.110	-0.063
-603.128	-141.139	-0.370	0.038
-602.113	449.326	0.099	-0.218
-601.098	-200.000	0.048	-0.211
-600.084	3.039	-0.175	0.128
-599.069	12.259	-0.224	0.173
-598.055	800.000	0.055	-0.166
-597.040	-15.791	0.166	0.106
-596.025	-139.519	0.234	-0.025
-595.011	259.607	-0.219	0.379
-593.996	141.095	-0.039	-0.051
-592.982	41.424	0.265	0.240
-591.967	-83.172	-0.306	-0.099
-590.952	34.912	0.070	0.061
-589.938	13.803	-0.408	-0.317
-588.923	-39.806	-0.192	-0.100
-587.909	367.469	-0.124	0.250
-586.894	800.000	-0.118	0.334
-585.879	40.810	-0.116	-0.105
-584.865	-200.000	-0.005	0.235
-583.850	574.899	0.092	0.225
-582.836	-200.000	0.070	-0.395
-581.821	41.849	-0.108	0.098
-580.806	144.601	0.147	0.196
-579.792	-200.000	-0.002	0.121
-578.777	-56.289	0.360	-0.160
-577.763	-181.609	0.397	0.008
-576.748	-200.000	-0.030	-0.376
-575.733	111.361	-0.213	0.257
-574.719	-200.000	-0.051	-0.335
-573.704	78.589	0.339	-0.362
-572.690	-200.000	-0.010	0.422
-571.675	-79.635	0.176	-0.059
-570.661	-200.000	-0.005	0.151
-569.646	55.118	-0.364	0.352
-568.631	-200.000	-0.050	-0.512
-567.617	-142.806	0.103	0.010
-566.602	800.000	-0.075	0.211
-565.588	114.149	0.032	-0.039
-564.573	-76.789	-0.170	-0.059
-563.558	489.530	-0.103	-0.235
-562.544	-0.085	0.103	-0.073
-561.529	-126.538	-0.190	-0.028
-560.515	-99.049	-0.045	0.011
-559.500	20.857	0.203	-0.164
-558.485	-41.187	0.393	0.203
-557.471	-131.414	-0.167	-0.022
-556.456	-99.616	-0.134	-0.034
-555.442	68.522	-0.219	-0.225
-554.427	800.000	0.068	-0.209
-553.412	-79.427	-0.070	0.024
-552.398	583.686	-0.069	0.169
-551.383	800.000	-0.123	0.382
-550.369	800.000	-0.093	-0.318
-549.354	63.536	0.163	-0.163
-548.339	116.903	0.214	-0.263
-547.325	800.000	0.036	-0.101
-546.310	-50.471	0.310	-0.146
-545.296	-138.978	0.040	0.004
-544.281	800.000	-0.042	0.167
-543.266	800.000	0.044	0.143
-542.252	188.969	-0.127	-0.190
-541.237	-147.261	0.187	-0.016
-540.223	-46.823	0.269	-0.132
-539.208	-200.000	-0.036	0.281
-538.193	-119.328	0.201	0.035
-537.179	-82.572	-0.120	-0.039
-536.164	502.575	-0.036	0.084
-535.150	-59.996	0.222	-0.095
-534.135	54.322	-0.235	0.226
-533.121	-58.855	0.050	-0.022
-532.106	800.000	-0.064	-0.229
-531.091	-200.000	-0.049	-0.246
-530.077	25.097	0.300	-0.249
-529.062	-104.838	0.140	-0.032
-528.048	655.472	-0.087	0.223
-527.033	-17.244	-0.289	0.182
-526.018	-155.174	-0.209	-0.014
-525.004	53.816	0.141	0.135
-523.989	800.000	-0.097	0.367
-522.975	-200.000	0.030	-0.300
-521.960	-136.671	-0.211	-0.024
-520.945	-200.000	0.009	-0.063
-519.931	-200.000	-0.022	-0.160
-518.916	-87.138	0.323	-0.098
-517.902	368.978	-0.042	0.085
-516.887	175.607	0.076	0.109
-515.872	-114.009	0.175	0.034
-514.858	13.992	-0.175	0.136
-513.843	229.754	0.271	0.442
-512.829	81.926	-0.264	-0.285
-511.814	11.259	-0.023	0.018
-510.799	453.125	-0.063	-0.140
-509.785	800.000	0.019	0.062
-508.770	5.999	-0.372	-0.275
-507.756	84.809	0.174	-0.190
-506.741	265.761	0.069	0.120
-505.726	-200.000	0.001	-0.354
-504.712	334.769	0.122	-0.236
-503.697	477.499	-0.155	0.350
-502.683	37.259	-0.210	-0.186
-501.668	309.623	0.062	-0.116
-500.653	-4.606	-0.111	0.077
-499.639	-107.432	-0.184	-0.040
-498.624	702.598	0.096	0.252
-497.610	-100.773	-0.254	0.062
-496.595	-200.000	-0.006	0.104
-495.581	-11.265	0.197	0.129
-494.566	-146.268	0.227	0.020
-493.551	187.750	0.170	-0.252
-492.537	25.015	0.060	-0.050
-491.522	108.452	0.156	-0.185
-490.508	-21.237	0.326	-0.198
-489.493	520.392	0.027	-0.063
-488.478	-112.455	-0.244	-0.049
-487.464	-184.234	-0.406	-0.007
-486.449	146.805	-0.142	0.190
-485.435	-88.073	0.039	-0.012
-484.420	231.255	0.240	0.393
-483.405	-65.560	-0.249	0.100
-482.391	-200.000	0.001	0.361
-481.376	193.676	-0.162	0.245
-480.362	-88.604	-0.311	-0.092
-479.347	168.190	-0.095	0.135
-478.332	-2.297	-0.202	-0.141
-477.318	11.641	0.191	0.146
-476.303	-200.000	-0.008	-0.046
-475.289	-63.488	-0.095	0.039
-474.274	-7.337	0.145	-0.098
-473.259	-200.000	0.086	-0.384
-472.245	81.052	0.154	-0.165
-471.230	-89.513	0.121	0.035
-470.216	800.000	0.024	-0.067
-469.201	480.071	-0.053	-0.120
-468.186	102.094	-0.334	-0.389
-467.172	-117.401	-0.395	0.071
-466.157	-200.000	-0.035	0.207
-465.143	190.873	-0.182	-0.273
-464.128	-76.591	0.126	-0.044
-463.113	52.344	0.090	-0.085
-462.099	-93.197	0.310	0.086
-461.084	800.000	-0.019	-0.073
-460.070	12.681	-0.116	0.089
-459.055	-193.390	-0.189	-0.002
-458.040	-103.482	-0.199	-0.047
-457.026	323.289	-0.052	-0.098
-456.011	-57.272	-0.213	0.093
-454.997	-200.000	-0.018	0.164
-453.982	-67.441	0.194	-0.076
-452.968	81.208	0.090	0.097
-451.953	96.164	0.112	0.127
-450.938	-72.441	-0.029	-0.011
-449.924	-200.000	0.023	0.108
-448.909	-4.012	0.026	0.018
-447.895	800.000	0.058	0.240
-446.880	-13.326	0.253	-0.164
-445.865	6.538	0.228	-0.169
-444.851	99.641	-0.068	-0.078
-443.836	-200.000	-0.002	-0.070
-442.822	463.514	0.064	-0.143
-441.807	800.000	0.058	0.200
-440.792	86.519	-0.058	0.064
-439.778	-166.816	0.076	-0.003
-438.763	-46.030	0.064	-0.031
-437.749	-200.000	-0.024	-0.117
-436.734	226.921	-0.061	-0.099
-435.719	270.287	-0.191	-0.334
-434.705	-106.882	0.322	0.071
-433.690	800.000	0.053	-0.147
-432.676	6.485	-0.065	-0.048
-431.661	800.000	-0.026	0.108
-430.646	213.933	0.151	-0.238
-429.632	6.550	0.074	-0.055
-428.617	-128.912	-0.325	-0.045
-427.603	-200.000	0.023	0.149
-426.588	-49.777	-0.126	-0.060
-425.573	-32.422	0.090	0.050
-424.559	385.181	-0.049	-0.100
-423.544	-200.000	-0.009	0.151
-422.530	-153.113	0.030	-0.002
-421.515	-200.000	-0.071	-0.416
-420.500	122.927	-0.220	-0.273
-419.486	4.563	0.061	-0.044
-418.471	-200.000	0.002	-0.012
-417.457	181.780	-0.076	-0.111
-416.442	138.967	0.136	0.177
-415.428	-200.000	0.057	-0.518
-414.413	-136.119	-0.213	-0.025
-413.398	-121.833	0.280	0.046
-412.384	-125.786	-0.317	-0.048
-411.369	59.217	-0.146	-0.143
-410.355	-200.000	0.054	0.318
-409.340	-200.000	-0.144	0.000
-408.325	-200.000	0.030	0.369
-407.311	-3.926	-0.115	-0.079
-406.296	385.081	0.138	0.282
-405.282	800.000	0.068	0.233
-404.267	-200.000	-0.027	-0.208
-403.252	-200.000	-0.018	0.161
-402.238	-200.000	-0.003	0.027
-401.223	707.219	0.087	-0.228
-400.209	377.652	0.075	-0.152
-399.194	640.784	0.035	-0.089
-398.179	585.346	0.022	0.054
-397.165	57.846	0.116	0.113
-396.150	-31.468	-0.175	-0.098
-395.136	43.005	0.027	0.024
-394.121	800.000	-0.006	-0.020
-393.106	18.578	0.197	-0.157
-392.092	-80.355	0.133	-0.044
-391.077	15.252	0.288	-0.224
-390.063	35.625	0.235	0.205
-389.048	-12.945	-0.235	-0.152
-388.033	45.166	-0.035	0.032
-387.019	-17.145	-0.138	0.086
-386.004	-87.711	0.260	-0.078
-384.990	-36.759	-0.190	-0.101
-383.975	-122.253	-0.236	-0.038
-382.960	-108.964	-0.400	0.085
-381.946	205.602	0.076	-0.118
-380.931	634.728	0.087	0.220
-379.917	196.666	0.193	0.291
-378.902	-71.265	-0.091	-0.034
-377.888	-142.009	0.262	0.026
-376.873	-200.000	0.020	-0.359
-375.858	81.682	-0.036	0.039
-374.844	-29.017	-0.234	-0.133
-373.829	-58.443	0.388	-0.167
-372.815	-133.960	0.372	-0.046
-371.800	55.456	0.076	-0.073
-370.785	-76.765	-0.423	-0.147
-369.771	10.786	-0.084	0.063
-368.756	112.161	-0.185	-0.222
-367.742	-141.668	0.064	-0.006
-366.727	-56.797	0.100	0.044
-365.712	-56.587	-0.194	0.085
-364.698	113.481	-0.182	0.219
-363.683	298.956	0.021	0.038
-362.669	370.545	0.044	0.089
-361.654	-200.000	0.032	0.173
-360.639	-175.131	-0.134	0.004
-359.625	577.176	-0.033	0.081
-358.610	53.438	-0.098	0.093
-357.596	24.818	0.158	-0.130
-356.581	20.666	0.212	-0.170
-355.566	145.434	-0.232	-0.308
-354.552	161.422	-0.242	0.335
-353.537	87.789	-0.101	0.111
-352.523	-104.436	0.072	0.017
-351.508	-200.000	0.039	-0.274
-350.493	250.613	-0.097	-0.164
-349.479	-200.000	0.005	-0.193
-348.464	-200.000	0.025	0.300
-347.450	198.756	0.038	0.057
-346.435	-200.000	-0.040	-0.274
-345.420	800.000	-0.106	-0.336
-344.406	-49.455	-0.104	0.049
-343.391	36.533	0.044	0.039
-342.377	800.000	-0.031	-0.096
-341.362	67.509	0.071	-0.072
-340.348	30.260	0.060	0.051
-339.333	19.615	-0.259	-0.206
-338.318	504.144	0.102	0.234
-337.304	-59.243	-0.252	0.108
-336.289	554.756	0.124	-0.295
-335.275	323.564	-0.021	-0.039
-334.260	138.515	-0.192	-0.249
-333.245	282.651	-0.045	-0.080
-332.231	800.000	-0.017	-0.068
-331.216	-21.069	0.151	-0.092
-330.202	59.478	0.100	-0.098
-329.187	-59.614	-0.282	0.120
-328.172	-74.070	0.331	0.119
-327.158	-200.000	-0.003	-0.038
-326.143	67.116	-0.121	-0.122
-325.129	-200.000	0.002	0.174
-324.114	-142.842	0.339	-0.033
-323.099	-200.000	0.078	0.474
-322.085	-200.000	0.049	0.240
-321.070	-200.000	0.012	-0.180
-320.056	800.000	0.079	0.246
-319.041	-200.000	0.025	-0.161
-318.026	-200.000	-0.028	-0.301
-317.012	-200.000	0.025	0.313
-315.997	-47.072	-0.165	0.080
-314.983	-140.126	0.220	-0.023
-313.968	-44.042	-0.066	0.033
-312.953	-92.376	0.297	0.083
-311.939	-21.361	0.424	-0.257
-310.924	-38.681	0.081	-0.043
-309.910	-114.003	-0.160	0.031
-308.895	-113.996	-0.326	-0.063
-307.880	-125.357	0.198	-0.030
-306.866	800.000	0.113	0.378
-305.851	490.599	-0.038	0.087
-304.837	-98.092	-0.281	0.071
-303.822	282.235	0.112	0.198
-302.807	694.414	0.106	0.276
-301.793	-95.790	-0.143	-0.038
-300.778	233.055	-0.108	-0.176
-299.764	32.589	0.127	-0.109
-298.749	-62.573	-0.243	-0.100
-297.735	-200.000	0.018	-0.436
-296.720	-47.608	-0.127	-0.061
-295.705	-114.933	-0.225	0.042
-294.691	-200.000	-0.086	-0.382
-293.676	-103.881	0.338	0.078
-292.662	-200.000	0.002	0.043
-291.647	467.365	0.095	0.210
-290.632	424.838	-0.055	0.116
-289.618	-108.403	-0.373	0.080
-288.603	-133.519	-0.197	-0.024
-287.589	800.000	0.022	-0.085
-286.574	800.000	-0.030	-0.082
-285.559	9.465	0.183	-0.137
-284.545	-79.841	0.386	-0.129
-283.530	-200.000	0.065	0.287
-282.516	-64.975	-0.330	0.132
-281.501	158.552	0.024	-0.032
-280.486	-108.896	-0.133	-0.028
-279.472	-188.353	-0.108	-0.001
-278.457	-49.322	0.382	0.180
-277.443	-200.000	-0.013	0.131
-276.428	443.637	-0.127	-0.275
-275.413	105.513	-0.259	0.302
-274.399	2.617	-0.058	0.042
-273.384	1.584	0.117	-0.083
-272.370	-83.986	0.164	-0.052
-271.355	223.095	0.087	0.139
-270.340	-144.766	0.292	-0.027
-269.326	-93.248	0.233	-0.064
-268.311	10.806	-0.097	0.073
-267.297	71.739	-0.227	0.233
-266.282	800.000	0.121	0.469
-265.267	-81.256	-0.169	0.055
-264.253	253.820	-0.046	-0.078
-263.238	-200.000	0.039	0.190
-262.224	800.000	-0.097	-0.313
-261.209	55.990	0.247	-0.237
-260.195	90.583	-0.218	-0.241
-259.180	-69.036	-0.237	-0.090
-258.165	-59.506	0.294	0.125
-257.151	-99.461	0.032	0.008
-256.136	306.057	-0.173	-0.318
-255.122	-180.861	-0.438	-0.009
-254.107	155.523	-0.065	-0.088
-253.092	-110.761	0.185	0.038
-252.078	53.069	-0.125	0.118
-251.063	-157.921	0.160	-0.009
-250.049	137.531	0.139	-0.179
-249.034	-78.534	0.205	-0.069
-248.019	591.102	0.070	0.171
-247.005	-65.521	0.069	0.027
-245.990	-200.000	0.002	-0.075
-244.976	-200.000	0.013	-0.231
-243.961	203.401	0.085	-0.130
-242.946	-26.829	-0.089	-0.052
-241.932	-65.788	0.198	0.078
-240.917	169.284	0.028	0.039
-239.903	508.808	0.121	0.279
-238.888	-117.188	0.191	0.034
-237.873	31.768	0.132	0.112
-236.859	-110.943	-0.214	0.043
-235.844	315.162	0.127	0.237
-234.830	122.343	-0.134	0.165
-233.815	287.622	-0.075	-0.134
-232.800	-194.156	0.182	0.001
-231.786	-61.033	0.088	-0.036
-230.771	609.448	-0.117	-0.288
-229.757	109.634	0.347	0.410
-228.742	696.740	-0.100	-0.259
-227.727	-200.000	0.018	-0.235
-226.713	120.113	0.162	0.198
-225.698	455.430	0.082	0.180
-224.684	-200.000	-0.010	-0.217
-223.669	62.185	0.183	0.180
-222.655	-134.266	-0.381	0.046
-221.640	63.262	0.258	-0.255
-220.625	556.816	-0.060	-0.142
-219.611	215.888	0.174	0.272
-218.596	-103.336	0.420	-0.098
-217.582	334.293	0.083	0.158
-216.567	125.308	0.050	-0.062
-215.552	291.747	0.040	-0.072
-214.538	-28.701	-0.106	-0.060
-213.523	-200.000	-0.007	-0.076
-212.509	-200.000	-0.015	0.332
-211.494	-152.696	-0.118	0.008
-210.479	14.228	0.216	0.166
-209.465	-200.000	-0.016	0.269
-208.450	-91.588	-0.163	-0.046
-207.436	800.000	-0.071	-0.226
-206.421	-200.000	-0.049	-0.393
-205.406	-170.239	-0.247	-0.009
-204.392	71.168	-0.325	-0.332
-203.377	-200.000	-0.009	-0.100
-202.363	-66.407	-0.118	0.046
-201.348	79.856	-0.104	-0.110
-200.333	800.000	0.042	0.125
-199.319	-200.000	-0.028	-0.334
-198.304	-119.501	-0.212	0.036
-197.290	46.382	0.130	0.119
-196.275	89.344	-0.141	0.155
-195.260	-23.763	0.277	0.163
-194.246	-30.776	0.269	0.150
-193.231	286.103	-0.099	0.175
-192.217	-200.000	-0.029	0.222
-191.202	20.883	0.092	0.073
-190.187	411.966	-0.121	-0.254
-189.173	-54.654	0.081	0.036
-188.158	-200.000	0.008	0.091
-187.144	800.000	0.025	-0.096
-186.129	-52.957	-0.272	0.124
-185.114	99.371	-0.070	-0.079
-184.100	800.000	0.048	0.193
-183.085	-200.000	-0.052	0.301
-182.071	-200.000	0.002	0.175
-181.056	-200.000	0.044	-0.338
-180.042	4.176	0.256	0.185
-179.027	-200.000	-0.011	0.113
-178.012	-30.791	0.236	-0.131
-176.998	800.000	-0.064	0.203
-175.983	-33.891	0.165	0.089
-174.969	34.725	-0.023	0.020
-173.954	39.482	0.311	0.275
-172.939	150.594	-0.125	-0.168
-171.925	-200.000	0.022	-0.399
-170.910	48.363	-0.146	0.134
-169.896	-200.000	0.017	0.226
-168.881	43.265	-0.195	-0.175
-167.866	151.251	-0.114	0.153
-166.852	477.702	0.225	-0.502
-165.837	32.086	-0.135	-0.115
-164.823	150.871	-0.147	0.197
-163.808	-128.063	0.432	-0.061
-162.793	-151.451	-0.187	0.014
-161.779	230.030	0.128	-0.206
-160.764	-200.000	-0.029	0.158
-159.750	-200.000	-0.024	0.230
-158.735	506.034	-0.068	0.156
-157.720	229.819	-0.146	-0.234
-156.706	88.356	0.230	0.251
-155.691	-154.801	-0.276	-0.018
-154.677	-109.469	0.061	0.013
-153.662	800.000	0.087	0.346
-152.647	123.805	0.118	0.146
-151.633	-56.369	0.166	0.073
-150.618	800.000	-0.015	0.049
-149.604	-164.923	0.172	0.008
-148.589	-200.000	-0.026	-0.196
-147.574	108.345	-0.091	0.107
-146.560	2.792	-0.259	0.185
-145.545	-32.202	0.227	-0.125
-144.531	20.328	-0.281	0.224
-143.516	-76.369	-0.131	-0.045
-142.502	-147.982	0.446	-0.036
-141.487	335.467	0.078	0.148
-140.472	478.722	0.105	0.235
-139.458	68.926	-0.230	0.233
-138.443	800.000	-0.118	-0.369
-137.429	-29.484	-0.323	-0.182
-136.414	-3.446	0.337	-0.231
-135.399	-200.000	0.023	-0.206
-134.385	706.482	0.091	-0.236
-133.370	133.840	0.114	-0.145
-132.356	-91.924	-0.148	-0.041
-131.341	-134.072	0.115	0.014
-130.326	-39.126	0.136	-0.070
-129.312	-200.000	-0.043	0.296
-128.297	283.257	0.246	0.434
-127.283	38.816	0.272	0.238
-126.268	-81.793	-0.104	-0.033
-125.253	24.186	0.316	-0.257
-124.239	-99.066	-0.476	0.118
-123.224	800.000	-0.089	0.251
-122.210	66.769	-0.208	-0.208
-121.195	-114.859	-0.133	-0.025
-120.180	43.888	0.127	0.114
-119.166	-188.863	-0.324	-0.004
-118.151	-13.017	0.367	-0.234
-117.137	-200.000	-0.013	-0.121
-116.122	-29.817	0.206	0.116
-115.107	-114.492	0.139	0.026
-114.093	-200.000	-0.011	-0.105
-113.078	306.609	0.160	-0.293
-112.064	-108.228	-0.210	0.045
-111.049	-123.185	-0.211	0.033
-110.034	17.666	0.086	0.067
-109.020	191.532	-0.074	0.110
-108.005	644.380	0.085	-0.212
-106.991	67.842	-0.098	0.098
-105.976	435.669	0.062	-0.133
-104.962	101.548	0.021	0.024
-103.947	-108.815	-0.125	-0.026
-102.932	251.331	-0.246	-0.411
-101.918	19.542	-0.362	-0.285
-100.903	221.527	-0.101	0.160
-99.889	-26.429	-0.263	0.152
-98.874	-200.000	-0.021	0.113
-97.859	-20.457	-0.056	-0.034
-96.845	89.701	0.246	-0.270
-95.830	66.605	0.031	0.031
-94.816	800.000	0.100	-0.273
-93.801	-70.448	0.367	0.137
-92.786	-101.639	-0.306	-0.073
-91.772	44.645	-0.053	-0.048
-90.757	-122.076	0.410	-0.066
-89.743	102.533	-0.074	-0.084
-88.728	-200.000	0.034	0.200
-87.713	-66.810	-0.198	0.077
-86.699	-200.000	-0.041	0.371
-85.684	800.000	0.036	-0.141
-84.670	760.483	0.136	0.361
-83.655	-200.000	0.035	0.425
-82.640	30.118	0.229	0.191
-81.626	-200.000	-0.010	0.101
-80.611	71.702	0.243	-0.248
-79.597	-72.171	-0.136	0.049
-78.582	770.072	-0.117	0.312
-77.567	-151.175	-0.183	0.013
-76.553	-120.158	-0.186	-0.031
-75.538	462.002	0.159	-0.349
-74.524	520.305	-0.086	-0.199
-73.509	800.000	0.088	0.357
-72.494	664.915	-0.134	-0.340
-71.480	-192.100	-0.095	-0.001
-70.465	271.009	-0.046	0.080
-69.451	1.724	-0.295	0.208
-68.436	-133.491	0.031	-0.004
-67.422	434.211	-0.099	-0.212
-66.407	800.000	0.026	0.102
-65.392	800.000	-0.095	0.361
-64.378	-5.171	0.323	-0.218
-63.363	-200.000	-0.082	0.391
-62.349	-46.300	0.127	-0.061
-61.334	1.376	-1.165	-0.821
-60.319	-13.351	0.864	0.549
-59.305	-200.000	-0.140	-1.098
-58.290	76.811	0.844	0.878
-57.276	539.478	0.782	1.824
-56.261	-200.000	98.643	612.722
-55.246	586.749	1413.472	3408.942
-54.232	189.512	2615.848	3843.704
-53.217	110.586	2274.836	2680.816
-52.203	40.689	1892.115	1671.744
-51.188	34.475	1680.305	1437.879
-50.173	31.741	1636.616	1380.328
-49.159	50.123	1685.128	1558.987
-48.144	51.521	1701.259	1584.288
-47.130	34.127	1660.939	1418.491
-46.115	31.247	1646.495	1384.781
-45.100	31.110	1641.937	1379.874
-44.086	31.168	1638.787	1377.606
-43.071	31.147	1636.429	1375.414
-42.057	31.003	1634.972	1373.070
-41.042	31.089	1632.623	1371.680
-40.027	31.088	1630.677	1369.982
-39.013	31.044	1628.705	1367.948
-37.998	31.019	1626.736	1366.055
-36.984	31.053	1626.043	1365.668
-35.969	31.208	1624.041	1365.066
-34.954	31.150	1622.556	1363.342
-33.940	31.244	1619.937	1361.774
-32.925	31.239	1618.636	1360.586
-31.911	31.182	1617.511	1359.170
-30.896	31.195	1615.107	1357.192
-29.881	31.102	1613.876	1355.426
-28.867	31.117	1612.497	1354.328
-27.852	31.132	1610.723	1352.889
-26.838	31.209	1609.074	1352.009
-25.823	31.176	1608.000	1350.813
-24.809	31.258	1605.973	1349.652
-23.794	31.268	1604.878	1348.750
-22.779	31.313	1602.831	1347.297
-21.765	31.265	1601.650	1345.905
-20.750	31.255	1599.979	1344.375
-19.736	31.158	1599.201	1342.971
-18.721	31.230	1597.502	1342.014
-17.706	31.200	1595.739	1340.261
-16.692	31.232	1593.908	1338.897
-15.677	31.163	1593.205	1337.760
-14.663	31.287	1591.719	1337.349
-13.648	31.284	1590.453	1336.208
-12.633	31.160	1588.977	1334.031
-11.619	31.157	1587.334	1332.580
-10.604	31.253	1585.558	1331.721
-9.590	31.160	1584.258	1329.911
-8.575	31.299	1583.165	1329.929
-7.560	31.287	1581.798	1328.643
-6.546	31.169	1581.171	1327.224
-5.531	31.143	1579.891	1325.916
-4.517	31.195	1578.727	1325.252
-3.502	31.239	1577.443	1324.431
-2.487	31.266	1575.889	1323.269
-1.473	30.951	1564.005	1311.021
-0.458	27.874	1544.539	1273.238
0.556	22.139	1544.202	1241.096
1.571	19.638	1568.044	1242.183
2.586	19.274	1581.696	1250.251
3.600	17.429	1529.697	1196.083
4.615	9.333	1420.936	1057.881
5.629	1.342	1356.093	959.185
6.644	-0.147	1347.835	943.909
7.659	-0.317	1346.698	941.963
8.673	-0.350	1345.888	941.107
9.688	-0.476	1344.344	939.153
10.702	-0.630	1341.019	935.786
11.717	2.458	1346.588	958.955
12.731	11.389	1363.817	1027.596
13.746	18.599	1376.044	1082.378
14.761	20.211	1376.957	1093.164
15.775	20.277	1376.869	1093.415
16.790	20.312	1376.689	1093.400
17.804	20.456	1375.061	1092.916
18.819	20.651	1374.955	1093.956
19.834	20.697	1374.627	1093.893
20.848	20.586	1374.458	1092.963
21.863	20.578	1373.832	1092.315
22.877	20.674	1372.443	1091.716
23.892	20.719	1371.239	1090.948
24.907	20.818	1370.607	1090.969
25.921	20.718	1369.730	1089.546
26.936	20.632	1369.062	1088.379
27.950	20.671	1367.643	1087.397
28.965	20.761	1366.479	1086.941
29.980	20.697	1365.559	1085.712
30.994	20.768	1363.853	1084.705
32.009	20.748	1362.453	1083.369
33.023	20.708	1361.600	1082.346
34.038	20.668	1360.685	1081.271
35.053	20.651	1359.550	1080.171
36.067	20.781	1358.587	1080.119
37.082	20.732	1357.243	1078.648
38.096	20.708	1356.546	1077.853
39.111	20.725	1355.791	1077.262
40.126	20.756	1355.589	1077.196
41.140	20.763	1354.789	1076.509
42.155	20.674	1354.629	1075.736
43.169	20.769	1354.149	1075.847
44.184	20.661	1354.311	1075.210
45.199	20.659	1353.707	1074.626
46.213	20.738	1352.667	1074.193
47.228	20.698	1351.785	1073.149
48.242	20.767	1350.808	1072.707
49.257	20.705	1349.443	1071.143
50.271	20.683	1348.118	1069.864
51.286	20.726	1347.127	1069.245
52.301	20.665	1345.340	1067.358
53.315	20.768	1344.561	1067.275
54.330	20.754	1343.673	1066.392
55.344	20.748	1342.261	1065.139
56.359	20.749	1341.359	1064.340
57.374	20.692	1340.766	1063.427
58.388	20.657	1340.504	1062.908
59.403	20.619	1340.032	1062.208
60.417	20.651	1339.190	1061.641
61.432	20.615	1338.524	1060.798
62.447	20.723	1337.248	1060.351
63.461	20.634	1336.192	1058.882
64.476	20.587	1335.723	1058.129
65.490	20.745	1334.266	1057.840
66.505	20.733	1332.433	1056.223
67.520	20.752	1330.972	1055.086
68.534	20.707	1330.252	1054.147
69.549	20.807	1328.949	1053.629
70.563	20.783	1328.204	1052.801
71.578	20.661	1327.442	1051.362
72.593	20.651	1327.131	1050.968
73.607	20.755	1325.991	1050.597
74.622	20.735	1324.875	1049.501
75.636	20.705	1324.325	1048.791
76.651	20.712	1323.588	1048.155
77.666	20.614	1323.145	1047.123
78.680	20.652	1322.899	1047.066
79.695	20.683	1321.731	1046.229
80.709	20.753	1320.680	1045.727
81.724	20.680	1320.308	1044.900
82.739	20.731	1319.322	1044.336
83.753	20.696	1318.374	1043.284
84.768	20.680	1317.080	1042.070
85.782	20.637	1315.883	1040.778
86.797	20.696	1314.833	1040.206
87.812	20.642	1313.895	1039.048
88.826	20.738	1312.736	1038.615
89.841	20.735	1311.688	1037.673
90.855	20.767	1310.587	1036.905
91.870	20.716	1309.901	1035.962
92.884	20.701	1308.905	1034.995
93.899	20.752	1308.082	1034.554
94.914	20.863	1306.962	1034.236
95.928	20.845	1306.032	1033.304
96.943	20.801	1305.771	1032.744
97.957	20.865	1304.711	1032.194
98.972	20.818	1303.978	1031.243
99.987	20.786	1303.331	1030.455
101.001	20.840	1301.778	1029.450
102.016	20.816	1300.652	1028.327
103.030	20.789	1300.222	1027.739
104.045	20.848	1299.098	1027.110
105.060	20.766	1298.461	1026.030
106.074	20.727	1297.189	1024.707
107.089	20.847	1295.847	1024.256
108.103	20.931	1294.957	1023.957
109.118	20.821	1293.793	1022.303
110.133	20.781	1292.457	1020.924
111.147	20.822	1291.348	1020.194
112.162	20.833	1290.164	1019.234
113.176	20.883	1289.173	1018.650
114.191	20.811	1288.692	1017.764
115.206	20.773	1287.770	1016.722
116.220	20.876	1286.127	1015.934
117.235	20.819	1285.425	1014.960
118.249	20.868	1284.403	1014.346
119.264	20.906	1283.162	1013.501
120.279	20.852	1282.659	1012.697
121.293	20.928	1281.369	1012.029
122.308	20.914	1280.213	1010.947
123.322	20.975	1279.219	1010.424
124.337	20.833	1278.633	1009.049
125.352	20.912	1278.029	1008.942
126.366	21.035	1276.650	1008.479
127.381	20.982	1276.057	1007.614
128.395	20.902	1275.147	1006.342
129.410	20.949	1274.216	1005.792
130.424	20.973	1273.372	1005.171
131.439	20.937	1272.344	1004.067
132.454	20.900	1271.475	1003.077
133.468	20.929	1270.564	1002.437
134.483	20.945	1270.257	1002.197
135.497	20.990	1269.413	1001.699
136.512	20.948	1268.392	1000.568
137.527	20.901	1267.288	999.340
138.541	20.867	1266.015	998.053
139.556	20.860	1264.748	996.926
140.570	20.821	1263.926	995.962
141.585	20.905	1262.376	995.136
142.600	20.891	1260.851	993.763
143.614	20.919	1260.196	993.318
144.629	20.918	1259.320	992.535
145.643	20.895	1258.011	991.287
146.658	20.828	1257.337	990.289
147.673	20.853	1256.217	989.462
148.687	20.770	1255.453	988.301
149.702	20.752	1254.380	987.262
150.716	20.826	1252.817	986.364
151.731	20.804	1252.503	985.909
152.746	20.824	1250.851	984.634
153.760	20.945	1249.809	984.410
154.775	20.939	1249.040	983.681
155.789	21.057	1247.680	983.190
156.804	20.929	1246.845	981.725
157.819	20.856	1246.734	981.137
158.833	20.913	1245.544	980.434
159.848	20.927	1244.650	979.725
160.862	20.984	1243.899	979.364
161.877	20.936	1243.330	978.561
162.892	20.978	1242.325	977.917
163.906	21.061	1241.504	977.652
164.921	21.050	1240.568	976.767
165.935	21.029	1239.919	976.051
166.950	21.004	1239.729	975.673
167.964	20.960	1238.860	974.659
168.979	21.007	1238.109	974.248
169.994	20.994	1238.167	974.131
171.008	21.081	1236.494	973.212
172.023	21.052	1235.735	972.368
173.037	21.096	1235.210	972.117
174.052	21.042	1234.432	971.118
175.067	21.021	1233.718	970.349
176.081	21.061	1232.987	969.915
177.096	21.044	1231.901	968.879
178.110	21.039	1231.158	968.179
179.125	21.002	1230.204	967.138
180.140	21.142	1228.957	966.851
181.154	21.043	1227.984	965.450
182.169	21.096	1226.918	964.818
183.183	21.077	1226.254	964.106
184.198	21.048	1224.881	962.782
185.213	21.053	1224.175	962.170
186.227	21.184	1223.074	961.943
187.242	21.201	1221.836	960.976
188.256	21.085	1221.567	960.041
189.271	21.069	1220.801	959.267
190.286	21.235	1219.591	959.140
191.300	20.986	1219.702	957.780
192.315	21.055	1219.016	957.532
193.329	21.147	1218.804	957.785
194.344	21.080	1218.257	956.906
195.359	21.067	1217.530	956.179
196.373	21.152	1216.730	955.928
197.388	21.134	1216.526	955.586
198.402	21.120	1216.089	955.081
199.417	21.060	1215.922	954.537
200.432	21.095	1215.169	954.052
201.446	21.102	1214.133	953.195
202.461	21.159	1213.267	952.741
203.475	21.146	1212.441	951.939
204.490	21.208	1211.388	951.366
205.504	21.145	1210.795	950.470
206.519	21.356	1209.635	950.624
207.534	21.169	1209.059	949.071
208.548	21.125	1208.078	947.980
209.563	21.181	1207.307	947.591
210.577	21.173	1206.337	946.707
211.592	21.155	1205.764	946.071
212.607	21.269	1204.796	945.850
213.621	21.204	1204.084	944.854
214.636	21.277	1203.544	944.740
215.650	21.296	1202.287	943.773
216.665	21.244	1201.618	942.882
217.680	21.174	1200.509	941.551
218.694	21.197	1199.783	941.023
219.709	21.194	1199.432	940.651
220.723	21.323	1198.616	940.617
221.738	21.336	1197.737	939.916
222.753	21.179	1197.114	938.502
223.767	21.165	1196.843	938.129
224.782	21.377	1196.477	938.901
225.796	21.328	1195.470	937.766
226.811	21.313	1195.009	937.236
227.826	21.325	1194.270	936.638
228.840	21.338	1193.614	936.111
229.855	21.343	1192.966	935.545
230.869	21.392	1191.840	934.844
231.884	21.291	1191.814	934.201
232.899	21.318	1190.906	933.549
233.913	21.309	1190.403	933.025
234.928	21.392	1189.847	932.949
235.942	21.386	1189.290	932.399
236.957	21.373	1188.861	931.913
237.972	21.330	1187.959	930.889
238.986	21.412	1187.413	930.820
240.001	21.432	1186.691	930.277
241.015	21.549	1185.822	930.134
242.030	21.436	1185.233	928.993
243.045	21.441	1184.272	928.180
244.059	21.549	1183.686	928.211
245.074	21.479	1182.691	926.978
246.088	21.413	1182.241	926.195
247.103	21.487	1181.118	925.627
248.117	21.503	1180.260	924.956
249.132	21.584	1179.272	924.526
250.147	21.596	1178.467	923.877
251.161	21.539	1178.129	923.229
252.176	21.584	1177.418	922.828
253.190	21.602	1176.919	922.448
254.205	21.673	1176.095	922.095
255.220	21.551	1175.734	921.089
256.234	21.608	1175.195	920.885
257.249	21.584	1174.348	920.016
258.263	21.525	1173.880	919.256
259.278	21.581	1172.997	918.780
260.293	21.588	1172.543	918.378
261.307	21.613	1172.578	918.456
262.322	21.653	1171.420	917.675
263.336	21.694	1171.074	917.539
264.351	21.568	1170.659	916.473
265.366	21.661	1169.607	916.053
266.380	21.669	1169.159	915.662
267.395	21.667	1168.341	914.932
268.409	21.732	1167.841	914.800
269.424	21.619	1167.365	913.758
270.439	21.755	1166.990	914.088
271.453	21.744	1166.298	913.410
272.468	21.700	1165.254	912.281
273.482	21.679	1164.205	911.272
274.497	21.604	1164.619	911.125
275.512	21.677	1163.826	910.803
276.526	21.690	1162.720	909.924
277.541	21.622	1162.513	909.331
278.555	21.705	1162.410	909.599
279.570	21.794	1160.800	908.719
280.585	21.816	1159.989	908.116
281.599	21.846	1159.043	907.450
282.614	21.796	1158.214	906.464
283.628	21.898	1156.946	905.918
284.643	21.820	1156.617	905.179
285.657	21.766	1155.968	904.314
286.672	21.815	1154.927	903.670
287.687	21.849	1154.236	903.226
288.701	21.905	1153.659	902.983
289.716	21.873	1153.070	902.278
290.730	21.935	1152.167	901.809
291.745	21.873	1151.919	901.215
292.760	21.842	1150.940	900.208
293.774	21.929	1150.597	900.308
294.789	21.808	1150.296	899.374
295.803	21.878	1149.603	899.112
296.818	21.900	1148.655	898.403
297.833	21.964	1147.596	897.821
298.847	22.021	1146.879	897.473
299.862	22.051	1146.456	897.216
300.876	22.040	1145.864	896.616
301.891	21.981	1145.609	896.039
302.906	21.937	1144.897	895.178
303.920	22.131	1143.876	895.289
304.935	22.003	1143.660	894.386
305.949	22.034	1142.438	893.511
306.964	22.070	1142.081	893.337
307.979	22.124	1141.354	892.959
308.993	22.013	1140.826	891.905
310.008	22.108	1139.955	891.628
311.022	22.059	1139.460	890.915
312.037	22.022	1138.467	889.873
313.052	22.099	1137.446	889.385
314.066	21.971	1136.915	888.243
315.081	21.874	1136.646	887.462
316.095	22.081	1135.752	887.731
317.110	22.071	1135.094	887.090
318.125	22.189	1134.196	886.903
319.139	22.111	1133.695	886.041
320.154	22.070	1133.264	885.419
321.168	22.077	1132.731	884.956
322.183	22.113	1132.178	884.630
323.197	22.120	1131.070	883.719
324.212	22.263	1130.541	883.948
325.227	22.256	1130.162	883.538
326.241	22.214	1129.981	883.109
327.256	22.235	1129.334	882.629
328.270	22.197	1128.178	881.456
329.285	22.181	1127.795	881.000
330.300	22.144	1126.667	879.858
331.314	22.258	1125.572	879.495
332.329	22.385	1124.696	879.366
333.343	22.231	1123.940	877.928
334.358	22.238	1123.346	877.422
335.373	22.316	1123.076	877.521
336.387	22.392	1122.328	877.238
337.402	22.258	1121.795	876.077
338.416	22.362	1120.799	875.738
339.431	22.396	1120.278	875.421
340.446	22.434	1119.588	874.993
341.460	22.354	1119.305	874.297
342.475	22.414	1117.945	873.459
343.489	22.447	1117.206	872.968
344.504	22.503	1116.187	872.371
345.519	22.360	1115.718	871.220
346.533	22.356	1115.271	870.770
347.548	22.501	1114.171	870.551
348.562	22.386	1113.759	869.588
349.577	22.481	1112.909	869.315
350.592	22.361	1112.102	868.016
351.606	22.347	1111.356	867.285
352.621	22.385	1110.880	867.028
353.635	22.421	1110.753	867.028
354.650	22.476	1109.698	866.400
355.665	22.664	1108.724	866.484
356.679	22.508	1108.450	865.429
357.694	22.552	1107.680	864.965
358.708	22.554	1107.567	864.809
359.723	22.603	1106.536	864.171
360.738	22.571	1105.762	863.333
361.752	22.503	1105.145	862.442
362.767	22.555	1105.244	862.699
363.781	22.626	1104.046	862.032
364.796	22.632	1103.511	861.568
365.810	22.578	1103.045	860.865
366.825	22.639	1102.779	860.879
367.840	22.556	1102.829	860.435
368.854	22.530	1102.022	859.604
369.869	22.628	1100.488	858.807
370.883	22.693	1100.016	858.678
371.898	22.756	1099.353	858.391
372.913	22.763	1098.677	857.820
373.927	22.756	1097.973	857.161
374.942	22.787	1097.717	857.039
375.956	22.812	1096.906	856.448
376.971	22.772	1096.513	855.874
377.986	22.775	1096.126	855.512
379.000	22.709	1095.691	854.777
380.015	22.844	1094.965	854.785
381.029	22.830	1094.063	853.937
382.044	22.832	1093.598	853.513
383.059	22.861	1092.906	853.033
384.073	22.823	1092.291	852.297
385.088	22.832	1091.245	851.447
386.102	22.867	1090.667	851.091
387.117	22.771	1090.220	850.205
388.132	22.739	1089.220	849.194
389.146	22.909	1088.020	849.003
390.161	22.917	1087.586	848.628
391.175	23.012	1086.976	848.530
392.190	23.032	1086.520	848.195
393.205	22.926	1085.536	846.844
394.219	22.930	1084.969	846.348
395.234	22.913	1084.271	845.648
396.248	22.989	1083.168	845.075
397.263	23.178	1081.834	844.860
398.278	23.066	1081.422	843.929
399.292	23.033	1081.078	843.430
400.307	23.106	1080.315	843.105
401.321	23.096	1079.625	842.449
402.336	23.124	1078.974	841.997
403.350	23.139	1078.413	841.558
404.365	23.165	1077.689	841.043
405.380	23.125	1077.150	840.358
406.394	23.088	1076.443	839.554
407.409	23.178	1075.934	839.512
408.423	23.128	1075.098	838.548
409.438	23.179	1074.302	838.092
410.453	23.196	1073.602	837.554
411.467	23.239	1073.064	837.264
412.482	23.215	1072.409	836.564
413.496	23.161	1071.368	835.424
414.511	23.130	1071.151	835.032
415.526	23.310	1070.617	835.391
416.540	23.157	1070.666	834.636
417.555	23.202	1069.832	834.125
418.569	23.278	1069.223	833.931
419.584	23.238	1068.825	833.361
420.599	23.457	1068.481	834.047
421.613	149.009	1399.588	1796.683
422.628	137.233	1447.809	1796.780
