DTS Sentinel unit serial number:	SN413079Multiplexer serial number:	ORYXHardware model number:	OX4-SRSoftware version number:	ORYX F/W v4.00 Oryx Data Collector v3.7.2.0data status	okinstallation	princeton_trtdifferential loss correction	single-endedforward channel	channel 2reverse channel	N/Adate	2019/09/10time	22:29:10forward acquisition time	60.00reverse acquisition time	0.00gamma	496.2192k internal	0.2330k external	0.2330temperature offset calibration	0.9940default loss term (dB/km)	0.3790temperature slope calibration	1.0000multiplexer offset coefficient	1.0000multiplexer slope coefficient	1.0000fibre end	0.00T internal ref (°C)	30.37T ext. ref 1 (°C)	-0.31T ext. ref 2 (°C)	23.69length (m)	temperature (°C)	Stokes	anti-Stokes-747.200	-101.630	0.198	-0.048
-746.185	729.653	0.037	0.101
-745.171	-52.227	-0.259	0.121
-744.156	-26.994	-0.261	0.153
-743.142	144.408	-0.137	-0.184
-742.127	4.009	-0.190	0.140
-741.112	-6.988	0.164	0.112
-740.098	-99.833	0.455	-0.115
-739.083	-12.018	0.128	0.085
-738.069	9.798	0.036	0.028
-737.054	-200.000	-0.016	-0.375
-736.039	587.170	0.134	0.333
-735.025	-89.526	0.304	-0.090
-734.010	233.425	-0.073	-0.122
-732.996	-17.200	-0.124	-0.079
-731.981	-51.686	-0.106	-0.050
-730.966	190.102	-0.056	0.085
-729.952	-200.000	-0.000	0.093
-728.937	134.710	-0.055	0.071
-727.923	40.783	0.101	-0.091
-726.908	792.841	-0.060	-0.166
-725.894	-39.411	-0.330	-0.174
-724.879	-101.359	-0.116	0.029
-723.864	56.800	0.087	0.085
-722.850	-200.000	0.034	-0.304
-721.835	-124.442	-0.135	-0.021
-720.821	-14.101	-0.336	0.218
-719.806	-181.421	-0.195	0.004
-718.791	620.410	0.050	-0.126
-717.777	-27.643	-0.295	0.172
-716.762	96.445	0.053	0.061
-715.748	-33.768	-0.189	0.105
-714.733	800.000	0.034	0.134
-713.718	-11.228	-0.203	-0.134
-712.704	-20.559	-0.251	-0.155
-711.689	119.454	-0.088	-0.109
-710.675	65.145	-0.076	-0.077
-709.660	-198.962	0.349	0.002
-708.645	-150.187	0.278	-0.022
-707.631	-48.451	0.091	-0.044
-706.616	-78.933	-0.110	-0.037
-705.602	-40.452	-0.243	-0.127
-704.587	128.990	-0.117	-0.150
-703.572	-39.604	-0.061	0.032
-702.558	36.942	-0.251	-0.223
-701.543	800.000	0.111	-0.314
-700.529	-60.226	-0.220	0.094
-699.514	36.864	-0.194	0.172
-698.499	33.033	0.188	-0.164
-697.485	-15.482	-0.386	-0.248
-696.470	63.503	0.082	0.082
-695.456	-147.595	0.132	-0.011
-694.441	-43.285	0.263	-0.134
-693.426	-200.000	0.001	0.113
-692.412	247.049	-0.098	0.166
-691.397	-104.259	-0.209	-0.049
-690.383	367.447	0.108	0.219
-689.368	-200.000	-0.027	0.260
-688.354	155.561	-0.089	-0.123
-687.339	-127.944	0.235	-0.034
-686.324	-200.000	-0.012	-0.076
-685.310	13.603	-0.284	0.222
-684.295	-200.000	0.030	-0.173
-683.281	120.028	-0.098	-0.122
-682.266	800.000	-0.036	-0.123
-681.251	800.000	-0.145	-0.463
-680.237	-26.422	-0.483	-0.284
-679.222	10.532	0.223	-0.171
-678.208	-48.394	0.060	-0.029
-677.193	110.141	-0.244	-0.295
-676.178	800.000	-0.073	0.209
-675.164	91.518	0.214	-0.241
-674.149	-46.198	-0.445	0.220
-673.135	6.929	-0.284	-0.213
-672.120	-139.219	-0.420	-0.045
-671.105	273.395	0.091	-0.162
-670.091	3.006	-0.143	0.104
-669.076	30.412	-0.220	0.188
-668.062	-112.772	0.126	-0.025
-667.047	-39.918	0.062	0.032
-666.032	44.757	0.322	0.298
-665.018	-79.707	-0.417	0.141
-664.003	-17.800	0.188	-0.119
-662.989	-148.396	0.265	-0.022
-661.974	-200.000	0.006	-0.201
-660.959	-2.370	-0.131	0.092
-659.945	-37.468	-0.088	-0.047
-658.930	-31.503	0.361	0.204
-657.916	471.984	0.061	0.137
-656.901	800.000	0.020	-0.067
-655.886	154.107	-0.135	0.186
-654.872	515.057	-0.181	0.423
-653.857	49.482	-0.090	-0.085
-652.843	12.976	-0.189	0.147
-651.828	-87.439	-0.183	-0.056
-650.814	-42.670	-0.169	-0.086
-649.799	-6.701	-0.277	0.189
-648.784	539.222	0.036	-0.085
-647.770	-62.447	0.135	-0.056
-646.755	115.194	0.255	0.313
-645.741	800.000	0.065	-0.235
-644.726	255.350	0.127	-0.219
-643.711	153.006	-0.076	-0.104
-642.697	497.064	-0.098	-0.226
-641.682	-144.852	-0.054	-0.005
-640.668	119.915	-0.010	0.012
-639.653	-200.000	0.019	-0.247
-638.638	-200.000	-0.024	0.202
-637.624	-113.646	-0.235	-0.046
-636.609	95.838	0.176	-0.202
-635.595	-200.000	-0.015	-0.071
-634.580	800.000	-0.054	0.163
-633.565	800.000	-0.057	-0.175
-632.551	800.000	0.037	0.111
-631.536	800.000	0.078	-0.221
-630.522	-134.686	-0.125	-0.015
-629.507	-200.000	-0.064	0.557
-628.492	29.065	-0.181	0.154
-627.478	-79.922	0.110	-0.037
-626.463	-86.448	-0.513	0.158
-625.449	-55.075	-0.319	0.144
-624.434	-50.055	0.167	-0.079
-623.419	-138.068	-0.165	0.018
-622.405	325.944	-0.127	-0.244
-621.390	-68.468	-0.477	-0.185
-620.376	-33.597	-0.386	-0.213
-619.361	73.993	0.385	-0.405
-618.346	214.401	-0.028	-0.044
-617.332	14.098	-0.080	0.063
-616.317	-200.000	0.011	-0.118
-615.303	-109.611	-0.112	-0.024
-614.288	394.958	-0.036	0.075
-613.273	514.221	-0.084	0.196
-612.259	658.262	0.066	-0.169
-611.244	-123.447	-0.259	-0.041
-610.230	309.674	-0.231	-0.433
-609.215	-200.000	0.039	0.191
-608.201	324.262	-0.018	0.034
-607.186	48.051	-0.118	-0.110
-606.171	85.315	0.296	-0.326
-605.157	233.898	-0.104	-0.172
-604.142	-200.000	-0.018	0.335
-603.128	241.750	-0.056	-0.094
-602.113	-122.899	-0.256	-0.041
-601.098	-200.000	0.026	-0.151
-600.084	177.566	-0.226	0.329
-599.069	609.882	0.130	0.324
-598.055	199.274	-0.054	0.082
-597.040	52.513	-0.033	-0.031
-596.025	-119.822	0.206	-0.035
-595.011	-200.000	-0.022	0.369
-593.996	-176.646	0.294	0.008
-592.982	71.431	0.181	0.188
-591.967	-133.254	0.225	0.028
-590.952	-82.199	0.040	0.013
-589.938	40.957	-0.067	0.060
-588.923	104.365	-0.005	-0.006
-587.909	30.877	-0.220	0.188
-586.894	-60.447	0.421	-0.179
-585.879	-200.000	-0.023	-0.256
-584.865	-95.818	0.096	-0.026
-583.850	-200.000	-0.034	0.197
-582.836	-57.358	0.099	0.043
-581.821	188.335	0.161	-0.241
-580.806	-165.137	-0.222	0.010
-579.792	800.000	0.097	0.372
-578.777	105.100	-0.099	-0.117
-577.763	-70.888	0.251	0.095
-576.748	-55.668	-0.086	0.039
-575.733	-200.000	-0.012	-0.196
-574.719	-3.315	0.085	0.059
-573.704	23.891	0.079	-0.065
-572.690	684.634	0.043	0.112
-571.675	582.306	0.160	-0.393
-570.661	-200.000	0.021	-0.121
-569.646	-95.693	0.108	-0.029
-568.631	-129.121	-0.213	-0.030
-567.617	19.708	-0.087	0.070
-566.602	-33.878	-0.284	0.156
-565.588	-156.548	0.114	0.007
-564.573	800.000	-0.050	0.169
-563.558	133.176	-0.094	0.122
-562.544	800.000	0.026	0.095
-561.529	-2.038	0.178	0.125
-560.515	-200.000	-0.030	0.342
-559.500	800.000	-0.061	-0.247
-558.485	568.864	0.090	0.218
-557.471	-115.681	-0.016	-0.003
-556.456	-53.030	-0.182	0.084
-555.442	-50.266	0.132	-0.062
-554.427	800.000	-0.082	-0.231
-553.412	800.000	0.073	-0.219
-552.398	-138.578	-0.153	-0.017
-551.383	268.729	0.033	-0.058
-550.369	-200.000	-0.036	0.222
-549.354	-128.403	0.292	-0.042
-548.339	176.368	0.068	0.099
-547.325	-200.000	-0.006	0.055
-546.310	-85.546	-0.308	-0.096
-545.296	-200.000	0.001	0.141
-544.281	68.956	0.088	0.091
-543.266	31.502	0.162	0.140
-542.252	-200.000	-0.028	0.130
-541.237	-200.000	0.001	-0.280
-540.223	102.533	0.200	0.233
-539.208	117.982	-0.202	0.248
-538.193	-200.000	-0.015	0.074
-537.179	-118.645	0.117	0.021
-536.164	-200.000	0.008	-0.175
-535.150	800.000	-0.043	0.131
-534.135	800.000	0.072	0.214
-533.121	-9.479	-0.137	0.091
-532.106	-200.000	0.042	0.349
-531.091	649.033	0.101	0.257
-530.077	67.218	-0.060	-0.061
-529.062	20.396	0.187	0.151
-528.048	-134.509	0.224	0.027
-527.033	63.030	-0.093	-0.093
-526.018	37.195	-0.164	0.145
-525.004	-85.139	-0.179	-0.056
-523.989	-129.506	0.299	-0.041
-522.975	100.326	-0.174	0.201
-521.960	-127.437	0.217	-0.032
-520.945	749.471	-0.233	-0.628
-519.931	-121.356	-0.418	-0.070
-518.916	-124.065	0.148	0.023
-517.902	42.591	-0.412	-0.374
-516.887	-12.119	0.156	0.102
-515.872	66.666	0.279	0.284
-514.858	-200.000	-0.003	0.073
-513.843	58.871	-0.149	0.147
-512.829	-91.828	0.161	-0.046
-511.814	-62.215	-0.302	-0.125
-510.799	-109.772	0.302	-0.063
-509.785	-159.569	0.307	-0.017
-508.770	148.374	0.284	0.383
-507.756	-200.000	-0.031	0.188
-506.741	58.985	0.281	-0.275
-505.726	-200.000	-0.011	-0.168
-504.712	570.615	0.055	-0.133
-503.697	-136.193	-0.070	0.008
-502.683	-64.308	-0.083	-0.034
-501.668	207.533	-0.104	-0.161
-500.653	800.000	0.083	-0.322
-499.639	-200.000	0.010	0.152
-498.624	-158.701	0.052	0.003
-497.610	204.854	-0.075	-0.117
-496.595	-187.706	0.182	-0.002
-495.581	-200.000	0.034	-0.277
-494.566	553.123	-0.097	-0.232
-493.551	-24.715	-0.413	0.245
-492.537	-140.571	0.261	0.027
-491.522	-200.000	-0.019	0.178
-490.508	-200.000	-0.047	0.349
-489.493	15.312	-0.070	0.055
-488.478	-200.000	0.022	-0.107
-487.464	-200.000	0.001	-0.103
-486.449	644.584	0.032	-0.080
-485.435	-160.735	0.392	-0.021
-484.420	-200.000	0.009	-0.079
-483.405	-9.634	-0.216	0.143
-482.391	800.000	-0.017	0.063
-481.376	800.000	-0.067	0.234
-480.362	486.669	0.153	0.347
-479.347	-67.426	0.171	0.067
-478.332	-175.007	-0.325	0.009
-477.318	-71.475	0.031	-0.012
-476.303	-200.000	-0.025	-0.272
-475.289	83.160	0.114	-0.124
-474.274	115.387	0.160	0.195
-473.259	-45.505	0.150	-0.074
-472.245	-90.867	-0.137	0.039
-471.230	-43.961	0.352	-0.176
-470.216	800.000	-0.008	0.029
-469.201	-127.573	-0.140	0.020
-468.186	-129.378	-0.155	0.021
-467.172	228.703	-0.264	-0.429
-466.157	-58.445	-0.157	0.068
-465.143	-48.408	-0.263	-0.126
-464.128	-82.975	-0.146	-0.047
-463.113	800.000	0.036	-0.143
-462.099	340.010	0.133	0.259
-461.084	800.000	-0.046	0.155
-460.070	-200.000	0.008	-0.253
-459.055	-90.834	-0.388	0.111
-458.040	-102.007	-0.120	0.029
-457.026	118.543	-0.087	-0.107
-456.011	-200.000	0.031	-0.177
-454.997	-200.000	-0.040	-0.193
-453.982	382.104	0.067	-0.137
-452.968	670.737	0.176	-0.453
-451.953	14.752	-0.179	0.140
-450.938	-200.000	0.067	-0.336
-449.924	25.487	0.119	-0.099
-448.909	-102.576	0.415	-0.099
-447.895	85.669	-0.181	0.198
-446.880	44.290	0.274	-0.250
-445.865	-173.777	-0.306	-0.009
-444.851	-105.871	-0.388	-0.087
-443.836	246.905	0.014	-0.024
-442.822	-200.000	0.041	-0.253
-441.807	-178.929	0.111	0.003
-440.792	36.935	-0.174	-0.153
-439.778	97.924	-0.083	0.095
-438.763	-90.627	0.190	0.055
-437.749	-110.137	-0.236	-0.049
-436.734	800.000	0.141	0.466
-435.719	-166.275	0.117	-0.005
-434.705	22.309	-0.107	-0.087
-433.690	-108.626	-0.303	0.065
-432.676	-103.879	-0.268	0.062
-431.661	-74.666	-0.272	-0.097
-430.646	503.450	-0.087	-0.200
-429.632	27.785	-0.099	0.083
-428.617	198.631	-0.041	0.062
-427.603	109.361	-0.214	-0.254
-426.588	-92.171	-0.268	-0.075
-425.573	-95.040	-0.149	-0.040
-424.559	-35.187	-0.061	0.033
-423.544	363.632	0.044	-0.088
-422.530	57.493	0.235	0.228
-421.515	-47.932	-0.409	-0.197
-420.500	-80.726	0.381	0.126
-419.486	-200.000	0.043	-0.201
-418.471	-200.000	0.052	-0.482
-417.457	217.256	-0.078	-0.124
-416.442	-56.735	-0.092	-0.041
-415.428	800.000	-0.065	-0.182
-414.413	77.040	0.020	0.022
-413.398	96.028	-0.122	-0.139
-412.384	-5.672	0.262	-0.178
-411.369	228.351	0.254	-0.411
-410.355	-200.000	-0.019	-0.316
-409.340	-200.000	0.067	0.361
-408.325	115.357	0.074	0.090
-407.311	-200.000	0.000	0.165
-406.296	-200.000	-0.026	0.168
-405.282	237.898	0.123	-0.203
-404.267	344.510	0.050	0.097
-403.252	485.595	0.149	0.338
-402.238	76.961	0.203	-0.214
-401.223	545.107	-0.043	-0.103
-400.209	800.000	-0.048	-0.154
-399.194	5.331	-0.373	-0.273
-398.179	800.000	-0.035	0.120
-397.165	-145.651	0.205	0.018
-396.150	-5.044	-0.166	-0.113
-395.136	69.695	-0.081	-0.083
-394.121	540.795	0.084	0.200
-393.106	103.497	0.139	0.162
-392.092	-99.084	0.181	0.045
-391.077	-200.000	0.015	0.237
-390.063	742.424	-0.049	-0.131
-389.048	329.414	0.117	-0.224
-388.033	32.942	-0.190	0.163
-387.019	-37.814	0.137	0.072
-386.004	528.908	-0.104	-0.243
-384.990	287.540	-0.154	-0.276
-383.975	-60.776	0.039	0.016
-382.960	796.121	-0.087	0.237
-381.946	-200.000	0.043	-0.215
-380.931	-200.000	-0.017	0.143
-379.917	-136.658	0.157	-0.018
-378.902	-200.000	-0.059	0.363
-377.888	60.040	0.103	0.101
-376.873	-91.449	0.164	0.047
-375.858	800.000	-0.030	-0.107
-374.844	-200.000	0.014	0.188
-373.829	167.063	-0.183	0.258
-372.815	-53.481	0.024	-0.011
-371.800	-155.367	0.112	-0.007
-370.785	-200.000	0.004	-0.298
-369.771	800.000	0.070	-0.201
-368.756	138.667	0.066	0.086
-367.742	146.874	-0.112	-0.149
-366.727	-83.429	0.171	-0.054
-365.712	800.000	-0.072	0.309
-364.698	-200.000	0.048	0.239
-363.683	-200.000	-0.029	-0.160
-362.669	800.000	0.065	0.190
-361.654	717.207	0.095	-0.251
-360.639	554.985	0.061	0.146
-359.625	-90.532	-0.208	-0.060
-358.610	78.103	-0.099	-0.105
-357.596	-200.000	0.009	0.189
-356.581	38.806	-0.218	0.193
-355.566	-200.000	-0.012	-0.213
-354.552	-88.730	0.291	-0.086
-353.537	314.130	0.058	0.108
-352.523	-121.367	0.251	0.042
-351.508	605.021	0.056	0.138
-350.493	-44.334	0.148	-0.073
-349.479	120.701	0.035	-0.043
-348.464	-200.000	0.052	-0.379
-347.450	70.247	0.322	-0.330
-346.435	295.544	0.201	-0.365
-345.420	156.066	0.129	-0.177
-344.406	-200.000	-0.026	0.259
-343.391	104.231	0.368	0.430
-342.377	800.000	-0.056	0.180
-341.362	306.471	-0.089	0.163
-340.348	522.396	0.055	0.127
-339.333	-130.044	0.339	-0.046
-338.318	44.556	0.237	-0.216
-337.304	-200.000	-0.012	-0.350
-336.289	58.500	-0.045	0.044
-335.275	-200.000	-0.017	-0.115
-334.260	282.966	0.122	-0.218
-333.245	114.162	-0.121	-0.145
-332.231	124.936	-0.176	0.220
-331.216	-136.076	0.050	0.006
-330.202	-200.000	0.014	-0.375
-329.187	-32.709	-0.231	-0.127
-328.172	114.054	0.184	-0.222
-327.158	-40.718	-0.190	-0.098
-326.143	384.434	0.100	0.203
-325.129	75.658	-0.071	-0.075
-324.114	-8.037	-0.037	-0.025
-323.099	800.000	0.050	-0.149
-322.085	81.573	-0.251	0.269
-321.070	-200.000	-0.038	0.281
-320.056	4.527	-0.296	-0.215
-319.041	-38.740	0.261	0.136
-318.026	-45.518	-0.144	0.071
-317.012	-144.368	0.037	0.003
-315.997	-134.628	0.311	0.038
-314.983	-6.385	-0.246	0.166
-313.968	-95.970	0.296	0.078
-312.953	-97.034	0.143	-0.037
-311.939	-200.000	-0.003	0.182
-310.924	800.000	-0.066	-0.213
-309.910	274.085	0.074	-0.129
-308.895	800.000	0.028	0.104
-307.880	-3.998	0.359	-0.246
-306.866	-37.720	-0.121	-0.064
-305.851	-200.000	-0.022	0.104
-304.837	-72.955	0.110	-0.040
-303.822	-113.880	0.206	-0.040
-302.807	-11.373	0.303	0.198
-301.793	0.095	-0.194	-0.137
-300.778	-79.640	0.202	-0.067
-299.764	-200.000	-0.009	0.237
-298.749	-200.000	0.028	-0.311
-297.735	337.956	-0.216	0.416
-296.720	315.442	0.218	-0.407
-295.705	185.871	0.062	0.091
-294.691	-200.000	-0.015	0.175
-293.676	65.684	-0.043	0.043
-292.662	-97.212	0.222	0.057
-291.647	-200.000	0.002	0.133
-290.632	0.148	-0.096	0.068
-289.618	-19.222	-0.238	0.146
-288.603	-29.586	-0.317	-0.179
-287.589	713.933	0.077	-0.202
-286.574	-200.000	-0.011	-0.230
-285.559	-200.000	0.008	-0.099
-284.545	-200.000	0.074	0.334
-283.530	166.103	-0.127	-0.177
-282.516	-28.396	0.117	-0.067
-281.501	-41.081	-0.219	0.112
-280.486	-200.000	0.004	0.070
-279.472	69.877	-0.074	-0.075
-278.457	117.655	-0.163	-0.198
-277.443	-200.000	-0.014	0.204
-276.428	-172.404	0.360	0.011
-275.413	-140.265	-0.033	-0.003
-274.399	800.000	-0.065	-0.209
-273.384	42.286	0.234	-0.210
-272.370	-147.237	0.473	0.040
-271.355	505.090	-0.081	0.185
-270.340	-74.049	0.573	-0.205
-269.326	800.000	0.047	-0.197
-268.311	17.281	0.273	0.214
-267.297	-36.944	-0.300	-0.159
-266.282	-116.455	-0.236	-0.043
-265.267	51.910	-0.008	-0.007
-264.253	-61.512	-0.367	0.152
-263.238	643.751	0.155	0.391
-262.224	62.693	-0.077	0.076
-261.209	643.347	-0.088	-0.222
-260.195	37.838	0.246	-0.216
-259.180	-200.000	0.066	0.332
-258.165	261.817	0.135	0.231
-257.151	107.840	0.128	-0.150
-256.136	800.000	-0.078	0.250
-255.122	121.350	-0.081	-0.100
-254.107	-200.000	-0.044	-0.316
-253.092	62.246	0.258	0.254
-252.078	185.459	0.067	0.099
-251.063	-200.000	0.026	0.197
-250.049	-24.002	0.318	0.188
-249.034	-200.000	-0.033	-0.279
-248.019	47.464	-0.090	0.083
-247.005	80.591	-0.120	0.127
-245.990	-107.812	0.242	0.052
-244.976	1.011	0.106	-0.075
-243.961	800.000	-0.104	0.355
-242.946	-10.874	-0.389	-0.254
-241.932	-146.537	-0.291	-0.025
-240.917	-172.424	0.024	-0.001
-239.903	-200.000	0.014	0.161
-238.888	800.000	0.039	-0.111
-237.873	2.912	0.204	0.146
-236.859	57.134	-0.153	0.147
-235.844	204.273	-0.043	-0.066
-234.830	323.554	0.146	-0.275
-233.815	-3.351	0.231	0.159
-232.800	-200.000	-0.005	0.199
-231.786	-200.000	-0.032	0.224
-230.771	-176.953	-0.424	-0.011
-229.757	624.940	0.021	0.052
-228.742	-85.968	-0.170	0.052
-227.727	335.666	-0.114	-0.218
-226.713	-146.523	0.242	0.021
-225.698	-200.000	-0.014	0.250
-224.684	52.293	0.171	0.161
-223.669	-34.578	-0.250	-0.135
-222.655	-147.433	0.263	0.022
-221.640	530.864	-0.133	-0.310
-220.625	72.048	-0.183	-0.187
-219.611	-200.000	-0.021	0.297
-218.596	-200.000	0.009	0.555
-217.582	-200.000	-0.018	0.260
-216.567	-58.936	-0.023	0.010
-215.552	649.917	-0.085	0.216
-214.538	-96.191	-0.226	0.059
-213.523	-41.124	0.016	-0.008
-212.509	36.277	0.357	-0.310
-211.494	220.963	-0.151	-0.240
-210.479	99.406	0.243	0.277
-209.465	28.163	-0.095	-0.079
-208.450	32.535	-0.155	0.132
-207.436	-94.356	-0.369	0.099
-206.421	800.000	0.040	-0.140
-205.406	800.000	-0.067	0.269
-204.392	-101.732	-0.294	0.070
-203.377	19.152	0.214	0.169
-202.363	-109.809	0.092	-0.019
-201.348	-200.000	-0.000	0.115
-200.333	210.766	-0.147	0.227
-199.319	-200.000	-0.004	-0.077
-198.304	800.000	0.017	-0.061
-197.290	-36.440	0.065	0.034
-196.275	-83.749	-0.331	0.104
-195.260	129.370	0.232	-0.292
-194.246	202.509	0.125	-0.191
-193.231	301.175	0.144	0.262
-192.217	-51.198	0.149	0.069
-191.202	800.000	-0.046	0.185
-190.187	-200.000	-0.012	0.192
-189.173	800.000	0.069	0.294
-188.158	190.205	0.117	0.173
-187.144	800.000	-0.079	-0.259
-186.129	-55.358	-0.348	0.154
-185.114	800.000	-0.087	-0.246
-184.100	-77.721	0.205	-0.070
-183.085	-200.000	0.044	0.360
-182.071	-8.863	-0.070	-0.046
-181.056	72.605	-0.274	0.282
-180.042	-79.451	-0.145	-0.048
-179.027	254.513	0.161	0.272
-178.012	65.709	0.043	-0.042
-176.998	78.754	-0.220	-0.232
-175.983	-38.250	0.041	0.021
-174.969	17.836	0.087	0.069
-173.954	-84.115	-0.328	-0.102
-172.939	-19.654	0.151	-0.092
-171.925	427.965	-0.018	0.039
-170.910	-200.000	0.062	-0.561
-169.896	800.000	-0.113	-0.454
-168.881	186.273	-0.038	0.055
-167.866	471.100	-0.083	-0.185
-166.852	-200.000	-0.013	0.277
-165.837	800.000	0.022	0.087
-164.823	-106.552	0.328	-0.072
-163.808	57.269	-0.181	-0.174
-162.793	-200.000	-0.061	0.438
-161.779	-76.209	0.293	-0.102
-160.764	-54.609	0.176	-0.078
-159.750	9.378	0.073	0.054
-158.735	-200.000	-0.003	-0.022
-157.720	-133.847	0.123	0.015
-156.706	-167.961	-0.066	0.003
-155.691	565.622	0.042	0.099
-154.677	35.103	0.141	-0.121
-153.662	454.810	0.110	0.241
-152.647	-106.781	-0.450	0.098
-151.633	682.656	-0.103	0.265
-150.618	-6.953	0.187	-0.125
-149.604	-157.256	0.165	-0.010
-148.589	-25.709	-0.162	0.094
-147.574	203.875	-0.193	0.294
-146.560	-200.000	-0.038	0.171
-145.545	-22.509	-0.093	-0.056
-144.531	317.918	0.188	0.350
-143.516	456.890	-0.067	-0.145
-142.502	7.847	-0.018	0.013
-141.487	-133.784	0.254	0.031
-140.472	-172.685	-0.225	-0.007
-139.458	468.531	0.083	0.183
-138.443	-50.756	0.346	-0.160
-137.429	-200.000	-0.006	-0.609
-136.414	-17.919	0.034	-0.021
-135.399	800.000	-0.086	0.286
-134.385	268.514	-0.104	-0.179
-133.370	-147.653	0.257	0.021
-132.356	-173.219	-0.162	-0.005
-131.341	-24.574	0.203	0.119
-130.326	43.902	0.075	0.068
-129.312	800.000	-0.041	0.135
-128.297	-200.000	0.047	0.326
-127.283	-133.210	-0.151	-0.019
-126.268	-156.707	-0.148	-0.009
-125.253	99.814	0.129	-0.147
-124.239	-68.503	-0.230	0.088
-123.224	-200.000	0.008	0.047
-122.210	-69.618	-0.334	-0.126
-121.195	-200.000	-0.059	-0.295
-120.180	-200.000	0.080	0.452
-119.166	45.856	-0.099	-0.090
-118.151	-153.884	0.302	-0.020
-117.137	-136.828	-0.215	0.024
-116.122	-7.334	0.158	0.105
-115.107	-200.000	-0.491	0.002
-114.093	89.395	0.159	-0.174
-113.078	-20.304	-0.061	-0.037
-112.064	-51.451	-0.282	0.129
-111.049	43.664	0.162	-0.146
-110.034	-49.972	-0.373	0.174
-109.020	97.333	0.162	0.182
-108.005	-56.347	0.155	-0.068
-106.991	251.789	-0.155	-0.259
-105.976	35.031	0.052	-0.044
-104.962	-115.550	-0.226	0.042
-103.947	-12.605	-0.055	0.035
-102.932	-200.000	0.002	0.326
-101.918	193.922	-0.079	-0.117
-100.903	-37.905	-0.157	0.082
-99.889	88.042	-0.155	-0.169
-98.874	-108.048	-0.347	-0.074
-97.859	173.838	-0.082	0.116
-96.845	396.064	-0.107	0.218
-95.830	-62.428	0.089	-0.036
-94.816	800.000	0.142	0.403
-93.801	382.763	-0.031	-0.063
-92.786	137.703	0.176	-0.226
-91.772	-131.640	-0.100	-0.013
-90.757	800.000	-0.006	0.025
-89.743	800.000	0.089	0.254
-88.728	-156.862	0.231	-0.014
-87.713	-200.000	-0.015	-0.101
-86.699	-200.000	0.060	-0.322
-85.684	-200.000	-0.014	-0.064
-84.670	-200.000	0.072	0.348
-83.655	-146.962	-0.156	-0.013
-82.640	-179.274	0.306	0.007
-81.626	199.170	-0.067	0.101
-80.611	-49.267	0.070	-0.033
-79.597	-164.912	-0.146	0.006
-78.582	0.150	-0.286	-0.200
-77.567	19.280	0.255	0.201
-76.553	514.571	0.056	0.127
-75.538	202.122	-0.087	0.131
-74.524	-73.989	0.072	-0.026
-73.509	32.442	-0.132	-0.112
-72.494	247.432	0.116	-0.192
-71.480	113.136	0.159	0.189
-70.465	155.932	0.151	0.205
-69.451	-6.278	0.216	0.145
-68.436	60.834	0.074	-0.071
-67.422	674.308	-0.029	-0.073
-66.407	-200.000	-0.032	0.501
-65.392	800.000	-0.037	-0.102
-64.378	-148.704	0.499	-0.040
-63.363	800.000	-0.146	0.546
-62.349	487.253	-0.216	0.482
-61.334	5.758	-1.047	-0.759
-60.319	163.994	0.442	0.611
-59.305	-200.000	-0.234	-1.010
-58.290	189.295	0.880	1.292
-57.276	611.028	0.666	1.631
-56.261	-200.000	103.371	613.045
-55.246	517.886	1469.683	3370.601
-54.232	180.722	2672.233	3845.559
-53.217	106.543	2284.624	2655.338
-52.203	39.478	1895.108	1664.044
-51.188	33.580	1683.121	1433.427
-50.173	31.041	1639.560	1377.543
-49.159	49.490	1691.683	1560.235
-48.144	50.201	1707.934	1580.498
-47.130	33.205	1666.112	1415.905
-46.115	30.505	1651.707	1383.538
-45.100	30.394	1646.371	1378.188
-44.086	30.365	1643.772	1375.747
-43.071	30.264	1641.340	1372.908
-42.057	30.247	1639.016	1370.782
-41.042	30.311	1636.738	1369.298
-40.027	30.324	1635.519	1368.317
-39.013	30.285	1632.817	1365.713
-37.998	30.184	1632.435	1364.596
-36.984	30.318	1630.886	1364.236
-35.969	30.271	1629.447	1362.632
-34.954	30.475	1627.028	1362.048
-33.940	30.369	1625.892	1360.268
-32.925	30.452	1623.720	1359.005
-31.911	30.409	1622.477	1357.594
-30.896	30.295	1620.858	1355.356
-29.881	30.342	1618.907	1354.017
-28.867	30.400	1616.900	1352.705
-27.852	30.404	1615.354	1351.386
-26.838	30.403	1614.021	1350.213
-25.823	30.342	1613.156	1348.987
-24.809	30.437	1611.054	1347.865
-23.794	30.336	1610.071	1346.258
-22.779	30.378	1608.719	1345.379
-21.765	30.313	1607.203	1343.588
-20.750	30.398	1605.179	1342.454
-19.736	30.369	1604.031	1341.231
-18.721	30.460	1602.323	1340.410
-17.706	30.315	1601.460	1338.586
-16.692	30.455	1598.944	1337.442
-15.677	30.325	1598.814	1336.343
-14.663	30.475	1596.980	1335.837
-13.648	30.455	1595.650	1334.529
-12.633	30.443	1594.075	1333.066
-11.619	30.335	1592.717	1331.106
-10.604	30.424	1591.048	1330.298
-9.590	30.424	1589.965	1329.341
-8.575	30.413	1588.916	1328.329
-7.560	30.425	1587.712	1327.358
-6.546	30.468	1586.201	1326.350
-5.531	30.405	1585.522	1325.276
-4.517	30.399	1584.131	1324.021
-3.502	30.463	1582.965	1323.448
-2.487	30.523	1581.430	1322.538
-1.473	29.971	1569.898	1308.941
-0.458	27.201	1549.694	1272.685
0.556	21.310	1551.256	1241.831
1.571	19.016	1575.257	1244.357
2.586	18.707	1588.706	1252.617
3.600	17.021	1536.006	1199.048
4.615	8.973	1427.224	1060.995
5.629	1.212	1362.912	963.923
6.644	-0.181	1354.270	948.927
7.659	-0.385	1353.610	947.090
8.673	-0.304	1352.035	946.417
9.688	-0.370	1349.978	944.478
10.702	-0.586	1347.094	941.019
11.717	2.575	1353.567	965.399
12.731	11.782	1370.873	1036.193
13.746	18.893	1383.074	1090.604
14.761	20.417	1384.760	1101.509
15.775	20.640	1384.317	1102.473
16.790	20.703	1384.012	1102.528
17.804	20.808	1383.026	1102.310
18.819	20.884	1383.511	1103.082
19.834	21.057	1382.337	1103.143
20.848	21.002	1381.723	1102.209
21.863	21.008	1380.763	1101.380
22.877	21.164	1379.868	1101.556
23.892	21.156	1379.130	1100.822
24.907	21.146	1377.834	1099.627
25.921	21.046	1377.640	1098.744
26.936	21.087	1376.614	1098.085
27.950	21.122	1375.060	1096.968
28.965	21.045	1374.018	1095.555
29.980	21.010	1372.860	1094.315
30.994	21.138	1371.487	1093.929
32.009	21.042	1370.679	1092.581
33.023	21.060	1369.311	1091.513
34.038	20.999	1368.474	1090.363
35.053	20.929	1367.574	1089.113
36.067	21.166	1366.197	1089.399
37.082	21.023	1365.165	1087.587
38.096	21.084	1364.140	1087.054
39.111	21.017	1363.137	1085.745
40.126	21.022	1362.999	1085.572
41.140	20.992	1362.470	1084.864
42.155	21.021	1362.271	1084.790
43.169	21.101	1362.171	1085.111
44.184	21.049	1361.700	1084.320
45.199	20.981	1361.198	1083.400
46.213	20.998	1360.389	1082.766
47.228	21.086	1359.650	1082.629
48.242	21.062	1358.473	1081.446
49.257	21.022	1356.865	1079.825
50.271	21.035	1355.630	1078.825
51.286	21.012	1353.845	1077.170
52.301	21.039	1353.240	1076.755
53.315	21.048	1352.258	1075.937
54.330	21.131	1351.159	1075.475
55.344	21.084	1350.049	1074.208
56.359	21.038	1349.004	1072.998
57.374	21.078	1348.484	1072.734
58.388	21.104	1347.562	1072.067
59.403	20.984	1347.499	1071.188
60.417	20.946	1346.937	1070.411
61.432	21.039	1345.856	1070.030
62.447	21.066	1344.749	1069.221
63.461	21.022	1344.187	1068.410
64.476	21.037	1342.822	1067.318
65.490	21.078	1341.738	1066.612
66.505	21.069	1340.402	1065.405
67.520	21.058	1339.122	1064.222
68.534	21.081	1338.259	1063.587
69.549	21.089	1336.940	1062.491
70.563	21.142	1335.955	1061.937
71.578	21.002	1335.396	1060.550
72.593	21.119	1333.970	1060.031
73.607	21.040	1333.533	1059.113
74.622	21.067	1332.862	1058.648
75.636	21.106	1332.445	1058.457
76.651	21.101	1331.695	1057.739
77.666	20.986	1331.092	1056.470
78.680	21.028	1330.428	1056.105
79.695	21.111	1329.214	1055.552
80.709	21.063	1328.439	1054.549
81.724	21.079	1327.464	1053.782
82.739	21.091	1326.605	1053.079
83.753	21.036	1325.625	1051.873
84.768	20.966	1324.402	1050.388
85.782	21.141	1323.368	1050.531
86.797	21.066	1322.437	1049.246
87.812	21.164	1321.090	1048.673
88.826	21.083	1320.226	1047.408
89.841	21.068	1319.357	1046.540
90.855	21.107	1318.141	1045.711
91.870	21.081	1316.917	1044.492
92.884	21.124	1316.523	1044.345
93.899	21.167	1315.711	1043.866
94.914	21.143	1314.968	1043.040
95.928	21.187	1313.780	1042.268
96.943	21.156	1313.000	1041.372
97.957	21.128	1312.640	1040.830
98.972	21.135	1311.616	1039.967
99.987	21.165	1310.555	1039.214
101.001	21.232	1309.094	1038.363
102.016	21.133	1308.262	1037.020
103.030	21.191	1307.810	1036.917
104.045	21.239	1306.987	1036.458
105.060	21.194	1305.947	1035.269
106.074	21.220	1304.640	1034.300
107.089	21.193	1303.701	1033.304
108.103	21.219	1302.651	1032.533
109.118	21.255	1301.341	1031.615
110.133	21.231	1299.980	1030.305
111.147	21.189	1299.192	1029.341
112.162	21.237	1298.018	1028.604
113.176	21.194	1297.266	1027.664
114.191	21.234	1296.055	1026.847
115.206	21.182	1294.951	1025.577
116.220	21.278	1293.680	1025.042
117.235	21.346	1292.298	1024.252
118.249	21.219	1291.912	1023.115
119.264	21.133	1291.012	1021.808
120.279	21.206	1289.980	1021.324
121.293	21.329	1288.808	1021.028
122.308	21.309	1288.315	1020.429
123.322	21.134	1287.486	1018.660
124.337	21.208	1286.346	1018.101
125.352	21.239	1285.075	1017.186
126.366	21.321	1284.386	1017.029
127.381	21.341	1283.349	1016.232
128.395	21.277	1282.321	1014.958
129.410	21.276	1281.971	1014.583
130.424	21.214	1281.010	1013.373
131.439	21.290	1280.143	1013.040
132.454	21.316	1279.308	1012.441
133.468	21.250	1278.754	1011.530
134.483	21.261	1278.079	1010.971
135.497	21.183	1276.907	1009.501
136.512	21.301	1275.498	1008.981
137.527	21.185	1274.849	1007.706
138.541	21.360	1273.102	1007.245
139.556	21.214	1272.142	1005.558
140.570	21.300	1271.074	1005.118
141.585	21.219	1270.270	1003.929
142.600	21.237	1269.074	1002.999
143.614	21.241	1268.477	1002.459
144.629	21.240	1267.087	1001.267
145.643	21.167	1266.337	1000.169
146.658	21.056	1265.329	998.648
147.673	21.177	1263.862	998.096
148.687	21.142	1263.116	997.215
149.702	21.261	1261.418	996.464
150.716	21.249	1260.656	995.708
151.731	21.145	1260.046	994.547
152.746	21.312	1258.468	994.162
153.760	21.230	1257.533	992.872
154.775	21.271	1256.546	992.235
155.789	21.289	1255.439	991.375
156.804	21.201	1254.858	990.331
157.819	21.318	1253.614	989.924
158.833	21.299	1253.156	989.369
159.848	21.352	1252.020	988.680
160.862	21.392	1251.176	988.153
161.877	21.292	1250.869	987.261
162.892	21.302	1249.672	986.285
163.906	21.296	1249.439	985.976
164.921	21.414	1248.044	985.454
165.935	21.300	1247.176	984.040
166.950	21.372	1246.607	983.911
167.964	21.308	1246.203	983.142
168.979	21.381	1245.646	983.025
169.994	21.334	1245.089	982.239
171.008	21.488	1244.274	982.375
172.023	21.379	1243.624	981.159
173.037	21.545	1242.542	981.150
174.052	21.577	1241.732	980.602
175.067	21.373	1241.258	979.001
176.081	21.350	1240.414	978.120
177.096	21.338	1239.632	977.346
178.110	21.364	1238.468	976.489
179.125	21.396	1237.869	976.108
180.140	21.433	1236.728	975.328
181.154	21.430	1235.508	974.263
182.169	21.388	1234.782	973.373
183.183	21.459	1233.452	972.635
184.198	21.323	1232.700	971.200
185.213	21.438	1231.257	970.611
186.227	21.468	1230.838	970.364
187.242	21.401	1230.338	969.510
188.256	21.483	1228.971	968.805
189.271	21.524	1228.069	968.234
190.286	21.554	1227.040	967.501
191.300	21.519	1227.179	967.334
192.315	21.390	1226.314	965.854
193.329	21.415	1225.759	965.468
194.344	21.576	1225.655	966.188
195.359	21.452	1225.086	964.973
196.373	21.469	1224.584	964.581
197.388	21.448	1224.176	964.063
198.402	21.382	1223.720	963.253
199.417	21.519	1223.571	963.807
200.432	21.627	1222.515	963.484
201.446	21.418	1222.492	962.231
202.461	21.479	1221.076	961.366
203.475	21.515	1220.524	961.044
204.490	21.482	1219.641	960.084
205.504	21.577	1218.338	959.491
206.519	21.618	1217.327	958.833
207.534	21.641	1216.322	958.085
208.548	21.497	1215.447	956.521
209.563	21.616	1214.758	956.545
210.577	21.511	1213.860	955.183
211.592	21.538	1213.452	954.924
212.607	21.528	1212.511	954.043
213.621	21.607	1211.864	953.879
214.636	21.606	1211.002	953.112
215.650	21.651	1210.153	952.602
216.665	21.544	1209.157	951.153
217.680	21.565	1208.174	950.411
218.694	21.590	1207.323	949.791
219.709	21.632	1206.760	949.494
220.723	21.660	1206.204	949.122
221.738	21.583	1205.618	948.162
222.753	21.501	1204.654	946.878
223.767	21.578	1204.530	947.112
224.782	21.619	1203.881	946.741
225.796	21.607	1203.060	945.947
226.811	21.809	1202.560	946.557
227.826	21.578	1202.002	944.787
228.840	21.659	1201.502	944.749
229.855	21.643	1200.768	944.001
230.869	21.612	1200.009	943.155
231.884	21.739	1199.140	943.070
232.899	21.615	1198.616	941.908
233.913	21.694	1197.888	941.681
234.928	21.698	1197.430	941.259
235.942	21.685	1196.874	940.668
236.957	21.725	1196.351	940.388
237.972	21.782	1195.414	939.872
238.986	21.769	1194.774	939.219
240.001	21.656	1194.405	938.240
241.015	21.864	1193.674	938.693
242.030	21.859	1192.592	937.736
243.045	21.805	1191.842	936.775
244.059	21.894	1191.365	936.788
245.074	21.785	1190.521	935.463
246.088	21.840	1189.362	934.762
247.103	21.875	1189.027	934.602
248.117	21.858	1188.197	933.776
249.132	21.927	1187.221	933.294
250.147	21.926	1186.449	932.599
251.161	21.908	1186.255	932.269
252.176	21.824	1185.555	931.191
253.190	21.891	1184.544	930.672
254.205	21.867	1184.154	930.154
255.220	21.934	1183.388	929.824
256.234	21.887	1183.082	929.253
257.249	21.882	1182.232	928.477
258.263	21.968	1181.848	928.546
259.278	22.029	1180.673	927.863
260.293	22.054	1180.502	927.779
261.307	22.049	1179.656	927.005
262.322	22.015	1179.363	926.517
263.336	22.026	1178.844	926.083
264.351	22.023	1178.000	925.322
265.366	22.029	1177.244	924.676
266.380	21.942	1176.783	923.775
267.395	21.978	1176.177	923.406
268.409	22.046	1175.200	922.918
269.424	22.039	1174.987	922.630
270.439	22.115	1174.527	922.588
271.453	22.032	1173.944	921.613
272.468	22.104	1172.809	921.020
273.482	21.979	1172.311	919.887
274.497	22.093	1171.910	920.089
275.512	22.209	1171.190	920.054
276.526	22.108	1170.471	918.879
277.541	22.072	1170.239	918.425
278.555	22.076	1169.237	917.579
279.570	22.183	1168.554	917.520
280.585	22.105	1167.557	916.248
281.599	22.134	1166.544	915.523
282.614	22.196	1165.689	915.095
283.628	22.153	1164.884	914.157
284.643	22.133	1164.242	913.468
285.657	22.066	1163.625	912.559
286.672	22.134	1162.924	912.277
287.687	22.170	1161.877	911.566
288.701	22.324	1160.801	911.435
289.716	22.240	1160.644	910.796
290.730	22.229	1159.800	910.000
291.745	22.208	1159.292	909.412
292.760	22.210	1158.671	908.853
293.774	22.335	1157.675	908.636
294.789	22.249	1157.696	908.131
295.803	22.312	1156.999	907.825
296.818	22.201	1156.659	906.908
297.833	22.375	1155.444	906.770
298.847	22.329	1154.819	905.962
299.862	22.352	1154.215	905.526
300.876	22.281	1153.998	904.913
301.891	22.234	1153.126	903.906
302.906	22.425	1151.939	903.876
303.920	22.392	1151.417	903.217
304.935	22.405	1151.335	903.142
305.949	22.379	1150.111	901.965
306.964	22.421	1149.616	901.713
307.979	22.354	1149.266	901.016
308.993	22.457	1148.736	901.048
310.008	22.465	1147.887	900.343
311.022	22.427	1147.138	899.481
312.037	22.479	1146.039	898.809
313.052	22.377	1145.592	897.855
314.066	22.512	1144.276	897.435
315.081	22.442	1143.733	896.574
316.095	22.456	1142.997	895.987
317.110	22.581	1142.662	896.280
318.125	22.634	1141.456	895.524
319.139	22.569	1141.286	894.983
320.154	22.575	1140.690	894.464
321.168	22.569	1140.451	894.167
322.183	22.481	1139.658	893.020
323.197	22.487	1138.959	892.425
324.212	22.525	1138.577	892.241
325.227	22.516	1138.264	891.872
326.241	22.661	1137.074	891.592
327.256	22.475	1137.034	890.538
328.270	22.534	1135.803	889.795
329.285	22.628	1134.531	889.193
330.300	22.666	1133.806	888.738
331.314	22.591	1133.447	888.002
332.329	22.592	1132.595	887.259
333.343	22.643	1131.341	886.453
334.358	22.737	1130.792	886.418
335.373	22.746	1130.227	885.942
336.387	22.608	1129.498	884.601
337.402	22.790	1129.098	885.123
338.416	22.800	1128.473	884.604
339.431	22.798	1127.684	883.900
340.446	22.740	1127.466	883.356
341.460	22.745	1126.953	882.905
342.475	22.790	1125.818	882.159
343.489	22.724	1124.639	880.828
344.504	22.756	1123.970	880.388
345.519	22.738	1123.506	879.857
346.533	22.779	1122.712	879.362
347.548	22.849	1121.747	878.875
348.562	22.695	1121.280	877.668
349.577	22.823	1120.204	877.382
350.592	22.781	1119.378	876.448
351.606	22.860	1118.783	876.295
352.621	22.917	1118.399	876.203
353.635	22.877	1117.609	875.308
354.650	22.886	1117.216	874.966
355.665	22.846	1116.695	874.283
356.679	22.949	1115.794	874.011
357.694	22.961	1115.126	873.469
358.708	22.886	1114.519	872.543
359.723	22.824	1113.915	871.687
360.738	22.875	1113.168	871.278
361.752	22.912	1112.782	871.083
362.767	22.943	1112.731	871.118
363.781	23.003	1112.002	870.764
364.796	23.001	1111.252	870.093
365.810	22.950	1110.742	869.363
366.825	23.019	1110.113	869.135
367.840	23.125	1109.594	869.173
368.854	22.991	1108.668	867.712
369.869	23.097	1107.980	867.616
370.883	23.076	1107.374	866.961
371.898	23.143	1106.606	866.610
372.913	23.051	1106.315	865.856
373.927	23.101	1105.618	865.479
374.942	23.164	1105.058	865.272
375.956	23.098	1104.576	864.495
376.971	23.119	1104.207	864.235
377.986	23.135	1103.746	863.876
379.000	23.150	1103.080	863.350
380.015	23.120	1102.789	862.899
381.029	23.200	1101.527	862.224
382.044	23.128	1101.183	861.526
383.059	23.337	1100.437	861.889
384.073	23.282	1099.716	860.980
385.088	23.295	1098.793	860.242
386.102	23.213	1098.123	859.246
387.117	23.245	1097.036	858.473
388.132	23.198	1096.202	857.516
389.146	23.247	1095.871	857.418
390.161	23.281	1095.197	856.979
391.175	23.222	1094.623	856.169
392.190	23.280	1093.790	855.723
393.205	23.356	1093.031	855.420
394.219	23.355	1092.153	854.653
395.234	23.371	1091.075	853.809
396.248	23.370	1090.457	853.247
397.263	23.396	1089.728	852.725
398.278	23.468	1089.135	852.534
399.292	23.519	1088.364	852.096
400.307	23.475	1087.885	851.435
401.321	23.411	1087.458	850.721
402.336	23.466	1086.773	850.373
403.350	23.384	1086.019	849.316
404.365	23.459	1085.260	849.004
405.380	23.565	1084.456	848.806
406.394	23.524	1083.845	848.059
407.409	23.511	1082.862	847.154
408.423	23.522	1082.362	846.737
409.438	23.520	1081.535	846.008
410.453	23.462	1081.179	845.377
411.467	23.538	1080.666	845.261
412.482	23.558	1079.556	844.417
413.496	23.581	1078.828	843.878
414.511	23.584	1078.510	843.570
415.526	23.617	1078.036	843.282
416.540	23.567	1078.070	842.996
417.555	23.567	1077.286	842.312
418.569	23.640	1076.679	842.107
419.584	23.578	1076.482	841.582
420.599	23.656	1075.606	841.194
421.613	149.008	1400.268	1798.924
422.628	137.461	1447.551	1799.041
