DTS Sentinel unit serial number:	SN413079Multiplexer serial number:	ORYXHardware model number:	OX4-SRSoftware version number:	ORYX F/W v4.00 Oryx Data Collector v3.7.2.0data status	okinstallation	princeton_trtdifferential loss correction	single-endedforward channel	channel 2reverse channel	N/Adate	2019/09/18time	06:43:35forward acquisition time	60.00reverse acquisition time	0.00gamma	496.2192k internal	0.2349k external	0.2349temperature offset calibration	0.9985default loss term (dB/km)	0.3790temperature slope calibration	1.0000multiplexer offset coefficient	1.0000multiplexer slope coefficient	1.0000fibre end	0.00T internal ref (°C)	23.25T ext. ref 1 (°C)	0.19T ext. ref 2 (°C)	17.10length (m)	temperature (°C)	Stokes	anti-Stokes-747.200	-114.161	0.369	-0.071
-746.185	-7.615	-0.147	-0.100
-745.171	-200.000	-0.048	0.404
-744.156	800.000	-0.105	0.374
-743.142	142.546	0.196	-0.260
-742.127	205.106	0.089	0.138
-741.112	571.016	0.071	0.173
-740.098	230.637	-0.074	0.121
-739.083	-200.000	0.009	0.168
-738.069	-94.426	0.194	-0.053
-737.054	-105.109	-0.174	0.040
-736.039	258.207	-0.026	-0.044
-735.025	107.230	0.089	0.106
-734.010	800.000	0.073	-0.212
-732.996	643.848	0.059	0.150
-731.981	-85.537	-0.179	0.056
-730.966	-57.597	0.231	0.101
-729.952	-187.744	-0.403	0.005
-728.937	61.102	0.074	0.074
-727.923	226.686	-0.008	0.013
-726.908	-63.701	0.177	-0.072
-725.894	39.353	-0.147	-0.132
-724.879	-12.992	-0.117	0.076
-723.864	-61.392	-0.062	0.026
-722.850	-200.000	-0.035	0.165
-721.835	-200.000	0.058	-0.296
-720.821	495.962	-0.023	0.052
-719.806	-146.721	-0.023	0.002
-718.791	-200.000	0.017	0.210
-717.777	-200.000	0.027	-0.256
-716.762	39.488	-0.271	-0.242
-715.748	-75.812	0.109	0.038
-714.733	-20.312	0.148	0.091
-713.718	-59.670	-0.401	-0.172
-712.704	-25.086	0.156	-0.092
-711.689	-76.770	-0.328	-0.115
-710.675	-82.902	-0.182	-0.059
-709.660	129.954	-0.015	0.020
-708.645	-146.096	0.296	0.026
-707.631	184.120	-0.152	-0.224
-706.616	-62.429	-0.277	-0.115
-705.602	-179.217	0.076	-0.002
-704.587	-163.073	0.153	0.007
-703.572	800.000	-0.113	-0.370
-702.558	-106.361	-0.072	-0.016
-701.543	320.911	0.087	-0.166
-700.529	-131.242	-0.083	-0.011
-699.514	-179.774	0.080	0.002
-698.499	211.968	-0.061	0.096
-697.485	111.698	-0.138	0.166
-696.470	-65.658	-0.196	-0.078
-695.456	160.144	0.080	0.111
-694.441	-131.729	-0.264	0.034
-693.426	-47.435	-0.196	-0.095
-692.412	-35.799	-0.159	-0.086
-691.397	-200.000	0.050	-0.337
-690.383	-149.012	-0.191	-0.015
-689.368	-88.316	-0.087	0.026
-688.354	255.090	0.237	0.405
-687.339	181.369	-0.093	-0.136
-686.324	419.779	-0.034	0.072
-685.310	-125.032	-0.276	-0.042
-684.295	58.412	-0.055	0.054
-683.281	-102.801	-0.423	-0.100
-682.266	290.474	-0.064	-0.115
-681.251	-57.131	-0.125	-0.055
-680.237	729.920	-0.152	0.406
-679.222	-200.000	-0.003	-0.047
-678.208	-200.000	-0.043	-0.431
-677.193	800.000	0.058	0.182
-676.178	800.000	0.029	-0.081
-675.164	22.524	0.132	-0.108
-674.149	-21.050	-0.146	-0.089
-673.135	-31.219	0.083	-0.047
-672.120	-67.813	-0.126	0.049
-671.105	298.632	-0.113	0.208
-670.091	-172.095	-0.195	-0.006
-669.076	193.913	0.126	0.189
-668.062	-55.277	-0.289	0.129
-667.047	-191.328	0.258	0.003
-666.032	-147.150	0.123	-0.010
-665.018	145.943	0.238	-0.318
-664.003	-200.000	-0.019	0.428
-662.989	-77.395	-0.371	0.128
-661.974	-98.733	0.067	-0.017
-660.959	-44.561	-0.216	0.108
-659.945	185.445	-0.166	-0.245
-658.930	-86.438	0.189	-0.058
-657.916	-193.414	-0.216	0.002
-656.901	-19.193	0.060	0.037
-655.886	33.210	0.223	0.193
-654.872	214.779	0.100	0.157
-653.857	-133.245	-0.251	-0.031
-652.843	-200.000	-0.027	0.163
-651.828	-19.569	-0.124	-0.077
-650.814	236.504	0.218	-0.360
-649.799	800.000	-0.060	0.169
-648.784	83.806	0.144	0.157
-647.770	-20.350	0.363	-0.222
-646.755	140.195	-0.150	0.197
-645.741	-142.826	-0.403	-0.039
-644.726	-0.299	-0.258	0.182
-643.711	800.000	0.061	-0.200
-642.697	-31.655	0.156	0.087
-641.682	-76.291	-0.101	-0.035
-640.668	-200.000	0.080	-0.440
-639.653	45.180	-0.030	-0.027
-638.638	-200.000	-0.006	-0.219
-637.624	80.518	-0.177	-0.190
-636.609	-200.000	0.003	0.014
-635.595	-200.000	0.014	-0.131
-634.580	-200.000	-0.002	-0.116
-633.565	-200.000	0.016	0.236
-632.551	174.000	-0.078	-0.112
-631.536	113.578	-0.054	0.065
-630.522	-13.908	-0.057	0.037
-629.507	56.489	0.151	-0.146
-628.492	280.487	-0.062	0.111
-627.478	-150.757	0.341	0.026
-626.463	197.218	0.083	0.126
-625.449	-200.000	-0.032	-0.211
-624.434	-40.182	-0.161	0.083
-623.419	-57.477	-0.073	-0.032
-622.405	-200.000	-0.001	-0.113
-621.390	-44.058	-0.241	-0.120
-620.376	287.281	0.024	0.044
-619.361	-200.000	0.034	0.194
-618.346	-69.982	0.214	-0.081
-617.332	-67.017	-0.225	-0.088
-616.317	-200.000	0.053	-0.337
-615.303	-86.872	0.051	-0.015
-614.288	103.836	0.136	0.159
-613.273	800.000	0.042	-0.146
-612.259	-91.261	-0.131	0.037
-611.244	-40.262	-0.197	0.102
-610.230	185.349	0.150	0.221
-609.215	800.000	-0.080	0.242
-608.201	800.000	-0.091	-0.321
-607.186	-200.000	0.061	-0.305
-606.171	-19.773	-0.277	-0.170
-605.157	-94.503	0.400	0.108
-604.142	471.050	0.037	-0.082
-603.128	-52.103	-0.171	0.079
-602.113	28.652	-0.329	0.277
-601.098	83.024	-0.257	0.278
-600.084	-36.166	-0.312	0.167
-599.069	71.029	0.083	-0.085
-598.055	612.263	0.083	0.207
-597.040	-41.760	0.177	0.090
-596.025	-148.891	-0.165	-0.013
-595.011	-200.000	-0.038	0.000
-593.996	-200.000	0.024	-0.292
-592.982	800.000	0.134	-0.453
-591.967	-78.518	0.128	-0.044
-590.952	-200.000	0.062	0.574
-589.938	-86.202	-0.422	-0.129
-588.923	-148.452	0.145	-0.012
-587.909	-158.538	0.172	-0.010
-586.894	-200.000	0.075	0.329
-585.879	65.011	0.247	0.248
-584.865	-200.000	0.050	0.261
-583.850	58.240	-0.024	0.023
-582.836	-183.702	0.012	-0.000
-581.821	-124.016	-0.137	-0.021
-580.806	-200.000	0.070	-0.315
-579.792	60.354	-0.135	0.133
-578.777	-12.468	-0.330	-0.214
-577.763	96.392	-0.117	-0.132
-576.748	800.000	0.047	-0.168
-575.733	-138.867	-0.123	0.013
-574.719	-87.061	-0.119	0.036
-573.704	11.622	0.087	-0.066
-572.690	251.056	-0.071	-0.120
-571.675	386.763	0.046	0.095
-570.661	129.114	0.143	-0.182
-569.646	266.501	-0.035	-0.061
-568.631	1.733	-0.219	0.156
-567.617	800.000	-0.036	-0.130
-566.602	-69.383	-0.161	-0.061
-565.588	-34.179	0.185	0.101
-564.573	85.971	-0.093	0.102
-563.558	254.623	0.122	0.207
-562.544	133.026	0.103	-0.131
-561.529	800.000	0.057	-0.219
-560.515	123.548	-0.045	0.056
-559.500	-135.442	-0.480	-0.057
-558.485	-53.129	-0.268	0.122
-557.471	-200.000	0.022	-0.214
-556.456	-200.000	0.021	0.222
-555.442	-136.576	0.260	0.030
-554.427	-161.317	-0.318	-0.016
-553.412	-72.473	0.094	0.034
-552.398	-200.000	0.025	0.299
-551.383	600.646	0.133	-0.328
-550.369	-200.000	-0.034	0.175
-549.354	-166.921	-0.188	0.008
-548.339	149.699	-0.160	-0.214
-547.325	-28.410	-0.092	0.053
-546.310	-200.000	-0.015	0.206
-545.296	-136.071	0.312	0.036
-544.281	-123.717	-0.348	-0.055
-543.266	-200.000	-0.021	-0.256
-542.252	-104.131	0.364	0.084
-541.237	155.256	-0.134	0.183
-540.223	71.602	-0.250	0.257
-539.208	167.348	-0.137	0.193
-538.193	800.000	0.150	-0.484
-537.179	44.089	0.158	0.143
-536.164	-200.000	0.020	-0.191
-535.150	-200.000	-0.003	0.107
-534.135	-14.210	-0.042	-0.027
-533.121	-107.398	-0.153	0.033
-532.106	404.556	-0.030	-0.062
-531.091	-200.000	-0.018	0.113
-530.077	2.173	-0.329	0.235
-529.062	-70.237	-0.306	-0.115
-528.048	-200.000	0.207	0.001
-527.033	-108.514	0.098	0.021
-526.018	530.915	-0.021	-0.049
-525.004	162.287	-0.007	-0.009
-523.989	113.228	0.085	-0.102
-522.975	43.335	-0.248	-0.224
-521.960	-200.000	-0.008	-0.414
-520.945	-103.182	0.158	-0.037
-519.931	-200.000	0.009	-0.055
-518.916	-200.000	-0.036	0.266
-517.902	-7.978	-0.222	0.148
-516.887	14.791	0.310	0.240
-515.872	-200.000	0.006	0.039
-514.858	82.722	-0.109	0.117
-513.843	463.104	-0.119	0.264
-512.829	-200.000	-0.027	0.386
-511.814	65.334	-0.050	-0.050
-510.799	27.445	0.177	0.147
-509.785	102.243	-0.196	-0.226
-508.770	-106.263	-0.221	-0.049
-507.756	601.002	-0.076	0.186
-506.741	-200.000	0.009	-0.082
-505.726	800.000	-0.066	-0.253
-504.712	-181.458	-0.416	-0.008
-503.697	-24.593	0.302	-0.178
-502.683	388.990	-0.080	-0.164
-501.668	161.054	0.154	-0.213
-500.653	226.701	0.197	-0.316
-499.639	-70.940	0.116	-0.043
-498.624	-135.658	0.501	0.059
-497.610	-159.965	-0.122	-0.007
-496.595	325.776	-0.078	0.147
-495.581	-78.481	-0.099	0.033
-494.566	56.694	-0.166	-0.160
-493.551	44.641	-0.143	-0.130
-492.537	800.000	-0.063	0.182
-491.522	-200.000	-0.041	-0.223
-490.508	-200.000	0.037	0.000
-489.493	35.203	0.046	0.040
-488.478	587.411	-0.065	0.158
-487.464	94.422	0.245	-0.275
-486.449	197.115	-0.150	-0.226
-485.435	-200.000	0.051	-0.309
-484.420	314.534	-0.068	0.127
-483.405	800.000	0.050	-0.200
-482.391	79.717	0.124	0.132
-481.376	125.568	-0.260	-0.324
-480.362	312.384	-0.123	-0.229
-479.347	800.000	-0.062	-0.257
-478.332	242.832	0.209	-0.346
-477.318	800.000	-0.042	0.130
-476.303	54.316	-0.232	-0.221
-475.289	-181.695	-0.191	0.004
-474.274	-39.851	-0.077	-0.040
-473.259	-200.000	-0.003	0.059
-472.245	-82.714	-0.295	-0.095
-471.230	183.059	-0.144	-0.210
-470.216	800.000	-0.092	-0.272
-469.201	251.239	-0.059	0.099
-468.186	234.740	-0.232	0.378
-467.172	-78.892	-0.334	0.112
-466.157	-36.451	-0.211	0.112
-465.143	-125.407	-0.182	0.027
-464.128	-200.000	-0.009	-0.482
-463.113	353.307	-0.096	-0.188
-462.099	1.933	-0.072	0.051
-461.084	800.000	-0.065	-0.260
-460.070	-200.000	0.027	0.133
-459.055	-200.000	-0.034	0.160
-458.040	596.378	-0.058	0.142
-457.026	800.000	-0.106	0.322
-456.011	-167.975	0.244	0.009
-454.997	57.621	0.186	0.180
-453.982	-200.000	-0.044	-0.221
-452.968	187.061	-0.157	-0.231
-451.953	125.663	0.070	0.087
-450.938	167.272	-0.289	-0.406
-449.924	222.427	0.102	0.162
-448.909	800.000	0.045	0.156
-447.895	-35.841	0.310	-0.166
-446.880	260.718	-0.100	0.170
-445.865	789.520	-0.094	0.256
-444.851	-108.651	-0.153	0.032
-443.836	9.704	0.186	-0.139
-442.822	44.068	0.172	0.156
-441.807	-39.883	-0.055	0.028
-440.792	0.653	-0.194	-0.137
-439.778	72.088	0.180	-0.185
-438.763	71.862	0.109	-0.111
-437.749	-97.667	0.086	0.022
-436.734	-32.590	-0.319	-0.175
-435.719	-1.707	-0.145	-0.101
-434.705	-200.000	-0.074	-0.327
-433.690	-200.000	-0.018	-0.330
-432.676	-147.148	0.226	-0.019
-431.661	-200.000	-0.022	0.347
-430.646	-200.000	0.001	-0.063
-429.632	64.199	-0.184	-0.183
-428.617	122.938	0.208	-0.257
-427.603	257.227	0.045	-0.076
-426.588	392.998	0.098	0.201
-425.573	-151.574	0.220	-0.016
-424.559	24.045	0.114	-0.093
-423.544	201.156	0.128	-0.194
-422.530	106.359	0.077	0.090
-421.515	-32.899	0.120	-0.066
-420.500	-200.000	-0.011	-0.198
-419.486	-200.000	-0.058	-0.279
-418.471	423.720	-0.072	0.153
-417.457	-68.290	-0.120	-0.046
-416.442	75.982	-0.095	0.099
-415.428	-144.412	-0.281	0.026
-414.413	-200.000	-0.033	0.192
-413.398	-40.383	-0.032	0.016
-412.384	40.719	-0.085	0.075
-411.369	-107.239	0.370	-0.080
-410.355	18.444	0.373	0.294
-409.340	-131.355	0.104	-0.014
-408.325	800.000	-0.055	-0.181
-407.311	-61.498	-0.163	-0.067
-406.296	-200.000	-0.059	0.529
-405.282	279.540	0.173	0.304
-404.267	-200.000	-0.011	-0.117
-403.252	-68.163	0.294	0.113
-402.238	-122.455	-0.220	-0.035
-401.223	40.401	0.058	0.052
-400.209	-92.453	0.077	-0.021
-399.194	101.353	-0.164	0.189
-398.179	729.317	-0.095	-0.251
-397.165	187.662	-0.197	-0.289
-396.150	46.140	-0.273	-0.249
-395.136	800.000	0.030	-0.124
-394.121	800.000	-0.072	0.246
-393.106	-94.648	-0.223	0.060
-392.092	-200.000	-0.035	0.208
-391.077	-46.483	0.152	0.073
-390.063	127.510	0.192	0.240
-389.048	800.000	-0.043	0.179
-388.033	229.398	0.163	0.262
-387.019	148.781	0.165	-0.220
-386.004	32.310	-0.136	-0.116
-384.990	443.556	0.142	-0.307
-383.975	800.000	0.029	0.087
-382.960	68.505	-0.188	-0.189
-381.946	800.000	0.008	-0.028
-380.931	-183.531	0.195	-0.003
-379.917	3.522	0.160	0.115
-378.902	374.061	0.152	0.304
-377.888	698.425	0.055	-0.142
-376.873	-14.257	-0.196	0.124
-375.858	641.439	-0.042	0.105
-374.844	-23.247	-0.226	-0.134
-373.829	-139.359	-0.169	0.018
-372.815	-74.543	0.137	0.048
-371.800	229.410	-0.149	0.240
-370.785	224.936	-0.149	-0.238
-369.771	-123.304	-0.127	0.020
-368.756	-200.000	-0.005	-0.219
-367.742	-78.580	0.146	0.049
-366.727	-112.961	0.472	0.092
-365.712	210.716	-0.178	-0.276
-364.698	-200.000	-0.005	-0.147
-363.683	252.250	-0.101	0.169
-362.669	-115.279	0.191	0.036
-361.654	-86.077	0.069	-0.021
-360.639	142.621	0.142	0.186
-359.625	93.370	0.103	0.114
-358.610	133.723	0.237	0.302
-357.596	285.033	0.164	-0.291
-356.581	21.278	-0.122	0.098
-355.566	-55.004	-0.215	0.095
-354.552	-88.376	-0.206	0.060
-353.537	28.761	0.060	0.050
-352.523	76.526	-0.150	-0.157
-351.508	-32.030	0.189	-0.104
-350.493	-18.770	0.506	0.310
-349.479	71.218	-0.114	-0.116
-348.464	477.731	-0.047	0.104
-347.450	-200.000	0.043	0.210
-346.435	800.000	-0.028	-0.101
-345.420	643.607	0.029	0.073
-344.406	208.931	0.040	-0.062
-343.391	135.233	-0.096	0.123
-342.377	-98.817	0.132	0.033
-341.362	800.000	-0.080	0.335
-340.348	800.000	-0.070	0.192
-339.333	-200.000	-0.039	0.250
-338.318	-73.504	-0.080	0.029
-337.304	96.537	-0.144	0.162
-336.289	-122.878	-0.271	0.043
-335.275	83.320	0.238	-0.255
-334.260	-200.000	-0.035	0.213
-333.245	290.985	0.246	-0.439
-332.231	-61.535	0.568	-0.234
-331.216	142.322	0.098	-0.127
-330.202	-7.060	-0.227	-0.151
-329.187	-56.541	-0.154	-0.067
-328.172	-77.399	-0.217	-0.074
-327.158	188.517	-0.036	0.053
-326.143	-190.554	0.187	-0.002
-325.129	-94.587	0.110	0.029
-324.114	-200.000	-0.003	0.323
-323.099	-200.000	0.058	0.370
-322.085	-67.387	-0.220	0.085
-321.070	617.893	-0.037	0.091
-320.056	283.874	-0.132	0.233
-319.041	23.016	-0.126	-0.101
-318.026	-121.364	-0.346	0.057
-317.012	135.044	0.087	-0.111
-315.997	-200.000	0.032	-0.376
-314.983	462.443	0.086	-0.188
-313.968	224.365	-0.152	-0.241
-312.953	780.722	0.080	0.215
-311.939	258.091	-0.169	0.286
-310.924	800.000	-0.043	0.169
-309.910	14.458	-0.198	-0.152
-308.895	-107.266	-0.168	-0.036
-307.880	-88.094	-0.135	0.040
-306.866	-122.892	0.386	-0.061
-305.851	800.000	0.047	0.148
-304.837	-35.729	-0.048	-0.026
-303.822	-200.000	-0.050	-0.351
-302.807	-200.000	-0.001	-0.132
-301.793	-116.795	0.618	-0.111
-300.778	277.394	-0.155	0.271
-299.764	-11.726	-0.312	-0.201
-298.749	800.000	0.096	0.271
-297.735	173.886	-0.115	0.163
-296.720	34.365	-0.094	0.081
-295.705	-33.868	-0.172	0.093
-294.691	485.123	0.027	-0.060
-293.676	-120.860	0.099	0.016
-292.662	-200.000	-0.003	-0.104
-291.647	163.885	0.125	-0.172
-290.632	373.298	0.091	-0.181
-289.618	-49.144	-0.193	-0.091
-288.603	-67.350	0.156	-0.060
-287.589	800.000	-0.078	-0.220
-286.574	-200.000	0.027	-0.201
-285.559	83.044	0.118	0.126
-284.545	800.000	-0.096	0.367
-283.530	443.594	0.062	0.134
-282.516	37.057	0.144	0.125
-281.501	800.000	0.043	0.147
-280.486	-16.679	0.352	0.219
-279.472	3.694	0.216	0.154
-278.457	-74.085	0.128	0.045
-277.443	-200.000	-0.030	-0.129
-276.428	247.471	0.052	0.085
-275.413	254.031	-0.123	-0.206
-274.399	-159.932	0.057	0.003
-273.384	-178.701	0.266	-0.006
-272.370	-9.577	0.256	0.168
-271.355	-51.612	0.012	0.005
-270.340	-22.920	0.128	-0.076
-269.326	-97.601	0.181	-0.046
-268.311	13.375	0.252	-0.192
-267.297	371.268	-0.033	-0.066
-266.282	-24.179	0.224	-0.131
-265.267	7.306	0.207	0.152
-264.253	-21.755	-0.216	0.129
-263.238	50.426	0.141	-0.131
-262.224	-103.981	-0.309	0.071
-261.209	-49.473	-0.232	0.108
-260.195	-55.350	0.282	0.124
-259.180	444.781	-0.063	-0.136
-258.165	-200.000	0.029	0.181
-257.151	110.624	0.123	0.145
-256.136	-56.666	-0.260	0.113
-255.122	-200.000	0.024	0.169
-254.107	-181.484	-0.129	0.002
-253.092	51.215	-0.292	0.272
-252.078	-168.543	0.279	-0.010
-251.063	-95.076	0.166	-0.044
-250.049	129.893	-0.051	0.064
-249.034	-45.041	0.385	0.188
-248.019	-200.000	-0.048	0.277
-247.005	48.607	-0.109	0.100
-245.990	115.456	0.196	0.235
-244.976	59.795	-0.024	0.023
-243.961	-200.000	-0.005	0.068
-242.946	-115.814	0.261	0.048
-241.932	15.589	0.118	0.091
-240.917	729.370	-0.122	0.320
-239.903	-146.323	-0.241	-0.021
-238.888	-112.029	0.302	0.060
-237.873	15.403	0.116	0.089
-236.859	301.043	0.038	0.069
-235.844	800.000	0.009	-0.035
-234.830	-84.441	0.285	-0.088
-233.815	9.798	-0.289	0.215
-232.800	505.746	-0.081	-0.185
-231.786	-200.000	0.162	-0.001
-230.771	-200.000	0.060	-0.357
-229.757	-200.000	0.004	-0.241
-228.742	75.650	0.216	0.223
-227.727	641.316	-0.039	0.096
-226.713	-109.256	0.081	0.017
-225.698	-101.744	-0.345	0.082
-224.684	99.382	-0.185	0.209
-223.669	-71.606	-0.269	0.098
-222.655	-89.648	0.414	0.119
-221.640	-200.000	-0.024	-0.109
-220.625	-157.389	-0.320	-0.019
-219.611	-200.000	0.052	-0.403
-218.596	-200.000	0.011	-0.049
-217.582	800.000	-0.120	-0.379
-216.567	44.988	-0.121	-0.109
-215.552	-64.077	0.348	0.139
-214.538	25.355	0.116	0.095
-213.523	-41.377	0.645	-0.325
-212.509	800.000	-0.087	-0.353
-211.494	200.040	0.115	0.173
-210.479	-50.753	-0.236	-0.109
-209.465	102.146	0.160	0.183
-208.450	-117.098	0.301	-0.054
-207.436	-91.429	-0.228	0.064
-206.421	800.000	0.057	0.200
-205.406	-110.193	0.180	0.037
-204.392	466.018	-0.026	0.058
-203.377	107.463	-0.110	0.128
-202.363	-200.000	-0.019	0.104
-201.348	353.772	0.174	0.338
-200.333	182.008	0.151	0.218
-199.319	92.728	-0.203	-0.225
-198.304	800.000	-0.038	-0.114
-197.290	210.263	0.087	-0.133
-196.275	-112.707	-0.360	-0.070
-195.260	800.000	0.062	-0.232
-194.246	-88.220	0.318	-0.093
-193.231	65.484	-0.216	0.214
-192.217	-138.067	0.421	0.046
-191.202	-200.000	-0.014	-0.064
-190.187	-93.515	0.331	0.090
-189.173	-95.672	0.566	0.148
-188.158	-16.761	-0.059	0.037
-187.144	-200.000	0.013	-0.164
-186.129	-200.000	-0.006	-0.240
-185.114	755.500	-0.071	-0.189
-184.100	127.123	-0.145	-0.180
-183.085	800.000	-0.012	0.038
-182.071	-175.548	0.091	-0.002
-181.056	-16.875	-0.196	-0.121
-180.042	-40.637	-0.204	0.103
-179.027	-174.392	0.325	0.009
-178.012	-104.285	0.069	0.016
-176.998	-123.939	0.208	0.032
-175.983	-200.000	-0.070	0.340
-174.969	-4.976	-0.203	-0.137
-173.954	300.782	-0.097	-0.174
-172.939	159.672	0.159	0.216
-171.925	-22.183	-0.147	-0.087
-170.910	-139.293	0.413	-0.043
-169.896	353.311	-0.171	0.331
-168.881	19.124	-0.327	0.256
-167.866	-8.673	-0.193	0.127
-166.852	-200.000	-0.032	-0.282
-165.837	-200.000	0.002	-0.048
-164.823	-83.451	0.245	-0.077
-163.808	-96.016	0.356	0.093
-162.793	-40.271	0.238	-0.121
-161.779	115.061	0.150	0.178
-160.764	-82.213	0.345	0.110
-159.750	-200.000	-0.049	-0.314
-158.735	-150.946	0.075	-0.006
-157.720	-144.809	-0.246	0.022
-156.706	-56.702	-0.127	-0.055
-155.691	-102.433	-0.273	-0.064
-154.677	-78.174	0.479	-0.161
-153.662	-157.432	-0.183	0.011
-152.647	75.901	-0.290	0.299
-151.633	-40.869	0.372	0.188
-150.618	-88.920	0.206	-0.060
-149.604	31.485	0.171	0.143
-148.589	-113.223	0.034	0.006
-147.574	-25.472	0.361	-0.208
-146.560	-200.000	-0.021	0.110
-145.545	-200.000	0.033	0.397
-144.531	159.388	0.157	0.213
-143.516	-200.000	-0.008	0.150
-142.502	-26.181	0.131	0.075
-141.487	38.445	0.032	0.028
-140.472	58.623	-0.111	0.106
-139.458	196.281	-0.138	0.205
-138.443	547.787	0.065	0.151
-137.429	222.862	-0.110	-0.172
-136.414	374.043	-0.199	-0.394
-135.399	-44.256	0.235	0.115
-134.385	-60.483	0.499	-0.207
-133.370	228.134	-0.058	0.092
-132.356	23.757	-0.149	-0.120
-131.341	-200.000	0.058	0.335
-130.326	-61.195	-0.099	-0.041
-129.312	0.607	0.180	0.125
-128.297	72.157	0.112	0.114
-127.283	-40.035	-0.047	0.024
-126.268	-58.663	-0.264	0.112
-125.253	-200.000	0.016	0.135
-124.239	800.000	0.033	-0.113
-123.224	50.489	-0.128	-0.118
-122.210	298.088	-0.139	0.249
-121.195	112.368	-0.318	-0.375
-120.180	-200.000	0.039	-0.325
-119.166	-19.955	-0.076	0.046
-118.151	-64.838	-0.486	-0.192
-117.137	158.955	-0.038	0.051
-116.122	-49.522	-0.087	0.040
-115.107	-106.677	0.215	0.047
-114.093	184.129	-0.115	0.166
-113.078	-200.000	-0.005	0.152
-112.064	256.612	0.037	-0.061
-111.049	96.294	-0.193	0.215
-110.034	-200.000	0.003	-0.279
-109.020	-5.431	0.085	-0.057
-108.005	-10.382	-0.203	0.131
-106.991	646.114	-0.141	0.351
-105.976	261.200	-0.057	0.096
-104.962	87.467	-0.287	-0.310
-103.947	-135.478	0.245	0.028
-102.932	13.154	-0.084	-0.063
-101.918	272.699	0.241	0.415
-100.903	-84.497	0.113	-0.035
-99.889	-19.204	0.050	0.030
-98.874	-123.662	-0.042	-0.006
-97.859	-8.278	-0.054	0.035
-96.845	800.000	0.088	-0.258
-95.830	800.000	0.064	-0.230
-94.816	-126.144	0.182	-0.027
-93.801	582.462	0.118	-0.282
-92.786	-100.207	0.322	-0.078
-91.772	6.693	0.173	-0.125
-90.757	-200.000	0.018	-0.201
-89.743	196.753	-0.059	0.087
-88.728	-5.685	0.249	-0.166
-87.713	800.000	0.045	0.129
-86.699	-200.000	-0.002	0.175
-85.684	665.028	-0.079	0.199
-84.670	293.623	-0.112	-0.199
-83.655	-130.336	0.269	-0.035
-82.640	435.063	-0.110	0.234
-81.626	800.000	-0.068	0.223
-80.611	-40.752	0.431	0.217
-79.597	93.635	0.152	0.167
-78.582	128.419	-0.039	-0.048
-77.567	-200.000	0.015	-0.182
-76.553	-94.627	-0.176	0.047
-75.538	-86.788	0.396	-0.118
-74.524	-3.248	-0.139	-0.094
-73.509	256.362	-0.069	0.115
-72.494	-18.180	0.016	0.010
-71.480	255.012	-0.061	-0.101
-70.465	-4.846	-0.189	-0.127
-69.451	-56.250	-0.155	-0.067
-68.436	-200.000	-0.003	-0.164
-67.422	58.783	0.089	0.085
-66.407	-116.111	-0.278	0.050
-65.392	2.449	-0.132	-0.093
-64.378	76.431	0.112	-0.116
-63.363	-26.907	0.246	0.140
-62.349	-52.670	-0.230	0.103
-61.334	-31.804	-1.404	-0.766
-60.319	142.584	0.677	0.875
-59.305	347.793	-0.727	-1.393
-58.290	536.505	0.591	1.364
-57.276	800.000	0.538	1.479
-56.261	-200.000	125.241	648.800
-55.246	406.097	1576.410	3234.816
-54.232	141.360	2747.919	3536.178
-53.217	88.999	2311.405	2501.603
-52.203	32.377	1917.404	1609.748
-51.188	26.181	1712.595	1390.211
-50.173	24.141	1674.244	1343.653
-49.159	46.138	1742.753	1569.014
-48.144	43.668	1754.719	1560.705
-47.130	25.842	1706.499	1382.442
-46.115	23.361	1690.346	1350.417
-45.100	23.223	1685.518	1345.456
-44.086	23.238	1682.838	1343.375
-43.071	23.084	1681.179	1340.830
-42.057	23.112	1678.571	1338.912
-41.042	23.164	1676.584	1337.663
-40.027	23.188	1674.478	1336.112
-39.013	23.084	1672.806	1333.943
-37.998	23.166	1671.450	1333.424
-36.984	23.176	1670.294	1332.528
-35.969	23.283	1668.670	1331.986
-34.954	23.253	1666.662	1330.102
-33.940	23.155	1665.121	1328.084
-32.925	23.294	1663.542	1327.811
-31.911	23.180	1661.845	1325.555
-30.896	23.277	1660.121	1324.848
-29.881	23.277	1658.287	1323.336
-28.867	23.193	1656.648	1321.351
-27.852	23.213	1655.868	1320.823
-26.838	23.121	1654.761	1319.204
-25.823	23.189	1652.867	1318.147
-24.809	23.291	1651.307	1317.609
-23.794	23.221	1650.404	1316.315
-22.779	23.276	1648.630	1315.253
-21.765	23.271	1647.074	1313.924
-20.750	23.280	1645.129	1312.390
-19.736	23.305	1644.169	1311.754
-18.721	23.367	1642.660	1310.959
-17.706	23.306	1640.815	1308.985
-16.692	23.327	1639.436	1307.985
-15.677	23.227	1638.396	1306.369
-14.663	23.371	1636.544	1305.902
-13.648	23.275	1635.791	1304.540
-12.633	23.339	1633.881	1303.437
-11.619	23.261	1632.334	1301.578
-10.604	23.261	1631.171	1300.599
-9.590	23.370	1629.268	1299.826
-8.575	23.357	1628.090	1298.741
-7.560	23.211	1627.595	1297.223
-6.546	23.290	1625.877	1296.382
-5.531	23.272	1625.112	1295.589
-4.517	23.276	1624.178	1294.824
-3.502	23.204	1622.687	1293.057
-2.487	23.321	1621.100	1292.592
-1.473	23.000	1608.012	1279.787
-0.458	19.984	1588.440	1242.551
0.556	14.947	1589.771	1210.956
1.571	12.616	1614.145	1212.258
2.586	12.392	1625.112	1218.722
3.600	11.521	1570.658	1171.539
4.615	6.341	1463.119	1056.541
5.629	1.179	1404.889	981.074
6.644	0.274	1397.621	970.085
7.659	0.236	1396.317	968.847
8.673	0.093	1395.522	967.292
9.688	0.167	1392.936	965.889
10.702	-0.003	1389.679	962.453
11.717	2.518	1393.499	981.186
12.731	9.264	1403.441	1031.507
13.746	14.921	1412.249	1074.328
14.761	16.697	1414.188	1087.120
15.775	16.181	1411.825	1081.899
16.790	15.280	1409.125	1073.967
17.804	14.406	1407.661	1067.162
18.819	14.097	1406.184	1063.966
19.834	13.905	1404.488	1061.366
20.848	13.607	1403.643	1058.727
21.863	13.359	1402.304	1056.039
22.877	13.164	1400.952	1053.685
23.892	13.199	1399.402	1052.654
24.907	13.197	1398.968	1052.221
25.921	13.257	1397.985	1051.771
26.936	13.213	1397.344	1050.915
27.950	13.241	1396.296	1050.212
28.965	13.315	1395.510	1049.997
29.980	13.383	1394.154	1049.312
30.994	13.356	1393.341	1048.439
32.009	13.382	1392.680	1048.010
33.023	13.377	1391.503	1047.001
34.038	13.408	1389.985	1045.961
35.053	13.362	1389.009	1044.848
36.067	13.348	1388.140	1044.011
37.082	13.326	1386.721	1042.710
38.096	13.312	1385.990	1041.981
39.111	13.414	1384.633	1041.512
40.126	13.240	1384.854	1040.493
41.140	13.155	1383.382	1038.758
42.155	13.138	1382.846	1038.158
43.169	13.162	1383.101	1038.406
44.184	13.183	1382.601	1038.074
45.199	13.140	1381.790	1037.104
46.213	13.157	1381.399	1036.827
47.228	13.206	1380.258	1036.181
48.242	13.235	1379.060	1035.376
49.257	13.164	1377.855	1033.936
50.271	13.269	1375.622	1032.824
51.286	13.240	1374.669	1031.831
52.301	13.253	1373.073	1030.626
53.315	13.216	1372.284	1029.712
54.330	13.182	1371.162	1028.568
55.344	13.223	1369.780	1027.696
56.359	13.255	1368.791	1027.061
57.374	13.174	1368.262	1026.070
58.388	13.129	1367.167	1024.875
59.403	13.198	1366.414	1024.648
60.417	13.089	1365.879	1023.486
61.432	13.024	1365.391	1022.627
62.447	13.102	1363.757	1021.790
63.461	13.037	1362.682	1020.493
64.476	12.984	1361.803	1019.422
65.490	13.082	1360.447	1018.921
66.505	13.053	1358.849	1017.451
67.520	13.242	1357.142	1017.245
68.534	13.175	1356.161	1016.013
69.549	13.139	1355.113	1014.916
70.563	13.127	1353.970	1013.893
71.578	13.039	1353.171	1012.667
72.593	13.078	1352.362	1012.208
73.607	13.033	1351.431	1011.148
74.622	13.007	1350.364	1010.101
75.636	12.998	1349.619	1009.401
76.651	12.945	1348.890	1008.439
77.666	13.076	1348.392	1008.782
78.680	12.983	1347.930	1007.780
79.695	13.090	1346.790	1007.490
80.709	13.078	1346.273	1006.941
81.724	13.135	1345.211	1006.401
82.739	13.196	1344.481	1006.141
83.753	13.099	1343.540	1004.759
84.768	13.167	1342.660	1004.425
85.782	13.251	1340.812	1003.460
86.797	13.333	1339.396	1002.813
87.812	13.169	1338.676	1001.190
88.826	13.249	1337.460	1000.678
89.841	13.277	1335.996	999.658
90.855	13.138	1335.128	998.082
91.870	13.372	1334.053	998.607
92.884	13.296	1333.467	997.619
93.899	13.266	1332.613	996.711
94.914	13.349	1331.840	996.546
95.928	13.417	1330.589	995.930
96.943	13.430	1329.640	995.208
97.957	13.310	1328.719	993.709
98.972	13.249	1328.035	992.743
99.987	13.261	1327.232	992.127
101.001	13.291	1326.256	991.489
102.016	13.339	1325.041	990.781
103.030	13.336	1324.191	990.039
104.045	13.283	1322.991	988.737
105.060	13.267	1322.062	987.859
106.074	13.150	1320.700	986.062
107.089	13.231	1318.820	985.051
108.103	13.184	1317.815	983.932
109.118	13.188	1316.604	982.963
110.133	13.262	1314.951	982.083
111.147	13.163	1313.943	980.657
112.162	13.281	1312.341	980.071
113.176	13.308	1311.257	979.340
114.191	13.265	1310.388	978.344
115.206	13.312	1309.377	977.782
116.220	13.277	1308.195	976.608
117.235	13.299	1306.913	975.696
118.249	13.348	1305.654	974.955
119.264	13.208	1305.115	973.642
120.279	13.234	1303.839	972.759
121.293	13.159	1302.734	971.404
122.308	13.124	1301.685	970.334
123.322	13.204	1301.034	970.231
124.337	13.049	1300.060	968.511
125.352	13.265	1298.048	968.191
126.366	13.166	1297.271	966.947
127.381	13.190	1296.033	966.076
128.395	13.081	1295.452	964.922
129.410	13.190	1294.074	964.450
130.424	13.090	1293.440	963.304
131.439	13.325	1291.789	963.360
132.454	13.297	1291.163	962.647
133.468	13.243	1290.553	961.792
134.483	13.208	1289.722	960.885
135.497	13.266	1288.150	959.966
136.512	13.268	1286.832	958.907
137.527	13.195	1285.829	957.655
138.541	13.174	1284.659	956.573
139.556	13.226	1283.021	955.574
140.570	13.328	1282.162	955.437
141.585	13.352	1280.345	954.137
142.600	13.364	1279.162	953.238
143.614	13.432	1278.604	953.130
144.629	13.449	1277.519	952.335
145.643	13.423	1276.076	951.025
146.658	13.332	1275.185	949.755
147.673	13.404	1273.598	948.903
148.687	13.373	1272.532	947.845
149.702	13.326	1271.261	946.544
150.716	13.381	1269.930	945.787
151.731	13.325	1268.817	944.553
152.746	13.396	1267.850	944.157
153.760	13.428	1266.334	943.125
154.775	13.427	1265.115	942.131
155.789	13.373	1264.561	941.327
156.804	13.502	1263.081	940.874
157.819	13.471	1262.315	940.045
158.833	13.537	1260.788	939.195
159.848	13.636	1260.273	939.295
160.862	13.643	1259.003	938.302
161.877	13.567	1257.655	936.784
162.892	13.560	1257.095	936.243
163.906	13.581	1255.939	935.421
164.921	13.546	1254.802	934.290
165.935	13.551	1254.366	933.916
166.950	13.637	1253.170	933.424
167.964	13.630	1252.461	932.777
168.979	13.636	1251.923	932.324
169.994	13.547	1250.892	930.976
171.008	13.738	1249.743	931.109
172.023	13.665	1249.181	930.198
173.037	13.571	1248.815	929.317
174.052	13.673	1247.551	928.863
175.067	13.651	1246.947	928.211
176.081	13.523	1245.542	926.364
177.096	13.768	1244.372	926.785
178.110	13.594	1243.836	925.332
179.125	13.643	1242.550	924.564
180.140	13.656	1241.131	923.498
181.154	13.720	1240.034	922.958
182.169	13.784	1238.552	922.127
183.183	13.665	1237.970	920.955
184.198	13.801	1236.135	920.261
185.213	13.853	1235.133	919.723
186.227	13.773	1234.460	918.699
187.242	13.985	1232.849	918.591
188.256	13.891	1232.119	917.444
189.271	13.903	1231.546	917.001
190.286	13.810	1230.278	915.462
191.300	13.714	1229.451	914.238
192.315	13.678	1229.175	913.756
193.329	13.686	1228.147	912.951
194.344	13.767	1227.465	912.811
195.359	13.854	1226.651	912.603
196.373	13.858	1226.514	912.441
197.388	13.965	1226.141	912.670
198.402	14.036	1225.744	912.688
199.417	14.130	1224.331	912.068
200.432	14.029	1223.768	911.018
201.446	14.117	1223.128	910.938
202.461	14.114	1221.536	909.660
203.475	14.124	1220.635	908.962
204.490	14.182	1219.568	908.404
205.504	14.003	1218.357	906.441
206.519	14.099	1217.208	906.031
207.534	13.979	1216.147	904.511
208.548	14.115	1214.973	904.295
209.563	14.038	1214.357	903.336
210.577	14.070	1213.653	902.909
211.592	14.084	1212.751	902.233
212.607	14.251	1211.097	901.830
213.621	14.305	1210.245	901.407
214.636	14.125	1210.063	900.216
215.650	14.208	1208.945	899.751
216.665	14.205	1208.060	898.998
217.680	14.205	1207.333	898.379
218.694	14.237	1206.550	897.890
219.709	14.364	1205.288	897.556
220.723	14.265	1204.915	896.663
221.738	14.350	1203.922	896.303
222.753	14.315	1203.426	895.664
223.767	14.355	1202.776	895.320
224.782	14.356	1201.923	894.609
225.796	14.452	1201.137	894.459
226.811	14.365	1200.337	893.321
227.826	14.374	1199.795	892.885
228.840	14.424	1199.244	892.661
229.855	14.485	1198.447	892.317
230.869	14.432	1197.338	891.129
231.884	14.249	1197.181	889.957
232.899	14.316	1196.010	889.364
233.913	14.458	1194.763	889.114
234.928	14.344	1194.337	888.114
235.942	14.458	1193.386	887.933
236.957	14.438	1192.222	886.883
237.972	14.272	1191.981	885.742
238.986	14.457	1191.348	886.179
240.001	14.474	1190.594	885.628
241.015	14.529	1189.403	884.955
242.030	14.553	1188.698	884.482
243.045	14.479	1188.091	883.556
244.059	14.471	1187.338	882.875
245.074	14.531	1186.552	882.532
246.088	14.641	1185.705	882.406
247.103	14.590	1184.893	881.453
248.117	14.670	1183.779	880.971
249.132	14.667	1183.529	880.690
250.147	14.751	1182.548	880.326
251.161	14.872	1181.758	880.298
252.176	14.857	1181.141	879.679
253.190	14.889	1180.370	879.195
254.205	14.865	1179.993	878.711
255.220	14.836	1179.256	877.934
256.234	14.798	1179.129	877.559
257.249	14.846	1178.283	877.106
258.263	14.950	1177.374	876.894
259.278	14.988	1176.491	876.361
260.293	14.925	1176.215	875.747
261.307	15.014	1175.352	875.492
262.322	15.049	1174.934	875.287
263.336	15.029	1174.351	874.668
264.351	15.104	1173.501	874.350
265.366	15.108	1172.287	873.392
266.380	15.205	1172.162	873.723
267.395	15.105	1170.915	872.200
268.409	15.033	1170.837	871.685
269.424	15.080	1170.029	871.252
270.439	15.014	1169.689	870.580
271.453	15.092	1168.801	870.250
272.468	15.093	1167.560	869.253
273.482	15.091	1166.741	868.552
274.497	15.148	1166.438	868.546
275.512	15.086	1165.819	867.689
276.526	15.112	1164.825	867.008
277.541	15.116	1163.898	866.259
278.555	15.075	1163.108	865.384
279.570	15.252	1162.627	865.864
280.585	15.176	1161.791	864.773
281.599	15.267	1160.960	864.547
282.614	15.292	1159.629	863.609
283.628	15.306	1158.781	862.971
284.643	15.264	1157.846	861.983
285.657	15.270	1156.605	861.017
286.672	15.230	1156.072	860.334
287.687	15.393	1154.760	860.119
288.701	15.401	1154.474	859.872
289.716	15.387	1153.735	859.172
290.730	15.454	1152.451	858.485
291.745	15.394	1151.907	857.694
292.760	15.466	1151.799	857.907
293.774	15.571	1150.710	857.554
294.789	15.473	1150.688	856.965
295.803	15.530	1149.604	856.370
296.818	15.477	1148.928	855.522
297.833	15.376	1148.239	854.417
298.847	15.450	1147.541	854.199
299.862	15.498	1146.848	853.854
300.876	15.514	1146.160	853.343
301.891	15.592	1145.233	852.977
302.906	15.611	1144.417	852.392
303.920	15.634	1143.820	851.984
304.935	15.617	1143.270	851.414
305.949	15.803	1142.538	851.734
306.964	15.766	1141.799	850.923
307.979	15.713	1141.156	850.100
308.993	15.661	1140.751	849.461
310.008	15.744	1139.856	849.139
311.022	15.839	1138.897	848.830
312.037	15.759	1138.115	847.766
313.052	15.735	1137.257	846.931
314.066	15.693	1136.515	846.095
315.081	15.753	1135.296	845.411
316.095	15.753	1134.642	844.848
317.110	15.726	1134.015	844.174
318.125	15.789	1133.105	843.737
319.139	15.718	1132.777	843.064
320.154	15.676	1132.132	842.295
321.168	15.832	1131.205	842.312
322.183	15.829	1130.334	841.576
323.197	15.684	1129.826	840.399
324.212	15.795	1129.538	840.665
325.227	15.909	1128.683	840.524
326.241	15.935	1127.737	839.871
327.256	15.907	1127.181	839.247
328.270	15.846	1126.265	838.183
329.285	15.785	1125.465	837.210
330.300	15.767	1124.280	836.168
331.314	15.897	1123.213	835.945
332.329	15.981	1122.492	835.752
333.343	16.047	1121.323	835.132
334.358	15.932	1120.761	834.072
335.373	15.933	1120.336	833.685
336.387	16.099	1119.162	833.560
337.402	16.088	1118.376	832.844
338.416	16.131	1117.737	832.510
339.431	16.139	1117.369	832.201
340.446	16.162	1116.728	831.762
341.460	16.130	1115.719	830.781
342.475	16.254	1115.009	830.789
343.489	16.238	1113.818	829.751
344.504	16.253	1113.040	829.169
345.519	16.243	1112.566	828.696
346.533	16.265	1111.493	827.929
347.548	16.258	1111.030	827.476
348.562	16.257	1109.805	826.488
349.577	16.322	1109.207	826.288
350.592	16.253	1108.705	825.504
351.606	16.335	1107.566	824.983
352.621	16.254	1106.842	823.971
353.635	16.252	1106.756	823.826
354.650	16.164	1105.964	822.738
355.665	16.405	1104.969	823.099
356.679	16.349	1104.254	822.216
357.694	16.341	1103.890	821.837
358.708	16.371	1103.038	821.275
359.723	16.490	1101.919	820.949
360.738	16.391	1101.979	820.436
361.752	16.271	1101.541	819.458
362.767	16.433	1100.845	819.652
363.781	16.510	1099.881	819.233
364.796	16.493	1099.495	818.794
365.810	16.529	1098.803	818.379
366.825	16.492	1098.352	817.790
367.840	16.646	1097.920	818.143
368.854	16.592	1097.261	817.319
369.869	16.690	1096.368	817.054
370.883	16.580	1095.781	816.012
371.898	16.677	1094.775	815.660
372.913	16.583	1094.154	814.672
373.927	16.756	1093.443	814.904
374.942	16.744	1093.235	814.619
375.956	16.637	1092.599	813.556
376.971	16.643	1092.075	813.122
377.986	16.741	1091.269	812.925
379.000	16.835	1090.607	812.810
380.015	16.843	1090.292	812.539
381.029	16.849	1089.882	812.192
382.044	16.956	1088.599	811.677
383.059	16.824	1088.097	810.598
384.073	16.918	1087.265	810.355
385.088	16.868	1086.791	809.693
386.102	16.932	1085.478	808.948
387.117	16.891	1084.418	807.891
388.132	16.926	1083.773	807.507
389.146	16.789	1083.251	806.394
390.161	16.843	1082.309	805.878
391.175	16.836	1081.573	805.224
392.190	16.837	1081.140	804.835
393.205	16.920	1080.457	804.650
394.219	16.978	1079.160	803.885
395.234	16.968	1078.670	803.404
396.248	17.007	1077.473	802.624
397.263	16.988	1076.486	801.732
398.278	16.949	1075.843	800.995
399.292	16.972	1075.238	800.584
400.307	16.952	1074.385	799.785
401.321	16.998	1073.475	799.249
402.336	17.036	1072.656	798.751
403.350	16.942	1072.616	798.208
404.365	16.908	1072.044	797.551
405.380	17.165	1070.961	797.880
406.394	17.062	1070.198	796.760
407.409	17.084	1069.410	796.206
408.423	17.137	1068.818	795.944
409.438	17.182	1067.873	795.381
410.453	17.310	1067.153	795.373
411.467	17.321	1066.147	794.604
412.482	17.296	1065.918	794.245
413.496	17.198	1065.701	793.557
414.511	17.327	1064.724	793.361
415.526	17.324	1064.558	793.151
416.540	17.394	1063.520	792.635
417.555	17.379	1063.080	792.167
418.569	17.329	1062.958	791.773
419.584	17.456	1062.058	791.622
420.599	17.557	1061.640	791.709
421.613	108.173	1331.066	1489.064
422.628	99.898	1370.250	1489.151
