DTS Sentinel unit serial number:	SN413079Multiplexer serial number:	ORYXHardware model number:	OX4-SRSoftware version number:	ORYX F/W v4.00 Oryx Data Collector v3.7.2.0data status	okinstallation	princeton_trtdifferential loss correction	single-endedforward channel	channel 2reverse channel	N/Adate	2019/09/12time	19:03:49forward acquisition time	15.00reverse acquisition time	0.00gamma	496.2192k internal	0.2324k external	0.2324temperature offset calibration	1.0133default loss term (dB/km)	0.3790temperature slope calibration	1.0000multiplexer offset coefficient	1.0000multiplexer slope coefficient	1.0000fibre end	0.00T internal ref (°C)	32.69T ext. ref 1 (°C)	3.03T ext. ref 2 (°C)	27.25length (m)	temperature (°C)	Stokes	anti-Stokes-747.200	-200.000	-0.162	1.175
-746.185	-200.000	-0.012	0.232
-745.171	-200.000	-0.116	1.020
-744.156	156.782	0.047	-0.066
-743.142	800.000	0.043	-0.163
-742.127	-106.152	0.471	0.107
-741.112	-99.382	0.846	0.215
-740.098	-71.761	0.083	-0.031
-739.083	-157.172	0.467	0.029
-738.069	-70.354	0.550	0.211
-737.054	40.353	0.587	-0.533
-736.039	-37.029	0.604	-0.327
-735.025	-36.866	-0.369	0.200
-734.010	800.000	-0.043	-0.161
-732.996	169.877	0.428	0.617
-731.981	55.852	0.565	0.553
-730.966	-115.751	-0.484	-0.092
-729.952	-192.112	-0.505	0.005
-728.937	-157.922	-0.920	0.055
-727.923	-131.122	-0.177	-0.024
-726.908	800.000	-0.137	0.389
-725.894	121.972	-0.378	0.475
-724.879	147.025	-0.354	-0.480
-723.864	742.802	0.158	0.429
-722.850	-114.948	-0.750	0.144
-721.835	303.035	-0.100	0.187
-720.821	-34.580	0.379	-0.209
-719.806	-12.521	-0.314	-0.207
-718.791	-200.000	-0.046	0.324
-717.777	143.488	-0.321	-0.431
-716.762	177.824	-0.440	0.647
-715.748	-200.000	-0.122	-1.316
-714.733	333.151	0.299	-0.582
-713.718	45.812	-0.073	-0.068
-712.704	103.657	-0.178	0.211
-711.689	-140.983	0.432	-0.045
-710.675	683.241	0.118	-0.311
-709.660	149.843	0.313	0.428
-708.645	800.000	0.142	0.471
-707.631	0.944	-0.216	-0.156
-706.616	388.551	-0.441	-0.921
-705.602	368.322	0.025	-0.051
-704.587	-200.000	0.080	-0.615
-703.572	-45.603	0.782	0.390
-702.558	-200.000	0.099	0.491
-701.543	139.491	-0.314	0.417
-700.529	800.000	-0.223	0.937
-699.514	-200.000	0.003	0.405
-698.499	30.880	-0.485	-0.418
-697.485	-25.797	0.316	-0.187
-696.470	240.801	-0.287	-0.483
-695.456	-131.251	-0.400	0.054
-694.441	-131.338	0.856	0.114
-693.426	-200.000	-0.020	-0.120
-692.412	-117.753	0.948	0.172
-691.397	37.738	0.463	-0.414
-690.383	379.411	0.138	0.285
-689.368	-116.497	-0.504	-0.094
-688.354	371.628	0.249	-0.510
-687.339	55.640	-0.418	-0.407
-686.324	-153.881	-0.424	0.029
-685.310	290.405	0.297	0.544
-684.295	31.184	-0.315	0.272
-683.281	-150.491	-0.044	-0.003
-682.266	-200.000	0.147	0.822
-681.251	71.314	-0.259	0.270
-680.237	-137.993	-0.903	-0.101
-679.222	62.751	0.436	-0.439
-678.208	-139.187	0.177	-0.019
-677.193	-200.000	0.026	-0.951
-676.178	58.876	-0.044	-0.043
-675.164	71.421	-0.457	0.478
-674.149	45.181	0.279	-0.259
-673.135	38.271	-0.374	-0.335
-672.120	-200.000	0.019	-0.543
-671.105	-162.494	0.758	0.038
-670.091	61.975	-0.566	0.568
-669.076	0.498	-0.484	-0.348
-668.062	99.582	-0.227	0.265
-667.047	259.605	-0.105	-0.182
-666.032	119.995	-0.372	-0.464
-665.018	-136.296	1.290	-0.151
-664.003	-200.000	-0.030	0.682
-662.989	392.549	0.225	-0.470
-661.974	-20.066	-0.329	-0.204
-660.959	800.000	0.119	0.524
-659.945	-10.745	0.199	-0.133
-658.930	-104.358	0.703	0.164
-657.916	218.828	-0.230	0.370
-656.901	438.314	-0.149	-0.327
-655.886	85.334	0.392	0.433
-654.872	-103.397	0.360	0.085
-653.857	229.587	-0.393	-0.645
-652.843	150.622	-0.680	0.930
-651.828	-200.000	0.006	0.201
-650.814	624.933	0.021	0.054
-649.799	507.384	0.049	0.114
-648.784	-141.890	-0.759	0.076
-647.770	-54.962	-0.074	-0.033
-646.755	35.836	-0.471	-0.417
-645.741	-200.000	0.069	0.337
-644.726	-181.375	0.116	-0.002
-643.711	343.542	0.353	-0.696
-642.697	-40.146	0.383	0.201
-641.682	800.000	-0.247	0.867
-640.668	-118.119	0.319	-0.057
-639.653	-28.006	0.450	0.262
-638.638	75.165	-0.362	-0.384
-637.624	-89.121	-0.310	-0.092
-636.609	-138.695	-0.207	0.023
-635.595	-112.074	-0.680	-0.137
-634.580	-96.263	-0.876	-0.233
-633.565	114.218	-0.363	0.444
-632.551	-3.371	-0.013	0.009
-631.536	-87.094	-1.017	-0.311
-630.522	-134.798	0.535	0.065
-629.507	431.027	0.297	-0.645
-628.492	653.006	-0.185	0.478
-627.478	800.000	0.228	-0.689
-626.463	103.524	-0.574	-0.677
-625.449	-200.000	0.022	-0.159
-624.434	-200.000	-0.004	0.836
-623.419	-100.712	-0.302	0.075
-622.405	151.740	-0.324	0.443
-621.390	59.353	-0.140	-0.139
-620.376	-176.703	-0.115	-0.003
-619.361	-2.033	-0.968	-0.683
-618.346	578.083	-0.132	0.325
-617.332	232.195	0.179	-0.295
-616.317	-94.101	-0.565	0.155
-615.303	-50.171	-0.427	0.203
-614.288	800.000	0.180	-0.627
-613.273	34.079	0.505	-0.442
-612.259	42.343	0.719	0.656
-611.244	121.678	-0.059	-0.074
-610.230	-149.422	-0.926	0.074
-609.215	-6.041	0.266	0.183
-608.201	-79.632	-0.890	0.301
-607.186	138.251	-0.159	0.209
-606.171	-114.609	0.937	0.180
-605.157	177.043	0.279	0.408
-604.142	747.745	-0.146	0.394
-603.128	-100.075	0.338	-0.085
-602.113	-54.332	0.303	0.138
-601.098	-200.000	-0.126	0.876
-600.084	174.929	0.146	0.212
-599.069	152.179	0.135	-0.185
-598.055	-157.030	-0.548	0.034
-597.040	446.155	0.389	0.859
-596.025	192.214	0.543	-0.821
-595.011	800.000	0.056	-0.161
-593.996	-48.737	0.418	0.201
-592.982	800.000	0.199	-0.718
-591.967	-200.000	0.084	0.658
-590.952	253.143	-0.217	-0.372
-589.938	-143.852	-0.371	-0.035
-588.923	422.139	0.238	0.512
-587.909	398.114	0.167	0.351
-586.894	-44.628	0.219	0.110
-585.879	240.524	0.291	-0.487
-584.865	90.150	-0.415	-0.466
-583.850	60.002	0.198	0.196
-582.836	28.940	-0.600	0.510
-581.821	-132.761	-0.249	-0.032
-580.806	-6.558	-0.545	0.373
-579.792	-31.454	-0.887	0.500
-578.777	-104.245	-0.915	-0.213
-577.763	-109.395	0.303	0.064
-576.748	-27.268	-1.046	0.611
-575.733	-200.000	-0.002	0.224
-574.719	536.670	-0.107	-0.255
-573.704	800.000	-0.299	-0.965
-572.690	-103.090	0.414	-0.098
-571.675	-127.324	0.573	-0.084
-570.661	88.273	-0.740	-0.823
-569.646	53.505	-0.376	-0.362
-568.631	-78.008	0.262	-0.090
-567.617	-200.000	0.063	-0.375
-566.602	800.000	0.070	-0.221
-565.588	-200.000	0.030	-0.581
-564.573	366.549	0.225	0.456
-563.558	8.809	1.089	0.823
-562.544	3.375	0.257	-0.187
-561.529	-65.234	0.406	0.164
-560.515	800.000	0.088	-0.377
-559.500	-9.264	-0.821	-0.550
-558.485	46.335	0.559	0.520
-557.471	15.463	0.175	0.138
-556.456	-83.748	-0.520	0.166
-555.442	800.000	-0.169	-0.567
-554.427	94.562	0.112	0.128
-553.412	-200.000	0.035	0.396
-552.398	800.000	0.094	-0.320
-551.383	-80.759	-0.333	-0.111
-550.369	-80.168	-0.265	-0.089
-549.354	312.907	0.458	-0.861
-548.339	-200.000	0.149	-1.008
-547.325	564.552	0.483	-1.172
-546.310	-103.041	1.196	-0.284
-545.296	8.612	0.361	0.272
-544.281	490.408	-0.207	0.475
-543.266	25.921	-0.273	-0.228
-542.252	5.506	0.396	-0.293
-541.237	52.293	0.334	0.319
-540.223	-19.086	-0.528	0.328
-539.208	136.547	0.227	-0.296
-538.193	248.204	0.330	0.558
-537.179	-200.000	0.193	0.908
-536.164	-67.444	0.556	-0.219
-535.150	-3.247	0.134	-0.093
-534.135	111.644	0.151	-0.182
-533.121	800.000	-0.147	0.475
-532.106	-69.493	0.391	0.150
-531.091	330.831	-0.087	-0.168
-530.077	-155.698	-0.992	-0.064
-529.062	665.439	0.049	-0.127
-528.048	129.079	-0.135	-0.172
-527.033	6.542	-0.548	0.408
-526.018	-108.582	0.823	0.177
-525.004	-136.141	0.303	-0.036
-523.989	273.507	0.247	-0.437
-522.975	-200.000	0.111	-0.504
-521.960	222.875	-0.082	-0.132
-520.945	-200.000	-0.063	-0.355
-519.931	3.443	-0.344	-0.251
-518.916	-200.000	-0.020	-0.100
-517.902	800.000	-0.260	0.836
-516.887	25.600	-0.150	0.125
-515.872	-200.000	0.096	0.518
-514.858	266.837	0.535	0.936
-513.843	44.172	0.167	-0.153
-512.829	333.873	0.571	-1.105
-511.814	-76.911	-0.304	-0.106
-510.799	43.795	-0.415	0.380
-509.785	800.000	-0.142	0.490
-508.770	-25.021	-0.318	-0.189
-507.756	-200.000	0.037	-0.489
-506.741	-40.352	0.205	0.107
-505.726	-2.782	-0.508	-0.355
-504.712	-30.405	0.921	0.522
-503.697	107.677	-0.397	0.473
-502.683	-19.582	0.577	0.357
-501.668	800.000	0.094	0.327
-500.653	19.097	0.332	0.266
-499.639	-175.465	-0.414	-0.011
-498.624	-84.312	0.067	-0.021
-497.610	-200.000	-0.072	-0.657
-496.595	-66.155	0.339	0.135
-495.581	-200.000	0.046	0.402
-494.566	106.241	0.358	-0.424
-493.551	-200.000	-0.071	-0.647
-492.537	266.935	-0.383	-0.668
-491.522	170.032	0.274	-0.391
-490.508	-200.000	0.035	0.212
-489.493	-73.918	0.447	0.162
-488.478	-200.000	0.170	-0.856
-487.464	800.000	0.068	-0.239
-486.449	98.356	-0.292	-0.337
-485.435	71.984	0.026	-0.027
-484.420	491.710	-0.244	-0.559
-483.405	-200.000	-0.013	-0.221
-482.391	-153.900	0.143	-0.010
-481.376	441.693	0.206	-0.451
-480.362	-6.391	0.396	0.270
-479.347	23.534	-0.407	-0.334
-478.332	197.835	0.391	-0.597
-477.318	-4.587	-0.574	0.396
-476.303	-13.245	0.478	-0.310
-475.289	165.915	0.409	0.578
-474.274	-119.431	-0.555	0.096
-473.259	199.666	0.338	-0.518
-472.245	291.011	0.370	0.672
-471.230	568.471	-0.290	0.703
-470.216	145.530	-0.137	-0.183
-469.201	-47.968	0.167	0.081
-468.186	800.000	-0.068	-0.277
-467.172	84.677	0.604	-0.660
-466.157	800.000	-0.300	0.870
-465.143	118.116	0.704	0.866
-464.128	800.000	0.117	0.437
-463.113	-157.337	1.042	-0.063
-462.099	-33.500	0.868	-0.479
-461.084	800.000	-0.154	-0.513
-460.070	-140.117	-0.437	-0.046
-459.055	526.717	0.216	-0.509
-458.040	-200.000	-0.029	0.584
-457.026	-200.000	-0.072	-0.909
-456.011	413.915	-0.334	0.709
-454.997	-7.921	-0.244	-0.164
-453.982	-129.923	-0.150	-0.021
-452.968	-83.732	-0.074	0.024
-451.953	-104.253	-0.315	-0.073
-450.938	-200.000	0.008	0.529
-449.924	-66.730	0.742	-0.293
-448.909	111.550	-0.573	-0.689
-447.895	16.041	0.248	0.195
-446.880	-200.000	-0.118	0.793
-445.865	-44.313	-0.304	-0.152
-444.851	800.000	-0.122	-0.454
-443.836	75.752	0.151	-0.159
-442.822	-200.000	-0.089	-0.792
-441.807	2.600	0.604	-0.437
-440.792	-200.000	0.071	-0.555
-439.778	417.132	-0.048	-0.102
-438.763	-148.738	0.397	-0.032
-437.749	-91.923	-0.885	-0.250
-436.734	-78.642	-0.121	-0.041
-435.719	-52.636	0.053	-0.025
-434.705	-200.000	-0.206	1.054
-433.690	36.007	0.422	0.370
-432.676	-195.775	-0.244	-0.002
-431.661	152.225	-0.367	0.499
-430.646	611.409	-0.187	0.466
-429.632	367.276	-0.247	-0.498
-428.617	319.116	-0.234	0.442
-427.603	-79.466	0.320	0.108
-426.588	148.182	0.400	0.538
-425.573	-13.653	0.319	0.206
-424.559	-147.530	-0.061	-0.005
-423.544	-88.984	-0.338	0.100
-422.530	-118.715	0.138	-0.024
-421.515	800.000	0.200	-0.556
-420.500	800.000	-0.034	-0.119
-419.486	79.859	-0.726	0.778
-418.471	36.848	0.398	0.351
-417.457	73.969	0.447	-0.467
-416.442	-49.099	-0.500	0.238
-415.428	-16.783	-0.391	-0.246
-414.413	-24.533	0.582	0.345
-413.398	90.312	-0.588	0.655
-412.384	-154.419	0.519	-0.035
-411.369	-200.000	-0.048	0.325
-410.355	-79.668	-0.343	-0.115
-409.340	519.943	-0.147	-0.343
-408.325	-25.607	-0.213	0.125
-407.311	414.191	0.242	-0.512
-406.296	-2.990	-0.481	0.334
-405.282	-162.625	-0.513	-0.025
-404.267	800.000	0.155	0.495
-403.252	-104.203	-0.547	-0.127
-402.238	303.832	-0.401	-0.740
-401.223	-96.608	0.506	-0.133
-400.209	437.599	0.179	0.389
-399.194	-190.223	0.761	0.008
-398.179	46.926	0.554	0.513
-397.165	123.710	0.057	-0.071
-396.150	-200.000	0.150	1.231
-395.136	-63.259	0.464	0.190
-394.121	88.469	0.400	0.442
-393.106	-200.000	-0.108	0.659
-392.092	113.139	0.433	0.523
-391.077	53.420	-0.544	-0.519
-390.063	-200.000	-0.083	-0.492
-389.048	672.099	0.126	0.324
-388.033	-139.712	-0.039	0.004
-387.019	365.210	-0.391	0.784
-386.004	-39.115	0.423	-0.221
-384.990	46.711	0.776	-0.717
-383.975	800.000	-0.211	0.600
-382.960	-146.181	-0.302	0.026
-381.946	3.950	0.219	-0.159
-380.931	-200.000	0.115	0.704
-379.917	-200.000	-0.097	-0.599
-378.902	381.389	-0.208	-0.425
-377.888	336.261	-0.353	-0.681
-376.873	437.277	0.195	-0.423
-375.858	800.000	-0.178	-0.742
-374.844	-200.000	0.101	-0.591
-373.829	-52.706	-0.371	-0.170
-372.815	-171.923	-0.670	0.022
-371.800	-87.984	0.181	0.054
-370.785	-200.000	-0.015	0.479
-369.771	-87.342	-0.273	0.082
-368.756	800.000	0.187	0.540
-367.742	-200.000	0.010	-0.250
-366.727	-24.159	0.397	0.236
-365.712	-16.561	-0.575	-0.362
-364.698	-200.000	-0.007	0.109
-363.683	-160.240	0.418	0.022
-362.669	-98.381	-0.449	0.114
-361.654	-40.152	1.032	0.534
-360.639	-145.050	0.145	-0.013
-359.625	124.343	0.333	-0.416
-358.610	74.986	-0.258	0.271
-357.596	-9.238	-0.672	-0.447
-356.581	723.892	0.211	0.560
-355.566	69.433	0.372	-0.381
-354.552	-70.458	0.844	-0.318
-353.537	8.405	-0.601	0.449
-352.523	-89.692	-0.934	0.272
-351.508	800.000	-0.130	-0.368
-350.493	64.281	-0.140	-0.140
-349.479	-183.392	-0.365	0.006
-348.464	66.915	-0.435	-0.440
-347.450	-45.575	0.812	-0.400
-346.435	146.567	0.265	-0.354
-345.420	800.000	0.185	-0.513
-344.406	36.944	0.790	0.694
-343.391	121.696	0.307	0.381
-342.377	25.623	-0.145	0.120
-341.362	-200.000	0.075	-0.552
-340.348	-200.000	0.004	-1.007
-339.333	-107.870	0.534	0.115
-338.318	52.801	-0.267	0.254
-337.304	-200.000	0.010	0.755
-336.289	-128.679	1.026	0.144
-335.275	-105.885	0.225	0.050
-334.260	-200.000	0.021	0.608
-333.245	-179.124	1.111	0.025
-332.231	800.000	0.236	-0.759
-331.216	5.197	0.200	-0.146
-330.202	-171.424	-0.053	0.002
-329.187	-21.855	-0.225	-0.136
-328.172	25.601	0.679	0.562
-327.158	209.315	0.294	-0.457
-326.143	45.716	0.488	-0.448
-325.129	-200.000	-0.041	0.488
-324.114	-1.252	-0.396	-0.277
-323.099	173.610	-0.086	0.123
-322.085	-15.029	0.621	-0.395
-321.070	800.000	0.138	-0.451
-320.056	-175.140	-0.691	0.019
-319.041	-6.982	-0.842	-0.568
-318.026	334.042	-0.147	-0.282
-317.012	-81.198	0.365	-0.120
-315.997	15.246	-0.304	0.237
-314.983	-57.872	-0.185	0.080
-313.968	-96.922	-1.112	0.290
-312.953	-53.991	0.777	0.351
-311.939	52.967	-0.255	-0.243
-310.924	800.000	-0.098	0.335
-309.910	521.305	0.121	0.283
-308.895	206.426	0.245	-0.379
-307.880	-16.061	-0.157	-0.099
-306.866	-143.370	-0.620	0.059
-305.851	-200.000	0.025	1.066
-304.837	-200.000	-0.007	0.365
-303.822	149.715	0.353	-0.475
-302.807	294.310	0.282	-0.512
-301.793	3.855	0.099	-0.071
-300.778	334.049	-0.251	0.482
-299.764	-49.746	0.372	0.175
-298.749	94.760	-0.277	0.313
-297.735	329.316	-0.326	-0.622
-296.720	-62.433	0.264	0.109
-295.705	171.325	-0.434	0.618
-294.691	-102.157	0.450	0.107
-293.676	-89.099	-0.489	0.143
-292.662	-124.489	0.236	0.036
-291.647	-200.000	-0.017	0.411
-290.632	-8.588	-0.843	0.561
-289.618	-117.284	0.259	-0.047
-288.603	52.166	0.206	0.195
-287.589	320.362	-0.206	0.388
-286.574	2.424	-0.342	-0.245
-285.559	18.617	0.575	0.456
-284.545	272.549	-0.428	0.749
-283.530	110.080	-0.332	-0.395
-282.516	-81.359	-1.032	-0.337
-281.501	-9.656	1.342	-0.887
-280.486	799.773	0.125	-0.342
-279.472	-4.463	-0.991	0.679
-278.457	-86.591	-0.485	0.147
-277.443	800.000	-0.105	-0.445
-276.428	-109.579	-0.586	0.123
-275.413	-40.045	0.559	-0.289
-274.399	800.000	0.185	0.602
-273.384	95.776	0.145	0.163
-272.370	-15.235	0.207	-0.131
-271.355	69.623	-0.286	-0.292
-270.340	-5.788	0.420	0.285
-269.326	-65.954	0.417	0.165
-268.311	-38.404	-0.827	0.434
-267.297	800.000	0.068	-0.248
-266.282	-200.000	0.057	-0.541
-265.267	22.742	-0.591	-0.480
-264.253	-80.109	0.425	0.141
-263.238	-200.000	0.030	0.395
-262.224	286.831	-0.077	0.137
-261.209	-42.623	-0.429	-0.216
-260.195	-200.000	0.131	-0.619
-259.180	11.074	-0.816	0.618
-258.165	-103.359	-0.384	0.090
-257.151	-200.000	-0.118	-1.126
-256.136	136.578	0.394	0.510
-255.122	-174.801	0.888	-0.025
-254.107	-200.000	-0.084	-0.562
-253.092	14.757	-0.514	-0.398
-252.078	-200.000	-0.232	-1.126
-251.063	-140.946	0.882	-0.090
-250.049	-200.000	0.087	-0.866
-249.034	-67.125	0.970	-0.378
-248.019	-53.264	0.263	0.119
-247.005	-200.000	0.032	-0.454
-245.990	-200.000	0.052	-0.736
-244.976	579.233	-0.061	0.147
-243.961	251.328	-0.374	-0.629
-242.946	-146.950	-0.627	0.053
-241.932	-4.262	0.399	-0.273
-240.917	107.545	-0.325	-0.383
-239.903	-200.000	0.131	0.620
-238.888	425.417	0.130	0.276
-237.873	-75.842	-0.307	-0.108
-236.859	-40.238	0.218	-0.112
-235.844	26.317	0.253	-0.210
-234.830	-113.146	-0.401	-0.078
-233.815	21.569	0.546	0.440
-232.800	114.683	-0.572	0.689
-231.786	617.310	-0.087	0.216
-230.771	-108.661	-0.337	0.071
-229.757	293.868	0.420	0.759
-228.742	-35.728	0.250	0.134
-227.727	-186.194	0.804	0.012
-226.713	-79.878	0.541	0.180
-225.698	87.615	0.164	-0.180
-224.684	26.566	-0.194	0.160
-223.669	8.390	-0.188	0.140
-222.655	-200.000	-0.171	0.970
-221.640	23.016	-0.764	0.620
-220.625	-200.000	-0.068	-0.480
-219.611	-1.818	0.445	-0.310
-218.596	9.160	0.451	-0.337
-217.582	800.000	0.200	0.821
-216.567	-82.009	0.360	-0.116
-215.552	800.000	-0.126	-0.403
-214.538	262.334	0.450	0.772
-213.523	289.530	0.303	0.544
-212.509	-161.330	-0.443	0.023
-211.494	-46.256	0.146	-0.071
-210.479	-200.000	-0.047	-0.614
-209.465	-200.000	0.087	1.230
-208.450	-187.852	-0.369	-0.005
-207.436	-40.798	-0.910	-0.466
-206.421	105.084	-0.356	0.415
-205.406	621.716	0.084	-0.208
-204.392	-200.000	0.048	-0.519
-203.377	101.383	-0.309	-0.355
-202.363	-40.565	0.320	0.164
-201.348	-59.873	-0.816	0.345
-200.333	0.379	-0.234	0.165
-199.319	-200.000	-0.013	-0.695
-198.304	30.128	0.184	-0.155
-197.290	624.346	-0.287	0.714
-196.275	-50.285	0.033	0.015
-195.260	-200.000	0.038	-0.513
-194.246	-102.985	-0.800	-0.188
-193.231	-30.166	0.382	0.214
-192.217	77.485	-0.097	0.102
-191.202	-14.235	-0.451	0.287
-190.187	-53.653	-0.941	0.425
-189.173	-147.525	-0.201	0.017
-188.158	-34.817	-0.534	-0.288
-187.144	-191.845	0.424	-0.004
-186.129	-123.115	-0.748	-0.118
-185.114	-27.829	-0.143	-0.082
-184.100	-200.000	0.049	0.504
-183.085	253.134	-0.391	0.659
-182.071	-82.528	0.564	0.181
-181.056	27.580	-0.382	0.317
-180.042	211.488	-0.191	-0.296
-179.027	-200.000	-0.019	-0.095
-178.012	-124.854	0.500	-0.076
-176.998	-4.517	0.363	-0.248
-175.983	-98.295	0.614	0.155
-174.969	800.000	-0.184	0.591
-173.954	485.036	-0.192	-0.432
-172.939	56.478	-0.307	0.295
-171.925	-200.000	0.020	-0.410
-170.910	59.635	0.275	0.267
-169.896	800.000	-0.104	-0.322
-168.881	-200.000	0.049	-0.494
-167.866	-52.279	-0.624	0.285
-166.852	-74.989	0.722	0.255
-165.837	59.990	-0.231	0.225
-164.823	-200.000	0.038	-0.747
-163.808	800.000	-0.020	-0.075
-162.793	-200.000	-0.047	-0.541
-161.779	-108.045	0.261	0.056
-160.764	276.118	0.219	-0.383
-159.750	-200.000	-0.020	0.381
-158.735	-200.000	0.017	0.468
-157.720	260.794	0.023	-0.039
-156.706	-133.054	0.929	0.116
-155.691	282.584	0.219	0.387
-154.677	-19.102	-0.690	0.423
-153.662	157.319	0.354	-0.483
-152.647	800.000	-0.064	0.198
-151.633	140.331	0.337	0.438
-150.618	-200.000	0.055	-0.316
-149.604	-38.648	0.311	0.162
-148.589	800.000	0.125	0.526
-147.574	-26.713	0.836	0.482
-146.560	-52.333	-0.654	-0.299
-145.545	-172.247	-0.235	-0.007
-144.531	-200.000	0.090	0.718
-143.516	-28.275	-0.758	0.432
-142.502	229.204	0.342	0.551
-141.487	-200.000	0.027	0.235
-140.472	604.329	0.082	0.201
-139.458	-153.353	-0.687	0.047
-138.443	-100.834	0.740	0.179
-137.429	-200.000	-0.116	0.562
-136.414	35.742	0.327	0.283
-135.399	-125.077	0.562	-0.085
-134.385	-200.000	-0.001	0.733
-133.370	103.200	0.727	0.840
-132.356	187.913	0.133	-0.195
-131.341	-13.163	0.672	0.430
-130.326	-200.000	0.025	0.236
-129.312	-200.000	-0.083	0.400
-128.297	-90.516	-0.370	-0.106
-127.283	800.000	-0.089	0.258
-126.268	67.307	-0.155	-0.156
-125.253	-23.118	0.072	-0.043
-124.239	-200.000	0.034	0.293
-123.224	352.807	-0.269	0.525
-122.210	-200.000	0.026	0.140
-121.195	560.109	0.198	-0.471
-120.180	-150.164	0.710	0.054
-119.166	800.000	-0.158	0.614
-118.151	-148.434	-0.213	0.017
-117.137	485.586	-0.367	-0.824
-116.122	-200.000	-0.043	-0.359
-115.107	-33.147	-0.464	-0.253
-114.093	407.398	-0.193	0.403
-113.078	735.237	0.170	0.449
-112.064	-78.191	0.231	0.078
-111.049	33.168	-0.055	-0.047
-110.034	112.979	0.346	-0.413
-109.020	-81.659	-0.616	-0.199
-108.005	-108.924	-0.533	-0.112
-106.991	91.836	0.144	0.159
-105.976	-102.254	-0.433	0.102
-104.962	163.069	0.266	0.367
-103.947	195.039	0.437	0.654
-102.932	21.298	-0.433	0.346
-101.918	198.750	-0.324	0.489
-100.903	-79.133	0.561	-0.188
-99.889	493.093	0.547	1.233
-98.874	800.000	0.104	-0.401
-97.859	41.144	0.397	0.353
-96.845	-29.196	-0.516	0.291
-95.830	239.738	-0.188	-0.308
-94.816	418.971	0.291	-0.612
-93.801	17.070	-0.499	-0.389
-92.786	-72.812	-0.916	0.332
-91.772	-200.000	-0.044	-0.433
-90.757	-53.419	0.940	-0.424
-89.743	136.675	0.293	-0.376
-88.728	240.113	-0.078	-0.128
-87.713	-200.000	0.201	-1.028
-86.699	567.292	0.237	0.566
-85.684	247.511	0.316	-0.526
-84.670	-200.000	0.067	-0.345
-83.655	-11.281	-0.369	-0.239
-82.640	355.137	-0.311	0.608
-81.626	210.054	-0.442	-0.682
-80.611	51.313	-0.317	0.296
-79.597	-126.272	-0.513	-0.075
-78.582	-200.000	0.034	0.961
-77.567	70.656	-0.339	0.344
-76.553	-37.488	-0.402	0.211
-75.538	383.043	0.029	0.058
-74.524	154.455	-0.294	-0.396
-73.509	79.495	-0.292	0.308
-72.494	-200.000	-0.111	-0.639
-71.480	292.760	-0.343	0.614
-70.465	-123.234	0.438	0.069
-69.451	-162.159	-0.520	-0.026
-68.436	-100.598	1.408	0.342
-67.422	-112.845	1.329	-0.259
-66.407	194.596	0.475	0.709
-65.392	-129.121	-0.438	-0.060
-64.378	-98.520	0.346	0.087
-63.363	165.942	0.610	-0.849
-62.349	-200.000	-0.387	-0.001
-61.334	355.625	-0.628	-1.228
-60.319	800.000	0.289	0.951
-59.305	234.853	-0.438	-0.710
-58.290	800.000	0.156	0.555
-57.276	268.739	0.799	1.376
-56.261	-200.000	94.277	584.955
-55.246	671.965	1358.737	3459.941
-54.232	202.937	2528.971	3839.019
-53.217	113.097	2248.652	2678.515
-52.203	42.172	1880.774	1678.003
-51.188	35.940	1673.421	1446.318
-50.173	33.375	1629.621	1389.615
-49.159	51.756	1679.230	1569.191
-48.144	52.670	1694.414	1590.110
-47.130	35.454	1655.844	1427.288
-46.115	32.848	1640.990	1395.194
-45.100	32.427	1635.883	1387.690
-44.086	32.565	1634.397	1387.394
-43.071	32.496	1630.739	1383.727
-42.057	32.564	1628.794	1382.519
-41.042	32.657	1626.271	1381.007
-40.027	32.460	1625.324	1378.699
-39.013	32.625	1622.651	1377.589
-37.998	32.363	1621.709	1374.813
-36.984	32.591	1619.698	1374.725
-35.969	32.643	1618.216	1373.788
-34.954	32.595	1616.782	1372.167
-33.940	32.424	1615.618	1369.878
-32.925	32.620	1613.819	1369.729
-31.911	32.885	1610.218	1368.539
-30.896	32.421	1610.988	1365.768
-29.881	32.600	1607.871	1364.366
-28.867	32.608	1606.625	1363.317
-27.852	32.564	1605.610	1362.084
-26.838	32.534	1604.063	1360.496
-25.823	32.670	1602.659	1360.232
-24.809	32.735	1600.126	1358.504
-23.794	32.783	1599.480	1358.245
-22.779	32.661	1596.761	1355.005
-21.765	32.832	1596.139	1355.652
-20.750	32.575	1594.531	1352.384
-19.736	32.667	1592.668	1351.411
-18.721	33.057	1590.944	1352.687
-17.706	32.877	1589.743	1350.323
-16.692	32.842	1587.772	1348.346
-15.677	32.791	1586.883	1347.174
-14.663	32.866	1586.251	1347.121
-13.648	32.801	1583.936	1344.640
-12.633	32.780	1582.273	1343.020
-11.619	32.532	1581.797	1340.804
-10.604	32.950	1578.703	1341.093
-9.590	32.651	1578.387	1338.651
-8.575	32.622	1577.509	1337.642
-7.560	32.816	1576.000	1337.689
-6.546	32.842	1574.584	1336.620
-5.531	32.804	1572.993	1334.949
-4.517	32.883	1572.496	1335.031
-3.502	32.704	1572.163	1333.430
-2.487	32.810	1569.634	1331.976
-1.473	32.297	1558.560	1318.930
-0.458	29.438	1539.096	1282.567
0.556	27.024	1539.153	1251.055
1.571	24.569	1562.733	1252.913
2.586	23.937	1575.055	1258.212
3.600	21.030	1523.018	1196.623
4.615	12.510	1413.535	1056.019
5.629	4.583	1350.031	959.706
6.644	3.135	1341.096	944.386
7.659	2.762	1340.526	941.608
8.673	3.236	1338.927	943.306
9.688	2.988	1337.605	940.776
10.702	2.858	1334.369	937.623
11.717	6.437	1340.791	963.984
12.731	15.690	1357.758	1033.204
13.746	23.202	1370.494	1089.217
14.761	24.793	1372.046	1100.143
15.775	24.739	1371.594	1099.353
16.790	24.771	1370.704	1098.737
17.804	24.610	1369.660	1096.817
18.819	24.826	1368.864	1097.409
19.834	24.749	1367.972	1096.125
20.848	24.904	1367.481	1096.581
21.863	24.658	1367.359	1094.883
22.877	24.838	1366.389	1095.110
23.892	24.762	1365.361	1093.723
24.907	24.952	1364.127	1093.802
25.921	24.741	1364.112	1092.399
26.936	25.062	1361.884	1092.480
27.950	24.866	1361.844	1091.154
28.965	24.855	1359.942	1089.464
29.980	24.726	1359.467	1088.205
30.994	25.045	1358.424	1089.211
32.009	24.934	1357.159	1087.428
33.023	24.928	1356.689	1086.919
34.038	25.109	1355.494	1086.964
35.053	24.887	1354.580	1084.791
36.067	24.900	1353.238	1083.699
37.082	24.873	1352.584	1082.912
38.096	24.881	1352.375	1082.699
39.111	25.289	1350.700	1083.728
40.126	24.928	1350.799	1081.528
41.140	24.702	1349.987	1079.421
42.155	24.571	1349.053	1077.785
43.169	24.502	1349.652	1077.755
44.184	24.455	1350.287	1077.878
45.199	24.481	1347.925	1076.056
46.213	24.567	1349.438	1077.690
47.228	24.723	1347.200	1076.748
48.242	24.921	1346.953	1077.644
49.257	25.040	1344.509	1076.311
50.271	24.954	1342.880	1074.395
51.286	25.040	1341.643	1073.826
52.301	25.077	1340.578	1073.096
53.315	24.837	1340.606	1071.590
54.330	24.922	1339.049	1070.760
55.344	24.807	1338.299	1069.376
56.359	24.563	1337.735	1067.374
57.374	24.869	1336.482	1068.107
58.388	24.843	1335.461	1067.042
59.403	24.690	1335.306	1065.910
60.417	24.518	1334.905	1064.471
61.432	24.614	1334.067	1064.279
62.447	24.547	1333.608	1063.417
63.461	24.854	1331.670	1063.603
64.476	24.621	1330.998	1061.587
65.490	24.734	1329.168	1060.705
66.505	24.267	1329.323	1057.964
67.520	24.605	1327.197	1058.182
68.534	24.568	1327.616	1058.202
69.549	24.720	1325.539	1057.356
70.563	24.575	1324.390	1055.486
71.578	24.645	1323.597	1055.174
72.593	24.671	1322.354	1054.245
73.607	24.698	1320.465	1052.802
74.622	24.598	1321.090	1052.618
75.636	24.618	1320.140	1051.884
76.651	24.362	1320.900	1050.893
77.666	24.441	1318.450	1049.311
78.680	24.504	1318.740	1049.825
79.695	24.384	1318.926	1049.172
80.709	24.801	1316.946	1049.951
81.724	24.557	1317.302	1048.707
82.739	25.008	1315.192	1049.579
83.753	24.818	1316.283	1049.245
84.768	25.121	1313.333	1048.571
85.782	25.149	1313.608	1048.862
86.797	25.038	1312.017	1046.852
87.812	24.730	1310.881	1044.052
88.826	24.848	1310.005	1043.954
89.841	25.059	1308.527	1043.912
90.855	25.117	1307.197	1043.096
91.870	25.138	1307.307	1043.212
92.884	25.355	1306.651	1043.859
93.899	24.989	1306.876	1041.816
94.914	25.229	1305.183	1041.772
95.928	25.376	1303.835	1041.453
96.943	25.246	1304.534	1041.169
97.957	24.918	1303.248	1038.145
98.972	25.096	1301.335	1037.562
99.987	25.317	1300.121	1037.780
101.001	24.980	1300.201	1035.803
102.016	25.025	1299.304	1035.255
103.030	25.074	1298.459	1034.773
104.045	25.232	1296.967	1034.403
105.060	24.914	1295.875	1031.610
106.074	25.051	1294.246	1031.009
107.089	24.834	1294.325	1029.737
108.103	24.667	1293.313	1027.875
109.118	24.456	1291.828	1025.397
110.133	24.830	1289.719	1025.771
111.147	24.606	1289.138	1023.938
112.162	24.842	1288.585	1024.760
113.176	24.820	1288.079	1024.142
114.191	24.899	1285.521	1022.467
115.206	24.838	1285.255	1021.818
116.220	24.961	1284.639	1021.939
117.235	24.935	1282.961	1020.363
118.249	24.320	1283.762	1017.406
119.264	24.540	1281.681	1016.919
120.279	24.812	1281.084	1017.901
121.293	24.535	1280.408	1015.699
122.308	24.620	1278.665	1014.710
123.322	24.587	1278.203	1014.065
124.337	24.490	1276.691	1012.226
125.352	24.296	1276.176	1010.629
126.366	24.631	1275.970	1012.277
127.381	24.519	1274.567	1010.439
128.395	24.288	1273.939	1008.544
129.410	24.543	1273.019	1009.166
130.424	24.443	1271.994	1007.703
131.439	24.465	1270.691	1006.704
132.454	24.578	1271.026	1007.517
133.468	24.860	1270.078	1008.267
134.483	24.718	1269.862	1007.205
135.497	24.893	1269.148	1007.535
136.512	24.742	1267.823	1005.546
137.527	24.666	1266.624	1004.079
138.541	24.421	1266.617	1002.609
139.556	24.866	1264.866	1003.628
140.570	24.845	1264.978	1003.512
141.585	25.391	1261.609	1003.804
142.600	24.999	1261.848	1001.714
143.614	25.198	1260.860	1001.950
144.629	25.073	1260.241	1000.674
145.643	25.108	1258.671	999.535
146.658	25.001	1257.869	998.213
147.673	24.951	1257.003	997.156
148.687	24.868	1257.513	997.012
149.702	24.635	1253.962	992.816
150.716	24.393	1252.606	990.308
151.731	24.648	1251.776	990.982
152.746	24.371	1252.050	989.574
153.760	25.029	1249.822	991.364
154.775	25.057	1249.400	991.098
155.789	25.192	1248.863	991.331
156.804	24.818	1247.748	988.292
157.819	24.864	1246.075	987.132
158.833	25.012	1245.815	987.655
159.848	24.917	1245.400	986.718
160.862	24.882	1244.945	986.076
161.877	24.960	1242.447	984.437
162.892	24.939	1241.437	983.433
163.906	24.719	1241.227	981.975
164.921	24.524	1240.872	980.536
165.935	24.943	1240.519	982.468
166.950	24.848	1239.113	980.747
167.964	25.136	1238.060	981.407
168.979	24.806	1238.069	979.520
169.994	24.848	1237.131	978.921
171.008	24.424	1237.516	976.817
172.023	24.643	1236.636	977.232
173.037	25.088	1235.067	978.339
174.052	25.007	1234.824	977.614
175.067	24.885	1233.728	975.999
176.081	24.793	1232.076	974.101
177.096	24.807	1231.254	973.444
178.110	24.776	1230.499	972.589
179.125	24.540	1229.956	970.796
180.140	24.589	1229.482	970.601
181.154	24.697	1228.414	970.260
182.169	24.581	1226.955	968.390
183.183	24.803	1226.142	968.865
184.198	24.801	1225.175	968.007
185.213	24.961	1223.990	967.846
186.227	25.015	1222.594	966.950
187.242	25.176	1222.745	967.852
188.256	24.974	1220.990	965.290
189.271	25.250	1219.871	965.802
190.286	25.178	1219.572	965.095
191.300	24.811	1218.776	962.403
192.315	24.996	1217.745	962.501
193.329	25.064	1218.283	963.205
194.344	25.151	1216.908	962.503
195.359	24.977	1216.145	960.880
196.373	24.701	1214.976	958.389
197.388	24.568	1215.177	957.750
198.402	24.666	1215.515	958.460
199.417	24.922	1215.107	959.426
200.432	25.096	1215.558	960.625
201.446	25.092	1214.055	959.334
202.461	25.015	1212.544	957.645
203.475	25.091	1212.353	957.815
204.490	24.749	1210.573	954.499
205.504	24.734	1209.416	953.423
206.519	24.761	1209.025	953.171
207.534	24.644	1207.670	951.399
208.548	24.531	1206.126	949.494
209.563	24.512	1205.570	948.873
210.577	24.446	1205.097	948.067
211.592	24.662	1204.612	948.746
212.607	25.048	1204.137	950.336
213.621	25.156	1202.916	949.861
214.636	24.706	1202.194	946.823
215.650	24.690	1201.543	946.143
216.665	24.868	1200.251	945.981
217.680	24.833	1200.619	946.001
218.694	25.402	1198.379	947.155
219.709	25.071	1197.169	944.374
220.723	25.157	1196.561	944.262
221.738	24.871	1196.729	942.803
222.753	24.834	1196.325	942.207
223.767	24.719	1195.572	940.928
224.782	24.885	1195.041	941.298
225.796	25.302	1194.034	942.613
226.811	24.889	1194.059	940.382
227.826	24.903	1193.712	940.098
228.840	24.834	1192.080	938.368
229.855	24.699	1191.489	937.109
230.869	24.911	1190.465	937.331
231.884	24.889	1190.219	936.939
232.899	24.417	1188.834	933.300
233.913	24.650	1188.898	934.488
234.928	24.538	1188.706	933.667
235.942	24.868	1187.789	934.587
236.957	24.523	1186.361	931.584
237.972	24.347	1185.914	930.232
238.986	24.488	1185.053	930.205
240.001	24.432	1184.741	929.588
241.015	24.561	1183.220	928.984
242.030	24.617	1183.086	929.089
243.045	24.980	1181.564	929.693
244.059	24.780	1182.196	929.073
245.074	24.867	1181.491	928.887
246.088	24.854	1180.716	928.129
247.103	25.274	1178.868	928.767
248.117	24.891	1179.673	927.336
249.132	25.115	1178.280	927.317
250.147	25.155	1178.141	927.333
251.161	25.729	1177.687	929.856
252.176	25.575	1176.759	928.251
253.190	25.525	1176.948	928.057
254.205	25.312	1176.082	926.192
255.220	26.072	1174.473	928.760
256.234	26.066	1174.820	928.917
257.249	25.865	1173.843	927.032
258.263	25.627	1173.061	925.107
259.278	25.602	1172.090	924.132
260.293	25.799	1171.278	924.423
261.307	25.665	1171.730	924.005
262.322	25.523	1170.733	922.411
263.336	25.636	1169.399	921.856
264.351	25.569	1168.756	920.927
265.366	25.656	1168.522	921.107
266.380	25.690	1168.446	921.138
267.395	25.696	1167.091	920.020
268.409	25.804	1165.839	919.501
269.424	25.500	1166.119	918.089
270.439	25.538	1165.133	917.426
271.453	25.407	1165.274	916.787
272.468	25.306	1163.656	914.916
273.482	25.399	1163.319	915.045
274.497	25.411	1162.143	914.102
275.512	25.169	1161.854	912.563
276.526	25.309	1161.865	913.199
277.541	25.344	1160.834	912.487
278.555	25.636	1158.907	912.375
279.570	25.576	1159.514	912.467
280.585	25.855	1158.493	912.996
281.599	25.612	1157.868	911.193
282.614	25.507	1155.388	908.629
283.628	25.320	1155.129	907.399
284.643	25.720	1154.619	908.937
285.657	25.293	1153.761	906.027
286.672	25.233	1153.980	905.817
287.687	25.515	1153.085	906.456
288.701	25.289	1152.206	904.545
289.716	25.400	1151.172	904.213
290.730	25.635	1150.667	904.922
291.745	25.609	1149.099	903.475
292.760	25.673	1149.011	903.647
293.774	25.688	1148.593	903.316
294.789	25.650	1148.383	902.879
295.803	25.325	1147.708	900.637
296.818	25.557	1146.641	900.885
297.833	25.506	1145.354	899.539
298.847	25.652	1145.270	900.124
299.862	25.664	1143.300	898.554
300.876	25.489	1143.919	898.086
301.891	25.445	1143.261	897.270
302.906	25.641	1143.196	898.120
303.920	25.769	1143.286	898.751
304.935	25.561	1142.179	896.765
305.949	25.900	1141.205	897.605
306.964	25.925	1140.293	896.933
307.979	25.517	1140.252	894.792
308.993	25.466	1139.163	893.607
310.008	25.660	1138.520	893.984
311.022	25.533	1137.855	892.755
312.037	25.707	1136.616	892.564
313.052	25.856	1135.168	892.087
314.066	25.736	1135.684	891.820
315.081	25.445	1135.215	889.931
316.095	25.292	1133.344	887.628
317.110	25.576	1132.145	888.015
318.125	25.385	1131.144	886.208
319.139	25.145	1131.613	885.311
320.154	25.522	1130.377	886.127
321.168	25.282	1129.780	884.398
322.183	25.365	1129.187	884.265
323.197	25.331	1128.442	883.436
324.212	25.357	1128.783	883.751
325.227	25.353	1128.388	883.346
326.241	25.530	1126.810	882.899
327.256	25.570	1127.183	883.310
328.270	25.239	1126.210	880.847
329.285	25.276	1124.885	879.913
330.300	25.673	1124.088	881.155
331.314	25.442	1123.350	879.372
332.329	25.390	1122.263	878.187
333.343	24.961	1122.526	876.215
334.358	25.600	1121.205	878.230
335.373	25.918	1120.319	879.006
336.387	25.731	1119.985	877.757
337.402	25.506	1119.314	876.056
338.416	25.676	1118.685	876.316
339.431	25.705	1118.065	875.894
340.446	26.182	1117.015	877.308
341.460	26.191	1117.287	877.490
342.475	26.269	1115.633	876.493
343.489	25.993	1115.648	875.089
344.504	26.166	1114.700	875.102
345.519	26.331	1113.280	874.709
346.533	26.125	1113.513	873.821
347.548	26.150	1113.568	873.908
348.562	26.200	1111.286	872.281
349.577	25.976	1110.402	870.430
350.592	25.735	1109.349	868.361
351.606	25.690	1108.582	867.469
352.621	25.886	1108.035	867.907
353.635	25.731	1107.129	866.377
354.650	25.755	1105.436	865.088
355.665	25.817	1105.793	865.592
356.679	25.729	1105.493	864.856
357.694	25.922	1104.210	864.699
358.708	25.929	1104.037	864.525
359.723	25.940	1104.370	864.759
360.738	26.026	1102.677	863.771
361.752	25.863	1102.261	862.586
362.767	25.801	1101.689	861.767
363.781	25.666	1101.898	861.209
364.796	26.234	1099.553	862.012
365.810	26.206	1100.272	862.362
366.825	26.308	1099.554	862.213
367.840	26.209	1099.496	861.616
368.854	26.353	1099.076	861.898
369.869	26.549	1097.637	861.630
370.883	26.155	1097.280	859.395
371.898	26.128	1097.786	859.586
372.913	25.870	1096.768	857.486
373.927	26.132	1095.174	857.411
374.942	26.143	1095.052	857.289
375.956	26.300	1094.504	857.528
376.971	26.008	1094.247	855.867
377.986	26.203	1093.129	855.840
379.000	26.421	1093.258	856.900
380.015	26.373	1092.774	856.215
381.029	26.354	1092.035	855.471
382.044	26.445	1091.710	855.574
383.059	26.279	1090.362	853.656
384.073	25.962	1089.944	851.758
385.088	26.318	1088.812	852.475
386.102	26.407	1087.885	852.096
387.117	26.058	1087.461	850.043
388.132	25.851	1086.157	847.975
389.146	26.103	1085.351	848.455
390.161	25.895	1083.709	846.119
391.175	25.839	1083.577	845.680
392.190	26.449	1082.788	847.847
393.205	26.539	1082.490	847.960
394.219	26.422	1082.068	847.009
395.234	26.009	1081.602	844.633
396.248	25.780	1080.662	842.756
397.263	25.915	1078.599	841.701
398.278	26.218	1078.451	842.924
399.292	26.203	1077.150	841.765
400.307	26.031	1077.117	840.863
401.321	25.947	1076.490	839.909
402.336	25.533	1075.317	836.990
403.350	26.114	1074.098	838.667
404.365	26.005	1074.569	838.455
405.380	25.988	1074.371	838.149
406.394	26.204	1073.013	838.018
407.409	26.553	1072.137	838.875
408.423	26.311	1072.478	837.946
409.438	26.702	1071.104	838.607
410.453	26.389	1071.384	837.303
411.467	26.618	1070.445	837.555
412.482	26.345	1068.686	834.845
413.496	26.536	1068.391	835.421
414.511	26.525	1068.388	835.294
415.526	26.424	1067.656	834.182
416.540	26.508	1067.141	834.097
417.555	26.762	1066.610	834.778
418.569	26.460	1066.389	833.138
419.584	26.709	1065.599	833.593
420.599	26.574	1065.113	832.517
421.613	152.804	1404.169	1792.484
422.628	140.570	1453.570	1792.555
