DTS Sentinel unit serial number:	SN413079Multiplexer serial number:	ORYXHardware model number:	OX4-SRSoftware version number:	ORYX F/W v4.00 Oryx Data Collector v3.7.2.0data status	okinstallation	princeton_trtdifferential loss correction	single-endedforward channel	channel 2reverse channel	N/Adate	2019/09/11time	05:57:10forward acquisition time	60.00reverse acquisition time	0.00gamma	496.2192k internal	0.2329k external	0.2329temperature offset calibration	0.9939default loss term (dB/km)	0.3790temperature slope calibration	1.0000multiplexer offset coefficient	1.0000multiplexer slope coefficient	1.0000fibre end	0.00T internal ref (°C)	29.42T ext. ref 1 (°C)	-0.22T ext. ref 2 (°C)	23.53length (m)	temperature (°C)	Stokes	anti-Stokes-747.200	-87.579	0.074	-0.023
-746.185	-200.000	-0.019	0.088
-745.171	431.986	0.195	0.425
-744.156	-200.000	0.027	0.355
-743.142	31.104	0.100	-0.086
-742.127	48.403	-0.157	-0.148
-741.112	46.914	-0.187	-0.175
-740.098	-200.000	0.049	0.445
-739.083	-128.078	0.051	0.007
-738.069	-134.486	-0.109	-0.013
-737.054	-167.165	0.308	0.013
-736.039	-149.545	-0.362	0.029
-735.025	40.280	0.108	-0.098
-734.010	127.025	-0.169	-0.216
-732.996	-14.689	-0.065	-0.042
-731.981	497.649	0.194	-0.449
-730.966	80.620	-0.134	0.146
-729.952	436.406	-0.037	-0.081
-728.937	30.443	0.174	-0.150
-727.923	-17.913	-0.296	-0.187
-726.908	24.808	0.197	-0.164
-725.894	-200.000	0.026	-0.188
-724.879	169.766	0.156	-0.224
-723.864	48.502	-0.024	0.023
-722.850	-88.727	0.221	0.066
-721.835	-200.000	-0.024	0.320
-720.821	800.000	-0.130	0.386
-719.806	-200.000	-0.016	-0.210
-718.791	322.102	0.057	0.109
-717.777	-200.000	0.004	-0.232
-716.762	189.290	-0.088	0.132
-715.748	-88.585	0.132	-0.040
-714.733	167.411	0.082	-0.118
-713.718	259.099	-0.262	-0.455
-712.704	16.133	-0.265	-0.210
-711.689	573.888	-0.116	-0.284
-710.675	-200.000	0.003	0.041
-709.660	-111.874	0.195	-0.040
-708.645	-5.944	0.034	-0.023
-707.631	71.663	-0.236	0.247
-706.616	330.116	-0.139	0.268
-705.602	800.000	0.055	0.176
-704.587	-47.372	-0.335	-0.164
-703.572	-173.680	-0.244	-0.007
-702.558	-200.000	-0.012	0.281
-701.543	-56.585	0.306	0.136
-700.529	445.573	-0.174	-0.385
-699.514	589.457	0.095	0.236
-698.499	-200.000	0.003	0.133
-697.485	-93.246	-0.366	-0.102
-696.470	67.769	0.195	-0.201
-695.456	-200.000	0.019	-0.089
-694.441	800.000	0.035	0.097
-693.426	-22.369	-0.231	-0.141
-692.412	538.687	-0.129	-0.309
-691.397	90.108	0.188	0.211
-690.383	-23.667	0.264	0.159
-689.368	210.675	0.057	-0.090
-688.354	32.197	0.089	-0.077
-687.339	13.169	-0.207	0.161
-686.324	-200.000	-0.005	-0.093
-685.310	800.000	0.059	0.168
-684.295	-23.226	-0.420	0.254
-683.281	-36.892	0.319	0.172
-682.266	58.058	-0.303	-0.298
-681.251	66.864	-0.094	-0.096
-680.237	709.307	0.137	-0.364
-679.222	767.937	0.056	0.154
-678.208	-200.000	-0.044	0.440
-677.193	-200.000	-0.010	-0.094
-676.178	-76.409	-0.147	0.052
-675.164	119.730	0.169	0.210
-674.149	7.519	-0.071	-0.053
-673.135	-25.887	0.091	0.054
-672.120	466.761	0.047	-0.105
-671.105	14.241	-0.187	0.146
-670.091	571.799	-0.045	-0.111
-669.076	-16.969	-0.037	0.023
-668.062	-184.950	0.222	0.004
-667.047	-21.084	-0.318	0.195
-666.032	-143.500	0.185	-0.018
-665.018	-200.000	-0.024	-0.294
-664.003	309.258	-0.076	-0.143
-662.989	-200.000	-0.038	0.214
-661.974	-143.468	-0.136	0.013
-660.959	196.166	-0.048	-0.073
-659.945	-24.218	-0.536	-0.321
-658.930	335.284	-0.121	0.235
-657.916	-10.809	0.219	-0.145
-656.901	-9.182	-0.098	0.066
-655.886	-22.465	-0.227	-0.138
-654.872	-130.540	-0.230	0.031
-653.857	-200.000	0.047	0.301
-652.843	53.464	0.195	0.188
-651.828	-200.000	0.057	-0.334
-650.814	-200.000	0.023	-0.169
-649.799	562.017	-0.045	-0.109
-648.784	-122.287	0.078	-0.013
-647.770	-6.531	-0.134	-0.092
-646.755	155.965	0.148	-0.205
-645.741	-125.086	-0.426	0.066
-644.726	71.406	0.121	0.126
-643.711	-85.040	0.179	0.056
-642.697	-200.000	-0.032	-0.180
-641.682	-200.000	0.007	-0.266
-640.668	191.091	-0.193	-0.292
-639.653	107.795	-0.125	0.149
-638.638	-104.953	0.199	-0.046
-637.624	-141.278	-0.303	-0.031
-636.609	559.742	-0.070	-0.170
-635.595	389.991	-0.151	-0.313
-634.580	-106.432	0.416	0.093
-633.565	73.286	-0.089	-0.093
-632.551	177.181	-0.007	0.010
-631.536	-69.176	0.120	-0.046
-630.522	236.079	0.063	-0.105
-629.507	800.000	-0.015	0.063
-628.492	-98.501	-0.243	0.062
-627.478	-58.547	0.365	0.159
-626.463	-110.204	-0.303	0.063
-625.449	15.782	-0.137	0.108
-624.434	25.780	0.221	-0.185
-623.419	-3.144	-0.224	-0.157
-622.405	-110.697	-0.068	0.014
-621.390	-51.884	-0.219	-0.102
-620.376	94.353	-0.333	-0.379
-619.361	-15.012	-0.088	0.057
-618.346	-141.434	0.128	-0.013
-617.332	150.779	0.291	-0.397
-616.317	79.522	-0.176	-0.190
-615.303	-200.000	0.040	0.265
-614.288	-29.959	-0.159	-0.091
-613.273	-15.978	-0.160	-0.102
-612.259	-96.980	-0.152	0.040
-611.244	800.000	-0.064	0.216
-610.230	800.000	-0.051	0.190
-609.215	-28.097	0.149	0.086
-608.201	524.234	0.041	0.096
-607.186	-188.057	-0.152	-0.002
-606.171	-200.000	0.045	0.287
-605.157	-74.027	-0.279	0.101
-604.142	52.461	-0.011	0.011
-603.128	-87.904	-0.226	-0.068
-602.113	-23.740	-0.271	-0.163
-601.098	-153.869	-0.247	-0.017
-600.084	-73.834	0.091	-0.033
-599.069	147.879	-0.091	-0.123
-598.055	441.011	-0.067	-0.148
-597.040	800.000	0.088	0.246
-596.025	-149.954	0.204	0.016
-595.011	-169.320	-0.443	-0.016
-593.996	8.567	0.254	0.192
-592.982	37.439	0.136	-0.121
-591.967	-6.698	0.041	-0.028
-590.952	-200.000	0.003	-0.195
-589.938	-124.103	-0.112	0.018
-588.923	442.239	0.073	0.160
-587.909	87.688	-0.261	-0.290
-586.894	-174.060	-0.075	0.002
-585.879	772.231	-0.139	0.380
-584.865	-33.980	0.138	0.076
-583.850	-200.000	0.013	-0.294
-582.836	-85.600	-0.094	-0.029
-581.821	228.739	-0.132	0.215
-580.806	-120.969	-0.362	-0.061
-579.792	-200.000	-0.016	0.129
-578.777	6.283	0.248	-0.184
-577.763	-200.000	-0.034	-0.389
-576.748	-200.000	0.036	0.282
-575.733	-62.739	-0.276	-0.115
-574.719	800.000	0.053	-0.210
-573.704	296.302	-0.042	-0.076
-572.690	198.894	-0.074	0.113
-571.675	371.691	-0.115	-0.233
-570.661	-43.784	-0.309	-0.156
-569.646	800.000	0.053	-0.170
-568.631	43.096	-0.196	-0.179
-567.617	68.923	0.084	0.087
-566.602	-2.824	-0.239	0.167
-565.588	9.316	-0.062	0.047
-564.573	-123.834	0.239	-0.038
-563.558	161.683	-0.172	-0.240
-562.544	-200.000	-0.021	-0.272
-561.529	95.121	-0.051	-0.058
-560.515	-7.537	-0.038	0.025
-559.500	58.140	0.143	-0.140
-558.485	19.968	0.192	-0.155
-557.471	-200.000	-0.020	-0.316
-556.456	-69.479	-0.069	0.026
-555.442	800.000	0.105	-0.392
-554.427	8.215	0.289	-0.217
-553.412	-116.023	-0.043	0.008
-552.398	66.588	-0.227	-0.230
-551.383	800.000	0.031	-0.114
-550.369	131.113	-0.106	0.136
-549.354	169.885	0.069	0.098
-548.339	-50.864	0.051	-0.024
-547.325	-70.198	0.381	-0.145
-546.310	-200.000	0.039	-0.228
-545.296	800.000	-0.040	-0.173
-544.281	138.541	0.182	-0.239
-543.266	-172.893	0.137	0.004
-542.252	-3.695	-0.212	0.148
-541.237	-160.724	0.133	0.007
-540.223	-200.000	0.000	0.201
-539.208	-200.000	-0.024	-0.121
-538.193	-105.203	-0.201	-0.046
-537.179	-200.000	-0.009	0.313
-536.164	-59.083	0.125	0.054
-535.150	-107.198	0.127	-0.028
-534.135	-176.823	0.224	-0.006
-533.121	104.006	0.067	0.079
-532.106	-85.477	-0.090	0.028
-531.091	90.209	0.129	0.144
-530.077	56.956	-0.317	0.309
-529.062	73.323	0.055	0.057
-528.048	-111.935	-0.418	-0.084
-527.033	89.537	0.054	-0.060
-526.018	-49.758	-0.069	-0.033
-525.004	-89.068	-0.085	0.025
-523.989	-14.732	0.188	-0.120
-522.975	-70.703	0.248	-0.093
-521.960	-30.857	0.364	0.205
-520.945	800.000	0.054	0.193
-519.931	3.734	0.419	-0.306
-518.916	-148.988	-0.187	0.015
-517.902	-123.365	0.135	0.021
-516.887	213.591	-0.183	-0.288
-515.872	-102.157	-0.174	-0.042
-514.858	-31.540	0.007	-0.004
-513.843	-17.477	-0.433	-0.272
-512.829	197.938	0.075	-0.115
-511.814	-102.147	0.453	-0.109
-510.799	-143.691	-0.393	0.037
-509.785	-130.597	0.065	-0.009
-508.770	800.000	-0.049	-0.183
-507.756	-200.000	-0.068	-0.339
-506.741	-200.000	0.010	0.052
-505.726	-59.478	0.090	0.039
-504.712	-200.000	-0.073	0.401
-503.697	-96.656	-0.204	0.054
-502.683	48.454	-0.028	0.026
-501.668	-112.251	-0.067	-0.013
-500.653	-200.000	0.020	-0.156
-499.639	11.536	0.142	-0.108
-498.624	-200.000	-0.027	0.141
-497.610	367.967	0.064	0.128
-496.595	-122.964	0.340	0.055
-495.581	-200.000	0.024	0.421
-494.566	800.000	-0.079	0.246
-493.551	615.987	-0.167	-0.419
-492.537	-151.922	0.247	-0.018
-491.522	-200.000	0.015	0.239
-490.508	-168.337	-0.099	0.004
-489.493	129.697	0.157	0.200
-488.478	4.847	0.223	0.164
-487.464	-24.826	-0.195	0.115
-486.449	-142.047	0.261	0.026
-485.435	487.351	-0.053	0.121
-484.420	24.880	-0.079	0.065
-483.405	174.802	0.192	0.278
-482.391	-200.000	0.040	0.444
-481.376	-200.000	0.025	0.150
-480.362	-113.392	-0.120	0.023
-479.347	-200.000	0.017	-0.080
-478.332	800.000	0.087	-0.240
-477.318	186.306	-0.080	-0.119
-476.303	800.000	0.042	0.128
-475.289	179.901	-0.105	0.154
-474.274	-200.000	-0.056	0.391
-473.259	385.287	-0.226	0.465
-472.245	69.503	0.066	0.068
-471.230	-121.476	-0.105	0.017
-470.216	-78.148	0.089	0.030
-469.201	800.000	0.061	-0.168
-468.186	12.002	-0.182	-0.139
-467.172	-13.519	0.107	-0.069
-466.157	-32.086	-0.299	0.166
-465.143	203.392	-0.198	-0.304
-464.128	242.579	-0.186	-0.310
-463.113	-200.000	-0.041	0.262
-462.099	10.513	-0.136	0.103
-461.084	59.986	0.151	0.149
-460.070	-2.695	0.074	0.051
-459.055	40.150	-0.209	-0.187
-458.040	800.000	0.064	-0.198
-457.026	-200.000	-0.004	-0.242
-456.011	-200.000	-0.017	0.085
-454.997	91.569	0.208	-0.233
-453.982	62.984	0.069	0.069
-452.968	30.686	0.155	0.132
-451.953	-33.747	-0.174	-0.095
-450.938	174.353	-0.138	-0.199
-449.924	100.083	0.137	0.158
-448.909	161.858	-0.137	-0.192
-447.895	-13.648	-0.201	0.129
-446.880	-68.486	-0.243	0.094
-445.865	460.914	-0.136	0.301
-444.851	-200.000	-0.024	0.290
-443.836	232.783	0.113	0.185
-442.822	-42.109	0.248	0.126
-441.807	-132.282	-0.198	0.025
-440.792	116.314	-0.058	-0.071
-439.778	-33.845	-0.080	-0.044
-438.763	-97.338	0.331	-0.086
-437.749	-200.000	-0.027	-0.178
-436.734	31.638	0.201	-0.172
-435.719	48.109	-0.214	0.199
-434.705	18.432	0.393	0.312
-433.690	2.423	-0.104	0.075
-432.676	-140.798	-0.219	-0.022
-431.661	-65.101	0.190	-0.076
-430.646	188.655	0.254	0.378
-429.632	-17.692	-0.284	-0.178
-428.617	-200.000	0.036	0.367
-427.603	-11.119	0.282	-0.185
-426.588	-38.617	-0.133	0.070
-425.573	175.030	-0.094	-0.136
-424.559	197.977	0.019	-0.030
-423.544	147.818	-0.134	0.180
-422.530	308.906	0.151	0.280
-421.515	5.728	-0.172	-0.127
-420.500	-0.044	0.216	-0.153
-419.486	179.651	-0.116	-0.168
-418.471	144.178	0.162	-0.214
-417.457	800.000	0.034	0.143
-416.442	-80.714	0.388	0.128
-415.428	291.520	0.112	-0.202
-414.413	-108.083	-0.227	0.049
-413.398	-23.761	0.069	-0.041
-412.384	-73.851	-0.251	0.091
-411.369	-173.916	-0.093	-0.003
-410.355	-200.000	0.012	-0.352
-409.340	95.399	-0.097	0.109
-408.325	800.000	-0.107	0.368
-407.311	-71.711	-0.149	-0.055
-406.296	422.285	0.046	0.099
-405.282	-90.482	-0.294	-0.085
-404.267	-149.841	-0.261	0.020
-403.252	-99.889	0.105	0.026
-402.238	152.820	-0.124	0.169
-401.223	-200.000	-0.025	0.151
-400.209	54.628	0.183	-0.176
-399.194	800.000	0.056	-0.213
-398.179	-109.113	-0.328	0.069
-397.165	533.549	-0.048	-0.114
-396.150	-37.549	0.125	-0.066
-395.136	-61.476	-0.181	0.076
-394.121	324.632	-0.126	-0.239
-393.106	195.848	0.160	-0.242
-392.092	-116.339	-0.272	0.050
-391.077	774.392	0.039	0.106
-390.063	800.000	0.032	-0.095
-389.048	-200.000	0.057	-0.375
-388.033	-78.391	0.263	0.090
-387.019	800.000	-0.034	-0.106
-386.004	-200.000	0.008	-0.265
-384.990	-161.450	0.205	0.010
-383.975	173.411	-0.147	0.210
-382.960	-22.290	0.155	-0.093
-381.946	-86.431	-0.168	-0.051
-380.931	-200.000	0.017	0.228
-379.917	261.351	0.115	-0.198
-378.902	-56.141	0.316	-0.140
-377.888	-165.683	0.244	0.010
-376.873	254.262	-0.180	0.306
-375.858	84.393	-0.168	0.182
-374.844	473.983	-0.033	-0.073
-373.829	269.369	0.058	-0.100
-372.815	84.552	0.139	0.150
-371.800	8.643	-0.237	-0.177
-370.785	254.375	0.006	-0.011
-369.771	60.948	-0.060	0.059
-368.756	-200.000	0.026	0.285
-367.742	-153.731	0.385	-0.026
-366.727	640.694	-0.083	0.211
-365.712	-45.333	0.298	0.147
-364.698	63.852	-0.189	-0.188
-363.683	21.432	0.106	-0.086
-362.669	800.000	-0.087	-0.364
-361.654	271.436	0.023	0.039
-360.639	-131.609	0.435	-0.057
-359.625	-16.130	-0.254	0.160
-358.610	800.000	0.080	0.222
-357.596	800.000	-0.070	-0.290
-356.581	-87.983	-0.135	0.040
-355.566	800.000	0.034	0.130
-354.552	-72.883	-0.326	0.119
-353.537	246.048	0.168	0.281
-352.523	240.713	0.151	-0.250
-351.508	-107.534	-0.199	0.043
-350.493	-200.000	-0.001	-0.179
-349.479	771.329	-0.119	0.321
-348.464	431.074	-0.040	0.086
-347.450	-34.093	-0.242	-0.132
-346.435	249.361	-0.049	0.083
-345.420	-200.000	-0.005	0.112
-344.406	-152.161	-0.125	-0.009
-343.391	782.769	-0.127	0.345
-342.377	-200.000	-0.054	0.262
-341.362	800.000	-0.046	0.188
-340.348	-200.000	0.006	-0.096
-339.333	-200.000	0.046	0.202
-338.318	-42.417	0.121	0.061
-337.304	800.000	-0.030	0.094
-336.289	-182.534	0.462	0.008
-335.275	257.533	-0.106	-0.181
-334.260	0.275	-0.248	0.176
-333.245	294.270	0.224	-0.406
-332.231	-46.722	0.353	-0.171
-331.216	-200.000	-0.005	0.098
-330.202	743.356	0.088	-0.233
-329.187	129.688	0.015	-0.018
-328.172	800.000	0.054	0.221
-327.158	92.037	-0.061	0.068
-326.143	71.639	0.158	-0.163
-325.129	70.706	0.156	0.160
-324.114	91.014	-0.199	-0.221
-323.099	304.840	0.331	-0.608
-322.085	215.715	-0.145	-0.229
-321.070	-7.733	-0.035	-0.023
-320.056	-200.000	-0.026	-0.285
-319.041	-5.848	0.218	0.148
-318.026	-200.000	0.035	0.391
-317.012	-135.249	-0.228	0.027
-315.997	307.315	-0.074	-0.136
-314.983	-200.000	0.021	-0.138
-313.968	118.166	0.176	0.214
-312.953	-63.179	0.166	0.068
-311.939	134.085	-0.208	0.267
-310.924	800.000	0.066	-0.191
-309.910	-5.197	-0.233	0.159
-308.895	13.006	0.069	-0.053
-307.880	53.337	-0.277	0.263
-306.866	-102.860	0.274	-0.065
-305.851	654.036	0.061	0.155
-304.837	-111.625	-0.221	0.044
-303.822	144.608	0.201	0.266
-302.807	356.249	-0.102	-0.202
-301.793	132.298	0.093	0.119
-300.778	85.080	0.182	0.197
-299.764	40.506	0.248	-0.221
-298.749	154.276	-0.004	-0.005
-297.735	65.335	0.224	0.224
-296.720	-200.000	-0.008	0.136
-295.705	-35.574	0.469	0.252
-294.691	181.312	-0.071	0.104
-293.676	-96.931	0.365	0.095
-292.662	-92.096	0.162	0.045
-291.647	128.315	0.137	-0.172
-290.632	-47.693	0.234	0.112
-289.618	-42.019	0.213	-0.108
-288.603	-69.198	-0.208	0.079
-287.589	-37.199	-0.044	0.023
-286.574	-143.065	0.222	0.021
-285.559	3.936	-0.068	-0.049
-284.545	83.144	-0.039	-0.042
-283.530	-68.234	-0.169	-0.065
-282.516	137.940	-0.072	-0.093
-281.501	116.875	-0.132	0.160
-280.486	-165.577	0.080	-0.003
-279.472	121.663	0.011	0.013
-278.457	224.973	0.119	-0.190
-277.443	-187.576	-0.221	0.003
-276.428	-80.973	-0.158	-0.052
-275.413	44.656	-0.236	0.214
-274.399	-166.972	-0.111	-0.004
-273.384	-200.000	-0.003	0.282
-272.370	207.198	0.247	0.380
-271.355	71.652	-0.178	0.183
-270.340	-78.591	0.275	0.093
-269.326	-101.159	0.140	0.034
-268.311	-85.529	0.335	-0.103
-267.297	-200.000	-0.030	-0.159
-266.282	-11.069	0.202	-0.131
-265.267	-123.759	-0.250	-0.039
-264.253	79.012	0.072	-0.076
-263.238	-29.800	0.259	0.146
-262.224	-130.739	-0.119	0.016
-261.209	521.345	-0.039	-0.090
-260.195	-200.000	0.003	-0.169
-259.180	-200.000	0.031	0.265
-258.165	-92.122	0.222	-0.062
-257.151	-99.014	-0.034	0.009
-256.136	-40.348	0.327	0.168
-255.122	-28.605	-0.294	-0.167
-254.107	-99.870	0.284	0.070
-253.092	-38.949	-0.223	-0.116
-252.078	-34.835	-0.115	-0.062
-251.063	-28.418	0.166	-0.095
-250.049	-200.000	0.005	-0.157
-249.034	87.572	0.085	0.093
-248.019	-5.066	0.098	0.067
-247.005	-8.044	0.172	-0.114
-245.990	800.000	0.097	0.270
-244.976	478.661	-0.234	-0.524
-243.961	94.660	0.140	-0.158
-242.946	76.815	0.060	-0.062
-241.932	-87.144	-0.276	0.083
-240.917	284.863	0.135	0.239
-239.903	-142.802	-0.198	-0.019
-238.888	42.251	0.120	0.108
-237.873	9.901	0.274	0.206
-236.859	155.178	0.139	0.188
-235.844	357.189	0.035	0.069
-234.830	-200.000	0.006	-0.031
-233.815	800.000	0.128	0.385
-232.800	-58.842	0.277	-0.118
-231.786	-37.646	-0.151	0.079
-230.771	-43.642	0.369	-0.184
-229.757	29.365	0.084	-0.070
-228.742	4.492	0.125	-0.091
-227.727	12.230	-0.139	0.106
-226.713	415.495	0.149	-0.314
-225.698	721.308	-0.056	-0.147
-224.684	179.880	-0.145	0.210
-223.669	800.000	0.049	-0.181
-222.655	428.096	0.030	-0.064
-221.640	-64.684	-0.255	0.102
-220.625	-200.000	-0.005	0.227
-219.611	104.311	0.096	0.112
-218.596	800.000	0.045	-0.167
-217.582	-200.000	-0.025	-0.326
-216.567	-200.000	0.016	-0.271
-215.552	-80.917	0.114	-0.037
-214.538	-101.934	-0.200	-0.048
-213.523	-55.215	0.170	0.075
-212.509	-120.688	0.320	0.053
-211.494	68.836	-0.208	0.210
-210.479	-14.495	-0.066	0.042
-209.465	-67.211	0.287	0.111
-208.450	-44.151	-0.171	0.085
-207.436	243.310	0.088	0.145
-206.421	103.683	-0.287	-0.332
-205.406	800.000	-0.031	0.120
-204.392	15.590	0.197	0.152
-203.377	-200.000	-0.087	0.379
-202.363	-200.000	-0.013	-0.127
-201.348	79.379	-0.192	-0.203
-200.333	-24.149	0.101	0.060
-199.319	-164.995	0.112	-0.005
-198.304	800.000	0.022	0.092
-197.290	-200.000	0.074	-0.375
-196.275	360.002	-0.083	0.163
-195.260	-63.540	-0.513	-0.208
-194.246	7.371	0.138	-0.102
-193.231	-108.633	0.167	-0.035
-192.217	75.380	-0.114	0.118
-191.202	193.388	0.149	-0.223
-190.187	-120.772	-0.176	0.029
-189.173	-136.279	0.434	0.050
-188.158	-200.000	0.005	0.084
-187.144	294.858	0.095	-0.172
-186.129	-74.953	-0.161	-0.057
-185.114	-105.567	0.089	0.020
-184.100	94.678	-0.045	0.051
-183.085	-83.313	-0.108	-0.034
-182.071	363.683	0.117	0.232
-181.056	496.205	0.071	0.162
-180.042	800.000	0.044	0.180
-179.027	261.551	0.150	-0.256
-178.012	43.388	-0.156	0.141
-176.998	225.746	-0.092	0.147
-175.983	501.989	0.050	0.113
-174.969	-129.154	0.246	0.034
-173.954	202.691	-0.224	0.341
-172.939	-1.264	-0.020	0.014
-171.925	-61.009	-0.145	0.060
-170.910	-0.404	-0.186	-0.130
-169.896	126.425	-0.073	0.091
-168.881	800.000	0.002	0.006
-167.866	-112.186	-0.170	-0.034
-166.852	241.522	-0.099	0.163
-165.837	254.510	0.111	-0.187
-164.823	-200.000	-0.026	0.232
-163.808	-200.000	0.020	-0.271
-162.793	800.000	-0.059	-0.216
-161.779	64.966	0.238	0.237
-160.764	-42.487	-0.360	0.181
-159.750	-75.331	-0.079	-0.028
-158.735	37.301	-0.265	-0.231
-157.720	800.000	0.083	0.279
-156.706	10.231	-0.182	-0.136
-155.691	96.121	0.241	-0.272
-154.677	-148.788	0.169	0.013
-153.662	-54.211	-0.219	0.098
-152.647	-200.000	0.002	-0.235
-151.633	-50.559	0.202	-0.094
-150.618	-52.515	0.272	0.124
-149.604	-200.000	0.001	0.012
-148.589	-36.685	-0.412	-0.218
-147.574	-155.577	0.320	0.020
-146.560	-88.494	0.194	-0.057
-145.545	-200.000	-0.028	0.302
-144.531	-200.000	-0.016	0.156
-143.516	-200.000	0.043	0.386
-142.502	800.000	0.036	0.098
-141.487	37.591	-0.160	-0.140
-140.472	33.611	0.161	-0.138
-139.458	-83.323	0.131	-0.041
-138.443	189.669	-0.105	-0.154
-137.429	-107.452	0.223	0.048
-136.414	189.508	0.083	-0.122
-135.399	800.000	0.048	0.168
-134.385	69.178	0.122	-0.123
-133.370	-110.584	-0.101	0.021
-132.356	68.437	0.107	0.108
-131.341	-17.014	0.027	-0.017
-130.326	-92.569	-0.214	-0.059
-129.312	-93.628	0.433	0.118
-128.297	-8.486	0.328	0.217
-127.283	800.000	0.025	0.100
-126.268	-150.626	-0.187	0.014
-125.253	-189.765	-0.309	-0.003
-124.239	759.897	0.043	0.116
-123.224	-5.802	0.324	-0.218
-122.210	389.844	-0.211	-0.430
-121.195	141.305	0.298	0.388
-120.180	-100.106	-0.170	-0.042
-119.166	-97.524	0.164	0.042
-118.151	303.559	-0.162	0.295
-117.137	78.848	-0.031	0.032
-116.122	-30.748	0.176	0.098
-115.107	-200.000	0.006	-0.110
-114.093	-61.278	0.285	-0.118
-113.078	-66.218	-0.085	-0.033
-112.064	277.940	-0.122	-0.214
-111.049	2.660	0.076	-0.054
-110.034	-88.068	-0.106	0.031
-109.020	49.448	-0.328	0.304
-108.005	240.138	-0.143	-0.234
-106.991	-200.000	0.013	0.285
-105.976	94.353	0.122	-0.136
-104.962	-21.321	0.359	0.215
-103.947	-55.002	0.192	0.085
-102.932	603.587	-0.142	-0.346
-101.918	-50.645	0.182	0.084
-100.903	398.365	0.160	0.329
-99.889	-200.000	0.006	-0.044
-98.874	-58.917	-0.141	0.060
-97.859	15.830	0.252	0.195
-96.845	800.000	0.059	-0.210
-95.830	-200.000	0.016	-0.245
-94.816	159.837	0.279	0.382
-93.801	124.826	-0.157	0.194
-92.786	178.386	0.218	0.313
-91.772	-9.886	0.174	-0.114
-90.757	-2.150	-0.249	0.172
-89.743	191.868	0.192	0.284
-88.728	-117.816	0.296	-0.052
-87.713	800.000	-0.044	0.141
-86.699	31.473	-0.114	0.096
-85.684	99.701	0.412	-0.469
-84.670	104.550	-0.219	-0.253
-83.655	-200.000	-0.032	-0.216
-82.640	-116.870	0.204	0.037
-81.626	490.565	-0.034	0.076
-80.611	88.172	0.088	0.095
-79.597	250.092	-0.144	0.240
-78.582	21.508	0.184	0.147
-77.567	800.000	0.060	-0.220
-76.553	-147.115	0.160	-0.013
-75.538	-97.827	-0.329	-0.083
-74.524	166.462	0.160	-0.223
-73.509	-200.000	-0.050	0.239
-72.494	-147.169	-0.185	0.016
-71.480	-200.000	-0.031	0.312
-70.465	-200.000	-0.005	0.137
-69.451	-200.000	-0.079	-0.380
-68.436	94.642	-0.257	0.287
-67.422	-110.329	0.223	-0.045
-66.407	584.628	-0.027	0.064
-65.392	68.119	-0.011	-0.011
-64.378	580.078	-0.097	0.234
-63.363	209.730	-0.078	-0.120
-62.349	-63.203	-0.113	0.046
-61.334	182.619	-0.735	-1.064
-60.319	-53.125	0.730	0.329
-59.305	701.553	-0.341	-0.881
-58.290	800.000	0.326	0.940
-57.276	590.506	0.566	1.369
-56.261	-200.000	106.155	613.212
-55.246	503.568	1509.537	3422.857
-54.232	174.641	2711.494	3845.290
-53.217	104.383	2302.113	2656.247
-52.203	38.636	1905.803	1666.595
-51.188	32.592	1691.323	1433.176
-50.173	30.112	1647.734	1377.774
-49.159	49.177	1701.527	1567.275
-48.144	49.377	1717.129	1583.092
-47.130	32.186	1674.632	1415.744
-46.115	29.542	1659.968	1383.516
-45.100	29.427	1654.908	1378.383
-44.086	29.286	1652.426	1375.207
-43.071	29.266	1649.464	1372.540
-42.057	29.192	1646.961	1369.852
-41.042	29.347	1645.119	1369.414
-40.027	29.305	1643.615	1367.799
-39.013	29.300	1641.388	1365.857
-37.998	29.225	1640.156	1364.223
-36.984	29.329	1638.499	1363.554
-35.969	29.335	1637.256	1362.511
-34.954	29.418	1635.302	1361.448
-33.940	29.397	1633.628	1359.840
-32.925	29.363	1631.526	1357.789
-31.911	29.383	1630.133	1356.724
-30.896	29.337	1628.205	1354.729
-29.881	29.418	1626.473	1353.829
-28.867	29.447	1625.038	1352.790
-27.852	29.391	1623.659	1351.175
-26.838	29.299	1622.676	1349.635
-25.823	29.533	1620.990	1349.889
-24.809	29.553	1619.453	1348.698
-23.794	29.429	1618.206	1346.700
-22.779	29.538	1616.764	1346.243
-21.765	29.448	1615.121	1344.167
-20.750	29.437	1613.052	1342.310
-19.736	29.385	1612.593	1341.501
-18.721	29.449	1611.016	1340.596
-17.706	29.464	1609.299	1339.225
-16.692	29.483	1607.040	1337.428
-15.677	29.390	1606.109	1335.932
-14.663	29.545	1605.014	1336.085
-13.648	29.547	1603.682	1334.939
-12.633	29.447	1602.323	1333.036
-11.619	29.441	1600.596	1331.503
-10.604	29.490	1598.877	1330.368
-9.590	29.464	1597.909	1329.324
-8.575	29.498	1596.564	1328.400
-7.560	29.480	1595.630	1327.438
-6.546	29.527	1594.514	1326.796
-5.531	29.394	1593.929	1325.303
-4.517	29.406	1592.349	1324.021
-3.502	29.540	1590.971	1323.785
-2.487	29.605	1589.443	1322.927
-1.473	29.177	1578.086	1310.377
-0.458	26.482	1559.000	1275.505
0.556	20.820	1560.240	1245.959
1.571	18.606	1585.074	1249.575
2.586	18.407	1598.099	1258.263
3.600	16.651	1546.113	1204.743
4.615	8.867	1435.936	1067.145
5.629	1.322	1372.685	971.886
6.644	-0.093	1364.084	956.705
7.659	-0.221	1363.008	955.047
8.673	-0.277	1362.141	954.005
9.688	-0.309	1360.486	952.557
10.702	-0.489	1357.384	949.161
11.717	3.151	1364.035	976.868
12.731	12.468	1382.314	1049.597
13.746	19.787	1394.677	1105.861
14.761	21.832	1397.177	1120.831
15.775	22.214	1397.174	1123.176
16.790	22.396	1395.974	1123.272
17.804	22.432	1395.304	1122.858
18.819	22.588	1395.417	1123.845
19.834	22.574	1395.268	1123.536
20.848	22.703	1393.811	1123.090
21.863	22.635	1393.322	1122.165
22.877	22.688	1392.383	1121.643
23.892	22.622	1392.097	1120.893
24.907	22.728	1390.612	1120.271
25.921	22.656	1389.790	1119.056
26.936	22.694	1388.748	1118.357
27.950	22.714	1387.744	1117.578
28.965	22.689	1386.361	1116.207
29.980	22.715	1385.310	1115.424
30.994	22.623	1384.470	1114.070
32.009	22.675	1383.277	1113.341
33.023	22.725	1381.983	1112.515
34.038	22.738	1380.986	1111.696
35.053	22.758	1380.390	1111.241
36.067	22.704	1379.120	1109.779
37.082	22.681	1378.490	1109.030
38.096	22.808	1377.297	1108.772
39.111	22.691	1376.633	1107.402
40.126	22.582	1376.034	1106.138
41.140	22.746	1374.942	1106.190
42.155	22.592	1375.212	1105.345
43.169	22.675	1375.081	1105.667
44.184	22.784	1374.610	1105.871
45.199	22.599	1374.890	1104.836
46.213	22.662	1373.904	1104.346
47.228	22.730	1372.544	1103.577
48.242	22.661	1371.285	1102.035
49.257	22.680	1370.447	1101.386
50.271	22.571	1368.998	1099.445
51.286	22.715	1367.648	1099.158
52.301	22.651	1366.337	1097.611
53.315	22.570	1365.675	1096.475
54.330	22.694	1364.789	1096.438
55.344	22.542	1363.805	1094.604
56.359	22.683	1362.243	1094.129
57.374	22.673	1361.708	1093.541
58.388	22.771	1360.755	1093.287
59.403	22.715	1360.604	1092.723
60.417	22.701	1360.161	1092.182
61.432	22.780	1358.798	1091.478
62.447	22.628	1358.298	1090.041
63.461	22.768	1357.317	1090.026
64.476	22.762	1355.784	1088.662
65.490	22.706	1354.839	1087.458
66.505	22.668	1353.461	1086.024
67.520	22.733	1352.175	1085.295
68.534	22.740	1351.148	1084.417
69.549	22.740	1349.953	1083.361
70.563	22.732	1349.499	1082.853
71.578	22.700	1348.917	1082.092
72.593	22.709	1347.842	1081.193
73.607	22.836	1346.795	1081.036
74.622	22.642	1346.500	1079.512
75.636	22.693	1345.523	1078.949
76.651	22.608	1345.068	1077.965
77.666	22.620	1344.616	1077.582
78.680	22.636	1344.093	1077.166
79.695	22.666	1343.309	1076.627
80.709	22.614	1342.297	1075.403
81.724	22.564	1342.053	1074.804
82.739	22.741	1340.271	1074.363
83.753	22.735	1339.336	1073.481
84.768	22.701	1338.539	1072.537
85.782	22.747	1337.437	1071.841
86.797	22.738	1336.319	1070.796
87.812	22.695	1334.938	1069.334
88.826	22.773	1333.704	1068.723
89.841	22.689	1332.996	1067.554
90.855	22.769	1331.973	1067.120
91.870	22.811	1331.110	1066.592
92.884	22.785	1330.168	1065.582
93.899	22.837	1329.172	1065.007
94.914	22.867	1328.600	1064.633
95.928	22.819	1327.803	1063.610
96.943	22.834	1327.005	1062.966
97.957	22.860	1326.645	1062.746
98.972	22.830	1325.563	1061.604
99.987	22.731	1324.923	1060.401
101.001	22.850	1323.832	1060.146
102.016	22.759	1323.118	1058.934
103.030	22.786	1322.111	1058.197
104.045	22.837	1321.296	1057.759
105.060	22.760	1320.308	1056.415
106.074	22.874	1318.835	1055.822
107.089	22.865	1317.607	1054.694
108.103	22.821	1317.107	1053.934
109.118	22.851	1315.855	1053.020
110.133	22.771	1315.112	1051.857
111.147	22.983	1313.131	1051.438
112.162	22.833	1312.523	1049.971
113.176	22.820	1311.680	1049.121
114.191	22.870	1310.857	1048.667
115.206	22.847	1309.596	1047.431
116.220	22.896	1308.463	1046.723
117.235	22.789	1307.645	1045.342
118.249	22.706	1307.113	1044.333
119.264	22.747	1306.266	1043.805
120.279	22.967	1304.678	1043.747
121.293	22.934	1304.098	1042.996
122.308	22.876	1303.647	1042.195
123.322	22.903	1302.624	1041.447
124.337	22.836	1301.582	1040.125
125.352	22.950	1300.888	1040.154
126.366	22.950	1300.145	1039.465
127.381	23.071	1298.587	1038.841
128.395	22.904	1297.771	1037.113
129.410	22.887	1297.557	1036.749
130.424	22.908	1296.519	1035.952
131.439	22.864	1295.644	1034.905
132.454	22.942	1294.754	1034.556
133.468	22.931	1293.962	1033.770
134.483	22.881	1293.746	1033.213
135.497	22.855	1292.948	1032.336
136.512	22.869	1291.830	1031.431
137.527	22.888	1290.710	1030.556
138.541	22.985	1288.761	1029.476
139.556	22.929	1288.045	1028.487
140.570	22.877	1286.953	1027.219
141.585	22.888	1286.121	1026.528
142.600	22.890	1284.691	1025.308
143.614	22.822	1284.350	1024.553
144.629	22.845	1282.995	1023.511
145.643	22.769	1282.378	1022.487
146.658	22.830	1280.617	1021.346
147.673	22.931	1279.646	1021.066
148.687	22.817	1279.189	1019.951
149.702	22.788	1278.134	1018.852
150.716	22.874	1276.644	1018.073
151.731	22.824	1275.633	1016.890
152.746	22.851	1274.547	1016.085
153.760	22.981	1273.558	1015.957
154.775	22.905	1272.538	1014.615
155.789	22.948	1271.517	1013.957
156.804	22.900	1270.620	1012.880
157.819	22.954	1270.057	1012.651
158.833	23.005	1269.554	1012.451
159.848	23.017	1268.422	1011.529
160.862	23.006	1267.944	1010.996
161.877	22.950	1266.955	1009.798
162.892	23.083	1265.959	1009.675
163.906	23.052	1265.451	1009.000
164.921	23.049	1264.465	1008.110
165.935	22.987	1264.038	1007.326
166.950	22.962	1263.684	1006.814
167.964	23.008	1262.509	1006.046
168.979	23.096	1262.222	1006.230
169.994	22.964	1261.829	1005.078
171.008	23.134	1260.685	1005.043
172.023	23.135	1260.024	1004.435
173.037	22.997	1259.503	1003.146
174.052	23.037	1258.702	1002.646
175.067	23.105	1257.970	1002.361
176.081	23.034	1256.927	1001.040
177.096	23.055	1256.456	1000.694
178.110	23.123	1255.121	999.924
179.125	23.044	1254.470	998.872
180.140	23.123	1253.276	998.281
181.154	23.117	1252.039	997.171
182.169	23.133	1250.838	996.216
183.183	23.123	1250.197	995.564
184.198	23.133	1248.990	994.569
185.213	23.231	1248.009	994.250
186.227	23.146	1247.322	993.138
187.242	23.056	1246.631	991.993
188.256	23.179	1245.358	991.583
189.271	23.242	1244.790	991.394
190.286	23.200	1244.198	990.604
191.300	23.058	1243.924	989.501
192.315	23.169	1243.069	989.356
193.329	23.012	1243.072	988.392
194.344	23.168	1242.231	988.508
195.359	23.104	1241.924	987.816
196.373	23.106	1241.152	987.126
197.388	23.038	1240.920	986.475
198.402	23.032	1240.907	986.344
199.417	23.158	1239.926	986.179
200.432	23.164	1238.707	985.156
201.446	23.121	1238.791	984.895
202.461	23.140	1237.689	984.041
203.475	23.134	1237.342	983.645
204.490	23.017	1236.151	981.960
205.504	23.105	1235.027	981.470
206.519	23.192	1234.235	981.237
207.534	23.209	1233.242	980.454
208.548	23.204	1232.488	979.739
209.563	23.168	1231.502	978.668
210.577	23.223	1230.556	978.136
211.592	23.177	1230.223	977.529
212.607	23.245	1229.151	976.968
213.621	23.310	1228.406	976.647
214.636	23.256	1227.540	975.573
215.650	23.262	1226.566	974.746
216.665	23.319	1225.351	974.011
217.680	23.214	1224.953	973.031
218.694	23.282	1224.341	972.831
219.709	23.265	1223.697	972.137
220.723	23.314	1222.483	971.358
221.738	23.181	1222.178	970.301
222.753	23.236	1221.454	969.941
223.767	23.202	1220.635	969.019
224.782	23.357	1220.572	969.728
225.796	23.317	1220.006	968.975
226.811	23.289	1219.091	968.009
227.826	23.363	1218.546	967.894
228.840	23.335	1218.136	967.333
229.855	23.393	1216.964	966.631
230.869	23.358	1216.493	965.980
231.884	23.378	1215.842	965.486
232.899	23.363	1215.011	964.663
233.913	23.388	1214.423	964.243
234.928	23.573	1213.507	964.436
235.942	23.374	1213.564	963.318
236.957	23.409	1212.767	962.787
237.972	23.384	1212.012	961.971
238.986	23.438	1211.297	961.610
240.001	23.421	1211.131	961.297
241.015	23.501	1209.867	960.646
242.030	23.698	1208.942	960.894
243.045	23.515	1208.112	959.155
244.059	23.501	1207.559	958.559
245.074	23.565	1206.804	958.217
246.088	23.559	1206.140	957.571
247.103	23.535	1205.397	956.772
248.117	23.591	1204.271	956.096
249.132	23.532	1203.413	955.009
250.147	23.516	1202.964	954.482
251.161	23.660	1202.141	954.520
252.176	23.679	1201.379	953.932
253.190	23.567	1201.106	953.029
254.205	23.543	1200.240	952.127
255.220	23.518	1200.207	951.883
256.234	23.585	1199.263	951.412
257.249	23.700	1198.198	951.100
258.263	23.696	1197.685	950.583
259.278	23.727	1197.319	950.378
260.293	23.617	1197.146	949.567
261.307	23.675	1196.609	949.366
262.322	23.589	1195.818	948.197
263.336	23.686	1194.909	947.910
264.351	23.715	1194.579	947.720
265.366	23.691	1193.711	946.816
266.380	23.610	1193.416	946.066
267.395	23.633	1192.115	945.075
268.409	23.664	1191.682	944.814
269.424	23.669	1190.994	944.213
270.439	23.728	1190.909	944.373
271.453	23.669	1190.102	943.335
272.468	23.660	1189.168	942.467
273.482	23.653	1188.750	942.013
274.497	23.750	1188.270	942.063
275.512	23.853	1187.240	941.709
276.526	23.724	1186.825	940.613
277.541	23.896	1185.681	940.534
278.555	23.828	1185.284	939.777
279.570	23.755	1184.982	939.068
280.585	23.859	1184.053	938.795
281.599	23.757	1183.285	937.566
282.614	23.764	1182.367	936.794
283.628	23.770	1181.360	935.945
284.643	23.815	1180.410	935.346
285.657	23.868	1179.668	934.954
286.672	23.985	1179.053	935.000
287.687	23.920	1178.001	933.739
288.701	23.908	1177.592	933.269
289.716	23.987	1176.562	932.787
290.730	23.956	1175.967	932.069
291.745	23.926	1175.630	931.563
292.760	23.848	1174.875	930.472
293.774	23.915	1174.446	930.405
294.789	23.940	1174.242	930.287
295.803	23.988	1173.273	929.691
296.818	23.941	1172.621	928.848
297.833	24.029	1171.900	928.652
298.847	24.026	1171.416	928.173
299.862	23.892	1170.845	926.936
300.876	23.961	1169.819	926.400
301.891	23.974	1169.373	926.034
302.906	24.129	1168.551	926.106
303.920	23.955	1168.382	924.987
304.935	24.004	1167.470	924.437
305.949	24.065	1166.443	923.859
306.964	23.993	1166.308	923.299
307.979	24.141	1165.513	923.353
308.993	24.121	1165.105	922.846
310.008	24.036	1164.019	921.464
311.022	24.019	1163.311	920.732
312.037	24.078	1162.496	920.312
313.052	24.061	1161.693	919.505
314.066	23.941	1161.157	918.383
315.081	24.088	1160.301	918.380
316.095	24.158	1159.328	917.890
317.110	24.114	1158.997	917.320
318.125	24.224	1158.242	917.207
319.139	24.101	1157.678	916.049
320.154	24.263	1156.722	916.041
321.168	24.165	1156.554	915.327
322.183	24.118	1155.636	914.277
323.197	24.148	1155.120	913.944
324.212	24.099	1154.897	913.433
325.227	24.132	1154.666	913.338
326.241	24.307	1153.575	913.289
327.256	24.291	1152.891	912.589
328.270	24.198	1151.955	911.289
329.285	24.309	1150.910	910.951
330.300	24.392	1150.048	910.612
331.314	24.296	1149.334	909.476
332.329	24.312	1148.805	909.059
333.343	24.313	1148.245	908.536
334.358	24.403	1147.196	908.087
335.373	24.330	1146.896	907.400
336.387	24.437	1145.697	906.912
337.402	24.434	1145.077	906.326
338.416	24.314	1144.896	905.493
339.431	24.455	1143.785	905.250
340.446	24.404	1143.439	904.635
341.460	24.355	1143.117	904.054
342.475	24.511	1141.737	903.670
343.489	24.369	1140.866	902.183
344.504	24.400	1140.321	901.830
345.519	24.541	1138.939	901.368
346.533	24.557	1138.386	900.931
347.548	24.491	1137.902	900.135
348.562	24.483	1137.491	899.691
349.577	24.378	1136.401	898.219
350.592	24.490	1135.524	898.013
351.606	24.413	1134.613	896.824
352.621	24.440	1134.417	896.727
353.635	24.532	1133.768	896.595
354.650	24.495	1133.279	895.947
355.665	24.504	1132.571	895.350
356.679	24.637	1131.977	895.467
357.694	24.629	1130.995	894.573
358.708	24.620	1130.581	894.119
359.723	24.534	1130.127	893.254
360.738	24.639	1129.280	893.029
361.752	24.669	1128.691	892.632
362.767	24.670	1128.294	892.246
363.781	24.691	1127.686	891.792
364.796	24.640	1127.361	891.198
365.810	24.630	1126.766	890.602
366.825	24.784	1125.520	890.306
367.840	24.806	1125.594	890.393
368.854	24.676	1125.344	889.468
369.869	24.717	1124.418	888.864
370.883	24.769	1123.114	888.013
371.898	24.761	1122.647	887.524
372.913	24.704	1122.155	886.774
373.927	24.802	1121.675	886.803
374.942	24.785	1121.075	886.165
375.956	24.824	1120.860	886.110
376.971	24.803	1120.198	885.404
377.986	24.811	1119.539	884.844
379.000	24.888	1119.163	884.848
380.015	24.894	1118.701	884.435
381.029	24.821	1117.845	883.319
382.044	24.868	1116.983	882.793
383.059	24.947	1116.447	882.682
384.073	24.873	1115.728	881.671
385.088	24.959	1114.742	881.235
386.102	24.945	1114.245	880.694
387.117	24.855	1113.052	879.231
388.132	24.953	1112.228	878.984
389.146	24.860	1111.998	878.270
390.161	25.007	1111.062	878.173
391.175	25.125	1110.223	878.012
392.190	24.997	1110.199	877.288
393.205	24.878	1109.445	876.029
394.219	24.854	1108.961	875.454
395.234	25.055	1107.691	875.358
396.248	25.079	1106.541	874.485
397.263	25.123	1106.047	874.233
398.278	25.181	1105.291	873.842
399.292	25.130	1104.516	872.905
400.307	25.142	1103.806	872.325
401.321	25.157	1103.171	871.818
402.336	25.046	1103.109	871.153
403.350	25.174	1102.297	871.054
404.365	25.085	1101.385	869.822
405.380	25.206	1101.111	870.116
406.394	25.218	1099.918	869.156
407.409	25.228	1099.569	868.851
408.423	25.323	1098.630	868.493
409.438	25.309	1097.811	867.702
410.453	25.319	1097.178	867.174
411.467	25.246	1096.393	866.121
412.482	25.225	1095.957	865.601
413.496	25.283	1095.089	865.120
414.511	25.413	1094.259	865.013
415.526	25.382	1094.250	864.778
416.540	25.292	1093.835	863.939
417.555	25.346	1093.034	863.492
418.569	25.372	1092.460	863.087
419.584	25.256	1092.234	862.274
420.599	25.292	1092.393	862.496
421.613	147.844	1404.264	1798.842
422.628	136.833	1449.647	1798.956
