DTS Sentinel unit serial number:	SN413079Multiplexer serial number:	ORYXHardware model number:	OX4-SRSoftware version number:	ORYX F/W v4.00 Oryx Data Collector v3.7.2.0data status	okinstallation	princeton_trtdifferential loss correction	single-endedforward channel	channel 2reverse channel	N/Adate	2019/09/11time	12:49:11forward acquisition time	60.00reverse acquisition time	0.00gamma	496.2192k internal	0.2294k external	0.2294temperature offset calibration	0.9962default loss term (dB/km)	0.3790temperature slope calibration	1.0000multiplexer offset coefficient	1.0000multiplexer slope coefficient	1.0000fibre end	0.00T internal ref (°C)	41.17T ext. ref 1 (°C)	0.21T ext. ref 2 (°C)	38.57length (m)	temperature (°C)	Stokes	anti-Stokes-747.200	-200.000	-0.008	0.061
-746.185	245.670	0.175	0.301
-745.171	24.800	0.174	-0.147
-744.156	-44.820	-0.104	-0.053
-743.142	473.837	-0.046	0.107
-742.127	-200.000	0.053	0.399
-741.112	632.978	0.132	0.343
-740.098	-200.000	-0.035	0.428
-739.083	-82.084	-0.290	-0.097
-738.069	-129.810	-0.296	0.042
-737.054	115.944	-0.358	0.448
-736.039	-62.924	-0.222	0.094
-735.025	765.902	0.042	0.117
-734.010	-200.000	0.009	0.465
-732.996	21.103	0.225	-0.187
-731.981	-40.375	-0.189	0.100
-730.966	68.046	0.058	0.061
-729.952	-44.179	0.214	0.110
-728.937	302.213	0.092	-0.174
-727.923	52.749	0.186	-0.181
-726.908	-172.447	-0.116	0.004
-725.894	-200.000	0.077	0.401
-724.879	-200.000	-0.006	0.094
-723.864	77.174	-0.225	-0.245
-722.850	-46.586	0.147	-0.073
-721.835	-200.000	0.060	0.278
-720.821	800.000	-0.087	0.268
-719.806	-41.668	0.296	-0.155
-718.791	211.562	-0.152	0.244
-717.777	144.112	0.094	-0.128
-716.762	800.000	-0.089	0.268
-715.748	6.207	-0.124	0.094
-714.733	-43.931	0.342	0.176
-713.718	-115.500	-0.345	-0.066
-712.704	800.000	-0.047	-0.188
-711.689	530.412	0.106	0.256
-710.675	-134.286	-0.254	0.032
-709.660	-81.550	-0.180	0.060
-708.645	-200.000	0.010	-0.125
-707.631	800.000	0.063	0.279
-706.616	706.139	-0.059	0.158
-705.602	358.634	0.052	0.106
-704.587	-68.531	0.223	-0.088
-703.572	-67.901	0.336	-0.134
-702.558	268.191	0.160	-0.286
-701.543	-95.467	-0.207	-0.057
-700.529	-185.395	-0.069	0.001
-699.514	-200.000	0.053	0.290
-698.499	147.485	0.086	0.118
-697.485	-93.813	-0.057	0.016
-696.470	-200.000	-0.063	-0.428
-695.456	97.089	0.214	0.251
-694.441	437.388	0.055	0.123
-693.426	266.357	-0.061	-0.108
-692.412	131.578	-0.096	0.126
-691.397	-200.000	-0.025	-0.348
-690.383	-11.040	-0.385	-0.259
-689.368	-200.000	0.009	0.381
-688.354	-131.999	0.142	-0.019
-687.339	87.827	-0.137	-0.155
-686.324	-72.727	-0.141	-0.053
-685.310	-8.734	-0.155	0.106
-684.295	-23.221	0.297	-0.182
-683.281	-200.000	-0.006	-0.325
-682.266	341.735	-0.101	-0.201
-681.251	-200.000	0.014	-0.236
-680.237	219.028	-0.046	-0.075
-679.222	195.435	0.083	-0.129
-678.208	-122.904	0.278	0.046
-677.193	-26.228	0.153	-0.092
-676.178	216.815	-0.101	-0.163
-675.164	-10.326	-0.140	0.095
-674.149	-200.000	-0.006	0.226
-673.135	800.000	-0.037	-0.165
-672.120	48.005	-0.088	-0.084
-671.105	86.518	0.094	-0.106
-670.091	-152.425	-0.471	-0.034
-669.076	-28.850	-0.199	-0.116
-668.062	60.098	-0.106	0.107
-667.047	335.469	-0.033	0.065
-666.032	-150.007	-0.170	0.014
-665.018	60.018	-0.038	0.039
-664.003	82.016	-0.286	-0.316
-662.989	10.898	-0.145	0.113
-661.974	-40.384	0.439	-0.233
-660.959	-155.749	-0.141	-0.009
-659.945	34.182	0.072	0.064
-658.930	167.071	0.118	-0.171
-657.916	92.306	0.249	-0.286
-656.901	132.758	0.135	-0.178
-655.886	-200.000	0.003	0.087
-654.872	800.000	-0.038	0.144
-653.857	-106.223	0.203	0.046
-652.843	-21.579	-0.099	0.062
-651.828	-80.218	-0.079	0.027
-650.814	-186.138	0.348	0.005
-649.799	346.683	-0.090	0.180
-648.784	-200.000	-0.002	0.061
-647.770	-9.119	-0.105	-0.071
-646.755	21.411	-0.140	-0.116
-645.741	-200.000	-0.011	0.197
-644.726	-113.787	-0.356	-0.071
-643.711	-58.269	0.210	0.093
-642.697	57.332	0.106	0.105
-641.682	800.000	-0.053	-0.183
-640.668	703.567	0.038	0.102
-639.653	-111.736	0.109	0.023
-638.638	800.000	-0.087	0.317
-637.624	-55.237	-0.165	0.075
-636.609	16.698	0.200	0.161
-635.595	45.849	-0.280	-0.264
-634.580	-14.891	0.206	-0.134
-633.565	278.166	-0.133	-0.241
-632.551	-108.095	-0.175	-0.039
-631.536	572.924	-0.069	-0.171
-630.522	-82.281	-0.233	-0.077
-629.507	128.541	0.199	-0.258
-628.492	-80.500	-0.241	0.082
-627.478	-115.974	-0.152	-0.029
-626.463	-200.000	-0.048	0.390
-625.449	-200.000	-0.030	-0.460
-624.434	800.000	-0.191	-0.553
-623.419	-93.778	0.095	0.027
-622.405	-27.719	0.072	0.043
-621.390	67.342	-0.188	0.195
-620.376	-200.000	-0.023	0.115
-619.361	-200.000	0.020	-0.266
-618.346	-200.000	0.020	-0.157
-617.332	-119.660	0.243	0.043
-616.317	-100.730	0.274	0.069
-615.303	210.170	0.163	0.260
-614.288	47.546	-0.223	0.212
-613.273	33.600	0.301	0.266
-612.259	63.533	-0.189	0.193
-611.244	800.000	0.073	-0.224
-610.230	-200.000	-0.019	0.357
-609.215	-139.137	0.263	-0.029
-608.201	-200.000	-0.028	0.383
-607.186	113.411	-0.146	0.180
-606.171	99.108	0.091	-0.106
-605.157	-200.000	0.003	0.159
-604.142	101.163	0.054	-0.064
-603.128	55.628	-0.264	0.260
-602.113	-112.025	-0.213	-0.044
-601.098	55.897	0.062	-0.061
-600.084	225.610	-0.027	-0.044
-599.069	626.314	-0.045	0.116
-598.055	-200.000	-0.002	0.050
-597.040	17.042	0.329	0.265
-596.025	487.928	0.019	-0.043
-595.011	-200.000	-0.081	-0.368
-593.996	-200.000	-0.020	0.111
-592.982	-119.971	-0.038	0.007
-591.967	800.000	0.063	-0.225
-590.952	115.493	-0.084	0.104
-589.938	-200.000	0.018	0.122
-588.923	-110.542	-0.133	-0.028
-587.909	-200.000	0.018	0.084
-586.894	6.044	-0.196	0.148
-585.879	603.034	-0.066	0.166
-584.865	165.469	0.048	-0.068
-583.850	-86.918	0.366	0.113
-582.836	-130.960	-0.105	-0.014
-581.821	170.310	0.105	0.153
-580.806	497.853	0.029	-0.068
-579.792	338.964	-0.030	0.059
-578.777	39.420	0.211	-0.192
-577.763	83.411	-0.192	-0.213
-576.748	109.802	0.305	0.371
-575.733	55.977	0.248	-0.245
-574.719	-86.730	-0.072	0.022
-573.704	-108.128	-0.315	-0.069
-572.690	800.000	-0.035	0.128
-571.675	-54.726	-0.143	0.066
-570.661	316.926	-0.090	-0.172
-569.646	66.557	0.091	-0.094
-568.631	125.974	-0.091	0.117
-567.617	209.521	-0.045	-0.072
-566.602	800.000	-0.116	-0.399
-565.588	220.895	0.132	-0.216
-564.573	-78.087	0.492	0.172
-563.558	-200.000	0.002	-0.096
-562.544	3.693	0.114	-0.084
-561.529	558.469	0.082	-0.202
-560.515	-43.549	-0.117	-0.060
-559.500	-200.000	0.022	-0.135
-558.485	800.000	-0.086	-0.327
-557.471	522.247	0.071	0.169
-556.456	68.550	-0.151	-0.157
-555.442	800.000	0.072	0.206
-554.427	0.929	0.242	-0.176
-553.412	281.711	-0.030	-0.054
-552.398	-78.031	-0.337	-0.118
-551.383	-200.000	-0.005	-0.248
-550.369	452.585	-0.074	0.166
-549.354	-43.335	-0.206	0.106
-548.339	-57.253	0.176	-0.079
-547.325	122.129	0.272	-0.344
-546.310	567.157	-0.089	0.219
-545.296	-91.295	-0.130	0.038
-544.281	-170.798	0.292	-0.010
-543.266	246.984	-0.057	-0.097
-542.252	-90.890	-0.226	-0.066
-541.237	-10.550	0.049	-0.033
-540.223	-78.372	-0.015	-0.005
-539.208	800.000	0.102	-0.418
-538.193	461.496	-0.101	0.228
-537.179	33.087	-0.106	-0.093
-536.164	-200.000	0.029	0.245
-535.150	64.567	0.125	-0.128
-534.135	-88.407	0.215	0.065
-533.121	-77.417	0.050	-0.018
-532.106	202.126	-0.202	-0.315
-531.091	-70.602	0.085	0.032
-530.077	-73.003	0.220	-0.082
-529.062	34.938	0.091	0.081
-528.048	-3.032	-0.231	0.164
-527.033	-127.642	0.385	-0.056
-526.018	-22.950	-0.195	-0.119
-525.004	-138.280	0.362	0.041
-523.989	25.793	0.022	0.019
-522.975	-76.150	0.234	-0.084
-521.960	-181.339	-0.280	-0.006
-520.945	-7.581	0.193	-0.132
-519.931	645.548	0.075	0.195
-518.916	-144.886	-0.208	0.019
-517.902	-200.000	0.003	0.243
-516.887	73.790	0.277	-0.294
-515.872	-147.243	0.125	-0.011
-514.858	121.646	0.150	0.189
-513.843	261.802	-0.171	0.300
-512.829	-200.000	0.019	-0.419
-511.814	155.887	0.132	-0.184
-510.799	800.000	-0.081	0.357
-509.785	225.013	0.319	0.523
-508.770	-56.281	0.121	-0.055
-507.756	-87.605	-0.325	0.099
-506.741	409.271	-0.045	0.096
-505.726	112.731	0.385	-0.472
-504.712	88.571	0.102	-0.115
-503.697	-124.541	-0.085	0.013
-502.683	358.373	-0.178	0.360
-501.668	800.000	0.114	0.351
-500.653	-54.363	-0.304	-0.139
-499.639	39.638	-0.113	-0.103
-498.624	-154.707	0.291	-0.020
-497.610	-88.815	0.167	-0.050
-496.595	-107.250	0.238	-0.053
-495.581	29.538	0.205	0.177
-494.566	277.428	0.037	0.066
-493.551	283.951	-0.132	0.241
-492.537	-86.078	0.170	-0.053
-491.522	6.598	-0.200	-0.150
-490.508	800.000	0.044	-0.177
-489.493	-33.891	-0.258	0.144
-488.478	800.000	0.115	0.483
-487.464	-90.599	-0.179	-0.052
-486.449	425.911	0.098	0.214
-485.435	78.593	-0.176	0.190
-484.420	125.986	0.162	-0.208
-483.405	-200.000	-0.020	0.417
-482.391	325.057	0.159	-0.309
-481.376	800.000	-0.013	0.041
-480.362	-200.000	0.053	-0.297
-479.347	766.448	-0.068	0.187
-478.332	800.000	0.071	-0.230
-477.318	-112.519	-0.151	0.031
-476.303	-200.000	0.043	-0.486
-475.289	-103.439	-0.211	-0.050
-474.274	295.427	0.141	-0.261
-473.259	-119.322	0.116	0.021
-472.245	-78.126	0.164	-0.057
-471.230	-22.507	0.158	-0.097
-470.216	-67.305	-0.104	0.041
-469.201	800.000	-0.140	-0.440
-468.186	-122.455	-0.275	0.045
-467.172	-200.000	0.023	0.297
-466.157	-200.000	-0.015	0.116
-465.143	800.000	0.125	0.517
-464.128	-37.950	-0.221	0.119
-463.113	-200.000	-0.002	-0.215
-462.099	104.196	-0.229	-0.272
-461.084	-151.856	-0.307	-0.023
-460.070	99.077	-0.104	0.121
-459.055	-200.000	0.022	-0.330
-458.040	326.795	-0.065	-0.125
-457.026	-200.000	-0.021	-0.229
-456.011	-164.705	-0.282	0.013
-454.997	-142.595	0.317	-0.031
-453.982	9.931	0.244	-0.187
-452.968	-69.115	-0.391	0.152
-451.953	26.414	-0.254	0.215
-450.938	800.000	0.076	0.231
-449.924	131.618	-0.205	-0.267
-448.909	62.916	0.287	0.291
-447.895	-163.919	-0.157	0.007
-446.880	189.629	-0.058	-0.088
-445.865	-152.975	-0.193	0.014
-444.851	-174.383	0.146	-0.004
-443.836	74.548	-0.278	0.295
-442.822	800.000	0.163	-0.459
-441.807	-150.078	0.381	0.030
-440.792	-64.118	0.252	0.104
-439.778	-200.000	0.005	0.088
-438.763	-200.000	0.004	0.041
-437.749	344.366	0.083	-0.165
-436.734	-85.055	-0.152	-0.048
-435.719	451.106	-0.091	0.204
-434.705	-48.288	0.099	-0.048
-433.690	-46.125	-0.187	0.093
-432.676	-110.514	0.054	-0.011
-431.661	-4.943	0.175	0.122
-430.646	46.659	-0.345	0.324
-429.632	155.644	-0.077	-0.107
-428.617	800.000	0.126	-0.370
-427.603	332.212	-0.104	0.203
-426.588	-117.273	0.199	-0.036
-425.573	31.370	-0.107	-0.093
-424.559	136.190	-0.195	-0.257
-423.544	3.531	0.341	0.251
-422.530	32.500	0.183	0.160
-421.515	-64.470	-0.299	0.123
-420.500	800.000	0.071	0.237
-419.486	258.450	0.151	0.262
-418.471	-8.115	-0.147	0.100
-417.457	-200.000	-0.021	0.255
-416.442	800.000	-0.116	0.367
-415.428	-200.000	0.002	-0.066
-414.413	118.225	-0.100	-0.124
-413.398	-200.000	0.019	0.143
-412.384	56.199	-0.343	0.337
-411.369	-71.534	-0.364	-0.137
-410.355	-200.000	0.004	0.131
-409.340	99.484	0.133	0.156
-408.325	292.517	0.041	-0.075
-407.311	-200.000	0.003	0.064
-406.296	-200.000	0.003	0.320
-405.282	-51.604	-0.278	0.131
-404.267	536.721	0.099	-0.238
-403.252	-65.451	-0.074	0.030
-402.238	257.025	-0.109	0.189
-401.223	108.958	-0.026	-0.031
-400.209	-71.652	-0.208	-0.078
-399.194	-87.180	0.265	0.081
-398.179	374.854	0.092	0.190
-397.165	28.770	-0.026	-0.022
-396.150	-59.472	0.220	-0.096
-395.136	86.886	0.134	-0.149
-394.121	-39.670	0.172	0.091
-393.106	-200.000	0.005	-0.159
-392.092	-200.000	0.002	0.409
-391.077	800.000	-0.125	0.376
-390.063	-115.150	-0.189	-0.036
-389.048	392.356	-0.167	-0.350
-388.033	481.729	0.114	0.260
-387.019	-160.243	-0.446	0.024
-386.004	-131.521	0.073	0.010
-384.990	800.000	0.061	0.226
-383.975	-105.203	-0.123	-0.028
-382.960	800.000	-0.153	0.475
-381.946	-127.994	0.139	-0.020
-380.931	-200.000	0.006	-0.129
-379.917	121.152	0.176	-0.221
-378.902	-117.186	0.329	0.060
-377.888	86.022	-0.159	0.177
-376.873	14.655	0.255	-0.201
-375.858	-200.000	0.071	-0.380
-374.844	14.847	0.276	-0.218
-373.829	800.000	-0.127	-0.462
-372.815	-134.099	-0.229	-0.028
-371.800	800.000	0.052	-0.218
-370.785	-55.080	-0.202	-0.092
-369.771	456.271	0.063	0.141
-368.756	800.000	0.013	-0.053
-367.742	-150.461	0.129	0.010
-366.727	-7.155	-0.280	0.191
-365.712	-91.139	-0.217	0.063
-364.698	436.935	-0.029	0.063
-363.683	77.348	0.242	0.259
-362.669	137.775	-0.146	0.193
-361.654	800.000	-0.056	0.161
-360.639	-38.969	-0.351	-0.186
-359.625	337.230	-0.097	-0.191
-358.610	-160.085	0.092	0.005
-357.596	263.481	0.151	-0.265
-356.581	146.948	0.205	-0.277
-355.566	-7.521	-0.072	-0.049
-354.552	-64.003	-0.061	0.025
-353.537	30.699	0.158	0.136
-352.523	24.229	-0.104	-0.087
-351.508	39.834	-0.175	0.158
-350.493	138.608	-0.175	-0.232
-349.479	231.919	-0.078	0.129
-348.464	437.607	0.101	0.222
-347.450	-12.419	0.250	0.164
-346.435	-150.303	0.242	-0.019
-345.420	800.000	0.157	-0.472
-344.406	208.253	-0.050	-0.079
-343.391	-200.000	0.062	0.293
-342.377	-78.318	0.036	0.013
-341.362	562.296	-0.073	0.178
-340.348	-161.599	0.230	-0.012
-339.333	-200.000	0.091	-0.436
-338.318	-0.786	0.074	-0.053
-337.304	337.672	0.053	0.105
-336.289	113.493	0.112	-0.137
-335.275	153.735	0.048	0.066
-334.260	36.399	0.129	0.115
-333.245	109.038	-0.090	-0.109
-332.231	-200.000	-0.025	0.277
-331.216	635.668	-0.037	0.096
-330.202	-153.311	-0.123	-0.009
-329.187	-14.539	0.195	0.126
-328.172	800.000	0.053	-0.188
-327.158	-106.513	0.108	-0.024
-326.143	18.715	-0.032	0.026
-325.129	-21.348	-0.294	-0.181
-324.114	800.000	0.026	-0.080
-323.099	800.000	-0.065	-0.246
-322.085	-53.384	-0.319	0.147
-321.070	-16.682	0.293	-0.186
-320.056	457.130	0.050	0.112
-319.041	17.475	-0.155	-0.124
-318.026	222.174	0.159	-0.258
-317.012	-9.700	-0.169	0.113
-315.997	23.549	-0.119	-0.099
-314.983	24.084	-0.128	0.106
-313.968	-86.749	-0.146	0.045
-312.953	-200.000	0.070	-0.398
-311.939	69.980	0.083	-0.086
-310.924	-107.633	0.243	0.053
-309.910	310.283	0.162	-0.305
-308.895	-25.841	0.044	0.026
-307.880	348.388	-0.103	-0.205
-306.866	-79.292	0.363	-0.124
-305.851	210.289	0.151	0.238
-304.837	-154.646	-0.229	0.015
-303.822	-69.747	-0.167	-0.064
-302.807	51.749	-0.292	-0.279
-301.793	-127.476	0.046	0.007
-300.778	-26.274	0.284	-0.167
-299.764	154.406	0.135	-0.187
-298.749	-85.381	0.137	0.043
-297.735	-33.752	-0.163	-0.090
-296.720	605.049	-0.002	-0.005
-295.705	181.420	-0.227	0.335
-294.691	166.060	0.156	-0.222
-293.676	449.289	0.055	0.122
-292.662	-134.345	-0.181	0.022
-291.647	200.011	0.093	-0.143
-290.632	-200.000	0.025	0.243
-289.618	587.134	0.045	-0.112
-288.603	-89.083	-0.196	0.058
-287.589	737.607	0.069	-0.186
-286.574	-200.000	-0.051	-0.266
-285.559	800.000	-0.083	-0.249
-284.545	338.634	-0.164	0.321
-283.530	332.041	0.118	-0.228
-282.516	-89.668	-0.289	-0.085
-281.501	317.608	-0.076	0.144
-280.486	-77.839	0.281	-0.097
-279.472	89.304	-0.024	-0.026
-278.457	19.940	0.078	-0.063
-277.443	-31.627	0.115	0.065
-276.428	229.008	0.168	-0.275
-275.413	91.686	0.098	-0.110
-274.399	277.615	-0.033	-0.059
-273.384	2.542	0.145	0.106
-272.370	800.000	0.037	-0.132
-271.355	-19.872	-0.126	-0.078
-270.340	8.275	-0.074	-0.056
-269.326	800.000	0.095	0.305
-268.311	-73.108	-0.212	-0.078
-267.297	47.602	-0.172	0.161
-266.282	442.947	-0.036	0.080
-265.267	800.000	-0.205	0.614
-264.253	-200.000	-0.060	0.294
-263.238	297.360	0.148	-0.273
-262.224	-119.368	0.119	-0.021
-261.209	-127.696	0.190	0.028
-260.195	161.003	0.235	-0.330
-259.180	397.098	-0.098	-0.205
-258.165	132.219	0.070	0.090
-257.151	437.456	-0.063	0.138
-256.136	-124.153	0.391	0.062
-255.122	445.004	-0.134	0.294
-254.107	-112.971	0.038	-0.008
-253.092	6.208	0.169	0.125
-252.078	365.283	0.093	-0.189
-251.063	-167.993	-0.106	0.004
-250.049	-129.118	0.077	-0.011
-249.034	-200.000	0.006	0.166
-248.019	-200.000	0.073	-0.325
-247.005	-63.078	0.124	0.051
-245.990	26.188	-0.235	0.197
-244.976	-118.286	-0.217	0.039
-243.961	-86.308	-0.242	0.075
-242.946	-200.000	0.063	0.281
-241.932	-7.218	0.246	0.168
-240.917	-97.861	-0.192	-0.050
-239.903	-200.000	0.044	0.275
-238.888	26.568	-0.263	-0.221
-237.873	-140.909	-0.239	0.025
-236.859	196.090	0.147	-0.224
-235.844	-113.797	-0.351	-0.068
-234.830	66.996	-0.062	-0.064
-233.815	-59.482	0.170	-0.073
-232.800	-139.601	0.026	-0.003
-231.786	46.328	-0.170	-0.158
-230.771	290.476	-0.200	-0.364
-229.757	-200.000	0.015	0.209
-228.742	-101.583	-0.310	0.075
-227.727	392.619	-0.212	-0.442
-226.713	209.634	-0.145	0.227
-225.698	234.232	-0.108	0.178
-224.684	-40.212	0.219	0.114
-223.669	-54.718	-0.283	0.128
-222.655	517.474	0.103	0.242
-221.640	-200.000	0.013	0.150
-220.625	163.642	-0.020	0.028
-219.611	171.336	0.160	-0.230
-218.596	583.268	0.045	0.111
-217.582	187.360	0.098	0.147
-216.567	111.131	0.032	0.038
-215.552	-200.000	0.011	0.107
-214.538	-200.000	-0.010	-0.350
-213.523	261.478	-0.153	0.266
-212.509	55.657	-0.276	0.268
-211.494	800.000	0.097	0.418
-210.479	197.485	-0.071	0.108
-209.465	-152.989	-0.169	0.012
-208.450	65.220	0.273	0.276
-207.436	-18.651	0.104	0.065
-206.421	174.694	0.139	-0.201
-205.406	-126.409	0.180	-0.027
-204.392	-200.000	-0.035	-0.482
-203.377	-200.000	-0.008	-0.231
-202.363	45.661	-0.234	0.216
-201.348	-47.249	0.127	-0.062
-200.333	26.816	0.085	0.071
-199.319	-200.000	-0.031	-0.234
-198.304	-200.000	0.050	0.234
-197.290	524.362	-0.139	-0.328
-196.275	192.143	0.031	0.047
-195.260	-19.145	-0.050	0.031
-194.246	-134.987	0.108	0.013
-193.231	64.300	0.270	-0.272
-192.217	548.967	-0.139	-0.334
-191.202	187.441	-0.036	0.054
-190.187	132.165	-0.109	0.140
-189.173	125.645	-0.058	0.073
-188.158	-71.285	0.209	-0.078
-187.144	-103.362	-0.258	0.061
-186.129	63.823	0.137	-0.138
-185.114	-119.653	0.113	-0.020
-184.100	-200.000	0.001	-0.198
-183.085	-111.482	-0.106	0.022
-182.071	411.420	0.117	-0.248
-181.056	36.722	-0.153	-0.135
-180.042	292.968	0.104	-0.189
-179.027	250.700	0.179	-0.305
-178.012	57.151	-0.025	-0.024
-176.998	13.407	0.212	0.165
-175.983	-87.636	-0.145	-0.044
-174.969	71.747	0.035	-0.036
-173.954	785.820	0.101	0.276
-172.939	49.194	-0.238	0.224
-171.925	25.697	0.136	0.114
-170.910	-171.261	0.129	0.004
-169.896	-73.679	0.220	0.080
-168.881	449.730	0.123	-0.270
-167.866	-36.530	0.267	-0.144
-166.852	28.338	0.026	-0.022
-165.837	-108.667	-0.238	-0.051
-164.823	800.000	0.119	0.410
-163.808	-200.000	0.010	-0.152
-162.793	-21.471	-0.170	0.104
-161.779	-200.000	0.020	0.231
-160.764	340.823	-0.111	0.217
-159.750	-35.720	-0.266	-0.144
-158.735	8.489	0.261	-0.196
-157.720	30.390	0.181	0.154
-156.706	474.250	0.082	0.185
-155.691	-105.465	0.086	-0.019
-154.677	572.438	-0.232	-0.564
-153.662	5.288	0.287	0.212
-152.647	-200.000	0.026	-0.142
-151.633	-200.000	-0.028	0.441
-150.618	-113.714	0.101	0.020
-149.604	-59.556	0.134	0.058
-148.589	-98.814	-0.151	-0.038
-147.574	-200.000	0.038	-0.275
-146.560	4.686	0.257	-0.189
-145.545	-92.037	-0.330	-0.093
-144.531	-73.392	0.076	-0.028
-143.516	-57.514	0.346	-0.152
-142.502	-120.159	-0.334	0.057
-141.487	-16.627	0.062	0.039
-140.472	-159.688	0.186	0.010
-139.458	800.000	-0.063	-0.275
-138.443	-83.300	-0.193	-0.062
-137.429	-1.134	0.123	0.087
-136.414	-63.386	-0.156	-0.064
-135.399	27.599	-0.295	0.248
-134.385	397.967	0.036	0.075
-133.370	-105.095	-0.305	-0.070
-132.356	690.921	-0.063	-0.165
-131.341	-117.730	0.198	0.036
-130.326	124.484	0.092	-0.116
-129.312	-117.332	0.058	0.011
-128.297	-9.756	-0.201	-0.134
-127.283	127.567	-0.115	-0.146
-126.268	-200.000	0.088	0.398
-125.253	632.301	-0.129	-0.327
-124.239	-200.000	0.008	0.311
-123.224	-27.491	0.309	0.179
-122.210	-124.721	-0.314	0.049
-121.195	215.175	-0.144	0.229
-120.180	800.000	0.112	-0.354
-119.166	10.730	0.217	0.166
-118.151	-79.629	-0.140	-0.047
-117.137	-25.400	0.053	-0.031
-116.122	-200.000	-0.061	-0.274
-115.107	-99.399	-0.179	0.045
-114.093	-200.000	0.004	0.099
-113.078	88.638	-0.186	0.206
-112.064	800.000	0.041	-0.139
-111.049	800.000	0.110	-0.395
-110.034	-200.000	-0.050	-0.476
-109.020	438.410	0.175	-0.381
-108.005	-60.212	-0.405	0.172
-106.991	-33.228	0.240	-0.133
-105.976	-100.553	-0.047	0.012
-104.962	199.625	-0.153	-0.234
-103.947	800.000	0.077	-0.217
-102.932	800.000	-0.089	-0.276
-101.918	-43.582	0.355	0.178
-100.903	12.762	0.100	0.077
-99.889	-43.605	0.316	-0.159
-98.874	82.404	0.134	-0.145
-97.859	-85.414	0.060	-0.019
-96.845	710.051	-0.062	-0.163
-95.830	-200.000	-0.019	-0.243
-94.816	-139.223	0.194	0.021
-93.801	-10.173	0.113	-0.075
-92.786	139.613	-0.187	0.245
-91.772	-188.904	0.127	0.002
-90.757	-139.354	0.526	-0.056
-89.743	-200.000	0.016	-0.258
-88.728	-72.997	0.294	0.108
-87.713	-85.327	-0.188	0.058
-86.699	-200.000	0.022	-0.211
-85.684	259.290	-0.041	0.070
-84.670	18.826	-0.245	-0.195
-83.655	63.207	-0.118	-0.118
-82.640	-29.310	-0.090	0.051
-81.626	38.698	-0.064	-0.057
-80.611	195.698	-0.033	0.050
-79.597	-37.870	0.150	0.079
-78.582	443.344	0.108	-0.236
-77.567	269.591	-0.065	0.114
-76.553	109.466	-0.019	-0.023
-75.538	-74.248	-0.146	0.053
-74.524	78.761	0.048	-0.051
-73.509	230.292	0.132	-0.215
-72.494	7.641	0.401	0.299
-71.480	465.006	0.077	-0.171
-70.465	314.773	-0.091	-0.172
-69.451	106.875	0.118	0.140
-68.436	25.178	0.124	-0.103
-67.422	34.194	-0.280	0.243
-66.407	285.979	0.118	0.212
-65.392	137.169	-0.104	0.135
-64.378	-200.000	0.045	0.214
-63.363	-91.150	-0.251	-0.072
-62.349	-200.000	-0.028	-0.133
-61.334	66.482	-0.681	-0.689
-60.319	279.288	0.185	0.328
-59.305	-200.000	0.138	-0.920
-58.290	245.456	0.478	0.801
-57.276	539.718	0.743	1.760
-56.261	-200.000	75.983	518.591
-55.246	538.032	1317.220	3116.574
-54.232	143.570	2574.673	3413.860
-53.217	109.961	2369.075	2829.550
-52.203	50.514	1982.805	1866.746
-51.188	44.573	1768.828	1618.165
-50.173	41.655	1722.733	1553.285
-49.159	55.740	1757.316	1695.049
-48.144	61.386	1775.542	1756.732
-47.130	44.481	1738.231	1589.205
-46.115	41.239	1725.208	1552.033
-45.100	41.177	1720.261	1547.035
-44.086	41.084	1717.823	1544.057
-43.071	41.093	1714.545	1541.126
-42.057	41.016	1712.491	1538.622
-41.042	41.071	1710.275	1536.989
-40.027	41.118	1708.309	1535.531
-39.013	40.992	1706.604	1532.960
-37.998	41.072	1704.539	1531.664
-36.984	41.087	1703.465	1530.750
-35.969	41.244	1701.710	1530.317
-34.954	41.355	1699.950	1529.532
-33.940	41.229	1698.023	1526.768
-32.925	41.186	1696.153	1524.698
-31.911	41.118	1694.907	1522.998
-30.896	41.213	1693.077	1522.021
-29.881	41.175	1690.867	1519.680
-28.867	41.168	1689.331	1518.186
-27.852	41.035	1688.344	1516.224
-26.838	41.144	1686.108	1514.984
-25.823	41.273	1684.454	1514.419
-24.809	41.187	1683.229	1512.607
-23.794	41.310	1681.392	1511.831
-22.779	41.214	1680.397	1510.146
-21.765	41.196	1678.558	1508.297
-20.750	41.172	1677.016	1506.668
-19.736	41.199	1675.480	1505.435
-18.721	41.196	1674.157	1504.165
-17.706	41.208	1672.468	1502.677
-16.692	41.183	1670.800	1500.933
-15.677	41.193	1669.042	1499.368
-14.663	41.182	1668.265	1498.523
-13.648	41.185	1666.195	1496.629
-12.633	41.113	1664.813	1494.792
-11.619	41.203	1662.850	1493.641
-10.604	41.290	1661.413	1492.946
-9.590	41.103	1660.593	1490.745
-8.575	41.175	1659.558	1490.297
-7.560	41.207	1657.703	1488.811
-6.546	41.159	1656.856	1487.632
-5.531	41.132	1655.772	1486.402
-4.517	41.145	1654.541	1485.336
-3.502	41.204	1653.363	1484.657
-2.487	41.219	1651.577	1483.109
-1.473	41.289	1640.726	1473.819
-0.458	39.276	1620.416	1440.797
0.556	33.563	1620.511	1406.294
1.571	30.889	1644.835	1407.118
2.586	30.061	1658.779	1412.610
3.600	26.135	1603.808	1336.666
4.615	13.719	1480.897	1148.659
5.629	2.542	1404.313	1015.399
6.644	0.393	1394.067	993.748
7.659	0.210	1392.522	991.359
8.673	0.177	1391.429	990.273
9.688	0.060	1390.077	988.457
10.702	-0.138	1386.818	984.754
11.717	3.732	1394.914	1015.899
12.731	15.045	1417.293	1107.325
13.746	22.991	1431.069	1170.856
14.761	23.549	1430.896	1174.306
15.775	23.625	1429.958	1173.933
16.790	23.608	1429.661	1173.471
17.804	23.775	1428.555	1173.561
18.819	23.889	1428.868	1174.470
19.834	24.048	1427.456	1174.252
20.848	24.027	1427.010	1173.644
21.863	23.933	1426.396	1172.414
22.877	23.981	1425.409	1171.818
23.892	23.958	1424.110	1170.497
24.907	23.987	1423.359	1169.964
25.921	23.967	1422.739	1169.222
26.936	23.937	1422.169	1168.455
27.950	24.011	1420.596	1167.540
28.965	23.963	1419.625	1166.323
29.980	23.837	1418.491	1164.468
30.994	23.998	1416.728	1163.971
32.009	24.020	1415.555	1163.043
33.023	23.946	1414.786	1161.829
34.038	23.935	1413.281	1160.417
35.053	23.903	1412.596	1159.541
36.067	23.921	1411.330	1158.518
37.082	23.842	1410.748	1157.426
38.096	23.890	1409.369	1156.504
39.111	23.917	1408.414	1155.794
40.126	23.936	1408.125	1155.578
41.140	23.961	1407.187	1154.868
42.155	23.984	1406.432	1154.290
43.169	23.997	1406.857	1154.627
44.184	23.993	1406.304	1154.042
45.199	24.017	1406.017	1153.860
46.213	23.964	1405.465	1152.963
47.228	23.962	1404.741	1152.255
48.242	23.953	1403.767	1151.292
49.257	23.853	1401.973	1149.077
50.271	23.928	1400.390	1148.158
51.286	23.938	1399.210	1147.153
52.301	23.947	1398.127	1146.226
53.315	23.991	1396.839	1145.346
54.330	23.969	1396.070	1144.479
55.344	23.949	1394.765	1143.175
56.359	23.928	1393.815	1142.165
57.374	23.916	1393.509	1141.735
58.388	23.920	1392.782	1141.059
59.403	24.023	1391.902	1140.899
60.417	23.931	1391.540	1139.912
61.432	24.019	1390.318	1139.371
62.447	23.909	1389.713	1138.076
63.461	23.921	1388.834	1137.330
64.476	23.911	1387.653	1136.195
65.490	23.976	1386.368	1135.459
66.505	23.940	1384.842	1133.880
67.520	23.959	1383.544	1132.840
68.534	23.964	1382.573	1131.977
69.549	23.990	1381.641	1131.278
70.563	24.028	1380.303	1130.320
71.578	24.020	1379.527	1129.536
72.593	24.036	1378.501	1128.697
73.607	23.974	1378.333	1128.068
74.622	23.993	1377.767	1127.623
75.636	24.000	1376.986	1126.932
76.651	23.974	1375.870	1125.751
77.666	23.901	1375.596	1124.966
78.680	23.897	1375.172	1124.496
79.695	23.955	1374.329	1124.074
80.709	23.890	1373.319	1122.739
81.724	23.926	1372.433	1122.140
82.739	23.922	1371.196	1121.006
83.753	23.942	1370.755	1120.669
84.768	24.042	1369.018	1119.782
85.782	23.996	1368.158	1118.690
86.797	23.941	1366.906	1117.218
87.812	23.957	1365.843	1116.355
88.826	24.022	1364.490	1115.555
89.841	23.966	1363.556	1114.341
90.855	23.995	1362.434	1113.511
91.870	24.037	1361.486	1112.901
92.884	24.046	1360.673	1112.193
93.899	23.974	1360.127	1111.200
94.914	23.958	1359.416	1110.421
95.928	23.881	1358.809	1109.345
96.943	24.011	1357.904	1109.315
97.957	24.049	1356.861	1108.607
98.972	24.085	1355.833	1107.891
99.987	24.069	1354.997	1107.011
101.001	24.023	1354.065	1105.862
102.016	23.999	1353.106	1104.835
103.030	23.985	1352.216	1103.924
104.045	24.100	1351.243	1103.746
105.060	24.064	1350.162	1102.540
106.074	24.078	1349.288	1101.816
107.089	24.085	1348.109	1100.800
108.103	24.028	1347.411	1099.779
109.118	24.097	1345.974	1098.935
110.133	24.033	1344.931	1097.594
111.147	24.145	1343.589	1097.089
112.162	24.110	1342.337	1095.755
113.176	24.034	1341.600	1094.591
114.191	24.066	1340.903	1094.120
115.206	24.095	1339.869	1093.358
116.220	23.994	1338.853	1091.809
117.235	23.998	1338.112	1091.135
118.249	24.084	1336.924	1090.597
119.264	24.105	1335.799	1089.709
120.279	24.134	1334.610	1088.821
121.293	24.067	1334.380	1088.125
122.308	24.143	1333.295	1087.608
123.322	24.067	1332.804	1086.649
124.337	24.066	1331.378	1085.384
125.352	24.157	1330.423	1085.066
126.366	24.200	1329.408	1084.407
127.381	24.155	1328.846	1083.578
128.395	24.240	1327.853	1083.187
129.410	24.171	1326.916	1081.909
130.424	24.189	1326.290	1081.412
131.439	24.173	1325.458	1080.541
132.454	24.089	1324.876	1079.461
133.468	24.200	1324.032	1079.347
134.483	24.118	1323.089	1077.990
135.497	24.074	1322.799	1077.389
136.512	24.194	1321.411	1076.892
137.527	24.123	1320.197	1075.375
138.541	24.200	1318.904	1074.692
139.556	24.183	1317.695	1073.513
140.570	24.218	1316.423	1072.589
141.585	24.032	1315.820	1070.887
142.600	24.171	1314.451	1070.514
143.614	24.206	1313.549	1069.894
144.629	24.090	1312.759	1068.461
145.643	24.120	1311.720	1067.695
146.658	23.995	1310.371	1065.754
147.673	24.001	1309.695	1065.146
148.687	23.995	1308.625	1064.145
149.702	24.008	1307.176	1062.951
150.716	24.097	1305.971	1062.413
151.731	24.027	1305.602	1061.596
152.746	24.157	1304.269	1061.196
153.760	24.080	1303.163	1059.742
154.775	24.109	1301.813	1058.722
155.789	24.091	1301.184	1058.013
156.804	24.080	1300.238	1057.082
157.819	24.050	1299.662	1056.342
158.833	24.125	1298.715	1055.927
159.848	24.059	1298.159	1054.989
160.862	24.307	1297.118	1055.517
161.877	24.135	1296.247	1053.699
162.892	24.161	1295.345	1053.025
163.906	24.154	1295.014	1052.623
164.921	24.196	1293.868	1051.845
165.935	24.163	1293.169	1050.987
166.950	24.145	1292.587	1050.317
167.964	24.159	1292.124	1049.929
168.979	24.113	1291.551	1049.098
169.994	24.214	1290.678	1048.895
171.008	24.203	1290.033	1048.212
172.023	24.247	1289.051	1047.580
173.037	24.319	1288.362	1047.352
174.052	24.241	1287.532	1046.125
175.067	24.104	1286.998	1044.793
176.081	24.144	1286.379	1044.434
177.096	24.138	1285.565	1043.643
178.110	24.276	1284.403	1043.417
179.125	24.298	1283.155	1042.439
180.140	24.364	1281.897	1041.713
181.154	24.247	1281.371	1040.508
182.169	24.169	1279.890	1038.757
183.183	24.275	1278.683	1038.307
184.198	24.310	1277.882	1037.769
185.213	24.331	1276.896	1036.996
186.227	24.300	1276.127	1036.099
187.242	24.347	1275.214	1035.537
188.256	24.285	1274.242	1034.297
189.271	24.411	1273.039	1033.961
190.286	24.309	1273.039	1033.278
191.300	24.181	1272.597	1032.090
192.315	24.124	1271.899	1031.098
193.329	24.216	1271.764	1031.429
194.344	24.281	1271.119	1031.196
195.359	24.251	1270.376	1030.326
196.373	24.264	1269.906	1029.926
197.388	24.179	1269.482	1029.002
198.402	24.200	1268.838	1028.511
199.417	24.282	1268.109	1028.304
200.432	24.280	1267.917	1028.044
201.446	24.278	1266.917	1027.128
202.461	24.235	1266.892	1026.771
203.475	24.305	1265.609	1026.045
204.490	24.348	1264.237	1025.089
205.504	24.323	1263.563	1024.308
206.519	24.420	1262.310	1023.758
207.534	24.323	1261.717	1022.627
208.548	24.334	1260.747	1021.813
209.563	24.303	1260.082	1021.006
210.577	24.327	1259.205	1020.345
211.592	24.407	1258.148	1019.855
212.607	24.407	1257.675	1019.379
213.621	24.428	1256.435	1018.408
214.636	24.481	1255.906	1018.188
215.650	24.446	1255.132	1017.270
216.665	24.330	1254.564	1016.063
217.680	24.450	1253.130	1015.491
218.694	24.483	1252.415	1015.010
219.709	24.436	1251.597	1013.990
220.723	24.423	1251.172	1013.484
221.738	24.361	1250.747	1012.698
222.753	24.345	1249.760	1011.716
223.767	24.493	1248.829	1011.715
224.782	24.429	1248.984	1011.390
225.796	24.402	1248.238	1010.540
226.811	24.478	1247.463	1010.253
227.826	24.532	1246.741	1009.886
228.840	24.521	1246.083	1009.201
229.855	24.576	1245.094	1008.619
230.869	24.417	1244.752	1007.357
231.884	24.576	1243.757	1007.356
232.899	24.531	1242.967	1006.375
233.913	24.637	1242.209	1006.269
234.928	24.545	1242.199	1005.657
235.942	24.579	1241.192	1004.943
236.957	24.623	1240.384	1004.445
237.972	24.507	1239.838	1003.263
238.986	24.528	1239.134	1002.725
240.001	24.579	1238.684	1002.555
241.015	24.698	1237.875	1002.481
242.030	24.726	1236.892	1001.754
243.045	24.805	1235.376	1000.879
244.059	24.808	1235.163	1000.632
245.074	24.820	1234.381	999.979
246.088	24.704	1234.111	999.025
247.103	24.763	1232.972	998.345
248.117	24.615	1232.672	997.183
249.132	24.673	1231.685	996.625
250.147	24.723	1231.132	996.367
251.161	24.748	1230.087	995.571
252.176	24.726	1229.300	994.721
253.190	24.710	1228.912	994.232
254.205	24.740	1228.475	993.956
255.220	24.804	1227.094	993.105
256.234	24.805	1226.652	992.666
257.249	24.713	1226.426	991.885
258.263	24.776	1225.739	991.593
259.278	24.890	1225.077	991.599
260.293	24.786	1224.643	990.585
261.307	24.825	1224.224	990.373
262.322	24.842	1223.170	989.527
263.336	24.804	1222.467	988.663
264.351	24.814	1222.313	988.506
265.366	24.762	1221.477	987.457
266.380	24.767	1221.192	987.166
267.395	24.884	1220.066	986.810
268.409	24.740	1219.507	985.481
269.424	24.772	1219.391	985.473
270.439	24.894	1218.690	985.494
271.453	24.918	1217.631	984.678
272.468	24.820	1216.728	983.326
273.482	24.802	1216.386	982.864
274.497	24.849	1216.139	982.833
275.512	24.898	1215.263	982.310
276.526	24.950	1214.346	981.762
277.541	24.796	1213.629	980.253
278.555	24.877	1213.527	980.529
279.570	24.936	1212.256	979.738
280.585	24.844	1211.531	978.562
281.599	24.918	1210.705	978.216
282.614	24.921	1209.830	977.435
283.628	25.016	1208.848	977.072
284.643	25.020	1207.991	976.319
285.657	24.952	1207.130	975.164
286.672	24.989	1206.276	974.587
287.687	25.020	1205.342	973.917
288.701	25.067	1204.816	973.663
289.716	25.064	1204.490	973.294
290.730	25.131	1203.240	972.561
291.745	25.025	1203.170	971.845
292.760	25.134	1202.073	971.462
293.774	25.073	1201.712	970.757
294.789	25.100	1201.617	970.741
295.803	25.053	1200.551	969.538
296.818	25.157	1199.990	969.561
297.833	25.108	1199.290	968.646
298.847	25.176	1198.651	968.408
299.862	25.146	1197.575	967.291
300.876	25.176	1196.773	966.721
301.891	25.240	1196.314	966.608
302.906	25.190	1195.832	965.868
303.920	25.328	1194.687	965.601
304.935	25.265	1193.967	964.594
305.949	25.108	1193.824	963.547
306.964	25.279	1192.989	963.706
307.979	25.238	1192.815	963.261
308.993	25.281	1192.009	962.756
310.008	25.213	1191.312	961.740
311.022	25.267	1190.486	961.283
312.037	25.188	1189.865	960.272
313.052	25.161	1188.712	959.111
314.066	25.302	1187.624	958.901
315.081	25.268	1187.398	958.452
316.095	25.306	1186.705	958.014
317.110	25.350	1185.966	957.562
318.125	25.322	1185.339	956.826
319.139	25.352	1184.628	956.327
320.154	25.316	1184.049	955.584
321.168	25.297	1183.677	955.096
322.183	25.419	1182.853	954.994
323.197	25.332	1182.452	954.124
324.212	25.342	1181.770	953.544
325.227	25.356	1181.367	953.205
326.241	25.390	1180.961	952.976
327.256	25.411	1179.985	952.214
328.270	25.478	1178.778	951.511
329.285	25.344	1178.394	950.407
330.300	25.290	1177.612	949.406
331.314	25.447	1176.620	949.353
332.329	25.496	1176.017	949.043
333.343	25.485	1175.044	948.112
334.358	25.526	1174.206	947.572
335.373	25.608	1173.404	947.273
336.387	25.535	1172.790	946.307
337.402	25.541	1171.944	945.571
338.416	25.495	1171.897	945.208
339.431	25.551	1170.720	944.472
340.446	25.621	1170.179	944.321
341.460	25.596	1169.481	943.539
342.475	25.658	1168.911	943.324
343.489	25.599	1167.785	942.019
344.504	25.642	1166.727	941.307
345.519	25.640	1165.862	940.518
346.533	25.585	1165.369	939.750
347.548	25.753	1164.458	939.810
348.562	25.607	1164.134	938.699
349.577	25.638	1163.209	938.035
350.592	25.546	1162.501	936.899
351.606	25.579	1161.870	936.484
352.621	25.724	1161.168	936.589
353.635	25.707	1160.781	936.103
354.650	25.720	1159.894	935.376
355.665	25.751	1159.476	935.113
356.679	25.778	1158.836	934.657
357.694	25.639	1158.383	933.486
358.708	25.673	1157.651	932.992
359.723	25.719	1156.745	932.418
360.738	25.744	1156.175	932.002
361.752	25.825	1155.214	931.567
362.767	25.759	1155.239	931.163
363.781	25.716	1154.373	930.159
364.796	25.830	1153.890	930.275
365.810	25.914	1153.231	930.096
366.825	25.837	1152.658	929.155
367.840	25.932	1152.033	929.059
368.854	26.030	1151.413	928.981
369.869	25.793	1151.079	927.410
370.883	25.879	1150.088	926.973
371.898	25.942	1149.093	926.410
372.913	25.944	1148.555	925.907
373.927	25.947	1148.359	925.682
374.942	25.958	1147.929	925.306
375.956	25.939	1147.074	924.440
376.971	26.075	1146.227	924.370
377.986	26.054	1145.887	923.909
379.000	26.045	1145.131	923.173
380.015	25.960	1144.612	922.236
381.029	26.025	1144.194	922.151
382.044	26.003	1143.535	921.422
383.059	26.068	1142.928	921.187
384.073	26.055	1142.230	920.477
385.088	26.169	1140.894	919.900
386.102	26.108	1140.227	918.971
387.117	26.087	1139.451	918.154
388.132	26.102	1138.464	917.353
389.146	26.195	1137.489	916.959
390.161	26.088	1137.219	916.120
391.175	26.138	1136.579	915.774
392.190	26.162	1136.038	915.379
393.205	26.122	1135.480	914.647
394.219	26.174	1134.738	914.234
395.234	26.151	1133.651	913.161
396.248	26.160	1132.811	912.448
397.263	26.192	1132.094	911.949
398.278	26.197	1131.592	911.491
399.292	26.224	1130.998	911.069
400.307	26.245	1130.152	910.414
401.321	26.286	1129.851	910.293
402.336	26.343	1128.825	909.673
403.350	26.302	1128.213	908.895
404.365	26.257	1127.858	908.299
405.380	26.381	1126.645	907.867
406.394	26.377	1125.979	907.232
407.409	26.428	1125.037	906.646
408.423	26.393	1124.770	906.175
409.438	26.459	1123.852	905.686
410.453	26.507	1122.974	905.141
411.467	26.457	1122.219	904.200
412.482	26.246	1121.994	902.887
413.496	26.346	1121.531	902.929
414.511	26.416	1120.710	902.540
415.526	26.431	1120.191	902.116
416.540	26.423	1119.728	901.623
417.555	26.477	1119.221	901.404
418.569	26.527	1118.805	901.239
419.584	26.620	1118.079	901.040
420.599	26.476	1117.937	900.127
421.613	84.312	1297.654	1365.772
422.628	79.287	1323.839	1365.907
