DTS Sentinel unit serial number:	SN413079Multiplexer serial number:	ORYXHardware model number:	OX4-SRSoftware version number:	ORYX F/W v4.00 Oryx Data Collector v3.7.2.0data status	okinstallation	princeton_trtdifferential loss correction	single-endedforward channel	channel 2reverse channel	N/Adate	2019/09/17time	23:11:35forward acquisition time	60.00reverse acquisition time	0.00gamma	496.2192k internal	0.2347k external	0.2347temperature offset calibration	0.9981default loss term (dB/km)	0.3790temperature slope calibration	1.0000multiplexer offset coefficient	1.0000multiplexer slope coefficient	1.0000fibre end	0.00T internal ref (°C)	24.58T ext. ref 1 (°C)	0.16T ext. ref 2 (°C)	17.68length (m)	temperature (°C)	Stokes	anti-Stokes-747.200	13.966	-0.235	0.183
-746.185	800.000	0.032	0.103
-745.171	-76.791	-0.162	-0.057
-744.156	51.617	0.149	0.142
-743.142	70.745	0.282	0.291
-742.127	-200.000	0.026	0.169
-741.112	-169.289	0.070	0.003
-740.098	-200.000	0.010	0.289
-739.083	-187.263	-0.183	-0.002
-738.069	-200.000	-0.039	0.186
-737.054	-200.000	-0.045	0.313
-736.039	21.701	0.262	0.214
-735.025	122.372	0.175	0.218
-734.010	196.624	-0.096	0.146
-732.996	289.673	0.054	-0.098
-731.981	179.101	0.069	-0.101
-730.966	-200.000	-0.080	0.362
-729.952	126.878	-0.148	-0.187
-728.937	-95.174	0.462	-0.124
-727.923	-48.104	-0.352	-0.170
-726.908	109.241	0.097	0.116
-725.894	-193.383	-0.099	-0.001
-724.879	84.452	-0.111	0.122
-723.864	-200.000	-0.058	-0.315
-722.850	218.953	0.201	-0.321
-721.835	-177.064	0.173	0.004
-720.821	103.051	0.154	0.180
-719.806	-3.690	0.137	-0.095
-718.791	145.235	-0.087	0.116
-717.777	74.045	-0.145	-0.152
-716.762	-200.000	0.007	-0.179
-715.748	160.925	0.188	-0.262
-714.733	800.000	0.020	-0.064
-713.718	194.845	-0.065	-0.099
-712.704	800.000	0.040	-0.148
-711.689	800.000	0.023	-0.100
-710.675	104.497	0.055	0.064
-709.660	172.915	0.064	-0.091
-708.645	691.748	-0.031	0.080
-707.631	-145.647	0.132	0.012
-706.616	800.000	0.122	0.394
-705.602	-87.581	0.133	0.040
-704.587	305.411	-0.143	-0.265
-703.572	-200.000	-0.009	0.076
-702.558	181.774	-0.034	-0.051
-701.543	-95.765	0.332	0.089
-700.529	367.760	0.023	0.046
-699.514	-41.737	0.505	0.259
-698.499	-160.686	-0.180	0.010
-697.485	27.619	0.169	0.142
-696.470	10.438	0.272	-0.206
-695.456	-78.998	-0.142	-0.048
-694.441	709.339	-0.093	0.246
-693.426	-21.306	-0.097	-0.059
-692.412	-31.351	0.223	0.125
-691.397	-200.000	0.043	-0.409
-690.383	-200.000	0.056	-0.300
-689.368	-160.198	-0.135	0.007
-688.354	42.019	0.049	0.044
-687.339	-103.131	-0.137	-0.032
-686.324	502.281	0.024	-0.055
-685.310	-135.686	-0.190	-0.023
-684.295	73.142	0.057	-0.059
-683.281	-53.537	-0.014	-0.006
-682.266	-136.980	-0.269	0.031
-681.251	-36.514	-0.085	0.046
-680.237	91.921	-0.236	0.265
-679.222	-98.164	-0.447	0.115
-678.208	-128.890	-0.314	0.044
-677.193	-72.762	0.352	-0.129
-676.178	-30.163	0.063	-0.036
-675.164	66.914	0.106	-0.107
-674.149	-200.000	0.003	0.119
-673.135	-109.827	0.275	-0.058
-672.120	-78.080	0.355	-0.122
-671.105	7.136	-0.184	0.137
-670.091	-151.538	-0.285	-0.021
-669.076	24.684	0.225	-0.186
-668.062	445.335	-0.035	-0.076
-667.047	800.000	-0.112	-0.324
-666.032	800.000	0.097	-0.311
-665.018	-14.357	-0.156	0.100
-664.003	503.991	0.126	0.290
-662.989	787.399	0.025	0.070
-661.974	-200.000	0.030	-0.226
-660.959	-200.000	0.061	-0.347
-659.945	226.181	-0.151	0.243
-658.930	-68.756	0.160	-0.062
-657.916	46.062	-0.050	0.046
-656.901	140.631	0.051	0.068
-655.886	-115.946	-0.450	0.084
-654.872	-200.000	-0.004	0.098
-653.857	536.417	-0.099	0.235
-652.843	8.362	-0.129	-0.097
-651.828	-130.028	0.282	-0.038
-650.814	-200.000	-0.036	-0.220
-649.799	-62.602	0.205	-0.085
-648.784	68.428	0.092	-0.094
-647.770	-90.591	-0.074	0.021
-646.755	201.984	0.098	-0.150
-645.741	800.000	0.042	-0.145
-644.726	-173.189	-0.147	0.004
-643.711	152.444	0.061	0.082
-642.697	-200.000	-0.054	0.355
-641.682	-79.881	-0.301	-0.101
-640.668	-17.850	0.201	0.126
-639.653	-22.655	0.107	0.065
-638.638	-200.000	-0.029	0.514
-637.624	-112.989	-0.198	0.039
-636.609	-37.794	-0.008	0.004
-635.595	-29.013	-0.100	0.057
-634.580	65.680	0.182	0.184
-633.565	484.356	-0.023	-0.053
-632.551	800.000	-0.096	0.279
-631.536	33.794	0.371	0.321
-630.522	-200.000	0.016	-0.267
-629.507	-146.246	-0.523	0.046
-628.492	85.958	0.115	-0.126
-627.478	-159.449	0.093	-0.005
-626.463	-94.254	-0.174	-0.047
-625.449	-16.373	-0.233	-0.147
-624.434	-159.428	0.422	0.023
-623.419	-200.000	-0.024	-0.183
-622.405	203.187	-0.253	-0.390
-621.390	170.198	0.107	-0.153
-620.376	168.494	0.312	-0.442
-619.361	-118.491	0.271	0.048
-618.346	564.276	-0.030	0.072
-617.332	-129.412	-0.271	0.037
-616.317	505.459	-0.111	0.255
-615.303	-33.592	0.184	0.101
-614.288	-200.000	-0.012	-0.127
-613.273	149.584	0.068	0.091
-612.259	-125.802	0.165	0.025
-611.244	-34.902	-0.176	-0.096
-610.230	25.071	-0.254	0.210
-609.215	387.367	0.064	-0.131
-608.201	-121.942	0.098	0.016
-607.186	644.766	0.072	-0.183
-606.171	29.566	-0.411	0.348
-605.157	51.037	0.145	0.137
-604.142	-31.680	-0.451	-0.251
-603.128	225.146	-0.083	-0.134
-602.113	-35.180	0.159	-0.086
-601.098	-19.538	-0.250	0.154
-600.084	-115.278	0.230	-0.043
-599.069	-200.000	-0.005	0.311
-598.055	355.456	0.091	0.181
-597.040	-66.453	-0.164	0.065
-596.025	-44.159	-0.316	-0.158
-595.011	-200.000	0.066	-0.348
-593.996	-79.596	0.110	-0.037
-592.982	-44.765	-0.216	-0.107
-591.967	-2.846	0.144	0.100
-590.952	7.286	0.177	0.131
-589.938	516.805	0.063	0.145
-588.923	-62.290	-0.093	0.038
-587.909	37.356	0.349	0.307
-586.894	-150.006	0.063	-0.005
-585.879	-60.015	-0.109	0.046
-584.865	-134.911	-0.185	-0.022
-583.850	-200.000	-0.035	-0.160
-582.836	248.419	-0.139	-0.233
-581.821	-58.147	0.046	0.020
-580.806	800.000	-0.029	-0.091
-579.792	-200.000	-0.002	-0.071
-578.777	-94.809	-0.260	0.070
-577.763	-73.409	-0.282	-0.102
-576.748	143.045	0.161	0.213
-575.733	283.919	-0.083	-0.149
-574.719	10.204	-0.039	0.029
-573.704	79.571	-0.085	-0.091
-572.690	-200.000	-0.041	0.193
-571.675	-2.491	0.054	-0.038
-570.661	-119.704	0.413	-0.071
-569.646	-45.989	-0.141	0.069
-568.631	653.641	-0.096	0.245
-567.617	237.245	-0.262	0.431
-566.602	-59.724	-0.332	0.141
-565.588	-37.473	-0.148	0.078
-564.573	246.818	0.090	-0.151
-563.558	-200.000	-0.025	0.117
-562.544	392.494	0.170	-0.350
-561.529	117.673	-0.175	0.214
-560.515	202.921	-0.052	-0.080
-559.500	-40.448	0.362	-0.186
-558.485	-104.151	0.123	-0.028
-557.471	-82.273	-0.094	0.030
-556.456	800.000	0.121	-0.350
-555.442	16.187	-0.187	0.146
-554.427	55.116	-0.185	0.177
-553.412	-57.200	-0.155	-0.068
-552.398	-126.947	-0.291	0.042
-551.383	-200.000	-0.076	0.627
-550.369	215.468	0.127	0.200
-549.354	-50.076	0.218	-0.103
-548.339	800.000	-0.018	-0.073
-547.325	-200.000	-0.058	0.390
-546.310	800.000	0.043	0.186
-545.296	782.301	-0.178	-0.484
-544.281	587.562	0.100	-0.245
-543.266	-111.776	0.316	0.063
-542.252	-111.408	0.250	0.051
-541.237	269.758	-0.086	-0.151
-540.223	577.010	0.098	0.238
-539.208	218.483	0.128	0.203
-538.193	362.246	-0.042	0.083
-537.179	-184.135	-0.316	0.005
-536.164	-111.958	-0.286	0.057
-535.150	-11.093	0.282	-0.185
-534.135	44.723	-0.175	-0.160
-533.121	-200.000	0.006	-0.231
-532.106	-146.624	-0.509	0.044
-531.091	206.872	-0.060	-0.093
-530.077	72.764	0.129	-0.134
-529.062	-76.441	0.171	0.059
-528.048	668.684	-0.066	-0.169
-527.033	-200.000	-0.023	-0.286
-526.018	51.685	-0.099	0.093
-525.004	198.920	-0.100	0.151
-523.989	126.598	0.149	0.187
-522.975	800.000	-0.087	0.253
-521.960	-20.032	-0.182	0.111
-520.945	-128.526	0.188	-0.026
-519.931	-200.000	-0.033	0.264
-518.916	419.326	0.068	-0.143
-517.902	-98.655	-0.132	0.033
-516.887	800.000	-0.037	-0.140
-515.872	-89.502	0.293	0.085
-514.858	-31.201	0.153	-0.086
-513.843	453.791	-0.126	0.276
-512.829	-133.416	0.172	-0.021
-511.814	66.817	-0.090	-0.091
-510.799	284.205	0.193	-0.344
-509.785	800.000	-0.019	-0.073
-508.770	-61.614	0.129	0.054
-507.756	519.854	-0.082	-0.189
-506.741	800.000	-0.055	-0.160
-505.726	73.551	0.135	0.140
-504.712	-59.893	-0.109	0.046
-503.697	-168.555	-0.223	-0.008
-502.683	86.237	0.141	0.154
-501.668	-107.153	0.149	0.033
-500.653	-42.033	0.094	-0.048
-499.639	79.129	0.072	-0.076
-498.624	-137.406	0.074	0.008
-497.610	314.895	-0.074	0.138
-496.595	-156.570	-0.575	0.035
-495.581	9.329	-0.354	0.265
-494.566	137.806	0.112	-0.146
-493.551	463.457	-0.047	0.104
-492.537	7.532	0.330	0.244
-491.522	26.950	0.200	-0.166
-490.508	-86.576	-0.201	-0.061
-489.493	-200.000	0.022	-0.198
-488.478	-75.396	0.150	-0.053
-487.464	-62.138	0.310	-0.128
-486.449	-200.000	-0.006	-0.089
-485.435	-46.952	0.367	0.177
-484.420	44.235	0.026	-0.024
-483.405	51.131	0.154	-0.145
-482.391	-32.088	0.039	0.022
-481.376	-200.000	-0.022	-0.162
-480.362	-43.559	-0.149	-0.075
-479.347	-200.000	0.014	-0.310
-478.332	290.809	0.209	0.376
-477.318	-200.000	0.036	-0.200
-476.303	800.000	0.126	0.409
-475.289	-31.246	0.210	0.117
-474.274	296.224	-0.019	-0.035
-473.259	-0.499	0.220	0.154
-472.245	-200.000	0.042	-0.258
-471.230	11.937	-0.074	0.057
-470.216	729.540	0.219	-0.579
-469.201	99.230	-0.174	-0.199
-468.186	7.582	-0.149	-0.111
-467.172	-197.461	-0.089	-0.001
-466.157	442.311	-0.125	-0.271
-465.143	-200.000	-0.030	-0.192
-464.128	500.440	-0.039	-0.089
-463.113	256.556	-0.026	-0.044
-462.099	103.978	0.298	-0.346
-461.084	800.000	-0.057	0.157
-460.070	-200.000	-0.006	0.048
-459.055	161.766	-0.047	0.066
-458.040	-114.800	-0.319	-0.060
-457.026	-200.000	0.013	0.222
-456.011	59.349	-0.169	0.165
-454.997	123.259	0.130	0.161
-453.982	-110.351	0.156	0.032
-452.968	59.239	0.061	0.060
-451.953	-81.900	0.136	-0.044
-450.938	-24.438	0.322	-0.190
-449.924	670.922	-0.144	-0.369
-448.909	-200.000	0.004	-0.068
-447.895	-200.000	-0.034	-0.177
-446.880	204.659	0.064	-0.098
-445.865	-188.012	0.242	-0.003
-444.851	779.662	0.080	-0.217
-443.836	-131.407	-0.283	-0.037
-442.822	-200.000	0.008	0.168
-441.807	-153.893	0.149	-0.010
-440.792	-200.000	-0.005	-0.131
-439.778	-200.000	0.026	-0.218
-438.763	-200.000	0.062	-0.308
-437.749	-200.000	-0.013	-0.094
-436.734	304.163	-0.035	0.065
-435.719	800.000	-0.040	0.121
-434.705	96.683	-0.052	0.058
-433.690	800.000	0.058	-0.197
-432.676	89.948	-0.193	0.213
-431.661	255.940	-0.077	-0.130
-430.646	-26.402	0.045	0.026
-429.632	-80.800	0.141	0.046
-428.617	-122.477	-0.114	0.018
-427.603	-79.382	-0.148	-0.050
-426.588	-200.000	0.060	0.278
-425.573	-2.151	0.115	0.080
-424.559	-77.355	0.009	-0.003
-423.544	-200.000	0.011	0.356
-422.530	-200.000	-0.058	-0.300
-421.515	114.762	-0.197	0.237
-420.500	222.021	-0.136	-0.216
-419.486	800.000	-0.016	0.050
-418.471	800.000	0.042	-0.158
-417.457	-39.938	-0.144	0.074
-416.442	-28.833	-0.080	-0.045
-415.428	60.876	-0.072	-0.070
-414.413	80.601	0.307	-0.327
-413.398	189.343	0.030	0.044
-412.384	-51.933	-0.189	0.087
-411.369	68.138	0.266	0.269
-410.355	-77.773	0.164	0.056
-409.340	159.848	-0.232	-0.318
-408.325	-200.000	0.010	0.081
-407.311	14.125	0.350	0.269
-406.296	800.000	-0.075	-0.255
-405.282	396.329	-0.091	-0.187
-404.267	12.042	-0.207	0.157
-403.252	-200.000	-0.007	-0.174
-402.238	11.112	-0.360	-0.272
-401.223	-20.993	-0.149	-0.090
-400.209	-200.000	-0.062	0.270
-399.194	800.000	0.009	0.031
-398.179	369.604	-0.067	-0.134
-397.165	-200.000	-0.020	-0.122
-396.150	-64.708	-0.146	-0.059
-395.136	-200.000	-0.040	0.221
-394.121	-58.394	-0.114	-0.049
-393.106	-200.000	0.011	0.155
-392.092	143.691	0.037	0.049
-391.077	209.104	0.069	0.106
-390.063	-200.000	0.035	0.239
-389.048	429.425	-0.237	0.504
-388.033	634.430	-0.130	-0.325
-387.019	-122.685	-0.296	-0.047
-386.004	-21.826	0.262	-0.157
-384.990	-200.000	0.019	-0.182
-383.975	34.199	-0.163	-0.140
-382.960	800.000	0.073	0.220
-381.946	-118.161	0.244	-0.043
-380.931	-96.829	-0.211	0.055
-379.917	174.130	-0.232	-0.331
-378.902	-52.884	0.105	-0.048
-377.888	176.514	-0.221	-0.317
-376.873	635.640	-0.022	-0.054
-375.858	-109.884	0.094	-0.019
-374.844	800.000	0.082	0.298
-373.829	138.839	-0.091	0.118
-372.815	192.149	0.133	-0.198
-371.800	800.000	0.036	0.136
-370.785	-16.460	0.090	-0.056
-369.771	800.000	0.081	-0.286
-368.756	-200.000	0.010	-0.164
-367.742	-148.592	-0.128	0.010
-366.727	126.317	0.068	0.085
-365.712	389.049	-0.153	0.311
-364.698	800.000	-0.119	0.331
-363.683	-13.996	0.154	-0.098
-362.669	-155.829	0.109	0.007
-361.654	417.831	0.052	-0.110
-360.639	76.911	0.271	0.283
-359.625	345.564	-0.063	0.123
-358.610	79.570	0.151	-0.160
-357.596	-32.046	0.067	-0.037
-356.581	-44.816	-0.284	-0.139
-355.566	170.498	0.026	-0.037
-354.552	657.945	-0.044	0.112
-353.537	17.003	0.042	0.033
-352.523	3.165	0.052	-0.037
-351.508	183.083	-0.151	0.219
-350.493	-60.611	-0.141	-0.059
-349.479	-200.000	0.060	0.377
-348.464	-133.843	0.444	-0.054
-347.450	129.242	0.119	0.150
-346.435	-168.581	-0.102	-0.004
-345.420	-17.496	-0.247	0.153
-344.406	-93.770	-0.179	-0.048
-343.391	-12.202	-0.367	-0.236
-342.377	-87.207	0.254	0.076
-341.362	-118.666	0.460	-0.080
-340.348	800.000	-0.101	0.351
-339.333	61.550	-0.157	0.153
-338.318	-117.196	-0.213	0.038
-337.304	73.309	0.075	0.077
-336.289	-200.000	0.002	0.019
-335.275	87.627	-0.190	0.207
-334.260	520.333	0.066	0.152
-333.245	-59.005	-0.289	-0.123
-332.231	-137.516	-0.272	-0.030
-331.216	-124.891	0.407	-0.062
-330.202	456.627	0.183	-0.401
-329.187	-39.346	0.074	-0.038
-328.172	68.701	0.174	-0.176
-327.158	89.585	-0.103	0.113
-326.143	-136.241	-0.337	0.039
-325.129	-103.012	0.319	-0.074
-324.114	-167.746	0.222	0.009
-323.099	199.567	0.094	0.142
-322.085	219.120	-0.119	-0.188
-321.070	-72.585	-0.076	0.027
-320.056	-0.588	0.210	0.147
-319.041	800.000	-0.109	0.460
-318.026	90.816	0.245	0.270
-317.012	-106.992	0.254	-0.055
-315.997	19.256	0.137	-0.108
-314.983	15.565	0.052	0.040
-313.968	-180.316	0.377	0.008
-312.953	597.393	-0.027	-0.066
-311.939	-148.596	-0.424	0.034
-310.924	-200.000	0.027	-0.198
-309.910	-171.064	0.059	0.002
-308.895	522.641	0.105	0.241
-307.880	800.000	-0.082	0.325
-306.866	-62.179	0.217	-0.089
-305.851	320.547	0.087	-0.162
-304.837	207.169	0.120	0.184
-303.822	-136.368	-0.092	-0.011
-302.807	38.741	0.257	0.225
-301.793	697.901	0.027	-0.070
-300.778	-57.184	-0.112	0.049
-299.764	-200.000	0.020	0.237
-298.749	-200.000	0.020	0.134
-297.735	67.050	-0.111	-0.111
-296.720	-200.000	0.009	-0.293
-295.705	264.873	0.101	-0.172
-294.691	-149.790	0.128	-0.010
-293.676	774.093	-0.065	0.175
-292.662	800.000	0.034	-0.135
-291.647	113.244	0.182	0.217
-290.632	-113.699	-0.389	0.074
-289.618	132.080	0.091	0.116
-288.603	-200.000	0.029	-0.128
-287.589	591.161	0.083	-0.201
-286.574	44.751	0.210	0.190
-285.559	800.000	-0.040	0.134
-284.545	-200.000	-0.033	-0.182
-283.530	-200.000	-0.064	-0.455
-282.516	-109.741	0.303	0.063
-281.501	493.675	-0.088	0.197
-280.486	-200.000	0.008	-0.178
-279.472	149.607	-0.143	0.190
-278.457	-51.088	0.181	0.083
-277.443	-153.871	0.058	0.004
-276.428	-200.000	-0.005	0.067
-275.413	-98.753	0.121	0.030
-274.399	-145.035	-0.236	0.021
-273.384	91.059	-0.074	0.081
-272.370	-4.415	-0.033	-0.022
-271.355	-154.271	-0.287	0.019
-270.340	368.857	-0.094	-0.186
-269.326	69.280	-0.064	0.065
-268.311	-200.000	0.024	0.194
-267.297	-32.218	0.170	0.093
-266.282	-200.000	0.001	0.199
-265.267	-8.244	-0.299	-0.198
-264.253	800.000	-0.058	-0.229
-263.238	-200.000	0.107	-0.629
-262.224	-172.194	0.253	-0.008
-261.209	-200.000	-0.041	0.204
-260.195	-16.503	0.199	-0.123
-259.180	16.779	0.232	0.180
-258.165	-135.642	-0.279	-0.032
-257.151	94.511	0.173	-0.193
-256.136	-200.000	0.031	0.152
-255.122	-200.000	-0.015	-0.122
-254.107	44.729	-0.248	-0.224
-253.092	-105.466	0.294	0.065
-252.078	-15.553	0.208	-0.130
-251.063	800.000	-0.022	0.087
-250.049	-33.042	-0.181	0.098
-249.034	750.308	0.077	-0.204
-248.019	-15.714	-0.111	0.069
-247.005	9.850	-0.024	-0.018
-245.990	-200.000	-0.058	-0.296
-244.976	489.638	-0.152	0.340
-243.961	-101.940	0.158	-0.037
-242.946	650.452	-0.106	0.265
-241.932	-14.480	0.096	-0.060
-240.917	91.162	0.116	-0.127
-239.903	-59.369	-0.265	0.112
-238.888	33.670	-0.214	0.182
-237.873	-52.136	0.285	0.130
-236.859	-112.055	0.294	-0.058
-235.844	71.547	-0.185	-0.188
-234.830	-200.000	-0.162	-0.000
-233.815	800.000	-0.091	0.279
-232.800	67.510	0.083	0.083
-231.786	139.073	-0.167	0.215
-230.771	-113.204	0.126	0.024
-229.757	800.000	0.007	-0.021
-228.742	-120.738	-0.169	0.028
-227.727	800.000	-0.085	0.232
-226.713	800.000	-0.072	-0.223
-225.698	-39.749	0.277	0.142
-224.684	15.750	-0.319	0.246
-223.669	-143.395	0.329	-0.031
-222.655	-200.000	-0.039	-0.190
-221.640	-115.553	0.153	0.028
-220.625	800.000	0.077	-0.252
-219.611	-200.000	0.058	0.253
-218.596	800.000	-0.050	-0.188
-217.582	611.968	0.111	0.271
-216.567	496.991	0.102	0.229
-215.552	800.000	-0.047	-0.198
-214.538	-107.875	0.268	-0.057
-213.523	522.730	-0.034	-0.078
-212.509	256.413	0.115	-0.194
-211.494	-74.419	-0.250	0.088
-210.479	28.174	-0.264	0.218
-209.465	317.299	0.060	0.112
-208.450	-21.837	-0.230	-0.137
-207.436	-54.549	0.093	-0.041
-206.421	59.616	0.089	0.086
-205.406	-149.759	0.088	-0.007
-204.392	-179.238	-0.217	-0.005
-203.377	28.952	-0.132	0.109
-202.363	1.573	-0.167	-0.117
-201.348	-134.166	-0.280	-0.034
-200.333	40.711	-0.258	0.228
-199.319	-67.081	0.173	-0.067
-198.304	-182.341	0.059	0.001
-197.290	-41.258	0.313	-0.158
-196.275	576.661	-0.076	0.182
-195.260	-88.553	0.157	0.046
-194.246	24.057	-0.274	0.221
-193.231	-76.930	-0.218	-0.074
-192.217	-141.319	0.130	0.013
-191.202	-156.836	-0.284	0.017
-190.187	800.000	-0.004	-0.016
-189.173	-200.000	-0.009	-0.124
-188.158	113.062	0.100	-0.118
-187.144	74.165	-0.070	0.072
-186.129	-102.788	0.303	0.070
-185.114	-98.108	-0.125	0.031
-184.100	23.393	-0.207	-0.167
-183.085	-200.000	0.257	-0.000
-182.071	-84.945	0.046	0.014
-181.056	800.000	0.026	-0.087
-180.042	-46.885	0.292	0.140
-179.027	238.942	-0.095	0.155
-178.012	800.000	-0.142	0.460
-176.998	-33.715	0.172	0.093
-175.983	-63.520	0.207	-0.083
-174.969	800.000	0.036	-0.153
-173.954	182.943	-0.239	-0.345
-172.939	-17.235	0.355	-0.219
-171.925	-200.000	-0.035	-0.347
-170.910	-200.000	-0.065	0.607
-169.896	127.780	-0.226	-0.280
-168.881	800.000	-0.072	-0.270
-167.866	-49.846	0.340	0.158
-166.852	-200.000	0.023	-0.366
-165.837	98.326	0.252	-0.284
-164.823	102.388	-0.069	-0.079
-163.808	-152.411	0.087	0.006
-162.793	53.361	0.195	0.182
-161.779	-200.000	0.025	-0.389
-160.764	75.026	0.122	-0.126
-159.750	-200.000	-0.010	-0.191
-158.735	-32.118	-0.122	0.066
-157.720	119.237	-0.313	0.378
-156.706	-114.461	-0.278	0.052
-155.691	175.029	-0.226	-0.320
-154.677	258.977	0.066	-0.112
-153.662	-200.000	0.054	0.318
-152.647	-90.114	0.372	0.106
-151.633	699.513	0.078	-0.200
-150.618	99.669	0.090	-0.102
-149.604	14.521	0.123	-0.094
-148.589	408.691	0.151	-0.311
-147.574	-138.849	0.288	-0.031
-146.560	66.363	0.116	0.115
-145.545	-16.485	-0.286	-0.177
-144.531	-136.829	0.278	0.031
-143.516	-3.174	0.145	0.099
-142.502	-39.330	-0.276	0.141
-141.487	66.800	0.099	-0.098
-140.472	-92.090	0.379	-0.105
-139.458	794.015	0.100	0.268
-138.443	-200.000	0.054	0.314
-137.429	9.993	0.285	0.212
-136.414	-118.229	-0.220	-0.038
-135.399	-165.253	0.289	-0.012
-134.385	224.340	0.151	0.238
-133.370	406.280	-0.098	0.203
-132.356	99.779	0.079	-0.089
-131.341	-144.117	0.366	-0.033
-130.326	-200.000	0.032	0.136
-129.312	-200.000	0.015	-0.230
-128.297	262.831	0.137	-0.232
-127.283	-80.015	-0.326	-0.107
-126.268	94.367	-0.203	0.224
-125.253	-200.000	-0.016	-0.132
-124.239	-200.000	-0.045	-0.483
-123.224	161.278	-0.169	0.230
-122.210	-4.642	0.146	0.098
-121.195	-1.474	-0.144	-0.099
-120.180	7.923	0.150	0.109
-119.166	-57.795	0.077	0.033
-118.151	213.938	-0.068	0.106
-117.137	126.805	0.072	-0.089
-116.122	138.841	-0.119	-0.152
-115.107	-194.562	-0.246	-0.002
-114.093	-200.000	0.015	0.213
-113.078	82.810	0.166	0.176
-112.064	-57.063	0.149	0.064
-111.049	185.317	-0.079	0.115
-110.034	-127.852	0.179	0.025
-109.020	-200.000	-0.001	0.053
-108.005	-48.678	0.281	0.132
-106.991	-137.655	0.249	-0.027
-105.976	-28.554	0.157	0.088
-104.962	-119.155	-0.054	-0.009
-103.947	43.936	0.111	0.099
-102.932	-200.000	0.046	-0.267
-101.918	-69.081	0.057	-0.021
-100.903	800.000	0.031	-0.094
-99.889	800.000	0.103	0.317
-98.874	-73.225	-0.141	-0.050
-97.859	-200.000	0.024	-0.392
-96.845	411.610	0.132	0.272
-95.830	6.825	0.098	-0.071
-94.816	-42.717	0.114	0.057
-93.801	447.828	-0.195	0.418
-92.786	-80.205	0.114	-0.037
-91.772	-165.772	-0.373	-0.016
-90.757	137.484	-0.127	-0.161
-89.743	47.151	0.076	-0.069
-88.728	800.000	0.051	0.205
-87.713	-85.258	0.074	0.023
-86.699	-22.411	0.038	0.023
-85.684	346.063	0.141	0.271
-84.670	-95.945	0.272	0.071
-83.655	-103.893	0.451	0.103
-82.640	-81.333	-0.096	-0.031
-81.626	800.000	0.085	0.289
-80.611	-58.353	-0.222	-0.094
-79.597	479.258	0.155	0.342
-78.582	8.183	0.096	0.070
-77.567	-44.629	-0.106	-0.051
-76.553	-93.815	0.308	-0.083
-75.538	372.313	0.153	0.302
-74.524	80.293	-0.050	0.052
-73.509	66.554	-0.125	0.123
-72.494	410.821	-0.066	0.136
-71.480	-36.688	0.195	0.102
-70.465	-200.000	-0.019	0.333
-69.451	800.000	-0.143	0.397
-68.436	-129.459	0.289	0.039
-67.422	-158.838	-0.015	-0.001
-66.407	-127.520	0.343	-0.048
-65.392	800.000	-0.064	-0.193
-64.378	-45.744	0.154	-0.074
-63.363	421.037	-0.068	-0.141
-62.349	-131.215	0.111	-0.014
-61.334	97.837	-0.930	-1.041
-60.319	56.832	0.931	0.883
-59.305	-200.000	-0.159	-0.950
-58.290	99.330	1.150	1.294
-57.276	529.303	0.618	1.421
-56.261	-200.000	120.917	628.716
-55.246	429.308	1526.108	3210.550
-54.232	149.621	2678.940	3531.693
-53.217	92.031	2265.876	2482.277
-52.203	33.344	1884.300	1591.295
-51.188	27.690	1682.418	1378.166
-50.173	25.418	1643.117	1329.129
-49.159	45.746	1709.564	1537.366
-48.144	43.716	1722.514	1533.586
-47.130	27.192	1674.335	1367.580
-46.115	24.718	1659.529	1336.958
-45.100	24.491	1654.926	1331.510
-44.086	24.449	1652.555	1329.237
-43.071	24.429	1650.073	1327.038
-42.057	24.519	1647.630	1325.690
-41.042	24.453	1645.387	1323.343
-40.027	24.484	1643.520	1322.013
-39.013	24.500	1642.191	1321.010
-37.998	24.450	1640.707	1319.401
-36.984	24.455	1639.025	1318.026
-35.969	24.524	1637.369	1317.156
-34.954	24.627	1635.860	1316.651
-33.940	24.560	1634.171	1314.745
-32.925	24.579	1632.527	1313.509
-31.911	24.517	1631.118	1311.866
-30.896	24.545	1629.132	1310.422
-29.881	24.563	1627.785	1309.418
-28.867	24.576	1626.247	1308.226
-27.852	24.658	1625.043	1307.803
-26.838	24.637	1623.353	1306.239
-25.823	24.670	1621.855	1305.222
-24.809	24.621	1620.973	1304.101
-23.794	24.544	1619.243	1302.100
-22.779	24.599	1618.181	1301.591
-21.765	24.598	1616.298	1300.021
-20.750	24.565	1614.912	1298.615
-19.736	24.651	1613.425	1297.992
-18.721	24.610	1611.937	1296.441
-17.706	24.584	1610.950	1295.410
-16.692	24.624	1608.647	1293.797
-15.677	24.599	1606.974	1292.219
-14.663	24.569	1606.645	1291.686
-13.648	24.603	1605.190	1290.710
-12.633	24.576	1603.539	1289.139
-11.619	24.585	1602.254	1288.121
-10.604	24.571	1600.948	1286.919
-9.590	24.650	1599.489	1286.259
-8.575	24.597	1598.049	1284.668
-7.560	24.617	1596.934	1283.869
-6.546	24.654	1595.670	1283.064
-5.531	24.607	1595.051	1282.177
-4.517	24.621	1593.580	1281.047
-3.502	24.560	1592.675	1279.833
-2.487	24.604	1591.150	1278.872
-1.473	24.159	1579.312	1266.141
-0.458	21.051	1560.306	1228.995
0.556	15.808	1561.847	1197.178
1.571	13.488	1585.547	1198.463
2.586	13.144	1597.042	1204.537
3.600	12.029	1543.988	1156.557
4.615	6.591	1439.014	1041.976
5.629	1.219	1380.478	965.387
6.644	0.257	1373.382	954.245
7.659	0.130	1372.066	952.448
8.673	0.191	1371.243	952.177
9.688	0.072	1369.192	949.918
10.702	-0.125	1366.391	946.651
11.717	2.684	1369.409	966.379
12.731	9.611	1379.947	1017.601
13.746	15.394	1388.457	1060.432
14.761	16.866	1389.616	1070.530
15.775	16.242	1387.919	1065.191
16.790	15.200	1385.085	1056.351
17.804	14.473	1382.968	1050.069
18.819	14.114	1381.583	1046.663
19.834	13.902	1379.971	1044.016
20.848	13.629	1379.095	1041.550
21.863	13.331	1377.917	1038.696
22.877	13.110	1377.104	1036.602
23.892	13.292	1375.631	1036.541
24.907	13.053	1375.000	1034.479
25.921	13.104	1374.283	1034.168
26.936	13.160	1373.638	1033.939
27.950	13.255	1372.055	1033.252
28.965	13.333	1371.097	1032.924
29.980	13.372	1370.111	1032.336
30.994	13.394	1369.184	1031.683
32.009	13.490	1368.115	1031.387
33.023	13.329	1367.309	1029.683
34.038	13.368	1366.057	1028.889
35.053	13.372	1364.548	1027.688
36.067	13.368	1363.655	1026.899
37.082	13.349	1362.544	1025.856
38.096	13.358	1361.703	1025.189
39.111	13.367	1360.989	1024.615
40.126	13.296	1360.358	1023.608
41.140	13.172	1359.370	1022.006
42.155	13.239	1358.574	1021.731
43.169	13.171	1359.019	1021.556
44.184	13.131	1358.663	1020.951
45.199	13.163	1358.403	1020.863
46.213	13.233	1357.284	1020.368
47.228	13.241	1356.580	1019.795
48.242	13.259	1355.680	1019.137
49.257	13.320	1353.777	1017.995
50.271	13.174	1352.535	1016.075
51.286	13.356	1350.724	1015.741
52.301	13.341	1349.778	1014.848
53.315	13.163	1349.209	1013.235
54.330	13.264	1347.852	1012.749
55.344	13.271	1346.694	1011.831
56.359	13.246	1345.485	1010.676
57.374	13.053	1345.018	1009.059
58.388	13.115	1343.654	1008.325
59.403	13.187	1343.473	1008.537
60.417	13.143	1342.388	1007.368
61.432	13.065	1341.643	1006.243
62.447	13.054	1340.833	1005.483
63.461	13.002	1339.481	1004.062
64.476	13.033	1338.204	1003.203
65.490	13.050	1336.918	1002.251
66.505	13.116	1335.515	1001.513
67.520	13.111	1334.354	1000.527
68.534	13.188	1333.096	999.960
69.549	13.230	1332.324	999.545
70.563	13.181	1330.723	997.959
71.578	12.991	1330.127	996.275
72.593	13.044	1329.181	995.803
73.607	12.964	1328.481	994.706
74.622	13.131	1327.118	994.604
75.636	13.134	1325.962	993.668
76.651	12.995	1326.010	992.775
77.666	13.048	1325.536	992.654
78.680	13.092	1325.055	992.468
79.695	13.008	1324.180	991.221
80.709	13.070	1322.742	990.429
81.724	13.125	1322.076	990.173
82.739	13.104	1321.459	989.500
83.753	13.093	1320.854	988.894
84.768	13.106	1319.623	987.959
85.782	13.232	1318.477	987.767
86.797	13.280	1316.759	986.678
87.812	13.146	1315.856	985.115
88.826	13.146	1314.288	983.854
89.841	13.248	1313.273	983.616
90.855	13.234	1312.599	982.941
91.870	13.275	1311.775	982.480
92.884	13.260	1310.790	981.568
93.899	13.282	1309.988	981.009
94.914	13.366	1309.582	981.119
95.928	13.414	1307.949	980.089
96.943	13.316	1307.032	978.740
97.957	13.260	1306.635	978.025
98.972	13.235	1305.575	976.993
99.987	13.285	1304.543	976.431
101.001	13.342	1303.176	975.656
102.016	13.259	1302.350	974.466
103.030	13.358	1301.415	974.259
104.045	13.303	1300.519	973.181
105.060	13.304	1299.371	972.242
106.074	13.239	1298.306	970.978
107.089	13.247	1296.461	969.558
108.103	13.181	1295.484	968.353
109.118	13.078	1294.317	966.794
110.133	13.187	1293.238	966.540
111.147	13.184	1291.553	965.179
112.162	13.240	1290.293	964.479
113.176	13.336	1288.819	963.852
114.191	13.271	1288.693	963.291
115.206	13.215	1287.861	962.256
116.220	13.297	1286.000	961.261
117.235	13.312	1284.804	960.369
118.249	13.283	1283.726	959.306
119.264	13.281	1282.619	958.385
120.279	13.169	1282.047	957.224
121.293	13.194	1280.978	956.484
122.308	13.102	1280.302	955.366
123.322	13.227	1278.865	954.928
124.337	13.277	1277.414	954.049
125.352	13.167	1276.561	952.697
126.366	13.172	1275.330	951.719
127.381	13.131	1274.470	950.756
128.395	13.149	1272.928	949.627
129.410	13.099	1272.375	948.845
130.424	13.084	1271.733	948.194
131.439	13.282	1270.396	948.251
132.454	13.176	1269.836	947.141
133.468	13.287	1268.666	946.821
134.483	13.297	1267.824	946.166
135.497	13.188	1266.978	944.828
136.512	13.149	1265.959	943.757
137.527	13.280	1264.156	943.078
138.541	13.279	1262.378	941.665
139.556	13.220	1261.713	940.747
140.570	13.205	1260.747	939.857
141.585	13.421	1259.040	939.733
142.600	13.321	1258.490	938.668
143.614	13.429	1257.221	938.254
144.629	13.450	1255.986	937.366
145.643	13.431	1255.030	936.464
146.658	13.332	1254.032	935.076
147.673	13.365	1252.158	933.781
148.687	13.263	1251.724	932.798
149.702	13.372	1249.938	932.001
150.716	13.398	1248.836	931.244
151.731	13.331	1247.186	929.555
152.746	13.324	1246.841	929.177
153.760	13.395	1245.358	928.384
154.775	13.431	1243.958	927.459
155.789	13.549	1243.040	927.356
156.804	13.472	1242.303	926.292
157.819	13.569	1240.693	925.555
158.833	13.566	1240.335	925.184
159.848	13.591	1239.106	924.329
160.862	13.610	1238.399	923.823
161.877	13.603	1236.623	922.381
162.892	13.372	1235.778	920.383
163.906	13.391	1235.341	920.083
164.921	13.544	1234.220	920.017
165.935	13.460	1233.573	918.987
166.950	13.582	1232.731	918.954
167.964	13.461	1231.920	917.597
168.979	13.476	1231.600	917.359
169.994	13.433	1230.830	916.464
171.008	13.631	1229.802	916.713
172.023	13.582	1229.137	915.868
173.037	13.699	1228.294	915.804
174.052	13.650	1227.491	914.854
175.067	13.634	1226.227	913.743
176.081	13.474	1225.547	912.276
177.096	13.598	1224.546	912.133
178.110	13.574	1223.108	910.846
179.125	13.648	1221.944	910.308
180.140	13.627	1220.863	909.303
181.154	13.658	1219.455	908.344
182.169	13.712	1218.300	907.699
183.183	13.746	1217.266	907.036
184.198	13.896	1215.923	906.776
185.213	13.827	1215.053	905.669
186.227	13.874	1213.782	904.896
187.242	13.850	1213.271	904.305
188.256	13.859	1212.043	903.358
189.271	13.866	1211.300	902.763
190.286	13.776	1210.070	901.279
191.300	13.766	1208.947	900.310
192.315	13.695	1208.820	899.749
193.329	13.676	1208.040	898.986
194.344	13.816	1207.176	899.023
195.359	13.793	1206.874	898.593
196.373	13.793	1206.128	897.958
197.388	13.810	1206.127	897.971
198.402	13.987	1205.356	898.273
199.417	14.017	1204.772	897.922
200.432	13.971	1203.949	896.979
201.446	14.028	1202.635	896.230
202.461	14.126	1201.549	895.865
203.475	14.079	1200.686	894.890
204.490	14.118	1199.423	894.078
205.504	14.075	1198.149	892.822
206.519	14.087	1197.151	892.064
207.534	14.010	1196.161	890.832
208.548	13.961	1195.199	889.774
209.563	14.040	1194.307	889.455
210.577	14.015	1193.738	888.817
211.592	14.020	1192.841	888.098
212.607	14.092	1192.147	887.889
213.621	14.141	1191.088	887.284
214.636	14.140	1190.032	886.411
215.650	14.108	1189.549	885.802
216.665	14.197	1188.254	885.234
217.680	14.195	1187.331	884.459
218.694	14.228	1186.533	883.963
219.709	14.255	1185.658	883.375
220.723	14.209	1184.987	882.550
221.738	14.328	1183.775	882.203
222.753	14.333	1183.571	881.999
223.767	14.369	1182.223	881.105
224.782	14.432	1181.856	881.087
225.796	14.306	1181.685	880.214
226.811	14.338	1180.924	879.740
227.826	14.482	1179.610	879.441
228.840	14.384	1179.422	878.706
229.855	14.404	1178.523	878.068
230.869	14.331	1177.949	877.176
231.884	14.404	1176.749	876.588
232.899	14.387	1175.801	875.715
233.913	14.306	1175.536	875.017
234.928	14.333	1174.563	874.357
235.942	14.448	1173.778	874.295
236.957	14.384	1173.473	873.658
237.972	14.420	1172.137	872.774
238.986	14.352	1171.518	871.877
240.001	14.270	1171.072	871.043
241.015	14.471	1169.776	871.049
242.030	14.430	1169.031	870.202
243.045	14.540	1168.716	870.467
244.059	14.559	1166.982	869.199
245.074	14.552	1166.249	868.539
246.088	14.686	1165.934	868.924
247.103	14.637	1165.040	867.928
248.117	14.631	1164.383	867.327
249.132	14.714	1163.381	866.939
250.147	14.678	1162.924	866.335
251.161	14.789	1162.319	866.379
252.176	14.790	1161.572	865.755
253.190	14.832	1161.043	865.501
254.205	14.903	1160.518	865.397
255.220	14.944	1159.468	864.753
256.234	14.941	1159.188	864.453
257.249	14.860	1158.419	863.383
258.263	14.897	1157.958	863.151
259.278	14.877	1157.602	862.709
260.293	14.993	1156.815	862.644
261.307	15.024	1155.860	862.018
262.322	15.014	1155.304	861.470
263.336	15.103	1154.570	861.307
264.351	15.057	1154.099	860.644
265.366	15.099	1153.411	860.269
266.380	14.956	1152.439	858.736
267.395	15.035	1151.780	858.571
268.409	14.999	1150.863	857.630
269.424	15.016	1150.529	857.391
270.439	14.973	1150.235	856.873
271.453	15.013	1149.194	856.230
272.468	15.083	1147.579	855.308
273.482	15.007	1147.464	854.756
274.497	15.031	1146.948	854.420
275.512	14.997	1146.393	853.758
276.526	14.976	1145.692	853.054
277.541	15.157	1144.711	853.169
278.555	15.133	1144.088	852.509
279.570	15.237	1143.117	852.239
280.585	15.305	1142.391	851.967
281.599	15.233	1141.112	850.573
282.614	15.137	1140.577	849.608
283.628	15.201	1139.285	848.899
284.643	15.221	1138.274	848.169
285.657	15.183	1137.717	847.487
286.672	15.329	1136.404	847.173
287.687	15.289	1135.332	846.098
288.701	15.289	1135.265	845.969
289.716	15.226	1134.561	845.053
290.730	15.291	1133.551	844.554
291.745	15.331	1132.711	844.055
292.760	15.294	1132.236	843.440
293.774	15.433	1131.596	843.587
294.789	15.472	1131.123	843.357
295.803	15.575	1130.253	843.148
296.818	15.533	1129.363	842.202
297.833	15.495	1128.457	841.262
298.847	15.415	1127.913	840.381
299.862	15.462	1127.089	839.927
300.876	15.357	1126.514	838.899
301.891	15.617	1125.878	839.651
302.906	15.518	1125.188	838.565
303.920	15.473	1124.653	837.868
304.935	15.614	1124.258	838.203
305.949	15.609	1123.740	837.717
306.964	15.680	1122.857	837.340
307.979	15.639	1122.089	836.487
308.993	15.650	1121.297	835.879
310.008	15.660	1120.537	835.287
311.022	15.770	1119.420	834.927
312.037	15.845	1118.567	834.590
313.052	15.653	1118.172	833.270
314.066	15.669	1117.078	832.460
315.081	15.686	1116.033	831.693
316.095	15.643	1115.774	831.212
317.110	15.607	1114.877	830.291
318.125	15.667	1114.325	830.104
319.139	15.736	1113.263	829.581
320.154	15.775	1112.734	829.303
321.168	15.686	1112.540	828.649
322.183	15.770	1111.420	828.152
323.197	15.766	1110.883	827.661
324.212	15.855	1109.965	827.344
325.227	15.826	1109.653	826.894
326.241	15.802	1109.435	826.540
327.256	15.784	1108.382	825.595
328.270	15.810	1107.189	824.761
329.285	15.758	1106.541	823.949
330.300	15.806	1105.381	823.249
331.314	15.899	1104.537	823.001
332.329	15.817	1103.635	821.855
333.343	15.874	1102.782	821.427
334.358	15.927	1101.926	820.976
335.373	16.076	1100.878	820.844
336.387	15.909	1100.474	819.659
337.402	15.918	1099.974	819.258
338.416	15.941	1099.159	818.689
339.431	15.972	1098.605	818.353
340.446	16.170	1097.815	818.655
341.460	16.166	1096.922	817.900
342.475	16.240	1095.885	817.409
343.489	16.114	1095.497	816.438
344.504	16.263	1094.174	816.103
345.519	16.249	1093.896	815.757
346.533	16.293	1092.777	815.059
347.548	16.240	1092.299	814.377
348.562	16.290	1091.128	813.672
349.577	16.258	1090.684	813.113
350.592	16.189	1090.080	812.258
351.606	16.222	1088.981	811.528
352.621	16.198	1088.429	810.930
353.635	16.011	1088.155	809.754
354.650	16.256	1087.291	810.217
355.665	16.268	1086.274	809.445
356.679	16.176	1086.215	808.886
357.694	16.283	1085.365	808.694
358.708	16.289	1084.400	807.934
359.723	16.315	1083.924	807.630
360.738	16.322	1083.390	807.198
361.752	16.356	1082.652	806.739
362.767	16.344	1081.925	806.066
363.781	16.399	1081.592	806.009
364.796	16.563	1080.650	806.019
365.810	16.488	1080.301	805.329
366.825	16.500	1079.679	804.850
367.840	16.539	1079.205	804.613
368.854	16.538	1078.548	804.049
369.869	16.608	1077.330	803.401
370.883	16.527	1076.766	802.523
371.898	16.668	1075.795	802.400
372.913	16.630	1075.678	802.061
373.927	16.652	1075.154	801.702
374.942	16.646	1074.450	801.076
375.956	16.656	1073.949	800.682
376.971	16.692	1073.387	800.361
377.986	16.681	1072.806	799.805
379.000	16.687	1072.209	799.317
380.015	16.843	1071.485	799.441
381.029	16.695	1070.851	798.202
382.044	16.810	1070.429	798.357
383.059	16.888	1069.379	797.870
384.073	16.973	1068.324	797.414
385.088	16.937	1067.560	796.603
386.102	16.946	1066.837	796.036
387.117	16.874	1065.940	794.957
388.132	16.884	1065.108	794.316
389.146	16.799	1064.496	793.390
390.161	16.762	1063.917	792.717
391.175	16.940	1062.762	792.618
392.190	16.885	1062.200	791.868
393.205	17.024	1061.319	791.790
394.219	16.912	1060.524	790.604
395.234	16.913	1059.625	789.873
396.248	16.965	1058.800	789.426
397.263	16.968	1057.938	788.729
398.278	16.844	1056.973	787.363
399.292	16.887	1056.235	786.946
400.307	16.947	1055.902	786.906
401.321	16.919	1055.375	786.314
402.336	16.872	1054.895	785.666
403.350	17.014	1053.857	785.484
404.365	16.937	1053.202	784.569
405.380	16.929	1052.641	784.042
406.394	17.069	1051.671	783.900
407.409	17.168	1050.941	783.742
408.423	17.130	1050.149	782.905
409.438	17.103	1049.880	782.511
410.453	17.226	1048.798	782.203
411.467	17.175	1048.009	781.313
412.482	17.103	1047.797	780.754
413.496	17.171	1047.351	780.663
414.511	17.268	1046.574	780.462
415.526	17.256	1046.269	780.108
416.540	17.351	1045.587	779.969
417.555	17.331	1045.176	779.502
418.569	17.440	1044.380	779.339
419.584	17.307	1043.856	778.267
420.599	17.374	1043.408	778.171
421.613	107.335	1329.257	1484.487
422.628	98.591	1370.844	1484.553
