DTS Sentinel unit serial number:	SN413079Multiplexer serial number:	ORYXHardware model number:	OX4-SRSoftware version number:	ORYX F/W v4.00 Oryx Data Collector v3.7.2.0data status	okinstallation	princeton_trtdifferential loss correction	single-endedforward channel	channel 2reverse channel	N/Adate	2019/09/15time	06:31:35forward acquisition time	60.00reverse acquisition time	0.00gamma	496.2192k internal	0.2326k external	0.2326temperature offset calibration	1.0031default loss term (dB/km)	0.3790temperature slope calibration	1.0000multiplexer offset coefficient	1.0000multiplexer slope coefficient	1.0000fibre end	0.00T internal ref (°C)	30.50T ext. ref 1 (°C)	4.81T ext. ref 2 (°C)	25.37length (m)	temperature (°C)	Stokes	anti-Stokes-747.200	6.659	-0.058	0.044
-746.185	-162.535	0.358	-0.018
-745.171	-52.817	-0.263	0.122
-744.156	-15.553	-0.212	-0.136
-743.142	-135.374	-0.270	-0.033
-742.127	288.409	0.011	-0.020
-741.112	105.677	0.143	0.171
-740.098	465.924	-0.153	0.346
-739.083	-28.681	-0.133	-0.077
-738.069	-146.631	-0.319	-0.028
-737.054	-101.876	-0.136	-0.033
-736.039	322.572	-0.088	0.170
-735.025	-67.535	0.121	0.048
-734.010	-200.000	0.038	0.223
-732.996	-131.822	-0.236	-0.031
-731.981	81.480	0.138	-0.151
-730.966	-167.437	-0.137	-0.006
-729.952	184.813	0.087	0.130
-728.937	-200.000	-0.038	-0.238
-727.923	-107.915	0.192	-0.042
-726.908	126.934	-0.097	-0.124
-725.894	-121.849	-0.383	0.064
-724.879	136.067	-0.076	-0.100
-723.864	-200.000	-0.078	0.430
-722.850	-98.291	-0.159	0.041
-721.835	213.884	0.072	0.115
-720.821	191.907	0.033	0.051
-719.806	-98.231	-0.445	0.115
-718.791	-71.535	0.028	-0.011
-717.777	-34.518	-0.339	-0.187
-716.762	-172.901	-0.179	0.006
-715.748	-36.224	-0.374	-0.203
-714.733	409.224	-0.139	-0.297
-713.718	-23.751	0.241	-0.146
-712.704	-152.257	-0.195	0.014
-711.689	624.083	0.126	-0.321
-710.675	-112.191	0.111	0.022
-709.660	-59.356	0.151	-0.065
-708.645	-6.516	0.307	0.211
-707.631	82.066	0.245	-0.267
-706.616	-84.029	-0.142	0.045
-705.602	-125.273	-0.125	-0.019
-704.587	-59.100	-0.307	-0.133
-703.572	330.793	0.129	0.251
-702.558	-103.650	0.175	0.041
-701.543	-200.000	-0.010	-0.194
-700.529	58.559	0.157	0.156
-699.514	-25.362	0.389	-0.232
-698.499	-139.069	-0.347	0.038
-697.485	-200.000	0.001	-0.060
-696.470	800.000	-0.094	-0.301
-695.456	26.460	-0.205	-0.173
-694.441	-200.000	0.015	-0.308
-693.426	-164.301	-0.340	0.016
-692.412	488.580	0.028	0.065
-691.397	800.000	-0.108	-0.310
-690.383	28.753	0.298	-0.254
-689.368	-96.167	-0.143	-0.038
-688.354	-114.678	0.221	-0.042
-687.339	-200.000	0.010	-0.173
-686.324	-200.000	-0.058	-0.267
-685.310	-54.682	-0.307	-0.140
-684.295	-87.193	0.334	-0.102
-683.281	-10.810	0.115	-0.076
-682.266	14.252	-0.178	0.139
-681.251	201.622	0.102	0.157
-680.237	260.440	0.054	-0.094
-679.222	102.290	-0.132	0.156
-678.208	135.708	0.075	0.098
-677.193	280.752	-0.062	-0.112
-676.178	-200.000	0.038	0.468
-675.164	-53.163	-0.368	-0.170
-674.149	139.846	-0.174	-0.230
-673.135	172.001	0.047	0.067
-672.120	109.835	-0.080	-0.096
-671.105	-115.206	0.209	-0.040
-670.091	149.865	0.118	-0.161
-669.076	-71.859	-0.362	0.136
-668.062	155.373	0.233	-0.322
-667.047	70.560	0.304	-0.316
-666.032	-200.000	-0.028	-0.142
-665.018	50.085	-0.204	-0.194
-664.003	800.000	-0.058	0.256
-662.989	-90.141	-0.167	0.049
-661.974	11.861	-0.200	-0.154
-660.959	-200.000	-0.020	-0.165
-659.945	-99.862	0.196	-0.049
-658.930	-67.122	-0.020	0.008
-657.916	800.000	-0.124	0.479
-656.901	-91.268	-0.229	0.066
-655.886	60.484	-0.372	-0.370
-654.872	12.184	-0.160	0.124
-653.857	800.000	-0.092	-0.361
-652.843	-82.762	0.391	-0.127
-651.828	232.964	0.090	-0.149
-650.814	414.997	0.112	0.241
-649.799	-107.514	-0.420	0.092
-648.784	-8.295	-0.262	0.177
-647.770	-13.081	-0.127	-0.083
-646.755	15.696	0.186	-0.147
-645.741	-21.776	0.069	-0.042
-644.726	-5.308	-0.207	0.143
-643.711	-157.568	-0.263	0.016
-642.697	-62.075	-0.074	0.031
-641.682	800.000	0.067	0.243
-640.668	800.000	0.047	0.147
-639.653	-13.294	-0.075	0.049
-638.638	-111.459	0.141	-0.029
-637.624	-200.000	-0.041	0.230
-636.609	-137.040	-0.209	-0.024
-635.595	-84.444	-0.183	-0.058
-634.580	-75.353	0.297	0.106
-633.565	509.275	0.144	0.336
-632.551	-69.070	-0.125	-0.048
-631.536	-98.731	-0.196	0.050
-630.522	-64.611	0.214	-0.087
-629.507	-200.000	-0.017	0.348
-628.492	-105.249	0.208	-0.048
-627.478	337.362	-0.039	-0.077
-626.463	-118.618	-0.290	0.051
-625.449	40.983	0.259	-0.235
-624.434	-200.000	0.007	-0.060
-623.419	58.148	0.160	-0.157
-622.405	-46.214	0.267	-0.132
-621.390	-67.164	-0.441	-0.174
-620.376	245.920	-0.098	-0.166
-619.361	-120.570	0.185	0.032
-618.346	296.537	0.026	0.048
-617.332	-90.843	0.291	-0.084
-616.317	800.000	0.054	0.197
-615.303	800.000	0.047	0.176
-614.288	-48.969	-0.361	-0.173
-613.273	-200.000	-0.005	-0.195
-612.259	470.545	-0.224	0.505
-611.244	-151.413	0.188	0.014
-610.230	-82.631	0.201	-0.065
-609.215	-200.000	-0.033	-0.147
-608.201	321.112	0.059	0.113
-607.186	-18.163	0.247	0.155
-606.171	-133.220	0.421	-0.053
-605.157	105.423	0.128	0.152
-604.142	176.775	-0.069	0.101
-603.128	648.940	0.102	-0.262
-602.113	-53.221	-0.239	-0.110
-601.098	-200.000	-0.009	-0.145
-600.084	800.000	-0.091	-0.363
-599.069	-200.000	-0.018	0.199
-598.055	55.204	0.248	-0.241
-597.040	51.568	-0.117	-0.111
-596.025	387.465	-0.091	0.188
-595.011	-200.000	-0.009	-0.196
-593.996	170.178	-0.093	-0.133
-592.982	-200.000	0.021	0.156
-591.967	-200.000	-0.002	-0.082
-590.952	416.472	-0.130	0.279
-589.938	-18.945	-0.138	-0.086
-588.923	-124.904	-0.242	0.037
-587.909	176.450	0.220	0.321
-586.894	800.000	-0.055	-0.222
-585.879	-165.207	-0.131	-0.006
-584.865	160.626	-0.147	0.206
-583.850	-200.000	0.024	-0.179
-582.836	-120.334	-0.157	0.027
-581.821	-69.409	0.332	-0.128
-580.806	-200.000	-0.014	-0.194
-579.792	227.043	0.232	-0.377
-578.777	123.581	-0.160	-0.202
-577.763	-15.827	0.157	-0.100
-576.748	-52.672	-0.078	0.036
-575.733	-125.246	-0.047	0.007
-574.719	52.118	-0.337	0.322
-573.704	800.000	0.065	0.197
-572.690	27.735	-0.251	-0.212
-571.675	155.603	-0.145	0.200
-570.661	800.000	-0.071	0.287
-569.646	6.210	-0.205	-0.153
-568.631	800.000	-0.102	-0.293
-567.617	97.412	0.120	0.138
-566.602	800.000	-0.080	0.259
-565.588	-29.514	0.139	0.079
-564.573	-29.655	-0.091	-0.052
-563.558	393.822	-0.094	-0.195
-562.544	-43.166	0.180	-0.091
-561.529	265.984	0.178	0.312
-560.515	-145.076	0.354	-0.032
-559.500	-121.170	-0.169	0.028
-558.485	-200.000	0.055	0.330
-557.471	152.785	-0.081	0.111
-556.456	-72.972	0.215	-0.079
-555.442	-200.000	0.030	0.453
-554.427	-47.767	-0.103	-0.050
-553.412	286.938	-0.082	-0.149
-552.398	-160.846	0.164	-0.009
-551.383	-200.000	-0.013	0.093
-550.369	800.000	-0.022	0.092
-549.354	75.562	0.263	-0.278
-548.339	-159.398	-0.259	0.014
-547.325	16.067	-0.196	0.155
-546.310	143.388	0.092	0.123
-545.296	445.970	-0.119	0.261
-544.281	-200.000	-0.003	-0.112
-543.266	-145.785	-0.166	0.015
-542.252	-200.000	0.063	0.352
-541.237	-135.490	0.217	-0.026
-540.223	800.000	0.076	-0.293
-539.208	-16.979	0.081	0.051
-538.193	518.876	0.078	-0.183
-537.179	-166.361	-0.120	0.005
-536.164	800.000	0.032	-0.128
-535.150	-140.305	-0.231	-0.024
-534.135	-30.431	-0.083	0.047
-533.121	-200.000	0.032	0.408
-532.106	624.013	-0.096	-0.242
-531.091	621.454	0.071	-0.180
-530.077	-134.282	0.143	-0.018
-529.062	132.586	0.128	-0.166
-528.048	-12.642	0.206	0.134
-527.033	-200.000	0.027	-0.258
-526.018	13.777	-0.137	-0.107
-525.004	215.009	-0.179	0.284
-523.989	-161.905	-0.282	-0.014
-522.975	173.811	0.012	0.017
-521.960	-78.328	0.283	-0.097
-520.945	41.430	-0.300	-0.272
-519.931	-101.857	0.329	-0.080
-518.916	-124.143	0.174	0.027
-517.902	-159.278	0.188	-0.011
-516.887	584.796	-0.084	0.207
-515.872	-34.602	-0.263	0.144
-514.858	14.946	0.138	-0.108
-513.843	-7.172	-0.313	-0.212
-512.829	-175.390	-0.266	-0.007
-511.814	220.556	-0.167	-0.267
-510.799	-79.837	0.252	0.085
-509.785	-80.558	-0.289	0.096
-508.770	-62.345	-0.147	-0.061
-507.756	-5.631	0.168	-0.115
-506.741	800.000	0.101	0.330
-505.726	48.645	0.167	0.157
-504.712	-2.210	0.158	0.111
-503.697	-200.000	0.006	0.136
-502.683	293.966	-0.038	-0.070
-501.668	-129.030	-0.414	-0.058
-500.653	55.680	0.204	0.198
-499.639	280.263	0.052	-0.092
-498.624	34.206	-0.224	-0.195
-497.610	-200.000	-0.050	0.318
-496.595	800.000	0.051	0.183
-495.581	32.682	0.042	-0.036
-494.566	-200.000	0.014	0.082
-493.551	66.831	0.188	-0.191
-492.537	26.182	0.367	-0.306
-491.522	90.933	-0.132	0.148
-490.508	-89.943	-0.251	-0.073
-489.493	-100.244	-0.116	-0.029
-488.478	800.000	-0.052	0.198
-487.464	-200.000	0.003	-0.167
-486.449	44.929	-0.105	-0.096
-485.435	800.000	0.043	0.123
-484.420	800.000	0.058	0.207
-483.405	-78.927	0.121	0.041
-482.391	-75.963	-0.205	-0.072
-481.376	-43.972	-0.300	-0.151
-480.362	118.062	0.186	-0.229
-479.347	728.207	-0.043	0.114
-478.332	40.371	-0.177	-0.159
-477.318	366.129	-0.037	-0.075
-476.303	-135.856	-0.145	-0.017
-475.289	-13.713	0.033	0.021
-474.274	250.981	0.129	-0.218
-473.259	173.072	-0.064	-0.093
-472.245	387.919	0.124	0.257
-471.230	-151.707	-0.229	0.017
-470.216	493.158	0.031	0.071
-469.201	-21.816	0.065	0.040
-468.186	-47.897	0.027	0.013
-467.172	-53.744	-0.087	-0.040
-466.157	-23.667	0.107	-0.064
-465.143	-18.789	-0.051	0.032
-464.128	-200.000	-0.002	0.214
-463.113	-70.090	0.192	0.073
-462.099	-63.821	0.182	-0.074
-461.084	-120.482	0.333	0.056
-460.070	800.000	-0.075	0.224
-459.055	635.105	-0.014	0.036
-458.040	734.185	0.097	-0.259
-457.026	220.128	-0.197	-0.315
-456.011	8.261	-0.156	-0.117
-454.997	-129.195	0.451	0.063
-453.982	260.720	-0.201	0.347
-452.968	-200.000	-0.017	-0.129
-451.953	800.000	-0.045	-0.190
-450.938	90.905	-0.170	0.191
-449.924	-64.099	-0.075	-0.030
-448.909	-23.379	-0.244	-0.146
-447.895	-54.319	-0.225	0.102
-446.880	598.038	0.100	0.246
-445.865	-200.000	-0.022	0.323
-444.851	-53.811	0.176	-0.080
-443.836	-200.000	0.013	-0.357
-442.822	139.762	0.115	-0.151
-441.807	800.000	0.083	-0.243
-440.792	-15.793	0.161	0.102
-439.778	242.699	-0.247	0.413
-438.763	-117.853	0.069	0.012
-437.749	595.446	-0.077	-0.191
-436.734	32.735	-0.218	-0.188
-435.719	85.284	0.049	0.054
-434.705	252.464	0.220	0.373
-433.690	-73.800	0.203	0.073
-432.676	-200.000	-0.064	-0.543
-431.661	759.732	-0.173	0.468
-430.646	118.414	-0.318	0.391
-429.632	-117.487	0.199	-0.036
-428.617	-116.757	-0.086	0.016
-427.603	-151.685	0.194	-0.014
-426.588	8.713	-0.211	0.159
-425.573	370.469	-0.125	-0.252
-424.559	-17.739	-0.126	0.079
-423.544	-20.491	-0.251	-0.154
-422.530	-4.908	-0.100	0.069
-421.515	-148.025	-0.025	0.002
-420.500	-57.756	-0.107	-0.047
-419.486	-26.180	-0.115	-0.067
-418.471	514.276	-0.079	0.184
-417.457	800.000	0.049	0.164
-416.442	-112.736	-0.105	-0.021
-415.428	-35.580	0.047	0.026
-414.413	-95.855	-0.132	0.035
-413.398	291.109	0.044	-0.079
-412.384	-200.000	0.031	-0.198
-411.369	-51.871	-0.246	-0.114
-410.355	-29.864	0.278	-0.158
-409.340	-200.000	-0.043	-0.229
-408.325	-200.000	0.010	-0.339
-407.311	-200.000	0.045	0.229
-406.296	222.334	-0.121	0.193
-405.282	442.600	-0.083	-0.181
-404.267	187.567	0.184	-0.273
-403.252	-69.693	0.174	-0.066
-402.238	-79.631	-0.246	-0.083
-401.223	88.977	0.098	-0.108
-400.209	-102.756	0.212	0.050
-399.194	-24.292	-0.401	-0.238
-398.179	267.231	-0.069	-0.119
-397.165	-49.372	0.443	-0.210
-396.150	-200.000	-0.071	0.438
-395.136	82.202	0.191	0.207
-394.121	-22.867	0.155	-0.093
-393.106	4.563	0.151	-0.110
-392.092	-153.893	0.164	-0.011
-391.077	-75.212	-0.179	0.064
-390.063	50.355	-0.093	0.087
-389.048	11.212	-0.296	-0.225
-388.033	-200.000	0.003	-0.110
-387.019	185.119	-0.123	-0.181
-386.004	292.635	-0.202	0.366
-384.990	800.000	0.034	0.142
-383.975	-140.927	0.230	0.024
-382.960	-86.782	-0.258	-0.078
-381.946	130.020	0.260	-0.330
-380.931	128.327	0.240	-0.304
-379.917	-95.939	0.339	-0.090
-378.902	-73.027	0.323	-0.118
-377.888	300.840	0.244	-0.447
-376.873	-11.199	0.293	0.192
-375.858	321.909	-0.074	0.139
-374.844	303.729	-0.089	0.164
-373.829	152.277	-0.192	-0.261
-372.815	-200.000	-0.024	-0.176
-371.800	189.858	-0.051	0.076
-370.785	7.814	0.266	-0.198
-369.771	800.000	-0.062	-0.199
-368.756	54.487	-0.066	-0.064
-367.742	180.855	0.045	0.066
-366.727	127.490	-0.263	0.332
-365.712	-48.927	-0.295	-0.140
-364.698	-200.000	-0.014	-0.127
-363.683	-200.000	-0.062	0.292
-362.669	69.882	-0.065	0.066
-361.654	-18.015	-0.201	0.125
-360.639	-133.955	0.267	0.033
-359.625	800.000	0.037	0.156
-358.610	753.500	0.107	-0.288
-357.596	200.463	0.234	-0.358
-356.581	46.112	0.091	-0.083
-355.566	-106.906	0.050	0.011
-354.552	-80.235	0.461	-0.153
-353.537	65.857	0.247	0.249
-352.523	173.268	0.121	0.174
-351.508	-152.087	-0.247	-0.018
-350.493	75.846	-0.131	-0.137
-349.479	-172.271	0.120	0.004
-348.464	560.602	0.037	-0.088
-347.450	-127.089	0.215	0.031
-346.435	800.000	0.057	-0.185
-345.420	-68.801	0.072	-0.027
-344.406	124.672	0.218	-0.272
-343.391	239.486	-0.036	0.060
-342.377	331.874	0.025	0.047
-341.362	-80.081	-0.119	0.040
-340.348	18.668	0.145	-0.115
-339.333	-56.127	0.027	-0.012
-338.318	800.000	-0.100	0.397
-337.304	-29.712	0.084	-0.048
-336.289	-200.000	0.015	0.148
-335.275	-200.000	0.052	-0.328
-334.260	-200.000	0.001	-0.131
-333.245	800.000	0.100	0.348
-332.231	1.545	0.255	-0.182
-331.216	-153.810	-0.481	0.033
-330.202	-98.689	0.406	0.103
-329.187	-132.162	0.327	-0.042
-328.172	-200.000	-0.038	-0.166
-327.158	18.047	-0.123	-0.097
-326.143	800.000	-0.098	0.277
-325.129	800.000	0.025	-0.069
-324.114	-47.168	-0.382	-0.185
-323.099	-60.630	0.353	-0.148
-322.085	-38.603	-0.407	-0.213
-321.070	-200.000	0.041	0.194
-320.056	-160.160	0.336	-0.018
-319.041	43.765	-0.048	-0.044
-318.026	585.412	-0.103	0.251
-317.012	800.000	0.070	-0.255
-315.997	-110.403	-0.209	-0.043
-314.983	800.000	-0.074	-0.211
-313.968	66.470	0.148	-0.149
-312.953	562.688	0.130	-0.312
-311.939	571.148	0.132	-0.319
-310.924	-146.934	-0.284	-0.024
-309.910	92.311	0.108	0.121
-308.895	-200.000	0.023	-0.340
-307.880	107.137	0.006	-0.007
-306.866	-66.189	-0.160	-0.063
-305.851	-22.852	0.079	0.047
-304.837	-48.161	0.082	0.039
-303.822	-147.605	-0.090	0.008
-302.807	-40.144	0.197	-0.102
-301.793	695.846	-0.101	0.262
-300.778	-16.024	0.053	0.033
-299.764	-147.718	-0.407	-0.034
-298.749	-133.988	-0.217	-0.027
-297.735	750.204	0.100	-0.268
-296.720	-129.835	0.019	0.003
-295.705	296.263	-0.092	0.168
-294.691	17.747	0.092	-0.073
-293.676	-43.294	-0.170	-0.085
-292.662	655.299	0.075	0.190
-291.647	136.448	-0.180	0.233
-290.632	208.364	-0.026	0.040
-289.618	-39.604	0.051	0.026
-288.603	-160.720	-0.367	-0.019
-287.589	800.000	0.030	0.084
-286.574	800.000	0.019	-0.057
-285.559	-124.716	-0.161	-0.025
-284.545	-26.500	0.126	0.073
-283.530	220.274	-0.121	0.193
-282.516	-77.788	0.347	0.119
-281.501	-54.899	-0.357	-0.159
-280.486	800.000	-0.025	0.080
-279.472	-153.582	0.332	-0.023
-278.457	-19.469	0.159	0.098
-277.443	-85.076	0.257	0.080
-276.428	-65.893	0.120	0.048
-275.413	9.638	0.199	0.149
-274.399	112.076	-0.117	0.140
-273.384	273.288	0.120	-0.209
-272.370	-83.201	0.285	0.091
-271.355	569.574	0.026	0.062
-270.340	-200.000	0.071	-0.342
-269.326	335.746	0.173	0.333
-268.311	-78.675	0.163	-0.055
-267.297	-128.340	-0.216	-0.030
-266.282	68.417	0.226	-0.229
-265.267	-59.731	-0.227	0.096
-264.253	-19.788	0.169	-0.104
-263.238	-200.000	0.034	-0.198
-262.224	-8.779	-0.174	0.115
-261.209	163.066	0.035	-0.049
-260.195	-200.000	0.009	0.077
-259.180	800.000	-0.025	0.109
-258.165	701.076	0.138	-0.360
-257.151	6.207	0.167	0.123
-256.136	756.434	0.104	-0.279
-255.122	-200.000	-0.005	0.282
-254.107	800.000	-0.090	-0.327
-253.092	-43.979	-0.192	-0.096
-252.078	123.087	0.154	0.191
-251.063	38.673	-0.184	0.162
-250.049	800.000	-0.084	-0.287
-249.034	-53.054	0.051	0.023
-248.019	713.306	0.139	0.365
-247.005	-116.641	-0.075	0.014
-245.990	-200.000	-0.006	0.075
-244.976	-200.000	-0.002	0.190
-243.961	-13.368	0.142	0.091
-242.946	-65.970	0.310	0.123
-241.932	103.368	-0.033	-0.038
-240.917	316.420	-0.169	-0.316
-239.903	357.649	-0.099	-0.195
-238.888	-19.425	0.322	0.197
-237.873	800.000	-0.092	0.295
-236.859	239.278	0.138	0.228
-235.844	-117.772	-0.138	-0.025
-234.830	669.456	-0.101	0.258
-233.815	-200.000	-0.023	0.189
-232.800	79.591	-0.272	0.288
-231.786	-49.334	-0.162	-0.076
-230.771	636.412	-0.012	0.030
-229.757	-94.062	0.287	-0.078
-228.742	-1.601	-0.014	0.010
-227.727	-26.119	0.231	0.134
-226.713	-44.619	-0.051	0.025
-225.698	-200.000	-0.053	0.314
-224.684	800.000	-0.087	0.326
-223.669	800.000	-0.074	0.236
-222.655	113.630	-0.277	0.333
-221.640	-68.461	-0.212	0.081
-220.625	-80.392	0.151	0.050
-219.611	-114.909	-0.036	-0.007
-218.596	800.000	-0.061	0.229
-217.582	-47.612	-0.173	-0.083
-216.567	-200.000	0.010	0.300
-215.552	114.879	-0.209	0.252
-214.538	369.169	-0.034	0.067
-213.523	800.000	-0.059	0.183
-212.509	79.557	-0.229	0.243
-211.494	584.287	0.103	-0.250
-210.479	-64.201	-0.038	0.015
-209.465	-38.793	0.105	-0.055
-208.450	487.002	-0.109	-0.246
-207.436	-200.000	0.001	0.095
-206.421	-29.527	-0.204	0.115
-205.406	5.832	-0.109	0.079
-204.392	199.811	0.068	-0.103
-203.377	87.439	-0.103	0.113
-202.363	-115.252	0.046	0.009
-201.348	800.000	-0.027	-0.096
-200.333	436.808	0.150	-0.322
-199.319	-11.158	0.123	-0.080
-198.304	218.164	0.151	0.237
-197.290	800.000	-0.083	0.349
-196.275	-120.998	-0.163	-0.027
-195.260	195.790	-0.177	-0.265
-194.246	-44.316	-0.011	-0.006
-193.231	-200.000	-0.031	0.323
-192.217	-58.235	-0.177	0.076
-191.202	-200.000	0.023	0.181
-190.187	-200.000	0.007	-0.308
-189.173	490.125	0.077	0.174
-188.158	-56.350	0.126	-0.055
-187.144	277.692	-0.084	0.148
-186.129	99.306	-0.239	-0.272
-185.114	196.163	-0.112	0.168
-184.100	306.249	0.068	-0.124
-183.085	93.776	0.177	-0.198
-182.071	-25.327	-0.113	-0.066
-181.056	-144.931	-0.213	-0.019
-180.042	142.857	-0.260	-0.341
-179.027	64.445	-0.161	0.160
-178.012	-20.955	0.094	0.057
-176.998	-13.400	0.088	-0.057
-175.983	-24.604	0.223	0.131
-174.969	-96.610	0.079	-0.021
-173.954	-200.000	0.000	-0.104
-172.939	-45.209	0.084	-0.041
-171.925	688.238	-0.033	-0.085
-170.910	36.474	-0.074	0.064
-169.896	-190.689	0.255	-0.003
-168.881	65.177	-0.084	-0.084
-167.866	132.819	0.369	-0.469
-166.852	35.359	0.089	0.077
-165.837	-200.000	-0.026	0.154
-164.823	-172.407	0.301	0.009
-163.808	800.000	-0.053	-0.198
-162.793	-200.000	0.039	-0.171
-161.779	800.000	-0.046	-0.186
-160.764	-200.000	0.001	0.096
-159.750	-192.641	0.263	-0.002
-158.735	32.727	0.272	0.232
-157.720	-200.000	0.022	-0.238
-156.706	-200.000	0.380	-0.002
-155.691	-112.758	0.137	0.027
-154.677	800.000	0.045	0.170
-153.662	-117.885	-0.128	0.023
-152.647	-77.021	-0.157	-0.054
-151.633	-85.074	-0.250	-0.077
-150.618	800.000	0.045	0.147
-149.604	254.004	0.173	-0.291
-148.589	115.206	-0.184	-0.221
-147.574	-200.000	0.036	-0.202
-146.560	135.775	0.103	-0.132
-145.545	466.670	0.136	0.300
-144.531	-107.367	-0.120	-0.026
-143.516	800.000	-0.031	-0.115
-142.502	800.000	-0.091	-0.346
-141.487	243.023	-0.124	0.205
-140.472	97.365	0.159	0.180
-139.458	153.582	-0.109	-0.147
-138.443	-129.636	0.052	-0.007
-137.429	-200.000	-0.003	0.172
-136.414	-200.000	-0.009	0.110
-135.399	442.604	-0.065	0.140
-134.385	-200.000	0.010	-0.126
-133.370	-84.707	0.173	-0.054
-132.356	13.434	0.306	-0.234
-131.341	21.892	-0.147	-0.118
-130.326	71.687	0.155	-0.159
-129.312	-140.128	0.158	-0.016
-128.297	-113.448	-0.116	-0.022
-127.283	317.045	-0.059	0.110
-126.268	-105.190	0.095	-0.021
-125.253	-200.000	-0.045	-0.219
-124.239	18.739	-0.185	-0.146
-123.224	-200.000	-0.062	0.367
-122.210	149.310	0.109	0.145
-121.195	-63.163	0.171	-0.069
-120.180	-145.443	-0.304	-0.027
-119.166	-67.495	0.387	-0.149
-118.151	-200.000	-0.021	-0.143
-117.137	739.511	-0.063	0.167
-116.122	-11.721	-0.343	0.222
-115.107	-43.815	0.306	-0.152
-114.093	-200.000	0.003	-0.118
-113.078	-17.247	0.180	0.112
-112.064	-56.526	0.312	-0.136
-111.049	-153.163	0.430	0.030
-110.034	-45.676	0.181	0.088
-109.020	-4.180	-0.132	-0.090
-108.005	-200.000	0.017	0.215
-106.991	359.608	-0.129	-0.253
-105.976	-73.713	-0.170	-0.061
-104.962	-113.030	0.297	0.058
-103.947	-113.348	-0.276	0.053
-102.932	-80.050	0.068	-0.023
-101.918	46.953	0.125	0.115
-100.903	-107.568	0.267	-0.058
-99.889	-200.000	-0.027	-0.268
-98.874	-108.973	-0.138	0.029
-97.859	-16.980	0.204	0.126
-96.845	800.000	-0.189	0.535
-95.830	-200.000	-0.031	0.256
-94.816	-109.007	0.042	0.009
-93.801	9.055	0.089	0.066
-92.786	8.989	-0.296	-0.220
-91.772	-68.259	0.243	-0.093
-90.757	-135.199	0.218	0.026
-89.743	36.441	-0.270	0.234
-88.728	289.321	-0.034	-0.061
-87.713	-6.536	0.274	0.184
-86.699	-111.564	-0.069	0.014
-85.684	-200.000	0.038	0.247
-84.670	159.281	0.195	0.267
-83.655	800.000	-0.077	0.324
-82.640	58.175	0.073	0.070
-81.626	483.969	0.127	0.283
-80.611	8.853	0.157	-0.117
-79.597	-87.546	-0.038	0.011
-78.582	-7.784	0.111	-0.073
-77.567	800.000	-0.015	-0.055
-76.553	-121.924	-0.334	0.054
-75.538	800.000	-0.108	-0.405
-74.524	-94.324	0.244	0.066
-73.509	800.000	-0.129	0.418
-72.494	154.498	0.191	0.257
-71.480	-62.857	0.420	0.171
-70.465	185.429	0.097	-0.141
-69.451	108.107	-0.110	0.128
-68.436	800.000	0.080	-0.229
-67.422	-128.592	0.104	-0.014
-66.407	206.121	-0.089	-0.136
-65.392	-200.000	0.035	-0.254
-64.378	-117.525	-0.382	-0.068
-63.363	-87.903	-0.157	-0.046
-62.349	114.788	0.184	-0.220
-61.334	97.594	-0.933	-1.053
-60.319	254.842	0.296	0.498
-59.305	800.000	-0.401	-1.585
-58.290	157.981	0.784	1.068
-57.276	329.974	0.772	1.459
-56.261	-200.000	102.935	597.733
-55.246	563.264	1439.190	3420.940
-54.232	185.265	2637.781	3844.087
-53.217	110.442	2282.671	2693.279
-52.203	39.892	1898.014	1673.038
-51.188	33.721	1686.488	1439.890
-50.173	31.116	1643.100	1383.505
-49.159	50.039	1694.607	1569.779
-48.144	50.609	1711.002	1589.193
-47.130	33.274	1669.360	1421.680
-46.115	30.569	1654.957	1389.181
-45.100	30.484	1650.275	1384.562
-44.086	30.395	1647.829	1381.792
-43.071	30.340	1645.017	1378.969
-42.057	30.394	1642.563	1377.259
-41.042	30.474	1640.373	1375.956
-40.027	30.320	1638.963	1373.583
-39.013	30.389	1636.488	1371.965
-37.998	30.387	1634.951	1370.609
-36.984	30.397	1633.597	1369.486
-35.969	30.483	1632.828	1369.424
-34.954	30.532	1630.713	1367.955
-33.940	30.440	1629.622	1366.310
-32.925	30.527	1627.443	1365.072
-31.911	30.536	1625.646	1363.574
-30.896	30.571	1623.853	1362.271
-29.881	30.419	1622.596	1360.051
-28.867	30.547	1620.137	1358.869
-27.852	30.426	1619.728	1357.593
-26.838	30.479	1617.999	1356.471
-25.823	30.527	1616.328	1355.366
-24.809	30.634	1614.930	1354.923
-23.794	30.497	1613.485	1352.660
-22.779	30.469	1612.575	1351.639
-21.765	30.489	1610.533	1350.016
-20.750	30.519	1608.622	1348.581
-19.736	30.627	1607.351	1348.244
-18.721	30.486	1606.492	1346.453
-17.706	30.585	1604.412	1345.367
-16.692	30.532	1602.922	1343.684
-15.677	30.555	1601.518	1342.616
-14.663	30.531	1600.905	1341.877
-13.648	30.460	1599.615	1340.231
-12.633	30.588	1597.211	1339.089
-11.619	30.493	1595.765	1337.140
-10.604	30.541	1594.435	1336.314
-9.590	30.488	1593.464	1335.068
-8.575	30.491	1591.882	1333.707
-7.560	30.583	1590.934	1333.524
-6.546	30.543	1589.903	1332.320
-5.531	30.478	1589.257	1331.263
-4.517	30.488	1587.213	1329.566
-3.502	30.480	1586.918	1329.209
-2.487	30.664	1584.879	1328.764
-1.473	30.322	1572.919	1316.255
-0.458	27.492	1554.211	1280.687
0.556	23.369	1554.998	1250.264
1.571	21.059	1578.937	1252.827
2.586	20.658	1592.478	1260.555
3.600	18.511	1539.707	1203.620
4.615	11.573	1432.395	1074.163
5.629	5.710	1372.068	991.812
6.644	4.906	1364.548	981.227
7.659	4.718	1363.427	979.154
8.673	4.795	1362.293	978.735
9.688	4.811	1360.739	977.637
10.702	4.663	1357.447	974.259
11.717	7.327	1363.209	995.043
12.731	14.281	1375.315	1047.690
13.746	18.834	1381.792	1081.247
14.761	18.596	1380.871	1078.934
15.775	17.651	1378.336	1070.922
16.790	16.587	1375.239	1061.748
17.804	15.767	1373.266	1054.993
18.819	15.388	1372.156	1051.670
19.834	15.186	1370.570	1049.099
20.848	15.010	1369.039	1046.728
21.863	14.727	1368.275	1044.287
22.877	14.583	1366.653	1042.053
23.892	14.610	1365.988	1041.625
24.907	14.473	1365.480	1040.291
25.921	14.473	1364.445	1039.409
26.936	14.603	1363.402	1039.330
27.950	14.595	1362.422	1038.446
28.965	14.671	1361.545	1038.155
29.980	14.781	1359.999	1037.570
30.994	14.904	1358.764	1037.297
32.009	14.783	1358.182	1036.013
33.023	14.919	1356.467	1035.456
34.038	14.849	1355.409	1034.124
35.053	14.644	1354.237	1031.869
36.067	14.718	1353.011	1031.298
37.082	14.738	1352.102	1030.642
38.096	14.785	1351.111	1030.084
39.111	14.747	1350.411	1029.222
40.126	14.763	1348.989	1028.149
41.140	14.651	1347.992	1026.605
42.155	14.454	1347.889	1025.227
43.169	14.492	1348.063	1025.504
44.184	14.487	1347.751	1025.142
45.199	14.442	1347.303	1024.437
46.213	14.536	1346.433	1024.262
47.228	14.673	1345.283	1024.136
48.242	14.675	1344.703	1023.618
49.257	14.655	1343.161	1022.232
50.271	14.614	1341.755	1020.819
51.286	14.632	1340.871	1020.162
52.301	14.609	1338.934	1018.462
53.315	14.658	1337.755	1017.774
54.330	14.544	1337.155	1016.533
55.344	14.533	1335.801	1015.345
56.359	14.528	1335.019	1014.632
57.374	14.561	1333.688	1013.730
58.388	14.553	1332.534	1012.714
59.403	14.456	1332.875	1012.296
60.417	14.405	1331.964	1011.203
61.432	14.380	1331.241	1010.411
62.447	14.292	1330.330	1009.097
63.461	14.303	1329.284	1008.281
64.476	14.322	1327.831	1007.206
65.490	14.372	1326.651	1006.525
66.505	14.320	1325.160	1004.993
67.520	14.384	1323.677	1004.164
68.534	14.449	1322.943	1003.908
69.549	14.488	1321.813	1003.200
70.563	14.378	1320.864	1001.726
71.578	14.297	1319.525	1000.138
72.593	14.243	1318.696	999.093
73.607	14.152	1317.924	997.875
74.622	14.216	1316.789	997.311
75.636	14.171	1316.911	997.045
76.651	14.313	1315.662	996.863
77.666	14.225	1315.584	996.191
78.680	14.278	1314.908	995.906
79.695	14.306	1314.187	995.438
80.709	14.418	1313.146	995.230
81.724	14.417	1312.962	995.000
82.739	14.483	1312.155	994.694
83.753	14.668	1311.037	994.857
84.768	14.658	1309.937	993.879
85.782	14.752	1308.762	993.456
86.797	14.714	1307.721	992.354
87.812	14.586	1306.374	990.485
88.826	14.549	1305.310	989.367
89.841	14.721	1304.450	989.649
90.855	14.697	1303.531	988.724
91.870	14.681	1302.797	987.983
92.884	14.723	1301.324	987.028
93.899	14.789	1300.801	986.933
94.914	14.799	1300.150	986.408
95.928	14.836	1299.298	985.892
96.943	14.736	1298.704	984.765
97.957	14.750	1297.532	983.875
98.972	14.750	1296.495	983.001
99.987	14.722	1295.097	981.687
101.001	14.748	1294.330	981.176
102.016	14.703	1293.343	980.077
103.030	14.727	1293.047	979.906
104.045	14.638	1291.725	978.293
105.060	14.705	1290.152	977.407
106.074	14.483	1288.953	975.117
107.089	14.401	1287.679	973.587
108.103	14.440	1286.058	972.501
109.118	14.430	1285.101	971.635
110.133	14.243	1284.232	969.801
111.147	14.404	1282.841	969.605
112.162	14.423	1281.290	968.452
113.176	14.528	1280.128	968.097
114.191	14.483	1279.266	967.103
115.206	14.485	1278.333	966.321
116.220	14.517	1277.033	965.438
117.235	14.587	1275.741	964.779
118.249	14.508	1274.957	963.646
119.264	14.552	1273.483	962.703
120.279	14.442	1273.098	961.691
121.293	14.434	1271.412	960.287
122.308	14.295	1271.170	959.217
123.322	14.406	1269.599	958.584
124.337	14.329	1268.741	957.411
125.352	14.468	1267.232	956.985
126.366	14.314	1266.336	955.342
127.381	14.397	1265.341	954.982
128.395	14.413	1264.086	954.040
129.410	14.375	1263.400	953.219
130.424	14.439	1262.826	953.070
131.439	14.510	1261.717	952.555
132.454	14.541	1260.853	951.997
133.468	14.598	1259.871	951.493
134.483	14.569	1259.424	950.909
135.497	14.664	1257.956	950.253
136.512	14.538	1256.941	948.691
137.527	14.623	1255.299	947.848
138.541	14.546	1254.477	946.709
139.556	14.582	1253.135	945.812
140.570	14.799	1251.935	946.052
141.585	14.788	1250.741	945.005
142.600	14.795	1249.510	944.032
143.614	14.775	1249.312	943.684
144.629	14.792	1247.362	942.223
145.643	14.771	1246.543	941.402
146.658	14.736	1245.084	940.022
147.673	14.761	1243.415	938.818
148.687	14.697	1242.683	937.827
149.702	14.677	1241.313	936.598
150.716	14.528	1240.202	934.840
151.731	14.540	1239.039	933.946
152.746	14.568	1238.116	933.327
153.760	14.677	1237.330	933.257
154.775	14.716	1236.125	932.488
155.789	14.848	1234.806	932.144
156.804	14.766	1233.777	930.828
157.819	14.902	1232.749	930.728
158.833	14.894	1232.120	930.125
159.848	14.965	1231.142	929.700
160.862	14.971	1229.700	928.559
161.877	14.824	1228.947	927.093
162.892	14.730	1227.921	925.717
163.906	14.804	1226.850	925.241
164.921	14.734	1226.067	924.178
165.935	14.883	1225.180	924.253
166.950	14.863	1224.695	923.694
167.964	14.884	1223.976	923.185
168.979	14.842	1223.172	922.265
169.994	14.945	1222.229	922.040
171.008	14.726	1221.893	920.499
172.023	14.904	1220.921	920.665
173.037	14.995	1219.886	920.305
174.052	14.950	1219.302	919.535
175.067	14.833	1217.962	917.800
176.081	14.855	1217.281	917.325
177.096	14.842	1216.286	916.427
178.110	14.840	1215.080	915.423
179.125	14.973	1213.480	914.868
180.140	14.856	1212.766	913.606
181.154	14.911	1211.557	912.913
182.169	14.890	1210.429	911.871
183.183	15.096	1208.899	911.760
184.198	15.072	1207.876	910.778
185.213	15.013	1206.937	909.666
186.227	15.193	1205.429	909.425
187.242	15.110	1204.835	908.448
188.256	15.236	1203.797	908.269
189.271	15.130	1203.452	907.354
190.286	15.126	1201.775	905.986
191.300	14.960	1200.698	904.199
192.315	14.840	1200.039	902.972
193.329	14.761	1199.528	902.082
194.344	14.994	1198.645	902.594
195.359	15.011	1198.317	902.361
196.373	15.085	1198.461	902.788
197.388	15.187	1197.654	902.650
198.402	15.198	1197.418	902.450
199.417	15.430	1196.334	902.804
200.432	15.445	1195.832	902.422
201.446	15.349	1195.019	901.217
202.461	15.413	1193.992	900.705
203.475	15.591	1192.861	900.728
204.490	15.366	1191.880	898.701
205.504	15.337	1190.586	897.491
206.519	15.258	1189.366	896.066
207.534	15.354	1188.155	895.589
208.548	15.373	1187.155	894.855
209.563	15.364	1186.506	894.239
210.577	15.272	1186.162	893.413
211.592	15.508	1184.868	893.615
212.607	15.348	1184.685	892.549
213.621	15.467	1183.453	892.171
214.636	15.551	1182.182	891.578
215.650	15.519	1181.393	890.736
216.665	15.542	1180.288	889.946
217.680	15.574	1179.438	889.399
218.694	15.659	1178.485	889.049
219.709	15.539	1178.431	888.294
220.723	15.605	1177.506	887.869
221.738	15.526	1176.841	886.870
222.753	15.637	1175.989	886.738
223.767	15.642	1175.083	885.998
224.782	15.683	1174.884	885.986
225.796	15.697	1174.404	885.623
226.811	15.801	1173.069	885.083
227.826	15.675	1172.092	883.605
228.840	15.679	1171.802	883.332
229.855	15.603	1171.326	882.494
230.869	15.667	1170.248	881.939
231.884	15.664	1169.183	881.042
232.899	15.529	1168.506	879.747
233.913	15.641	1167.603	879.577
234.928	15.479	1167.334	878.446
235.942	15.547	1166.218	877.884
236.957	15.585	1165.593	877.538
237.972	15.661	1165.170	877.539
238.986	15.660	1163.968	876.548
240.001	15.643	1163.474	876.009
241.015	15.712	1162.410	875.491
242.030	15.657	1162.201	874.972
243.045	15.714	1161.097	874.356
244.059	15.820	1160.241	874.185
245.074	15.778	1159.552	873.374
246.088	15.791	1158.844	872.828
247.103	15.849	1157.621	872.131
248.117	15.920	1157.255	872.144
249.132	16.111	1156.490	872.481
250.147	16.136	1156.066	872.211
251.161	16.164	1155.139	871.580
252.176	16.197	1154.416	871.127
253.190	16.234	1154.103	871.005
254.205	16.322	1153.305	870.782
255.220	16.319	1152.739	870.261
256.234	16.333	1152.111	869.783
257.249	16.268	1151.188	868.674
258.263	16.314	1150.716	868.477
259.278	16.354	1149.896	867.989
260.293	16.334	1149.416	867.443
261.307	16.408	1149.139	867.541
262.322	16.371	1148.651	866.902
263.336	16.510	1147.422	866.611
264.351	16.528	1146.788	866.150
265.366	16.495	1146.532	865.711
266.380	16.438	1145.881	864.852
267.395	16.414	1144.912	863.920
268.409	16.380	1144.021	862.997
269.424	16.408	1143.537	862.701
270.439	16.396	1142.834	862.033
271.453	16.402	1142.049	861.393
272.468	16.236	1141.089	859.749
273.482	16.329	1140.408	859.634
274.497	16.379	1140.031	859.527
275.512	16.322	1139.482	858.743
276.526	16.355	1138.320	857.959
277.541	16.425	1137.581	857.684
278.555	16.483	1136.814	857.326
279.570	16.501	1136.311	856.958
280.585	16.560	1135.758	856.765
281.599	16.586	1134.632	855.973
282.614	16.551	1133.723	855.034
283.628	16.616	1132.683	854.505
284.643	16.510	1131.481	852.987
285.657	16.512	1130.755	852.374
286.672	16.527	1129.779	851.638
287.687	16.670	1128.653	851.430
288.701	16.620	1128.077	850.669
289.716	16.658	1127.658	850.473
290.730	16.609	1126.927	849.598
291.745	16.677	1126.110	849.249
292.760	16.625	1125.590	848.521
293.774	16.699	1124.889	848.287
294.789	16.828	1124.390	848.481
295.803	16.812	1123.606	847.736
296.818	16.697	1122.900	846.551
297.833	16.647	1122.095	845.622
298.847	16.792	1121.199	845.595
299.862	16.776	1120.878	845.199
300.876	16.872	1119.791	844.781
301.891	16.912	1119.309	844.544
302.906	16.947	1118.535	844.057
303.920	16.963	1117.985	843.650
304.935	16.878	1117.677	842.919
305.949	17.061	1116.941	843.197
306.964	17.114	1116.328	842.925
307.979	17.058	1114.992	841.563
308.993	16.992	1114.464	840.761
310.008	16.960	1114.131	840.279
311.022	17.015	1113.157	839.742
312.037	17.009	1112.179	838.902
313.052	17.060	1111.090	838.255
314.066	17.048	1110.214	837.461
315.081	16.920	1109.257	836.035
316.095	16.866	1109.188	835.644
317.110	16.892	1108.147	834.913
318.125	16.879	1107.276	834.116
319.139	16.854	1106.993	833.709
320.154	16.911	1106.146	833.277
321.168	16.932	1105.773	833.026
322.183	16.910	1105.372	832.542
323.197	16.998	1104.396	832.165
324.212	17.031	1103.641	831.686
325.227	17.059	1103.211	831.424
326.241	17.013	1102.290	830.429
327.256	17.064	1101.442	829.969
328.270	17.011	1101.006	829.305
329.285	16.953	1100.096	828.264
330.300	17.122	1099.018	828.205
331.314	16.961	1098.114	826.665
332.329	17.132	1096.959	826.552
333.343	17.041	1096.188	825.456
334.358	17.246	1095.388	825.777
335.373	17.166	1094.933	824.975
336.387	17.193	1094.467	824.681
337.402	17.211	1093.305	823.821
338.416	17.312	1092.357	823.524
339.431	17.354	1091.882	823.294
340.446	17.374	1091.466	823.002
341.460	17.499	1090.942	823.143
342.475	17.475	1090.059	822.288
343.489	17.452	1089.516	821.693
344.504	17.556	1088.336	821.230
345.519	17.568	1087.568	820.636
346.533	17.580	1086.823	820.058
347.548	17.597	1086.350	819.711
348.562	17.590	1085.372	818.868
349.577	17.558	1084.372	817.886
350.592	17.539	1083.258	816.884
351.606	17.363	1083.009	815.779
352.621	17.406	1082.686	815.672
353.635	17.419	1081.377	814.676
354.650	17.470	1080.460	814.155
355.665	17.508	1080.063	813.966
356.679	17.439	1079.742	813.323
357.694	17.558	1078.940	813.214
358.708	17.635	1078.360	813.073
359.723	17.585	1077.585	812.177
360.738	17.670	1077.095	812.140
361.752	17.622	1076.662	811.515
362.767	17.579	1076.596	811.188
363.781	17.679	1075.456	810.736
364.796	17.719	1074.803	810.361
365.810	17.758	1074.398	810.168
366.825	17.841	1073.473	809.794
367.840	17.985	1072.736	809.848
368.854	18.040	1072.465	809.832
369.869	17.982	1071.622	808.851
370.883	17.885	1071.064	807.899
371.898	17.786	1070.263	806.756
372.913	17.928	1069.478	806.763
373.927	17.940	1069.099	806.463
374.942	17.995	1068.720	806.362
375.956	17.799	1068.534	805.228
376.971	18.040	1067.295	805.356
377.986	17.975	1066.987	804.746
379.000	17.985	1066.538	804.383
380.015	18.077	1065.993	804.335
381.029	18.099	1065.311	803.853
382.044	18.042	1064.715	803.062
383.059	18.006	1063.841	802.165
384.073	18.123	1062.790	801.849
385.088	18.246	1061.881	801.672
386.102	18.176	1061.160	800.727
387.117	18.136	1060.109	799.676
388.132	18.032	1059.120	798.372
389.146	18.093	1058.698	798.268
390.161	18.054	1057.683	797.252
391.175	18.145	1057.025	797.110
392.190	18.127	1056.630	796.658
393.205	18.218	1055.566	796.210
394.219	18.291	1054.675	795.803
395.234	18.160	1054.194	794.764
396.248	18.138	1053.119	793.779
397.263	18.100	1052.144	792.800
398.278	18.064	1051.250	791.887
399.292	18.207	1050.432	791.862
400.307	18.073	1049.729	790.646
401.321	18.046	1049.005	789.902
402.336	18.007	1048.864	789.546
403.350	18.155	1048.062	789.557
404.365	18.154	1047.156	788.802
405.380	18.125	1046.244	787.909
406.394	18.297	1045.693	788.218
407.409	18.380	1044.862	787.903
408.423	18.426	1044.347	787.654
409.438	18.362	1044.090	787.098
410.453	18.509	1043.266	787.084
411.467	18.476	1042.500	786.282
412.482	18.520	1041.978	786.021
413.496	18.586	1040.856	785.408
414.511	18.574	1040.660	785.134
415.526	18.732	1040.107	785.372
416.540	18.782	1039.472	785.052
417.555	18.639	1039.054	784.013
418.569	18.744	1038.722	784.173
419.584	18.648	1038.145	783.231
420.599	18.669	1037.704	782.923
421.613	150.705	1402.279	1796.761
422.628	137.710	1455.372	1796.844
