DTS Sentinel unit serial number:	SN413079Multiplexer serial number:	ORYXHardware model number:	OX4-SRSoftware version number:	ORYX F/W v4.00 Oryx Data Collector v3.7.2.0data status	okinstallation	princeton_trtdifferential loss correction	single-endedforward channel	channel 2reverse channel	N/Adate	2019/09/11time	01:01:11forward acquisition time	60.00reverse acquisition time	0.00gamma	496.2192k internal	0.2332k external	0.2332temperature offset calibration	0.9944default loss term (dB/km)	0.3790temperature slope calibration	1.0000multiplexer offset coefficient	1.0000multiplexer slope coefficient	1.0000fibre end	0.00T internal ref (°C)	29.14T ext. ref 1 (°C)	-0.31T ext. ref 2 (°C)	22.92length (m)	temperature (°C)	Stokes	anti-Stokes-747.200	35.888	0.290	-0.257
-746.185	-62.395	-0.058	-0.024
-745.171	-73.975	0.076	0.028
-744.156	-13.972	-0.159	0.103
-743.142	10.451	0.144	0.110
-742.127	-15.531	0.343	-0.221
-741.112	628.768	0.029	-0.073
-740.098	2.682	0.299	-0.218
-739.083	-140.415	0.044	0.005
-738.069	-200.000	0.062	0.366
-737.054	117.746	0.104	0.129
-736.039	104.459	0.090	-0.106
-735.025	-200.000	0.028	0.286
-734.010	-140.691	-0.229	-0.024
-732.996	620.233	-0.129	-0.327
-731.981	-22.580	0.505	-0.307
-730.966	31.183	-0.283	-0.244
-729.952	800.000	-0.069	0.254
-728.937	-38.338	-0.066	0.035
-727.923	-28.464	0.133	0.077
-726.908	-135.551	-0.176	0.021
-725.894	-114.097	-0.266	-0.052
-724.879	-200.000	0.010	0.087
-723.864	-200.000	0.009	0.175
-722.850	12.893	-0.070	-0.054
-721.835	583.994	-0.030	0.075
-720.821	-89.291	0.056	-0.017
-719.806	246.196	0.111	-0.188
-718.791	800.000	0.111	-0.324
-717.777	427.856	0.097	-0.209
-716.762	-34.786	0.135	0.074
-715.748	-200.000	-0.008	-0.214
-714.733	110.656	-0.212	0.256
-713.718	-60.455	-0.140	0.060
-712.704	276.237	0.135	-0.242
-711.689	800.000	0.016	-0.046
-710.675	-6.142	0.298	0.205
-709.660	800.000	0.017	-0.050
-708.645	-23.575	-0.231	0.139
-707.631	-29.076	-0.124	-0.072
-706.616	459.450	-0.121	0.271
-705.602	-200.000	0.079	0.379
-704.587	800.000	0.071	-0.228
-703.572	-147.465	-0.349	0.030
-702.558	79.015	0.160	-0.172
-701.543	-170.139	0.240	0.009
-700.529	-47.994	-0.157	-0.076
-699.514	800.000	0.131	-0.417
-698.499	-115.923	-0.481	0.090
-697.485	-200.000	-0.024	-0.115
-696.470	-28.625	-0.148	-0.085
-695.456	800.000	-0.102	0.328
-694.441	-200.000	0.037	-0.246
-693.426	27.937	0.125	0.106
-692.412	515.469	0.045	-0.105
-691.397	144.266	0.097	0.130
-690.383	-200.000	-0.017	0.296
-689.368	-110.525	0.328	-0.068
-688.354	-186.575	-0.299	-0.004
-687.339	-48.934	0.114	-0.055
-686.324	181.239	-0.022	0.033
-685.310	124.557	0.323	-0.408
-684.295	100.048	-0.307	-0.357
-683.281	-117.455	-0.135	0.025
-682.266	194.835	-0.160	0.244
-681.251	800.000	-0.056	-0.182
-680.237	130.077	0.159	-0.204
-679.222	195.031	-0.040	-0.061
-678.208	514.925	-0.161	0.376
-677.193	-140.127	0.351	0.037
-676.178	611.406	0.098	0.245
-675.164	-200.000	0.004	0.028
-674.149	-57.600	-0.138	0.061
-673.135	49.334	0.130	-0.123
-672.120	764.941	0.058	-0.158
-671.105	-200.000	0.021	0.093
-670.091	365.660	0.097	-0.196
-669.076	800.000	-0.094	-0.268
-668.062	-30.161	-0.259	0.147
-667.047	-200.000	0.006	0.345
-666.032	-51.865	-0.132	-0.062
-665.018	420.701	0.211	-0.453
-664.003	300.213	-0.120	-0.221
-662.989	-106.666	-0.264	0.059
-661.974	-84.611	0.078	-0.025
-660.959	70.842	0.080	0.083
-659.945	133.130	-0.191	0.247
-658.930	25.560	-0.130	-0.109
-657.916	-170.426	0.158	0.006
-656.901	138.530	-0.285	0.375
-655.886	282.967	0.025	0.045
-654.872	-112.140	0.336	-0.068
-653.857	800.000	-0.047	-0.180
-652.843	33.391	0.106	-0.092
-651.828	-200.000	-0.006	-0.336
-650.814	-78.771	0.085	0.029
-649.799	-200.000	-0.003	0.268
-648.784	-163.126	0.296	-0.014
-647.770	-159.498	-0.251	0.014
-646.755	12.808	-0.194	0.150
-645.741	645.061	-0.140	-0.359
-644.726	-200.000	-0.095	-0.492
-643.711	3.413	-0.444	0.324
-642.697	118.307	-0.028	0.035
-641.682	298.931	0.239	-0.441
-640.668	-50.692	-0.195	-0.092
-639.653	-110.880	-0.274	0.057
-638.638	280.613	0.032	-0.058
-637.624	800.000	-0.022	-0.095
-636.609	199.521	0.141	0.217
-635.595	119.787	-0.272	-0.338
-634.580	-200.000	0.007	0.129
-633.565	338.046	-0.188	0.367
-632.551	-121.287	-0.162	0.027
-631.536	-17.973	-0.252	-0.158
-630.522	-63.687	0.248	0.102
-629.507	-200.000	0.009	0.096
-628.492	482.195	0.105	-0.239
-627.478	-51.054	0.211	0.099
-626.463	188.328	-0.109	-0.163
-625.449	21.031	-0.104	0.085
-624.434	115.178	0.079	0.097
-623.419	-200.000	-0.020	0.238
-622.405	73.563	0.032	-0.033
-621.390	-43.559	0.141	-0.071
-620.376	800.000	-0.062	-0.263
-619.361	-41.774	-0.362	0.186
-618.346	-200.000	0.003	-0.043
-617.332	766.770	0.015	-0.041
-616.317	800.000	-0.115	-0.334
-615.303	-142.491	-0.173	-0.017
-614.288	-200.000	0.006	0.061
-613.273	305.417	-0.101	0.187
-612.259	3.643	0.360	0.263
-611.244	-19.075	-0.275	-0.171
-610.230	-200.000	-0.003	-0.262
-609.215	800.000	0.059	0.211
-608.201	762.967	0.115	-0.313
-607.186	233.625	-0.126	0.207
-606.171	-96.466	0.068	0.018
-605.157	-200.000	0.065	-0.383
-604.142	1.784	0.129	-0.093
-603.128	426.834	-0.102	0.219
-602.113	288.571	0.030	0.053
-601.098	26.601	0.315	-0.264
-600.084	75.465	0.232	0.245
-599.069	184.983	-0.207	0.308
-598.055	-200.000	-0.003	-0.170
-597.040	800.000	-0.108	-0.336
-596.025	-105.986	0.080	0.018
-595.011	-200.000	0.027	-0.148
-593.996	-180.415	-0.060	-0.001
-592.982	34.954	0.150	0.131
-591.967	-126.269	-0.250	-0.037
-590.952	-200.000	0.029	-0.166
-589.938	-69.320	-0.080	0.031
-588.923	-35.465	-0.134	-0.073
-587.909	-200.000	-0.062	0.482
-586.894	-93.472	-0.215	-0.059
-585.879	324.213	-0.160	0.306
-584.865	800.000	0.040	0.140
-583.850	675.087	-0.063	-0.162
-582.836	-180.367	0.596	-0.012
-581.821	-200.000	0.064	-0.287
-580.806	-85.326	-0.131	-0.041
-579.792	-101.411	-0.406	-0.099
-578.777	-5.571	0.249	-0.171
-577.763	-176.144	0.201	0.005
-576.748	-200.000	-0.001	-0.158
-575.733	79.766	-0.183	0.197
-574.719	-113.847	0.304	0.059
-573.704	-200.000	0.014	-0.071
-572.690	-144.593	-0.282	-0.026
-571.675	800.000	0.100	0.307
-570.661	43.495	0.070	-0.064
-569.646	54.860	0.135	0.130
-568.631	50.939	-0.040	0.038
-567.617	-200.000	-0.071	0.466
-566.602	60.246	0.165	0.163
-565.588	-29.628	0.143	-0.081
-564.573	-117.561	0.189	0.034
-563.558	599.499	0.049	-0.122
-562.544	-101.425	0.285	0.069
-561.529	69.165	-0.254	-0.261
-560.515	105.766	-0.382	0.452
-559.500	409.428	0.172	0.363
-558.485	-126.436	-0.333	0.050
-557.471	-30.767	0.335	-0.189
-556.456	39.424	-0.072	-0.064
-555.442	14.799	-0.132	-0.103
-554.427	31.921	0.121	-0.104
-553.412	800.000	0.073	-0.273
-552.398	-16.170	0.216	-0.137
-551.383	-142.199	-0.110	-0.011
-550.369	-35.608	0.214	0.116
-549.354	-65.114	0.086	-0.035
-548.339	151.051	-0.083	0.113
-547.325	160.341	0.047	0.065
-546.310	257.420	0.096	-0.165
-545.296	25.805	0.312	-0.259
-544.281	-200.000	-0.024	-0.127
-543.266	-20.315	-0.300	-0.184
-542.252	-200.000	-0.029	-0.167
-541.237	-200.000	-0.016	-0.422
-540.223	84.602	0.177	-0.193
-539.208	800.000	-0.035	-0.112
-538.193	27.506	-0.199	0.167
-537.179	800.000	-0.058	0.216
-536.164	-200.000	-0.004	-0.097
-535.150	-124.621	0.213	0.033
-534.135	301.223	-0.150	-0.277
-533.121	20.217	0.275	0.221
-532.106	-61.862	-0.094	-0.039
-531.091	-137.859	0.373	0.042
-530.077	-121.751	0.134	0.022
-529.062	100.370	0.119	-0.138
-528.048	-200.000	-0.021	-0.404
-527.033	-200.000	0.007	0.173
-526.018	-200.000	-0.009	0.054
-525.004	295.487	0.030	-0.054
-523.989	-160.813	0.376	-0.020
-522.975	-168.476	0.320	-0.012
-521.960	800.000	-0.018	-0.063
-520.945	-200.000	-0.045	-0.223
-519.931	264.577	0.203	-0.352
-518.916	39.701	0.145	0.130
-517.902	800.000	-0.064	0.182
-516.887	537.927	-0.034	-0.081
-515.872	-27.635	0.135	0.078
-514.858	-67.856	-0.487	0.190
-513.843	153.051	0.114	-0.155
-512.829	-90.810	-0.080	0.023
-511.814	0.914	-0.128	-0.092
-510.799	134.697	0.137	-0.178
-509.785	-200.000	-0.015	-0.128
-508.770	-200.000	-0.002	0.153
-507.756	127.870	-0.235	-0.298
-506.741	84.082	-0.011	-0.012
-505.726	-68.676	-0.192	-0.074
-504.712	106.126	-0.110	-0.130
-503.697	-26.352	-0.152	0.089
-502.683	45.266	0.056	-0.052
-501.668	-200.000	0.015	-0.330
-500.653	-35.784	0.141	-0.076
-499.639	-200.000	-0.012	0.204
-498.624	-37.564	0.091	0.048
-497.610	800.000	-0.077	0.328
-496.595	-157.362	-0.218	-0.013
-495.581	800.000	0.021	0.066
-494.566	707.297	0.024	-0.062
-493.551	-40.579	-0.075	0.039
-492.537	-157.109	0.424	-0.026
-491.522	484.678	-0.118	-0.268
-490.508	-200.000	0.012	-0.252
-489.493	-97.342	0.178	-0.046
-488.478	286.139	0.145	0.261
-487.464	-59.372	-0.182	-0.078
-486.449	-116.787	0.171	0.031
-485.435	508.292	-0.126	0.292
-484.420	-145.172	-0.350	-0.032
-483.405	103.677	-0.156	0.182
-482.391	800.000	-0.067	0.272
-481.376	171.889	-0.100	-0.143
-480.362	-90.864	-0.177	-0.051
-479.347	-116.776	0.164	-0.030
-478.332	-200.000	-0.004	-0.109
-477.318	-110.149	-0.145	-0.030
-476.303	159.162	0.133	-0.185
-475.289	-200.000	-0.050	-0.353
-474.274	44.154	0.054	0.049
-473.259	12.456	-0.246	-0.188
-472.245	725.182	-0.065	-0.173
-471.230	72.295	0.096	0.099
-470.216	800.000	-0.048	0.185
-469.201	-142.156	-0.275	0.027
-468.186	80.478	0.245	0.262
-467.172	-114.253	0.244	-0.047
-466.157	-193.083	-0.060	0.001
-465.143	800.000	-0.079	0.252
-464.128	-109.389	0.352	-0.074
-463.113	-113.457	0.388	-0.076
-462.099	505.038	0.046	0.106
-461.084	-105.879	-0.136	-0.031
-460.070	-86.834	0.152	0.046
-459.055	64.638	-0.122	0.123
-458.040	56.900	0.201	-0.194
-457.026	-35.072	0.065	-0.035
-456.011	800.000	-0.071	0.248
-454.997	130.244	-0.221	0.282
-453.982	79.566	-0.146	-0.156
-452.968	-105.478	-0.252	-0.057
-451.953	-189.242	0.209	0.002
-450.938	-50.199	-0.106	-0.050
-449.924	683.852	-0.120	-0.311
-448.909	-136.700	0.176	0.020
-447.895	223.673	0.158	0.253
-446.880	336.866	0.018	0.036
-445.865	45.230	0.290	0.266
-444.851	-20.110	0.173	0.106
-443.836	-62.786	-0.033	0.013
-442.822	-200.000	-0.158	0.000
-441.807	-200.000	-0.006	0.369
-440.792	-130.825	0.159	-0.021
-439.778	-200.000	-0.005	0.093
-438.763	104.744	-0.055	-0.065
-437.749	-200.000	-0.025	-0.203
-436.734	800.000	-0.033	-0.098
-435.719	283.912	-0.133	0.238
-434.705	-200.000	0.026	0.125
-433.690	-90.823	-0.488	0.140
-432.676	-200.000	-0.041	0.295
-431.661	-52.305	-0.156	-0.072
-430.646	501.222	0.114	-0.262
-429.632	370.110	0.029	0.059
-428.617	506.486	-0.099	-0.229
-427.603	529.017	0.098	0.229
-426.588	93.568	-0.158	0.178
-425.573	-170.906	0.374	0.013
-424.559	-86.445	-0.055	-0.017
-423.544	33.025	-0.229	0.197
-422.530	800.000	-0.066	0.218
-421.515	-200.000	-0.031	-0.208
-420.500	-92.765	-0.138	-0.038
-419.486	-200.000	0.003	-0.100
-418.471	-154.233	-0.176	-0.012
-417.457	800.000	0.033	-0.141
-416.442	551.768	0.051	0.122
-415.428	506.943	0.025	0.058
-414.413	42.643	0.125	-0.113
-413.398	-200.000	0.035	-0.235
-412.384	-200.000	0.009	0.194
-411.369	59.626	-0.205	0.201
-410.355	68.694	0.273	0.278
-409.340	194.533	-0.105	0.158
-408.325	31.676	-0.113	-0.096
-407.311	116.537	-0.162	-0.197
-406.296	54.780	-0.156	0.150
-405.282	-34.728	-0.138	-0.075
-404.267	-200.000	-0.025	-0.198
-403.252	-120.258	-0.310	-0.053
-402.238	-123.155	-0.114	0.018
-401.223	-32.347	-0.336	0.186
-400.209	-129.387	0.331	-0.046
-399.194	-24.852	-0.304	-0.179
-398.179	-200.000	-0.019	-0.186
-397.165	-168.908	-0.198	0.007
-396.150	-66.978	0.027	0.010
-395.136	245.896	-0.184	-0.307
-394.121	-100.855	0.384	-0.094
-393.106	211.791	0.132	-0.206
-392.092	313.093	-0.188	-0.351
-391.077	41.274	-0.057	0.051
-390.063	-75.410	-0.070	-0.025
-389.048	51.349	-0.068	0.064
-388.033	-59.250	0.310	-0.132
-387.019	76.461	-0.010	0.011
-386.004	-171.802	-0.295	-0.010
-384.990	111.087	0.051	0.061
-383.975	101.750	-0.115	0.133
-382.960	-15.114	-0.283	-0.180
-381.946	-1.732	-0.056	-0.039
-380.931	800.000	-0.025	-0.103
-379.917	-200.000	0.014	-0.066
-378.902	8.979	-0.231	-0.173
-377.888	272.058	0.085	0.148
-376.873	667.455	0.108	0.278
-375.858	-112.781	0.454	0.089
-374.844	-200.000	-0.034	-0.293
-373.829	800.000	-0.075	0.206
-372.815	800.000	0.016	-0.044
-371.800	-194.055	0.385	0.003
-370.785	-200.000	0.006	-0.126
-369.771	-52.834	-0.436	-0.199
-368.756	-100.805	-0.221	0.054
-367.742	-200.000	-0.087	-0.000
-366.727	-55.831	-0.132	-0.059
-365.712	781.277	0.116	0.315
-364.698	298.303	-0.183	-0.333
-363.683	47.992	-0.330	0.306
-362.669	204.079	-0.025	-0.038
-361.654	800.000	-0.095	-0.265
-360.639	262.274	0.024	0.042
-359.625	19.974	-0.052	-0.041
-358.610	54.361	0.102	0.097
-357.596	-100.807	0.070	-0.017
-356.581	-55.204	-0.068	0.030
-355.566	154.998	0.142	-0.194
-354.552	312.423	-0.051	-0.094
-353.537	397.609	0.185	0.384
-352.523	-117.177	-0.237	0.043
-351.508	155.478	-0.094	0.129
-350.493	-118.150	0.453	0.080
-349.479	800.000	0.079	0.325
-348.464	-58.817	-0.552	-0.236
-347.450	800.000	-0.144	-0.454
-346.435	388.274	-0.077	0.157
-345.420	-67.850	0.168	0.065
-344.406	-18.310	0.206	-0.127
-343.391	-200.000	-0.044	0.204
-342.377	-200.000	0.022	-0.156
-341.362	-74.668	0.053	0.019
-340.348	-17.310	0.279	0.174
-339.333	-135.252	0.194	-0.023
-338.318	-200.000	-0.037	0.436
-337.304	56.494	-0.040	-0.038
-336.289	601.659	-0.094	-0.230
-335.275	338.375	-0.120	0.231
-334.260	82.528	-0.288	0.310
-333.245	800.000	-0.048	0.205
-332.231	593.092	-0.128	-0.313
-331.216	100.426	0.210	0.241
-330.202	800.000	0.036	-0.143
-329.187	-111.431	0.055	0.011
-328.172	800.000	-0.066	0.285
-327.158	-200.000	0.006	-0.204
-326.143	-200.000	-0.017	0.133
-325.129	-41.846	-0.087	-0.044
-324.114	683.655	-0.132	-0.340
-323.099	-200.000	0.148	0.696
-322.085	215.308	-0.195	0.307
-321.070	-200.000	0.029	0.127
-320.056	482.626	0.034	-0.077
-319.041	99.280	0.163	-0.187
-318.026	268.828	-0.059	-0.103
-317.012	-49.459	0.230	-0.108
-315.997	39.370	0.203	0.180
-314.983	234.982	-0.061	0.099
-313.968	29.554	0.148	-0.125
-312.953	67.631	-0.199	-0.201
-311.939	-103.895	0.194	-0.045
-310.924	71.159	0.205	-0.210
-309.910	-35.372	-0.356	-0.191
-308.895	-103.881	0.126	-0.029
-307.880	-200.000	-0.065	-0.411
-306.866	-200.000	-0.021	-0.149
-305.851	74.254	0.298	0.309
-304.837	153.296	0.036	-0.048
-303.822	-200.000	0.009	-0.062
-302.807	43.469	-0.152	0.137
-301.793	45.772	-0.101	0.092
-300.778	-52.461	-0.087	-0.040
-299.764	800.000	-0.030	0.090
-298.749	-27.470	0.161	-0.092
-297.735	-20.509	-0.260	0.158
-296.720	-63.796	0.275	0.111
-295.705	800.000	-0.109	0.347
-294.691	-200.000	0.035	0.205
-293.676	137.414	0.298	0.385
-292.662	-146.085	0.176	0.015
-291.647	6.717	0.134	0.098
-290.632	51.593	-0.192	0.181
-289.618	800.000	0.068	0.221
-288.603	-60.103	-0.098	0.041
-287.589	380.195	-0.129	0.261
-286.574	-200.000	-0.029	-0.189
-285.559	-200.000	0.002	0.288
-284.545	220.074	-0.095	-0.151
-283.530	-127.496	0.106	0.015
-282.516	776.822	-0.174	0.471
-281.501	800.000	-0.034	-0.115
-280.486	-33.105	0.185	0.101
-279.472	-107.940	0.338	-0.073
-278.457	138.743	0.019	-0.024
-277.443	-115.956	0.421	-0.078
-276.428	-200.000	-0.263	0.001
-275.413	-96.122	0.226	0.059
-274.399	-63.781	-0.531	0.215
-273.384	758.397	0.105	0.281
-272.370	250.106	-0.224	-0.376
-271.355	800.000	0.031	-0.132
-270.340	-130.158	-0.102	0.014
-269.326	12.447	-0.086	0.065
-268.311	-61.969	-0.150	-0.062
-267.297	0.613	0.271	-0.192
-266.282	289.774	-0.130	-0.233
-265.267	444.379	-0.123	-0.267
-264.253	800.000	-0.046	-0.180
-263.238	-200.000	-0.076	0.342
-262.224	134.572	0.094	0.120
-261.209	14.982	0.142	-0.110
-260.195	-51.443	-0.094	0.043
-259.180	69.185	0.262	0.266
-258.165	195.856	0.127	0.190
-257.151	101.394	-0.107	-0.123
-256.136	-200.000	0.016	-0.208
-255.122	65.934	0.067	-0.067
-254.107	-111.636	0.337	-0.067
-253.092	13.929	0.101	0.078
-252.078	223.348	0.140	0.223
-251.063	354.154	-0.091	0.179
-250.049	-6.811	0.173	0.116
-249.034	-200.000	0.101	-0.443
-248.019	-24.786	-0.081	-0.047
-247.005	184.994	-0.134	0.196
-245.990	37.467	0.190	0.166
-244.976	11.611	0.151	-0.114
-243.961	367.199	-0.009	-0.017
-242.946	213.543	0.094	0.147
-241.932	-52.140	0.223	-0.102
-240.917	-200.000	0.006	-0.130
-239.903	-200.000	-0.046	-0.384
-238.888	-68.083	0.008	0.003
-237.873	68.412	-0.206	-0.208
-236.859	-67.760	-0.230	-0.089
-235.844	-100.885	0.101	-0.024
-234.830	-154.302	0.079	0.005
-233.815	800.000	0.114	0.462
-232.800	800.000	0.114	-0.386
-231.786	303.594	0.169	-0.308
-230.771	160.581	-0.144	0.198
-229.757	-77.990	0.325	-0.111
-228.742	404.053	-0.118	-0.244
-227.727	279.653	0.196	0.345
-226.713	-190.847	-0.023	0.000
-225.698	800.000	0.027	-0.075
-224.684	74.169	-0.175	-0.182
-223.669	258.262	-0.223	-0.379
-222.655	800.000	-0.021	-0.072
-221.640	-15.108	-0.267	0.169
-220.625	315.992	-0.078	0.145
-219.611	151.130	0.132	0.177
-218.596	-124.583	-0.081	-0.012
-217.582	800.000	0.081	0.265
-216.567	-182.250	0.237	-0.004
-215.552	66.878	-0.048	-0.048
-214.538	-89.513	-0.437	-0.126
-213.523	11.098	0.085	0.064
-212.509	52.184	0.297	-0.279
-211.494	-100.389	0.194	0.047
-210.479	-125.287	-0.133	0.020
-209.465	-133.887	0.309	-0.038
-208.450	800.000	0.081	-0.267
-207.436	800.000	-0.058	-0.227
-206.421	-200.000	-0.008	0.232
-205.406	748.415	-0.065	-0.172
-204.392	102.686	-0.281	0.324
-203.377	-200.000	0.025	0.341
-202.363	338.050	-0.036	-0.070
-201.348	-200.000	-0.022	-0.159
-200.333	-118.871	-0.320	0.055
-199.319	64.933	-0.167	0.166
-198.304	800.000	-0.112	0.317
-197.290	-200.000	0.023	0.258
-196.275	-119.243	0.017	-0.003
-195.260	54.900	0.129	0.123
-194.246	800.000	-0.064	0.207
-193.231	254.828	0.056	-0.094
-192.217	800.000	-0.011	0.038
-191.202	36.861	0.060	-0.052
-190.187	-200.000	0.028	-0.679
-189.173	-89.736	-0.178	-0.051
-188.158	-101.959	-0.038	0.009
-187.144	213.658	0.090	0.140
-186.129	-102.865	-0.297	-0.070
-185.114	-68.057	0.126	0.048
-184.100	-72.160	0.093	0.034
-183.085	-200.000	0.021	0.182
-182.071	800.000	0.031	0.098
-181.056	269.041	-0.013	-0.023
-180.042	16.490	0.213	0.166
-179.027	656.775	-0.084	-0.212
-178.012	675.138	0.060	0.153
-176.998	40.385	0.116	-0.103
-175.983	-74.026	0.235	-0.084
-174.969	-200.000	-0.013	0.186
-173.954	0.118	0.385	0.270
-172.939	-200.000	-0.003	-0.467
-171.925	-142.711	0.466	0.045
-170.910	-8.083	0.066	0.043
-169.896	782.265	-0.128	-0.345
-168.881	112.616	0.311	-0.371
-167.866	-106.964	-0.259	0.056
-166.852	-61.874	0.156	0.064
-165.837	348.728	-0.125	0.243
-164.823	0.570	0.107	0.075
-163.808	-49.397	-0.230	0.108
-162.793	64.143	-0.217	0.215
-161.779	-55.016	0.198	-0.088
-160.764	-23.972	-0.161	0.095
-159.750	113.186	-0.100	-0.120
-158.735	-61.132	0.310	0.128
-157.720	29.694	0.260	0.218
-156.706	-68.681	0.128	-0.049
-155.691	252.676	-0.029	0.049
-154.677	241.406	-0.072	-0.119
-153.662	-62.277	-0.147	-0.060
-152.647	-88.943	0.226	-0.066
-151.633	800.000	0.085	0.270
-150.618	800.000	-0.073	0.224
-149.604	122.863	-0.034	-0.042
-148.589	-200.000	-0.030	0.171
-147.574	-200.000	-0.001	-0.075
-146.560	446.911	0.110	-0.238
-145.545	-132.592	-0.377	-0.048
-144.531	146.941	-0.090	0.119
-143.516	317.037	-0.123	0.229
-142.502	-30.060	-0.128	0.072
-141.487	-56.103	0.185	0.081
-140.472	-102.613	0.239	-0.056
-139.458	34.002	0.133	0.114
-138.443	-200.000	0.037	0.357
-137.429	252.944	0.101	-0.169
-136.414	-2.007	-0.304	-0.210
-135.399	-200.000	0.026	-0.161
-134.385	63.064	-0.094	0.093
-133.370	800.000	-0.176	0.495
-132.356	-86.443	-0.166	-0.050
-131.341	-200.000	-0.011	-0.097
-130.326	800.000	-0.031	-0.100
-129.312	190.917	-0.101	-0.149
-128.297	800.000	0.081	-0.331
-127.283	-110.148	0.299	-0.061
-126.268	-3.185	0.075	-0.051
-125.253	800.000	-0.038	0.119
-124.239	56.407	-0.096	0.091
-123.224	25.729	0.155	0.127
-122.210	-73.877	0.269	-0.096
-121.195	204.928	-0.110	0.168
-120.180	191.471	-0.283	0.419
-119.166	142.696	0.058	0.076
-118.151	-45.167	-0.203	0.099
-117.137	214.652	-0.082	-0.127
-116.122	41.287	-0.156	-0.138
-115.107	-6.559	0.248	0.166
-114.093	-16.901	0.127	0.078
-113.078	121.162	-0.166	0.203
-112.064	-200.000	0.009	-0.143
-111.049	-74.975	0.195	-0.069
-110.034	372.846	0.058	-0.115
-109.020	-77.169	0.225	0.077
-108.005	150.803	-0.160	-0.213
-106.991	138.893	0.079	-0.101
-105.976	435.865	-0.089	-0.191
-104.962	-97.263	0.109	0.028
-103.947	7.330	0.288	-0.211
-102.932	173.098	-0.104	-0.148
-101.918	800.000	-0.052	0.163
-100.903	80.516	-0.158	0.167
-99.889	-149.505	-0.211	0.016
-98.874	-36.545	-0.390	0.206
-97.859	-149.700	0.143	0.011
-96.845	-200.000	0.018	-0.081
-95.830	-96.654	-0.139	-0.036
-94.816	799.315	-0.116	-0.313
-93.801	487.465	0.073	-0.164
-92.786	-200.000	0.290	0.001
-91.772	705.928	-0.143	0.370
-90.757	29.946	0.063	-0.053
-89.743	-200.000	-0.010	-0.051
-88.728	-200.000	-0.009	-0.133
-87.713	687.855	-0.115	0.295
-86.699	-147.714	0.109	0.009
-85.684	-200.000	-0.011	0.175
-84.670	-85.360	0.071	-0.022
-83.655	800.000	0.076	0.282
-82.640	-200.000	0.000	0.095
-81.626	480.190	0.064	0.141
-80.611	178.772	0.036	-0.052
-79.597	800.000	-0.095	-0.312
-78.582	-12.773	0.239	0.152
-77.567	-21.459	-0.283	-0.169
-76.553	-200.000	-0.013	-0.080
-75.538	800.000	-0.126	-0.400
-74.524	-200.000	-0.010	-0.121
-73.509	-53.858	-0.098	-0.044
-72.494	19.040	-0.187	-0.147
-71.480	-61.418	-0.342	-0.141
-70.465	246.908	-0.027	0.045
-69.451	-200.000	0.026	0.120
-68.436	-200.000	-0.037	0.471
-67.422	21.502	-0.083	0.066
-66.407	800.000	-0.075	-0.245
-65.392	-6.720	-0.037	-0.025
-64.378	-200.000	0.031	0.246
-63.363	-200.000	-0.054	0.250
-62.349	130.613	-0.317	-0.399
-61.334	22.949	-1.167	-0.937
-60.319	-6.907	0.729	0.485
-59.305	800.000	-0.361	-1.305
-58.290	207.107	0.773	1.180
-57.276	800.000	0.424	1.609
-56.261	-200.000	106.928	627.039
-55.246	525.520	1513.512	3488.947
-54.232	175.025	2711.653	3845.074
-53.217	105.128	2295.333	2652.464
-52.203	38.428	1900.494	1658.421
-51.188	32.364	1686.472	1425.811
-50.173	29.679	1642.992	1369.139
-49.159	48.550	1697.607	1557.321
-48.144	48.815	1712.555	1572.962
-47.130	31.870	1669.549	1407.571
-46.115	29.201	1655.342	1375.642
-45.100	29.120	1650.073	1370.606
-44.086	29.063	1647.283	1367.811
-43.071	29.074	1644.929	1365.886
-42.057	28.975	1642.633	1363.193
-41.042	29.001	1640.583	1361.629
-40.027	29.074	1638.831	1360.656
-39.013	28.973	1636.643	1358.044
-37.998	28.920	1635.298	1356.482
-36.984	29.061	1633.680	1356.125
-35.969	29.153	1632.173	1355.496
-34.954	29.223	1630.631	1354.674
-33.940	29.114	1628.792	1352.293
-32.925	29.109	1627.240	1350.915
-31.911	29.115	1625.504	1349.470
-30.896	29.128	1623.448	1347.798
-29.881	29.101	1621.722	1346.116
-28.867	29.100	1620.273	1344.850
-27.852	29.110	1618.811	1343.657
-26.838	29.109	1617.269	1342.318
-25.823	29.133	1616.374	1341.697
-24.809	29.224	1614.519	1340.770
-23.794	29.162	1613.172	1339.143
-22.779	29.203	1611.683	1338.154
-21.765	29.092	1610.369	1336.205
-20.750	29.103	1608.583	1334.749
-19.736	29.129	1607.495	1333.979
-18.721	29.223	1605.267	1332.761
-17.706	29.106	1603.977	1330.791
-16.692	29.100	1602.600	1329.552
-15.677	29.215	1601.350	1329.287
-14.663	29.254	1600.035	1328.428
-13.648	29.218	1598.905	1327.179
-12.633	29.176	1597.643	1325.778
-11.619	29.152	1595.743	1323.977
-10.604	29.218	1594.095	1323.030
-9.590	29.242	1592.840	1322.106
-8.575	29.258	1591.949	1321.428
-7.560	29.237	1590.609	1320.110
-6.546	29.317	1589.422	1319.646
-5.531	29.053	1588.630	1317.051
-4.517	29.162	1587.442	1316.792
-3.502	29.076	1586.409	1315.269
-2.487	29.294	1584.186	1314.928
-1.473	28.913	1572.688	1302.634
-0.458	26.161	1553.087	1267.066
0.556	20.507	1554.861	1237.427
1.571	18.305	1579.690	1241.127
2.586	18.124	1593.581	1250.607
3.600	16.443	1540.552	1196.990
4.615	8.783	1431.835	1061.813
5.629	1.256	1368.422	966.876
6.644	-0.271	1360.259	951.347
7.659	-0.306	1358.979	950.143
8.673	-0.303	1357.838	949.283
9.688	-0.340	1356.059	947.724
10.702	-0.487	1353.054	944.608
11.717	2.517	1359.283	967.880
12.731	11.763	1376.016	1038.642
13.746	19.277	1389.263	1096.539
14.761	21.198	1391.819	1110.695
15.775	21.460	1391.487	1111.997
16.790	21.491	1391.179	1111.849
17.804	21.592	1390.360	1111.736
18.819	21.774	1390.362	1112.798
19.834	21.816	1389.560	1112.321
20.848	21.812	1388.980	1111.735
21.863	21.876	1388.218	1111.433
22.877	21.890	1386.951	1110.406
23.892	21.871	1386.420	1109.764
24.907	21.847	1385.392	1108.690
25.921	21.834	1384.789	1108.025
26.936	21.851	1383.508	1107.011
27.950	21.795	1382.568	1105.807
28.965	21.873	1381.428	1105.290
29.980	21.921	1380.153	1104.476
30.994	21.883	1378.621	1102.911
32.009	21.894	1377.602	1102.068
33.023	21.799	1376.946	1100.851
34.038	21.830	1375.552	1099.832
35.053	21.927	1374.415	1099.433
36.067	21.989	1373.213	1098.763
37.082	21.906	1372.625	1097.677
38.096	21.879	1371.176	1096.252
39.111	22.019	1370.572	1096.548
40.126	21.958	1370.448	1095.972
41.140	21.829	1370.023	1094.728
42.155	21.838	1369.803	1094.510
43.169	21.830	1369.615	1094.212
44.184	21.884	1368.841	1093.834
45.199	21.893	1368.269	1093.337
46.213	21.843	1368.102	1092.797
47.228	21.946	1367.028	1092.482
48.242	21.893	1365.736	1091.022
49.257	21.924	1363.813	1089.585
50.271	21.925	1362.591	1088.520
51.286	21.867	1361.475	1087.167
52.301	21.889	1359.769	1085.847
53.315	21.894	1359.370	1085.465
54.330	21.815	1359.134	1084.689
55.344	21.889	1357.234	1083.534
56.359	21.867	1356.241	1082.513
57.374	21.856	1355.786	1081.984
58.388	21.890	1355.349	1081.749
59.403	21.913	1354.523	1081.138
60.417	21.777	1354.410	1080.113
61.432	21.923	1353.161	1079.921
62.447	21.942	1352.383	1079.318
63.461	21.977	1351.394	1078.652
64.476	21.879	1350.266	1077.054
65.490	21.991	1348.989	1076.627
66.505	21.988	1347.519	1075.337
67.520	21.963	1346.256	1074.082
68.534	21.882	1345.433	1072.833
69.549	21.878	1344.377	1071.875
70.563	21.993	1343.284	1071.610
71.578	21.940	1342.069	1070.225
72.593	21.939	1341.383	1069.573
73.607	21.913	1340.610	1068.704
74.622	21.952	1339.547	1068.001
75.636	21.890	1339.192	1067.247
76.651	22.035	1338.150	1067.204
77.666	21.897	1338.205	1066.310
78.680	21.921	1337.205	1065.566
79.695	21.870	1336.649	1064.722
80.709	21.890	1335.784	1064.057
81.724	21.908	1335.255	1063.651
82.739	22.008	1333.704	1062.930
83.753	21.924	1332.932	1061.708
84.768	21.998	1331.745	1061.120
85.782	21.967	1330.276	1059.664
86.797	22.006	1329.156	1058.915
87.812	21.973	1328.461	1058.070
88.826	22.000	1327.546	1057.409
89.841	21.966	1326.023	1055.900
90.855	21.977	1325.180	1055.200
91.870	21.981	1324.385	1054.500
92.884	21.910	1323.813	1053.524
93.899	21.924	1322.994	1052.863
94.914	21.942	1322.454	1052.447
95.928	21.989	1321.671	1052.016
96.943	22.064	1319.887	1050.948
97.957	22.007	1320.007	1050.611
98.972	22.046	1318.722	1049.727
99.987	21.978	1317.798	1048.492
101.001	21.948	1317.243	1047.778
102.016	22.010	1316.002	1047.070
103.030	22.017	1314.866	1046.117
104.045	22.030	1314.455	1045.773
105.060	22.019	1313.264	1044.666
106.074	22.048	1312.473	1044.118
107.089	22.025	1311.418	1043.049
108.103	21.988	1310.411	1041.937
109.118	22.004	1309.145	1040.933
110.133	22.059	1308.203	1040.418
111.147	22.077	1307.028	1039.499
112.162	22.032	1305.738	1038.114
113.176	22.160	1304.325	1037.654
114.191	22.141	1303.854	1037.075
115.206	21.947	1303.012	1035.171
116.220	22.055	1301.859	1034.800
117.235	22.075	1300.380	1033.650
118.249	21.944	1299.950	1032.443
119.264	22.039	1298.764	1031.972
120.279	22.132	1297.502	1031.419
121.293	22.151	1296.884	1030.950
122.308	22.140	1295.980	1030.075
123.322	22.180	1295.009	1029.450
124.337	22.129	1294.392	1028.569
125.352	22.145	1293.129	1027.566
126.366	22.183	1292.310	1027.045
127.381	22.227	1291.247	1026.368
128.395	22.064	1290.860	1025.019
129.410	22.187	1289.459	1024.532
130.424	22.063	1288.684	1023.103
131.439	22.163	1287.856	1022.936
132.454	22.069	1287.336	1021.885
133.468	22.062	1286.785	1021.316
134.483	22.126	1285.854	1020.859
135.497	22.113	1285.142	1020.133
136.512	22.093	1284.032	1019.042
137.527	22.100	1282.743	1017.968
138.541	22.007	1281.525	1016.376
139.556	22.043	1280.140	1015.397
140.570	22.084	1279.304	1014.880
141.585	22.075	1278.010	1013.710
142.600	22.124	1276.916	1013.037
143.614	22.047	1276.116	1011.871
144.629	22.066	1274.977	1010.983
145.643	22.044	1273.976	1009.972
146.658	21.996	1273.215	1009.006
147.673	21.960	1272.151	1007.869
148.687	21.991	1271.091	1007.118
149.702	22.016	1269.701	1006.066
150.716	22.003	1268.522	1004.970
151.731	21.998	1267.882	1004.346
152.746	22.075	1266.821	1003.858
153.760	22.183	1265.640	1003.451
154.775	22.145	1264.878	1002.541
155.789	22.136	1263.762	1001.515
156.804	22.152	1262.976	1000.896
157.819	22.092	1262.381	999.992
158.833	22.053	1261.328	998.848
159.848	22.221	1260.634	999.168
160.862	22.278	1259.969	998.872
161.877	22.167	1259.035	997.415
162.892	22.102	1258.453	996.496
163.906	22.284	1256.757	996.098
164.921	22.135	1256.752	995.163
165.935	22.139	1255.958	994.467
166.950	22.167	1255.239	993.968
167.964	22.228	1254.261	993.453
168.979	22.222	1253.685	992.870
169.994	22.177	1253.382	992.289
171.008	22.220	1252.418	991.681
172.023	22.285	1251.685	991.382
173.037	22.199	1251.115	990.356
174.052	22.275	1249.907	989.738
175.067	22.173	1249.494	988.750
176.081	22.273	1248.606	988.522
177.096	22.153	1248.684	987.823
178.110	22.189	1247.229	986.786
179.125	22.286	1245.956	986.237
180.140	22.422	1244.454	985.724
181.154	22.262	1243.875	984.283
182.169	22.205	1242.678	982.930
183.183	22.182	1242.104	982.260
184.198	22.301	1240.637	981.677
185.213	22.244	1240.147	980.882
186.227	22.326	1238.797	980.185
187.242	22.400	1237.746	979.678
188.256	22.246	1237.460	978.511
189.271	22.248	1236.530	977.697
190.286	22.263	1235.714	977.049
191.300	22.233	1235.322	976.486
192.315	22.333	1234.314	976.158
193.329	22.287	1234.423	975.903
194.344	22.442	1233.794	976.181
195.359	22.364	1233.061	975.081
196.373	22.438	1232.220	974.739
197.388	22.236	1232.007	973.364
198.402	22.202	1231.936	973.037
199.417	22.248	1231.353	972.743
200.432	22.294	1230.660	972.363
201.446	22.317	1229.831	971.750
202.461	22.264	1229.391	971.022
203.475	22.335	1228.768	970.839
204.490	22.270	1227.434	969.340
205.504	22.335	1226.224	968.656
206.519	22.272	1225.696	967.808
207.534	22.308	1224.350	966.855
208.548	22.370	1223.807	966.683
209.563	22.381	1222.865	965.912
210.577	22.344	1221.995	964.936
211.592	22.202	1221.542	963.715
212.607	22.426	1220.212	963.810
213.621	22.441	1219.964	963.610
214.636	22.413	1219.218	962.779
215.650	22.445	1218.020	961.924
216.665	22.429	1217.260	961.154
217.680	22.389	1216.221	960.031
218.694	22.487	1215.461	959.875
219.709	22.564	1214.745	959.649
220.723	22.433	1214.243	958.452
221.738	22.432	1213.338	957.649
222.753	22.380	1212.783	956.841
223.767	22.476	1212.222	956.836
224.782	22.511	1211.539	956.401
225.796	22.531	1211.132	956.103
226.811	22.475	1210.542	955.253
227.826	22.516	1210.068	955.017
228.840	22.517	1208.889	954.004
229.855	22.571	1208.311	953.755
230.869	22.520	1208.082	953.218
231.884	22.566	1207.239	952.716
232.899	22.448	1206.621	951.504
233.913	22.543	1206.087	951.511
234.928	22.663	1205.373	951.513
235.942	22.520	1204.796	950.204
236.957	22.558	1204.071	949.749
237.972	22.553	1203.406	949.114
238.986	22.612	1202.879	948.932
240.001	22.633	1202.093	948.344
241.015	22.783	1201.347	948.475
242.030	22.617	1200.695	946.988
243.045	22.636	1200.055	946.500
244.059	22.657	1199.172	945.830
245.074	22.730	1198.296	945.449
246.088	22.859	1197.200	945.191
247.103	22.721	1196.620	943.910
248.117	22.608	1196.381	943.035
249.132	22.757	1195.207	942.822
250.147	22.705	1194.869	942.195
251.161	22.728	1193.744	941.345
252.176	22.766	1193.097	940.954
253.190	22.865	1192.459	940.899
254.205	22.672	1192.239	939.610
255.220	22.694	1191.484	939.052
256.234	22.745	1190.669	938.593
257.249	22.872	1189.812	938.514
258.263	22.729	1189.473	937.400
259.278	22.824	1189.061	937.501
260.293	22.740	1188.760	936.733
261.307	22.739	1187.934	935.994
262.322	22.870	1187.419	936.198
263.336	22.874	1186.278	935.238
264.351	22.785	1185.955	934.431
265.366	22.782	1185.306	933.819
266.380	22.785	1184.781	933.338
267.395	22.903	1183.679	933.014
268.409	22.856	1183.321	932.397
269.424	22.791	1183.150	931.837
270.439	22.861	1182.390	931.530
271.453	22.739	1181.619	930.196
272.468	22.769	1181.034	929.809
273.482	22.882	1179.978	929.490
274.497	22.877	1179.584	929.071
275.512	22.951	1179.310	929.162
276.526	23.027	1178.442	928.795
277.541	23.001	1177.562	927.884
278.555	22.917	1177.306	927.156
279.570	22.980	1176.441	926.725
280.585	22.998	1175.416	925.931
281.599	22.990	1174.522	925.102
282.614	22.989	1173.812	924.459
283.628	23.067	1172.686	923.894
284.643	23.037	1172.001	923.117
285.657	23.048	1170.943	922.261
286.672	23.052	1170.083	921.521
287.687	23.006	1169.807	920.982
288.701	23.052	1169.397	920.819
289.716	23.029	1168.402	919.836
290.730	23.135	1167.537	919.622
291.745	23.043	1167.133	918.743
292.760	23.036	1166.824	918.386
293.774	23.056	1165.922	917.697
294.789	23.147	1165.554	917.796
295.803	23.066	1165.329	917.118
296.818	23.031	1164.288	916.039
297.833	23.159	1163.510	916.008
298.847	22.994	1163.127	914.769
299.862	23.188	1161.922	914.747
300.876	23.185	1161.181	914.063
301.891	23.140	1160.929	913.552
302.906	23.158	1159.864	912.726
303.920	23.292	1158.990	912.646
304.935	23.153	1158.796	911.700
305.949	23.224	1157.996	911.353
306.964	23.226	1157.374	910.793
307.979	23.186	1157.217	910.388
308.993	23.229	1156.151	909.687
310.008	23.294	1155.301	909.271
311.022	23.201	1155.052	908.518
312.037	23.331	1153.831	908.144
313.052	23.222	1152.879	906.758
314.066	23.236	1152.349	906.331
315.081	23.232	1151.613	905.652
316.095	23.314	1151.292	905.736
317.110	23.347	1150.022	904.827
318.125	23.223	1149.682	903.846
319.139	23.418	1148.765	904.041
320.154	23.471	1148.173	903.766
321.168	23.274	1148.050	902.583
322.183	23.322	1147.355	902.201
323.197	23.205	1146.752	901.049
324.212	23.324	1146.412	901.310
325.227	23.450	1145.597	901.231
326.241	23.394	1145.041	900.431
327.256	23.387	1144.347	899.769
328.270	23.437	1143.609	899.362
329.285	23.548	1142.739	899.158
330.300	23.411	1142.042	897.840
331.314	23.421	1141.247	897.186
332.329	23.473	1140.363	896.671
333.343	23.385	1139.741	895.659
334.358	23.449	1138.746	895.123
335.373	23.538	1138.021	894.924
336.387	23.563	1137.615	894.651
337.402	23.639	1136.437	894.027
338.416	23.525	1136.173	893.165
339.431	23.647	1135.293	893.007
340.446	23.622	1134.952	892.538
341.460	23.732	1134.225	892.438
342.475	23.643	1133.265	891.157
343.489	23.599	1132.350	890.138
344.504	23.565	1132.025	889.632
345.519	23.521	1131.332	888.792
346.533	23.685	1130.192	888.635
347.548	23.604	1129.786	887.832
348.562	23.669	1129.108	887.547
349.577	23.759	1128.464	887.413
350.592	23.567	1127.854	885.893
351.606	23.589	1126.829	885.119
352.621	23.587	1126.406	884.702
353.635	23.680	1125.664	884.504
354.650	23.848	1124.698	884.500
355.665	23.725	1124.159	883.385
356.679	23.753	1123.447	882.891
357.694	23.674	1123.592	882.534
358.708	23.803	1122.624	882.332
359.723	23.769	1121.476	881.187
360.738	23.822	1120.990	880.989
361.752	23.824	1120.550	880.575
362.767	23.784	1120.246	880.059
363.781	23.795	1119.790	879.678
364.796	23.802	1119.023	879.033
365.810	23.761	1118.191	878.095
366.825	23.866	1117.842	878.262
367.840	23.881	1117.524	878.012
368.854	23.886	1116.847	877.427
369.869	24.099	1115.297	877.179
370.883	23.845	1115.111	875.704
371.898	23.943	1114.107	875.319
372.913	23.942	1113.641	874.874
373.927	23.998	1113.048	874.607
374.942	23.917	1112.952	874.054
375.956	24.010	1112.058	873.732
376.971	23.977	1111.738	873.239
377.986	23.999	1111.388	872.999
379.000	23.977	1110.632	872.217
380.015	23.948	1110.271	871.714
381.029	23.983	1109.568	871.255
382.044	24.039	1108.775	870.830
383.059	24.100	1107.975	870.424
384.073	24.096	1107.224	869.736
385.088	24.175	1106.588	869.548
386.102	24.097	1105.648	868.352
387.117	24.101	1104.979	867.769
388.132	24.113	1103.817	866.838
389.146	24.131	1103.256	866.408
390.161	24.158	1102.939	866.212
391.175	24.075	1102.348	865.268
392.190	24.059	1101.887	864.754
393.205	24.180	1100.673	864.308
394.219	24.174	1099.803	863.519
395.234	24.245	1099.556	863.593
396.248	24.190	1098.181	862.175
397.263	24.246	1097.365	861.728
398.278	24.204	1097.330	861.421
399.292	24.339	1096.338	861.217
400.307	24.356	1095.671	860.700
401.321	24.255	1095.416	859.936
402.336	24.212	1094.714	859.099
403.350	24.291	1093.825	858.706
404.365	24.236	1093.605	858.195
405.380	24.177	1092.771	857.178
406.394	24.318	1092.137	857.284
407.409	24.316	1091.149	856.422
408.423	24.312	1090.452	855.780
409.438	24.331	1089.707	855.213
410.453	24.515	1089.114	855.551
411.467	24.437	1088.190	854.375
412.482	24.458	1087.627	853.961
413.496	24.291	1087.214	852.763
414.511	24.484	1086.094	852.729
415.526	24.474	1085.755	852.342
416.540	24.500	1085.356	852.077
417.555	24.419	1085.038	851.365
418.569	24.521	1084.135	851.066
419.584	24.566	1083.818	850.960
420.599	24.612	1083.520	850.866
421.613	148.915	1402.084	1798.510
422.628	137.592	1448.477	1798.610
