DTS Sentinel unit serial number:	SN413079Multiplexer serial number:	ORYXHardware model number:	OX4-SRSoftware version number:	ORYX F/W v4.00 Oryx Data Collector v3.7.2.0data status	okinstallation	princeton_trtdifferential loss correction	single-endedforward channel	channel 2reverse channel	N/Adate	2019/09/11time	13:29:10forward acquisition time	60.00reverse acquisition time	0.00gamma	496.2192k internal	0.2292k external	0.2292temperature offset calibration	1.0007default loss term (dB/km)	0.3790temperature slope calibration	1.0000multiplexer offset coefficient	1.0000multiplexer slope coefficient	1.0000fibre end	0.00T internal ref (°C)	41.94T ext. ref 1 (°C)	0.83T ext. ref 2 (°C)	37.26length (m)	temperature (°C)	Stokes	anti-Stokes-747.200	-99.036	0.073	-0.019
-746.185	800.000	0.094	0.290
-745.171	241.011	0.128	-0.218
-744.156	800.000	0.080	0.342
-743.142	-104.954	-0.270	-0.063
-742.127	-200.000	0.009	0.203
-741.112	-2.456	0.197	-0.141
-740.098	224.818	-0.013	-0.021
-739.083	-13.906	-0.143	0.094
-738.069	-60.957	-0.481	0.208
-737.054	-116.803	0.281	0.053
-736.039	-200.000	0.013	0.308
-735.025	-86.256	-0.313	-0.099
-734.010	328.311	-0.199	0.391
-732.996	4.694	-0.239	-0.179
-731.981	391.202	0.118	-0.250
-730.966	678.068	0.103	-0.273
-729.952	6.758	-0.268	-0.204
-728.937	-43.857	-0.048	-0.025
-727.923	-200.000	0.014	0.181
-726.908	7.682	-0.109	0.084
-725.894	258.336	-0.204	-0.359
-724.879	-160.956	-0.047	0.003
-723.864	-200.000	-0.107	-0.522
-722.850	800.000	0.126	-0.402
-721.835	-200.000	0.017	-0.327
-720.821	-151.621	0.038	0.003
-719.806	-45.039	0.116	-0.059
-718.791	800.000	-0.079	0.258
-717.777	178.038	-0.186	0.277
-716.762	216.941	0.170	-0.277
-715.748	800.000	-0.024	0.080
-714.733	-129.774	-0.143	0.020
-713.718	16.303	-0.121	-0.098
-712.704	-22.098	-0.321	-0.199
-711.689	800.000	-0.166	-0.476
-710.675	-139.275	0.121	-0.013
-709.660	-56.949	0.083	0.037
-708.645	103.547	0.047	0.056
-707.631	170.540	-0.043	-0.063
-706.616	114.638	-0.083	0.104
-705.602	-200.000	0.014	0.182
-704.587	-96.506	-0.193	-0.052
-703.572	176.185	0.104	0.155
-702.558	-177.470	-0.220	0.006
-701.543	-149.803	-0.305	0.024
-700.529	-196.198	0.310	-0.002
-699.514	-200.000	0.006	-0.098
-698.499	-115.075	0.330	0.064
-697.485	-30.403	-0.055	-0.032
-696.470	-64.213	-0.070	-0.029
-695.456	-41.397	0.188	-0.099
-694.441	-29.451	-0.270	-0.158
-693.426	-52.993	-0.280	-0.132
-692.412	-110.194	0.133	-0.028
-691.397	484.187	-0.056	0.131
-690.383	-124.753	-0.293	-0.046
-689.368	-137.324	-0.154	-0.018
-688.354	302.816	-0.086	-0.163
-687.339	322.253	0.034	-0.067
-686.324	-200.000	0.055	-0.309
-685.310	-40.191	0.155	0.083
-684.295	-132.778	-0.174	0.023
-683.281	-45.647	-0.084	-0.043
-682.266	800.000	0.108	-0.385
-681.251	-11.781	0.112	0.075
-680.237	-200.000	0.015	-0.272
-679.222	-200.000	0.001	0.201
-678.208	-200.000	-0.022	-0.317
-677.193	210.191	-0.185	0.296
-676.178	800.000	0.011	-0.034
-675.164	-200.000	-0.005	-0.048
-674.149	48.520	0.144	0.138
-673.135	-200.000	0.041	0.213
-672.120	673.249	0.057	-0.151
-671.105	-181.942	0.465	0.009
-670.091	31.801	0.097	-0.086
-669.076	-126.855	-0.352	0.053
-668.062	-146.573	0.229	0.020
-667.047	800.000	-0.089	-0.321
-666.032	-32.583	0.119	0.068
-665.018	-147.421	-0.180	-0.016
-664.003	-181.598	-0.099	0.002
-662.989	146.553	0.236	0.323
-661.974	800.000	0.046	0.169
-660.959	-163.154	-0.190	0.009
-659.945	762.671	-0.056	0.155
-658.930	32.806	-0.113	0.100
-657.916	-200.000	-0.037	-0.214
-656.901	-128.750	0.192	0.028
-655.886	800.000	0.058	-0.225
-654.872	62.460	-0.180	-0.183
-653.857	82.091	0.186	-0.205
-652.843	-4.294	0.238	-0.168
-651.828	72.578	-0.200	-0.212
-650.814	642.131	0.049	0.128
-649.799	-114.794	-0.209	-0.041
-648.784	-200.000	-0.022	0.107
-647.770	513.658	0.085	-0.202
-646.755	-200.000	0.005	-0.107
-645.741	-95.743	0.201	0.055
-644.726	22.070	-0.150	-0.125
-643.711	49.702	-0.013	-0.012
-642.697	-180.618	-0.353	0.007
-641.682	-94.429	-0.189	-0.053
-640.668	4.489	0.048	-0.036
-639.653	-46.125	-0.211	-0.106
-638.638	800.000	0.044	-0.149
-637.624	800.000	0.042	0.157
-636.609	-47.856	-0.271	0.134
-635.595	-66.952	0.191	-0.077
-634.580	59.706	-0.045	-0.045
-633.565	36.161	0.088	0.079
-632.551	-200.000	-0.002	0.194
-631.536	-73.992	-0.239	0.088
-630.522	-109.941	0.265	-0.056
-629.507	-34.201	-0.295	-0.165
-628.492	-168.609	-0.119	-0.005
-627.478	-200.000	0.021	-0.193
-626.463	800.000	0.027	-0.106
-625.449	15.346	-0.135	-0.108
-624.434	800.000	0.047	-0.184
-623.419	-200.000	-0.019	-0.282
-622.405	-6.459	-0.142	-0.099
-621.390	-30.315	-0.094	0.054
-620.376	-96.816	0.253	0.068
-619.361	800.000	0.063	-0.279
-618.346	-200.000	-0.233	-0.001
-617.332	-99.504	0.360	-0.092
-616.317	767.535	-0.065	0.179
-615.303	-98.237	-0.185	-0.048
-614.288	-200.000	0.034	-0.185
-613.273	194.652	-0.332	-0.513
-612.259	48.753	-0.117	0.112
-611.244	751.749	-0.029	-0.081
-610.230	-107.909	0.159	-0.035
-609.215	800.000	-0.157	0.490
-608.201	-200.000	0.009	0.137
-607.186	-169.810	0.485	-0.018
-606.171	-36.118	-0.198	-0.109
-605.157	347.625	-0.136	0.273
-604.142	62.005	-0.068	-0.069
-603.128	99.311	0.212	0.250
-602.113	-157.588	-0.197	0.012
-601.098	37.273	-0.023	-0.021
-600.084	-82.713	-0.148	-0.049
-599.069	213.755	0.105	0.169
-598.055	-200.000	0.013	0.427
-597.040	208.791	0.158	0.252
-596.025	164.739	-0.092	-0.132
-595.011	-109.786	-0.173	0.037
-593.996	10.706	0.267	-0.207
-592.982	81.360	-0.029	-0.032
-591.967	-74.125	0.281	0.103
-590.952	178.708	-0.105	0.156
-589.938	-169.968	-0.199	0.007
-588.923	324.849	0.072	0.140
-587.909	800.000	-0.117	-0.371
-586.894	-97.977	-0.335	-0.088
-585.879	-37.595	0.192	0.104
-584.865	800.000	-0.105	-0.452
-583.850	173.122	-0.097	0.141
-582.836	261.832	-0.056	-0.100
-581.821	-200.000	0.068	0.391
-580.806	43.371	0.033	-0.031
-579.792	109.179	-0.162	0.197
-578.777	-160.163	0.258	0.014
-577.763	-16.240	-0.041	0.026
-576.748	34.266	-0.140	0.124
-575.733	-130.495	0.252	0.035
-574.719	185.974	-0.187	-0.283
-573.704	11.480	0.221	-0.172
-572.690	2.713	-0.104	-0.077
-571.675	135.983	-0.124	-0.164
-570.661	-52.990	0.453	-0.212
-569.646	-10.342	0.138	0.093
-568.631	-75.496	-0.159	-0.057
-567.617	-171.764	-0.187	-0.006
-566.602	800.000	0.089	0.283
-565.588	36.366	0.290	0.260
-564.573	123.748	0.197	0.251
-563.558	343.574	0.085	-0.169
-562.544	502.689	0.142	0.334
-561.529	-46.230	-0.130	-0.065
-560.515	800.000	-0.109	-0.404
-559.500	-83.509	0.334	-0.109
-558.485	82.328	0.138	-0.152
-557.471	14.349	0.212	0.168
-556.456	6.271	0.171	0.129
-555.442	-59.583	-0.215	-0.094
-554.427	-200.000	0.031	0.427
-553.412	-57.576	-0.196	-0.087
-552.398	-200.000	-0.036	-0.241
-551.383	126.511	0.106	0.137
-550.369	800.000	0.093	-0.351
-549.354	800.000	-0.062	-0.260
-548.339	-200.000	-0.042	0.243
-547.325	-155.275	-0.311	0.021
-546.310	-24.401	0.036	0.022
-545.296	-200.000	0.007	0.202
-544.281	-142.806	-0.326	0.032
-543.266	-35.502	0.332	0.183
-542.252	29.882	0.158	0.136
-541.237	-157.105	0.223	-0.014
-540.223	-35.072	-0.147	0.082
-539.208	-200.000	-0.014	0.184
-538.193	-23.331	0.212	0.129
-537.179	-14.324	-0.265	0.173
-536.164	800.000	0.112	-0.328
-535.150	409.468	-0.051	-0.109
-534.135	220.330	0.133	-0.216
-533.121	-104.920	-0.307	0.071
-532.106	-8.852	-0.098	-0.067
-531.091	-26.631	-0.076	0.045
-530.077	-24.932	-0.161	-0.097
-529.062	-200.000	0.018	-0.145
-528.048	-45.047	0.038	0.019
-527.033	244.057	0.087	0.149
-526.018	230.905	0.175	0.291
-525.004	-177.921	-0.196	-0.005
-523.989	-169.614	-0.322	0.012
-522.975	252.045	-0.022	-0.038
-521.960	44.309	0.267	-0.249
-520.945	-63.642	0.166	-0.069
-519.931	-200.000	0.010	-0.155
-518.916	-110.619	-0.063	0.013
-517.902	386.005	0.183	0.383
-516.887	213.272	0.190	0.304
-515.872	-131.537	0.030	-0.004
-514.858	-76.003	-0.268	0.096
-513.843	6.472	-0.129	0.097
-512.829	-60.046	-0.157	0.068
-511.814	64.271	0.137	0.139
-510.799	28.638	-0.217	0.186
-509.785	-131.220	-0.420	-0.057
-508.770	32.622	-0.113	-0.099
-507.756	-126.818	-0.285	0.043
-506.741	374.049	-0.023	0.048
-505.726	-85.337	-0.092	-0.029
-504.712	-13.037	-0.217	0.143
-503.697	-87.974	0.180	0.055
-502.683	531.617	0.118	-0.283
-501.668	12.552	-0.150	-0.117
-500.653	-200.000	0.029	-0.185
-499.639	-30.380	0.230	0.132
-498.624	-200.000	0.263	0.001
-497.610	-19.361	0.275	0.173
-496.595	425.892	-0.076	0.165
-495.581	277.317	-0.052	0.094
-494.566	598.687	-0.027	-0.068
-493.551	-101.416	-0.378	0.093
-492.537	-19.860	-0.254	0.159
-491.522	46.228	0.052	0.049
-490.508	-200.000	-0.060	0.441
-489.493	800.000	0.101	0.347
-488.478	51.485	-0.172	-0.166
-487.464	-200.000	0.007	-0.285
-486.449	-56.656	-0.095	0.043
-485.435	159.958	0.155	0.219
-484.420	180.107	0.047	-0.069
-483.405	-140.880	0.543	-0.057
-482.391	-136.631	0.246	-0.029
-481.376	-67.862	-0.393	-0.155
-480.362	602.563	0.031	-0.079
-479.347	29.623	-0.035	-0.030
-478.332	-200.000	-0.005	0.776
-477.318	-200.000	0.025	0.236
-476.303	-63.929	-0.043	0.018
-475.289	40.491	0.297	0.271
-474.274	800.000	0.160	-0.479
-473.259	533.248	0.072	-0.173
-472.245	94.702	-0.278	-0.320
-471.230	486.338	-0.055	-0.127
-470.216	-103.102	-0.230	0.055
-469.201	-200.000	-0.055	-0.376
-468.186	225.237	0.213	-0.348
-467.172	-17.786	0.269	-0.171
-466.157	-53.684	0.050	-0.023
-465.143	248.503	0.108	-0.185
-464.128	-200.000	0.011	-0.171
-463.113	-59.360	0.257	0.112
-462.099	203.533	-0.156	-0.244
-461.084	-80.152	-0.132	0.045
-460.070	318.806	-0.254	0.487
-459.055	-200.000	0.026	0.436
-458.040	137.054	0.039	0.052
-457.026	800.000	-0.092	-0.351
-456.011	364.484	-0.095	-0.194
-454.997	178.720	0.102	-0.152
-453.982	-106.166	0.118	0.027
-452.968	-200.000	0.015	0.122
-451.953	-200.000	0.007	0.198
-450.938	800.000	-0.080	0.347
-449.924	-200.000	-0.002	0.148
-448.909	-200.000	0.018	0.108
-447.895	10.020	-0.048	0.037
-446.880	-91.850	-0.170	0.049
-445.865	800.000	-0.033	-0.123
-444.851	800.000	0.051	0.170
-443.836	-1.307	-0.066	0.047
-442.822	-31.022	0.045	-0.026
-441.807	-43.175	0.141	0.072
-440.792	-9.721	0.169	0.114
-439.778	-200.000	0.021	0.137
-438.763	266.887	0.046	0.082
-437.749	800.000	0.075	0.222
-436.734	-116.157	0.235	-0.044
-435.719	-106.424	0.281	-0.063
-434.705	-200.000	-0.040	-0.255
-433.690	-113.031	0.099	-0.020
-432.676	115.861	-0.096	0.118
-431.661	-108.728	0.152	-0.033
-430.646	31.426	-0.111	-0.096
-429.632	334.750	-0.081	-0.158
-428.617	-200.000	-0.024	0.229
-427.603	149.657	0.027	0.036
-426.588	-200.000	-0.008	0.106
-425.573	342.335	-0.130	-0.258
-424.559	-151.262	0.378	-0.029
-423.544	-73.439	0.139	-0.051
-422.530	-148.085	-0.168	-0.014
-421.515	-25.683	0.412	-0.246
-420.500	56.106	-0.244	-0.239
-419.486	-75.670	0.097	-0.035
-418.471	356.799	-0.036	-0.073
-417.457	-40.389	-0.150	-0.079
-416.442	-200.000	0.022	0.187
-415.428	288.787	-0.053	0.098
-414.413	-33.670	0.174	0.097
-413.398	-200.000	0.018	0.155
-412.384	34.426	-0.179	0.158
-411.369	-200.000	0.014	0.071
-410.355	-40.658	0.306	-0.160
-409.340	-162.089	0.079	-0.004
-408.325	145.816	-0.191	0.259
-407.311	-93.242	-0.331	-0.093
-406.296	-200.000	-0.043	-0.414
-405.282	-26.490	0.287	-0.170
-404.267	800.000	-0.023	-0.101
-403.252	-57.692	0.357	-0.158
-402.238	800.000	0.042	0.183
-401.223	-191.588	-0.443	-0.004
-400.209	-1.377	0.281	-0.201
-399.194	88.843	-0.183	0.206
-398.179	800.000	0.059	0.188
-397.165	271.449	0.214	0.381
-396.150	-10.246	0.059	-0.040
-395.136	-200.000	-0.019	-0.166
-394.121	-200.000	-0.017	-0.332
-393.106	-71.040	0.302	-0.115
-392.092	-20.007	-0.227	0.142
-391.077	-110.726	0.293	0.061
-390.063	18.528	0.085	0.068
-389.048	-200.000	-0.016	-0.186
-388.033	-161.722	0.181	-0.009
-387.019	-6.635	-0.009	0.006
-386.004	76.045	-0.212	-0.226
-384.990	-200.000	-0.001	0.175
-383.975	110.331	-0.126	-0.153
-382.960	-44.908	0.196	0.099
-381.946	-7.996	-0.069	0.047
-380.931	197.337	-0.136	-0.209
-379.917	106.194	-0.036	-0.043
-378.902	-63.719	-0.259	-0.107
-377.888	800.000	-0.026	-0.101
-376.873	-200.000	0.047	0.299
-375.858	148.451	-0.152	-0.207
-374.844	-49.335	0.031	0.015
-373.829	-47.933	0.233	0.114
-372.815	-79.922	-0.099	0.033
-371.800	134.816	0.152	0.200
-370.785	-121.087	0.176	-0.030
-369.771	-45.212	0.211	-0.106
-368.756	-2.351	0.025	0.018
-367.742	-200.000	-0.033	0.180
-366.727	389.371	0.211	-0.441
-365.712	-127.771	0.323	0.047
-364.698	202.475	-0.061	0.095
-363.683	9.458	-0.087	0.066
-362.669	-200.000	0.033	-0.167
-361.654	-102.998	0.092	0.022
-360.639	-200.000	0.006	0.204
-359.625	800.000	-0.104	0.301
-358.610	-11.194	-0.117	0.078
-357.596	800.000	-0.068	-0.213
-356.581	163.840	-0.071	0.101
-355.566	-74.087	0.041	0.015
-354.552	-115.077	0.255	-0.049
-353.537	-38.588	0.131	0.070
-352.523	-153.308	-0.177	0.012
-351.508	-200.000	0.001	-0.013
-350.493	-200.000	0.035	-0.200
-349.479	-200.000	0.040	-0.322
-348.464	-54.737	-0.267	-0.122
-347.450	-78.239	0.334	-0.116
-346.435	-43.567	0.266	0.135
-345.420	444.699	-0.068	0.151
-344.406	83.319	0.138	-0.151
-343.391	-32.447	-0.249	0.140
-342.377	800.000	-0.082	0.261
-341.362	218.657	-0.122	0.196
-340.348	-200.000	0.007	0.134
-339.333	-200.000	0.035	0.280
-338.318	134.352	0.147	0.192
-337.304	222.430	-0.218	-0.353
-336.289	-61.829	0.261	0.110
-335.275	-146.826	0.135	-0.012
-334.260	800.000	-0.084	-0.286
-333.245	101.294	-0.115	-0.135
-332.231	-58.193	-0.241	-0.106
-331.216	800.000	0.048	-0.154
-330.202	52.179	-0.290	0.279
-329.187	-200.000	-0.032	0.195
-328.172	-134.794	0.128	0.016
-327.158	-38.486	-0.261	0.139
-326.143	-148.826	-0.169	0.014
-325.129	237.589	-0.197	-0.329
-324.114	162.162	-0.102	-0.144
-323.099	522.197	0.111	-0.263
-322.085	-27.340	0.345	-0.202
-321.070	257.636	-0.113	0.195
-320.056	-74.821	-0.209	0.075
-319.041	452.226	-0.122	0.272
-318.026	-18.821	0.134	-0.084
-317.012	-200.000	0.022	0.358
-315.997	-77.548	0.385	-0.134
-314.983	-165.426	0.149	0.007
-313.968	488.107	-0.087	0.199
-312.953	119.829	0.071	0.088
-311.939	-148.093	0.023	-0.002
-310.924	139.983	0.083	-0.110
-309.910	600.287	0.095	0.239
-308.895	-72.383	-0.380	-0.141
-307.880	-124.870	0.052	0.008
-306.866	53.315	-0.113	-0.109
-305.851	-200.000	0.019	0.207
-304.837	-111.754	-0.121	-0.025
-303.822	-200.000	0.048	-0.378
-302.807	-200.000	-0.043	0.303
-301.793	-200.000	-0.008	-0.131
-300.778	14.024	-0.152	-0.119
-299.764	8.325	0.081	-0.061
-298.749	480.736	-0.074	-0.170
-297.735	485.375	0.063	0.143
-296.720	-21.501	0.295	-0.181
-295.705	-84.673	0.193	-0.061
-294.691	10.470	-0.228	0.175
-293.676	61.723	-0.229	-0.229
-292.662	-165.477	0.158	-0.007
-291.647	-200.000	0.004	0.272
-290.632	-2.369	0.098	0.069
-289.618	34.968	0.107	0.094
-288.603	72.025	0.023	-0.024
-287.589	-200.000	0.000	-0.114
-286.574	800.000	-0.081	-0.228
-285.559	-38.502	0.011	-0.006
-284.545	800.000	-0.029	-0.085
-283.530	-14.632	-0.226	-0.146
-282.516	-200.000	-0.043	-0.312
-281.501	-2.644	0.447	0.315
-280.486	-200.000	0.003	0.094
-279.472	-9.820	-0.123	0.082
-278.457	800.000	-0.051	0.144
-277.443	-91.653	0.227	0.065
-276.428	-95.675	0.057	0.015
-275.413	-177.333	0.252	-0.006
-274.399	-23.919	0.087	0.052
-273.384	-200.000	-0.011	0.171
-272.370	308.672	0.112	0.210
-271.355	87.984	-0.191	-0.212
-270.340	49.686	-0.120	-0.113
-269.326	-200.000	0.120	0.000
-268.311	142.861	-0.227	0.303
-267.297	248.595	-0.146	0.248
-266.282	-200.000	-0.016	0.092
-265.267	124.225	0.158	-0.199
-264.253	152.503	-0.049	0.067
-263.238	66.811	-0.115	0.118
-262.224	-106.795	-0.365	0.081
-261.209	-103.210	0.321	0.076
-260.195	-92.459	-0.133	0.038
-259.180	-48.647	-0.077	-0.037
-258.165	104.713	-0.141	0.166
-257.151	-26.504	0.142	-0.084
-256.136	47.833	-0.119	-0.112
-255.122	169.882	0.215	-0.309
-254.107	37.688	0.259	-0.231
-253.092	528.457	0.003	0.006
-252.078	-200.000	-0.026	0.217
-251.063	800.000	0.067	-0.200
-250.049	651.036	-0.037	-0.096
-249.034	800.000	0.023	-0.074
-248.019	800.000	0.085	0.337
-247.005	99.957	-0.188	0.219
-245.990	53.453	-0.111	0.106
-244.976	-200.000	-0.009	-0.118
-243.961	-62.828	0.141	-0.059
-242.946	800.000	-0.062	0.263
-241.932	-35.637	0.088	0.048
-240.917	800.000	0.107	-0.357
-239.903	-21.137	-0.275	0.169
-238.888	225.267	-0.042	0.068
-237.873	-147.052	0.371	-0.032
-236.859	5.818	0.186	-0.138
-235.844	-18.685	-0.085	-0.053
-234.830	-84.193	-0.346	0.110
-233.815	-18.623	0.237	-0.148
-232.800	-28.776	-0.267	0.154
-231.786	-123.611	-0.132	0.021
-230.771	280.031	-0.119	-0.213
-229.757	-176.791	0.193	0.005
-228.742	-200.000	-0.004	0.069
-227.727	18.884	0.248	0.200
-226.713	-22.273	0.115	0.070
-225.698	512.805	0.094	0.219
-224.684	33.775	-0.149	-0.130
-223.669	-51.227	-0.084	-0.040
-222.655	800.000	0.086	-0.323
-221.640	-200.000	0.035	-0.265
-220.625	-72.458	-0.172	0.064
-219.611	-200.000	-0.020	0.278
-218.596	-200.000	0.095	0.631
-217.582	-115.947	0.129	-0.024
-216.567	-200.000	0.070	-0.349
-215.552	304.921	-0.239	-0.446
-214.538	155.123	0.107	-0.148
-213.523	70.210	0.072	-0.074
-212.509	769.603	-0.038	-0.103
-211.494	-56.534	0.146	0.065
-210.479	665.215	0.098	-0.252
-209.465	-200.000	0.033	-0.273
-208.450	220.173	0.138	-0.222
-207.436	-71.073	-0.385	-0.145
-206.421	-30.366	0.304	-0.173
-205.406	-108.264	-0.159	0.034
-204.392	36.323	-0.128	0.113
-203.377	352.370	0.036	0.071
-202.363	-200.000	-0.026	0.190
-201.348	-134.408	-0.184	0.023
-200.333	-200.000	0.013	-0.084
-199.319	150.912	0.124	0.169
-198.304	88.792	-0.076	-0.085
-197.290	-200.000	0.016	0.160
-196.275	26.598	0.016	-0.013
-195.260	522.841	0.096	0.226
-194.246	-200.000	-0.015	0.205
-193.231	-86.919	0.168	-0.051
-192.217	-81.511	-0.036	0.012
-191.202	-200.000	-0.008	-0.061
-190.187	-200.000	-0.009	0.201
-189.173	636.118	0.050	-0.128
-188.158	94.950	-0.103	0.118
-187.144	-200.000	0.040	-0.205
-186.129	89.814	0.179	-0.200
-185.114	47.784	0.163	0.152
-184.100	-91.597	-0.239	0.068
-183.085	800.000	0.076	-0.320
-182.071	800.000	0.036	0.156
-181.056	-83.286	0.109	-0.035
-180.042	-200.000	-0.011	0.141
-179.027	-176.899	0.134	-0.003
-178.012	-143.489	0.158	-0.015
-176.998	-67.068	-0.232	-0.092
-175.983	30.014	0.250	-0.213
-174.969	-200.000	-0.040	-0.288
-173.954	293.254	0.109	0.199
-172.939	-30.421	-0.242	0.137
-171.925	-122.649	-0.329	-0.053
-170.910	50.138	-0.226	-0.214
-169.896	-200.000	0.012	-0.226
-168.881	-109.211	0.325	0.069
-167.866	-105.375	-0.163	-0.037
-166.852	28.751	-0.158	-0.133
-165.837	107.364	-0.056	-0.067
-164.823	349.341	-0.195	-0.385
-163.808	119.191	-0.368	-0.455
-162.793	711.427	0.115	0.306
-161.779	-200.000	0.011	-0.123
-160.764	-53.499	0.153	-0.070
-159.750	-193.618	-0.206	0.002
-158.735	262.268	-0.236	0.410
-157.720	-136.577	0.079	-0.009
-156.706	-74.321	-0.181	0.065
-155.691	800.000	-0.112	0.370
-154.677	-127.930	-0.062	-0.009
-153.662	-108.860	-0.069	-0.015
-152.647	68.871	0.215	-0.221
-151.633	-19.289	-0.103	0.064
-150.618	84.466	0.244	0.267
-149.604	-200.000	0.067	0.382
-148.589	0.674	0.176	-0.126
-147.574	800.000	0.078	-0.298
-146.560	-179.480	0.121	-0.003
-145.545	-200.000	0.046	-0.219
-144.531	28.730	0.175	0.148
-143.516	-200.000	0.015	0.161
-142.502	388.299	0.138	0.285
-141.487	-119.853	-0.047	-0.008
-140.472	-200.000	0.034	0.166
-139.458	37.007	0.079	0.070
-138.443	394.597	-0.088	-0.184
-137.429	120.380	0.110	0.137
-136.414	26.740	0.054	0.045
-135.399	-4.270	-0.152	0.105
-134.385	-200.000	0.002	0.220
-133.370	25.650	0.241	0.201
-132.356	-55.903	-0.116	0.052
-131.341	-200.000	-0.004	-0.343
-130.326	-116.382	-0.057	0.011
-129.312	-174.923	0.174	0.005
-128.297	534.198	-0.041	0.096
-127.283	800.000	0.083	0.274
-126.268	47.230	0.010	-0.010
-125.253	32.521	-0.035	-0.030
-124.239	-14.261	0.244	0.157
-123.224	800.000	-0.028	-0.078
-122.210	-98.536	-0.372	0.095
-121.195	-114.869	0.392	-0.075
-120.180	192.218	-0.080	-0.121
-119.166	800.000	-0.120	-0.355
-118.151	-200.000	-0.021	-0.242
-117.137	667.994	0.034	-0.087
-116.122	-129.030	-0.289	0.040
-115.107	60.681	0.189	-0.187
-114.093	800.000	0.093	0.262
-113.078	20.957	0.070	0.056
-112.064	-200.000	0.044	0.336
-111.049	205.171	-0.137	-0.213
-110.034	82.603	0.136	0.148
-109.020	-27.389	-0.132	-0.077
-108.005	93.330	0.127	-0.144
-106.991	99.509	0.226	-0.261
-105.976	-56.657	0.176	-0.078
-104.962	800.000	0.079	-0.236
-103.947	65.989	0.120	-0.122
-102.932	-156.970	-0.199	0.012
-101.918	-152.261	0.434	0.031
-100.903	-152.912	-0.206	0.015
-99.889	5.875	-0.200	0.148
-98.874	61.057	0.214	0.212
-97.859	-12.401	-0.164	0.107
-96.845	3.150	-0.067	0.048
-95.830	39.064	-0.253	0.225
-94.816	529.537	0.074	0.175
-93.801	-144.817	-0.235	-0.021
-92.786	-200.000	0.073	0.366
-91.772	-107.428	0.255	-0.056
-90.757	287.716	0.154	0.278
-89.743	172.447	-0.186	0.266
-88.728	-58.895	0.228	-0.098
-87.713	395.091	-0.094	0.196
-86.699	-103.418	-0.144	0.034
-85.684	-72.618	-0.163	-0.060
-84.670	13.734	-0.223	0.173
-83.655	-43.898	-0.140	0.070
-82.640	17.416	-0.144	0.114
-81.626	-33.493	0.315	-0.173
-80.611	91.890	0.067	-0.076
-79.597	11.373	-0.032	-0.024
-78.582	48.929	0.075	-0.070
-77.567	800.000	0.135	0.459
-76.553	-14.666	-0.156	0.100
-75.538	80.060	0.114	0.122
-74.524	438.896	-0.020	-0.044
-73.509	-37.713	-0.109	-0.058
-72.494	788.400	-0.058	0.160
-71.480	-68.514	0.172	-0.066
-70.465	800.000	-0.075	0.272
-69.451	-24.654	0.379	-0.225
-68.436	32.307	-0.147	-0.126
-67.422	-200.000	0.007	0.102
-66.407	20.540	0.227	0.183
-65.392	-34.692	0.227	0.123
-64.378	-96.439	-0.144	0.038
-63.363	-200.000	0.014	-0.112
-62.349	-86.522	0.238	0.073
-61.334	44.581	-0.541	-0.495
-60.319	-11.005	0.443	0.292
-59.305	255.960	-0.379	-0.648
-58.290	93.588	0.623	0.703
-57.276	407.395	0.487	1.026
-56.261	-200.000	75.226	530.820
-55.246	559.868	1307.841	3146.348
-54.232	144.333	2559.079	3402.683
-53.217	112.617	2361.875	2847.985
-52.203	51.636	1975.330	1870.744
-51.188	45.561	1761.267	1620.071
-50.173	42.476	1714.750	1553.402
-49.159	56.661	1749.514	1695.701
-48.144	62.523	1767.158	1758.331
-47.130	45.152	1731.266	1589.041
-46.115	42.101	1716.283	1551.637
-45.100	41.817	1712.300	1545.778
-44.086	41.897	1709.251	1543.584
-43.071	41.796	1706.694	1540.437
-42.057	41.788	1704.152	1538.023
-41.042	41.732	1702.537	1536.069
-40.027	41.812	1700.715	1534.980
-39.013	41.914	1698.051	1533.297
-37.998	41.790	1696.887	1531.234
-36.984	41.877	1694.653	1529.821
-35.969	41.896	1693.750	1529.093
-34.954	42.104	1691.666	1528.738
-33.940	41.994	1689.549	1525.930
-32.925	42.055	1687.266	1524.271
-31.911	41.888	1686.634	1522.363
-30.896	41.921	1684.487	1520.620
-29.881	41.954	1682.569	1519.075
-28.867	41.910	1680.909	1517.183
-27.852	41.917	1679.844	1516.213
-26.838	41.950	1677.643	1514.416
-25.823	41.953	1676.426	1513.281
-24.809	41.950	1674.960	1511.874
-23.794	42.031	1673.030	1510.689
-22.779	41.985	1671.480	1508.881
-21.765	41.956	1670.080	1507.342
-20.750	41.899	1668.543	1505.461
-19.736	41.943	1666.944	1504.292
-18.721	41.943	1665.534	1502.957
-17.706	41.969	1664.172	1501.866
-16.692	41.971	1662.313	1500.146
-15.677	41.945	1660.939	1498.651
-14.663	42.018	1659.577	1497.904
-13.648	41.953	1658.719	1496.588
-12.633	41.877	1656.996	1494.405
-11.619	41.926	1655.235	1493.122
-10.604	41.899	1653.198	1491.026
-9.590	41.889	1652.510	1490.272
-8.575	42.010	1650.473	1489.272
-7.560	41.925	1649.773	1487.948
-6.546	41.988	1648.185	1486.931
-5.531	41.922	1647.234	1485.521
-4.517	41.960	1646.014	1484.647
-3.502	41.881	1644.997	1483.084
-2.487	42.094	1643.075	1482.870
-1.473	41.953	1632.012	1471.786
-0.458	39.465	1612.489	1436.013
0.556	34.743	1611.037	1401.345
1.571	31.938	1635.291	1401.391
2.586	31.047	1650.085	1407.224
3.600	27.203	1595.233	1332.223
4.615	14.608	1472.891	1144.138
5.629	3.226	1396.207	1010.128
6.644	1.013	1386.061	988.275
7.659	0.788	1384.353	985.500
8.673	0.817	1383.283	984.845
9.688	0.693	1381.624	982.767
10.702	0.519	1378.798	979.544
11.717	4.445	1387.195	1011.017
12.731	15.762	1409.158	1101.417
13.746	23.528	1422.370	1162.764
14.761	24.275	1422.326	1167.524
15.775	24.332	1422.127	1167.630
16.790	24.312	1421.890	1167.197
17.804	24.387	1421.356	1167.146
18.819	24.711	1420.682	1168.610
19.834	24.716	1419.646	1167.688
20.848	24.680	1419.274	1167.040
21.863	24.770	1418.092	1166.556
22.877	24.740	1417.284	1165.591
23.892	24.807	1416.206	1165.036
24.907	24.733	1415.583	1163.938
25.921	24.773	1414.188	1162.950
26.936	24.876	1413.092	1162.617
27.950	24.781	1412.036	1161.027
28.965	24.726	1411.360	1160.008
29.980	24.651	1410.212	1158.477
30.994	24.829	1407.952	1157.671
32.009	24.705	1407.394	1156.307
33.023	24.777	1405.948	1155.486
34.038	24.736	1405.003	1154.340
35.053	24.770	1403.754	1153.432
36.067	24.695	1403.193	1152.386
37.082	24.686	1402.011	1151.251
38.096	24.775	1401.439	1151.255
39.111	24.645	1400.532	1149.572
40.126	24.698	1399.719	1149.140
41.140	24.757	1399.073	1148.890
42.155	24.688	1398.537	1147.904
43.169	24.661	1398.909	1147.936
44.184	24.707	1398.767	1148.011
45.199	24.688	1398.207	1147.327
46.213	24.758	1397.289	1146.926
47.228	24.736	1396.423	1145.971
48.242	24.743	1394.963	1144.714
49.257	24.723	1393.659	1143.414
50.271	24.767	1391.935	1142.179
51.286	24.728	1390.709	1140.828
52.301	24.673	1389.782	1139.611
53.315	24.639	1388.772	1138.469
54.330	24.787	1387.807	1138.516
55.344	24.789	1386.711	1137.534
56.359	24.700	1385.752	1136.079
57.374	24.719	1384.884	1135.386
58.388	24.673	1384.594	1134.760
59.403	24.733	1383.896	1134.467
60.417	24.721	1383.433	1133.906
61.432	24.737	1382.465	1133.114
62.447	24.653	1381.843	1131.977
63.461	24.801	1379.893	1131.215
64.476	24.809	1378.855	1130.312
65.490	24.692	1378.379	1129.085
66.505	24.740	1376.459	1127.716
67.520	24.739	1375.174	1126.556
68.534	24.776	1374.336	1126.001
69.549	24.616	1373.529	1124.234
70.563	24.732	1372.485	1124.011
71.578	24.698	1371.307	1122.732
72.593	24.729	1370.235	1121.950
73.607	24.748	1370.184	1121.929
74.622	24.820	1368.708	1121.070
75.636	24.743	1368.638	1120.429
76.651	24.706	1367.699	1119.332
77.666	24.781	1367.205	1119.300
78.680	24.728	1366.744	1118.492
79.695	24.797	1365.843	1118.087
80.709	24.752	1365.137	1117.130
81.724	24.696	1364.568	1116.211
82.739	24.765	1363.121	1115.363
83.753	24.804	1362.169	1114.729
84.768	24.772	1360.888	1113.382
85.782	24.778	1359.969	1112.564
86.797	24.755	1358.900	1111.451
87.812	24.755	1357.532	1110.235
88.826	24.803	1356.446	1109.545
89.841	24.749	1355.323	1108.197
90.855	24.769	1354.680	1107.692
91.870	24.757	1353.268	1106.367
92.884	24.726	1352.894	1105.773
93.899	24.809	1351.652	1105.174
94.914	24.742	1351.168	1104.264
95.928	24.782	1350.624	1103.970
96.943	24.707	1350.069	1102.952
97.957	24.724	1349.229	1102.278
98.972	24.874	1347.619	1101.787
99.987	24.874	1346.868	1101.076
101.001	24.776	1345.528	1099.280
102.016	24.796	1344.697	1098.626
103.030	24.851	1343.798	1098.130
104.045	24.841	1343.378	1097.628
105.060	24.824	1342.337	1096.577
106.074	24.776	1341.680	1095.652
107.089	24.833	1340.678	1095.081
108.103	24.899	1339.248	1094.221
109.118	24.888	1337.950	1092.997
110.133	24.911	1336.742	1092.054
111.147	24.834	1335.984	1090.871
112.162	24.868	1334.809	1090.018
113.176	24.842	1333.773	1088.923
114.191	24.792	1332.962	1087.856
115.206	24.854	1331.570	1087.002
116.220	24.893	1330.253	1086.066
117.235	24.889	1329.417	1085.266
118.249	24.880	1328.865	1084.665
119.264	24.804	1327.592	1083.068
120.279	24.938	1327.037	1083.330
121.293	24.891	1326.071	1082.160
122.308	24.883	1325.600	1081.635
123.322	24.886	1324.505	1080.661
124.337	24.960	1323.369	1080.084
125.352	24.881	1323.145	1079.332
126.366	24.879	1321.982	1078.273
127.381	24.922	1321.118	1077.735
128.395	24.998	1320.116	1077.278
129.410	24.932	1319.370	1076.180
130.424	24.940	1318.769	1075.640
131.439	25.038	1317.312	1074.947
132.454	25.037	1316.859	1074.474
133.468	24.968	1315.893	1073.178
134.483	24.955	1315.716	1072.860
135.497	24.948	1314.630	1071.839
136.512	24.849	1314.090	1070.707
137.527	24.944	1312.794	1070.125
138.541	24.954	1311.328	1068.899
139.556	24.951	1309.989	1067.696
140.570	24.955	1308.795	1066.647
141.585	24.974	1308.166	1066.157
142.600	24.953	1306.667	1064.717
143.614	24.952	1305.963	1064.043
144.629	24.919	1305.058	1063.014
145.643	24.847	1304.295	1061.869
146.658	24.820	1303.356	1060.855
147.673	24.872	1302.106	1060.048
148.687	24.783	1301.237	1058.722
149.702	24.861	1299.992	1058.079
150.716	24.916	1298.559	1057.140
151.731	24.816	1297.853	1055.882
152.746	24.897	1296.970	1055.549
153.760	24.968	1295.661	1054.805
154.775	24.807	1294.773	1053.045
155.789	24.971	1293.483	1052.867
156.804	24.843	1292.939	1051.576
157.819	24.911	1292.057	1051.164
158.833	24.944	1290.934	1050.356
159.848	24.900	1290.629	1049.753
160.862	24.988	1289.778	1049.485
161.877	24.935	1289.117	1048.546
162.892	24.916	1287.941	1047.386
163.906	24.887	1287.639	1046.877
164.921	24.977	1286.437	1046.334
165.935	24.960	1285.848	1045.658
166.950	24.940	1285.326	1045.024
167.964	25.020	1284.439	1044.677
168.979	25.010	1283.546	1043.801
169.994	25.113	1282.983	1043.852
171.008	24.947	1282.807	1042.647
172.023	25.043	1281.853	1042.339
173.037	25.007	1281.214	1041.518
174.052	24.929	1280.643	1040.512
175.067	25.049	1279.277	1040.006
176.081	24.973	1278.609	1038.929
177.096	25.068	1277.688	1038.640
178.110	25.024	1277.017	1037.747
179.125	25.082	1275.720	1036.936
180.140	25.072	1274.854	1036.084
181.154	25.150	1273.209	1035.104
182.169	25.036	1272.296	1033.611
183.183	24.945	1271.601	1032.434
184.198	25.084	1270.329	1032.110
185.213	25.062	1269.399	1031.137
186.227	25.150	1268.138	1030.525
187.242	25.126	1267.342	1029.648
188.256	25.078	1267.117	1029.103
189.271	25.108	1266.203	1028.439
190.286	25.028	1265.560	1027.368
191.300	25.148	1264.670	1027.242
192.315	25.161	1264.556	1027.130
193.329	25.012	1263.678	1025.475
194.344	25.185	1262.955	1025.788
195.359	25.119	1262.643	1025.067
196.373	25.075	1262.457	1024.574
197.388	25.159	1261.502	1024.186
198.402	25.058	1261.557	1023.562
199.417	25.022	1261.490	1023.216
200.432	25.085	1260.563	1022.731
201.446	25.108	1260.064	1022.364
202.461	25.099	1259.162	1021.494
203.475	25.113	1258.307	1020.788
204.490	25.140	1257.205	1019.959
205.504	25.142	1256.095	1018.978
206.519	25.191	1255.186	1018.428
207.534	25.139	1254.442	1017.440
208.548	25.167	1253.769	1016.961
209.563	25.156	1252.855	1016.072
210.577	25.151	1252.048	1015.297
211.592	25.136	1251.124	1014.374
212.607	25.197	1250.435	1014.067
213.621	25.279	1249.210	1013.450
214.636	25.212	1248.840	1012.684
215.650	25.269	1248.203	1012.395
216.665	25.184	1246.852	1010.734
217.680	25.218	1245.620	1009.836
218.694	25.195	1245.315	1009.370
219.709	25.250	1244.744	1009.126
220.723	25.252	1243.600	1008.121
221.738	25.106	1243.329	1006.990
222.753	25.205	1242.367	1006.680
223.767	25.169	1241.787	1005.917
224.782	25.333	1240.960	1006.077
225.796	25.319	1240.494	1005.536
226.811	25.325	1239.880	1004.980
227.826	25.346	1239.569	1004.757
228.840	25.359	1238.679	1004.019
229.855	25.296	1237.916	1002.962
230.869	25.296	1237.277	1002.350
231.884	25.283	1236.273	1001.379
232.899	25.328	1235.575	1000.976
233.913	25.255	1235.390	1000.331
234.928	25.432	1235.018	1000.926
235.942	25.407	1233.988	999.866
236.957	25.284	1233.354	998.579
237.972	25.380	1232.616	998.425
238.986	25.329	1231.965	997.528
240.001	25.338	1231.685	997.260
241.015	25.429	1230.622	996.815
242.030	25.522	1230.037	996.774
243.045	25.442	1229.559	995.853
244.059	25.512	1228.154	995.015
245.074	25.508	1227.385	994.281
246.088	25.591	1226.621	994.032
247.103	25.540	1225.796	992.995
248.117	25.528	1225.360	992.484
249.132	25.472	1224.644	991.510
250.147	25.528	1223.755	991.013
251.161	25.591	1222.918	990.594
252.176	25.544	1222.744	990.107
253.190	25.550	1221.877	989.348
254.205	25.553	1221.155	988.693
255.220	25.607	1220.506	988.375
256.234	25.571	1219.857	987.564
257.249	25.585	1219.422	987.201
258.263	25.635	1218.708	986.813
259.278	25.492	1218.167	985.504
260.293	25.531	1217.741	985.283
261.307	25.643	1217.072	985.267
262.322	25.549	1216.837	984.479
263.336	25.671	1215.935	984.328
264.351	25.502	1215.592	983.037
265.366	25.566	1214.656	982.545
266.380	25.605	1213.877	982.041
267.395	25.717	1212.767	981.664
268.409	25.720	1212.240	981.169
269.424	25.683	1211.783	980.511
270.439	25.569	1211.819	979.835
271.453	25.592	1210.812	979.058
272.468	25.776	1209.713	979.080
273.482	25.641	1208.939	977.633
274.497	25.820	1208.553	978.210
275.512	25.783	1208.167	977.609
276.526	25.768	1207.413	976.830
277.541	25.771	1206.870	976.324
278.555	25.769	1206.364	975.814
279.570	25.705	1205.541	974.716
280.585	25.815	1204.568	974.438
281.599	25.676	1204.313	973.392
282.614	25.705	1202.924	972.344
283.628	25.697	1202.130	971.571
284.643	25.849	1200.921	971.325
285.657	25.761	1200.357	970.311
286.672	25.832	1199.600	969.995
287.687	25.759	1198.695	968.784
288.701	25.876	1198.521	969.186
289.716	25.870	1197.593	968.322
290.730	25.876	1196.361	967.270
291.745	25.926	1195.756	966.966
292.760	25.825	1195.445	966.087
293.774	25.823	1195.150	965.751
294.789	25.777	1194.678	965.037
295.803	25.876	1193.606	964.614
296.818	25.809	1193.468	964.059
297.833	25.898	1192.532	963.695
298.847	25.880	1191.763	962.891
299.862	25.997	1191.243	963.012
300.876	25.951	1190.185	961.827
301.891	25.961	1189.723	961.421
302.906	25.986	1188.751	960.682
303.920	26.094	1188.151	960.689
304.935	26.005	1187.436	959.549
305.949	25.933	1186.959	958.699
306.964	25.987	1186.342	958.400
307.979	26.088	1185.976	958.559
308.993	26.112	1185.042	957.845
310.008	26.066	1184.482	957.063
311.022	26.068	1183.615	956.292
312.037	26.092	1182.607	955.515
313.052	26.067	1181.771	954.624
314.066	26.089	1181.157	954.160
315.081	26.105	1180.275	953.447
316.095	25.999	1179.749	952.382
317.110	26.109	1179.238	952.464
318.125	26.155	1178.432	951.970
319.139	26.113	1177.621	951.012
320.154	26.150	1177.273	950.841
321.168	26.130	1176.722	950.207
322.183	26.095	1176.398	949.678
323.197	26.173	1175.706	949.446
324.212	26.077	1174.972	948.264
325.227	26.188	1174.671	948.520
326.241	26.198	1174.422	948.285
327.256	26.173	1173.417	947.259
328.270	26.246	1172.300	946.654
329.285	26.135	1171.665	945.478
330.300	26.275	1170.741	945.383
331.314	26.281	1169.730	944.515
332.329	26.243	1169.345	943.919
333.343	26.266	1168.268	943.088
334.358	26.282	1167.812	942.721
335.373	26.337	1167.034	942.295
336.387	26.386	1166.276	941.852
337.402	26.312	1165.839	941.034
338.416	26.288	1165.346	940.429
339.431	26.249	1164.292	939.290
340.446	26.375	1163.412	939.151
341.460	26.399	1162.982	938.847
342.475	26.375	1162.227	938.028
343.489	26.468	1161.034	937.465
344.504	26.439	1160.460	936.766
345.519	26.421	1159.897	936.138
346.533	26.477	1158.867	935.515
347.548	26.452	1158.118	934.694
348.562	26.523	1157.247	934.278
349.577	26.509	1156.765	933.732
350.592	26.472	1155.888	932.752
351.606	26.416	1155.408	931.996
352.621	26.527	1154.620	931.848
353.635	26.546	1154.011	931.373
354.650	26.560	1153.398	930.868
355.665	26.592	1152.528	930.245
356.679	26.545	1152.318	929.750
357.694	26.610	1151.495	929.341
358.708	26.530	1150.904	928.369
359.723	26.600	1149.768	927.729
360.738	26.493	1149.607	926.971
361.752	26.538	1149.178	926.774
362.767	26.549	1148.773	926.419
363.781	26.659	1147.740	926.070
364.796	26.645	1147.508	925.726
365.810	26.603	1147.050	925.059
366.825	26.685	1145.995	924.547
367.840	26.636	1145.823	924.077
368.854	26.832	1144.892	924.241
369.869	26.748	1143.989	923.004
370.883	26.758	1143.041	922.211
371.898	26.791	1142.784	922.087
372.913	26.773	1142.304	921.527
373.927	26.775	1141.890	921.120
374.942	26.768	1141.424	920.628
375.956	26.744	1140.812	919.931
376.971	26.793	1140.407	919.773
377.986	26.779	1139.488	918.878
379.000	26.868	1138.835	918.723
380.015	26.796	1138.441	917.959
381.029	26.829	1137.809	917.535
382.044	26.854	1137.134	917.036
383.059	26.951	1136.581	916.999
384.073	26.813	1135.923	915.690
385.088	26.873	1134.884	915.072
386.102	26.905	1133.955	914.404
387.117	26.857	1133.018	913.326
388.132	26.876	1132.012	912.531
389.146	26.778	1131.824	911.807
390.161	26.943	1131.011	911.900
391.175	26.885	1130.234	910.900
392.190	27.008	1129.696	911.005
393.205	26.903	1129.023	909.852
394.219	27.003	1128.228	909.634
395.234	26.982	1127.507	908.866
396.248	27.015	1126.372	908.037
397.263	27.052	1125.560	907.487
398.278	26.976	1125.350	906.855
399.292	27.143	1124.514	906.937
400.307	27.163	1124.132	906.649
401.321	27.093	1123.408	905.634
402.336	26.992	1122.758	904.526
403.350	26.981	1122.180	903.928
404.365	27.108	1121.196	903.687
405.380	27.148	1120.289	903.075
406.394	27.012	1119.959	902.051
407.409	27.158	1119.210	902.095
408.423	27.194	1118.271	901.437
409.438	27.237	1117.545	900.982
410.453	27.167	1116.970	900.094
411.467	27.119	1116.105	899.078
412.482	27.164	1115.713	898.908
413.496	27.259	1114.875	898.623
414.511	27.182	1114.496	897.856
415.526	27.232	1113.815	897.477
416.540	27.269	1113.481	897.306
417.555	27.172	1113.107	896.451
418.569	27.246	1112.581	896.313
419.584	27.346	1112.089	896.329
420.599	27.341	1111.676	895.891
421.613	83.878	1294.199	1354.594
422.628	78.778	1320.791	1354.737
