DTS Sentinel unit serial number:	SN413079Multiplexer serial number:	ORYXHardware model number:	OX4-SRSoftware version number:	ORYX F/W v4.00 Oryx Data Collector v3.7.2.0data status	okinstallation	princeton_trtdifferential loss correction	single-endedforward channel	channel 2reverse channel	N/Adate	2019/09/14time	11:11:35forward acquisition time	60.00reverse acquisition time	0.00gamma	496.2192k internal	0.2312k external	0.2312temperature offset calibration	1.0151default loss term (dB/km)	0.3790temperature slope calibration	1.0000multiplexer offset coefficient	1.0000multiplexer slope coefficient	1.0000fibre end	0.00T internal ref (°C)	36.44T ext. ref 1 (°C)	4.46T ext. ref 2 (°C)	33.87length (m)	temperature (°C)	Stokes	anti-Stokes-747.200	614.624	0.065	-0.164
-746.185	31.455	-0.112	-0.098
-745.171	-200.000	-0.001	0.005
-744.156	800.000	0.022	0.073
-743.142	-85.093	-0.148	0.047
-742.127	-200.000	0.026	0.146
-741.112	-88.320	0.181	-0.055
-740.098	-68.310	-0.090	-0.036
-739.083	0.793	-0.321	-0.233
-738.069	-109.412	-0.419	-0.090
-737.054	-71.199	0.084	0.032
-736.039	44.725	-0.299	-0.279
-735.025	-200.000	0.001	0.319
-734.010	631.672	0.032	-0.083
-732.996	186.842	-0.267	-0.404
-731.981	-129.420	-0.232	0.033
-730.966	800.000	-0.058	0.237
-729.952	-200.000	-0.027	-0.283
-728.937	13.588	-0.307	-0.242
-727.923	800.000	0.056	0.223
-726.908	800.000	-0.045	-0.135
-725.894	-200.000	-0.028	-0.213
-724.879	-82.830	0.098	-0.032
-723.864	-129.947	-0.219	-0.030
-722.850	98.450	-0.161	-0.188
-721.835	-96.509	-0.429	-0.115
-720.821	4.302	0.311	0.231
-719.806	12.568	-0.273	0.214
-718.791	-200.000	-0.005	0.081
-717.777	95.485	-0.129	-0.150
-716.762	-55.333	-0.304	0.139
-715.748	-32.888	-0.290	-0.163
-714.733	-143.392	0.365	0.035
-713.718	-200.000	-0.005	-0.057
-712.704	-76.159	-0.240	0.086
-711.689	290.128	0.133	-0.244
-710.675	800.000	0.075	0.249
-709.660	-12.186	0.240	0.159
-708.645	607.185	0.131	0.331
-707.631	-80.267	0.211	-0.072
-706.616	-16.098	-0.135	0.087
-705.602	107.967	-0.095	-0.115
-704.587	800.000	-0.024	0.090
-703.572	-200.000	0.026	0.147
-702.558	-35.716	0.042	-0.023
-701.543	492.360	-0.039	0.091
-700.529	-111.402	-0.557	0.115
-699.514	-77.101	-0.120	-0.042
-698.499	-57.265	-0.179	0.080
-697.485	43.897	-0.255	-0.236
-696.470	-82.044	-0.215	-0.071
-695.456	800.000	0.091	-0.392
-694.441	640.929	0.206	-0.532
-693.426	-66.455	-0.124	0.050
-692.412	800.000	-0.072	0.239
-691.397	2.545	0.081	-0.059
-690.383	-70.683	-0.212	0.081
-689.368	52.738	0.190	-0.184
-688.354	229.964	-0.058	0.096
-687.339	-38.622	0.308	0.165
-686.324	156.875	-0.116	0.162
-685.310	-200.000	0.004	0.048
-684.295	-29.188	-0.264	-0.153
-683.281	212.059	-0.110	-0.176
-682.266	-70.285	-0.198	-0.076
-681.251	-182.962	-0.102	0.002
-680.237	-200.000	0.001	-0.127
-679.222	190.374	-0.169	-0.257
-678.208	108.493	0.024	-0.030
-677.193	-200.000	-0.009	0.271
-676.178	335.034	0.076	0.150
-675.164	800.000	-0.037	0.157
-674.149	-188.254	0.284	-0.004
-673.135	800.000	-0.107	-0.413
-672.120	-137.681	-0.158	-0.018
-671.105	-0.196	-0.185	-0.133
-670.091	800.000	-0.019	0.066
-669.076	181.557	-0.225	0.335
-668.062	205.270	-0.046	-0.073
-667.047	-89.289	0.262	-0.078
-666.032	171.749	-0.076	-0.111
-665.018	-153.624	-0.069	0.005
-664.003	-110.781	0.243	-0.051
-662.989	6.343	0.332	-0.249
-661.974	-7.173	0.289	0.199
-660.959	272.744	-0.152	-0.272
-659.945	-137.919	0.479	-0.054
-658.930	-0.722	0.268	-0.192
-657.916	-188.846	0.320	-0.004
-656.901	62.669	-0.135	-0.136
-655.886	-64.346	-0.255	-0.105
-654.872	-167.161	-0.175	-0.007
-653.857	102.553	-0.096	-0.114
-652.843	-65.010	-0.077	-0.032
-651.828	-200.000	0.041	-0.437
-650.814	491.238	-0.054	-0.124
-649.799	1.516	-0.055	-0.040
-648.784	293.214	0.088	-0.163
-647.770	-200.000	-0.019	-0.262
-646.755	800.000	-0.131	0.369
-645.741	785.839	-0.068	0.190
-644.726	-72.405	-0.404	-0.151
-643.711	-20.244	-0.138	0.086
-642.697	52.661	0.161	0.155
-641.682	-98.532	0.041	-0.011
-640.668	-152.562	-0.073	-0.005
-639.653	550.214	0.062	-0.150
-638.638	-200.000	0.023	-0.301
-637.624	2.927	-0.359	-0.263
-636.609	114.149	-0.072	-0.089
-635.595	13.395	0.162	0.127
-634.580	138.673	0.063	0.084
-633.565	150.024	-0.187	0.256
-632.551	56.422	0.060	0.059
-631.536	-200.000	0.014	-0.275
-630.522	11.552	0.087	0.067
-629.507	-93.851	-0.267	-0.074
-628.492	-41.961	0.082	-0.043
-627.478	284.363	-0.100	-0.182
-626.463	92.550	0.059	-0.068
-625.449	83.759	-0.316	0.348
-624.434	-123.118	-0.211	0.034
-623.419	800.000	0.003	0.008
-622.405	21.224	0.092	-0.075
-621.390	85.674	-0.222	0.246
-620.376	-107.736	-0.360	-0.079
-619.361	-11.153	0.150	-0.100
-618.346	800.000	-0.073	-0.310
-617.332	800.000	-0.030	-0.122
-616.317	-154.855	0.106	-0.007
-615.303	-150.677	0.047	0.004
-614.288	-45.462	-0.120	-0.060
-613.273	800.000	-0.079	0.222
-612.259	215.327	0.272	-0.436
-611.244	-200.000	0.058	-0.259
-610.230	-102.254	0.250	-0.061
-609.215	158.019	0.053	-0.073
-608.201	31.504	-0.200	-0.174
-607.186	800.000	-0.050	-0.162
-606.171	356.881	0.126	0.254
-605.157	127.096	-0.386	0.494
-604.142	136.629	-0.163	0.214
-603.128	4.762	-0.075	0.056
-602.113	-74.743	0.030	0.011
-601.098	800.000	-0.091	0.376
-600.084	18.637	-0.201	-0.162
-599.069	525.448	-0.059	-0.140
-598.055	-142.776	0.064	-0.006
-597.040	-97.325	-0.208	-0.055
-596.025	-81.290	-0.209	0.070
-595.011	-148.867	-0.194	-0.016
-593.996	460.957	0.045	0.102
-592.982	-63.678	0.364	0.150
-591.967	247.492	-0.115	-0.197
-590.952	-200.000	0.006	-0.215
-589.938	-163.592	0.269	-0.013
-588.923	-74.327	-0.180	-0.066
-587.909	118.143	0.164	-0.204
-586.894	50.523	0.140	-0.134
-585.879	246.608	-0.074	0.126
-584.865	429.723	0.146	0.318
-583.850	-113.636	-0.287	-0.056
-582.836	585.885	0.043	-0.106
-581.821	800.000	0.007	0.025
-580.806	147.879	0.116	0.158
-579.792	-53.861	-0.404	-0.186
-578.777	-129.726	-0.442	0.061
-577.763	518.320	-0.037	0.086
-576.748	-11.258	-0.058	-0.039
-575.733	89.602	-0.071	0.080
-574.719	30.122	-0.092	0.079
-573.704	800.000	-0.101	-0.372
-572.690	-91.889	0.225	-0.064
-571.675	-51.086	-0.213	0.101
-570.661	574.282	-0.109	-0.268
-569.646	-200.000	-0.101	0.000
-568.631	5.906	-0.226	0.168
-567.617	519.282	-0.087	0.206
-566.602	800.000	0.046	0.189
-565.588	-45.613	-0.380	0.189
-564.573	-50.630	-0.100	0.048
-563.558	800.000	0.053	-0.153
-562.544	800.000	-0.056	-0.177
-561.529	186.897	0.174	-0.261
-560.515	279.086	0.112	0.201
-559.500	733.665	0.039	-0.105
-558.485	-162.140	0.219	-0.011
-557.471	-98.785	0.223	-0.057
-556.456	-13.213	0.186	-0.122
-555.442	-49.667	-0.130	-0.062
-554.427	22.317	0.287	-0.236
-553.412	-79.450	-0.015	-0.005
-552.398	319.096	-0.040	0.076
-551.383	-200.000	-0.012	0.148
-550.369	-121.454	0.269	-0.045
-549.354	101.315	0.100	-0.118
-548.339	60.799	0.287	0.286
-547.325	220.189	0.132	-0.214
-546.310	800.000	0.049	-0.172
-545.296	-200.000	-0.010	-0.109
-544.281	594.436	-0.139	0.347
-543.266	-38.379	0.177	-0.094
-542.252	29.192	-0.123	0.105
-541.237	-161.840	-0.202	-0.010
-540.223	85.614	-0.213	-0.236
-539.208	61.582	0.163	0.163
-538.193	-12.243	0.128	0.084
-537.179	-74.639	0.070	-0.025
-536.164	62.077	-0.101	0.101
-535.150	-12.194	0.170	-0.112
-534.135	277.647	-0.075	-0.134
-533.121	99.500	-0.086	-0.100
-532.106	-200.000	-0.024	0.146
-531.091	-136.069	-0.190	0.022
-530.077	443.960	0.146	0.322
-529.062	-200.000	-0.032	0.186
-528.048	-6.307	-0.142	0.098
-527.033	-32.845	-0.122	-0.068
-526.018	94.078	-0.182	-0.208
-525.004	8.011	0.093	0.070
-523.989	-154.223	-0.285	-0.019
-522.975	115.171	-0.172	-0.212
-521.960	-67.796	0.078	-0.031
-520.945	-27.001	-0.038	-0.022
-519.931	44.053	0.114	0.105
-518.916	-200.000	-0.009	-0.057
-517.902	-74.965	0.172	0.062
-516.887	-127.512	-0.347	0.051
-515.872	-135.579	0.075	0.009
-514.858	94.043	0.130	-0.149
-513.843	-30.857	0.152	-0.086
-512.829	75.772	-0.081	-0.086
-511.814	800.000	0.025	-0.073
-510.799	-129.596	0.135	-0.019
-509.785	-129.551	0.416	-0.058
-508.770	-72.363	0.258	-0.096
-507.756	800.000	0.039	0.107
-506.741	-6.628	-0.353	0.241
-505.726	-200.000	0.039	0.394
-504.712	-200.000	-0.002	-0.157
-503.697	85.322	0.132	-0.146
-502.683	-200.000	-0.024	0.250
-501.668	-94.566	-0.119	0.033
-500.653	-63.679	-0.258	-0.106
-499.639	447.692	0.082	-0.182
-498.624	-80.695	-0.277	-0.092
-497.610	-115.642	0.139	0.026
-496.595	265.644	-0.141	-0.248
-495.581	-33.038	0.161	-0.090
-494.566	164.330	0.083	0.118
-493.551	15.258	-0.242	-0.190
-492.537	281.115	0.193	-0.348
-491.522	-200.000	-0.001	0.200
-490.508	-200.000	0.005	0.103
-489.493	-79.506	0.258	0.088
-488.478	-8.144	0.084	0.057
-487.464	-66.908	0.345	0.137
-486.449	800.000	0.075	0.283
-485.435	-167.222	0.341	0.014
-484.420	95.188	-0.272	-0.312
-483.405	-83.838	-0.304	0.097
-482.391	-200.000	-0.017	-0.294
-481.376	-38.348	0.170	-0.091
-480.362	-119.137	0.161	-0.028
-479.347	-200.000	0.063	-0.336
-478.332	-110.126	-0.230	-0.048
-477.318	-104.794	0.228	0.053
-476.303	268.133	-0.014	-0.024
-475.289	-79.482	-0.337	0.115
-474.274	-200.000	-0.055	0.334
-473.259	800.000	0.116	-0.351
-472.245	305.222	-0.120	-0.225
-471.230	2.486	-0.276	0.200
-470.216	800.000	-0.103	-0.340
-469.201	800.000	0.035	0.142
-468.186	48.356	0.249	0.234
-467.172	-58.324	0.244	0.107
-466.157	-148.918	-0.186	0.015
-465.143	-34.104	0.238	-0.131
-464.128	-200.000	0.013	-0.141
-463.113	248.550	-0.098	0.167
-462.099	294.220	-0.165	0.302
-461.084	316.602	-0.057	-0.108
-460.070	-200.000	0.026	-0.497
-459.055	-128.663	-0.254	-0.036
-458.040	-85.546	0.084	-0.026
-457.026	276.813	-0.222	0.395
-456.011	800.000	0.029	-0.108
-454.997	-38.801	-0.257	0.136
-453.982	-75.004	0.171	-0.061
-452.968	-138.910	0.047	-0.005
-451.953	-166.847	-0.454	0.019
-450.938	-99.729	0.039	0.010
-449.924	31.971	0.089	0.077
-448.909	370.088	0.056	-0.115
-447.895	88.993	0.327	-0.365
-446.880	-200.000	-0.011	-0.274
-445.865	80.987	-0.122	0.132
-444.851	-103.870	-0.069	0.016
-443.836	-48.470	0.158	0.076
-442.822	52.873	0.151	-0.145
-441.807	800.000	0.105	0.336
-440.792	-20.605	-0.367	-0.226
-439.778	49.630	-0.139	-0.131
-438.763	281.263	0.110	-0.197
-437.749	-200.000	-0.027	-0.234
-436.734	77.001	-0.161	-0.172
-435.719	654.026	0.082	0.210
-434.705	-83.825	0.262	-0.084
-433.690	-200.000	0.027	0.164
-432.676	421.143	-0.018	-0.038
-431.661	367.093	0.115	-0.233
-430.646	91.669	0.110	0.124
-429.632	618.802	0.044	0.112
-428.617	328.242	-0.053	-0.102
-427.603	-200.000	0.006	0.124
-426.588	-200.000	-0.012	0.150
-425.573	-12.432	-0.080	0.052
-424.559	-165.079	-0.078	0.003
-423.544	195.657	-0.116	-0.176
-422.530	247.365	-0.134	0.226
-421.515	24.485	0.218	0.180
-420.500	-155.610	0.256	0.017
-419.486	797.267	-0.050	-0.139
-418.471	10.498	-0.344	-0.262
-417.457	94.482	-0.178	0.203
-416.442	800.000	-0.108	-0.412
-415.428	-200.000	0.036	0.264
-414.413	264.051	0.138	0.240
-413.398	170.371	0.102	-0.146
-412.384	54.054	0.043	0.042
-411.369	220.483	0.075	-0.120
-410.355	-200.000	0.017	0.232
-409.340	130.466	-0.243	0.312
-408.325	-167.735	0.237	0.009
-407.311	232.439	0.129	-0.212
-406.296	-200.000	-0.088	0.000
-405.282	-90.723	0.141	0.041
-404.267	-115.240	-0.076	-0.014
-403.252	-200.000	0.053	-0.418
-402.238	349.316	0.089	-0.175
-401.223	-118.053	0.166	-0.030
-400.209	-200.000	0.007	0.108
-399.194	-20.202	-0.185	0.114
-398.179	800.000	0.051	-0.157
-397.165	-40.927	0.394	0.204
-396.150	-115.269	-0.160	-0.030
-395.136	505.558	0.062	-0.145
-394.121	-200.000	0.019	-0.234
-393.106	800.000	-0.044	0.189
-392.092	-48.885	-0.158	0.076
-391.077	-147.956	0.392	0.033
-390.063	429.295	-0.056	0.121
-389.048	-57.028	0.156	-0.069
-388.033	-154.683	0.188	0.013
-387.019	177.812	0.107	-0.155
-386.004	-8.334	0.180	0.122
-384.990	140.203	0.185	0.245
-383.975	-200.000	-0.033	0.198
-382.960	38.245	0.084	0.075
-381.946	-95.103	-0.051	-0.014
-380.931	149.200	-0.096	-0.130
-379.917	21.584	-0.039	0.032
-378.902	-13.049	0.073	0.048
-377.888	208.191	0.052	-0.082
-376.873	-74.228	0.189	0.068
-375.858	62.270	0.246	0.245
-374.844	-145.940	-0.188	-0.017
-373.829	-200.000	-0.016	0.210
-372.815	366.661	0.102	0.205
-371.800	136.249	-0.298	0.388
-370.785	-174.943	0.061	-0.002
-369.771	-70.751	-0.135	-0.051
-368.756	25.656	0.129	-0.108
-367.742	-80.883	0.195	-0.065
-366.727	204.934	-0.136	-0.211
-365.712	-200.000	-0.023	-0.157
-364.698	-120.492	-0.352	0.060
-363.683	-45.480	0.374	-0.185
-362.669	-103.403	-0.065	0.015
-361.654	800.000	0.049	0.159
-360.639	-200.000	0.008	0.079
-359.625	256.230	0.115	0.197
-358.610	800.000	-0.105	0.335
-357.596	800.000	-0.079	0.224
-356.581	76.236	-0.054	0.057
-355.566	45.438	0.091	-0.084
-354.552	99.135	-0.079	-0.091
-353.537	-11.041	-0.123	-0.081
-352.523	800.000	-0.068	-0.280
-351.508	321.488	0.086	-0.164
-350.493	-134.291	0.176	-0.022
-349.479	-45.397	-0.201	0.100
-348.464	-26.176	0.173	-0.102
-347.450	-85.369	0.368	-0.115
-346.435	-200.000	0.031	0.242
-345.420	506.309	-0.087	-0.201
-344.406	164.441	-0.105	-0.147
-343.391	800.000	-0.109	-0.307
-342.377	180.001	-0.031	-0.046
-341.362	3.452	0.222	-0.161
-340.348	-108.418	-0.189	-0.041
-339.333	579.918	0.043	0.105
-338.318	-104.028	-0.456	0.106
-337.304	231.330	0.170	0.278
-336.289	237.988	-0.123	0.203
-335.275	-53.565	0.324	0.148
-334.260	800.000	-0.050	-0.203
-333.245	186.859	-0.063	-0.094
-332.231	-146.687	0.196	0.017
-331.216	29.009	0.076	0.065
-330.202	-166.372	-0.260	0.011
-329.187	82.278	0.056	0.060
-328.172	130.599	0.125	-0.160
-327.158	76.792	0.210	0.222
-326.143	50.657	-0.088	-0.084
-325.129	800.000	-0.051	0.185
-324.114	-200.000	0.012	0.349
-323.099	322.476	0.097	-0.185
-322.085	-200.000	-0.011	0.051
-321.070	435.275	0.020	-0.044
-320.056	142.778	0.164	-0.218
-319.041	-172.622	0.140	-0.004
-318.026	-40.238	0.291	0.151
-317.012	331.836	-0.112	0.216
-315.997	2.188	-0.142	0.102
-314.983	45.645	-0.143	-0.132
-313.968	76.929	-0.177	-0.188
-312.953	430.335	-0.106	0.228
-311.939	-64.990	0.215	-0.087
-310.924	19.310	0.212	-0.170
-309.910	-18.212	-0.273	-0.170
-308.895	-80.135	-0.049	-0.016
-307.880	150.714	0.209	0.284
-306.866	130.615	-0.121	-0.154
-305.851	-162.709	0.390	-0.019
-304.837	59.319	0.194	0.190
-303.822	-200.000	0.030	0.192
-302.807	141.314	0.076	0.100
-301.793	800.000	0.155	0.584
-300.778	-200.000	0.011	0.366
-299.764	-17.286	-0.101	-0.063
-298.749	-27.706	-0.145	-0.084
-297.735	238.158	0.173	-0.286
-296.720	-200.000	-0.013	-0.061
-295.705	166.466	0.230	0.325
-294.691	407.596	-0.139	0.292
-293.676	-200.000	0.057	-0.297
-292.662	-200.000	0.031	0.196
-291.647	-200.000	0.003	-0.283
-290.632	-42.813	-0.289	0.147
-289.618	-169.408	-0.099	0.004
-288.603	-113.942	-0.154	-0.030
-287.589	100.644	0.188	0.218
-286.574	800.000	0.101	0.297
-285.559	553.362	0.151	0.361
-284.545	-152.218	-0.215	-0.016
-283.530	547.069	-0.208	0.496
-282.516	-35.507	0.250	-0.135
-281.501	-28.089	0.062	0.036
-280.486	-5.389	-0.077	0.053
-279.472	90.695	0.221	-0.247
-278.457	-180.978	0.226	-0.005
-277.443	-200.000	-0.035	-0.362
-276.428	0.169	0.277	-0.197
-275.413	34.198	0.105	0.091
-274.399	-51.421	-0.393	-0.183
-273.384	-37.876	0.150	0.080
-272.370	-129.916	0.132	-0.018
-271.355	-200.000	-0.034	0.316
-270.340	-39.555	0.094	0.049
-269.326	45.142	-0.165	-0.151
-268.311	32.630	-0.193	-0.166
-267.297	-56.663	0.261	0.115
-266.282	298.696	-0.176	0.323
-265.267	216.959	-0.034	-0.053
-264.253	79.270	0.286	0.305
-263.238	-99.201	-0.308	0.078
-262.224	-130.379	-0.042	-0.006
-261.209	-200.000	-0.002	0.195
-260.195	800.000	-0.046	-0.166
-259.180	505.368	-0.056	0.129
-258.165	800.000	-0.062	0.199
-257.151	-82.314	-0.121	0.039
-256.136	-145.900	-0.107	-0.009
-255.122	-200.000	-0.010	-0.142
-254.107	-38.167	0.151	-0.080
-253.092	-22.828	-0.111	0.067
-252.078	-200.000	-0.278	0.000
-251.063	-61.176	0.137	-0.058
-250.049	-200.000	0.004	-0.246
-249.034	656.399	0.168	-0.430
-248.019	715.004	0.030	-0.079
-247.005	340.192	0.173	0.336
-245.990	-71.614	0.141	-0.052
-244.976	800.000	0.140	0.387
-243.961	-101.684	-0.057	0.014
-242.946	-77.534	-0.186	0.064
-241.932	-200.000	-0.021	0.257
-240.917	281.973	-0.251	-0.447
-239.903	394.874	0.062	-0.130
-238.888	11.198	0.411	-0.313
-237.873	-151.752	-0.230	-0.017
-236.859	91.617	0.171	0.192
-235.844	58.895	0.227	-0.222
-234.830	-83.817	-0.176	0.056
-233.815	-126.039	0.070	0.010
-232.800	800.000	0.032	-0.137
-231.786	345.162	0.149	-0.290
-230.771	-165.108	-0.408	-0.018
-229.757	-73.166	-0.306	-0.112
-228.742	-200.000	0.018	-0.184
-227.727	800.000	-0.077	-0.239
-226.713	38.880	-0.115	0.103
-225.698	50.837	0.142	-0.134
-224.684	-15.736	-0.187	0.119
-223.669	-73.325	-0.412	-0.150
-222.655	-200.000	-0.013	0.292
-221.640	193.968	0.280	0.422
-220.625	115.700	-0.138	-0.168
-219.611	45.270	-0.144	0.132
-218.596	-16.170	-0.290	-0.183
-217.582	-122.538	-0.093	0.015
-216.567	223.438	0.097	-0.155
-215.552	800.000	0.039	-0.123
-214.538	0.600	0.036	0.026
-213.523	284.617	0.050	-0.090
-212.509	23.091	-0.126	0.103
-211.494	171.148	-0.108	-0.153
-210.479	-200.000	0.027	-0.156
-209.465	-2.602	0.233	-0.162
-208.450	25.576	-0.102	0.084
-207.436	-200.000	0.028	-0.159
-206.421	264.804	0.155	0.268
-205.406	56.060	0.098	-0.095
-204.392	-165.935	-0.284	-0.012
-203.377	92.909	0.179	-0.201
-202.363	-104.494	-0.574	0.132
-201.348	-89.960	-0.151	-0.044
-200.333	-72.966	0.220	0.080
-199.319	70.075	-0.114	0.117
-198.304	800.000	0.052	0.166
-197.290	800.000	-0.141	-0.532
-196.275	232.852	0.135	0.220
-195.260	123.834	0.199	-0.248
-194.246	89.564	-0.114	0.126
-193.231	-81.202	0.318	0.104
-192.217	58.608	-0.256	-0.249
-191.202	109.614	0.106	-0.126
-190.187	-200.000	-0.007	0.225
-189.173	775.259	-0.043	-0.116
-188.158	149.118	-0.107	0.143
-187.144	-33.508	0.070	-0.038
-186.129	-123.716	0.272	-0.043
-185.114	-124.318	-0.413	0.064
-184.100	42.365	0.064	0.058
-183.085	76.510	-0.189	-0.199
-182.071	32.031	-0.103	0.088
-181.056	256.852	0.128	0.218
-180.042	-84.218	0.233	-0.073
-179.027	-200.000	0.025	0.183
-178.012	385.396	0.170	0.349
-176.998	-138.612	-0.145	-0.016
-175.983	133.253	0.468	0.600
-174.969	110.758	-0.035	-0.042
-173.954	800.000	-0.124	-0.351
-172.939	800.000	-0.035	0.110
-171.925	310.412	-0.051	-0.095
-170.910	430.431	0.081	-0.173
-169.896	40.468	0.120	-0.107
-168.881	440.161	-0.153	0.332
-167.866	-4.222	0.049	0.034
-166.852	-185.646	-0.214	-0.003
-165.837	-91.638	0.310	0.088
-164.823	-200.000	0.049	0.401
-163.808	-51.556	-0.155	0.072
-162.793	-200.000	0.064	-0.334
-161.779	-82.296	0.401	0.129
-160.764	45.213	0.096	-0.088
-159.750	-200.000	0.061	0.381
-158.735	579.154	0.019	-0.047
-157.720	55.226	0.253	-0.243
-156.706	800.000	-0.056	-0.235
-155.691	55.270	0.116	-0.111
-154.677	-200.000	0.034	-0.195
-153.662	-200.000	-0.036	0.201
-152.647	208.205	-0.063	0.098
-151.633	-95.537	0.305	-0.081
-150.618	-59.617	-0.529	-0.225
-149.604	-200.000	-0.070	-0.331
-148.589	-200.000	0.025	-0.341
-147.574	800.000	0.051	0.211
-146.560	12.524	-0.181	-0.138
-145.545	184.201	0.112	-0.165
-144.531	-10.555	-0.175	0.115
-143.516	-200.000	0.010	-0.122
-142.502	39.023	-0.107	-0.095
-141.487	74.951	-0.145	0.152
-140.472	-44.220	-0.345	-0.171
-139.458	-200.000	-0.027	0.130
-138.443	122.053	-0.025	-0.032
-137.429	-75.992	0.222	-0.078
-136.414	-127.691	0.361	-0.052
-135.399	800.000	-0.191	0.629
-134.385	-104.289	-0.047	-0.011
-133.370	-126.245	-0.226	-0.033
-132.356	800.000	-0.067	0.224
-131.341	35.370	-0.190	0.165
-130.326	277.617	0.065	-0.115
-129.312	-134.449	-0.271	-0.033
-128.297	-100.700	0.133	0.033
-127.283	233.944	0.106	0.173
-126.268	-47.291	0.224	0.108
-125.253	112.617	-0.022	-0.027
-124.239	510.827	-0.088	-0.203
-123.224	-108.613	0.100	0.021
-122.210	-55.526	0.137	-0.061
-121.195	-124.652	-0.317	0.049
-120.180	113.808	-0.024	-0.029
-119.166	800.000	0.035	0.119
-118.151	-200.000	-0.007	0.162
-117.137	26.226	0.048	0.040
-116.122	-91.813	-0.291	0.082
-115.107	13.528	0.133	-0.102
-114.093	55.789	0.231	0.222
-113.078	42.936	0.102	0.092
-112.064	767.531	0.081	0.218
-111.049	303.317	0.073	-0.134
-110.034	-32.186	0.386	-0.213
-109.020	608.502	0.066	0.163
-108.005	800.000	0.064	-0.242
-106.991	235.441	0.178	-0.291
-105.976	270.195	0.051	-0.089
-104.962	-92.873	-0.480	-0.133
-103.947	503.862	0.231	-0.529
-102.932	107.878	0.270	0.318
-101.918	-200.000	-0.041	-0.250
-100.903	-200.000	0.035	0.259
-99.889	-49.387	-0.271	0.128
-98.874	172.961	-0.022	-0.031
-97.859	246.531	-0.167	-0.278
-96.845	-200.000	-0.007	0.064
-95.830	98.007	0.062	0.071
-94.816	-1.771	0.082	0.057
-93.801	216.954	-0.060	-0.095
-92.786	800.000	-0.077	-0.241
-91.772	-46.999	-0.200	-0.097
-90.757	117.952	-0.308	-0.375
-89.743	-60.908	-0.086	0.036
-88.728	154.126	-0.156	-0.212
-87.713	-81.904	0.259	0.084
-86.699	800.000	-0.157	-0.439
-85.684	102.860	-0.027	0.031
-84.670	-8.922	-0.038	-0.025
-83.655	304.062	-0.123	-0.225
-82.640	-78.843	0.144	0.048
-81.626	-121.438	-0.259	-0.043
-80.611	43.908	-0.170	-0.154
-79.597	11.600	0.321	-0.243
-78.582	800.000	-0.026	-0.084
-77.567	-5.221	0.226	0.154
-76.553	-72.882	0.381	-0.138
-75.538	26.730	0.390	-0.323
-74.524	800.000	-0.056	0.183
-73.509	-21.754	-0.112	0.068
-72.494	212.727	-0.090	-0.141
-71.480	-150.603	-0.131	-0.010
-70.465	-51.191	0.210	0.097
-69.451	-200.000	-0.126	0.000
-68.436	155.597	-0.032	-0.044
-67.422	647.073	0.055	0.140
-66.407	321.292	-0.176	0.331
-65.392	28.005	-0.206	0.172
-64.378	-200.000	-0.005	0.072
-63.363	59.641	0.138	-0.135
-62.349	437.561	-0.152	-0.327
-61.334	-38.984	-0.808	-0.420
-60.319	334.934	0.325	0.622
-59.305	626.750	-0.427	-1.065
-58.290	180.408	0.424	0.615
-57.276	452.075	0.687	1.500
-56.261	-200.000	88.525	497.525
-55.246	517.635	1410.608	3259.921
-54.232	180.352	2643.366	3830.530
-53.217	111.903	2367.226	2823.906
-52.203	45.449	1971.192	1797.146
-51.188	39.573	1755.424	1554.209
-50.173	36.839	1710.496	1493.327
-49.159	52.225	1754.657	1652.267
-48.144	55.537	1772.661	1695.005
-47.130	39.441	1731.675	1531.913
-46.115	36.521	1716.537	1495.902
-45.100	36.204	1712.453	1489.834
-44.086	36.251	1709.475	1487.545
-43.071	36.303	1706.489	1485.285
-42.057	36.163	1704.392	1482.326
-41.042	36.258	1702.518	1481.369
-40.027	36.293	1700.245	1479.597
-39.013	36.255	1698.887	1478.065
-37.998	36.245	1696.504	1475.864
-36.984	36.377	1695.656	1476.072
-35.969	36.415	1694.146	1474.992
-34.954	36.530	1691.874	1473.834
-33.940	36.444	1690.237	1471.692
-32.925	36.407	1688.602	1469.929
-31.911	36.451	1686.709	1468.559
-30.896	36.381	1684.869	1466.363
-29.881	36.450	1682.837	1465.058
-28.867	36.554	1681.190	1464.356
-27.852	36.359	1680.766	1462.456
-26.838	36.404	1678.472	1460.739
-25.823	36.457	1676.884	1459.699
-24.809	36.463	1675.792	1458.737
-23.794	36.432	1674.346	1457.187
-22.779	36.477	1672.387	1455.765
-21.765	36.491	1671.195	1454.774
-20.750	36.365	1669.348	1452.161
-19.736	36.440	1667.716	1451.248
-18.721	36.444	1665.932	1449.663
-17.706	36.477	1664.629	1448.724
-16.692	36.468	1662.882	1447.079
-15.677	36.456	1661.703	1445.903
-14.663	36.511	1660.704	1445.385
-13.648	36.504	1659.007	1443.800
-12.633	36.487	1657.295	1442.128
-11.619	36.453	1656.267	1440.924
-10.604	36.518	1654.450	1439.771
-9.590	36.583	1652.945	1438.888
-8.575	36.550	1651.662	1437.466
-7.560	36.350	1650.681	1435.071
-6.546	36.442	1649.144	1434.356
-5.531	36.476	1648.165	1433.701
-4.517	36.406	1646.993	1432.104
-3.502	36.445	1645.889	1431.380
-2.487	36.529	1644.387	1430.635
-1.473	36.548	1633.179	1420.967
-0.458	34.153	1613.918	1386.728
0.556	32.058	1613.066	1352.329
1.571	29.446	1637.844	1353.845
2.586	28.444	1650.436	1356.725
3.600	24.503	1593.980	1281.965
4.615	14.344	1476.339	1119.329
5.629	5.920	1407.949	1013.189
6.644	4.538	1398.870	997.700
7.659	4.430	1397.232	995.753
8.673	4.395	1396.261	994.745
9.688	4.477	1394.887	994.207
10.702	4.469	1392.096	992.079
11.717	7.950	1399.389	1019.506
12.731	17.177	1415.906	1090.970
13.746	22.062	1423.223	1127.962
14.761	21.188	1420.439	1120.049
15.775	20.207	1417.722	1111.529
16.790	19.034	1415.345	1102.056
17.804	18.262	1412.913	1095.125
18.819	17.820	1411.343	1090.987
19.834	17.693	1409.940	1088.994
20.848	17.440	1408.864	1086.451
21.863	17.239	1407.096	1083.710
22.877	17.120	1406.027	1082.033
23.892	17.062	1405.424	1081.107
24.907	16.983	1404.441	1079.751
25.921	17.029	1403.187	1078.982
26.936	17.078	1402.706	1078.827
27.950	17.258	1401.019	1078.576
28.965	17.169	1400.701	1077.675
29.980	17.267	1399.281	1077.104
30.994	17.319	1398.033	1076.382
32.009	17.438	1397.066	1076.295
33.023	17.355	1396.170	1074.984
34.038	17.288	1395.013	1073.571
35.053	17.303	1393.287	1072.248
36.067	17.191	1392.380	1070.749
37.082	17.268	1390.819	1069.934
38.096	17.270	1390.568	1069.660
39.111	17.314	1389.555	1069.065
40.126	17.157	1388.873	1067.459
41.140	17.025	1387.295	1065.325
42.155	16.887	1387.088	1064.202
43.169	16.908	1386.821	1064.036
44.184	16.789	1387.223	1063.505
45.199	16.886	1385.987	1063.069
46.213	17.049	1385.509	1063.629
47.228	17.125	1384.766	1063.439
48.242	17.158	1383.673	1062.716
49.257	17.088	1382.485	1061.273
50.271	17.025	1380.916	1059.579
51.286	17.212	1378.781	1059.009
52.301	17.207	1377.539	1057.935
53.315	17.134	1376.716	1056.753
54.330	17.006	1375.603	1055.012
55.344	16.962	1374.573	1053.854
56.359	16.945	1373.387	1052.743
57.374	16.778	1372.971	1051.295
58.388	16.927	1371.093	1050.691
59.403	16.832	1371.147	1050.046
60.417	16.851	1370.195	1049.344
61.432	16.826	1369.440	1048.516
62.447	16.774	1368.208	1047.163
63.461	16.789	1366.709	1046.016
64.476	16.655	1366.244	1044.736
65.490	16.775	1364.570	1044.103
66.505	16.735	1362.953	1042.532
67.520	16.773	1362.061	1041.991
68.534	16.775	1361.005	1041.103
69.549	16.734	1360.078	1040.051
70.563	16.734	1358.868	1039.031
71.578	16.768	1357.426	1038.043
72.593	16.518	1356.798	1035.944
73.607	16.652	1355.772	1035.886
74.622	16.571	1355.569	1035.145
75.636	16.579	1355.023	1034.685
76.651	16.541	1354.244	1033.769
77.666	16.659	1353.630	1033.925
78.680	16.748	1352.720	1033.685
79.695	16.715	1352.500	1033.224
80.709	16.707	1351.606	1032.396
81.724	16.864	1350.721	1032.591
82.739	16.941	1349.821	1032.278
83.753	16.981	1349.335	1032.060
84.768	17.129	1348.039	1031.877
85.782	17.212	1346.965	1031.466
86.797	17.328	1345.171	1030.703
87.812	17.150	1344.055	1028.679
88.826	17.055	1343.590	1027.656
89.841	17.072	1342.164	1026.577
90.855	17.253	1341.122	1026.785
91.870	17.176	1340.360	1025.643
92.884	17.250	1339.366	1025.243
93.899	17.247	1338.820	1024.715
94.914	17.313	1338.235	1024.575
95.928	17.259	1337.330	1023.466
96.943	17.291	1335.641	1022.271
97.957	17.208	1334.790	1021.034
98.972	17.318	1333.302	1020.466
99.987	17.102	1333.221	1019.014
101.001	17.252	1331.637	1018.614
102.016	17.219	1331.085	1017.904
103.030	17.192	1330.178	1016.960
104.045	17.094	1329.618	1015.855
105.060	17.007	1328.102	1014.089
106.074	17.050	1325.992	1012.643
107.089	16.789	1325.212	1010.401
108.103	16.764	1323.400	1008.777
109.118	16.795	1322.623	1008.284
110.133	16.785	1321.124	1006.992
111.147	16.779	1319.781	1005.840
112.162	16.845	1318.321	1005.036
113.176	16.941	1316.925	1004.447
114.191	16.938	1316.438	1003.972
115.206	16.886	1315.168	1002.604
116.220	16.980	1313.857	1002.074
117.235	16.972	1313.152	1001.397
118.249	16.894	1312.145	1000.085
119.264	16.750	1310.937	998.222
120.279	16.872	1309.740	997.943
121.293	16.849	1308.458	996.741
122.308	16.790	1307.393	995.497
123.322	16.661	1306.553	994.012
124.337	16.664	1305.938	993.472
125.352	16.591	1304.592	991.936
126.366	16.721	1303.190	991.540
127.381	16.721	1302.350	990.813
128.395	16.756	1301.278	990.115
129.410	16.685	1300.498	989.022
130.424	16.820	1299.459	988.931
131.439	16.902	1298.874	988.876
132.454	16.950	1297.538	988.052
133.468	16.916	1297.023	987.375
134.483	16.997	1296.390	987.275
135.497	16.997	1295.450	986.474
136.512	16.992	1293.954	985.218
137.527	16.911	1292.618	983.641
138.541	17.021	1291.407	983.273
139.556	17.052	1289.996	982.287
140.570	17.085	1289.080	981.698
141.585	17.143	1287.595	980.815
142.600	17.281	1286.934	981.018
143.614	17.210	1286.442	980.149
144.629	17.287	1284.917	979.342
145.643	17.287	1283.567	978.227
146.658	17.163	1282.158	976.356
147.673	17.051	1280.383	974.273
148.687	17.022	1279.091	973.038
149.702	17.013	1278.110	972.155
150.716	16.990	1276.673	970.842
151.731	16.943	1276.054	970.018
152.746	17.086	1274.502	969.568
153.760	17.049	1273.496	968.507
154.775	17.156	1272.288	968.110
155.789	17.249	1270.781	967.410
156.804	17.219	1269.965	966.534
157.819	17.283	1268.806	965.931
158.833	17.235	1268.324	965.200
159.848	17.272	1267.450	964.661
160.862	17.359	1266.404	964.275
161.877	17.184	1265.227	962.302
162.892	16.999	1264.123	960.331
163.906	16.994	1262.988	959.352
164.921	17.044	1262.040	958.831
165.935	17.073	1261.458	958.470
166.950	17.177	1260.426	958.185
167.964	17.183	1259.554	957.474
168.979	17.230	1258.657	956.973
169.994	17.183	1257.917	956.059
171.008	17.165	1257.663	955.681
172.023	17.246	1256.640	955.272
173.037	17.378	1255.599	955.141
174.052	17.304	1254.764	954.002
175.067	17.154	1253.924	952.439
176.081	17.185	1252.540	951.475
177.096	17.121	1251.605	950.324
178.110	17.185	1250.524	949.778
179.125	17.186	1249.396	948.842
180.140	17.227	1248.204	948.082
181.154	17.178	1247.169	946.939
182.169	17.254	1245.890	946.310
183.183	17.380	1244.809	946.101
184.198	17.476	1243.411	945.488
185.213	17.394	1242.801	944.490
186.227	17.518	1240.956	943.689
187.242	17.489	1240.126	942.817
188.256	17.604	1239.711	943.053
189.271	17.613	1238.388	942.011
190.286	17.440	1237.354	940.184
191.300	17.136	1236.573	937.831
192.315	17.069	1235.322	936.430
193.329	17.178	1234.844	936.584
194.344	17.293	1233.772	936.324
195.359	17.356	1233.604	936.459
196.373	17.444	1232.984	936.392
197.388	17.456	1232.762	936.205
198.402	17.621	1232.544	936.865
199.417	17.784	1231.932	937.214
200.432	17.757	1231.379	936.558
201.446	17.811	1230.749	936.292
202.461	17.833	1229.438	935.332
203.475	17.804	1228.732	934.554
204.490	17.800	1226.851	933.018
205.504	17.657	1225.581	931.192
206.519	17.595	1224.475	929.927
207.534	17.579	1223.469	928.996
208.548	17.655	1222.358	928.483
209.563	17.619	1221.453	927.517
210.577	17.635	1220.500	926.802
211.592	17.684	1219.852	926.491
212.607	17.871	1219.239	926.959
213.621	17.773	1218.165	925.530
214.636	17.799	1217.288	924.921
215.650	17.823	1216.059	924.035
216.665	17.906	1215.121	923.690
217.680	18.052	1213.965	923.518
218.694	18.033	1213.547	923.019
219.709	17.918	1212.899	921.825
220.723	17.961	1211.949	921.252
221.738	17.956	1211.257	920.614
222.753	17.947	1210.445	919.872
223.767	17.953	1210.087	919.547
224.782	18.124	1209.175	919.693
225.796	17.993	1208.655	918.512
226.811	18.170	1207.788	918.726
227.826	17.893	1207.422	916.874
228.840	18.017	1205.747	916.185
229.855	17.809	1205.916	915.122
230.869	17.891	1204.706	914.558
231.884	17.900	1203.720	913.779
232.899	17.926	1203.068	913.343
233.913	17.871	1202.290	912.379
234.928	17.892	1201.367	911.705
235.942	17.839	1200.193	910.455
236.957	17.792	1199.532	909.622
237.972	17.843	1198.935	909.360
238.986	17.864	1198.516	909.072
240.001	17.803	1197.882	908.189
241.015	17.851	1196.826	907.561
242.030	17.959	1196.093	907.501
243.045	18.028	1195.325	907.201
244.059	18.039	1194.555	906.596
245.074	18.033	1193.366	905.582
246.088	18.082	1192.620	905.192
247.103	18.228	1191.888	905.330
248.117	18.237	1191.367	904.902
249.132	18.322	1190.931	904.940
250.147	18.429	1190.043	904.751
251.161	18.610	1189.326	905.079
252.176	18.602	1188.661	904.452
253.190	18.648	1188.105	904.190
254.205	18.674	1187.641	903.897
255.220	18.816	1186.360	903.588
256.234	18.612	1186.297	902.389
257.249	18.744	1185.355	902.285
258.263	18.615	1184.779	901.091
259.278	18.613	1184.281	900.618
260.293	18.671	1183.738	900.433
261.307	18.699	1183.306	900.170
262.322	18.798	1182.305	899.850
263.336	18.866	1181.605	899.594
264.351	18.780	1181.245	898.788
265.366	18.890	1180.226	898.507
266.380	18.904	1179.432	897.898
267.395	18.850	1178.580	896.888
268.409	18.747	1177.794	895.673
269.424	18.633	1177.547	894.810
270.439	18.699	1176.804	894.513
271.453	18.685	1175.912	893.681
272.468	18.657	1174.832	892.637
273.482	18.654	1174.028	891.929
274.497	18.734	1173.695	892.014
275.512	18.691	1173.139	891.286
276.526	18.678	1171.950	890.239
277.541	18.674	1171.360	889.690
278.555	18.802	1170.038	889.269
279.570	18.889	1169.901	889.539
280.585	18.967	1168.986	889.169
281.599	18.938	1168.286	888.408
282.614	18.918	1167.051	887.283
283.628	18.819	1165.922	885.839
284.643	18.750	1164.814	884.564
285.657	18.944	1164.384	885.156
286.672	18.896	1163.608	884.243
287.687	18.891	1162.245	883.103
288.701	18.997	1161.752	883.192
289.716	18.946	1160.854	882.174
290.730	18.958	1159.918	881.443
291.745	19.006	1159.346	881.179
292.760	18.930	1158.898	880.371
293.774	19.108	1158.321	880.766
294.789	19.168	1157.868	880.649
295.803	19.097	1157.029	879.571
296.818	18.989	1156.137	878.263
297.833	18.954	1155.669	877.650
298.847	18.984	1154.593	876.905
299.862	18.994	1153.763	876.249
300.876	19.063	1153.038	875.976
301.891	19.208	1152.349	876.112
302.906	19.215	1152.110	875.887
303.920	19.266	1151.031	875.248
304.935	19.358	1150.405	875.164
305.949	19.470	1149.785	875.182
306.964	19.490	1149.089	874.676
307.979	19.317	1148.360	873.169
308.993	19.315	1147.615	872.514
310.008	19.436	1146.730	872.376
311.022	19.435	1146.306	871.968
312.037	19.472	1144.873	870.989
313.052	19.275	1144.437	869.586
314.066	19.205	1143.436	868.398
315.081	19.149	1142.574	867.382
316.095	19.140	1141.649	866.557
317.110	19.194	1141.017	866.274
318.125	19.250	1139.862	865.600
319.139	19.256	1139.186	865.041
320.154	19.213	1138.614	864.313
321.168	19.158	1138.315	863.734
322.183	19.175	1137.646	863.236
323.197	19.238	1136.844	862.867
324.212	19.324	1135.995	862.576
325.227	19.406	1135.434	862.486
326.241	19.370	1134.977	861.882
327.256	19.403	1134.035	861.253
328.270	19.175	1133.338	859.511
329.285	19.239	1131.962	858.711
330.300	19.370	1131.136	858.659
331.314	19.365	1130.244	857.880
332.329	19.306	1129.378	856.858
333.343	19.337	1128.585	856.330
334.358	19.560	1127.650	856.655
335.373	19.406	1127.280	855.531
336.387	19.489	1126.254	855.089
337.402	19.543	1125.873	854.995
338.416	19.534	1125.076	854.267
339.431	19.537	1124.491	853.761
340.446	19.708	1123.879	854.067
341.460	19.769	1122.915	853.560
342.475	19.805	1122.384	853.260
343.489	19.888	1121.183	852.679
344.504	19.845	1120.691	852.017
345.519	19.942	1119.499	851.511
346.533	19.864	1119.143	850.781
347.548	19.963	1117.957	850.293
348.562	19.958	1117.186	849.604
349.577	19.867	1116.256	848.377
350.592	19.845	1115.139	847.346
351.606	19.750	1114.377	846.228
352.621	19.791	1113.677	845.820
353.635	19.593	1113.546	844.677
354.650	19.632	1112.522	844.015
355.665	19.875	1111.985	844.722
356.679	19.854	1111.186	843.938
357.694	19.861	1110.719	843.544
358.708	19.954	1109.820	843.240
359.723	19.914	1109.368	842.625
360.738	19.856	1109.126	842.083
361.752	19.888	1108.787	841.909
362.767	19.996	1107.668	841.509
363.781	19.927	1107.401	840.895
364.796	19.899	1106.638	840.109
365.810	20.112	1105.868	840.480
366.825	20.264	1105.037	840.512
367.840	20.213	1104.880	840.072
368.854	20.266	1104.520	839.980
369.869	20.287	1103.270	839.057
370.883	20.314	1102.341	838.404
371.898	20.218	1101.731	837.405
372.913	20.229	1100.987	836.815
373.927	20.250	1100.632	836.573
374.942	20.218	1100.530	836.270
375.956	20.360	1099.666	836.225
376.971	20.257	1099.126	835.241
377.986	20.273	1098.667	834.895
379.000	20.389	1098.164	834.998
380.015	20.436	1097.357	834.535
381.029	20.557	1096.672	834.523
382.044	20.478	1096.104	833.638
383.059	20.442	1095.364	832.829
384.073	20.409	1094.548	831.976
385.088	20.514	1093.325	831.474
386.102	20.539	1092.231	830.691
387.117	20.314	1091.486	828.975
388.132	20.303	1090.457	828.066
389.146	20.404	1089.630	827.847
390.161	20.343	1089.118	827.094
391.175	20.418	1088.090	826.599
392.190	20.380	1087.569	825.945
393.205	20.550	1086.683	826.008
394.219	20.439	1085.929	824.837
395.234	20.465	1084.907	824.110
396.248	20.510	1083.367	823.080
397.263	20.372	1083.060	822.122
398.278	20.282	1082.348	821.082
399.292	20.219	1081.486	820.056
400.307	20.328	1080.770	819.959
401.321	20.308	1080.276	819.417
402.336	20.263	1079.488	818.533
403.350	20.386	1078.804	818.523
404.365	20.394	1078.399	818.180
405.380	20.415	1077.287	817.363
406.394	20.577	1076.417	817.392
407.409	20.489	1075.992	816.583
408.423	20.576	1075.419	816.485
409.438	20.753	1074.437	816.496
410.453	20.718	1073.857	815.818
411.467	20.871	1073.097	815.886
412.482	20.895	1072.530	815.497
413.496	20.862	1071.801	814.718
414.511	20.961	1071.242	814.680
415.526	20.936	1071.239	814.488
416.540	21.048	1070.233	814.178
417.555	20.999	1070.280	813.912
418.569	20.954	1069.558	813.082
419.584	21.106	1068.363	812.806
420.599	20.948	1068.223	811.891
421.613	150.135	1401.987	1783.133
422.628	138.226	1450.605	1783.248
