DTS Sentinel unit serial number:	SN413079Multiplexer serial number:	ORYXHardware model number:	OX4-SRSoftware version number:	ORYX F/W v4.00 Oryx Data Collector v3.7.2.0data status	okinstallation	princeton_trtdifferential loss correction	single-endedforward channel	channel 2reverse channel	N/Adate	2019/09/15time	19:55:35forward acquisition time	60.00reverse acquisition time	0.00gamma	496.2192k internal	0.2326k external	0.2326temperature offset calibration	0.9935default loss term (dB/km)	0.3790temperature slope calibration	1.0000multiplexer offset coefficient	1.0000multiplexer slope coefficient	1.0000fibre end	0.00T internal ref (°C)	36.16T ext. ref 1 (°C)	7.51T ext. ref 2 (°C)	26.83length (m)	temperature (°C)	Stokes	anti-Stokes-747.200	98.325	-0.066	-0.077
-746.185	800.000	-0.129	0.378
-745.171	-102.213	-0.294	0.071
-744.156	-52.434	0.175	0.082
-743.142	273.727	-0.071	-0.126
-742.127	-112.449	-0.181	0.036
-741.112	179.453	-0.226	-0.333
-740.098	-80.253	-0.233	0.079
-739.083	-18.057	0.146	0.092
-738.069	-17.613	-0.358	0.227
-737.054	800.000	0.137	0.385
-736.039	77.536	-0.140	0.150
-735.025	-38.257	0.117	0.062
-734.010	-200.000	-0.004	-0.083
-732.996	-128.952	-0.236	-0.033
-731.981	800.000	0.098	-0.392
-730.966	190.656	-0.153	0.232
-729.952	72.163	0.092	-0.097
-728.937	177.507	0.121	-0.178
-727.923	22.801	-0.140	0.115
-726.908	-3.502	0.301	-0.211
-725.894	23.289	-0.109	0.090
-724.879	-32.181	-0.249	0.140
-723.864	-76.970	0.105	-0.037
-722.850	800.000	0.110	-0.317
-721.835	800.000	0.084	-0.352
-720.821	244.692	-0.124	-0.211
-719.806	-200.000	-0.062	-0.384
-718.791	-40.435	0.168	-0.088
-717.777	-105.545	0.366	0.084
-716.762	-41.736	-0.136	0.070
-715.748	-200.000	0.000	0.393
-714.733	-10.772	0.200	0.133
-713.718	-182.889	0.271	0.005
-712.704	215.544	0.095	0.151
-711.689	-191.239	-0.044	0.000
-710.675	800.000	-0.067	-0.266
-709.660	-74.333	-0.145	-0.053
-708.645	-79.056	0.109	-0.037
-707.631	-200.000	-0.075	-0.652
-706.616	20.071	0.235	-0.191
-705.602	-15.818	0.191	0.123
-704.587	-136.385	0.270	0.032
-703.572	122.355	0.028	0.035
-702.558	800.000	0.088	-0.254
-701.543	-102.979	-0.336	-0.080
-700.529	-132.027	0.133	0.017
-699.514	33.188	-0.086	-0.075
-698.499	-101.429	0.294	-0.072
-697.485	-120.831	-0.181	-0.031
-696.470	-141.769	0.187	0.019
-695.456	5.115	-0.212	-0.157
-694.441	-51.863	-0.187	0.088
-693.426	-200.000	0.012	-0.259
-692.412	770.967	-0.085	0.234
-691.397	-48.936	0.230	0.111
-690.383	-109.952	-0.117	0.025
-689.368	373.879	0.156	-0.320
-688.354	98.700	-0.170	0.198
-687.339	-200.000	-0.031	0.220
-686.324	-167.151	-0.220	-0.009
-685.310	44.117	0.119	0.110
-684.295	31.457	-0.134	0.116
-683.281	-114.829	-0.226	-0.043
-682.266	800.000	-0.087	0.253
-681.251	-87.835	0.277	0.084
-680.237	-12.130	0.101	0.066
-679.222	-200.000	0.030	-0.160
-678.208	238.311	0.091	0.151
-677.193	38.021	0.162	0.145
-676.178	506.785	-0.090	-0.211
-675.164	250.813	0.114	-0.196
-674.149	-200.000	-0.019	-0.135
-673.135	-200.000	0.020	0.141
-672.120	288.317	-0.071	0.129
-671.105	170.205	0.102	0.147
-670.091	577.641	0.083	-0.205
-669.076	31.875	0.142	0.123
-668.062	-200.000	0.008	-0.177
-667.047	221.595	-0.248	0.401
-666.032	-146.257	0.061	0.005
-665.018	-200.000	0.064	-0.351
-664.003	64.307	0.208	0.211
-662.989	149.049	0.088	-0.120
-661.974	800.000	0.069	0.274
-660.959	-90.594	-0.094	-0.027
-659.945	-164.419	-0.267	-0.012
-658.930	341.921	0.113	0.222
-657.916	-200.000	-0.039	0.444
-656.901	-200.000	0.004	0.031
-655.886	-200.000	-0.125	-0.001
-654.872	52.366	-0.134	0.128
-653.857	229.806	0.121	-0.198
-652.843	302.647	0.144	-0.269
-651.828	-200.000	0.018	-0.094
-650.814	-22.067	-0.036	-0.022
-649.799	570.160	-0.065	-0.159
-648.784	-143.618	-0.219	0.021
-647.770	-15.823	0.073	0.047
-646.755	-200.000	0.007	0.208
-645.741	328.861	-0.082	0.158
-644.726	800.000	0.066	0.229
-643.711	117.083	0.157	0.193
-642.697	-153.547	-0.320	0.022
-641.682	80.670	0.247	-0.267
-640.668	-40.849	0.286	-0.149
-639.653	-85.637	-0.329	0.103
-638.638	38.833	0.081	-0.073
-637.624	-200.000	-0.010	0.063
-636.609	-200.000	0.010	0.047
-635.595	10.713	-0.248	0.190
-634.580	148.447	0.093	0.126
-633.565	266.683	-0.102	-0.179
-632.551	800.000	-0.075	0.303
-631.536	456.331	-0.123	-0.274
-630.522	-140.723	0.066	0.007
-629.507	409.054	0.114	-0.243
-628.492	-200.000	0.016	0.131
-627.478	52.844	-0.278	-0.267
-626.463	-57.344	-0.158	0.070
-625.449	131.290	-0.256	-0.331
-624.434	800.000	-0.049	0.150
-623.419	-118.426	0.347	-0.062
-622.405	126.201	-0.189	-0.240
-621.390	362.493	0.108	0.218
-620.376	167.602	0.242	0.345
-619.361	30.670	-0.154	0.133
-618.346	-117.685	-0.129	0.023
-617.332	122.724	-0.276	0.346
-616.317	59.863	0.084	-0.083
-615.303	201.162	0.079	-0.123
-614.288	-200.000	-0.010	0.123
-613.273	27.168	-0.332	-0.280
-612.259	800.000	-0.091	0.258
-611.244	334.647	-0.342	0.664
-610.230	-137.783	-0.111	-0.012
-609.215	297.739	-0.065	0.119
-608.201	-141.360	-0.317	-0.032
-607.186	14.148	0.038	0.030
-606.171	71.331	0.177	-0.184
-605.157	-171.931	0.175	0.006
-604.142	-181.825	0.086	0.002
-603.128	71.124	-0.041	0.043
-602.113	800.000	0.008	0.034
-601.098	145.422	-0.194	-0.261
-600.084	-54.778	0.432	-0.196
-599.069	-194.901	0.088	-0.001
-598.055	-144.100	0.265	-0.025
-597.040	-15.546	0.200	-0.128
-596.025	-200.000	-0.025	-0.640
-595.011	-191.505	-0.065	0.001
-593.996	-171.071	-0.113	-0.004
-592.982	-128.130	0.314	-0.045
-591.967	-71.074	-0.232	-0.087
-590.952	-200.000	-0.356	0.001
-589.938	-17.583	-0.280	-0.177
-588.923	-156.428	-0.205	-0.013
-587.909	-106.850	0.122	-0.027
-586.894	-120.129	0.257	0.044
-585.879	782.425	0.077	-0.211
-584.865	-27.319	0.236	-0.138
-583.850	-200.000	0.003	0.021
-582.836	800.000	0.073	-0.291
-581.821	-2.291	-0.325	-0.229
-580.806	-185.366	-0.158	0.002
-579.792	-51.868	0.383	0.179
-578.777	103.192	-0.156	0.184
-577.763	-97.359	0.060	-0.016
-576.748	10.398	0.104	0.079
-575.733	-200.000	0.035	0.201
-574.719	-87.346	0.338	0.103
-573.704	-200.000	0.029	-0.220
-572.690	-113.541	-0.195	0.038
-571.675	-200.000	0.020	-0.106
-570.661	-200.000	-0.011	0.166
-569.646	57.182	-0.256	-0.250
-568.631	-200.000	-0.044	0.294
-567.617	63.320	-0.168	0.169
-566.602	-49.512	0.169	0.081
-565.588	-56.435	-0.290	0.129
-564.573	-121.110	0.204	0.034
-563.558	800.000	-0.030	0.099
-562.544	-158.664	-0.346	0.020
-561.529	141.998	0.071	0.095
-560.515	-70.858	0.344	-0.130
-559.500	800.000	-0.017	-0.057
-558.485	-84.537	-0.282	0.089
-557.471	95.890	0.213	-0.243
-556.456	-200.000	-0.003	-0.042
-555.442	800.000	-0.117	0.325
-554.427	-200.000	0.002	0.049
-553.412	35.667	0.342	-0.300
-552.398	-121.713	-0.395	-0.065
-551.383	-15.570	0.275	-0.176
-550.369	-200.000	0.018	0.256
-549.354	-60.766	-0.335	0.142
-548.339	800.000	0.079	-0.260
-547.325	-12.061	0.256	-0.168
-546.310	488.963	0.133	0.305
-545.296	214.761	0.221	-0.351
-544.281	-200.000	0.031	-0.217
-543.266	-86.179	0.102	-0.032
-542.252	492.426	-0.083	-0.191
-541.237	-70.896	0.361	0.136
-540.223	74.024	0.085	0.089
-539.208	800.000	0.071	-0.286
-538.193	422.283	0.125	-0.269
-537.179	-200.000	-0.044	-0.215
-536.164	135.451	-0.221	-0.288
-535.150	-200.000	0.024	0.164
-534.135	-200.000	-0.016	0.094
-533.121	80.354	-0.162	-0.174
-532.106	10.749	-0.105	0.080
-531.091	196.762	0.198	-0.302
-530.077	-126.509	-0.222	-0.033
-529.062	115.725	0.080	0.098
-528.048	329.531	-0.144	0.278
-527.033	-200.000	-0.022	0.147
-526.018	-54.241	-0.365	-0.166
-525.004	102.525	0.106	0.124
-523.989	204.559	0.032	0.049
-522.975	250.427	-0.227	0.386
-521.960	800.000	0.076	-0.311
-520.945	800.000	-0.081	-0.270
-519.931	114.972	0.152	-0.186
-518.916	28.356	-0.124	0.105
-517.902	45.305	0.290	0.268
-516.887	105.364	0.066	-0.077
-515.872	181.341	0.211	-0.311
-514.858	654.709	-0.129	-0.331
-513.843	-45.093	0.228	-0.113
-512.829	800.000	0.093	0.375
-511.814	504.398	-0.036	-0.083
-510.799	-103.362	0.078	-0.018
-509.785	-165.617	0.415	0.018
-508.770	129.885	-0.276	-0.353
-507.756	-104.175	-0.080	-0.018
-506.741	-112.949	0.085	-0.017
-505.726	554.092	0.021	0.051
-504.712	11.123	-0.185	0.141
-503.697	-21.145	-0.314	0.192
-502.683	-200.000	0.019	0.123
-501.668	-200.000	0.006	-0.127
-500.653	-55.340	0.277	0.124
-499.639	181.526	0.033	0.048
-498.624	1.201	-0.183	0.131
-497.610	-200.000	-0.001	0.087
-496.595	64.885	-0.192	0.194
-495.581	-182.150	-0.258	-0.005
-494.566	121.289	-0.128	0.160
-493.551	36.659	0.045	-0.040
-492.537	-167.435	-0.370	-0.015
-491.522	135.630	0.211	-0.274
-490.508	-142.257	0.216	-0.021
-489.493	9.137	-0.336	0.254
-488.478	341.354	0.095	-0.185
-487.464	-65.214	-0.140	-0.056
-486.449	-56.446	-0.088	-0.039
-485.435	78.832	0.138	0.147
-484.420	-15.557	-0.184	0.117
-483.405	-200.000	-0.036	-0.305
-482.391	133.029	-0.013	-0.016
-481.376	-4.209	0.151	-0.105
-480.362	66.534	-0.089	0.090
-479.347	-200.000	0.001	0.077
-478.332	246.894	-0.073	-0.124
-477.318	-49.157	-0.111	-0.053
-476.303	171.236	-0.129	-0.184
-475.289	33.642	-0.124	0.108
-474.274	-10.154	-0.127	0.084
-473.259	327.470	-0.040	-0.076
-472.245	-164.807	0.195	-0.009
-471.230	-31.972	0.212	0.119
-470.216	138.890	0.173	0.227
-469.201	398.388	0.176	0.368
-468.186	69.874	-0.051	0.053
-467.172	-101.632	-0.377	-0.091
-466.157	38.130	-0.167	-0.148
-465.143	297.909	0.076	0.139
-464.128	-66.476	-0.449	-0.178
-463.113	-163.351	0.151	-0.007
-462.099	-200.000	-0.008	0.049
-461.084	-98.325	0.313	0.080
-460.070	265.941	-0.070	0.123
-459.055	-76.209	-0.150	0.053
-458.040	-200.000	-0.057	0.268
-457.026	-200.000	0.010	0.177
-456.011	-200.000	0.059	-0.348
-454.997	231.575	-0.035	0.057
-453.982	-200.000	0.176	0.000
-452.968	78.588	-0.196	0.209
-451.953	679.832	0.017	0.045
-450.938	-81.455	-0.162	-0.053
-449.924	-87.445	-0.334	-0.101
-448.909	800.000	0.070	-0.205
-447.895	35.712	0.241	-0.211
-446.880	-200.000	-0.029	-0.266
-445.865	-146.891	-0.060	-0.005
-444.851	800.000	0.071	0.257
-443.836	31.283	0.126	-0.108
-442.822	-21.768	-0.119	-0.072
-441.807	269.153	-0.053	0.092
-440.792	800.000	0.049	0.166
-439.778	-73.212	-0.207	-0.075
-438.763	-118.108	-0.233	-0.041
-437.749	106.762	0.282	0.334
-436.734	-133.069	-0.200	0.025
-435.719	-123.202	0.225	0.036
-434.705	-45.250	-0.163	-0.081
-433.690	-200.000	-0.028	-0.390
-432.676	-99.328	-0.282	0.071
-431.661	119.518	-0.152	0.187
-430.646	80.092	-0.264	-0.283
-429.632	800.000	0.041	0.160
-428.617	-102.427	0.304	0.072
-427.603	800.000	-0.053	-0.180
-426.588	10.176	0.144	-0.109
-425.573	-34.070	0.361	-0.198
-424.559	166.923	0.070	-0.099
-423.544	-70.174	-0.125	0.047
-422.530	-83.800	0.340	0.108
-421.515	800.000	0.035	0.140
-420.500	-92.387	0.105	-0.029
-419.486	-100.633	0.128	-0.032
-418.471	800.000	0.048	0.143
-417.457	-127.289	-0.251	-0.036
-416.442	-67.208	0.155	0.061
-415.428	-53.435	-0.228	-0.104
-414.413	-200.000	-0.007	-0.215
-413.398	-38.586	0.137	0.072
-412.384	-93.023	0.191	0.053
-411.369	-130.999	0.234	0.031
-410.355	-132.503	-0.025	0.003
-409.340	-200.000	-0.018	-0.215
-408.325	-149.223	0.331	-0.026
-407.311	67.903	-0.171	-0.174
-406.296	-96.426	0.481	0.127
-405.282	-200.000	-0.048	-0.322
-404.267	-187.291	0.181	0.002
-403.252	-200.000	0.024	-0.202
-402.238	-200.000	0.057	-0.513
-401.223	800.000	-0.070	-0.233
-400.209	-200.000	-0.014	-0.099
-399.194	77.939	-0.275	0.291
-398.179	-200.000	-0.036	-0.196
-397.165	-51.076	0.033	0.015
-396.150	-74.527	0.127	0.045
-395.136	273.000	0.111	0.195
-394.121	20.476	-0.185	0.149
-393.106	-109.833	-0.178	0.037
-392.092	117.906	-0.057	0.070
-391.077	-200.000	0.028	-0.126
-390.063	29.558	0.153	-0.130
-389.048	800.000	0.075	0.312
-388.033	215.705	-0.086	-0.136
-387.019	-200.000	0.020	-0.141
-386.004	-101.176	0.239	0.058
-384.990	-59.535	0.322	0.137
-383.975	-48.291	0.152	0.073
-382.960	-59.967	0.298	0.127
-381.946	800.000	0.075	-0.293
-380.931	-154.473	0.131	-0.009
-379.917	92.854	0.106	-0.119
-378.902	61.165	-0.061	-0.060
-377.888	800.000	-0.076	-0.212
-376.873	407.754	0.147	-0.308
-375.858	-21.114	-0.094	0.057
-374.844	14.581	-0.217	0.168
-373.829	-120.233	0.054	-0.009
-372.815	800.000	0.025	-0.075
-371.800	-103.389	-0.250	0.059
-370.785	-200.000	0.036	0.427
-369.771	-68.564	0.059	0.023
-368.756	-152.715	-0.289	0.020
-367.742	-87.929	0.226	0.068
-366.727	11.277	-0.171	0.130
-365.712	-104.944	0.167	-0.038
-364.698	-200.000	0.002	-0.261
-363.683	-106.150	-0.118	0.026
-362.669	277.399	0.168	-0.297
-361.654	-114.927	-0.377	-0.071
-360.639	-105.390	-0.205	-0.046
-359.625	-96.415	0.540	-0.142
-358.610	-12.552	-0.229	-0.149
-357.596	-26.333	0.181	-0.105
-356.581	-18.012	0.243	0.151
-355.566	-108.749	0.441	0.094
-354.552	-200.000	0.001	0.332
-353.537	-104.114	-0.143	-0.033
-352.523	-35.146	0.177	0.096
-351.508	431.422	-0.131	0.283
-350.493	-200.000	0.051	-0.249
-349.479	800.000	-0.096	0.410
-348.464	-171.028	0.154	0.005
-347.450	95.106	0.114	0.129
-346.435	498.660	0.145	-0.331
-345.420	104.344	0.154	0.180
-344.406	-114.663	0.367	-0.070
-343.391	-39.210	0.086	0.045
-342.377	-92.917	-0.202	0.056
-341.362	-200.000	-0.029	0.240
-340.348	131.146	-0.334	0.426
-339.333	-98.464	0.033	-0.008
-338.318	-43.378	0.164	0.082
-337.304	-15.346	0.348	-0.221
-336.289	-5.432	0.470	-0.321
-335.275	-169.707	0.345	-0.012
-334.260	-200.000	0.017	-0.294
-333.245	-68.129	-0.012	0.005
-332.231	-200.000	-0.021	0.488
-331.216	-200.000	-0.009	-0.041
-330.202	-144.376	-0.063	-0.006
-329.187	-143.767	-0.243	-0.023
-328.172	-40.152	-0.334	0.172
-327.158	-200.000	-0.061	0.281
-326.143	-16.493	-0.220	0.139
-325.129	-29.450	0.081	-0.046
-324.114	800.000	-0.073	0.205
-323.099	-117.764	0.074	0.013
-322.085	-20.954	0.074	0.045
-321.070	179.602	-0.113	0.165
-320.056	800.000	-0.059	0.178
-319.041	-106.874	0.141	-0.031
-318.026	-49.390	0.207	0.098
-317.012	362.686	0.033	-0.066
-315.997	-27.477	-0.268	0.155
-314.983	-200.000	-0.022	0.099
-313.968	-21.193	0.358	0.217
-312.953	-200.000	0.005	-0.037
-311.939	-115.080	0.485	-0.091
-310.924	-55.464	-0.323	-0.144
-309.910	198.306	0.125	0.189
-308.895	428.545	-0.101	0.216
-307.880	185.845	-0.023	0.033
-306.866	152.735	-0.213	-0.288
-305.851	800.000	0.093	0.341
-304.837	499.561	-0.056	0.128
-303.822	-117.295	0.064	-0.012
-302.807	-82.094	-0.432	-0.140
-301.793	60.241	0.115	-0.113
-300.778	-200.000	0.036	0.340
-299.764	-83.242	0.159	0.051
-298.749	79.686	-0.026	0.027
-297.735	-40.004	-0.110	0.057
-296.720	-35.329	0.289	-0.156
-295.705	-87.133	0.152	-0.046
-294.691	-95.650	0.136	0.036
-293.676	-133.597	-0.411	-0.051
-292.662	-25.974	-0.179	0.104
-291.647	188.814	0.085	-0.126
-290.632	148.947	-0.183	0.245
-289.618	-87.581	0.333	-0.100
-288.603	81.273	-0.068	0.072
-287.589	-200.000	0.008	0.116
-286.574	-82.872	0.090	0.029
-285.559	68.916	-0.318	-0.324
-284.545	249.269	0.096	-0.161
-283.530	7.293	-0.206	-0.152
-282.516	42.627	-0.051	-0.046
-281.501	210.965	0.144	0.224
-280.486	26.185	-0.216	-0.179
-279.472	800.000	-0.069	-0.244
-278.457	421.436	0.054	0.114
-277.443	-163.884	0.112	-0.005
-276.428	-33.365	-0.260	-0.142
-275.413	282.662	0.083	-0.148
-274.399	508.802	0.142	-0.327
-273.384	800.000	0.040	-0.142
-272.370	64.231	0.101	-0.101
-271.355	-42.035	0.300	-0.152
-270.340	800.000	-0.074	0.239
-269.326	-200.000	-0.040	0.382
-268.311	98.403	-0.111	0.126
-267.297	135.231	0.183	0.236
-266.282	-43.641	-0.236	0.118
-265.267	800.000	0.030	-0.117
-264.253	-200.000	-0.004	0.160
-263.238	-200.000	-0.013	-0.078
-262.224	-200.000	0.018	0.283
-261.209	-200.000	0.015	0.190
-260.195	-200.000	0.009	0.272
-259.180	-83.732	-0.285	0.090
-258.165	72.686	-0.024	-0.025
-257.151	-200.000	-0.039	-0.465
-256.136	-94.464	0.109	0.029
-255.122	28.513	0.079	-0.066
-254.107	800.000	-0.093	-0.362
-253.092	-63.752	-0.304	-0.123
-252.078	436.000	-0.021	-0.046
-251.063	-97.393	-0.072	-0.019
-250.049	88.491	0.053	0.059
-249.034	192.151	0.036	0.054
-248.019	99.438	-0.228	0.261
-247.005	343.194	-0.029	-0.056
-245.990	800.000	-0.047	0.130
-244.976	557.647	0.067	0.160
-243.961	-72.277	-0.271	0.099
-242.946	-70.975	0.269	0.100
-241.932	-88.056	-0.181	-0.054
-240.917	-98.263	-0.447	-0.114
-239.903	-109.128	0.187	-0.039
-238.888	-200.000	0.012	0.094
-237.873	205.292	0.135	0.208
-236.859	-200.000	-0.002	0.399
-235.844	316.596	-0.109	-0.203
-234.830	-51.731	-0.176	-0.081
-233.815	85.589	-0.242	-0.263
-232.800	-200.000	0.016	0.135
-231.786	-54.216	0.278	0.125
-230.771	149.444	0.102	0.136
-229.757	-7.226	0.216	0.145
-228.742	800.000	0.035	0.141
-227.727	470.654	0.162	-0.361
-226.713	-174.351	0.078	-0.002
-225.698	96.826	-0.226	-0.256
-224.684	-200.000	-0.045	-0.246
-223.669	-20.685	-0.102	-0.062
-222.655	-17.918	-0.283	0.175
-221.640	326.756	-0.124	0.235
-220.625	-30.324	0.220	0.123
-219.611	-119.692	0.351	0.060
-218.596	-14.462	-0.126	-0.080
-217.582	-141.897	0.220	0.022
-216.567	-200.000	0.003	0.122
-215.552	333.154	0.069	0.132
-214.538	800.000	-0.098	-0.288
-213.523	106.714	0.205	-0.240
-212.509	800.000	-0.025	-0.085
-211.494	-200.000	0.107	-0.481
-210.479	122.852	-0.175	-0.216
-209.465	320.047	-0.044	-0.082
-208.450	7.073	-0.154	-0.113
-207.436	-170.593	0.297	-0.010
-206.421	-200.000	0.037	-0.345
-205.406	228.559	0.214	-0.344
-204.392	-108.058	0.179	-0.038
-203.377	-200.000	-0.008	0.039
-202.363	800.000	-0.119	0.352
-201.348	688.533	-0.167	0.431
-200.333	65.373	0.283	0.283
-199.319	800.000	-0.027	0.096
-198.304	-168.589	-0.197	-0.007
-197.290	800.000	-0.078	0.295
-196.275	22.960	0.311	0.252
-195.260	83.276	0.193	0.207
-194.246	60.676	0.179	-0.175
-193.231	120.030	-0.094	0.115
-192.217	510.362	-0.033	0.076
-191.202	447.901	0.100	0.217
-190.187	-200.000	-0.043	0.390
-189.173	-112.554	-0.135	-0.026
-188.158	-80.697	-0.225	-0.074
-187.144	143.970	0.122	0.161
-186.129	139.727	-0.086	0.112
-185.114	114.217	0.130	0.157
-184.100	-200.000	0.000	-0.098
-183.085	451.130	0.055	-0.119
-182.071	-14.834	0.243	-0.154
-181.056	-88.547	-0.115	-0.034
-180.042	-91.417	-0.074	-0.021
-179.027	-82.362	-0.083	0.027
-178.012	-141.855	-0.264	-0.026
-176.998	209.974	0.146	-0.226
-175.983	-140.830	-0.236	-0.024
-174.969	-200.000	-0.016	-0.242
-173.954	12.467	0.189	0.144
-172.939	-101.414	-0.440	0.106
-171.925	49.498	-0.205	0.190
-170.910	-200.000	-0.007	0.209
-169.896	-139.911	0.179	0.019
-168.881	-24.867	-0.091	0.053
-167.866	59.077	0.136	-0.132
-166.852	165.039	-0.103	-0.144
-165.837	36.078	0.037	-0.032
-164.823	800.000	0.045	-0.175
-163.808	48.674	0.169	0.156
-162.793	217.003	0.093	-0.147
-161.779	33.413	0.304	-0.260
-160.764	77.597	-0.069	0.072
-159.750	-141.072	-0.254	-0.026
-158.735	89.296	-0.021	0.023
-157.720	430.849	0.034	-0.073
-156.706	154.037	0.231	-0.312
-155.691	73.031	-0.137	-0.141
-154.677	-125.175	-0.267	0.040
-153.662	136.013	0.004	0.005
-152.647	1.201	-0.198	-0.140
-151.633	240.290	-0.093	0.153
-150.618	-43.911	-0.228	-0.113
-149.604	-94.044	0.160	0.043
-148.589	800.000	-0.072	0.252
-147.574	-21.866	-0.020	-0.012
-146.560	260.779	0.050	-0.085
-145.545	-51.571	-0.070	0.032
-144.531	-200.000	-0.023	0.218
-143.516	800.000	0.100	0.315
-142.502	-20.913	0.072	0.044
-141.487	-3.315	0.197	0.135
-140.472	-200.000	0.022	0.193
-139.458	800.000	0.075	-0.253
-138.443	800.000	-0.039	0.139
-137.429	-200.000	0.030	-0.252
-136.414	-200.000	-0.086	-0.441
-135.399	-25.502	-0.271	-0.158
-134.385	-9.596	-0.098	-0.065
-133.370	-29.648	0.382	-0.215
-132.356	-200.000	0.055	-0.270
-131.341	146.525	-0.074	0.098
-130.326	-72.650	0.405	0.147
-129.312	247.363	-0.098	0.163
-128.297	114.077	0.174	-0.208
-127.283	-200.000	-0.058	-0.337
-126.268	-148.453	0.374	-0.030
-125.253	642.845	0.109	0.273
-124.239	66.374	-0.124	-0.124
-123.224	-200.000	-0.012	-0.227
-122.210	5.189	0.153	0.111
-121.195	203.860	0.169	0.258
-120.180	-92.876	-0.128	0.035
-119.166	-200.000	0.003	-0.193
-118.151	-200.000	-0.015	-0.434
-117.137	-200.000	-0.030	0.193
-116.122	68.153	-0.061	0.061
-115.107	192.517	0.077	0.114
-114.093	114.274	0.036	-0.043
-113.078	69.043	-0.131	0.133
-112.064	-103.192	-0.290	-0.068
-111.049	45.025	-0.093	0.085
-110.034	618.322	0.140	-0.345
-109.020	-69.637	-0.455	-0.171
-108.005	-200.000	0.048	-0.379
-106.991	-13.586	0.311	0.198
-105.976	386.397	-0.136	-0.277
-104.962	-59.949	0.451	-0.190
-103.947	87.869	-0.227	-0.247
-102.932	-62.626	-0.111	-0.045
-101.918	800.000	-0.115	-0.475
-100.903	562.396	0.124	-0.295
-99.889	-179.543	-0.128	-0.003
-98.874	106.017	-0.092	-0.107
-97.859	-129.859	0.116	0.016
-96.845	99.460	0.221	0.251
-95.830	185.395	0.140	-0.204
-94.816	54.092	-0.326	0.308
-93.801	10.798	-0.370	0.278
-92.786	-116.910	0.160	-0.029
-91.772	800.000	-0.028	-0.091
-90.757	-43.657	0.159	-0.079
-89.743	-145.422	-0.311	-0.028
-88.728	-60.408	-0.301	-0.126
-87.713	-200.000	-0.013	0.134
-86.699	-31.783	-0.115	-0.064
-85.684	-56.308	-0.293	-0.128
-84.670	-125.922	-0.144	-0.021
-83.655	-200.000	0.002	0.131
-82.640	-200.000	-0.042	-0.310
-81.626	38.537	0.234	-0.205
-80.611	-126.539	0.113	-0.016
-79.597	-114.727	-0.116	-0.022
-78.582	20.022	-0.066	0.053
-77.567	-83.024	0.362	-0.115
-76.553	-4.086	0.330	0.224
-75.538	-160.131	-0.124	-0.007
-74.524	-200.000	-0.310	-0.001
-73.509	77.650	-0.110	-0.115
-72.494	-33.916	0.430	-0.233
-71.480	143.761	-0.212	-0.277
-70.465	-79.591	-0.063	-0.021
-69.451	192.754	-0.155	-0.230
-68.436	-85.160	0.348	-0.107
-67.422	150.714	-0.123	0.164
-66.407	-49.057	0.306	-0.144
-65.392	-200.000	-0.011	0.257
-64.378	-37.484	-0.207	0.108
-63.363	733.129	0.130	0.341
-62.349	-27.136	0.195	0.112
-61.334	36.274	-1.116	-0.966
-60.319	29.144	0.284	0.237
-59.305	800.000	-0.219	-0.874
-58.290	46.007	1.071	0.974
-57.276	800.000	0.450	1.588
-56.261	-200.000	95.099	565.590
-55.246	555.843	1376.873	3255.658
-54.232	155.900	2574.459	3484.089
-53.217	110.470	2286.127	2697.759
-52.203	45.887	1905.390	1730.414
-51.188	39.456	1695.709	1491.435
-50.173	36.746	1650.693	1431.775
-49.159	53.859	1699.488	1602.874
-48.144	57.329	1717.704	1646.012
-47.130	39.300	1673.690	1470.672
-46.115	36.289	1658.883	1435.250
-45.100	36.095	1653.952	1429.486
-44.086	36.022	1651.501	1426.774
-43.071	35.987	1648.848	1424.165
-42.057	35.979	1646.145	1421.710
-41.042	36.040	1644.412	1420.612
-40.027	36.088	1642.571	1419.319
-39.013	36.046	1640.383	1417.059
-37.998	36.036	1638.730	1415.506
-36.984	36.107	1637.226	1414.666
-35.969	36.093	1635.606	1413.111
-34.954	36.149	1634.173	1412.223
-33.940	36.151	1632.936	1411.116
-32.925	36.149	1630.931	1409.311
-31.911	36.242	1628.989	1408.255
-30.896	36.083	1627.444	1405.704
-29.881	36.008	1626.152	1403.986
-28.867	36.047	1624.597	1402.872
-27.852	36.169	1622.376	1401.784
-26.838	36.183	1621.140	1400.764
-25.823	36.180	1619.731	1399.471
-24.809	36.166	1618.643	1398.372
-23.794	36.086	1617.628	1396.859
-22.779	36.254	1615.088	1395.829
-21.765	36.130	1614.088	1394.012
-20.750	36.240	1611.808	1392.782
-19.736	36.235	1610.846	1391.860
-18.721	36.236	1609.168	1390.360
-17.706	36.237	1607.574	1388.935
-16.692	36.169	1606.358	1387.343
-15.677	36.217	1604.819	1386.305
-14.663	36.220	1603.517	1385.140
-13.648	36.203	1601.812	1383.494
-12.633	36.155	1600.825	1382.241
-11.619	36.285	1598.684	1381.269
-10.604	36.225	1597.401	1379.675
-9.590	36.188	1596.459	1378.546
-8.575	36.257	1594.764	1377.516
-7.560	36.188	1593.992	1376.303
-6.546	36.108	1592.938	1374.766
-5.531	36.128	1592.056	1374.099
-4.517	36.188	1590.403	1373.044
-3.502	36.168	1589.720	1372.259
-2.487	36.185	1587.764	1370.636
-1.473	35.539	1574.705	1354.751
-0.458	31.355	1552.373	1306.311
0.556	23.561	1548.724	1258.724
1.571	20.208	1569.531	1251.366
2.586	19.187	1581.562	1253.424
3.600	17.574	1531.857	1202.545
4.615	13.044	1431.413	1093.646
5.629	8.587	1371.245	1019.239
6.644	7.617	1362.567	1006.555
7.659	7.539	1361.197	1004.958
8.673	7.529	1360.231	1004.096
9.688	7.345	1358.154	1001.312
10.702	7.264	1355.742	998.931
11.717	9.381	1358.856	1014.502
12.731	14.084	1367.371	1050.548
13.746	17.075	1371.236	1072.349
14.761	16.960	1369.790	1070.398
15.775	15.913	1367.621	1062.008
16.790	14.916	1364.436	1053.163
17.804	14.097	1362.672	1046.561
18.819	13.608	1361.408	1042.417
19.834	13.386	1359.527	1039.495
20.848	13.106	1358.474	1036.840
21.863	12.817	1357.715	1034.353
22.877	12.693	1356.304	1032.409
23.892	12.655	1355.311	1031.322
24.907	12.633	1354.534	1030.507
25.921	12.732	1353.578	1030.302
26.936	12.799	1352.549	1029.852
27.950	12.814	1351.279	1028.883
28.965	12.785	1350.711	1028.180
29.980	12.954	1349.244	1028.028
30.994	13.001	1348.062	1027.324
32.009	13.049	1347.026	1026.744
33.023	13.013	1345.724	1025.438
34.038	12.933	1344.561	1023.965
35.053	12.868	1343.340	1022.539
36.067	12.866	1342.200	1021.571
37.082	12.868	1341.101	1020.659
38.096	12.932	1340.346	1020.387
39.111	12.951	1339.574	1019.826
40.126	12.800	1338.627	1018.083
41.140	12.724	1337.637	1016.770
42.155	12.582	1337.846	1015.959
43.169	12.684	1336.694	1015.627
44.184	12.723	1335.960	1015.217
45.199	12.586	1336.891	1014.990
46.213	12.774	1335.831	1015.258
47.228	12.876	1334.399	1014.706
48.242	12.904	1332.934	1013.671
49.257	12.747	1332.045	1011.941
50.271	12.811	1330.344	1010.957
51.286	12.814	1329.293	1010.086
52.301	12.847	1327.943	1009.174
53.315	12.822	1326.599	1007.910
54.330	12.769	1325.730	1006.837
55.344	12.579	1324.723	1004.820
56.359	12.723	1323.885	1004.972
57.374	12.661	1322.907	1003.764
58.388	12.695	1322.067	1003.246
59.403	12.561	1321.984	1002.276
60.417	12.508	1321.164	1001.245
61.432	12.521	1320.187	1000.495
62.447	12.505	1319.199	999.563
63.461	12.498	1318.180	998.658
64.476	12.535	1316.796	997.746
65.490	12.496	1315.857	996.708
66.505	12.581	1314.085	995.792
67.520	12.567	1312.792	994.639
68.534	12.483	1312.341	993.702
69.549	12.535	1311.438	993.248
70.563	12.558	1309.706	991.987
71.578	12.546	1309.012	991.297
72.593	12.469	1308.174	990.111
73.607	12.414	1307.427	989.127
74.622	12.463	1306.361	988.530
75.636	12.457	1305.692	987.902
76.651	12.400	1305.547	987.362
77.666	12.436	1304.633	986.795
78.680	12.485	1304.044	986.556
79.695	12.463	1303.676	986.060
80.709	12.555	1302.377	985.544
81.724	12.479	1302.150	984.829
82.739	12.629	1300.642	984.497
83.753	12.710	1300.180	984.543
84.768	12.799	1299.275	984.305
85.782	12.910	1297.634	983.638
86.797	12.809	1296.880	982.377
87.812	12.731	1295.361	980.677
88.826	12.737	1294.312	979.828
89.841	12.743	1293.412	979.098
90.855	12.784	1292.490	978.553
91.870	12.868	1291.650	978.334
92.884	12.846	1290.859	977.516
93.899	12.864	1290.312	977.121
94.914	13.017	1289.046	976.980
95.928	12.966	1288.388	976.095
96.943	12.900	1287.618	975.037
97.957	12.926	1286.264	974.077
98.972	12.844	1285.545	972.962
99.987	12.885	1284.426	972.273
101.001	12.874	1283.582	971.479
102.016	12.894	1282.452	970.659
103.030	12.855	1281.761	969.821
104.045	12.866	1280.800	969.074
105.060	12.773	1279.727	967.630
106.074	12.754	1277.844	966.006
107.089	12.601	1277.166	964.511
108.103	12.610	1275.388	963.137
109.118	12.579	1274.565	962.250
110.133	12.601	1272.867	961.010
111.147	12.618	1271.517	960.007
112.162	12.669	1270.024	959.090
113.176	12.695	1269.111	958.467
114.191	12.667	1268.402	957.682
115.206	12.722	1267.532	957.262
116.220	12.785	1265.900	956.312
117.235	12.669	1265.281	955.088
118.249	12.668	1264.270	954.234
119.264	12.568	1263.026	952.628
120.279	12.599	1261.797	951.797
121.293	12.638	1261.042	951.372
122.308	12.568	1259.805	949.950
123.322	12.594	1258.869	949.308
124.337	12.537	1257.965	948.214
125.352	12.489	1256.630	946.849
126.366	12.641	1255.558	946.832
127.381	12.555	1254.429	945.399
128.395	12.675	1253.161	945.053
129.410	12.608	1252.635	944.183
130.424	12.632	1252.140	943.868
131.439	12.697	1250.706	943.076
132.454	12.581	1250.184	941.936
133.468	12.718	1249.081	941.802
134.483	12.730	1248.131	941.074
135.497	12.816	1246.747	940.438
136.512	12.748	1245.954	939.366
137.527	12.645	1245.011	937.985
138.541	12.665	1243.418	936.817
139.556	12.784	1241.807	936.196
140.570	12.836	1240.751	935.611
141.585	12.911	1239.661	935.133
142.600	13.005	1238.184	934.468
143.614	13.037	1237.584	934.112
144.629	12.980	1236.678	933.027
145.643	12.921	1235.396	931.640
146.658	12.909	1234.087	930.502
147.673	12.752	1232.997	928.717
148.687	12.702	1232.100	927.677
149.702	12.699	1230.337	926.251
150.716	12.783	1228.954	925.598
151.731	12.794	1228.219	925.024
152.746	12.791	1226.951	923.971
153.760	12.888	1225.421	923.280
154.775	12.875	1224.467	922.405
155.789	12.871	1223.753	921.766
156.804	12.969	1222.315	921.147
157.819	12.939	1221.478	920.265
158.833	13.009	1220.393	919.762
159.848	13.054	1219.618	919.341
160.862	13.010	1218.619	918.268
161.877	13.022	1217.465	917.383
162.892	12.827	1216.455	915.455
163.906	12.829	1215.769	914.867
164.921	12.950	1214.559	914.547
165.935	12.903	1213.768	913.615
166.950	13.003	1213.078	913.563
167.964	13.015	1212.054	912.777
168.979	12.849	1212.291	911.960
169.994	12.879	1211.110	911.156
171.008	12.975	1210.439	911.102
172.023	13.015	1209.332	910.405
173.037	13.115	1208.775	910.460
174.052	13.178	1207.159	909.507
175.067	13.052	1206.352	908.126
176.081	13.023	1205.241	907.052
177.096	13.071	1204.744	906.862
178.110	12.975	1204.047	905.726
179.125	12.921	1202.966	904.540
180.140	12.964	1201.924	903.910
181.154	13.108	1200.419	903.485
182.169	13.184	1198.947	902.714
183.183	13.226	1197.826	902.018
184.198	13.205	1197.082	901.266
185.213	13.287	1195.346	900.325
186.227	13.213	1194.470	899.180
187.242	13.217	1193.685	898.536
188.256	13.362	1192.714	898.510
189.271	13.287	1192.030	897.507
190.286	13.187	1190.963	896.085
191.300	13.199	1189.515	894.978
192.315	13.090	1188.984	893.914
193.329	12.920	1189.217	893.090
194.344	13.017	1188.340	892.876
195.359	13.199	1187.443	893.108
196.373	13.129	1186.967	892.292
197.388	13.331	1186.335	892.824
198.402	13.312	1185.914	892.328
199.417	13.508	1184.900	892.545
200.432	13.516	1184.249	892.018
201.446	13.540	1183.644	891.611
202.461	13.608	1182.625	891.128
203.475	13.508	1181.585	889.732
204.490	13.580	1180.115	888.930
205.504	13.473	1179.066	887.491
206.519	13.485	1178.264	886.873
207.534	13.481	1176.824	885.688
208.548	13.498	1175.712	884.863
209.563	13.513	1175.227	884.499
210.577	13.563	1174.286	883.977
211.592	13.535	1173.534	883.185
212.607	13.589	1172.568	882.671
213.621	13.579	1171.976	882.094
214.636	13.550	1171.048	881.160
215.650	13.609	1169.887	880.524
216.665	13.651	1169.145	880.111
217.680	13.756	1168.177	879.859
218.694	13.640	1167.322	878.526
219.709	13.698	1166.643	878.240
220.723	13.737	1165.816	877.749
221.738	13.632	1165.304	876.730
222.753	13.686	1164.708	876.488
223.767	13.812	1163.633	876.269
224.782	13.778	1163.036	875.562
225.796	13.814	1162.449	875.231
226.811	13.762	1162.003	874.546
227.826	13.828	1161.211	874.217
228.840	13.718	1160.488	873.019
229.855	13.831	1159.571	872.844
230.869	13.980	1158.419	872.682
231.884	13.876	1157.823	871.613
232.899	13.759	1157.211	870.458
233.913	13.680	1156.538	869.464
234.928	13.762	1155.483	869.021
235.942	13.772	1154.902	868.560
236.957	13.771	1154.191	867.943
237.972	13.699	1153.579	867.028
238.986	13.755	1153.074	866.866
240.001	13.747	1152.119	866.027
241.015	13.705	1151.306	865.124
242.030	13.795	1150.827	865.154
243.045	13.794	1149.894	864.373
244.059	13.943	1148.970	864.376
245.074	13.790	1148.555	863.190
246.088	13.979	1147.673	863.438
247.103	13.979	1146.260	862.298
248.117	14.081	1146.268	862.752
249.132	14.129	1145.419	862.287
250.147	14.100	1144.657	861.487
251.161	14.279	1143.813	861.701
252.176	14.222	1143.164	860.843
253.190	14.372	1142.533	861.067
254.205	14.333	1142.033	860.413
255.220	14.265	1141.655	859.702
256.234	14.386	1140.956	859.723
257.249	14.270	1140.454	858.668
258.263	14.346	1139.670	858.395
259.278	14.346	1139.107	857.895
260.293	14.372	1138.412	857.431
261.307	14.384	1137.946	857.062
262.322	14.462	1137.220	856.842
263.336	14.467	1136.359	856.145
264.351	14.456	1135.620	855.457
265.366	14.480	1135.172	855.164
266.380	14.543	1134.566	854.958
267.395	14.501	1133.433	853.811
268.409	14.474	1132.870	853.171
269.424	14.534	1131.882	852.662
270.439	14.485	1131.655	852.166
271.453	14.335	1131.012	850.840
272.468	14.457	1130.095	850.695
273.482	14.436	1129.239	849.867
274.497	14.409	1128.856	849.368
275.512	14.371	1128.068	848.508
276.526	14.542	1126.827	848.368
277.541	14.633	1126.456	848.474
278.555	14.549	1125.633	847.356
279.570	14.476	1125.254	846.621
280.585	14.713	1124.183	846.943
281.599	14.640	1123.438	845.939
282.614	14.776	1122.166	845.592
283.628	14.631	1121.293	844.126
284.643	14.632	1120.343	843.345
285.657	14.696	1119.878	843.242
286.672	14.728	1118.531	842.313
287.687	14.608	1118.081	841.297
288.701	14.765	1116.802	841.050
289.716	14.724	1116.055	840.207
290.730	14.730	1115.899	840.045
291.745	14.724	1114.813	839.121
292.760	14.728	1114.125	838.553
293.774	14.818	1113.365	838.358
294.789	14.804	1113.187	838.077
295.803	14.844	1113.074	838.120
296.818	14.879	1111.522	837.054
297.833	14.838	1110.651	836.119
298.847	14.773	1110.243	835.412
299.862	14.779	1109.472	834.788
300.876	14.795	1108.816	834.297
301.891	14.920	1107.724	834.028
302.906	15.059	1107.068	834.150
303.920	15.037	1106.751	833.732
304.935	14.962	1106.282	832.931
305.949	15.150	1105.279	833.033
306.964	15.164	1105.008	832.829
307.979	15.185	1104.030	832.119
308.993	15.025	1103.286	830.694
310.008	15.035	1102.805	830.308
311.022	15.187	1101.742	830.184
312.037	15.188	1100.870	829.459
313.052	15.132	1099.692	828.222
314.066	14.939	1099.343	826.932
315.081	14.981	1098.366	826.332
316.095	14.981	1097.642	825.714
317.110	14.960	1097.047	825.090
318.125	15.075	1096.728	825.345
319.139	15.156	1095.634	824.843
320.154	14.970	1095.161	823.502
321.168	15.040	1094.469	823.253
322.183	15.056	1093.941	822.860
323.197	15.098	1093.632	822.764
324.212	15.142	1092.811	822.288
325.227	15.110	1091.851	821.334
326.241	15.145	1091.612	821.255
327.256	15.120	1090.516	820.235
328.270	15.156	1089.538	819.603
329.285	15.205	1088.755	819.181
330.300	15.162	1087.985	818.321
331.314	15.146	1086.889	817.345
332.329	15.180	1085.935	816.722
333.343	15.199	1085.060	816.080
334.358	15.301	1084.066	815.757
335.373	15.352	1083.420	815.447
336.387	15.355	1082.770	814.903
337.402	15.417	1081.910	814.483
338.416	15.517	1081.425	814.529
339.431	15.474	1080.651	813.667
340.446	15.348	1079.908	812.425
341.460	15.644	1079.124	813.198
342.475	15.550	1078.537	812.226
343.489	15.543	1078.136	811.821
344.504	15.653	1076.851	811.311
345.519	15.579	1076.127	810.339
346.533	15.649	1075.296	809.980
347.548	15.668	1074.794	809.620
348.562	15.633	1073.851	808.666
349.577	15.598	1073.120	807.879
350.592	15.491	1072.004	806.454
351.606	15.590	1071.343	806.357
352.621	15.402	1070.615	804.838
353.635	15.517	1070.298	805.080
354.650	15.537	1069.489	804.498
355.665	15.656	1068.576	804.309
356.679	15.548	1068.286	803.502
357.694	15.679	1067.643	803.575
358.708	15.627	1067.149	802.883
359.723	15.588	1066.647	802.248
360.738	15.654	1065.798	801.854
361.752	15.660	1065.688	801.729
362.767	15.700	1064.812	801.188
363.781	15.733	1064.539	801.068
364.796	15.763	1063.814	800.594
365.810	15.894	1062.720	800.322
366.825	15.965	1062.513	800.432
367.840	16.027	1062.095	800.345
368.854	15.966	1061.619	799.626
369.869	16.033	1060.418	798.965
370.883	15.925	1059.805	797.922
371.898	15.881	1059.141	797.142
372.913	16.046	1057.993	796.987
373.927	15.966	1058.069	796.598
374.942	16.014	1057.646	796.437
375.956	16.073	1056.780	795.990
376.971	16.007	1056.456	795.363
377.986	16.158	1055.265	795.111
379.000	16.198	1055.140	795.135
380.015	16.203	1055.047	795.015
381.029	16.186	1054.198	794.230
382.044	16.182	1053.321	793.475
383.059	16.222	1052.668	793.101
384.073	16.240	1051.765	792.436
385.088	16.163	1051.110	791.511
386.102	16.272	1049.740	790.920
387.117	16.224	1048.885	789.980
388.132	16.091	1047.938	788.576
389.146	16.062	1047.089	787.733
390.161	16.220	1046.936	788.287
391.175	16.100	1046.187	787.094
392.190	16.304	1045.369	787.358
393.205	16.164	1044.974	786.338
394.219	16.313	1043.493	785.847
395.234	16.308	1042.663	785.132
396.248	16.262	1041.907	784.277
397.263	16.259	1040.834	783.388
398.278	16.265	1040.515	783.104
399.292	16.218	1039.783	782.268
400.307	16.102	1039.161	781.195
401.321	16.237	1038.221	781.043
402.336	16.220	1037.608	780.433
403.350	16.285	1036.813	780.069
404.365	16.253	1036.474	779.593
405.380	16.347	1035.302	779.076
406.394	16.333	1034.793	778.560
407.409	16.378	1033.975	778.082
408.423	16.393	1033.189	777.496
409.438	16.508	1032.658	777.553
410.453	16.520	1031.901	776.969
411.467	16.569	1031.350	776.710
412.482	16.625	1030.681	776.395
413.496	16.613	1030.239	775.939
414.511	16.588	1029.663	775.321
415.526	16.681	1028.916	775.118
416.540	16.744	1028.870	775.302
417.555	16.672	1028.556	774.667
418.569	16.665	1027.807	774.002
419.584	16.675	1027.428	773.693
420.599	16.606	1026.855	772.881
421.613	97.606	1312.535	1436.031
422.628	89.204	1354.146	1436.158
