DTS Sentinel unit serial number:	SN413079Multiplexer serial number:	ORYXHardware model number:	OX4-SRSoftware version number:	ORYX F/W v4.00 Oryx Data Collector v3.7.2.0data status	okinstallation	princeton_trtdifferential loss correction	single-endedforward channel	channel 2reverse channel	N/Adate	2019/09/10time	23:25:11forward acquisition time	60.00reverse acquisition time	0.00gamma	496.2192k internal	0.2330k external	0.2330temperature offset calibration	0.9946default loss term (dB/km)	0.3790temperature slope calibration	1.0000multiplexer offset coefficient	1.0000multiplexer slope coefficient	1.0000fibre end	0.00T internal ref (°C)	29.75T ext. ref 1 (°C)	-0.31T ext. ref 2 (°C)	23.14length (m)	temperature (°C)	Stokes	anti-Stokes-747.200	531.724	-0.221	0.527
-746.185	167.112	0.183	0.262
-745.171	-36.972	0.349	0.188
-744.156	-166.731	-0.197	-0.008
-743.142	-85.118	-0.224	0.070
-742.127	-153.593	-0.273	0.019
-741.112	339.672	0.260	0.510
-740.098	684.176	0.021	-0.054
-739.083	-89.486	0.078	0.023
-738.069	26.972	-0.296	0.250
-737.054	24.615	-0.168	0.140
-736.039	-134.607	0.213	-0.026
-735.025	485.777	0.046	-0.106
-734.010	120.432	-0.081	0.101
-732.996	-137.183	0.218	-0.025
-731.981	-72.521	0.208	0.077
-730.966	-63.003	0.314	0.131
-729.952	362.656	-0.252	-0.509
-728.937	-69.701	-0.151	0.058
-727.923	361.844	-0.070	-0.141
-726.908	-126.871	-0.491	-0.073
-725.894	-51.624	0.247	0.116
-724.879	-200.000	0.008	-0.341
-723.864	-108.167	-0.090	0.020
-722.850	437.441	-0.140	-0.307
-721.835	-75.252	0.197	0.071
-720.821	-74.665	-0.349	0.126
-719.806	30.675	-0.030	-0.026
-718.791	159.248	0.113	-0.158
-717.777	-73.641	-0.181	-0.066
-716.762	800.000	0.056	0.200
-715.748	-200.000	0.036	-0.241
-714.733	102.640	-0.201	-0.237
-713.718	800.000	-0.079	-0.249
-712.704	402.364	0.076	-0.160
-711.689	-109.767	-0.311	-0.066
-710.675	156.150	0.143	0.198
-709.660	117.600	0.109	-0.135
-708.645	-71.197	-0.148	0.056
-707.631	56.409	-0.043	-0.042
-706.616	-128.161	0.120	-0.017
-705.602	-69.947	-0.326	0.125
-704.587	-200.000	-0.002	0.305
-703.572	37.534	-0.142	0.126
-702.558	-200.000	-0.050	0.225
-701.543	11.774	0.157	-0.121
-700.529	-117.559	0.179	0.032
-699.514	-37.124	0.177	-0.095
-698.499	602.427	0.063	-0.157
-697.485	-193.509	0.182	0.002
-696.470	-200.000	-0.039	-0.180
-695.456	-45.253	0.150	0.075
-694.441	-71.300	0.237	-0.089
-693.426	20.072	0.360	-0.292
-692.412	-48.750	0.140	0.067
-691.397	214.610	0.031	0.050
-690.383	76.796	0.258	0.275
-689.368	105.004	-0.299	-0.354
-688.354	-62.193	-0.281	-0.118
-687.339	229.878	0.066	0.108
-686.324	229.775	0.115	-0.189
-685.310	-158.636	0.237	-0.014
-684.295	-156.991	-0.192	-0.012
-683.281	800.000	0.123	-0.375
-682.266	-106.411	0.196	0.044
-681.251	-120.110	-0.410	-0.070
-680.237	-98.293	-0.107	-0.028
-679.222	136.281	-0.309	-0.404
-678.208	95.850	-0.089	0.102
-677.193	800.000	0.058	0.185
-676.178	12.731	-0.203	0.157
-675.164	-86.721	0.036	-0.011
-674.149	235.802	-0.171	0.283
-673.135	147.395	0.124	-0.168
-672.120	186.861	-0.155	-0.231
-671.105	-200.000	-0.016	-0.304
-670.091	342.711	-0.099	-0.195
-669.076	23.091	-0.087	-0.072
-668.062	-152.564	0.173	0.012
-667.047	72.138	0.035	0.036
-666.032	95.036	0.189	-0.217
-665.018	20.079	-0.197	0.159
-664.003	-200.000	-0.025	0.182
-662.989	148.209	-0.174	-0.236
-661.974	-28.169	-0.086	0.050
-660.959	-55.071	-0.213	-0.096
-659.945	28.591	0.235	0.199
-658.930	-149.698	-0.467	0.037
-657.916	-195.357	-0.110	0.001
-656.901	-200.000	-0.036	-0.179
-655.886	128.588	0.334	0.427
-654.872	52.442	-0.174	-0.166
-653.857	-200.000	0.001	-0.040
-652.843	-33.353	-0.184	-0.102
-651.828	-200.000	-0.051	0.237
-650.814	34.879	0.141	-0.123
-649.799	316.616	0.105	-0.198
-648.784	-157.352	0.105	0.006
-647.770	800.000	0.010	-0.035
-646.755	168.351	0.030	-0.042
-645.741	-200.000	0.009	0.255
-644.726	-79.394	0.107	-0.036
-643.711	546.347	0.017	0.040
-642.697	-44.804	-0.134	0.067
-641.682	-108.117	-0.053	0.012
-640.668	-49.896	-0.093	-0.044
-639.653	273.086	-0.098	0.174
-638.638	-127.280	-0.301	-0.044
-637.624	-200.000	0.016	-0.080
-636.609	-91.295	0.091	0.026
-635.595	-200.000	-0.024	-0.167
-634.580	-64.535	-0.209	-0.085
-633.565	-125.751	0.353	0.054
-632.551	-200.000	-0.014	0.412
-631.536	425.710	0.109	-0.235
-630.522	366.713	0.054	-0.109
-629.507	800.000	0.057	-0.160
-628.492	161.166	-0.076	0.107
-627.478	223.401	-0.096	0.156
-626.463	-200.000	-0.029	0.178
-625.449	800.000	-0.125	0.367
-624.434	-40.161	0.144	-0.075
-623.419	-23.324	-0.123	0.074
-622.405	800.000	0.058	-0.189
-621.390	-3.306	0.137	-0.096
-620.376	-200.000	0.036	-0.270
-619.361	-115.465	-0.343	-0.065
-618.346	50.846	-0.156	0.148
-617.332	-15.720	0.214	-0.137
-616.317	-50.875	-0.161	-0.076
-615.303	198.968	0.035	0.054
-614.288	-36.031	-0.345	-0.187
-613.273	-39.829	-0.345	0.180
-612.259	-200.000	-0.018	-0.116
-611.244	800.000	0.059	0.169
-610.230	-200.000	-0.001	-0.149
-609.215	-105.065	-0.401	-0.092
-608.201	-68.179	0.095	-0.037
-607.186	-27.279	0.290	-0.169
-606.171	275.972	-0.147	-0.262
-605.157	-98.488	-0.288	0.074
-604.142	-200.000	0.046	-0.269
-603.128	4.669	-0.184	0.135
-602.113	-52.736	0.216	-0.100
-601.098	-64.693	-0.110	-0.045
-600.084	372.129	0.144	-0.292
-599.069	800.000	-0.087	0.252
-598.055	51.328	-0.295	0.281
-597.040	0.033	0.132	0.094
-596.025	-61.847	-0.202	-0.085
-595.011	372.270	-0.071	0.145
-593.996	-200.000	0.004	0.125
-592.982	-56.558	0.056	-0.025
-591.967	-90.493	-0.105	0.030
-590.952	-62.964	0.083	0.034
-589.938	152.658	-0.044	0.060
-588.923	70.710	0.142	-0.147
-587.909	-200.000	0.030	-0.156
-586.894	18.262	0.199	0.159
-585.879	800.000	-0.098	0.322
-584.865	125.537	0.132	-0.166
-583.850	5.123	0.222	-0.163
-582.836	-113.516	-0.201	0.039
-581.821	40.176	-0.197	0.177
-580.806	209.710	0.136	0.213
-579.792	15.963	-0.155	0.122
-578.777	1.532	0.123	-0.088
-577.763	-200.000	-0.061	-0.353
-576.748	-73.474	0.061	0.022
-575.733	44.373	-0.108	0.099
-574.719	106.256	-0.175	-0.208
-573.704	-97.422	0.299	0.078
-572.690	-200.000	-0.003	-0.130
-571.675	54.800	0.330	-0.319
-570.661	-88.872	0.191	0.057
-569.646	105.832	-0.355	0.420
-568.631	-36.102	-0.448	0.242
-567.617	-45.759	0.094	-0.046
-566.602	-70.680	0.075	-0.028
-565.588	-200.000	0.018	-0.339
-564.573	-200.000	0.012	0.228
-563.558	463.745	-0.058	0.129
-562.544	800.000	0.055	0.189
-561.529	-120.203	-0.202	0.035
-560.515	138.026	0.055	-0.072
-559.500	59.847	-0.040	-0.040
-558.485	726.380	-0.068	-0.180
-557.471	-141.534	0.090	-0.009
-556.456	-96.122	0.066	-0.018
-555.442	-99.156	-0.230	0.058
-554.427	-200.000	-0.022	-0.121
-553.412	61.586	0.172	0.171
-552.398	154.465	0.078	0.106
-551.383	-26.898	0.254	-0.148
-550.369	6.710	-0.191	-0.142
-549.354	-200.000	0.004	0.029
-548.339	800.000	-0.092	-0.337
-547.325	0.964	0.098	-0.070
-546.310	-76.581	0.335	0.117
-545.296	800.000	0.017	0.064
-544.281	163.436	-0.075	0.105
-543.266	112.659	0.225	-0.272
-542.252	800.000	0.027	0.075
-541.237	301.116	0.045	0.084
-540.223	-200.000	0.009	0.208
-539.208	-200.000	-0.038	0.280
-538.193	800.000	0.121	-0.364
-537.179	15.196	-0.244	0.191
-536.164	-200.000	0.004	0.168
-535.150	-200.000	-0.007	-0.043
-534.135	-153.656	-0.465	0.032
-533.121	39.367	0.295	0.264
-532.106	65.572	0.138	-0.139
-531.091	83.857	-0.200	0.217
-530.077	74.242	-0.210	-0.220
-529.062	-70.976	-0.115	-0.043
-528.048	139.655	-0.034	-0.045
-527.033	185.200	-0.237	0.351
-526.018	44.812	-0.048	0.044
-525.004	489.576	-0.073	0.167
-523.989	-200.000	0.037	-0.281
-522.975	-134.697	0.225	0.027
-521.960	-100.072	-0.113	-0.028
-520.945	0.518	-0.130	0.093
-519.931	518.360	0.117	0.273
-518.916	204.970	0.232	0.359
-517.902	-91.343	0.260	-0.074
-516.887	-73.093	0.173	-0.063
-515.872	-57.408	-0.042	0.018
-514.858	-68.290	0.360	0.140
-513.843	28.777	0.140	-0.118
-512.829	93.606	0.123	-0.138
-511.814	800.000	-0.057	0.186
-510.799	52.038	-0.328	-0.312
-509.785	800.000	-0.107	0.298
-508.770	28.419	0.131	-0.110
-507.756	-78.970	-0.054	-0.018
-506.741	28.921	-0.120	0.101
-505.726	145.231	-0.338	-0.451
-504.712	734.725	0.089	-0.238
-503.697	800.000	0.030	-0.094
-502.683	233.582	0.250	-0.410
-501.668	800.000	0.104	-0.332
-500.653	-27.945	-0.217	0.125
-499.639	800.000	-0.079	0.224
-498.624	59.989	-0.144	0.142
-497.610	-200.000	0.047	0.390
-496.595	-101.564	-0.119	0.029
-495.581	-140.587	-0.101	0.010
-494.566	-65.741	-0.221	-0.088
-493.551	-124.455	-0.140	0.022
-492.537	-180.621	0.352	0.007
-491.522	-169.705	-0.220	-0.008
-490.508	-134.182	0.408	0.050
-489.493	-200.000	0.005	-0.337
-488.478	-200.000	0.019	-0.087
-487.464	-142.892	-0.116	-0.011
-486.449	-151.272	-0.088	-0.007
-485.435	84.750	0.224	0.245
-484.420	131.262	-0.192	0.246
-483.405	-200.000	-0.034	0.155
-482.391	207.709	-0.151	0.234
-481.376	659.574	0.132	-0.339
-480.362	177.752	-0.101	-0.146
-479.347	800.000	0.060	0.190
-478.332	-48.610	0.254	0.122
-477.318	256.257	0.092	-0.157
-476.303	33.393	0.259	0.224
-475.289	239.516	-0.110	0.182
-474.274	800.000	0.043	0.140
-473.259	800.000	-0.165	-0.509
-472.245	-200.000	-0.003	-0.263
-471.230	-108.326	-0.330	0.071
-470.216	-200.000	-0.033	-0.480
-469.201	-110.876	-0.052	0.011
-468.186	-200.000	-0.021	0.135
-467.172	706.666	-0.055	-0.146
-466.157	-133.011	0.457	-0.058
-465.143	-58.525	0.331	0.143
-464.128	-132.873	-0.289	-0.037
-463.113	-71.013	0.093	0.035
-462.099	-154.103	-0.219	0.015
-461.084	208.791	0.032	-0.050
-460.070	-142.837	-0.266	0.026
-459.055	141.801	0.091	-0.120
-458.040	-159.984	-0.140	-0.008
-457.026	780.318	-0.062	0.168
-456.011	445.617	-0.172	0.376
-454.997	-200.000	-0.012	-0.200
-453.982	21.608	-0.098	0.079
-452.968	-53.848	-0.112	0.051
-451.953	150.923	-0.211	0.286
-450.938	241.156	0.057	0.095
-449.924	325.248	0.048	0.092
-448.909	145.048	0.109	-0.145
-447.895	58.917	-0.094	-0.092
-446.880	64.574	0.233	-0.233
-445.865	-82.404	0.216	0.070
-444.851	-88.072	-0.159	-0.047
-443.836	-200.000	-0.015	-0.107
-442.822	-92.963	-0.089	0.025
-441.807	444.491	-0.047	-0.103
-440.792	-24.876	0.145	0.086
-439.778	-200.000	0.003	0.196
-438.763	172.309	0.135	0.193
-437.749	332.734	-0.045	-0.086
-436.734	-81.104	0.272	0.089
-435.719	152.069	-0.110	-0.149
-434.705	-60.223	-0.148	0.063
-433.690	800.000	0.066	0.182
-432.676	58.793	-0.160	0.156
-431.661	9.959	0.192	-0.145
-430.646	-127.300	-0.178	0.026
-429.632	432.217	0.165	0.355
-428.617	544.271	-0.060	0.142
-427.603	80.744	-0.250	-0.268
-426.588	151.283	0.219	-0.297
-425.573	-200.000	0.030	-0.134
-424.559	-144.872	0.213	-0.019
-423.544	453.344	-0.112	0.247
-422.530	-29.333	0.110	-0.063
-421.515	296.102	-0.192	-0.350
-420.500	-98.348	-0.156	0.040
-419.486	240.080	-0.100	-0.165
-418.471	-192.933	-0.340	0.003
-417.457	-78.810	0.053	-0.018
-416.442	134.984	0.051	-0.066
-415.428	-200.000	0.001	-0.227
-414.413	1.041	0.178	0.127
-413.398	111.391	-0.042	0.050
-412.384	-130.890	0.136	0.018
-411.369	167.521	0.037	0.053
-410.355	12.474	-0.192	0.147
-409.340	-99.427	0.594	0.149
-408.325	800.000	0.051	-0.199
-407.311	-38.196	0.096	-0.051
-406.296	800.000	0.033	0.093
-405.282	-75.195	0.265	-0.094
-404.267	200.190	0.075	0.115
-403.252	-55.528	-0.216	-0.096
-402.238	-42.618	0.048	-0.024
-401.223	390.959	0.111	-0.228
-400.209	22.542	-0.080	0.065
-399.194	722.395	0.056	-0.149
-398.179	22.417	-0.067	0.055
-397.165	-65.200	-0.125	0.050
-396.150	-53.158	-0.196	-0.089
-395.136	781.134	0.019	0.053
-394.121	-200.000	-0.016	0.341
-393.106	-26.057	-0.261	-0.153
-392.092	94.981	0.106	-0.120
-391.077	800.000	0.074	0.233
-390.063	106.453	0.103	-0.122
-389.048	800.000	0.037	-0.103
-388.033	-68.271	-0.145	0.056
-387.019	800.000	-0.031	-0.104
-386.004	-200.000	-0.011	-0.360
-384.990	427.012	-0.115	0.247
-383.975	800.000	-0.070	0.301
-382.960	12.474	-0.121	0.093
-381.946	-60.983	-0.203	0.085
-380.931	-40.834	0.028	0.014
-379.917	-60.936	0.232	-0.097
-378.902	-12.144	-0.126	0.082
-377.888	213.494	0.262	-0.410
-376.873	19.733	-0.301	-0.241
-375.858	-126.033	0.068	-0.010
-374.844	-64.878	-0.064	-0.026
-373.829	-164.415	-0.296	-0.013
-372.815	-49.163	0.249	0.118
-371.800	-38.375	0.352	0.185
-370.785	-15.761	-0.111	0.070
-369.771	89.144	0.231	0.255
-368.756	359.667	-0.033	-0.066
-367.742	-200.000	-0.031	-0.381
-366.727	-94.551	0.130	-0.035
-365.712	-51.321	-0.190	0.088
-364.698	-200.000	0.001	0.216
-363.683	-176.469	0.061	-0.002
-362.669	-200.000	-0.033	0.242
-361.654	-121.527	-0.269	-0.044
-360.639	306.929	0.081	0.150
-359.625	534.673	-0.047	0.110
-358.610	240.391	-0.062	-0.102
-357.596	-97.800	0.543	-0.139
-356.581	263.727	-0.134	-0.232
-355.566	346.850	-0.120	-0.235
-354.552	122.519	0.134	0.166
-353.537	75.805	-0.067	0.070
-352.523	194.670	0.247	0.371
-351.508	-119.930	-0.213	-0.036
-350.493	-58.795	0.042	0.018
-349.479	-197.203	-0.083	0.001
-348.464	-1.744	0.170	-0.119
-347.450	-103.377	0.134	-0.031
-346.435	-62.706	-0.372	0.153
-345.420	-200.000	-0.028	0.252
-344.406	-145.074	0.271	0.024
-343.391	65.547	0.182	0.182
-342.377	-77.890	-0.115	-0.039
-341.362	138.594	0.201	0.262
-340.348	-97.212	0.222	0.058
-339.333	-129.149	-0.122	-0.017
-338.318	-132.005	-0.019	-0.002
-337.304	800.000	0.090	0.307
-336.289	-157.634	0.136	-0.008
-335.275	35.625	0.222	-0.193
-334.260	-200.000	-0.024	0.167
-333.245	-200.000	0.069	0.323
-332.231	492.534	0.125	0.283
-331.216	-58.164	0.224	0.097
-330.202	-132.578	-0.278	-0.035
-329.187	-125.960	0.245	-0.037
-328.172	104.433	-0.040	0.047
-327.158	-200.000	0.068	0.419
-326.143	-20.526	0.148	-0.090
-325.129	-115.405	0.312	-0.058
-324.114	-52.401	-0.136	-0.062
-323.099	168.776	-0.107	-0.150
-322.085	-200.000	-0.054	0.340
-321.070	-86.541	0.155	0.047
-320.056	0.732	0.098	0.070
-319.041	-192.720	0.139	-0.001
-318.026	-32.220	0.134	0.074
-317.012	-109.217	-0.392	-0.082
-315.997	-117.949	0.185	0.033
-314.983	-170.513	0.166	0.006
-313.968	-101.042	-0.406	-0.099
-312.953	126.664	-0.114	0.144
-311.939	-14.050	-0.174	0.111
-310.924	134.484	0.206	0.265
-309.910	-168.580	0.076	-0.003
-308.895	112.259	-0.222	0.266
-307.880	-89.251	0.175	-0.051
-306.866	-140.954	-0.123	0.013
-305.851	168.412	0.020	0.028
-304.837	24.109	-0.213	-0.174
-303.822	800.000	0.029	-0.090
-302.807	406.081	0.079	0.165
-301.793	-176.412	0.293	0.008
-300.778	-156.829	-0.253	0.015
-299.764	800.000	0.032	0.095
-298.749	171.226	0.195	-0.277
-297.735	-200.000	0.076	0.409
-296.720	114.829	0.109	-0.131
-295.705	-200.000	0.007	-0.045
-294.691	-117.867	0.150	-0.027
-293.676	800.000	-0.111	0.355
-292.662	209.093	0.187	-0.289
-291.647	54.033	0.099	0.094
-290.632	-71.298	0.215	0.080
-289.618	106.448	-0.086	-0.101
-288.603	800.000	-0.056	-0.226
-287.589	-200.000	0.001	0.150
-286.574	-36.515	-0.442	-0.235
-285.559	-16.579	-0.148	-0.093
-284.545	-200.000	-0.002	0.039
-283.530	-164.317	0.047	-0.002
-282.516	-200.000	-0.026	-0.286
-281.501	-26.701	0.096	0.055
-280.486	340.937	0.067	0.129
-279.472	-54.052	0.094	-0.042
-278.457	-63.907	-0.087	-0.035
-277.443	-31.625	-0.253	-0.140
-276.428	36.064	0.181	-0.157
-275.413	188.670	0.144	-0.213
-274.399	347.686	-0.125	0.243
-273.384	-6.866	0.280	0.188
-272.370	-200.000	0.014	0.152
-271.355	-46.817	0.204	-0.099
-270.340	800.000	-0.133	-0.387
-269.326	69.524	-0.039	0.040
-268.311	28.919	-0.142	0.119
-267.297	145.542	0.280	-0.370
-266.282	-200.000	0.015	0.176
-265.267	94.884	0.059	0.066
-264.253	800.000	0.048	-0.195
-263.238	-200.000	0.008	0.154
-262.224	545.041	-0.088	-0.209
-261.209	-41.688	-0.224	0.114
-260.195	-20.866	-0.070	0.043
-259.180	-200.000	-0.023	-0.250
-258.165	-200.000	-0.018	-0.105
-257.151	800.000	-0.037	-0.102
-256.136	-96.626	-0.115	-0.030
-255.122	-200.000	-0.027	-0.344
-254.107	-96.078	0.094	-0.025
-253.092	-87.349	-0.105	0.032
-252.078	10.590	-0.250	-0.188
-251.063	-27.849	0.129	0.074
-250.049	-200.000	-0.030	0.156
-249.034	-200.000	-0.070	0.344
-248.019	-200.000	-0.011	-0.071
-247.005	208.564	0.079	-0.122
-245.990	-200.000	0.003	-0.257
-244.976	534.894	-0.047	0.111
-243.961	45.599	-0.081	0.074
-242.946	477.464	-0.065	0.145
-241.932	44.977	0.199	0.181
-240.917	42.667	0.165	0.148
-239.903	174.353	-0.100	-0.143
-238.888	-111.014	0.393	-0.080
-237.873	-143.992	-0.137	0.013
-236.859	672.026	-0.120	-0.306
-235.844	-166.571	-0.150	-0.006
-234.830	190.828	-0.122	-0.181
-233.815	-115.552	-0.346	0.064
-232.800	124.469	0.143	-0.178
-231.786	-159.387	0.179	-0.010
-230.771	14.175	-0.127	0.098
-229.757	-68.497	0.160	-0.061
-228.742	-200.000	-0.008	0.102
-227.727	150.591	-0.044	0.059
-226.713	-130.359	-0.067	0.009
-225.698	541.912	0.072	-0.170
-224.684	-165.068	0.287	0.013
-223.669	-95.561	0.245	0.065
-222.655	195.227	-0.071	0.107
-221.640	74.876	0.154	0.160
-220.625	-200.000	-0.021	-0.262
-219.611	571.765	-0.027	0.064
-218.596	-200.000	0.030	-0.144
-217.582	-200.000	0.032	-0.197
-216.567	-69.667	-0.239	-0.090
-215.552	99.706	0.163	0.187
-214.538	-7.069	-0.253	0.169
-213.523	-200.000	0.033	-0.153
-212.509	334.635	-0.172	-0.329
-211.494	160.300	0.072	0.099
-210.479	-52.665	0.133	-0.060
-209.465	800.000	0.102	0.304
-208.450	-68.038	-0.181	-0.070
-207.436	-50.287	0.268	-0.125
-206.421	420.468	0.010	0.021
-205.406	9.177	-0.292	-0.217
-204.392	255.768	0.056	-0.094
-203.377	-200.000	0.013	0.166
-202.363	800.000	-0.036	-0.134
-201.348	31.904	0.151	0.128
-200.333	-52.614	-0.141	-0.064
-199.319	-200.000	-0.009	0.077
-198.304	-77.444	0.412	-0.141
-197.290	11.645	-0.335	0.253
-196.275	-200.000	-0.016	-0.204
-195.260	-198.070	-0.013	0.000
-194.246	-57.242	-0.104	-0.045
-193.231	-37.385	-0.210	-0.110
-192.217	11.761	-0.214	0.162
-191.202	48.836	-0.225	-0.208
-190.187	694.086	-0.146	0.378
-189.173	304.294	0.098	0.180
-188.158	-85.335	0.185	-0.057
-187.144	-151.946	0.226	-0.016
-186.129	196.607	-0.039	0.059
-185.114	-16.829	0.138	-0.086
-184.100	223.112	0.234	0.371
-183.085	7.321	0.293	0.215
-182.071	230.623	-0.121	-0.195
-181.056	-48.808	-0.227	-0.107
-180.042	-2.138	-0.380	-0.263
-179.027	-18.225	0.088	-0.054
-178.012	-200.000	-0.054	-0.447
-176.998	-119.987	0.195	-0.033
-175.983	-200.000	-0.073	-0.339
-174.969	329.617	0.019	0.037
-173.954	-200.000	-0.022	-0.138
-172.939	47.758	-0.122	-0.112
-171.925	-79.965	-0.424	0.140
-170.910	-133.604	-0.245	-0.030
-169.896	-189.027	0.268	-0.003
-168.881	-200.000	-0.010	0.229
-167.866	-200.000	-0.039	0.237
-166.852	-51.887	0.276	0.126
-165.837	-200.000	0.010	0.183
-164.823	215.118	-0.170	-0.265
-163.808	800.000	0.068	-0.186
-162.793	120.629	0.055	-0.068
-161.779	-40.560	0.126	0.064
-160.764	-200.000	0.020	0.229
-159.750	581.386	0.143	0.345
-158.735	-200.000	-0.005	0.131
-157.720	-36.037	0.387	0.206
-156.706	245.984	-0.197	-0.326
-155.691	321.931	0.198	-0.371
-154.677	96.622	-0.063	-0.071
-153.662	458.541	0.174	-0.380
-152.647	800.000	-0.035	-0.137
-151.633	-200.000	-0.019	-0.081
-150.618	-200.000	-0.002	0.057
-149.604	0.618	-0.147	0.104
-148.589	-200.000	0.025	0.150
-147.574	14.029	-0.094	-0.072
-146.560	-200.000	0.009	-0.141
-145.545	133.245	0.233	-0.296
-144.531	-200.000	0.017	-0.350
-143.516	53.734	0.151	0.142
-142.502	800.000	0.056	0.210
-141.487	-200.000	0.007	0.107
-140.472	-55.171	0.207	0.092
-139.458	-119.996	-0.231	-0.039
-138.443	75.087	0.095	-0.099
-137.429	-182.280	0.352	-0.006
-136.414	-200.000	-0.001	-0.089
-135.399	-121.090	-0.183	-0.030
-134.385	-42.203	0.325	0.163
-133.370	85.771	0.030	0.033
-132.356	-200.000	0.012	-0.197
-131.341	-81.846	-0.095	0.031
-130.326	-11.652	-0.327	0.211
-129.312	-32.233	-0.005	0.003
-128.297	-200.000	-0.009	-0.104
-127.283	484.145	-0.202	-0.452
-126.268	-45.751	0.397	-0.193
-125.253	116.783	0.169	-0.203
-124.239	-158.962	0.352	0.020
-123.224	-1.339	0.025	0.017
-122.210	-200.000	-0.005	0.048
-121.195	-111.329	-0.362	-0.073
-120.180	-74.342	-0.264	-0.094
-119.166	800.000	0.030	-0.111
-118.151	640.451	0.076	-0.191
-117.137	-22.969	0.342	-0.203
-116.122	-114.615	-0.136	0.026
-115.107	-200.000	0.103	0.464
-114.093	95.500	-0.248	0.278
-113.078	-2.026	-0.279	0.192
-112.064	800.000	0.097	-0.267
-111.049	45.423	0.080	0.073
-110.034	-200.000	-0.058	-0.441
-109.020	-28.254	-0.202	-0.114
-108.005	-137.151	0.178	0.020
-106.991	-50.742	-0.166	0.077
-105.976	1.894	-0.197	0.140
-104.962	31.004	0.284	0.239
-103.947	-200.000	-0.024	0.231
-102.932	-149.887	-0.186	-0.014
-101.918	67.257	-0.277	-0.278
-100.903	46.827	0.097	0.089
-99.889	525.946	0.037	-0.086
-98.874	254.690	-0.203	-0.340
-97.859	-52.850	-0.286	0.129
-96.845	21.594	0.135	0.108
-95.830	800.000	0.044	0.175
-94.816	-200.000	0.000	0.106
-93.801	90.567	-0.070	-0.077
-92.786	-158.936	0.123	-0.007
-91.772	-200.000	-0.048	-0.385
-90.757	331.786	0.135	-0.256
-89.743	-200.000	-0.000	0.125
-88.728	-134.173	0.465	-0.056
-87.713	-5.327	0.301	-0.203
-86.699	55.422	-0.142	0.135
-85.684	-122.898	-0.297	-0.047
-84.670	-28.025	0.206	-0.117
-83.655	384.880	0.067	0.135
-82.640	-200.000	-0.036	-0.189
-81.626	800.000	-0.107	0.403
-80.611	304.712	-0.338	0.617
-79.597	-200.000	0.018	-0.078
-78.582	-200.000	0.001	-0.048
-77.567	210.193	-0.181	0.279
-76.553	-51.940	-0.158	0.072
-75.538	-200.000	0.370	-0.001
-74.524	-60.258	-0.152	0.064
-73.509	-8.606	0.267	0.176
-72.494	800.000	0.075	-0.239
-71.480	89.744	-0.214	-0.234
-70.465	576.262	-0.078	-0.187
-69.451	223.694	0.132	0.209
-68.436	5.466	-0.108	0.078
-67.422	-200.000	0.049	-0.400
-66.407	392.558	-0.133	0.271
-65.392	166.830	-0.181	0.252
-64.378	-22.954	-0.420	0.248
-63.363	-200.000	0.025	-0.147
-62.349	-200.000	0.007	-0.080
-61.334	145.954	-0.831	-1.092
-60.319	303.057	0.463	0.841
-59.305	765.901	-0.467	-1.244
-58.290	171.298	0.615	0.865
-57.276	342.595	0.832	1.596
-56.261	-200.000	105.833	619.061
-55.246	516.158	1499.957	3435.244
-54.232	176.683	2698.136	3844.837
-53.217	106.024	2289.534	2656.240
-52.203	38.932	1897.070	1661.121
-51.188	33.021	1684.377	1430.235
-50.173	30.307	1641.526	1373.735
-49.159	49.646	1694.476	1563.941
-48.144	49.843	1710.136	1579.816
-47.130	32.496	1667.957	1412.134
-46.115	29.930	1652.436	1379.841
-45.100	29.817	1647.376	1374.721
-44.086	29.677	1645.252	1371.850
-43.071	29.686	1642.795	1369.819
-42.057	29.578	1640.501	1367.048
-41.042	29.699	1638.380	1366.126
-40.027	29.757	1636.618	1365.023
-39.013	29.568	1635.041	1362.261
-37.998	29.535	1633.667	1360.824
-36.984	29.655	1631.838	1360.127
-35.969	29.844	1630.293	1360.177
-34.954	29.765	1628.609	1358.138
-33.940	29.755	1626.858	1356.550
-32.925	29.776	1625.036	1355.133
-31.911	29.804	1623.566	1354.057
-30.896	29.769	1621.514	1352.032
-29.881	29.755	1619.680	1350.350
-28.867	29.705	1618.824	1349.213
-27.852	29.714	1616.931	1347.650
-26.838	29.758	1615.611	1346.819
-25.823	29.683	1614.544	1345.329
-24.809	29.878	1612.407	1344.915
-23.794	29.673	1612.486	1343.437
-22.779	29.719	1610.343	1341.932
-21.765	29.683	1608.591	1340.157
-20.750	29.635	1607.288	1338.672
-19.736	29.810	1605.910	1338.738
-18.721	29.696	1604.067	1336.322
-17.706	29.844	1602.490	1336.022
-16.692	29.704	1601.374	1334.032
-15.677	29.735	1600.357	1333.355
-14.663	29.876	1598.399	1332.684
-13.648	29.853	1596.955	1331.261
-12.633	29.742	1595.735	1329.398
-11.619	29.722	1594.094	1327.829
-10.604	29.787	1592.585	1326.987
-9.590	29.869	1591.014	1326.212
-8.575	29.903	1589.968	1325.532
-7.560	29.842	1588.824	1324.092
-6.546	29.865	1588.060	1323.565
-5.531	29.828	1586.799	1322.198
-4.517	29.757	1585.946	1320.926
-3.502	29.659	1585.074	1319.445
-2.487	29.814	1582.921	1318.709
-1.473	29.397	1571.915	1306.536
-0.458	26.593	1551.750	1270.088
0.556	20.656	1553.222	1238.040
1.571	18.418	1577.384	1240.995
2.586	18.070	1590.863	1248.948
3.600	16.398	1538.415	1195.835
4.615	8.698	1429.828	1060.501
5.629	1.229	1366.424	965.962
6.644	-0.302	1358.534	950.606
7.659	-0.302	1357.279	949.641
8.673	-0.351	1356.560	948.741
9.688	-0.305	1353.734	946.976
10.702	-0.573	1351.040	943.316
11.717	2.650	1357.498	968.123
12.731	11.614	1374.647	1037.389
13.746	18.968	1386.864	1093.444
14.761	20.813	1388.905	1106.695
15.775	21.079	1388.998	1108.360
16.790	21.082	1388.304	1107.725
17.804	21.185	1387.741	1107.830
18.819	21.297	1387.906	1108.574
19.834	21.489	1387.086	1109.038
20.848	21.532	1385.777	1108.169
21.863	21.441	1385.966	1107.646
22.877	21.438	1384.429	1106.301
23.892	21.492	1383.634	1105.909
24.907	21.439	1382.964	1104.938
25.921	21.505	1381.894	1104.405
26.936	21.476	1380.745	1103.202
27.950	21.334	1380.013	1101.628
28.965	21.461	1378.480	1101.107
29.980	21.499	1377.010	1100.074
30.994	21.467	1376.205	1099.134
32.009	21.484	1374.590	1097.852
33.023	21.532	1373.790	1097.413
34.038	21.487	1372.703	1096.168
35.053	21.415	1372.023	1095.075
36.067	21.420	1371.101	1094.275
37.082	21.459	1370.058	1093.592
38.096	21.521	1368.839	1092.908
39.111	21.507	1368.200	1092.212
40.126	21.434	1367.879	1091.404
41.140	21.474	1367.305	1091.099
42.155	21.466	1366.743	1090.504
43.169	21.466	1366.764	1090.424
44.184	21.409	1366.493	1089.759
45.199	21.510	1365.839	1089.766
46.213	21.424	1365.279	1088.688
47.228	21.462	1364.458	1088.177
48.242	21.495	1363.097	1087.198
49.257	21.460	1361.506	1085.615
50.271	21.484	1359.884	1084.373
51.286	21.398	1359.186	1083.191
52.301	21.487	1357.613	1082.391
53.315	21.450	1356.911	1081.508
54.330	21.501	1355.988	1080.989
55.344	21.422	1355.163	1079.749
56.359	21.481	1353.857	1078.977
57.374	21.455	1353.162	1078.167
58.388	21.460	1352.616	1077.672
59.403	21.495	1351.810	1077.148
60.417	21.388	1351.643	1076.259
61.432	21.537	1350.258	1075.975
62.447	21.545	1349.239	1075.117
63.461	21.482	1348.260	1073.860
64.476	21.419	1347.931	1073.112
65.490	21.433	1346.559	1072.010
66.505	21.521	1344.459	1070.786
67.520	21.540	1343.604	1070.123
68.534	21.527	1342.581	1069.135
69.549	21.536	1341.323	1068.096
70.563	21.497	1340.585	1067.172
71.578	21.508	1339.203	1066.046
72.593	21.629	1338.591	1066.204
73.607	21.619	1337.867	1065.472
74.622	21.588	1336.995	1064.494
75.636	21.506	1336.719	1063.680
76.651	21.358	1336.353	1062.394
77.666	21.477	1335.314	1062.200
78.680	21.457	1334.892	1061.649
79.695	21.522	1334.062	1061.287
80.709	21.435	1333.213	1059.993
81.724	21.510	1332.379	1059.688
82.739	21.507	1331.299	1058.720
83.753	21.547	1330.290	1058.064
84.768	21.484	1329.267	1056.773
85.782	21.541	1327.971	1055.998
86.797	21.493	1326.951	1054.801
87.812	21.497	1325.840	1053.849
88.826	21.592	1324.600	1053.341
89.841	21.544	1323.866	1052.380
90.855	21.588	1322.629	1051.563
91.870	21.551	1321.795	1050.587
92.884	21.706	1320.715	1050.564
93.899	21.575	1319.883	1049.025
94.914	21.585	1319.300	1048.528
95.928	21.591	1318.680	1047.977
96.943	21.633	1317.956	1047.564
97.957	21.651	1317.083	1046.885
98.972	21.580	1316.268	1045.717
99.987	21.458	1315.222	1044.069
101.001	21.510	1314.452	1043.673
102.016	21.572	1313.336	1043.062
103.030	21.562	1312.349	1042.127
104.045	21.587	1311.801	1041.749
105.060	21.612	1310.700	1040.930
106.074	21.557	1309.424	1039.498
107.089	21.577	1308.530	1038.816
108.103	21.683	1307.203	1038.301
109.118	21.613	1306.288	1037.065
110.133	21.667	1304.759	1036.083
111.147	21.633	1304.050	1035.227
112.162	21.703	1302.949	1034.670
113.176	21.629	1301.550	1033.031
114.191	21.628	1301.466	1032.868
115.206	21.608	1300.158	1031.625
116.220	21.683	1298.675	1030.798
117.235	21.662	1298.128	1030.148
118.249	21.766	1296.945	1029.729
119.264	21.590	1296.083	1027.918
120.279	21.593	1295.424	1027.326
121.293	21.708	1294.660	1027.303
122.308	21.728	1293.311	1026.255
123.322	21.687	1292.493	1025.280
124.337	21.718	1291.551	1024.619
125.352	21.681	1290.394	1023.396
126.366	21.694	1289.961	1023.038
127.381	21.688	1288.893	1022.066
128.395	21.701	1287.781	1021.168
129.410	21.730	1286.692	1020.383
130.424	21.761	1286.270	1020.139
131.439	21.746	1285.350	1019.230
132.454	21.687	1284.394	1018.043
133.468	21.664	1283.338	1016.982
134.483	21.708	1282.898	1016.797
135.497	21.639	1282.437	1015.942
136.512	21.709	1281.244	1015.314
137.527	21.829	1279.286	1014.367
138.541	21.642	1278.801	1012.811
139.556	21.668	1277.301	1011.680
140.570	21.657	1276.176	1010.636
141.585	21.745	1275.074	1010.182
142.600	21.630	1274.464	1008.949
143.614	21.623	1273.810	1008.298
144.629	21.678	1271.993	1007.087
145.643	21.610	1271.141	1005.937
146.658	21.689	1269.849	1005.278
147.673	21.698	1268.997	1004.566
148.687	21.628	1268.433	1003.625
149.702	21.574	1267.333	1002.360
150.716	21.593	1265.939	1001.275
151.731	21.704	1264.962	1001.047
152.746	21.721	1263.896	1000.214
153.760	21.716	1262.560	999.038
154.775	21.779	1261.689	998.623
155.789	21.746	1260.695	997.559
156.804	21.770	1259.883	996.966
157.819	21.639	1259.388	995.743
158.833	21.817	1258.323	995.820
159.848	21.790	1257.656	995.054
160.862	21.745	1257.134	994.297
161.877	21.843	1255.683	993.615
162.892	21.865	1254.854	992.998
163.906	21.786	1254.562	992.230
164.921	21.798	1253.485	991.358
165.935	21.735	1253.405	990.852
166.950	21.747	1252.730	990.296
167.964	21.916	1251.497	990.189
168.979	21.911	1251.126	989.778
169.994	21.979	1250.054	989.227
171.008	21.807	1249.676	987.871
172.023	21.875	1248.789	987.465
173.037	21.825	1248.209	986.639
174.052	21.941	1247.064	986.299
175.067	21.838	1246.521	985.203
176.081	21.894	1245.805	984.863
177.096	21.834	1244.794	983.638
178.110	21.974	1243.808	983.558
179.125	21.877	1242.833	982.158
180.140	21.897	1241.839	981.399
181.154	21.812	1241.156	980.295
182.169	21.898	1239.409	979.312
183.183	21.828	1238.984	978.497
184.198	21.884	1237.734	977.733
185.213	21.880	1236.718	976.821
186.227	21.889	1236.020	976.235
187.242	21.960	1235.059	975.788
188.256	21.866	1234.135	974.446
189.271	21.990	1233.331	974.416
190.286	21.880	1232.797	973.298
191.300	21.914	1232.249	972.963
192.315	21.920	1231.783	972.545
193.329	21.971	1231.385	972.429
194.344	21.979	1230.684	971.833
195.359	21.952	1230.201	971.214
196.373	21.856	1229.807	970.284
197.388	21.893	1229.387	970.076
198.402	21.919	1228.993	969.824
199.417	21.864	1228.043	968.684
200.432	21.902	1227.593	968.451
201.446	21.925	1226.903	967.948
202.461	22.023	1225.646	967.409
203.475	21.991	1225.257	966.840
204.490	21.911	1224.431	965.666
205.504	21.966	1223.532	965.171
206.519	21.996	1222.667	964.570
207.534	21.979	1221.630	963.573
208.548	21.953	1220.336	962.323
209.563	22.067	1219.683	962.348
210.577	22.039	1218.937	961.523
211.592	21.873	1218.526	960.202
212.607	22.004	1217.656	960.148
213.621	22.204	1216.817	960.494
214.636	22.067	1216.074	959.079
215.650	22.038	1215.381	958.286
216.665	22.122	1213.952	957.530
217.680	21.946	1213.655	956.252
218.694	22.112	1212.210	955.933
219.709	22.162	1211.763	955.769
220.723	22.141	1211.224	955.144
221.738	21.977	1210.478	953.581
222.753	22.062	1209.764	953.394
223.767	22.094	1209.063	952.932
224.782	22.178	1208.612	952.950
225.796	22.182	1208.509	952.806
226.811	22.127	1207.731	951.812
227.826	22.057	1207.091	950.845
228.840	22.250	1205.983	950.931
229.855	22.130	1205.697	949.973
230.869	22.124	1205.303	949.546
231.884	22.204	1204.192	949.017
232.899	22.297	1203.251	948.694
233.913	22.268	1203.039	948.282
234.928	22.205	1202.619	947.529
235.942	22.197	1202.248	947.113
236.957	22.282	1201.018	946.516
237.972	22.145	1200.582	945.352
238.986	22.194	1199.659	944.806
240.001	22.270	1199.150	944.726
241.015	22.372	1198.514	944.689
242.030	22.250	1198.025	943.565
243.045	22.236	1197.175	942.741
244.059	22.269	1196.398	942.219
245.074	22.333	1195.417	941.708
246.088	22.363	1194.752	941.259
247.103	22.351	1193.552	940.166
248.117	22.247	1193.302	939.331
249.132	22.307	1192.168	938.678
250.147	22.416	1191.385	938.556
251.161	22.363	1191.269	938.101
252.176	22.404	1190.141	937.348
253.190	22.440	1189.312	936.806
254.205	22.381	1188.949	936.124
255.220	22.388	1188.360	935.613
256.234	22.424	1187.527	935.065
257.249	22.314	1187.712	934.542
258.263	22.473	1186.772	934.563
259.278	22.426	1186.098	933.702
260.293	22.419	1185.730	933.294
261.307	22.494	1184.716	932.808
262.322	22.403	1184.476	932.054
263.336	22.502	1183.420	931.663
264.351	22.472	1182.956	931.059
265.366	22.468	1182.206	930.368
266.380	22.492	1181.845	930.129
267.395	22.374	1181.202	928.914
268.409	22.404	1180.719	928.613
269.424	22.555	1179.769	928.575
270.439	22.493	1179.573	928.017
271.453	22.497	1178.745	927.300
272.468	22.491	1177.806	926.450
273.482	22.528	1177.392	926.238
274.497	22.476	1176.692	925.331
275.512	22.534	1176.535	925.432
276.526	22.479	1175.682	924.390
277.541	22.526	1174.945	923.974
278.555	22.575	1174.206	923.568
279.570	22.529	1173.760	922.892
280.585	22.609	1172.639	922.349
281.599	22.699	1171.633	921.949
282.614	22.534	1171.135	920.611
283.628	22.685	1169.600	920.109
284.643	22.596	1168.719	918.874
285.657	22.626	1168.436	918.728
286.672	22.655	1167.529	918.083
287.687	22.648	1166.550	917.193
288.701	22.674	1166.326	917.072
289.716	22.634	1165.658	916.260
290.730	22.686	1164.699	915.691
291.745	22.702	1164.223	915.321
292.760	22.731	1163.505	914.828
293.774	22.713	1163.185	914.397
294.789	22.778	1162.575	914.178
295.803	22.718	1162.061	913.381
296.818	22.669	1161.655	912.727
297.833	22.621	1161.052	911.926
298.847	22.810	1159.996	911.990
299.862	22.822	1158.888	911.101
300.876	22.805	1158.534	910.656
301.891	22.809	1157.969	910.150
302.906	22.869	1157.347	909.890
303.920	22.815	1156.500	908.865
304.935	22.768	1156.123	908.245
305.949	22.849	1155.174	907.837
306.964	22.913	1155.063	908.000
307.979	22.828	1154.690	907.187
308.993	22.847	1153.329	906.140
310.008	22.913	1152.651	905.865
311.022	23.038	1151.752	905.718
312.037	23.065	1150.795	905.022
313.052	22.877	1150.133	903.461
314.066	22.888	1149.453	902.901
315.081	22.923	1148.384	902.161
316.095	22.950	1148.203	902.076
317.110	23.013	1147.319	901.621
318.125	22.937	1146.733	900.695
319.139	22.993	1145.991	900.321
320.154	23.106	1145.716	900.597
321.168	22.950	1145.477	899.539
322.183	22.989	1144.552	898.930
323.197	22.865	1144.114	897.874
324.212	22.975	1143.530	897.894
325.227	22.995	1143.168	897.636
326.241	23.016	1142.256	896.947
327.256	23.044	1141.872	896.708
328.270	23.031	1141.144	895.986
329.285	22.981	1139.925	894.697
330.300	23.065	1139.182	894.461
331.314	23.043	1138.206	893.507
332.329	23.135	1137.398	893.257
333.343	23.086	1136.763	892.433
334.358	23.274	1135.710	892.474
335.373	23.210	1135.446	891.866
336.387	23.104	1134.890	890.815
337.402	23.087	1134.575	890.404
338.416	23.203	1133.193	889.826
339.431	23.187	1132.933	889.459
340.446	23.183	1132.466	888.992
341.460	23.113	1132.003	888.200
342.475	23.209	1130.709	887.588
343.489	23.132	1130.173	886.705
344.504	23.322	1128.698	886.417
345.519	23.370	1127.767	885.847
346.533	23.280	1127.082	884.783
347.548	23.271	1126.791	884.432
348.562	23.284	1126.045	883.832
349.577	23.338	1125.355	883.482
350.592	23.265	1124.430	882.313
351.606	23.204	1123.862	881.485
352.621	23.345	1123.609	881.914
353.635	23.250	1123.038	880.914
354.650	23.371	1122.161	880.750
355.665	23.338	1121.638	880.094
356.679	23.324	1121.163	879.574
357.694	23.356	1120.467	879.111
358.708	23.281	1119.904	878.218
359.723	23.326	1118.957	877.620
360.738	23.331	1118.421	877.148
361.752	23.441	1117.656	877.016
362.767	23.413	1117.114	876.374
363.781	23.525	1116.523	876.385
364.796	23.457	1116.365	875.847
365.810	23.400	1115.717	874.979
366.825	23.531	1114.960	874.956
367.840	23.463	1114.561	874.233
368.854	23.560	1114.006	874.198
369.869	23.461	1113.539	873.264
370.883	23.572	1112.589	872.988
371.898	23.635	1111.390	872.281
372.913	23.624	1110.876	871.748
373.927	23.516	1110.630	870.945
374.942	23.643	1109.942	870.952
375.956	23.688	1109.274	870.573
376.971	23.471	1109.251	869.409
377.986	23.587	1108.729	869.497
379.000	23.729	1107.664	869.277
380.015	23.554	1107.599	868.295
381.029	23.720	1106.584	868.229
382.044	23.709	1105.651	867.367
383.059	23.760	1105.443	867.377
384.073	23.728	1104.559	866.450
385.088	23.758	1103.836	865.954
386.102	23.640	1103.009	864.653
387.117	23.663	1102.335	864.159
388.132	23.541	1101.307	862.684
389.146	23.845	1100.641	863.563
390.161	23.781	1100.141	862.787
391.175	23.717	1099.575	861.954
392.190	23.765	1098.691	861.416
393.205	23.840	1098.096	861.239
394.219	23.788	1097.211	860.218
395.234	23.783	1096.251	859.364
396.248	23.844	1095.887	859.296
397.263	23.885	1094.955	858.688
398.278	23.786	1094.703	857.939
399.292	23.946	1093.320	857.549
400.307	23.931	1093.147	857.265
401.321	23.975	1092.330	856.759
402.336	23.865	1091.682	855.647
403.350	23.899	1091.082	855.265
404.365	24.066	1090.268	855.355
405.380	23.840	1090.120	854.076
406.394	23.846	1089.130	853.255
407.409	23.943	1088.616	853.239
408.423	23.942	1087.902	852.599
409.438	23.973	1087.041	851.997
410.453	24.065	1086.271	851.760
411.467	24.134	1085.256	851.219
412.482	24.028	1084.938	850.389
413.496	23.995	1084.255	849.619
414.511	24.038	1083.481	849.142
415.526	24.092	1082.879	848.851
416.540	24.069	1083.039	848.795
417.555	24.076	1082.372	848.227
418.569	24.119	1081.369	847.571
419.584	24.171	1081.083	847.522
420.599	24.177	1080.635	847.120
421.613	148.881	1400.992	1798.188
422.628	137.490	1447.643	1798.278
