DTS Sentinel unit serial number:	SN413079Multiplexer serial number:	ORYXHardware model number:	OX4-SRSoftware version number:	ORYX F/W v4.00 Oryx Data Collector v3.7.2.0data status	okinstallation	princeton_trtdifferential loss correction	single-endedforward channel	channel 2reverse channel	N/Adate	2019/09/15time	00:47:35forward acquisition time	60.00reverse acquisition time	0.00gamma	496.2192k internal	0.2324k external	0.2324temperature offset calibration	1.0043default loss term (dB/km)	0.3790temperature slope calibration	1.0000multiplexer offset coefficient	1.0000multiplexer slope coefficient	1.0000fibre end	0.00T internal ref (°C)	32.06T ext. ref 1 (°C)	4.59T ext. ref 2 (°C)	27.02length (m)	temperature (°C)	Stokes	anti-Stokes-747.200	800.000	0.021	0.072
-746.185	800.000	-0.097	0.283
-745.171	15.275	0.130	0.103
-744.156	-200.000	-0.011	0.090
-743.142	-90.275	0.075	0.022
-742.127	409.605	-0.070	0.149
-741.112	-150.100	0.178	0.014
-740.098	-157.615	0.094	-0.006
-739.083	-200.000	0.052	0.232
-738.069	73.122	0.126	0.133
-737.054	-200.000	-0.073	-0.361
-736.039	-74.375	-0.184	0.067
-735.025	689.201	0.112	0.295
-734.010	-18.606	-0.136	-0.086
-732.996	-59.404	-0.353	0.153
-731.981	-200.000	-0.027	-0.245
-730.966	136.048	-0.123	0.162
-729.952	-49.880	-0.103	0.050
-728.937	-200.000	-0.017	0.206
-727.923	160.002	-0.196	-0.275
-726.908	800.000	-0.059	0.189
-725.894	-21.673	-0.441	-0.271
-724.879	-61.457	0.080	0.034
-723.864	-58.204	0.291	-0.128
-722.850	676.023	0.075	0.197
-721.835	-38.705	-0.298	0.158
-720.821	800.000	0.140	0.402
-719.806	-200.000	0.015	0.222
-718.791	-63.596	0.164	0.068
-717.777	199.589	-0.084	0.129
-716.762	44.176	-0.042	-0.038
-715.748	-200.000	0.042	-0.243
-714.733	-50.893	-0.159	0.075
-713.718	-200.000	-0.029	0.263
-712.704	-200.000	0.044	-0.200
-711.689	-13.638	-0.219	-0.143
-710.675	-75.291	0.116	-0.042
-709.660	370.098	-0.077	0.156
-708.645	-143.050	-0.295	-0.029
-707.631	-200.000	0.012	0.287
-706.616	105.948	-0.081	-0.096
-705.602	152.574	-0.127	0.174
-704.587	800.000	0.076	-0.276
-703.572	169.932	0.150	-0.216
-702.558	-134.086	-0.213	-0.027
-701.543	-200.000	-0.023	0.143
-700.529	-17.569	0.150	-0.095
-699.514	-118.807	0.207	-0.037
-698.499	569.873	-0.111	-0.271
-697.485	-38.284	-0.267	0.142
-696.470	38.666	-0.084	-0.075
-695.456	-66.052	-0.085	-0.034
-694.441	26.433	-0.197	-0.166
-693.426	-50.769	-0.378	0.179
-692.412	-147.588	0.031	-0.003
-691.397	-200.000	-0.005	-0.252
-690.383	15.548	0.117	0.093
-689.368	143.663	-0.143	0.193
-688.354	118.206	-0.102	0.127
-687.339	648.672	-0.066	0.170
-686.324	800.000	-0.099	-0.289
-685.310	-189.000	0.247	-0.003
-684.295	-124.211	-0.201	-0.032
-683.281	-200.000	-0.087	-0.410
-682.266	578.814	0.085	-0.208
-681.251	775.362	-0.025	-0.068
-680.237	800.000	-0.115	0.325
-679.222	-76.024	-0.259	0.092
-678.208	162.082	0.083	-0.118
-677.193	74.830	0.148	0.156
-676.178	-200.000	0.005	0.202
-675.164	136.039	0.059	-0.078
-674.149	125.239	0.157	0.200
-673.135	800.000	0.057	0.244
-672.120	800.000	0.068	-0.283
-671.105	207.810	-0.154	0.243
-670.091	73.885	-0.037	-0.039
-669.076	505.289	0.052	-0.121
-668.062	97.538	-0.055	-0.064
-667.047	32.523	-0.119	-0.104
-666.032	280.632	0.210	-0.378
-665.018	-200.000	0.031	-0.187
-664.003	-175.594	-0.136	-0.004
-662.989	800.000	0.092	0.283
-661.974	-139.949	0.215	0.023
-660.959	92.047	-0.101	0.115
-659.945	-197.309	-0.093	-0.001
-658.930	-200.000	0.020	0.427
-657.916	147.940	0.099	-0.134
-656.901	-53.986	-0.114	0.052
-655.886	-200.000	-0.005	-0.156
-654.872	-200.000	0.019	-0.090
-653.857	-103.883	0.277	-0.065
-652.843	-200.000	-0.026	0.227
-651.828	-31.787	-0.210	0.118
-650.814	45.153	-0.102	0.095
-649.799	-200.000	0.019	-0.119
-648.784	-46.003	0.316	0.157
-647.770	-130.074	0.198	-0.027
-646.755	68.241	0.033	0.034
-645.741	255.560	0.124	0.213
-644.726	202.613	0.092	0.143
-643.711	-21.250	-0.276	0.170
-642.697	-155.154	-0.533	-0.035
-641.682	-200.000	0.011	0.275
-640.668	9.759	-0.474	0.362
-639.653	-29.893	-0.231	-0.132
-638.638	266.432	0.160	0.280
-637.624	-71.564	-0.248	0.093
-636.609	272.054	0.114	-0.203
-635.595	32.472	-0.249	-0.217
-634.580	-93.838	-0.367	-0.102
-633.565	800.000	0.071	-0.254
-632.551	712.704	-0.036	0.097
-631.536	161.057	-0.177	-0.249
-630.522	-151.061	-0.259	0.020
-629.507	749.681	0.055	0.150
-628.492	317.861	-0.165	0.313
-627.478	-85.599	0.236	0.074
-626.463	-117.152	0.312	-0.057
-625.449	176.776	-0.211	0.309
-624.434	-113.419	-0.410	0.081
-623.419	-163.878	-0.288	0.014
-622.405	-57.302	0.063	0.028
-621.390	-200.000	-0.012	0.222
-620.376	-200.000	-0.006	-0.161
-619.361	12.443	0.197	-0.153
-618.346	-200.000	0.007	0.128
-617.332	-200.000	-0.074	-0.386
-616.317	-98.930	-0.223	0.057
-615.303	-168.773	-0.246	-0.009
-614.288	6.455	-0.116	-0.087
-613.273	800.000	-0.024	0.092
-612.259	-29.423	-0.163	0.094
-611.244	-146.822	0.120	-0.010
-610.230	521.154	0.079	-0.186
-609.215	300.087	0.081	0.150
-608.201	800.000	0.034	-0.112
-607.186	-53.293	-0.283	0.131
-606.171	-10.793	0.079	0.052
-605.157	800.000	-0.008	0.029
-604.142	-24.573	-0.062	-0.037
-603.128	-37.218	-0.104	0.056
-602.113	-134.213	0.342	-0.042
-601.098	800.000	-0.040	-0.137
-600.084	376.478	0.017	0.035
-599.069	237.619	0.226	0.376
-598.055	104.413	0.080	-0.095
-597.040	-88.272	-0.449	0.135
-596.025	-19.781	0.186	0.115
-595.011	-22.061	-0.188	0.115
-593.996	38.863	0.157	-0.141
-592.982	-130.630	-0.303	0.041
-591.967	-200.000	-0.029	-0.291
-590.952	-200.000	-0.044	0.231
-589.938	-200.000	0.004	0.019
-588.923	-69.343	-0.243	0.094
-587.909	-45.538	0.083	0.041
-586.894	-26.164	-0.071	-0.042
-585.879	-200.000	-0.027	-0.179
-584.865	4.237	0.195	-0.143
-583.850	112.210	-0.125	0.152
-582.836	99.040	0.111	-0.129
-581.821	-128.055	-0.379	0.055
-580.806	-55.777	0.425	0.190
-579.792	-161.161	0.287	-0.015
-578.777	-39.421	0.277	-0.146
-577.763	-94.615	-0.329	0.090
-576.748	-11.387	-0.311	-0.205
-575.733	458.763	0.133	-0.297
-574.719	233.603	0.056	0.092
-573.704	306.245	-0.078	-0.146
-572.690	262.042	-0.093	0.162
-571.675	646.109	-0.018	-0.046
-570.661	-200.000	0.005	-0.062
-569.646	625.958	0.134	-0.339
-568.631	-200.000	-0.021	-0.424
-567.617	444.446	0.088	0.194
-566.602	128.007	-0.123	0.157
-565.588	136.622	0.089	-0.117
-564.573	-55.635	-0.085	-0.038
-563.558	9.963	0.311	0.237
-562.544	-166.373	-0.074	0.003
-561.529	-65.866	-0.340	-0.136
-560.515	-22.776	-0.171	0.104
-559.500	302.543	-0.185	0.343
-558.485	-127.958	0.203	-0.029
-557.471	94.351	-0.241	0.275
-556.456	-147.027	-0.268	0.023
-555.442	-126.707	-0.137	0.020
-554.427	-175.619	0.312	-0.008
-553.412	-67.496	0.289	0.113
-552.398	369.042	-0.060	-0.121
-551.383	305.436	-0.121	-0.226
-550.369	-19.107	-0.165	0.103
-549.354	24.017	-0.061	-0.050
-548.339	-137.910	-0.305	0.034
-547.325	-44.103	-0.060	-0.030
-546.310	800.000	-0.051	-0.179
-545.296	406.202	0.089	0.189
-544.281	800.000	0.106	0.375
-543.266	-15.320	-0.220	0.141
-542.252	-150.313	0.038	0.003
-541.237	-51.427	-0.325	-0.152
-540.223	-200.000	-0.033	0.171
-539.208	-200.000	-0.057	0.358
-538.193	-78.871	-0.126	-0.043
-537.179	16.400	-0.383	-0.303
-536.164	-99.960	0.185	-0.046
-535.150	213.539	-0.004	0.007
-534.135	-200.000	0.034	-0.232
-533.121	645.844	0.105	-0.268
-532.106	-75.163	0.147	-0.053
-531.091	736.682	0.211	0.567
-530.077	72.853	0.225	-0.235
-529.062	-99.926	0.152	0.038
-528.048	-37.151	-0.320	-0.171
-527.033	-20.065	0.248	-0.153
-526.018	21.167	-0.324	-0.264
-525.004	-107.729	-0.243	-0.053
-523.989	348.956	0.138	-0.273
-522.975	100.425	0.124	-0.144
-521.960	8.748	0.174	0.131
-520.945	-200.000	0.025	-0.140
-519.931	-118.376	0.178	0.032
-518.916	51.417	-0.065	-0.062
-517.902	-31.824	0.158	-0.089
-516.887	-56.512	-0.098	-0.044
-515.872	-12.023	-0.275	0.180
-514.858	-18.747	-0.317	0.198
-513.843	800.000	0.044	-0.172
-512.829	800.000	-0.080	-0.315
-511.814	132.951	0.084	0.109
-510.799	800.000	0.070	0.219
-509.785	-29.856	-0.016	-0.009
-508.770	147.852	0.063	-0.084
-507.756	585.370	-0.028	0.070
-506.741	222.850	-0.058	0.093
-505.726	800.000	0.058	0.247
-504.712	350.897	0.090	-0.178
-503.697	18.421	0.280	0.224
-502.683	-73.987	0.125	-0.045
-501.668	-189.887	0.367	0.004
-500.653	800.000	0.087	-0.240
-499.639	-200.000	-0.000	-0.216
-498.624	120.337	-0.075	0.094
-497.610	-143.225	0.319	-0.031
-496.595	-130.434	-0.346	0.047
-495.581	-125.274	0.261	-0.040
-494.566	-122.318	-0.035	-0.006
-493.551	-59.374	-0.233	0.100
-492.537	41.783	-0.177	0.161
-491.522	377.580	0.103	-0.210
-490.508	-18.656	-0.140	-0.088
-489.493	-131.462	-0.138	-0.018
-488.478	800.000	-0.120	0.400
-487.464	26.980	-0.086	-0.072
-486.449	-200.000	0.034	0.284
-485.435	75.653	-0.061	0.065
-484.420	-200.000	-0.047	0.291
-483.405	-200.000	-0.013	-0.189
-482.391	-23.035	-0.142	0.086
-481.376	800.000	-0.162	0.540
-480.362	89.876	-0.115	0.128
-479.347	393.322	-0.101	0.210
-478.332	-200.000	-0.012	-0.058
-477.318	508.973	-0.039	0.091
-476.303	-200.000	0.026	0.129
-475.289	431.902	0.071	-0.153
-474.274	-200.000	0.004	-0.077
-473.259	800.000	0.068	-0.208
-472.245	-102.597	0.122	0.029
-471.230	-138.802	0.390	-0.042
-470.216	109.111	-0.257	-0.308
-469.201	451.960	-0.077	0.171
-468.186	-200.000	0.041	-0.217
-467.172	-158.849	-0.357	0.020
-466.157	632.052	-0.116	-0.294
-465.143	62.100	0.074	-0.074
-464.128	-200.000	0.042	-0.309
-463.113	-188.630	-0.241	0.003
-462.099	-36.871	0.461	0.247
-461.084	-136.221	-0.109	0.013
-460.070	-200.000	0.005	0.207
-459.055	87.364	0.207	-0.229
-458.040	326.859	-0.115	0.219
-457.026	-30.892	0.110	-0.062
-456.011	2.262	-0.420	0.303
-454.997	-200.000	-0.011	0.548
-453.982	-200.000	-0.027	-0.194
-452.968	-119.190	-0.278	-0.049
-451.953	41.666	0.271	0.245
-450.938	256.083	0.124	-0.213
-449.924	49.020	-0.120	-0.112
-448.909	93.580	-0.176	-0.198
-447.895	800.000	0.053	0.168
-446.880	62.764	0.081	-0.081
-445.865	-200.000	-0.031	0.175
-444.851	388.032	-0.056	-0.115
-443.836	40.139	0.210	-0.188
-442.822	-12.901	-0.144	-0.093
-441.807	-33.380	0.325	0.180
-440.792	-59.460	-0.443	-0.190
-439.778	340.873	0.171	-0.334
-438.763	-26.956	0.208	-0.121
-437.749	316.410	-0.079	-0.148
-436.734	-50.347	0.023	0.011
-435.719	269.813	0.140	0.245
-434.705	32.319	0.320	0.276
-433.690	800.000	-0.008	-0.029
-432.676	-138.557	-0.140	0.015
-431.661	153.669	0.051	-0.070
-430.646	102.371	0.055	-0.065
-429.632	-86.710	-0.155	-0.047
-428.617	97.151	0.011	-0.013
-427.603	-200.000	-0.008	0.050
-426.588	-200.000	-0.371	-0.001
-425.573	-200.000	-0.038	0.313
-424.559	29.398	-0.161	-0.137
-423.544	45.708	0.151	0.140
-422.530	-142.349	0.207	-0.020
-421.515	-92.732	-0.042	0.012
-420.500	108.070	0.103	-0.123
-419.486	-47.776	-0.178	-0.086
-418.471	-150.540	0.389	0.030
-417.457	40.146	0.187	0.168
-416.442	-200.000	0.043	0.214
-415.428	-200.000	0.025	0.151
-414.413	-142.103	0.148	0.015
-413.398	-137.147	0.334	-0.038
-412.384	-20.787	0.074	0.045
-411.369	-200.000	0.011	-0.090
-410.355	689.701	0.078	-0.202
-409.340	237.867	-0.175	0.290
-408.325	24.117	-0.043	0.035
-407.311	-200.000	-0.020	-0.442
-406.296	-61.306	0.424	-0.178
-405.282	800.000	0.028	-0.080
-404.267	-200.000	-0.001	-0.229
-403.252	-106.234	0.331	-0.074
-402.238	800.000	-0.025	0.088
-401.223	7.877	-0.045	-0.034
-400.209	562.545	0.051	0.124
-399.194	-154.923	0.332	0.022
-398.179	90.667	0.078	0.087
-397.165	-35.611	0.163	0.088
-396.150	49.381	-0.237	-0.222
-395.136	-37.710	-0.154	0.081
-394.121	-200.000	-0.045	-0.293
-393.106	-200.000	-0.048	-0.308
-392.092	-61.518	0.126	-0.053
-391.077	294.754	0.063	0.115
-390.063	175.106	0.130	-0.187
-389.048	37.088	0.060	-0.053
-388.033	-39.124	-0.146	-0.076
-387.019	395.534	0.083	-0.173
-386.004	-22.596	0.135	0.081
-384.990	-200.000	-0.019	-0.301
-383.975	-61.537	-0.117	0.049
-382.960	201.135	-0.106	0.163
-381.946	800.000	0.064	0.263
-380.931	624.523	0.033	-0.083
-379.917	-92.111	0.420	-0.118
-378.902	16.362	-0.156	0.122
-377.888	90.859	0.131	0.146
-376.873	-167.858	0.166	0.006
-375.858	-25.217	-0.240	-0.142
-374.844	-50.959	0.078	0.036
-373.829	-125.126	-0.399	-0.061
-372.815	8.114	0.273	0.204
-371.800	-97.504	-0.204	-0.053
-370.785	-170.822	0.335	-0.011
-369.771	-200.000	-0.020	-0.144
-368.756	2.207	0.145	0.104
-367.742	141.411	0.117	-0.155
-366.727	-21.529	-0.104	-0.063
-365.712	-24.075	0.123	0.073
-364.698	-113.104	-0.331	0.065
-363.683	17.077	0.272	0.214
-362.669	-200.000	-0.006	-0.153
-361.654	800.000	-0.165	0.493
-360.639	201.124	-0.040	-0.061
-359.625	145.041	-0.154	0.204
-358.610	800.000	-0.019	-0.074
-357.596	658.096	-0.091	-0.232
-356.581	-57.687	0.141	-0.061
-355.566	-89.133	0.275	0.081
-354.552	8.951	0.283	0.212
-353.537	-93.635	-0.146	-0.040
-352.523	-200.000	0.012	0.222
-351.508	-200.000	-0.011	0.315
-350.493	40.569	-0.283	-0.253
-349.479	-200.000	0.012	-0.188
-348.464	800.000	-0.079	-0.265
-347.450	-37.599	-0.172	-0.091
-346.435	34.408	0.167	0.145
-345.420	-177.164	-0.228	0.006
-344.406	-76.473	0.202	0.071
-343.391	-101.463	0.286	-0.069
-342.377	-167.848	-0.353	-0.014
-341.362	-96.857	0.146	0.038
-340.348	-88.882	-0.181	0.053
-339.333	82.986	-0.128	-0.139
-338.318	-11.183	-0.036	0.023
-337.304	-200.000	0.010	-0.357
-336.289	-165.714	0.234	0.010
-335.275	48.131	-0.236	-0.220
-334.260	-200.000	-0.053	0.318
-333.245	-30.010	0.233	0.132
-332.231	-156.658	0.101	0.006
-331.216	-200.000	-0.048	-0.216
-330.202	-69.894	0.026	-0.010
-329.187	-200.000	-0.008	-0.055
-328.172	54.045	0.116	0.111
-327.158	-200.000	-0.001	0.103
-326.143	161.412	-0.092	0.128
-325.129	-200.000	0.027	-0.165
-324.114	-200.000	-0.007	0.074
-323.099	-200.000	-0.046	0.200
-322.085	-109.306	-0.308	0.065
-321.070	30.829	-0.175	0.149
-320.056	81.535	0.187	-0.201
-319.041	169.546	0.034	-0.048
-318.026	800.000	0.092	-0.307
-317.012	-1.345	-0.120	-0.084
-315.997	-33.862	-0.213	-0.116
-314.983	800.000	-0.109	0.374
-313.968	206.643	-0.109	0.168
-312.953	31.833	0.213	-0.182
-311.939	365.208	0.047	0.094
-310.924	-82.534	0.070	-0.023
-309.910	-25.574	0.241	-0.141
-308.895	188.964	0.075	0.111
-307.880	162.267	0.172	-0.239
-306.866	57.751	0.066	0.064
-305.851	-200.000	0.017	0.210
-304.837	525.756	-0.019	-0.045
-303.822	-200.000	0.007	-0.244
-302.807	-93.007	-0.239	-0.066
-301.793	800.000	0.055	-0.206
-300.778	35.116	-0.116	-0.101
-299.764	41.969	0.133	0.119
-298.749	-200.000	-0.038	-0.189
-297.735	55.958	-0.222	0.213
-296.720	800.000	-0.036	-0.151
-295.705	648.386	0.123	-0.312
-294.691	535.239	0.066	-0.155
-293.676	-95.292	0.222	-0.059
-292.662	-7.768	0.090	0.060
-291.647	49.244	0.191	-0.178
-290.632	143.258	0.111	-0.146
-289.618	100.572	-0.246	-0.284
-288.603	-17.659	0.298	0.186
-287.589	54.908	-0.097	-0.093
-286.574	800.000	0.108	0.373
-285.559	515.039	-0.106	0.245
-284.545	764.935	-0.074	0.198
-283.530	595.742	0.158	0.388
-282.516	-123.671	0.189	0.030
-281.501	280.058	0.114	-0.202
-280.486	26.996	0.154	0.128
-279.472	-200.000	0.005	-0.175
-278.457	263.817	0.107	0.184
-277.443	-44.066	-0.115	0.057
-276.428	-22.465	-0.291	-0.174
-275.413	-200.000	-0.036	-0.173
-274.399	-200.000	-0.045	-0.409
-273.384	353.934	-0.121	-0.237
-272.370	81.807	-0.089	0.096
-271.355	-77.414	0.400	0.138
-270.340	148.310	0.109	-0.146
-269.326	-65.217	0.174	-0.070
-268.311	70.401	0.177	-0.182
-267.297	357.584	0.115	-0.228
-266.282	800.000	-0.050	0.180
-265.267	-28.322	-0.128	-0.073
-264.253	-85.118	-0.294	-0.091
-263.238	-200.000	0.010	-0.112
-262.224	50.154	-0.106	-0.099
-261.209	800.000	0.032	0.116
-260.195	-200.000	-0.069	-0.361
-259.180	-23.077	-0.089	-0.053
-258.165	133.109	-0.064	-0.082
-257.151	-78.383	0.537	-0.182
-256.136	-36.183	0.188	-0.101
-255.122	-200.000	0.031	0.240
-254.107	-63.518	0.095	-0.039
-253.092	800.000	-0.007	0.028
-252.078	-0.809	-0.169	0.118
-251.063	9.472	0.212	0.159
-250.049	147.422	-0.074	-0.098
-249.034	-92.694	0.238	0.066
-248.019	-152.972	-0.166	0.012
-247.005	-200.000	-0.020	-0.239
-245.990	78.849	0.210	0.222
-244.976	621.662	0.040	0.100
-243.961	-200.000	0.151	0.665
-242.946	152.871	-0.264	0.357
-241.932	-52.133	0.203	-0.093
-240.917	83.206	-0.183	0.197
-239.903	-200.000	0.056	-0.370
-238.888	792.724	0.066	-0.181
-237.873	-172.384	0.165	0.005
-236.859	-200.000	0.014	0.185
-235.844	213.284	0.017	-0.027
-234.830	-37.280	0.113	-0.060
-233.815	189.204	0.043	0.063
-232.800	800.000	-0.064	-0.211
-231.786	115.087	-0.070	0.085
-230.771	20.599	0.146	0.117
-229.757	-74.822	0.140	-0.050
-228.742	-62.113	-0.182	-0.075
-227.727	-59.359	-0.169	-0.072
-226.713	-167.664	-0.205	-0.008
-225.698	258.063	0.039	0.066
-224.684	800.000	0.063	-0.230
-223.669	72.942	0.240	0.248
-222.655	-200.000	0.022	0.117
-221.640	16.292	-0.088	-0.069
-220.625	800.000	0.031	-0.112
-219.611	-108.452	0.347	-0.074
-218.596	542.692	0.193	-0.455
-217.582	186.090	0.115	-0.169
-216.567	142.592	-0.108	-0.142
-215.552	-200.000	-0.002	0.152
-214.538	800.000	0.042	0.116
-213.523	800.000	0.075	0.303
-212.509	-200.000	0.038	0.200
-211.494	800.000	-0.059	0.188
-210.479	-200.000	-0.003	-0.045
-209.465	-200.000	-0.013	0.199
-208.450	-200.000	0.012	-0.174
-207.436	-200.000	0.055	0.345
-206.421	-10.973	-0.114	0.074
-205.406	318.498	0.079	-0.148
-204.392	-124.588	0.286	-0.044
-203.377	-108.245	-0.291	-0.062
-202.363	199.328	-0.171	0.259
-201.348	-45.182	0.319	0.156
-200.333	547.466	-0.084	0.200
-199.319	-25.684	-0.277	0.162
-198.304	87.473	0.113	-0.123
-197.290	800.000	-0.052	-0.177
-196.275	-159.684	-0.165	0.009
-195.260	-18.819	-0.097	0.060
-194.246	134.922	-0.245	-0.315
-193.231	-48.756	-0.271	-0.128
-192.217	-75.754	0.333	0.117
-191.202	-83.257	0.281	0.089
-190.187	70.064	0.059	0.060
-189.173	418.823	0.064	0.136
-188.158	-52.259	-0.280	0.128
-187.144	-61.910	-0.185	0.077
-186.129	-90.866	0.150	-0.043
-185.114	-66.135	0.205	0.081
-184.100	178.290	0.050	0.073
-183.085	800.000	0.048	0.185
-182.071	-145.903	-0.197	-0.017
-181.056	-150.976	0.105	-0.008
-180.042	-59.482	-0.183	-0.077
-179.027	146.533	0.122	0.162
-178.012	440.627	-0.046	0.099
-176.998	-45.322	-0.268	-0.131
-175.983	800.000	0.104	-0.401
-174.969	-200.000	-0.032	0.295
-173.954	-60.112	0.257	0.108
-172.939	132.783	-0.122	0.156
-171.925	134.548	0.081	-0.104
-170.910	37.062	0.113	-0.098
-169.896	800.000	-0.012	-0.052
-168.881	-200.000	-0.007	-0.273
-167.866	-138.214	0.212	-0.023
-166.852	-63.461	0.103	-0.042
-165.837	-102.881	-0.152	-0.036
-164.823	-173.097	0.284	0.009
-163.808	-186.502	-0.160	-0.002
-162.793	-200.000	-0.040	0.202
-161.779	-26.758	-0.274	0.158
-160.764	800.000	0.067	-0.272
-159.750	-200.000	-0.011	-0.113
-158.735	377.197	0.037	0.074
-157.720	-135.211	-0.077	0.009
-156.706	333.855	-0.146	-0.279
-155.691	-134.901	-0.236	0.028
-154.677	-5.047	0.059	-0.040
-153.662	-127.595	0.168	0.024
-152.647	29.740	-0.099	0.083
-151.633	147.550	0.116	0.155
-150.618	-81.577	0.356	-0.115
-149.604	280.605	-0.055	0.097
-148.589	-200.000	0.018	-0.102
-147.574	-200.000	0.009	-0.056
-146.560	474.912	0.175	0.390
-145.545	-43.689	-0.167	-0.083
-144.531	-200.000	0.180	-0.000
-143.516	102.391	-0.123	0.142
-142.502	-114.702	0.094	-0.018
-141.487	800.000	0.049	-0.145
-140.472	-200.000	-0.017	0.077
-139.458	-200.000	0.010	-0.085
-138.443	-1.091	-0.067	0.046
-137.429	-101.027	0.461	-0.112
-136.414	-4.108	0.139	0.095
-135.399	116.068	0.124	-0.150
-134.385	-143.242	-0.290	0.027
-133.370	800.000	-0.063	0.257
-132.356	-63.082	-0.306	0.124
-131.341	677.908	0.064	0.164
-130.326	419.431	0.139	-0.294
-129.312	-5.273	0.173	0.117
-128.297	681.849	-0.117	-0.302
-127.283	-36.056	-0.102	0.054
-126.268	-66.979	-0.271	-0.105
-125.253	-67.684	0.124	-0.048
-124.239	4.183	0.310	0.224
-123.224	-200.000	-0.008	0.291
-122.210	-200.000	0.024	0.292
-121.195	-149.388	0.051	-0.004
-120.180	-200.000	0.000	-0.081
-119.166	-120.839	-0.162	0.027
-118.151	-117.743	0.186	0.033
-117.137	84.414	0.054	-0.058
-116.122	-174.519	0.253	0.007
-115.107	-89.289	-0.347	-0.101
-114.093	425.722	0.078	0.165
-113.078	-91.104	0.452	0.128
-112.064	299.440	-0.241	0.437
-111.049	434.645	0.208	0.444
-110.034	800.000	0.101	-0.330
-109.020	356.642	0.059	-0.116
-108.005	-63.715	-0.173	0.070
-106.991	-200.000	-0.023	-0.213
-105.976	-200.000	-0.033	-0.212
-104.962	228.005	0.193	-0.310
-103.947	-2.707	-0.265	-0.182
-102.932	133.561	0.074	0.094
-101.918	107.982	0.169	-0.199
-100.903	-87.558	0.102	-0.030
-99.889	-124.202	-0.336	0.052
-98.874	46.485	-0.184	-0.168
-97.859	-164.809	-0.124	0.005
-96.845	176.738	0.142	-0.204
-95.830	149.053	-0.232	-0.309
-94.816	-146.909	0.226	-0.019
-93.801	45.600	-0.106	-0.096
-92.786	124.221	0.153	-0.189
-91.772	326.518	0.239	0.450
-90.757	244.064	0.067	0.110
-89.743	302.716	-0.241	-0.439
-88.728	501.226	0.199	0.451
-87.713	75.612	-0.072	0.075
-86.699	69.559	-0.254	0.257
-85.684	-104.176	-0.125	-0.029
-84.670	37.837	0.172	0.151
-83.655	-143.962	-0.149	0.014
-82.640	-200.000	0.026	-0.175
-81.626	-159.619	-0.199	0.011
-80.611	54.887	0.195	0.185
-79.597	-112.564	0.487	0.096
-78.582	601.443	-0.125	0.306
-77.567	-26.220	-0.112	-0.065
-76.553	459.931	0.139	-0.304
-75.538	308.724	-0.018	0.033
-74.524	238.949	-0.124	0.203
-73.509	102.873	0.108	0.124
-72.494	-3.883	0.064	0.044
-71.480	800.000	0.010	-0.037
-70.465	-200.000	-0.035	0.339
-69.451	800.000	-0.033	-0.114
-68.436	-200.000	0.023	0.101
-67.422	800.000	-0.024	-0.086
-66.407	800.000	0.023	0.075
-65.392	68.628	0.104	0.105
-64.378	-38.772	0.131	0.068
-63.363	33.700	-0.164	-0.141
-62.349	728.802	0.054	0.143
-61.334	70.482	-0.882	-0.897
-60.319	88.168	0.495	0.540
-59.305	727.755	-0.390	-1.024
-58.290	669.608	0.622	1.583
-57.276	608.671	0.637	1.563
-56.261	-200.000	95.717	594.495
-55.246	661.853	1368.064	3464.829
-54.232	199.107	2551.423	3841.459
-53.217	113.457	2268.104	2705.593
-52.203	41.590	1896.444	1687.491
-51.188	35.375	1686.306	1453.541
-50.173	32.613	1642.398	1395.220
-49.159	50.458	1688.992	1569.064
-48.144	52.119	1705.014	1596.336
-47.130	35.048	1666.046	1433.404
-46.115	32.200	1652.012	1400.084
-45.100	32.011	1647.174	1394.526
-44.086	31.958	1644.018	1391.404
-43.071	31.983	1641.557	1389.456
-42.057	31.887	1639.699	1387.118
-41.042	31.995	1637.136	1385.686
-40.027	32.026	1635.533	1384.506
-39.013	31.862	1633.668	1381.666
-37.998	31.891	1632.183	1380.565
-36.984	32.009	1630.738	1380.158
-35.969	31.966	1629.456	1378.703
-34.954	32.196	1627.404	1378.597
-33.940	32.018	1625.908	1375.973
-32.925	32.003	1624.342	1374.481
-31.911	32.087	1622.151	1373.188
-30.896	32.089	1620.527	1371.774
-29.881	32.010	1619.070	1369.907
-28.867	31.997	1617.654	1368.560
-27.852	32.003	1615.757	1366.944
-26.838	32.096	1614.059	1366.130
-25.823	32.095	1613.009	1365.179
-24.809	32.064	1611.756	1363.845
-23.794	31.982	1610.267	1361.931
-22.779	32.029	1608.628	1360.834
-21.765	32.058	1607.179	1359.764
-20.750	32.069	1605.877	1358.688
-19.736	32.122	1604.127	1357.536
-18.721	32.078	1602.737	1355.992
-17.706	32.181	1601.013	1355.215
-16.692	32.085	1599.580	1353.264
-15.677	32.093	1598.512	1352.363
-14.663	32.166	1597.010	1351.560
-13.648	32.192	1595.258	1350.211
-12.633	32.124	1593.822	1348.456
-11.619	32.144	1592.087	1347.080
-10.604	32.023	1591.346	1345.527
-9.590	32.107	1589.472	1344.494
-8.575	32.198	1588.267	1344.068
-7.560	32.075	1587.572	1342.547
-6.546	32.181	1586.070	1341.984
-5.531	32.075	1584.792	1340.093
-4.517	32.016	1583.900	1338.867
-3.502	32.100	1582.704	1338.395
-2.487	32.201	1580.554	1337.250
-1.473	31.821	1569.470	1325.132
-0.458	29.015	1550.110	1289.104
0.556	25.055	1550.655	1258.198
1.571	22.781	1573.906	1260.728
2.586	22.240	1586.628	1266.909
3.600	19.676	1533.234	1206.293
4.615	11.965	1425.621	1071.286
5.629	5.579	1363.460	984.438
6.644	4.704	1356.046	973.528
7.659	4.617	1354.235	971.593
8.673	4.482	1353.528	970.159
9.688	4.547	1351.862	969.287
10.702	4.506	1348.912	966.827
11.717	7.253	1354.688	988.029
12.731	14.679	1367.723	1044.049
13.746	19.261	1374.449	1077.815
14.761	19.014	1373.072	1075.093
15.775	17.862	1370.562	1065.847
16.790	16.903	1367.610	1057.476
17.804	16.055	1365.420	1050.409
18.819	15.761	1363.531	1047.033
19.834	15.447	1362.232	1043.988
20.848	15.187	1361.693	1041.865
21.863	15.089	1360.441	1040.205
22.877	14.874	1359.173	1037.813
23.892	14.849	1358.387	1036.966
24.907	14.831	1357.522	1036.100
25.921	14.927	1356.667	1035.954
26.936	14.850	1356.046	1034.907
27.950	14.902	1354.863	1034.239
28.965	14.998	1353.679	1033.837
29.980	15.072	1352.874	1033.587
30.994	15.133	1351.789	1033.041
32.009	15.219	1350.413	1032.427
33.023	15.171	1349.444	1031.302
34.038	15.089	1347.810	1029.458
35.053	15.010	1346.561	1027.925
36.067	15.007	1345.604	1027.084
37.082	15.119	1344.591	1026.908
38.096	15.099	1343.722	1026.033
39.111	15.047	1342.798	1024.918
40.126	15.054	1341.903	1024.187
41.140	14.835	1341.404	1022.377
42.155	14.801	1340.774	1021.594
43.169	14.758	1340.545	1021.070
44.184	14.765	1340.347	1020.869
45.199	14.818	1339.381	1020.365
46.213	14.930	1339.111	1020.755
47.228	14.952	1338.173	1020.087
48.242	14.974	1337.261	1019.434
49.257	14.929	1335.719	1017.894
50.271	14.981	1334.217	1016.978
51.286	15.093	1332.428	1016.198
52.301	14.901	1331.936	1014.572
53.315	14.902	1330.412	1013.327
54.330	14.945	1328.873	1012.327
55.344	14.927	1328.048	1011.498
56.359	14.858	1326.787	1010.028
57.374	14.795	1326.260	1009.162
58.388	14.771	1325.516	1008.359
59.403	14.759	1324.942	1007.759
60.417	14.661	1324.363	1006.640
61.432	14.714	1323.256	1006.031
62.447	14.666	1322.407	1005.005
63.461	14.612	1321.256	1003.720
64.476	14.610	1319.930	1002.611
65.490	14.638	1318.685	1001.742
66.505	14.652	1317.473	1000.819
67.520	14.686	1316.344	1000.073
68.534	14.646	1315.094	998.795
69.549	14.734	1313.908	998.336
70.563	14.720	1312.996	997.467
71.578	14.615	1311.752	995.813
72.593	14.540	1311.281	994.915
73.607	14.417	1310.455	993.466
74.622	14.458	1309.698	993.052
75.636	14.502	1308.733	992.492
76.651	14.555	1308.081	992.226
77.666	14.603	1307.471	991.964
78.680	14.617	1307.219	991.764
79.695	14.652	1306.052	990.999
80.709	14.763	1305.407	991.084
81.724	14.776	1304.688	990.525
82.739	14.729	1303.939	989.590
83.753	14.869	1303.136	989.721
84.768	14.992	1301.711	989.278
85.782	15.055	1301.155	989.143
86.797	15.030	1299.848	987.912
87.812	14.864	1298.850	986.087
88.826	14.964	1297.391	985.483
89.841	14.965	1296.274	984.553
90.855	14.923	1295.805	983.865
91.870	14.995	1294.759	983.405
92.884	15.012	1293.802	982.690
93.899	14.990	1293.415	982.179
94.914	15.118	1292.230	981.945
95.928	15.093	1291.634	981.260
96.943	15.056	1290.549	980.128
97.957	15.016	1289.623	979.107
98.972	15.068	1288.541	978.504
99.987	14.960	1287.872	977.276
101.001	15.025	1287.030	976.929
102.016	15.021	1285.634	975.764
103.030	15.028	1284.665	974.982
104.045	15.110	1283.650	974.598
105.060	14.946	1282.574	972.742
106.074	14.930	1280.389	970.906
107.089	14.736	1279.842	969.280
108.103	14.718	1278.652	968.193
109.118	14.661	1277.036	966.553
110.133	14.672	1276.150	965.861
111.147	14.753	1274.283	964.826
112.162	14.780	1273.400	964.230
113.176	14.749	1272.654	963.401
114.191	14.917	1271.161	963.152
115.206	14.805	1270.595	961.992
116.220	14.755	1269.090	960.482
117.235	14.789	1267.672	959.519
118.249	14.760	1267.153	958.877
119.264	14.746	1265.637	957.563
120.279	14.698	1264.742	956.524
121.293	14.754	1263.867	956.103
122.308	14.692	1262.439	954.581
123.322	14.716	1261.504	953.929
124.337	14.636	1260.614	952.712
125.352	14.626	1259.317	951.589
126.366	14.584	1258.503	950.650
127.381	14.664	1257.586	950.333
128.395	14.660	1256.259	949.223
129.410	14.776	1255.306	949.077
130.424	14.797	1254.470	948.481
131.439	14.782	1253.826	947.826
132.454	14.862	1252.432	947.142
133.468	14.788	1251.880	946.221
134.483	14.926	1251.384	946.541
135.497	14.854	1250.403	945.310
136.512	14.870	1248.906	944.184
137.527	14.895	1247.330	943.049
138.541	14.863	1246.154	941.900
139.556	14.847	1245.434	941.177
140.570	15.026	1244.010	941.024
141.585	15.005	1243.056	940.104
142.600	15.043	1241.681	939.191
143.614	15.060	1240.417	938.253
144.629	15.206	1239.484	938.279
145.643	15.083	1238.425	936.704
146.658	15.106	1236.998	935.670
147.673	15.007	1236.008	934.289
148.687	14.915	1234.802	932.783
149.702	14.837	1233.443	931.237
150.716	14.888	1231.831	930.224
151.731	14.878	1230.749	929.266
152.746	14.898	1229.820	928.595
153.760	14.981	1228.581	928.039
154.775	15.091	1227.620	927.838
155.789	15.085	1226.805	927.105
156.804	14.946	1226.056	925.692
157.819	15.019	1225.299	925.440
158.833	15.194	1224.173	925.476
159.848	15.336	1223.188	925.434
160.862	15.303	1222.239	924.452
161.877	15.151	1220.933	922.544
162.892	15.078	1219.624	921.069
163.906	14.981	1219.325	920.233
164.921	15.047	1218.300	919.736
165.935	15.035	1217.451	918.947
166.950	15.091	1216.558	918.502
167.964	15.095	1216.100	918.095
168.979	15.148	1215.089	917.542
169.994	15.150	1214.452	916.992
171.008	15.046	1213.814	915.861
172.023	15.257	1212.601	916.018
173.037	15.198	1212.410	915.467
174.052	15.245	1210.916	914.515
175.067	15.043	1210.063	912.691
176.081	15.108	1209.408	912.465
177.096	15.139	1207.903	911.423
178.110	15.195	1207.022	910.981
179.125	15.127	1206.002	909.761
180.140	15.170	1204.639	908.885
181.154	15.291	1203.237	908.402
182.169	15.240	1202.365	907.390
183.183	15.248	1201.253	906.510
184.198	15.439	1199.679	906.274
185.213	15.340	1199.134	905.247
186.227	15.349	1198.129	904.460
187.242	15.390	1197.054	903.785
188.256	15.472	1196.130	903.452
189.271	15.523	1194.742	902.599
190.286	15.309	1193.738	900.610
191.300	15.145	1192.854	898.982
192.315	15.161	1192.296	898.571
193.329	15.072	1191.617	897.498
194.344	15.120	1191.191	897.358
195.359	15.279	1190.753	897.799
196.373	15.335	1190.368	897.731
197.388	15.496	1189.531	897.879
198.402	15.434	1189.582	897.505
199.417	15.603	1188.830	897.761
200.432	15.591	1187.779	896.828
201.446	15.745	1186.787	896.820
202.461	15.798	1185.831	896.302
203.475	15.697	1185.194	895.203
204.490	15.641	1183.752	893.737
205.504	15.549	1182.428	892.170
206.519	15.631	1181.417	891.762
207.534	15.461	1180.613	890.175
208.548	15.507	1179.275	889.331
209.563	15.511	1178.809	888.920
210.577	15.680	1177.592	888.819
211.592	15.597	1177.048	887.890
212.607	15.732	1176.243	887.919
213.621	15.823	1175.267	887.582
214.636	15.637	1174.422	885.883
215.650	15.711	1173.421	885.441
216.665	15.781	1172.687	885.177
217.680	15.877	1171.504	884.709
218.694	15.845	1170.688	883.847
219.709	15.827	1170.255	883.348
220.723	15.943	1169.337	883.187
221.738	15.794	1168.752	881.886
222.753	15.876	1167.901	881.592
223.767	15.943	1166.889	881.101
224.782	15.973	1166.651	881.001
225.796	16.006	1165.720	880.392
226.811	16.101	1164.947	880.227
227.826	15.903	1164.532	878.801
228.840	15.926	1163.578	878.123
229.855	15.937	1163.082	877.728
230.869	15.906	1162.268	876.878
231.884	15.913	1161.041	875.909
232.899	15.908	1160.101	875.095
233.913	15.761	1159.929	874.126
234.928	15.871	1158.959	873.892
235.942	15.846	1158.267	873.163
236.957	15.803	1157.479	872.267
237.972	15.825	1156.375	871.470
238.986	15.833	1155.936	871.103
240.001	15.817	1155.167	870.364
241.015	15.812	1154.579	869.818
242.030	15.899	1153.685	869.516
243.045	16.003	1153.411	869.770
244.059	15.993	1152.351	868.842
245.074	16.011	1151.471	868.194
246.088	16.022	1151.129	867.919
247.103	16.164	1149.702	867.497
248.117	16.116	1149.377	866.926
249.132	16.166	1148.887	866.735
250.147	16.371	1148.298	867.268
251.161	16.348	1147.458	866.441
252.176	16.398	1147.033	866.299
253.190	16.401	1146.410	865.765
254.205	16.691	1145.209	866.264
255.220	16.561	1145.097	865.443
256.234	16.574	1144.341	864.856
257.249	16.550	1143.791	864.245
258.263	16.559	1142.756	863.433
259.278	16.613	1142.082	863.123
260.293	16.541	1141.724	862.409
261.307	16.813	1140.864	863.069
262.322	16.710	1140.655	862.306
263.336	16.701	1139.709	861.473
264.351	16.671	1139.391	861.002
265.366	16.632	1138.813	860.289
266.380	16.738	1137.669	859.889
267.395	16.793	1136.432	859.157
268.409	16.617	1136.121	857.954
269.424	16.603	1135.770	857.542
270.439	16.690	1135.105	857.402
271.453	16.549	1134.707	856.314
272.468	16.613	1133.561	855.697
273.482	16.643	1132.380	854.879
274.497	16.710	1131.737	854.657
275.512	16.643	1131.442	854.024
276.526	16.607	1131.048	853.467
277.541	16.579	1130.103	852.538
278.555	16.717	1129.268	852.525
279.570	16.872	1128.294	852.495
280.585	16.865	1127.591	851.851
281.599	16.894	1126.688	851.243
282.614	16.802	1126.029	850.205
283.628	16.795	1124.671	849.072
284.643	16.788	1123.839	848.335
285.657	16.803	1123.294	847.923
286.672	16.806	1121.855	846.777
287.687	16.842	1121.190	846.380
288.701	16.868	1120.628	846.011
289.716	16.860	1119.588	845.111
290.730	16.847	1119.066	844.574
291.745	17.073	1117.867	844.718
292.760	16.900	1118.049	843.921
293.774	16.941	1117.451	843.601
294.789	17.061	1116.663	843.526
295.803	17.129	1115.991	843.284
296.818	17.042	1115.192	842.173
297.833	17.042	1114.330	841.448
298.847	16.985	1113.849	840.726
299.862	16.905	1112.827	839.486
300.876	17.089	1112.388	839.988
301.891	17.041	1111.977	839.366
302.906	17.089	1111.056	838.834
303.920	17.143	1110.878	838.894
304.935	17.185	1109.939	838.320
305.949	17.328	1109.411	838.551
306.964	17.257	1108.600	837.513
307.979	17.261	1108.103	837.083
308.993	17.241	1107.025	836.098
310.008	17.305	1106.140	835.667
311.022	17.278	1105.449	834.942
312.037	17.307	1104.485	834.278
313.052	17.234	1103.574	833.159
314.066	17.194	1103.280	832.667
315.081	17.108	1101.823	831.072
316.095	17.171	1101.095	830.758
317.110	17.107	1101.000	830.299
318.125	17.270	1099.862	830.165
319.139	17.285	1099.159	829.636
320.154	17.135	1098.597	828.408
321.168	17.156	1097.786	827.821
322.183	17.180	1097.217	827.439
323.197	17.157	1096.816	826.951
324.212	17.255	1096.083	826.801
325.227	17.211	1095.693	826.220
326.241	17.224	1095.193	825.833
327.256	17.288	1094.121	825.261
328.270	17.268	1092.968	824.224
329.285	17.209	1092.399	823.434
330.300	17.206	1091.276	822.500
331.314	17.158	1090.645	821.720
332.329	17.292	1089.683	821.571
333.343	17.330	1088.700	820.940
334.358	17.362	1087.875	820.398
335.373	17.370	1087.300	819.931
336.387	17.492	1086.754	820.038
337.402	17.458	1085.740	819.035
338.416	17.572	1084.916	818.889
339.431	17.638	1084.399	818.744
340.446	17.467	1084.286	817.766
341.460	17.650	1083.395	817.897
342.475	17.745	1082.668	817.731
343.489	17.741	1081.615	816.846
344.504	17.817	1080.935	816.623
345.519	17.842	1079.817	815.823
346.533	17.801	1079.261	815.136
347.548	17.868	1078.274	814.639
348.562	17.900	1077.273	813.966
349.577	17.784	1076.838	813.009
350.592	17.559	1076.346	811.497
351.606	17.660	1075.405	811.197
352.621	17.611	1074.858	810.477
353.635	17.579	1073.971	809.585
354.650	17.652	1073.191	809.273
355.665	17.724	1072.641	809.127
356.679	17.737	1072.094	808.703
357.694	17.763	1071.338	808.188
358.708	17.647	1070.937	807.263
359.723	17.894	1070.030	807.676
360.738	17.815	1069.446	806.789
361.752	17.779	1068.918	806.151
362.767	17.772	1068.804	805.959
363.781	17.917	1067.479	805.573
364.796	17.866	1067.467	805.253
365.810	18.093	1066.778	805.731
366.825	18.098	1066.373	805.379
367.840	18.175	1065.824	805.253
368.854	18.220	1064.968	804.750
369.869	18.217	1064.223	804.101
370.883	18.104	1063.221	802.739
371.898	18.041	1062.635	801.934
372.913	18.109	1062.110	801.783
373.927	18.049	1061.933	801.299
374.942	18.155	1061.086	801.084
375.956	18.335	1060.370	801.315
376.971	18.255	1059.846	800.475
377.986	18.349	1059.660	800.703
379.000	18.243	1059.266	799.840
380.015	18.307	1058.541	799.520
381.029	18.400	1057.850	799.361
382.044	18.271	1057.262	798.243
383.059	18.385	1056.424	798.072
384.073	18.457	1055.510	797.644
385.088	18.359	1055.135	796.838
386.102	18.500	1053.615	796.274
387.117	18.454	1052.821	795.387
388.132	18.403	1051.396	794.007
389.146	18.346	1050.813	793.231
390.161	18.314	1050.119	792.488
391.175	18.253	1049.722	791.836
392.190	18.394	1048.894	791.796
393.205	18.490	1048.329	791.742
394.219	18.371	1047.848	790.760
395.234	18.465	1046.322	789.968
396.248	18.443	1045.163	788.925
397.263	18.453	1044.293	788.245
398.278	18.360	1043.684	787.284
399.292	18.201	1043.396	786.268
400.307	18.172	1042.772	785.595
401.321	18.078	1042.348	784.773
402.336	18.260	1041.364	784.800
403.350	18.303	1040.489	784.266
404.365	18.438	1039.847	784.333
405.380	18.446	1039.201	783.812
406.394	18.372	1038.700	783.026
407.409	18.531	1037.782	782.994
408.423	18.587	1037.397	782.888
409.438	18.631	1036.614	782.429
410.453	18.605	1035.655	781.516
411.467	18.721	1035.206	781.639
412.482	18.799	1034.656	781.509
413.496	18.801	1034.109	781.035
414.511	18.861	1033.153	780.515
415.526	18.829	1033.254	780.378
416.540	18.857	1032.582	779.926
417.555	18.921	1031.781	779.544
418.569	18.810	1031.535	778.785
419.584	18.937	1030.995	778.887
420.599	18.906	1030.555	778.342
421.613	150.668	1400.874	1794.176
422.628	137.466	1454.811	1794.263
