DTS Sentinel unit serial number:	SN413079Multiplexer serial number:	ORYXHardware model number:	OX4-SRSoftware version number:	ORYX F/W v4.00 Oryx Data Collector v3.7.2.0data status	okinstallation	princeton_trtdifferential loss correction	single-endedforward channel	channel 2reverse channel	N/Adate	2019/09/12time	11:41:11forward acquisition time	60.00reverse acquisition time	0.00gamma	496.2192k internal	0.2302k external	0.2302temperature offset calibration	1.0070default loss term (dB/km)	0.3790temperature slope calibration	1.0000multiplexer offset coefficient	1.0000multiplexer slope coefficient	1.0000fibre end	0.00T internal ref (°C)	39.67T ext. ref 1 (°C)	1.96T ext. ref 2 (°C)	37.33length (m)	temperature (°C)	Stokes	anti-Stokes-747.200	-113.536	0.011	0.002
-746.185	-200.000	-0.028	0.383
-745.171	-200.000	-0.046	0.268
-744.156	-200.000	0.011	0.550
-743.142	-48.143	0.268	-0.132
-742.127	2.441	-0.197	0.145
-741.112	-200.000	0.014	-0.302
-740.098	260.530	-0.102	0.180
-739.083	53.657	-0.144	-0.141
-738.069	800.000	-0.078	0.330
-737.054	-169.696	0.330	0.012
-736.039	28.457	-0.056	0.048
-735.025	89.885	0.225	0.256
-734.010	-200.000	-0.016	0.111
-732.996	284.569	-0.055	-0.102
-731.981	800.000	0.099	-0.433
-730.966	188.171	-0.030	0.046
-729.952	575.631	0.061	-0.151
-728.937	800.000	0.127	-0.358
-727.923	323.660	-0.003	-0.006
-726.908	-200.000	-0.035	-0.177
-725.894	217.849	-0.123	-0.200
-724.879	-152.706	-0.028	-0.002
-723.864	455.585	-0.119	0.269
-722.850	137.269	-0.088	-0.117
-721.835	352.927	-0.035	-0.071
-720.821	283.657	0.073	-0.134
-719.806	800.000	0.122	0.354
-718.791	-166.948	-0.338	0.014
-717.777	446.444	-0.096	0.214
-716.762	149.857	-0.036	-0.050
-715.748	-200.000	-0.016	0.294
-714.733	-24.273	0.031	0.019
-713.718	409.543	0.082	0.176
-712.704	80.745	0.201	0.221
-711.689	-178.480	-0.380	-0.009
-710.675	-13.125	-0.276	0.183
-709.660	742.538	-0.054	-0.149
-708.645	-38.689	0.202	0.108
-707.631	-79.099	-0.132	-0.046
-706.616	55.802	0.098	0.096
-705.602	207.631	0.236	-0.375
-704.587	457.935	-0.070	0.158
-703.572	-200.000	0.044	-0.266
-702.558	-106.290	-0.173	0.039
-701.543	-200.000	0.025	0.147
-700.529	-110.720	-0.236	-0.050
-699.514	188.441	0.090	0.137
-698.499	229.166	0.025	0.042
-697.485	124.904	-0.035	-0.045
-696.470	800.000	0.178	-0.508
-695.456	-200.000	0.007	-0.079
-694.441	66.198	0.114	0.118
-693.426	-95.826	-0.381	0.103
-692.412	-21.839	-0.152	-0.094
-691.397	95.339	-0.079	-0.092
-690.383	800.000	-0.037	-0.164
-689.368	43.456	0.112	0.104
-688.354	-200.000	-0.035	0.346
-687.339	-161.054	-0.244	-0.013
-686.324	-200.000	0.000	-0.179
-685.310	594.645	0.053	-0.133
-684.295	153.373	-0.202	0.281
-683.281	111.786	0.223	0.274
-682.266	176.175	-0.121	-0.179
-681.251	4.596	-0.164	-0.123
-680.237	-200.000	-0.006	-0.207
-679.222	566.622	-0.054	-0.133
-678.208	45.513	-0.286	-0.268
-677.193	800.000	-0.083	-0.255
-676.178	-3.796	-0.080	0.057
-675.164	800.000	-0.103	0.377
-674.149	-200.000	0.069	-0.331
-673.135	91.192	-0.079	-0.090
-672.120	-54.108	-0.133	0.061
-671.105	335.666	0.045	0.088
-670.091	-38.108	-0.160	-0.086
-669.076	-200.000	-0.019	0.235
-668.062	800.000	-0.035	-0.144
-667.047	456.719	-0.239	-0.538
-666.032	-27.292	0.093	0.055
-665.018	13.471	-0.038	0.030
-664.003	-200.000	-0.010	0.097
-662.989	-200.000	0.026	0.134
-661.974	115.508	-0.134	-0.166
-660.959	-200.000	-0.005	-0.171
-659.945	-117.444	0.439	0.081
-658.930	116.573	-0.063	-0.079
-657.916	15.473	0.198	0.158
-656.901	-200.000	0.025	-0.290
-655.886	-104.208	0.254	0.060
-654.872	800.000	-0.053	-0.152
-653.857	800.000	-0.051	-0.161
-652.843	156.396	-0.100	-0.141
-651.828	-200.000	-0.015	-0.127
-650.814	-49.218	0.044	-0.021
-649.799	30.474	0.096	-0.083
-648.784	-200.000	0.000	0.342
-647.770	800.000	0.045	0.197
-646.755	-149.844	-0.312	0.025
-645.741	-200.000	0.052	-0.444
-644.726	226.345	-0.124	-0.204
-643.711	-200.000	0.036	0.339
-642.697	95.668	-0.038	0.044
-641.682	800.000	-0.009	0.030
-640.668	-75.835	0.056	-0.020
-639.653	-12.885	-0.090	0.060
-638.638	-200.000	0.009	-0.263
-637.624	4.295	-0.218	0.162
-636.609	-200.000	0.078	0.447
-635.595	-147.614	0.047	0.004
-634.580	-200.000	0.029	0.162
-633.565	-200.000	-0.025	-0.204
-632.551	-200.000	0.015	0.165
-631.536	19.991	0.046	0.037
-630.522	-56.312	-0.398	0.180
-629.507	-200.000	0.009	-0.072
-628.492	76.580	0.125	0.134
-627.478	669.870	0.088	0.231
-626.463	215.003	-0.212	-0.341
-625.449	44.791	0.123	-0.115
-624.434	-164.046	0.298	-0.014
-623.419	-200.000	0.037	-0.283
-622.405	141.877	-0.140	-0.189
-621.390	-82.877	-0.124	0.041
-620.376	130.817	0.101	0.132
-619.361	514.093	0.061	0.145
-618.346	800.000	-0.153	-0.457
-617.332	-200.000	0.018	-0.162
-616.317	-200.000	0.025	0.200
-615.303	-31.690	-0.241	0.137
-614.288	-22.067	0.259	-0.160
-613.273	-200.000	-0.026	-0.135
-612.259	-64.705	0.155	-0.064
-611.244	-200.000	-0.012	0.116
-610.230	439.361	-0.012	0.026
-609.215	-200.000	0.004	-0.047
-608.201	-33.224	-0.133	-0.075
-607.186	70.820	-0.283	-0.297
-606.171	771.746	0.144	-0.398
-605.157	110.335	-0.216	-0.264
-604.142	-200.000	0.007	0.134
-603.128	431.908	-0.053	-0.117
-602.113	125.691	0.157	-0.201
-601.098	800.000	-0.066	0.228
-600.084	-200.000	-0.044	0.210
-599.069	-35.950	-0.082	0.045
-598.055	-45.485	-0.467	-0.234
-597.040	-139.968	0.288	-0.031
-596.025	1.713	-0.154	0.113
-595.011	-130.698	-0.204	-0.028
-593.996	6.652	0.328	-0.247
-592.982	-77.301	0.212	0.075
-591.967	10.534	-0.165	0.127
-590.952	800.000	0.109	-0.371
-589.938	35.717	-0.049	-0.043
-588.923	429.216	-0.082	0.180
-587.909	-200.000	0.029	-0.134
-586.894	63.234	0.254	0.258
-585.879	134.628	-0.168	-0.220
-584.865	-200.000	-0.010	0.151
-583.850	-5.615	-0.166	-0.116
-582.836	-200.000	-0.021	-0.200
-581.821	-79.443	-0.293	-0.100
-580.806	19.477	-0.092	0.075
-579.792	-78.067	-0.397	0.138
-578.777	-90.456	0.206	0.061
-577.763	32.559	-0.080	-0.070
-576.748	340.380	0.181	-0.357
-575.733	-187.038	0.176	0.002
-574.719	-200.000	0.041	-0.189
-573.704	669.914	-0.067	0.175
-572.690	-49.468	-0.373	0.180
-571.675	-131.675	0.080	-0.011
-570.661	33.567	-0.285	-0.251
-569.646	158.193	-0.113	-0.158
-568.631	-171.940	-0.068	0.002
-567.617	-200.000	-0.093	0.468
-566.602	84.987	0.172	-0.191
-565.588	88.652	0.046	0.052
-564.573	-16.600	0.032	0.020
-563.558	-200.000	-0.012	0.257
-562.544	278.014	-0.116	-0.209
-561.529	11.913	0.414	0.322
-560.515	-66.165	0.169	0.068
-559.500	439.922	0.180	-0.397
-558.485	41.509	0.187	0.171
-557.471	57.848	0.166	-0.165
-556.456	276.406	-0.217	-0.390
-555.442	-149.588	-0.315	0.025
-554.427	289.082	0.222	-0.406
-553.412	388.673	-0.107	0.223
-552.398	-37.338	0.098	0.053
-551.383	372.655	0.049	0.100
-550.369	-200.000	-0.062	0.276
-549.354	350.661	0.081	0.162
-548.339	52.409	-0.187	0.181
-547.325	55.880	-0.169	0.166
-546.310	390.278	-0.220	-0.462
-545.296	-90.591	0.149	0.044
-544.281	213.834	-0.061	-0.097
-543.266	714.691	-0.032	0.087
-542.252	800.000	-0.023	-0.096
-541.237	800.000	0.018	0.052
-540.223	-120.569	-0.270	0.046
-539.208	-200.000	-0.034	-0.261
-538.193	-111.094	0.408	-0.085
-537.179	-99.951	-0.164	0.041
-536.164	381.180	0.073	-0.151
-535.150	439.854	0.009	-0.019
-534.135	-200.000	-0.019	-0.102
-533.121	-103.187	-0.270	0.065
-532.106	-96.109	0.393	0.105
-531.091	800.000	0.044	-0.186
-530.077	-75.390	0.163	-0.059
-529.062	-117.733	-0.210	0.038
-528.048	-84.321	-0.358	-0.114
-527.033	-128.530	0.095	-0.014
-526.018	62.786	-0.356	0.360
-525.004	14.941	-0.311	0.246
-523.989	-98.918	0.120	-0.031
-522.975	658.085	-0.068	0.176
-521.960	6.068	0.212	0.159
-520.945	6.827	0.193	-0.146
-519.931	-9.200	-0.271	-0.183
-518.916	800.000	-0.020	0.056
-517.902	-101.041	-0.281	0.070
-516.887	89.081	-0.208	0.234
-515.872	800.000	-0.108	0.460
-514.858	-129.721	-0.170	0.024
-513.843	-99.394	-0.077	-0.020
-512.829	-17.142	0.290	0.185
-511.814	-164.505	0.497	0.023
-510.799	283.863	-0.142	0.258
-509.785	-200.000	-0.031	-0.154
-508.770	-198.692	-0.198	0.001
-507.756	431.282	-0.043	-0.095
-506.741	-200.000	-0.013	-0.106
-505.726	-20.431	-0.165	-0.103
-504.712	-128.883	-0.175	0.025
-503.697	293.481	-0.020	-0.037
-502.683	352.158	-0.177	0.355
-501.668	25.480	0.081	0.068
-500.653	-34.565	0.107	0.059
-499.639	-25.813	-0.122	-0.072
-498.624	-200.000	0.005	0.114
-497.610	-38.375	-0.105	-0.056
-496.595	112.999	-0.070	0.085
-495.581	420.165	0.145	-0.315
-494.566	260.167	0.041	-0.072
-493.551	20.077	0.062	-0.050
-492.537	28.431	-0.193	-0.165
-491.522	-160.566	-0.455	0.024
-490.508	-109.030	-0.249	-0.053
-489.493	-153.322	-0.194	-0.014
-488.478	800.000	-0.056	0.241
-487.464	-137.692	0.206	-0.023
-486.449	25.360	0.230	-0.193
-485.435	-154.603	-0.185	-0.012
-484.420	-200.000	-0.012	0.173
-483.405	256.798	0.132	0.229
-482.391	-200.000	-0.052	-0.545
-481.376	-200.000	0.046	-0.336
-480.362	772.022	-0.198	-0.545
-479.347	-54.853	0.038	0.017
-478.332	-10.201	0.207	0.138
-477.318	-67.122	-0.124	0.049
-476.303	-63.979	0.074	0.030
-475.289	593.888	0.136	-0.339
-474.274	800.000	-0.053	0.233
-473.259	-200.000	0.004	0.128
-472.245	392.151	0.058	0.121
-471.230	-200.000	0.019	0.231
-470.216	-200.000	0.017	-0.195
-469.201	153.414	-0.159	0.219
-468.186	-109.728	-0.192	0.041
-467.172	638.729	0.059	-0.152
-466.157	157.818	-0.142	-0.198
-465.143	800.000	0.061	-0.216
-464.128	304.452	0.165	-0.309
-463.113	-141.338	0.297	-0.030
-462.099	-200.000	0.022	-0.150
-461.084	-19.216	-0.210	0.131
-460.070	-200.000	-0.026	-0.171
-459.055	-23.990	0.230	-0.139
-458.040	-74.703	0.438	0.159
-457.026	-98.798	-0.083	-0.021
-456.011	-200.000	-0.005	-0.174
-454.997	210.124	0.055	-0.087
-453.982	-200.000	0.025	-0.148
-452.968	-106.153	0.230	0.052
-451.953	-93.551	0.412	-0.115
-450.938	289.935	0.078	0.142
-449.924	-10.031	-0.322	-0.216
-448.909	-200.000	-0.021	-0.287
-447.895	-200.000	-0.016	-0.270
-446.880	66.481	0.063	0.064
-445.865	-117.529	-0.326	0.059
-444.851	456.523	-0.143	0.319
-443.836	-200.000	-0.018	0.117
-442.822	-200.000	0.009	-0.282
-441.807	115.913	-0.101	-0.124
-440.792	-23.192	-0.058	-0.035
-439.778	561.040	0.057	-0.138
-438.763	108.377	0.100	-0.120
-437.749	680.809	0.121	0.316
-436.734	-129.269	-0.089	0.012
-435.719	-174.144	-0.200	0.006
-434.705	140.558	-0.077	0.102
-433.690	32.336	-0.235	-0.204
-432.676	-200.000	-0.012	-0.144
-431.661	227.742	-0.082	0.134
-430.646	745.777	0.067	0.182
-429.632	-200.000	0.006	0.320
-428.617	159.324	0.079	0.111
-427.603	242.432	0.290	0.489
-426.588	-10.401	-0.187	0.125
-425.573	-200.000	0.085	0.411
-424.559	83.249	0.193	-0.211
-423.544	59.786	0.141	-0.140
-422.530	429.179	-0.042	0.092
-421.515	117.801	0.004	0.005
-420.500	272.086	-0.055	-0.098
-419.486	-48.692	0.136	0.066
-418.471	33.927	0.256	-0.225
-417.457	123.493	0.114	-0.144
-416.442	-141.991	0.232	0.023
-415.428	-200.000	-0.018	0.128
-414.413	800.000	0.059	-0.258
-413.398	155.560	0.192	-0.266
-412.384	-120.489	0.224	0.038
-411.369	22.143	-0.220	0.180
-410.355	535.577	-0.108	-0.258
-409.340	-124.886	0.218	0.034
-408.325	345.901	0.110	0.217
-407.311	456.977	-0.073	0.164
-406.296	-200.000	0.045	0.396
-405.282	514.416	-0.050	-0.117
-404.267	-200.000	-0.008	0.082
-403.252	800.000	-0.059	0.235
-402.238	123.921	-0.075	-0.095
-401.223	-200.000	-0.011	-0.121
-400.209	-78.623	-0.187	0.064
-399.194	247.450	-0.156	-0.264
-398.179	410.182	0.104	0.222
-397.165	-200.000	-0.033	-0.431
-396.150	605.104	-0.105	-0.263
-395.136	14.058	-0.205	0.160
-394.121	163.910	0.135	0.191
-393.106	-85.799	0.053	0.016
-392.092	-83.462	-0.307	0.099
-391.077	260.388	-0.138	0.240
-390.063	233.566	0.212	0.351
-389.048	-139.495	0.263	-0.028
-388.033	-21.923	0.273	-0.167
-387.019	119.788	-0.075	0.093
-386.004	-188.942	-0.303	-0.004
-384.990	-69.108	-0.130	-0.050
-383.975	-22.876	0.208	-0.126
-382.960	-146.823	0.051	0.004
-381.946	197.018	0.100	-0.153
-380.931	53.429	0.171	0.165
-379.917	800.000	-0.009	0.024
-378.902	28.437	-0.157	-0.133
-377.888	-152.298	-0.202	-0.015
-376.873	185.112	0.200	-0.298
-375.858	252.282	-0.162	-0.277
-374.844	126.620	-0.079	-0.100
-373.829	30.647	0.245	0.210
-372.815	-2.362	0.222	-0.157
-371.800	466.626	-0.088	-0.198
-370.785	-176.093	-0.356	0.009
-369.771	20.652	-0.161	-0.131
-368.756	-60.610	0.243	-0.103
-367.742	328.503	-0.138	0.266
-366.727	227.965	0.145	0.237
-365.712	725.012	-0.096	0.256
-364.698	51.092	-0.171	0.163
-363.683	800.000	-0.047	0.164
-362.669	800.000	0.081	-0.307
-361.654	8.443	0.137	-0.104
-360.639	-200.000	-0.015	-0.104
-359.625	-105.271	0.110	-0.025
-358.610	-158.921	0.069	-0.004
-357.596	-88.074	0.209	-0.063
-356.581	264.482	0.057	-0.100
-355.566	544.459	0.132	0.316
-354.552	683.040	-0.033	-0.086
-353.537	141.180	-0.059	-0.079
-352.523	-200.000	-0.003	-0.160
-351.508	160.182	-0.086	-0.121
-350.493	391.874	-0.104	-0.217
-349.479	-164.778	0.072	-0.003
-348.464	292.906	-0.086	-0.157
-347.450	362.167	0.185	-0.373
-346.435	242.938	0.101	-0.169
-345.420	-200.000	-0.049	-0.284
-344.406	-102.032	0.257	-0.062
-343.391	-122.476	0.159	0.026
-342.377	-200.000	0.061	0.449
-341.362	-80.172	-0.101	0.034
-340.348	-111.693	0.033	-0.007
-339.333	-10.783	-0.207	-0.137
-338.318	-47.988	0.178	0.086
-337.304	-57.154	-0.218	-0.097
-336.289	-200.000	-0.022	0.242
-335.275	-200.000	0.055	-0.429
-334.260	-2.798	0.082	-0.057
-333.245	47.774	0.161	-0.151
-332.231	-109.556	-0.110	-0.023
-331.216	44.116	0.194	0.178
-330.202	-200.000	-0.014	-0.200
-329.187	280.541	0.139	-0.248
-328.172	-200.000	0.018	0.351
-327.158	0.091	0.209	-0.149
-326.143	-130.029	0.133	0.018
-325.129	42.540	-0.151	-0.138
-324.114	-180.341	0.110	-0.002
-323.099	800.000	0.043	-0.132
-322.085	-200.000	0.033	0.157
-321.070	-190.355	-0.137	0.002
-320.056	800.000	0.045	-0.161
-319.041	116.104	-0.185	0.227
-318.026	649.607	0.050	0.128
-317.012	800.000	-0.061	-0.203
-315.997	-136.931	-0.159	0.018
-314.983	-200.000	-0.031	-0.142
-313.968	-200.000	-0.072	0.347
-312.953	800.000	0.027	0.092
-311.939	-16.595	-0.214	-0.136
-310.924	-65.935	0.021	-0.008
-309.910	-200.000	0.035	0.359
-308.895	23.483	0.070	0.058
-307.880	58.138	0.042	-0.041
-306.866	113.896	-0.140	0.171
-305.851	44.247	-0.200	-0.184
-304.837	313.672	0.166	-0.312
-303.822	-19.506	0.190	-0.118
-302.807	-200.000	-0.017	0.102
-301.793	-200.000	0.020	0.159
-300.778	236.182	-0.019	0.031
-299.764	-141.530	-0.247	-0.025
-298.749	-83.725	-0.273	0.087
-297.735	23.811	0.133	-0.110
-296.720	-79.158	0.423	-0.144
-295.705	-200.000	0.051	-0.310
-294.691	-17.607	-0.128	-0.081
-293.676	800.000	0.069	0.257
-292.662	83.431	-0.207	0.226
-291.647	-110.415	0.153	0.032
-290.632	-79.861	-0.168	-0.057
-289.618	-200.000	0.028	0.171
-288.603	-35.342	0.189	0.103
-287.589	-94.266	-0.183	0.050
-286.574	-200.000	0.038	0.251
-285.559	-200.000	-0.012	0.220
-284.545	314.419	0.108	0.204
-283.530	-67.950	-0.147	0.058
-282.516	59.066	-0.116	0.115
-281.501	222.821	-0.069	-0.111
-280.486	158.288	-0.156	-0.217
-279.472	-26.357	-0.075	0.044
-278.457	-25.132	0.237	-0.141
-277.443	47.861	-0.170	0.159
-276.428	-85.956	0.142	0.044
-275.413	-176.745	-0.125	-0.003
-274.399	-200.000	0.076	0.366
-273.384	800.000	0.028	0.083
-272.370	-43.715	-0.470	-0.237
-271.355	-65.283	0.326	-0.131
-270.340	-162.523	0.252	-0.012
-269.326	-87.494	0.186	0.056
-268.311	-200.000	0.022	0.396
-267.297	-51.418	-0.058	-0.027
-266.282	-98.692	0.212	-0.054
-265.267	215.904	0.047	0.074
-264.253	127.820	0.233	-0.296
-263.238	24.730	-0.122	-0.101
-262.224	165.348	-0.161	0.227
-261.209	157.627	0.102	-0.142
-260.195	-154.075	0.255	-0.017
-259.180	369.891	0.124	0.250
-258.165	299.812	-0.173	-0.319
-257.151	767.961	0.167	-0.454
-256.136	800.000	0.052	0.166
-255.122	800.000	0.086	0.279
-254.107	366.702	0.147	0.297
-253.092	421.513	-0.110	-0.235
-252.078	-16.894	0.009	0.006
-251.063	-200.000	0.259	-0.001
-250.049	-11.893	-0.226	0.148
-249.034	-200.000	-0.052	-0.277
-248.019	-24.495	0.062	-0.037
-247.005	44.438	0.055	0.050
-245.990	-47.268	0.218	0.106
-244.976	-34.154	0.249	0.137
-243.961	800.000	0.104	0.300
-242.946	27.140	-0.107	0.090
-241.932	800.000	-0.098	0.280
-240.917	-36.635	-0.347	-0.187
-239.903	-73.992	0.048	0.018
-238.888	-1.455	0.318	-0.224
-237.873	128.148	-0.186	-0.236
-236.859	-134.841	0.028	-0.003
-235.844	-119.723	0.402	-0.069
-234.830	-20.045	0.039	-0.024
-233.815	81.422	0.249	0.268
-232.800	-45.512	-0.282	-0.140
-231.786	137.733	-0.064	-0.084
-230.771	800.000	0.076	-0.316
-229.757	-90.551	-0.382	0.111
-228.742	136.632	-0.259	0.337
-227.727	-94.840	-0.079	-0.021
-226.713	58.453	0.201	-0.197
-225.698	273.713	-0.058	0.103
-224.684	-6.874	0.098	-0.067
-223.669	61.907	0.095	-0.094
-222.655	144.092	0.168	-0.224
-221.640	78.161	0.208	0.222
-220.625	800.000	-0.015	-0.044
-219.611	111.499	0.065	-0.079
-218.596	-34.173	-0.264	-0.145
-217.582	-151.336	-0.074	0.006
-216.567	-200.000	0.011	-0.084
-215.552	800.000	0.035	0.139
-214.538	-200.000	0.084	0.470
-213.523	800.000	-0.050	0.163
-212.509	508.385	-0.117	0.271
-211.494	80.976	-0.331	0.356
-210.479	65.924	-0.159	-0.161
-209.465	164.549	0.086	0.121
-208.450	248.094	0.196	-0.330
-207.436	-146.259	-0.250	-0.022
-206.421	-172.593	-0.205	-0.006
-205.406	-51.080	-0.235	-0.110
-204.392	-200.000	0.005	0.239
-203.377	-78.160	0.023	0.008
-202.363	-130.628	-0.205	-0.028
-201.348	-92.022	0.147	0.042
-200.333	-73.208	0.091	0.033
-199.319	-123.670	-0.520	-0.082
-198.304	9.786	0.203	-0.154
-197.290	64.344	-0.087	-0.088
-196.275	11.073	0.399	-0.304
-195.260	75.578	0.144	-0.152
-194.246	800.000	-0.067	0.193
-193.231	442.629	0.070	-0.154
-192.217	-43.012	-0.195	0.099
-191.202	-163.419	0.203	0.010
-190.187	-66.475	0.354	-0.140
-189.173	800.000	0.029	0.111
-188.158	78.343	0.114	0.121
-187.144	-200.000	0.033	0.209
-186.129	69.939	-0.068	-0.070
-185.114	800.000	0.201	0.620
-184.100	10.871	0.179	0.136
-183.085	287.749	-0.205	0.369
-182.071	-19.048	0.112	-0.069
-181.056	800.000	0.110	0.354
-180.042	800.000	-0.092	0.343
-179.027	187.313	0.103	-0.153
-178.012	-1.625	0.194	0.136
-176.998	-200.000	-0.006	0.092
-175.983	48.282	-0.145	0.136
-174.969	-51.634	0.237	-0.110
-173.954	-200.000	-0.044	0.302
-172.939	-200.000	0.009	0.105
-171.925	-5.612	0.022	0.015
-170.910	-165.013	0.188	0.008
-169.896	-111.493	0.231	-0.047
-168.881	-85.149	-0.109	-0.034
-167.866	-105.258	0.335	0.076
-166.852	-165.307	-0.101	-0.004
-165.837	131.932	0.067	0.086
-164.823	-71.964	-0.247	0.092
-163.808	-153.113	0.109	0.008
-162.793	-117.600	-0.313	-0.056
-161.779	78.819	0.038	-0.040
-160.764	800.000	-0.044	0.151
-159.750	37.253	0.264	-0.233
-158.735	360.175	0.139	0.277
-157.720	-139.852	-0.115	-0.012
-156.706	232.190	0.103	0.169
-155.691	388.936	0.091	-0.187
-154.677	103.251	-0.065	-0.076
-153.662	-146.752	-0.094	0.008
-152.647	-117.723	-0.261	-0.047
-151.633	-47.115	0.227	0.110
-150.618	-162.330	0.239	-0.012
-149.604	-14.669	0.110	0.070
-148.589	15.200	-0.254	0.198
-147.574	800.000	-0.085	0.252
-146.560	-42.163	0.272	0.139
-145.545	-200.000	-0.035	0.232
-144.531	-21.519	0.240	0.146
-143.516	800.000	-0.077	-0.248
-142.502	182.600	-0.095	-0.139
-141.487	388.668	-0.095	0.195
-140.472	-200.000	-0.040	0.295
-139.458	228.005	0.104	0.169
-138.443	-136.169	-0.303	0.035
-137.429	41.316	0.164	-0.147
-136.414	291.719	0.175	-0.317
-135.399	-90.950	0.361	0.103
-134.385	-200.000	-0.002	-0.304
-133.370	-200.000	-0.034	-0.151
-132.356	-73.143	-0.133	-0.048
-131.341	-65.073	0.318	-0.128
-130.326	-200.000	-0.011	0.145
-129.312	-200.000	-0.008	-0.176
-128.297	-12.743	-0.102	0.066
-127.283	142.738	0.105	-0.139
-126.268	-177.480	-0.200	-0.005
-125.253	3.162	-0.116	0.084
-124.239	207.976	0.184	0.287
-123.224	-200.000	0.026	0.131
-122.210	-182.524	0.196	0.004
-121.195	224.547	0.159	0.256
-120.180	20.377	-0.160	-0.128
-119.166	-95.693	-0.256	-0.068
-118.151	672.338	0.072	0.187
-117.137	-200.000	-0.027	-0.174
-116.122	800.000	-0.066	-0.211
-115.107	-104.056	0.169	-0.039
-114.093	-200.000	0.024	-0.276
-113.078	22.506	0.165	0.134
-112.064	800.000	0.188	0.578
-111.049	748.809	0.075	0.201
-110.034	800.000	-0.092	0.286
-109.020	-9.686	-0.166	0.110
-108.005	-200.000	-0.000	-0.134
-106.991	386.032	-0.005	-0.010
-105.976	311.684	0.041	0.077
-104.962	-163.332	0.089	-0.004
-103.947	-75.469	-0.251	-0.089
-102.932	133.106	-0.012	-0.015
-101.918	-86.476	0.131	-0.040
-100.903	452.343	-0.092	-0.203
-99.889	-76.279	0.163	0.057
-98.874	-163.690	-0.173	-0.008
-97.859	-43.016	-0.267	-0.135
-96.845	-93.276	0.312	-0.086
-95.830	-63.395	0.304	0.124
-94.816	52.155	0.289	0.274
-93.801	-88.135	-0.426	0.127
-92.786	603.884	-0.120	0.298
-91.772	-200.000	-0.056	0.290
-90.757	70.602	-0.198	-0.204
-89.743	-58.106	0.195	0.084
-88.728	-185.026	-0.385	0.006
-87.713	800.000	-0.144	-0.484
-86.699	16.589	-0.044	-0.035
-85.684	-118.961	-0.099	-0.017
-84.670	-158.908	-0.306	-0.017
-83.655	61.089	-0.298	0.293
-82.640	-47.888	-0.207	-0.099
-81.626	-127.598	-0.284	-0.041
-80.611	-200.000	-0.104	-0.525
-79.597	332.011	0.096	0.183
-78.582	27.434	0.312	0.260
-77.567	43.625	0.212	0.192
-76.553	-119.982	0.322	-0.055
-75.538	-200.000	-0.019	0.325
-74.524	800.000	-0.074	0.313
-73.509	-7.625	0.339	0.227
-72.494	-200.000	0.005	-0.023
-71.480	636.986	0.119	-0.300
-70.465	-200.000	0.034	0.208
-69.451	-200.000	-0.001	-0.430
-68.436	-99.070	-0.247	0.062
-67.422	-100.968	-0.332	-0.081
-66.407	413.310	-0.048	-0.101
-65.392	544.429	-0.164	0.388
-64.378	456.375	-0.058	-0.129
-63.363	54.254	0.182	0.174
-62.349	42.580	0.092	0.083
-61.334	75.249	-0.589	-0.617
-60.319	-200.000	0.081	0.545
-59.305	-200.000	0.010	-0.841
-58.290	600.376	0.341	0.841
-57.276	514.127	0.727	1.682
-56.261	-200.000	77.347	507.729
-55.246	496.040	1353.191	3085.957
-54.232	145.092	2590.378	3437.822
-53.217	108.103	2357.758	2788.769
-52.203	48.757	1967.996	1831.097
-51.188	42.906	1754.335	1586.309
-50.173	40.159	1707.450	1522.745
-49.159	54.366	1743.531	1665.441
-48.144	59.205	1762.123	1720.674
-47.130	42.915	1725.616	1560.163
-46.115	39.728	1711.401	1522.703
-45.100	39.544	1707.365	1517.632
-44.086	39.533	1704.917	1515.317
-43.071	39.481	1702.290	1512.518
-42.057	39.494	1699.429	1510.017
-41.042	39.596	1697.034	1508.614
-40.027	39.546	1695.419	1506.732
-39.013	39.477	1694.420	1505.261
-37.998	39.419	1692.519	1503.068
-36.984	39.553	1690.818	1502.515
-35.969	39.766	1688.461	1501.986
-34.954	39.763	1687.208	1500.792
-33.940	39.744	1685.250	1498.842
-32.925	39.725	1683.088	1496.718
-31.911	39.670	1681.682	1494.991
-30.896	39.646	1679.417	1492.734
-29.881	39.669	1678.008	1491.596
-28.867	39.697	1676.301	1490.229
-27.852	39.702	1675.171	1489.209
-26.838	39.701	1673.401	1487.567
-25.823	39.698	1672.283	1486.489
-24.809	39.755	1670.643	1485.402
-23.794	39.768	1669.092	1484.064
-22.779	39.778	1667.280	1482.469
-21.765	39.748	1666.002	1481.046
-20.750	39.685	1664.112	1478.836
-19.736	39.650	1662.978	1477.507
-18.721	39.646	1661.982	1476.537
-17.706	39.705	1660.057	1475.210
-16.692	39.622	1658.747	1473.361
-15.677	39.717	1656.831	1472.313
-14.663	39.685	1656.037	1471.311
-13.648	39.641	1654.619	1469.666
-12.633	39.654	1652.924	1468.195
-11.619	39.653	1651.370	1466.747
-10.604	39.742	1649.194	1465.424
-9.590	39.708	1648.297	1464.314
-8.575	39.633	1646.720	1462.296
-7.560	39.746	1645.447	1461.947
-6.546	39.699	1644.417	1460.627
-5.531	39.630	1643.755	1459.470
-4.517	39.696	1641.695	1458.071
-3.502	39.634	1641.098	1457.021
-2.487	39.636	1639.686	1455.725
-1.473	39.699	1628.875	1446.531
-0.458	37.509	1608.626	1412.611
0.556	33.898	1608.414	1378.630
1.571	31.310	1632.508	1380.063
2.586	30.339	1646.505	1384.534
3.600	26.072	1589.789	1305.916
4.615	14.041	1469.263	1125.810
5.629	3.834	1396.447	1003.923
6.644	2.114	1386.734	985.758
7.659	1.976	1385.114	983.627
8.673	1.949	1383.684	982.352
9.688	1.811	1382.099	980.251
10.702	1.597	1379.405	976.881
11.717	5.431	1387.820	1007.487
12.731	16.734	1409.755	1096.915
13.746	25.193	1424.235	1163.192
14.761	26.594	1424.782	1172.620
15.775	26.779	1424.544	1173.516
16.790	26.794	1424.044	1173.097
17.804	26.791	1423.734	1172.722
18.819	26.965	1423.632	1173.653
19.834	27.148	1422.850	1174.092
20.848	27.078	1422.261	1173.050
21.863	27.091	1420.964	1171.958
22.877	27.092	1420.084	1171.137
23.892	27.076	1419.150	1170.155
24.907	27.057	1418.608	1169.487
25.921	27.157	1416.937	1168.651
26.936	27.111	1416.775	1168.118
27.950	27.132	1415.388	1167.006
28.965	27.253	1413.874	1166.425
29.980	27.212	1412.630	1165.036
30.994	27.086	1411.395	1163.105
32.009	27.124	1410.752	1162.717
33.023	27.099	1409.403	1161.342
34.038	27.059	1408.811	1160.499
35.053	27.114	1407.393	1159.577
36.067	27.002	1406.702	1158.193
37.082	27.123	1405.306	1157.708
38.096	27.136	1404.169	1156.756
39.111	27.102	1403.568	1155.937
40.126	27.149	1402.777	1155.487
41.140	27.097	1402.641	1154.942
42.155	27.133	1401.985	1154.528
43.169	27.120	1401.852	1154.234
44.184	27.093	1401.887	1153.989
45.199	27.178	1401.350	1153.982
46.213	27.086	1400.997	1153.006
47.228	27.057	1399.735	1151.682
48.242	27.147	1397.985	1150.707
49.257	27.151	1397.066	1149.878
50.271	27.067	1395.587	1148.024
51.286	27.215	1394.042	1147.586
52.301	27.016	1393.155	1145.503
53.315	27.072	1392.122	1144.905
54.330	27.094	1391.497	1144.426
55.344	27.067	1390.373	1143.231
56.359	27.078	1388.582	1141.729
57.374	27.069	1388.381	1141.405
58.388	27.091	1387.853	1141.005
59.403	27.211	1387.250	1141.165
60.417	27.145	1386.908	1140.366
61.432	27.129	1386.005	1139.420
62.447	27.135	1384.670	1138.262
63.461	26.997	1384.212	1136.922
64.476	27.172	1382.744	1136.712
65.490	27.110	1381.560	1135.249
66.505	27.215	1380.101	1134.604
67.520	27.150	1379.024	1133.215
68.534	27.102	1378.217	1132.150
69.549	27.199	1376.846	1131.525
70.563	27.129	1375.942	1130.253
71.578	27.197	1374.954	1129.759
72.593	27.120	1373.861	1128.285
73.607	27.025	1373.683	1127.447
74.622	27.071	1373.073	1127.136
75.636	27.031	1372.243	1126.105
76.651	27.081	1371.485	1125.693
77.666	27.133	1371.071	1125.577
78.680	27.073	1370.776	1124.862
79.695	27.036	1369.981	1123.878
80.709	27.151	1368.771	1123.502
81.724	27.207	1367.656	1122.834
82.739	27.116	1367.077	1121.694
83.753	27.124	1365.972	1120.737
84.768	27.123	1365.002	1119.837
85.782	27.178	1363.627	1118.949
86.797	27.214	1362.115	1117.829
87.812	27.143	1361.247	1116.582
88.826	27.181	1360.049	1115.736
89.841	27.171	1359.187	1114.865
90.855	27.089	1358.264	1113.508
91.870	27.179	1357.429	1113.278
92.884	27.083	1356.631	1111.939
93.899	27.149	1356.261	1111.940
94.914	27.230	1354.575	1110.955
95.928	27.116	1354.032	1109.715
96.943	27.167	1353.095	1109.158
97.957	27.131	1352.829	1108.625
98.972	27.142	1351.767	1107.723
99.987	27.211	1350.350	1106.885
101.001	27.245	1349.920	1106.638
102.016	27.160	1348.977	1105.249
103.030	27.223	1348.013	1104.747
104.045	27.215	1347.377	1104.076
105.060	27.136	1346.554	1102.829
106.074	27.141	1345.516	1101.909
107.089	27.204	1344.477	1101.344
108.103	27.191	1343.150	1100.080
109.118	27.237	1342.078	1099.381
110.133	27.229	1341.217	1098.534
111.147	27.254	1339.957	1097.550
112.162	27.305	1338.575	1096.631
113.176	27.267	1337.815	1095.684
114.191	27.228	1337.083	1094.754
115.206	27.304	1335.628	1093.919
116.220	27.232	1335.216	1093.052
117.235	27.264	1333.945	1092.108
118.249	27.171	1333.279	1090.908
119.264	27.107	1332.994	1090.196
120.279	27.238	1331.307	1089.505
121.293	27.299	1330.785	1089.343
122.308	27.278	1329.644	1088.191
123.322	27.327	1328.922	1087.795
124.337	27.383	1328.102	1087.363
125.352	27.330	1327.279	1086.275
126.366	27.347	1326.447	1085.599
127.381	27.308	1326.084	1084.975
128.395	27.279	1325.066	1083.874
129.410	27.361	1324.013	1083.403
130.424	27.278	1323.763	1082.608
131.439	27.391	1322.344	1082.023
132.454	27.340	1321.586	1081.007
133.468	27.431	1320.708	1080.734
134.483	27.324	1320.852	1080.116
135.497	27.314	1319.561	1078.911
136.512	27.372	1318.512	1078.300
137.527	27.406	1317.133	1077.279
138.541	27.338	1316.085	1075.921
139.556	27.251	1315.020	1074.443
140.570	27.250	1313.961	1073.477
141.585	27.232	1313.165	1072.626
142.600	27.352	1311.859	1072.168
143.614	27.324	1311.160	1071.336
144.629	27.266	1310.116	1070.052
145.643	27.244	1309.010	1068.925
146.658	27.186	1308.102	1067.743
147.673	27.279	1306.974	1067.277
148.687	27.390	1305.843	1066.909
149.702	27.173	1305.099	1064.937
150.716	27.207	1303.871	1064.041
151.731	27.359	1302.704	1063.883
152.746	27.316	1301.744	1062.753
153.760	27.306	1300.713	1061.756
154.775	27.259	1299.830	1060.671
155.789	27.272	1298.876	1059.872
156.804	27.311	1297.904	1059.211
157.819	27.219	1297.345	1058.128
158.833	27.238	1296.262	1057.259
159.848	27.384	1295.431	1057.335
160.862	27.394	1295.027	1056.974
161.877	27.311	1294.361	1055.856
162.892	27.191	1293.776	1054.587
163.906	27.479	1292.673	1055.263
164.921	27.423	1292.093	1054.373
165.935	27.470	1291.034	1053.687
166.950	27.465	1290.537	1053.157
167.964	27.401	1289.982	1052.240
168.979	27.340	1289.604	1051.486
169.994	27.390	1289.059	1051.241
171.008	27.474	1287.667	1050.493
172.023	27.367	1287.074	1049.302
173.037	27.436	1286.603	1049.220
174.052	27.468	1285.635	1048.527
175.067	27.408	1284.823	1047.423
176.081	27.399	1283.837	1046.476
177.096	27.350	1283.313	1045.675
178.110	27.412	1282.680	1045.425
179.125	27.407	1281.481	1044.324
180.140	27.486	1280.806	1044.134
181.154	27.457	1279.160	1042.533
182.169	27.459	1278.535	1041.943
183.183	27.372	1277.293	1040.343
184.198	27.436	1276.177	1039.709
185.213	27.519	1275.160	1039.262
186.227	27.437	1274.457	1038.131
187.242	27.471	1273.648	1037.573
188.256	27.453	1273.038	1036.882
189.271	27.492	1271.600	1035.839
190.286	27.411	1271.338	1035.074
191.300	27.517	1270.732	1035.092
192.315	27.352	1270.253	1033.675
193.329	27.463	1269.836	1033.870
194.344	27.553	1268.917	1033.540
195.359	27.513	1268.765	1033.101
196.373	27.397	1268.517	1032.149
197.388	27.418	1267.870	1031.649
198.402	27.486	1267.465	1031.613
199.417	27.339	1267.203	1030.479
200.432	27.602	1266.137	1031.005
201.446	27.387	1266.144	1029.705
202.461	27.519	1265.008	1029.437
203.475	27.516	1264.456	1028.878
204.490	27.502	1263.023	1027.540
205.504	27.531	1262.383	1027.093
206.519	27.541	1261.294	1026.175
207.534	27.591	1260.294	1025.553
208.548	27.573	1259.630	1024.821
209.563	27.491	1259.060	1023.802
210.577	27.521	1257.922	1022.956
211.592	27.512	1257.262	1022.280
212.607	27.554	1256.175	1021.539
213.621	27.571	1255.769	1021.215
214.636	27.585	1254.594	1020.246
215.650	27.585	1254.140	1019.790
216.665	27.632	1252.905	1018.958
217.680	27.599	1251.960	1017.911
218.694	27.736	1250.858	1017.692
219.709	27.579	1250.797	1016.673
220.723	27.673	1249.792	1016.295
221.738	27.489	1249.405	1014.862
222.753	27.652	1248.174	1014.679
223.767	27.576	1247.606	1013.707
224.782	27.631	1246.745	1013.220
225.796	27.729	1246.195	1013.231
226.811	27.664	1246.184	1012.772
227.826	27.680	1245.677	1012.359
228.840	27.820	1244.875	1012.391
229.855	27.717	1244.272	1011.241
230.869	27.809	1243.069	1010.682
231.884	27.757	1242.809	1010.097
232.899	27.668	1242.390	1009.171
233.913	27.679	1241.783	1008.652
234.928	27.831	1240.988	1008.756
235.942	27.849	1240.348	1008.244
236.957	27.607	1239.708	1006.300
237.972	27.735	1238.890	1006.252
238.986	27.724	1238.801	1006.033
240.001	27.834	1237.645	1005.612
241.015	27.787	1236.844	1004.613
242.030	28.013	1235.724	1004.856
243.045	27.977	1235.238	1004.175
244.059	27.851	1234.763	1003.006
245.074	27.911	1233.569	1002.276
246.088	27.948	1232.358	1001.405
247.103	27.945	1231.861	1000.896
248.117	27.880	1231.236	999.948
249.132	28.017	1230.131	999.711
250.147	27.933	1229.790	998.885
251.161	27.968	1228.980	998.331
252.176	28.000	1228.125	997.724
253.190	27.957	1228.009	997.304
254.205	27.884	1227.355	996.288
255.220	27.909	1226.568	995.697
256.234	28.051	1226.019	995.936
257.249	28.021	1225.289	995.090
258.263	28.032	1224.565	994.472
259.278	27.932	1224.542	993.826
260.293	28.017	1223.926	993.696
261.307	28.002	1222.824	992.632
262.322	28.133	1222.063	992.638
263.336	28.042	1221.374	991.501
264.351	28.050	1221.084	991.217
265.366	27.971	1220.449	990.186
266.380	28.037	1219.706	989.857
267.395	27.884	1219.499	988.769
268.409	28.027	1218.265	988.458
269.424	28.028	1217.749	987.957
270.439	28.061	1217.495	987.842
271.453	28.038	1216.829	987.089
272.468	28.071	1215.681	986.249
273.482	28.011	1215.206	985.454
274.497	28.110	1214.730	985.513
275.512	28.034	1214.417	984.759
276.526	28.209	1213.175	984.607
277.541	28.150	1212.765	983.869
278.555	28.151	1211.972	983.146
279.570	28.062	1211.710	982.368
280.585	28.178	1210.372	981.819
281.599	28.154	1209.792	981.131
282.614	28.113	1209.160	980.314
283.628	28.150	1207.693	979.235
284.643	28.250	1206.985	979.111
285.657	28.072	1206.630	977.786
286.672	28.120	1205.546	977.078
287.687	28.124	1204.709	976.334
288.701	28.132	1204.259	975.922
289.716	28.280	1203.498	976.011
290.730	28.229	1202.779	975.070
291.745	28.255	1201.963	974.460
292.760	28.262	1201.198	973.788
293.774	28.267	1200.717	973.338
294.789	28.297	1200.164	972.968
295.803	28.342	1199.562	972.629
296.818	28.233	1198.971	971.486
297.833	28.213	1198.513	970.924
298.847	28.262	1197.878	970.585
299.862	28.271	1197.062	969.884
300.876	28.326	1196.120	969.323
301.891	28.327	1195.724	968.923
302.906	28.489	1194.672	968.844
303.920	28.432	1194.071	967.968
304.935	28.387	1193.684	967.329
305.949	28.409	1192.935	966.755
306.964	28.559	1191.848	966.577
307.979	28.447	1191.514	965.631
308.993	28.494	1191.200	965.538
310.008	28.434	1190.529	964.592
311.022	28.395	1189.474	963.447
312.037	28.477	1188.884	963.317
313.052	28.453	1187.784	962.212
314.066	28.409	1187.140	961.375
315.081	28.546	1186.443	961.446
316.095	28.505	1185.702	960.543
317.110	28.526	1185.101	960.085
318.125	28.582	1184.535	959.834
319.139	28.477	1183.955	958.731
320.154	28.465	1183.377	958.115
321.168	28.502	1182.596	957.589
322.183	28.496	1182.257	957.198
323.197	28.460	1182.012	956.727
324.212	28.624	1180.677	956.416
325.227	28.554	1180.578	955.889
326.241	28.606	1179.907	955.531
327.256	28.581	1179.294	954.818
328.270	28.698	1177.892	954.207
329.285	28.735	1177.179	953.737
330.300	28.708	1176.164	952.690
331.314	28.658	1175.625	951.912
332.329	28.756	1174.666	951.557
333.343	28.609	1174.644	950.697
334.358	28.749	1173.253	950.210
335.373	28.810	1172.595	949.909
336.387	28.788	1172.086	949.300
337.402	28.815	1171.524	948.899
338.416	28.802	1170.745	948.116
339.431	28.799	1169.938	947.365
340.446	28.777	1169.729	946.996
341.460	28.718	1169.140	946.132
342.475	28.809	1167.995	945.588
343.489	28.856	1167.346	945.222
344.504	28.773	1166.214	943.796
345.519	28.899	1165.353	943.662
346.533	28.842	1164.638	942.705
347.548	28.810	1164.096	942.021
348.562	28.816	1163.734	941.677
349.577	28.875	1162.345	940.770
350.592	28.820	1161.556	939.767
351.606	28.810	1161.362	939.475
352.621	28.811	1160.519	938.716
353.635	28.857	1160.308	938.698
354.650	28.944	1159.414	938.335
355.665	28.850	1158.631	937.139
356.679	28.888	1158.470	937.117
357.694	28.985	1157.537	936.774
358.708	28.946	1156.585	935.726
359.723	28.908	1155.928	934.915
360.738	28.878	1155.431	934.279
361.752	28.982	1154.968	934.349
362.767	29.032	1154.250	933.942
363.781	29.046	1153.756	933.529
364.796	29.031	1153.254	932.963
365.810	29.004	1152.479	932.119
366.825	29.118	1152.193	932.383
367.840	29.106	1151.383	931.583
368.854	29.288	1150.748	931.909
369.869	29.158	1150.141	930.678
370.883	29.111	1149.278	929.656
371.898	29.140	1148.626	929.193
372.913	29.173	1148.266	928.988
373.927	29.189	1147.833	928.635
374.942	29.250	1147.184	928.336
375.956	29.147	1146.554	927.225
376.971	29.108	1146.017	926.514
377.986	29.182	1145.436	926.335
379.000	29.253	1145.139	926.367
380.015	29.330	1144.367	926.047
381.029	29.286	1143.758	925.252
382.044	29.181	1143.259	924.239
383.059	29.119	1142.798	923.474
384.073	29.260	1142.146	923.575
385.088	29.329	1140.806	922.752
386.102	29.421	1139.658	922.203
387.117	29.269	1138.964	920.800
388.132	29.296	1138.283	920.300
389.146	29.191	1137.576	919.124
390.161	29.339	1136.476	918.893
391.175	29.394	1136.198	918.863
392.190	29.253	1136.133	918.024
393.205	29.446	1134.918	917.921
394.219	29.416	1134.234	917.138
395.234	29.444	1133.478	916.585
396.248	29.471	1132.776	916.069
397.263	29.381	1131.708	914.680
398.278	29.528	1131.263	914.966
399.292	29.503	1130.646	914.263
400.307	29.480	1130.096	913.627
401.321	29.398	1129.590	912.727
402.336	29.477	1128.916	912.495
403.350	29.353	1128.373	911.361
404.365	29.527	1127.276	911.251
405.380	29.524	1126.659	910.660
406.394	29.466	1126.108	909.849
407.409	29.501	1125.400	909.367
408.423	29.670	1124.427	909.333
409.438	29.634	1124.089	908.804
410.453	29.616	1123.075	907.814
411.467	29.688	1122.563	907.674
412.482	29.565	1121.598	906.210
413.496	29.612	1120.933	905.820
414.511	29.552	1120.774	905.321
415.526	29.541	1120.201	904.722
416.540	29.629	1119.855	904.791
417.555	29.630	1119.277	904.248
418.569	29.687	1118.890	904.137
419.584	29.732	1118.177	903.699
420.599	29.707	1117.770	903.168
421.613	90.622	1307.411	1389.783
422.628	85.176	1335.040	1389.911
