DTS Sentinel unit serial number:	SN413079Multiplexer serial number:	ORYXHardware model number:	OX4-SRSoftware version number:	ORYX F/W v4.00 Oryx Data Collector v3.7.2.0data status	okinstallation	princeton_trtdifferential loss correction	single-endedforward channel	channel 2reverse channel	N/Adate	2019/09/11time	16:33:11forward acquisition time	60.00reverse acquisition time	0.00gamma	496.2192k internal	0.2284k external	0.2284temperature offset calibration	1.0018default loss term (dB/km)	0.3790temperature slope calibration	1.0000multiplexer offset coefficient	1.0000multiplexer slope coefficient	1.0000fibre end	0.00T internal ref (°C)	43.69T ext. ref 1 (°C)	1.08T ext. ref 2 (°C)	39.54length (m)	temperature (°C)	Stokes	anti-Stokes-747.200	21.646	0.241	0.202
-746.185	523.227	-0.099	0.240
-745.171	-164.372	-0.203	-0.010
-744.156	300.988	0.166	0.315
-743.142	800.000	-0.050	0.208
-742.127	58.578	-0.185	0.187
-741.112	178.690	-0.153	-0.230
-740.098	-200.000	-0.047	0.378
-739.083	151.785	-0.184	0.257
-738.069	335.616	-0.111	0.221
-737.054	-110.794	-0.170	0.036
-736.039	-200.000	-0.039	0.256
-735.025	-84.468	-0.093	0.030
-734.010	-193.308	-0.201	0.002
-732.996	-60.067	0.062	-0.027
-731.981	609.131	-0.013	0.034
-730.966	71.041	0.080	0.085
-729.952	287.213	-0.204	0.378
-728.937	215.850	0.056	0.091
-727.923	-21.797	0.380	-0.237
-726.908	425.960	-0.099	-0.218
-725.894	292.303	0.125	-0.234
-724.879	800.000	0.140	-0.412
-723.864	-10.213	-0.094	-0.064
-722.850	18.429	0.064	-0.053
-721.835	-129.638	0.155	0.022
-720.821	7.726	-0.122	0.094
-719.806	-60.752	-0.237	0.103
-718.791	-40.752	-0.041	0.022
-717.777	800.000	-0.105	0.349
-716.762	-200.000	0.018	-0.158
-715.748	240.215	-0.120	-0.205
-714.733	-200.000	0.047	-0.248
-713.718	-200.000	0.009	-0.083
-712.704	-148.918	0.244	-0.020
-711.689	800.000	-0.045	0.172
-710.675	-200.000	0.025	-0.213
-709.660	-200.000	-0.056	0.332
-708.645	173.902	-0.147	0.218
-707.631	-200.000	-0.022	0.278
-706.616	-88.586	0.061	0.019
-705.602	243.027	0.079	-0.135
-704.587	-200.000	0.003	-0.078
-703.572	-189.274	0.108	-0.001
-702.558	85.442	-0.073	0.082
-701.543	334.547	-0.175	-0.348
-700.529	-9.478	0.019	-0.013
-699.514	469.935	0.085	-0.195
-698.499	393.787	-0.037	0.080
-697.485	-69.081	-0.021	0.008
-696.470	354.002	-0.064	-0.131
-695.456	692.978	0.124	-0.333
-694.441	-152.419	0.273	0.020
-693.426	-70.581	-0.227	-0.088
-692.412	215.305	-0.088	0.144
-691.397	-57.016	0.131	-0.059
-690.383	800.000	-0.156	0.554
-689.368	494.645	-0.037	0.088
-688.354	-42.795	0.262	0.137
-687.339	-165.714	-0.270	-0.012
-686.324	-117.917	-0.168	0.031
-685.310	800.000	-0.015	0.052
-684.295	17.042	0.194	0.157
-683.281	-60.704	-0.191	-0.083
-682.266	619.426	-0.099	-0.256
-681.251	-17.772	-0.440	-0.283
-680.237	-200.000	-0.016	0.230
-679.222	40.570	0.088	-0.081
-678.208	-131.180	0.208	-0.028
-677.193	56.847	0.170	-0.169
-676.178	-31.073	-0.198	0.115
-675.164	299.683	0.140	0.264
-674.149	189.376	-0.061	0.093
-673.135	-97.805	-0.337	-0.089
-672.120	-134.273	-0.210	0.026
-671.105	800.000	0.035	-0.109
-670.091	6.643	0.038	0.029
-669.076	230.939	-0.226	-0.378
-668.062	-6.792	-0.070	0.049
-667.047	322.849	-0.079	-0.154
-666.032	116.044	-0.189	0.236
-665.018	-174.417	0.175	-0.005
-664.003	-54.537	0.139	-0.065
-662.989	-159.140	-0.201	0.012
-661.974	-72.083	-0.034	-0.013
-660.959	-85.708	-0.281	0.089
-659.945	220.323	0.172	0.283
-658.930	296.947	0.104	0.195
-657.916	-106.667	-0.243	0.055
-656.901	129.666	-0.125	-0.164
-655.886	800.000	-0.076	-0.328
-654.872	-59.571	0.124	0.055
-653.857	471.122	-0.175	-0.404
-652.843	800.000	-0.037	-0.107
-651.828	-94.305	-0.424	-0.119
-650.814	-200.000	0.063	-0.407
-649.799	-43.232	-0.341	-0.177
-648.784	121.368	-0.051	-0.065
-647.770	-97.912	-0.374	0.099
-646.755	397.009	-0.189	0.405
-645.741	-100.139	-0.290	0.074
-644.726	-89.831	0.090	-0.027
-643.711	-200.000	-0.005	-0.107
-642.697	-165.957	0.146	0.006
-641.682	-154.184	0.211	0.015
-640.668	800.000	-0.072	0.271
-639.653	-138.931	0.161	0.018
-638.638	563.175	0.039	-0.096
-637.624	800.000	-0.112	-0.330
-636.609	-25.550	0.442	-0.267
-635.595	538.542	-0.106	0.259
-634.580	-7.498	-0.161	0.112
-633.565	79.141	-0.382	-0.419
-632.551	28.247	-0.028	-0.024
-631.536	109.169	0.236	-0.289
-630.522	800.000	0.058	0.166
-629.507	-200.000	0.012	-0.325
-628.492	176.746	0.057	-0.084
-627.478	383.656	-0.095	0.200
-626.463	-60.639	0.235	-0.102
-625.449	800.000	0.086	-0.287
-624.434	-200.000	0.011	-0.115
-623.419	-23.557	-0.237	0.145
-622.405	-200.000	-0.028	-0.505
-621.390	800.000	-0.151	-0.465
-620.376	800.000	0.020	-0.074
-619.361	-95.642	0.301	0.082
-618.346	-200.000	-0.038	-0.245
-617.332	-74.292	-0.119	0.044
-616.317	194.072	0.324	-0.501
-615.303	35.552	-0.162	-0.146
-614.288	110.805	-0.226	-0.278
-613.273	-46.544	-0.178	-0.089
-612.259	661.984	-0.016	0.043
-611.244	-103.893	0.149	0.036
-610.230	-185.653	-0.098	0.002
-609.215	33.258	-0.156	-0.138
-608.201	462.770	-0.105	-0.240
-607.186	215.692	0.232	-0.376
-606.171	296.391	-0.071	0.132
-605.157	27.410	-0.168	0.145
-604.142	-59.105	-0.265	0.117
-603.128	800.000	-0.077	-0.219
-602.113	17.996	0.133	0.108
-601.098	-133.745	-0.334	0.042
-600.084	44.508	-0.340	-0.319
-599.069	-200.000	0.000	-0.258
-598.055	-76.148	0.204	-0.074
-597.040	-107.133	-0.189	-0.043
-596.025	41.995	-0.119	-0.111
-595.011	180.132	-0.089	0.133
-593.996	-200.000	-0.051	-0.307
-592.982	-48.700	0.181	-0.089
-591.967	-99.864	0.284	0.073
-590.952	172.306	0.179	-0.262
-589.938	266.499	-0.186	-0.331
-588.923	11.124	-0.085	0.067
-587.909	-200.000	0.036	0.245
-586.894	325.271	-0.084	-0.164
-585.879	-31.179	0.042	-0.024
-584.865	-50.749	0.187	-0.090
-583.850	-75.243	0.191	0.070
-582.836	-200.000	0.107	0.634
-581.821	81.222	0.187	-0.207
-580.806	-50.522	0.171	0.082
-579.792	-200.000	-0.053	0.412
-578.777	-176.136	-0.151	-0.004
-577.763	22.009	0.096	0.080
-576.748	176.571	0.088	-0.130
-575.733	145.830	-0.135	-0.184
-574.719	-143.059	-0.270	0.027
-573.704	-7.660	-0.143	-0.099
-572.690	-82.915	0.186	0.061
-571.675	-109.872	-0.136	-0.029
-570.661	-200.000	0.113	-0.554
-569.646	-103.572	0.147	0.035
-568.631	-37.563	-0.120	-0.065
-567.617	660.199	-0.054	-0.142
-566.602	-135.800	-0.050	0.006
-565.588	-94.861	0.115	-0.032
-564.573	92.005	0.157	-0.181
-563.558	-23.253	0.275	0.169
-562.544	800.000	-0.009	-0.029
-561.529	61.759	0.048	0.049
-560.515	800.000	0.030	0.101
-559.500	250.382	0.085	0.147
-558.485	800.000	-0.112	0.332
-557.471	-118.809	-0.191	0.034
-556.456	-158.080	0.244	-0.015
-555.442	133.444	-0.168	-0.222
-554.427	-200.000	0.015	0.128
-553.412	-59.333	0.094	0.041
-552.398	39.142	0.110	0.101
-551.383	-200.000	-0.007	0.126
-550.369	800.000	0.021	-0.062
-549.354	145.393	0.061	0.083
-548.339	178.565	0.116	0.172
-547.325	-70.731	0.288	0.111
-546.310	3.300	-0.161	-0.119
-545.296	121.743	0.053	0.067
-544.281	-132.717	0.130	-0.017
-543.266	800.000	-0.031	-0.093
-542.252	-200.000	0.048	0.431
-541.237	-138.796	-0.383	-0.043
-540.223	33.140	0.156	0.138
-539.208	-124.694	-0.250	0.039
-538.193	482.987	-0.091	-0.210
-537.179	-200.000	-0.004	0.314
-536.164	800.000	0.098	-0.311
-535.150	292.265	-0.113	0.209
-534.135	-52.727	0.230	-0.108
-533.121	189.257	-0.094	-0.143
-532.106	-194.889	-0.125	0.001
-531.091	149.509	0.129	0.178
-530.077	-9.408	-0.204	0.139
-529.062	-142.307	0.194	-0.020
-528.048	96.862	0.044	-0.051
-527.033	36.768	0.290	0.261
-526.018	89.784	-0.233	-0.265
-525.004	-90.214	0.233	0.069
-523.989	124.052	-0.129	0.166
-522.975	-200.000	-0.008	0.279
-521.960	800.000	-0.050	0.185
-520.945	800.000	0.071	0.201
-519.931	65.586	-0.238	0.245
-518.916	-119.318	-0.346	-0.061
-517.902	-155.466	-0.125	-0.008
-516.887	-76.786	-0.269	-0.096
-515.872	-200.000	-0.045	-0.381
-514.858	-91.741	-0.116	-0.034
-513.843	303.637	0.036	0.069
-512.829	-29.322	-0.226	0.132
-511.814	263.545	-0.055	0.098
-510.799	9.431	-0.158	-0.122
-509.785	-144.168	-0.475	0.045
-508.770	338.934	0.030	-0.060
-507.756	293.791	-0.085	-0.158
-506.741	-0.222	-0.163	-0.118
-505.726	800.000	0.014	0.061
-504.712	-60.453	0.160	0.069
-503.697	-126.105	-0.174	0.027
-502.683	-17.493	0.178	0.114
-501.668	3.125	0.153	-0.113
-500.653	-200.000	0.009	-0.098
-499.639	-200.000	-0.011	0.172
-498.624	-200.000	0.097	0.480
-497.610	0.701	0.088	-0.064
-496.595	32.127	0.124	0.109
-495.581	-146.033	-0.306	0.028
-494.566	81.275	0.075	0.082
-493.551	-157.795	0.176	0.011
-492.537	354.886	0.105	0.212
-491.522	-200.000	-0.015	0.253
-490.508	123.392	0.263	-0.335
-489.493	-145.056	-0.087	0.008
-488.478	-43.000	0.183	0.094
-487.464	-54.983	0.202	0.093
-486.449	209.648	-0.144	-0.230
-485.435	504.477	0.038	0.089
-484.420	79.314	-0.343	0.374
-483.405	-197.349	0.079	-0.001
-482.391	763.374	0.059	-0.163
-481.376	158.371	0.072	-0.101
-480.362	102.751	-0.294	-0.350
-479.347	20.260	0.093	-0.076
-478.332	-105.068	-0.051	0.012
-477.318	-13.649	0.151	-0.099
-476.303	-27.654	-0.258	-0.152
-475.289	44.735	-0.067	0.062
-474.274	57.686	0.105	-0.104
-473.259	134.995	0.098	0.129
-472.245	-63.128	-0.169	0.071
-471.230	-17.013	-0.050	-0.032
-470.216	-109.151	0.219	-0.047
-469.201	139.289	-0.189	0.253
-468.186	237.723	-0.200	0.337
-467.172	-174.494	0.384	-0.011
-466.157	-121.219	-0.026	0.004
-465.143	-200.000	-0.006	0.264
-464.128	800.000	-0.145	0.438
-463.113	-100.357	-0.319	-0.080
-462.099	-200.000	0.068	-0.303
-461.084	800.000	-0.034	-0.126
-460.070	-200.000	-0.083	0.510
-459.055	13.621	-0.064	-0.051
-458.040	-142.330	0.289	0.029
-457.026	-25.737	0.288	-0.173
-456.011	-72.126	-0.092	-0.035
-454.997	280.596	-0.079	-0.144
-453.982	-200.000	-0.022	0.386
-452.968	56.089	-0.315	0.310
-451.953	-200.000	0.012	0.291
-450.938	400.394	0.077	0.164
-449.924	-51.833	-0.068	-0.032
-448.909	-50.277	0.227	0.109
-447.895	-87.371	-0.201	0.062
-446.880	-116.193	0.260	-0.049
-445.865	-66.648	0.524	-0.211
-444.851	171.861	0.215	0.314
-443.836	29.603	0.121	-0.105
-442.822	-117.504	0.264	0.048
-441.807	196.412	0.128	-0.197
-440.792	800.000	-0.050	-0.200
-439.778	-200.000	-0.007	0.285
-438.763	185.566	0.285	-0.430
-437.749	623.980	-0.043	-0.110
-436.734	115.208	0.152	-0.188
-435.719	-113.922	0.123	0.024
-434.705	13.023	-0.145	-0.113
-433.690	-3.512	-0.176	-0.124
-432.676	-200.000	-0.048	-0.241
-431.661	-107.129	0.128	0.029
-430.646	-200.000	0.020	-0.216
-429.632	-196.882	0.107	-0.001
-428.617	-200.000	0.020	0.106
-427.603	-28.796	-0.201	-0.117
-426.588	800.000	0.054	-0.178
-425.573	-8.101	-0.420	-0.287
-424.559	-167.795	-0.347	0.014
-423.544	-200.000	0.005	-0.205
-422.530	-129.321	-0.406	-0.057
-421.515	-147.078	0.184	-0.016
-420.500	289.482	0.096	0.177
-419.486	-139.920	-0.190	0.020
-418.471	191.821	-0.204	-0.312
-417.457	465.670	0.071	-0.161
-416.442	-120.782	-0.066	0.011
-415.428	454.475	0.106	0.239
-414.413	-140.501	0.255	-0.027
-413.398	378.430	-0.071	0.147
-412.384	76.606	-0.329	-0.353
-411.369	-200.000	0.019	-0.277
-410.355	362.174	0.043	-0.088
-409.340	-200.000	0.034	0.194
-408.325	245.001	-0.207	-0.352
-407.311	-68.806	0.148	-0.058
-406.296	392.007	0.077	-0.162
-405.282	-52.594	0.297	-0.139
-404.267	7.104	-0.216	-0.163
-403.252	-13.805	-0.053	0.035
-402.238	-200.000	-0.038	0.303
-401.223	132.663	-0.194	-0.254
-400.209	800.000	0.057	-0.193
-399.194	-200.000	0.023	-0.529
-398.179	487.849	0.111	0.258
-397.165	86.570	0.238	0.266
-396.150	67.248	0.201	-0.207
-395.136	507.830	-0.013	-0.030
-394.121	-110.469	-0.137	-0.029
-393.106	-40.353	-0.377	-0.198
-392.092	-21.114	0.173	-0.107
-391.077	-24.508	0.200	0.121
-390.063	-80.148	-0.558	0.189
-389.048	800.000	0.047	-0.153
-388.033	-200.000	0.014	0.180
-387.019	800.000	-0.013	0.039
-386.004	77.817	-0.196	0.211
-384.990	800.000	-0.051	0.145
-383.975	-0.082	-0.157	0.114
-382.960	-82.875	-0.079	0.026
-381.946	-110.621	-0.269	0.056
-380.931	-100.365	0.524	0.132
-379.917	-200.000	-0.013	-0.070
-378.902	154.786	-0.208	-0.289
-377.888	539.531	-0.117	0.281
-376.873	-200.000	0.037	0.194
-375.858	-166.552	0.259	0.011
-374.844	-91.538	-0.215	0.062
-373.829	-200.000	-0.045	0.220
-372.815	-77.150	-0.101	0.036
-371.800	800.000	-0.039	-0.111
-370.785	-190.993	-0.270	0.003
-369.771	339.026	0.253	-0.499
-368.756	6.156	0.215	-0.161
-367.742	-200.000	-0.035	-0.486
-366.727	-117.797	-0.163	-0.030
-365.712	-88.997	0.229	-0.069
-364.698	56.428	-0.212	-0.208
-363.683	-103.991	-0.159	0.038
-362.669	23.083	-0.220	0.183
-361.654	145.950	0.218	0.296
-360.639	-23.768	-0.123	-0.074
-359.625	-136.935	0.288	-0.033
-358.610	-122.430	-0.294	0.049
-357.596	-200.000	0.025	-0.312
-356.581	-200.000	0.005	-0.190
-355.566	61.277	-0.107	0.108
-354.552	-200.000	-0.012	0.128
-353.537	185.185	0.102	0.153
-352.523	303.155	-0.165	0.309
-351.508	800.000	-0.014	0.041
-350.493	-157.529	-0.384	0.023
-349.479	-123.529	0.092	-0.015
-348.464	-200.000	0.012	0.296
-347.450	84.997	0.199	-0.221
-346.435	-96.465	-0.169	-0.045
-345.420	37.007	-0.096	-0.086
-344.406	-110.018	-0.195	-0.041
-343.391	-138.331	0.384	0.043
-342.377	324.238	-0.130	-0.251
-341.362	-97.782	-0.086	-0.022
-340.348	113.897	-0.091	-0.111
-339.333	150.006	-0.246	-0.338
-338.318	-200.000	-0.017	0.209
-337.304	-200.000	-0.016	0.143
-336.289	-61.529	0.220	0.093
-335.275	-25.159	0.402	0.241
-334.260	-8.741	0.117	-0.079
-333.245	-24.124	0.307	-0.185
-332.231	-169.191	-0.120	0.004
-331.216	-157.941	-0.227	-0.014
-330.202	-42.607	0.346	0.178
-329.187	-7.253	0.064	-0.044
-328.172	-123.867	-0.311	-0.050
-327.158	293.748	0.051	0.095
-326.143	185.093	-0.086	-0.129
-325.129	-85.625	0.349	0.110
-324.114	712.272	0.077	0.205
-323.099	-57.318	-0.508	0.225
-322.085	800.000	-0.053	0.195
-321.070	70.469	-0.075	-0.078
-320.056	20.724	-0.234	-0.191
-319.041	-200.000	-0.032	0.205
-318.026	89.567	-0.204	-0.230
-317.012	-200.000	0.005	0.131
-315.997	299.392	0.170	0.316
-314.983	18.192	-0.275	0.222
-313.968	800.000	-0.051	-0.206
-312.953	342.698	-0.123	0.243
-311.939	-14.115	0.114	0.074
-310.924	304.544	-0.014	0.027
-309.910	-28.203	0.115	-0.067
-308.895	-169.097	0.358	0.013
-307.880	37.406	-0.333	-0.298
-306.866	170.417	-0.147	0.213
-305.851	800.000	0.035	-0.124
-304.837	-15.148	0.284	-0.183
-303.822	56.101	0.204	-0.200
-302.807	-200.000	0.063	0.368
-301.793	23.239	-0.094	0.078
-300.778	-200.000	-0.022	0.220
-299.764	-165.655	-0.021	0.001
-298.749	34.326	0.305	0.269
-297.735	60.815	0.098	-0.098
-296.720	-24.465	-0.150	0.090
-295.705	212.037	0.084	0.134
-294.691	-106.343	0.227	-0.051
-293.676	-89.133	0.194	0.058
-292.662	-200.000	-0.032	-0.156
-291.647	-200.000	-0.023	-0.232
-290.632	34.675	-0.175	-0.155
-289.618	97.925	0.189	0.219
-288.603	77.599	-0.071	-0.076
-287.589	-200.000	-0.028	-0.474
-286.574	285.853	0.235	0.427
-285.559	22.482	-0.204	0.168
-284.545	35.412	0.103	0.091
-283.530	-200.000	-0.043	0.255
-282.516	-86.557	0.273	0.084
-281.501	61.245	0.244	-0.245
-280.486	-163.909	0.194	0.009
-279.472	-126.316	0.191	-0.029
-278.457	-200.000	0.086	0.426
-277.443	-200.000	0.013	0.100
-276.428	566.194	-0.115	0.282
-275.413	-200.000	0.007	0.242
-274.399	178.315	-0.112	0.165
-273.384	-88.863	-0.075	0.023
-272.370	800.000	-0.056	0.236
-271.355	-182.592	-0.208	-0.004
-270.340	37.855	0.156	0.140
-269.326	800.000	-0.126	0.377
-268.311	-170.483	-0.153	-0.005
-267.297	340.890	-0.104	-0.204
-266.282	72.931	-0.131	0.138
-265.267	-43.903	-0.134	-0.068
-264.253	467.933	0.019	0.044
-263.238	18.904	-0.128	0.103
-262.224	131.872	0.255	-0.331
-261.209	800.000	0.059	-0.230
-260.195	-163.836	0.155	-0.007
-259.180	800.000	-0.057	0.166
-258.165	-200.000	0.006	-0.341
-257.151	-109.924	0.153	-0.032
-256.136	-200.000	-0.052	-0.278
-255.122	85.458	0.173	-0.192
-254.107	-185.896	-0.182	-0.003
-253.092	300.312	-0.036	-0.068
-252.078	800.000	0.042	0.139
-251.063	91.188	-0.224	0.253
-250.049	154.242	0.210	-0.290
-249.034	800.000	0.038	-0.124
-248.019	-110.734	0.119	0.025
-247.005	-41.802	0.209	-0.108
-245.990	-87.744	-0.201	-0.061
-244.976	-200.000	0.029	-0.220
-243.961	-146.978	0.219	0.019
-242.946	74.542	-0.063	-0.066
-241.932	-152.101	-0.130	-0.010
-240.917	66.410	-0.211	0.216
-239.903	-70.708	-0.086	-0.033
-238.888	-89.440	0.363	0.108
-237.873	-28.421	0.306	0.178
-236.859	4.460	0.395	-0.292
-235.844	44.232	-0.166	0.153
-234.830	145.270	0.324	0.437
-233.815	113.281	0.063	0.077
-232.800	181.424	-0.031	0.046
-231.786	-56.056	-0.170	-0.076
-230.771	-200.000	-0.045	-0.344
-229.757	-5.575	0.194	0.134
-228.742	800.000	0.100	0.331
-227.727	45.031	0.159	-0.147
-226.713	-61.385	0.432	-0.183
-225.698	124.866	0.014	-0.018
-224.684	183.095	0.103	-0.153
-223.669	-62.516	-0.146	0.061
-222.655	315.084	0.095	0.181
-221.640	-200.000	0.004	-0.062
-220.625	57.892	-0.422	-0.416
-219.611	152.425	0.122	-0.168
-218.596	21.227	-0.043	-0.035
-217.582	-6.059	0.191	-0.132
-216.567	-174.347	-0.178	-0.005
-215.552	-137.629	0.109	0.012
-214.538	-76.141	0.216	0.077
-213.523	-51.321	0.190	0.089
-212.509	-200.000	0.028	0.191
-211.494	800.000	0.004	-0.016
-210.479	-147.596	-0.264	-0.022
-209.465	15.869	-0.097	0.077
-208.450	194.409	0.130	0.199
-207.436	-33.205	-0.205	-0.114
-206.421	-61.298	0.337	0.143
-205.406	7.112	0.169	0.127
-204.392	-51.210	-0.196	0.092
-203.377	-200.000	0.035	0.272
-202.363	-200.000	0.018	-0.146
-201.348	-82.562	-0.048	0.016
-200.333	-76.385	0.160	0.057
-199.319	-117.482	0.144	-0.026
-198.304	-200.000	0.010	-0.075
-197.290	65.645	-0.102	-0.104
-196.275	28.245	-0.250	-0.212
-195.260	460.932	-0.047	0.106
-194.246	336.322	0.074	0.144
-193.231	-22.739	0.229	-0.139
-192.217	800.000	-0.033	-0.137
-191.202	-200.000	0.050	0.231
-190.187	-155.083	0.075	0.005
-189.173	-109.245	-0.098	-0.021
-188.158	407.894	-0.107	0.228
-187.144	8.444	0.043	0.032
-186.129	-155.125	0.196	-0.013
-185.114	800.000	-0.081	0.308
-184.100	-200.000	-0.024	0.229
-183.085	-82.238	-0.343	0.112
-182.071	-102.054	0.311	0.075
-181.056	-8.484	-0.359	0.242
-180.042	395.461	0.087	-0.183
-179.027	-49.434	0.299	-0.143
-178.012	174.811	-0.147	0.213
-176.998	87.393	0.071	0.079
-175.983	-200.000	-0.005	-0.140
-174.969	-200.000	0.039	-0.176
-173.954	233.422	0.205	0.339
-172.939	2.532	-0.059	0.043
-171.925	277.017	0.025	-0.044
-170.910	60.554	-0.149	0.148
-169.896	-12.928	-0.126	-0.083
-168.881	291.688	0.116	0.212
-167.866	-90.699	0.170	0.049
-166.852	-67.170	0.170	-0.067
-165.837	-57.344	-0.333	0.147
-164.823	-129.606	-0.212	0.029
-163.808	800.000	-0.056	0.205
-162.793	800.000	0.135	0.503
-161.779	-55.783	0.433	-0.194
-160.764	123.884	-0.177	-0.223
-159.750	-74.007	0.171	0.062
-158.735	-200.000	0.024	-0.269
-157.720	421.206	0.085	-0.183
-156.706	-200.000	0.024	0.181
-155.691	23.566	-0.231	0.191
-154.677	38.917	0.270	-0.242
-153.662	76.510	0.224	-0.238
-152.647	228.891	-0.124	0.203
-151.633	141.022	-0.091	0.121
-150.618	-200.000	-0.051	-0.324
-149.604	-20.877	-0.281	-0.173
-148.589	-74.266	-0.276	0.100
-147.574	-97.935	0.285	0.074
-146.560	-123.612	0.218	-0.035
-145.545	800.000	0.076	-0.264
-144.531	567.788	-0.055	0.134
-143.516	2.814	0.200	-0.145
-142.502	73.988	-0.098	-0.103
-141.487	5.521	-0.231	-0.171
-140.472	-132.002	-0.171	-0.022
-139.458	24.922	-0.145	-0.121
-138.443	-63.852	-0.010	0.004
-137.429	-159.551	0.136	0.008
-136.414	800.000	-0.051	-0.204
-135.399	800.000	-0.042	0.145
-134.385	-84.432	0.188	0.060
-133.370	116.308	-0.168	0.206
-132.356	-200.000	0.012	0.181
-131.341	7.924	0.164	0.123
-130.326	-37.147	0.299	0.161
-129.312	800.000	-0.041	-0.145
-128.297	-71.778	0.117	0.044
-127.283	273.606	0.059	0.105
-126.268	-200.000	-0.056	0.298
-125.253	-200.000	-0.040	0.175
-124.239	-156.438	0.342	-0.021
-123.224	-200.000	-0.028	0.286
-122.210	97.739	0.050	0.058
-121.195	800.000	-0.040	0.141
-120.180	-200.000	-0.003	0.065
-119.166	90.779	0.239	0.269
-118.151	-71.319	-0.243	-0.091
-117.137	-71.971	0.059	-0.022
-116.122	-106.411	-0.056	0.013
-115.107	-200.000	-0.046	0.322
-114.093	800.000	-0.034	-0.143
-113.078	800.000	0.025	0.106
-112.064	37.123	-0.201	-0.179
-111.049	18.315	0.083	-0.066
-110.034	-3.661	-0.160	0.112
-109.020	800.000	-0.051	-0.155
-108.005	-68.996	0.163	-0.063
-106.991	-50.417	-0.086	-0.041
-105.976	800.000	-0.018	-0.077
-104.962	100.464	0.100	-0.116
-103.947	-128.793	0.289	0.041
-102.932	-106.016	-0.262	-0.059
-101.918	305.932	-0.086	0.159
-100.903	-10.331	0.184	0.122
-99.889	-105.741	0.140	0.032
-98.874	145.292	0.115	0.154
-97.859	61.352	0.183	0.182
-96.845	-200.000	0.012	0.202
-95.830	55.203	0.105	0.102
-94.816	-113.380	-0.109	0.021
-93.801	-200.000	-0.043	-0.284
-92.786	500.946	0.057	0.132
-91.772	-154.869	0.140	0.009
-90.757	-94.622	-0.115	-0.031
-89.743	800.000	0.074	0.319
-88.728	-46.391	-0.202	0.099
-87.713	800.000	0.022	-0.076
-86.699	186.186	0.252	-0.376
-85.684	467.577	0.126	0.282
-84.670	5.032	0.343	0.253
-83.655	-200.000	-0.004	0.302
-82.640	-113.176	-0.189	-0.037
-81.626	-200.000	-0.027	0.305
-80.611	-110.425	0.418	0.087
-79.597	213.044	0.148	-0.234
-78.582	-200.000	-0.029	-0.158
-77.567	-200.000	-0.021	0.121
-76.553	367.459	0.124	-0.251
-75.538	-200.000	-0.005	-0.072
-74.524	-58.855	-0.168	-0.073
-73.509	-200.000	0.030	-0.197
-72.494	-82.627	0.127	0.041
-71.480	101.696	0.254	0.296
-70.465	387.023	-0.071	-0.147
-69.451	-156.648	0.334	-0.021
-68.436	63.065	0.047	-0.048
-67.422	-74.215	-0.321	0.116
-66.407	-56.646	0.278	0.123
-65.392	205.447	-0.149	0.232
-64.378	-200.000	0.067	0.389
-63.363	800.000	-0.041	0.131
-62.349	-159.989	-0.100	-0.005
-61.334	12.443	-0.620	-0.478
-60.319	-49.676	0.188	0.090
-59.305	260.901	-0.385	-0.666
-58.290	153.173	0.577	0.789
-57.276	-200.000	0.351	1.550
-56.261	-200.000	70.800	521.178
-55.246	600.203	1272.177	3157.602
-54.232	146.031	2499.655	3352.111
-53.217	114.849	2342.701	2856.415
-52.203	53.575	1961.242	1881.283
-51.188	47.390	1748.379	1628.597
-50.173	44.247	1700.730	1560.052
-49.159	57.681	1731.413	1692.220
-48.144	64.653	1749.811	1763.902
-47.130	47.038	1715.168	1594.693
-46.115	43.700	1701.859	1556.629
-45.100	43.518	1696.672	1550.431
-44.086	43.541	1694.051	1548.146
-43.071	43.444	1691.772	1545.264
-42.057	43.459	1689.335	1543.087
-41.042	43.527	1687.428	1541.808
-40.027	43.511	1685.165	1539.557
-39.013	43.486	1683.236	1537.544
-37.998	43.547	1681.413	1536.281
-36.984	43.626	1679.779	1535.325
-35.969	43.725	1678.394	1534.749
-34.954	43.664	1677.362	1533.285
-33.940	43.689	1675.150	1531.388
-32.925	43.576	1673.222	1528.712
-31.911	43.713	1671.437	1528.053
-30.896	43.674	1669.780	1526.185
-29.881	43.665	1668.060	1524.481
-28.867	43.665	1666.500	1523.000
-27.852	43.738	1664.663	1521.809
-26.838	43.662	1663.796	1520.382
-25.823	43.713	1662.161	1519.210
-24.809	43.668	1660.638	1517.423
-23.794	43.783	1659.045	1516.765
-22.779	43.840	1657.015	1515.278
-21.765	43.666	1655.877	1512.878
-20.750	43.687	1654.030	1511.281
-19.736	43.783	1652.553	1510.590
-18.721	43.777	1650.712	1508.807
-17.706	43.770	1649.759	1507.819
-16.692	43.687	1647.788	1505.344
-15.677	43.771	1646.300	1504.547
-14.663	43.668	1645.875	1503.331
-13.648	43.683	1644.214	1501.869
-12.633	43.728	1642.344	1500.432
-11.619	43.750	1640.632	1498.972
-10.604	43.655	1639.559	1497.233
-9.590	43.703	1638.000	1496.102
-8.575	43.736	1636.762	1495.159
-7.560	43.719	1635.558	1493.869
-6.546	43.692	1634.393	1492.549
-5.531	43.719	1633.125	1491.528
-4.517	43.726	1632.043	1490.535
-3.502	43.631	1630.620	1488.477
-2.487	43.762	1629.356	1488.226
-1.473	43.816	1618.268	1478.432
-0.458	41.669	1598.649	1444.941
0.556	36.772	1596.278	1406.895
1.571	33.554	1620.072	1403.954
2.586	32.729	1634.353	1410.040
3.600	28.517	1580.879	1333.238
4.615	15.578	1459.123	1143.012
5.629	3.537	1381.519	1004.141
6.644	1.258	1370.926	981.620
7.659	1.117	1369.333	979.481
8.673	1.040	1367.630	977.683
9.688	0.896	1366.430	975.807
10.702	0.623	1364.117	972.311
11.717	4.535	1372.138	1003.237
12.731	15.721	1393.156	1091.492
13.746	23.700	1406.512	1153.926
14.761	24.708	1407.162	1160.904
15.775	24.848	1406.876	1161.473
16.790	24.920	1405.979	1161.093
17.804	24.975	1405.732	1161.148
18.819	25.187	1405.196	1161.977
19.834	25.217	1404.468	1161.463
20.848	25.182	1404.095	1160.823
21.863	25.250	1402.753	1160.054
22.877	25.240	1402.005	1159.267
23.892	25.252	1400.940	1158.363
24.907	25.291	1400.005	1157.741
25.921	25.219	1399.441	1156.705
26.936	25.253	1398.469	1156.016
27.950	25.212	1397.430	1154.790
28.965	25.249	1396.244	1153.946
29.980	25.222	1394.659	1152.362
30.994	25.198	1393.669	1151.290
32.009	25.213	1392.233	1150.097
33.023	25.154	1391.200	1148.761
34.038	25.207	1390.206	1148.180
35.053	25.245	1389.213	1147.500
36.067	25.215	1388.279	1146.439
37.082	25.141	1387.126	1144.913
38.096	25.191	1385.917	1144.128
39.111	25.242	1385.179	1143.743
40.126	25.297	1384.186	1143.177
41.140	25.236	1384.187	1142.684
42.155	25.174	1383.984	1142.021
43.169	25.270	1383.906	1142.466
44.184	25.115	1383.631	1141.157
45.199	25.215	1382.864	1141.054
46.213	25.252	1382.205	1140.647
47.228	25.189	1381.420	1139.498
48.242	25.294	1379.845	1138.762
49.257	25.207	1378.810	1137.258
50.271	25.148	1377.589	1135.776
51.286	25.223	1376.053	1134.882
52.301	25.161	1374.790	1133.347
53.315	25.089	1374.429	1132.495
54.330	25.170	1373.357	1132.025
55.344	25.230	1371.709	1130.942
56.359	25.174	1371.078	1129.970
57.374	25.187	1370.142	1129.181
58.388	25.113	1369.751	1128.294
59.403	25.261	1369.073	1128.567
60.417	25.149	1368.621	1127.388
61.432	25.132	1367.664	1126.394
62.447	25.189	1366.852	1125.982
63.461	25.234	1365.539	1125.084
64.476	25.191	1364.636	1123.975
65.490	25.211	1363.425	1122.998
66.505	25.298	1361.720	1122.042
67.520	25.294	1360.515	1120.923
68.534	25.200	1359.753	1119.607
69.549	25.152	1358.919	1118.527
70.563	25.222	1358.006	1118.110
71.578	25.340	1356.642	1117.627
72.593	25.250	1355.978	1116.415
73.607	25.212	1355.944	1116.056
74.622	25.269	1354.404	1115.042
75.636	25.170	1353.988	1113.987
76.651	25.207	1353.449	1113.672
77.666	25.119	1353.019	1112.673
78.680	25.201	1352.089	1112.323
79.695	25.172	1351.354	1111.440
80.709	25.227	1350.669	1111.114
81.724	25.253	1349.760	1110.430
82.739	25.186	1349.340	1109.572
83.753	25.154	1347.918	1108.110
84.768	25.216	1346.688	1107.384
85.782	25.170	1345.878	1106.333
86.797	25.219	1344.612	1105.495
87.812	25.281	1343.033	1104.485
88.826	25.178	1342.379	1103.212
89.841	25.244	1341.133	1102.498
90.855	25.195	1340.341	1101.445
91.870	25.270	1339.549	1101.161
92.884	25.199	1338.850	1100.052
93.899	25.211	1338.271	1099.554
94.914	25.335	1337.104	1099.257
95.928	25.282	1336.055	1097.970
96.943	25.261	1335.800	1097.537
97.957	25.175	1335.275	1096.484
98.972	25.246	1334.264	1095.991
99.987	25.248	1333.134	1094.978
101.001	25.269	1332.025	1094.097
102.016	25.226	1331.323	1093.158
103.030	25.188	1330.219	1091.925
104.045	25.252	1329.483	1091.617
105.060	25.263	1328.692	1090.936
106.074	25.270	1327.386	1089.811
107.089	25.297	1326.447	1089.106
108.103	25.296	1325.527	1088.246
109.118	25.309	1324.115	1087.069
110.133	25.366	1323.105	1086.494
111.147	25.345	1321.573	1085.009
112.162	25.404	1320.746	1084.594
113.176	25.293	1319.865	1083.101
114.191	25.301	1318.879	1082.245
115.206	25.393	1317.689	1081.728
116.220	25.331	1316.966	1080.664
117.235	25.334	1315.981	1079.776
118.249	25.415	1314.913	1079.294
119.264	25.348	1314.308	1078.298
120.279	25.291	1313.736	1077.393
121.293	25.404	1312.892	1077.282
122.308	25.345	1312.189	1076.257
123.322	25.361	1311.282	1075.512
124.337	25.393	1310.385	1074.878
125.352	25.312	1309.884	1073.884
126.366	25.306	1308.926	1072.968
127.381	25.394	1307.714	1072.404
128.395	25.379	1306.938	1071.584
129.410	25.306	1306.510	1070.700
130.424	25.470	1304.896	1070.262
131.439	25.440	1304.353	1069.544
132.454	25.378	1303.839	1068.656
133.468	25.409	1303.278	1068.291
134.483	25.361	1302.774	1067.493
135.497	25.419	1302.085	1067.184
136.512	25.561	1300.151	1066.342
137.527	25.432	1300.018	1065.376
138.541	25.497	1298.106	1064.099
139.556	25.438	1296.941	1062.702
140.570	25.444	1295.945	1061.829
141.585	25.452	1295.545	1061.451
142.600	25.532	1294.105	1060.651
143.614	25.465	1293.378	1059.564
144.629	25.446	1291.881	1058.135
145.643	25.372	1290.931	1056.828
146.658	25.370	1290.191	1056.112
147.673	25.283	1289.502	1054.948
148.687	25.323	1288.193	1054.018
149.702	25.295	1287.132	1052.892
150.716	25.307	1285.910	1051.870
151.731	25.388	1284.621	1051.198
152.746	25.381	1284.034	1050.581
153.760	25.341	1282.890	1049.320
154.775	25.423	1281.945	1048.933
155.789	25.441	1280.921	1048.108
156.804	25.401	1279.890	1046.934
157.819	25.349	1279.368	1046.111
158.833	25.391	1278.844	1045.838
159.848	25.294	1277.730	1044.268
160.862	25.407	1276.796	1044.073
161.877	25.319	1276.288	1043.052
162.892	25.423	1275.448	1042.876
163.906	25.474	1274.616	1042.400
164.921	25.387	1274.146	1041.418
165.935	25.413	1273.165	1040.676
166.950	25.477	1272.349	1040.290
167.964	25.499	1271.606	1039.713
168.979	25.507	1270.914	1039.103
169.994	25.388	1270.643	1038.099
171.008	25.470	1269.730	1037.735
172.023	25.529	1268.700	1037.142
173.037	25.566	1268.215	1036.868
174.052	25.511	1267.859	1036.168
175.067	25.505	1266.458	1034.898
176.081	25.365	1266.239	1033.820
177.096	25.573	1264.765	1033.724
178.110	25.438	1264.468	1032.612
179.125	25.544	1263.353	1032.219
180.140	25.534	1262.118	1031.063
181.154	25.580	1260.918	1030.251
182.169	25.513	1260.032	1029.055
183.183	25.475	1258.890	1027.812
184.198	25.516	1257.938	1027.181
185.213	25.667	1257.222	1027.369
186.227	25.564	1256.142	1025.803
187.242	25.595	1255.426	1025.306
188.256	25.506	1254.493	1023.945
189.271	25.578	1253.412	1023.385
190.286	25.549	1253.050	1022.832
191.300	25.553	1252.606	1022.402
192.315	25.576	1251.829	1021.811
193.329	25.457	1251.550	1020.813
194.344	25.601	1251.093	1021.170
195.359	25.574	1250.780	1020.669
196.373	25.600	1249.992	1020.086
197.388	25.489	1249.761	1019.174
198.402	25.441	1249.509	1018.607
199.417	25.561	1248.932	1018.730
200.432	25.480	1248.446	1017.784
201.446	25.651	1247.686	1018.041
202.461	25.619	1246.778	1017.029
203.475	25.581	1246.280	1016.319
204.490	25.612	1245.145	1015.477
205.504	25.636	1243.504	1014.185
206.519	25.616	1243.178	1013.714
207.534	25.707	1241.818	1013.031
208.548	25.654	1241.011	1011.982
209.563	25.603	1240.446	1011.144
210.577	25.709	1239.594	1010.958
211.592	25.685	1238.853	1010.132
212.607	25.725	1237.807	1009.410
213.621	25.699	1237.187	1008.670
214.636	25.762	1236.551	1008.414
215.650	25.633	1236.130	1007.259
216.665	25.718	1234.761	1006.532
217.680	25.734	1233.701	1005.668
218.694	25.728	1233.127	1005.077
219.709	25.687	1232.338	1004.117
220.723	25.652	1231.596	1003.227
221.738	25.692	1230.939	1002.830
222.753	25.567	1230.383	1001.589
223.767	25.652	1229.715	1001.432
224.782	25.701	1229.587	1001.512
225.796	25.803	1228.482	1001.091
226.811	25.705	1227.866	999.954
227.826	25.787	1227.399	999.940
228.840	25.853	1226.983	999.877
229.855	25.734	1226.078	998.395
230.869	25.705	1225.585	997.743
231.884	25.748	1224.407	996.934
232.899	25.724	1224.325	996.644
233.913	25.743	1223.322	995.848
234.928	25.803	1222.760	995.631
235.942	25.750	1222.713	995.210
236.957	25.858	1221.466	994.706
237.972	25.816	1220.935	993.954
238.986	25.902	1220.157	993.706
240.001	25.816	1219.976	992.999
241.015	25.966	1218.563	992.582
242.030	25.952	1217.821	991.815
243.045	26.008	1216.979	991.349
244.059	25.896	1216.478	990.240
245.074	26.011	1215.670	990.126
246.088	25.880	1215.035	988.801
247.103	25.965	1213.932	988.281
248.117	26.031	1213.193	987.955
249.132	26.079	1212.390	987.477
250.147	26.055	1211.834	986.803
251.161	26.010	1211.180	985.940
252.176	26.041	1210.810	985.717
253.190	25.995	1210.263	984.935
254.205	25.942	1209.605	984.024
255.220	25.968	1208.880	983.491
256.234	26.093	1207.984	983.353
257.249	25.993	1207.708	982.497
258.263	26.133	1206.471	982.168
259.278	26.019	1205.990	981.066
260.293	26.095	1205.971	981.376
261.307	26.044	1205.311	980.478
262.322	26.053	1204.723	979.960
263.336	26.085	1203.852	979.337
264.351	26.150	1202.992	978.905
265.366	26.002	1202.823	977.879
266.380	26.132	1202.035	977.854
267.395	26.080	1201.034	976.673
268.409	26.056	1200.730	976.210
269.424	25.955	1200.392	975.304
270.439	26.246	1199.512	976.072
271.453	26.155	1199.124	975.182
272.468	25.991	1198.671	973.841
273.482	26.026	1197.072	972.644
274.497	26.126	1197.080	973.105
275.512	26.200	1196.370	972.837
276.526	26.212	1195.543	972.144
277.541	26.211	1194.667	971.339
278.555	26.184	1194.495	970.972
279.570	26.152	1193.917	970.242
280.585	26.143	1192.952	969.325
281.599	26.210	1192.019	968.842
282.614	26.185	1191.020	967.809
283.628	26.186	1190.441	967.258
284.643	26.140	1189.539	966.190
285.657	26.263	1188.479	965.905
286.672	26.180	1187.749	964.782
287.687	26.317	1186.949	964.778
288.701	26.354	1185.971	964.092
289.716	26.231	1185.811	963.221
290.730	26.282	1184.887	962.657
291.745	26.464	1183.829	962.682
292.760	26.321	1183.814	961.823
293.774	26.237	1183.427	960.976
294.789	26.325	1182.564	960.663
295.803	26.343	1181.847	960.090
296.818	26.330	1181.470	959.630
297.833	26.340	1180.590	958.879
298.847	26.376	1180.158	958.636
299.862	26.277	1179.515	957.503
300.876	26.401	1178.645	957.373
301.891	26.473	1178.121	957.238
302.906	26.464	1177.075	956.261
303.920	26.537	1176.350	955.970
304.935	26.407	1175.806	954.759
305.949	26.424	1175.123	954.207
306.964	26.389	1174.913	953.768
307.979	26.393	1174.335	953.238
308.993	26.478	1173.639	953.033
310.008	26.514	1172.507	952.224
311.022	26.552	1171.841	951.797
312.037	26.523	1171.200	951.040
313.052	26.534	1170.365	950.335
314.066	26.553	1169.352	949.525
315.081	26.543	1168.643	948.814
316.095	26.438	1168.515	948.077
317.110	26.590	1167.631	948.073
318.125	26.523	1167.148	947.244
319.139	26.466	1166.448	946.296
320.154	26.545	1165.583	945.921
321.168	26.570	1165.097	945.576
322.183	26.595	1164.663	945.271
323.197	26.560	1164.092	944.540
324.212	26.608	1163.245	944.017
325.227	26.568	1162.943	943.481
326.241	26.590	1162.844	943.431
327.256	26.694	1161.783	943.031
328.270	26.651	1160.817	941.939
329.285	26.706	1159.913	941.409
330.300	26.736	1158.974	940.719
331.314	26.785	1158.141	940.210
332.329	26.790	1157.546	939.674
333.343	26.734	1156.883	938.760
334.358	26.702	1156.340	938.072
335.373	26.673	1155.763	937.373
336.387	26.772	1154.896	937.098
337.402	26.893	1154.099	936.991
338.416	26.906	1153.094	936.160
339.431	26.831	1152.775	935.430
340.446	26.931	1152.102	935.315
341.460	26.920	1151.566	934.742
342.475	26.831	1151.044	933.779
343.489	26.887	1149.634	932.840
344.504	26.860	1149.084	932.170
345.519	26.958	1147.938	931.663
346.533	26.852	1147.704	930.847
347.548	27.008	1146.420	930.521
348.562	26.912	1145.789	929.436
349.577	26.910	1145.195	928.862
350.592	26.908	1144.412	928.137
351.606	26.874	1143.637	927.251
352.621	26.952	1143.182	927.200
353.635	27.005	1142.623	926.933
354.650	26.972	1142.288	926.410
355.665	26.960	1141.361	925.516
356.679	27.022	1140.477	925.034
357.694	27.053	1140.410	925.055
358.708	26.971	1139.472	923.793
359.723	26.982	1138.838	923.252
360.738	27.046	1138.276	923.041
361.752	27.020	1137.687	922.350
362.767	26.994	1137.500	921.987
363.781	27.183	1136.519	922.065
364.796	27.046	1136.379	921.178
365.810	27.136	1135.551	920.882
366.825	27.028	1135.172	919.945
367.840	27.117	1134.465	919.739
368.854	27.142	1133.997	919.407
369.869	27.227	1133.166	919.083
370.883	27.199	1132.214	918.086
371.898	27.250	1131.573	917.746
372.913	27.166	1130.999	916.773
373.927	27.261	1130.544	916.801
374.942	27.220	1130.118	916.168
375.956	27.315	1129.492	916.057
376.971	27.153	1128.884	914.667
377.986	27.206	1128.521	914.561
379.000	27.210	1127.963	914.045
380.015	27.287	1127.604	914.063
381.029	27.407	1126.673	913.828
382.044	27.281	1126.039	912.600
383.059	27.298	1125.346	912.046
384.073	27.383	1124.433	911.650
385.088	27.371	1123.777	910.979
386.102	27.327	1122.922	909.983
387.117	27.283	1122.026	908.956
388.132	27.351	1121.251	908.589
389.146	27.347	1120.312	907.727
390.161	27.422	1120.068	907.821
391.175	27.502	1119.270	907.494
392.190	27.502	1118.542	906.824
393.205	27.426	1117.535	905.551
394.219	27.436	1117.305	905.331
395.234	27.503	1116.641	905.045
396.248	27.495	1115.692	904.158
397.263	27.501	1114.778	903.367
398.278	27.506	1114.240	902.875
399.292	27.445	1113.659	902.024
400.307	27.623	1112.552	901.930
401.321	27.429	1112.704	901.011
402.336	27.464	1111.633	900.239
403.350	27.619	1110.864	900.302
404.365	27.636	1109.821	899.458
405.380	27.583	1109.316	898.707
406.394	27.574	1109.023	898.349
407.409	27.615	1108.221	897.820
408.423	27.748	1107.670	897.951
409.438	27.737	1106.583	896.935
410.453	27.762	1105.962	896.476
411.467	27.761	1105.032	895.635
412.482	27.724	1104.691	895.098
413.496	27.823	1103.700	894.704
414.511	27.727	1103.108	893.671
415.526	27.798	1102.834	893.720
416.540	27.814	1102.551	893.490
417.555	27.762	1101.992	892.704
418.569	27.844	1101.409	892.554
419.584	27.628	1101.331	891.354
420.599	27.755	1100.541	891.258
421.613	76.553	1279.348	1304.020
422.628	71.701	1305.408	1304.170
