DTS Sentinel unit serial number:	SN413079Multiplexer serial number:	ORYXHardware model number:	OX4-SRSoftware version number:	ORYX F/W v4.00 Oryx Data Collector v3.7.2.0data status	okinstallation	princeton_trtdifferential loss correction	single-endedforward channel	channel 2reverse channel	N/Adate	2019/09/17time	04:51:35forward acquisition time	60.00reverse acquisition time	0.00gamma	496.2192k internal	0.2328k external	0.2328temperature offset calibration	0.9977default loss term (dB/km)	0.3790temperature slope calibration	1.0000multiplexer offset coefficient	1.0000multiplexer slope coefficient	1.0000fibre end	0.00T internal ref (°C)	29.56T ext. ref 1 (°C)	0.14T ext. ref 2 (°C)	23.99length (m)	temperature (°C)	Stokes	anti-Stokes-747.200	105.931	-0.312	-0.372
-746.185	-102.333	-0.222	0.054
-745.171	89.816	-0.097	-0.109
-744.156	366.923	0.025	0.050
-743.142	-200.000	0.055	0.251
-742.127	81.154	-0.145	0.158
-741.112	29.573	-0.184	0.158
-740.098	-200.000	0.015	0.350
-739.083	101.710	0.120	-0.141
-738.069	104.968	0.203	0.241
-737.054	-200.000	-0.029	0.265
-736.039	800.000	0.023	-0.071
-735.025	86.680	0.281	0.312
-734.010	92.615	-0.166	0.189
-732.996	186.375	-0.024	0.036
-731.981	-200.000	0.078	0.405
-730.966	80.266	0.143	0.155
-729.952	185.219	-0.170	-0.254
-728.937	-132.378	-0.259	0.034
-727.923	799.960	0.126	0.351
-726.908	-35.373	-0.112	-0.061
-725.894	800.000	-0.021	0.075
-724.879	-200.000	0.009	0.074
-723.864	-71.424	-0.468	-0.176
-722.850	274.499	-0.095	0.170
-721.835	68.925	0.213	0.220
-720.821	65.497	-0.188	0.192
-719.806	139.639	-0.188	0.249
-718.791	-85.908	-0.294	-0.092
-717.777	-90.325	-0.216	0.063
-716.762	-183.212	0.119	0.002
-715.748	800.000	-0.099	-0.344
-714.733	-200.000	0.000	0.131
-713.718	156.744	-0.103	-0.143
-712.704	127.896	0.166	-0.212
-711.689	-200.000	0.042	-0.199
-710.675	-200.000	-0.044	-0.310
-709.660	129.991	0.197	-0.254
-708.645	-141.527	-0.269	0.027
-707.631	77.022	0.227	-0.243
-706.616	386.349	0.164	0.341
-705.602	125.718	-0.130	-0.166
-704.587	-51.181	0.373	0.176
-703.572	-169.695	-0.139	-0.005
-702.558	11.365	0.240	0.185
-701.543	26.960	0.093	0.078
-700.529	-75.324	0.138	-0.050
-699.514	209.246	-0.048	-0.076
-698.499	93.525	-0.168	-0.191
-697.485	49.253	-0.178	-0.168
-696.470	10.368	0.159	0.122
-695.456	97.794	0.081	-0.094
-694.441	-200.000	-0.010	-0.083
-693.426	14.004	-0.266	-0.209
-692.412	-200.000	0.000	-0.104
-691.397	182.591	0.192	0.284
-690.383	45.757	0.356	0.331
-689.368	-200.000	0.013	0.218
-688.354	133.134	0.161	0.209
-687.339	-200.000	0.018	0.087
-686.324	-150.762	-0.339	-0.026
-685.310	85.403	0.197	0.218
-684.295	-88.061	0.470	0.142
-683.281	800.000	0.041	-0.134
-682.266	-200.000	0.012	0.141
-681.251	90.215	-0.139	-0.157
-680.237	295.636	0.049	0.089
-679.222	-122.085	0.269	0.044
-678.208	88.161	0.245	-0.273
-677.193	-188.910	-0.197	-0.002
-676.178	35.473	0.089	0.079
-675.164	-0.128	0.076	0.055
-674.149	266.003	-0.005	0.008
-673.135	78.522	-0.108	-0.116
-672.120	-153.988	0.260	0.018
-671.105	212.269	0.145	0.230
-670.091	670.886	0.055	0.144
-669.076	-133.783	-0.385	0.048
-668.062	421.429	0.069	-0.148
-667.047	-176.430	-0.218	-0.006
-666.032	800.000	0.058	-0.222
-665.018	125.764	-0.163	-0.206
-664.003	-200.000	-0.001	0.123
-662.989	166.481	-0.055	-0.079
-661.974	-104.903	-0.180	-0.041
-660.959	135.224	-0.120	-0.157
-659.945	-73.913	0.086	-0.031
-658.930	-186.964	-0.318	0.004
-657.916	81.381	-0.113	0.123
-656.901	-3.175	-0.113	0.079
-655.886	60.239	0.176	0.175
-654.872	59.829	-0.184	0.183
-653.857	84.427	-0.151	0.166
-652.843	403.360	-0.127	-0.267
-651.828	546.955	-0.044	-0.105
-650.814	-32.947	0.369	-0.206
-649.799	168.510	-0.178	-0.254
-648.784	-200.000	0.006	-0.089
-647.770	108.815	-0.059	-0.071
-646.755	492.969	0.112	0.258
-645.741	161.356	-0.151	-0.212
-644.726	197.282	-0.113	0.173
-643.711	-23.628	0.334	-0.201
-642.697	-82.265	-0.205	0.067
-641.682	-49.392	0.260	-0.125
-640.668	-50.974	0.142	0.067
-639.653	-36.986	0.279	-0.150
-638.638	2.494	-0.101	-0.073
-637.624	200.268	-0.035	0.054
-636.609	530.953	-0.130	0.309
-635.595	55.794	0.141	0.137
-634.580	-200.000	0.091	0.413
-633.565	380.142	-0.081	-0.166
-632.551	-70.075	-0.158	-0.060
-631.536	-175.993	-0.222	-0.006
-630.522	61.251	0.176	0.175
-629.507	47.492	-0.199	-0.187
-628.492	40.155	-0.132	-0.119
-627.478	47.104	-0.181	-0.169
-626.463	41.571	0.046	-0.042
-625.449	114.117	-0.109	0.132
-624.434	275.412	0.069	0.122
-623.419	-200.000	0.040	-0.515
-622.405	28.148	0.331	-0.280
-621.390	-141.163	-0.229	-0.023
-620.376	-31.788	0.201	-0.113
-619.361	206.458	0.136	0.213
-618.346	462.404	-0.031	-0.069
-617.332	800.000	-0.066	-0.249
-616.317	-54.715	0.227	-0.103
-615.303	-200.000	0.020	0.435
-614.288	93.917	-0.251	-0.286
-613.273	-200.000	-0.070	-0.351
-612.259	102.505	0.178	-0.208
-611.244	85.313	-0.182	-0.200
-610.230	-19.483	-0.288	0.179
-609.215	602.862	-0.083	0.207
-608.201	33.956	-0.098	-0.086
-607.186	800.000	-0.099	0.382
-606.171	41.155	-0.185	0.168
-605.157	-200.000	-0.009	0.074
-604.142	-200.000	0.069	0.399
-603.128	-200.000	0.012	0.148
-602.113	65.116	0.170	-0.173
-601.098	800.000	-0.080	-0.314
-600.084	-200.000	-0.005	0.071
-599.069	-200.000	-0.021	-0.422
-598.055	-32.908	-0.134	-0.074
-597.040	17.221	0.114	0.091
-596.025	-200.000	0.014	0.181
-595.011	800.000	0.017	-0.052
-593.996	-6.003	0.243	-0.166
-592.982	-35.281	-0.141	-0.077
-591.967	800.000	-0.053	-0.198
-590.952	224.353	0.109	-0.176
-589.938	-153.002	-0.095	-0.007
-588.923	-70.362	-0.048	0.018
-587.909	262.644	0.151	0.263
-586.894	570.824	-0.048	-0.118
-585.879	101.129	-0.248	-0.289
-584.865	-95.373	0.040	0.011
-583.850	149.820	0.168	-0.228
-582.836	800.000	-0.008	0.034
-581.821	-200.000	-0.032	-0.166
-580.806	136.753	0.173	0.226
-579.792	-97.379	-0.143	-0.037
-578.777	-114.184	-0.409	-0.079
-577.763	-200.000	0.011	-0.070
-576.748	-135.562	-0.105	0.012
-575.733	800.000	-0.115	-0.490
-574.719	20.073	0.140	-0.113
-573.704	-200.000	0.038	-0.208
-572.690	-5.606	0.281	-0.193
-571.675	13.192	-0.092	-0.071
-570.661	235.176	-0.168	0.278
-569.646	285.616	-0.095	-0.172
-568.631	105.769	-0.183	-0.217
-567.617	-200.000	-0.021	0.309
-566.602	-10.388	0.305	-0.202
-565.588	-200.000	-0.052	-0.284
-564.573	87.724	0.127	0.141
-563.558	245.479	-0.066	0.111
-562.544	7.625	0.144	0.108
-561.529	159.000	0.142	0.198
-560.515	-200.000	-0.018	-0.223
-559.500	-200.000	0.030	-0.153
-558.485	147.073	-0.181	-0.244
-557.471	-200.000	-0.019	-0.192
-556.456	155.409	0.175	0.242
-555.442	63.887	-0.184	-0.185
-554.427	800.000	-0.017	0.063
-553.412	800.000	-0.104	-0.415
-552.398	-88.539	-0.479	0.143
-551.383	-137.197	0.321	0.037
-550.369	800.000	-0.143	-0.526
-549.354	-41.706	0.268	-0.138
-548.339	69.335	0.111	-0.114
-547.325	67.980	0.075	-0.076
-546.310	-98.550	-0.114	0.029
-545.296	-200.000	-0.017	-0.135
-544.281	-96.769	-0.500	0.131
-543.266	222.642	0.064	-0.104
-542.252	800.000	-0.015	0.060
-541.237	33.039	0.195	-0.169
-540.223	-124.743	0.223	0.034
-539.208	800.000	0.109	0.310
-538.193	154.683	-0.101	-0.139
-537.179	616.006	0.107	0.268
-536.164	-200.000	0.036	0.162
-535.150	8.493	-0.248	0.187
-534.135	-137.237	0.092	0.010
-533.121	40.302	0.143	-0.129
-532.106	-147.546	-0.426	-0.036
-531.091	-39.141	-0.305	0.160
-530.077	800.000	-0.058	-0.184
-529.062	553.396	-0.110	-0.263
-528.048	175.325	-0.027	-0.039
-527.033	800.000	0.033	-0.113
-526.018	154.420	0.066	-0.090
-525.004	613.220	0.032	-0.080
-523.989	-111.418	-0.330	0.067
-522.975	41.933	-0.055	0.050
-521.960	137.048	-0.226	-0.294
-520.945	-200.000	-0.045	0.248
-519.931	-110.302	0.301	-0.063
-518.916	585.735	-0.073	0.180
-517.902	450.104	-0.204	-0.451
-516.887	-47.058	-0.194	0.095
-515.872	74.106	-0.087	0.091
-514.858	-37.485	-0.075	0.040
-513.843	-102.894	0.189	-0.045
-512.829	-61.709	0.199	0.083
-511.814	-200.000	-0.002	0.008
-510.799	16.822	0.235	-0.186
-509.785	-21.217	0.204	0.125
-508.770	800.000	-0.036	0.116
-507.756	-200.000	-0.018	-0.223
-506.741	-117.749	0.121	0.022
-505.726	-61.616	0.273	0.115
-504.712	660.549	-0.109	0.280
-503.697	-57.309	-0.202	0.089
-502.683	-83.732	0.307	-0.098
-501.668	481.064	0.122	0.277
-500.653	-200.000	-0.022	-0.229
-499.639	-17.006	-0.068	-0.043
-498.624	-200.000	-0.049	0.255
-497.610	153.909	-0.066	-0.091
-496.595	800.000	0.043	-0.185
-495.581	24.951	-0.197	-0.163
-494.566	259.822	-0.103	0.177
-493.551	36.233	0.474	0.417
-492.537	-200.000	-0.010	0.070
-491.522	-200.000	0.007	-0.154
-490.508	-148.136	-0.111	0.009
-489.493	198.916	-0.092	0.140
-488.478	-102.722	0.402	-0.096
-487.464	800.000	0.091	0.253
-486.449	139.720	0.087	0.115
-485.435	369.441	0.175	0.354
-484.420	375.132	-0.134	0.273
-483.405	184.129	-0.105	-0.155
-482.391	-16.711	0.044	-0.028
-481.376	103.393	0.118	-0.138
-480.362	216.595	0.088	-0.139
-479.347	-12.149	-0.155	-0.101
-478.332	-200.000	0.021	-0.327
-477.318	-108.179	-0.176	-0.038
-476.303	-108.447	-0.234	0.050
-475.289	-40.215	-0.104	-0.054
-474.274	-59.620	0.058	-0.025
-473.259	-43.579	0.132	-0.067
-472.245	-200.000	-0.033	0.174
-471.230	120.562	0.201	0.249
-470.216	-78.862	-0.294	0.100
-469.201	-12.355	0.275	0.179
-468.186	103.113	0.117	0.137
-467.172	-169.604	-0.126	-0.005
-466.157	49.292	-0.287	-0.269
-465.143	12.390	0.143	0.110
-464.128	-169.982	-0.422	-0.015
-463.113	800.000	0.024	-0.073
-462.099	116.080	-0.182	0.222
-461.084	-96.384	-0.420	-0.111
-460.070	87.260	0.209	0.231
-459.055	-111.369	-0.245	0.050
-458.040	-168.498	0.176	-0.007
-457.026	-200.000	-0.030	-0.218
-456.011	-200.000	-0.032	-0.143
-454.997	800.000	-0.099	0.340
-453.982	75.801	0.018	-0.019
-452.968	268.871	0.064	0.112
-451.953	21.851	0.181	0.147
-450.938	-88.209	-0.184	-0.055
-449.924	-200.000	0.026	0.154
-448.909	117.291	-0.092	-0.113
-447.895	-38.957	-0.139	-0.073
-446.880	-1.468	0.225	-0.158
-445.865	74.661	-0.147	0.154
-444.851	-92.494	0.204	0.057
-443.836	124.327	-0.326	0.409
-442.822	90.530	0.159	-0.178
-441.807	-47.996	0.114	-0.055
-440.792	800.000	0.111	0.307
-439.778	187.801	0.268	0.398
-438.763	-43.534	0.203	0.102
-437.749	1.625	0.195	-0.140
-436.734	363.089	-0.111	-0.222
-435.719	-71.707	-0.357	-0.132
-434.705	77.850	-0.058	-0.062
-433.690	432.319	-0.139	0.300
-432.676	671.841	0.096	-0.248
-431.661	51.596	0.092	-0.087
-430.646	-200.000	0.013	0.170
-429.632	101.094	0.115	0.134
-428.617	-200.000	0.003	-0.064
-427.603	-161.976	-0.136	-0.007
-426.588	-200.000	-0.004	0.053
-425.573	-58.057	0.215	0.093
-424.559	-167.026	0.193	-0.008
-423.544	162.033	-0.179	-0.250
-422.530	-115.818	0.401	-0.075
-421.515	-66.626	0.253	-0.100
-420.500	-200.000	0.072	0.525
-419.486	-33.538	0.010	0.006
-418.471	-156.821	-0.331	-0.020
-417.457	-152.552	0.080	-0.006
-416.442	800.000	0.059	0.203
-415.428	122.816	0.199	-0.248
-414.413	-200.000	-0.025	0.184
-413.398	800.000	-0.091	0.277
-412.384	9.351	-0.352	-0.265
-411.369	3.303	0.053	-0.038
-410.355	14.175	0.055	-0.043
-409.340	588.222	0.042	0.102
-408.325	-66.563	0.313	0.123
-407.311	35.679	0.194	0.169
-406.296	-200.000	0.011	-0.153
-405.282	-170.181	-0.077	-0.003
-404.267	-200.000	0.028	-0.248
-403.252	-200.000	-0.009	0.087
-402.238	-129.928	0.221	-0.030
-401.223	343.751	-0.048	-0.094
-400.209	-83.940	-0.269	-0.085
-399.194	-200.000	-0.015	0.415
-398.179	-123.778	0.115	-0.018
-397.165	57.683	0.142	0.138
-396.150	15.199	-0.015	0.012
-395.136	4.989	0.186	0.136
-394.121	48.738	-0.210	0.195
-393.106	-73.062	-0.346	0.126
-392.092	-138.100	0.195	0.022
-391.077	14.544	0.061	-0.047
-390.063	-16.218	0.124	0.078
-389.048	-100.020	-0.304	-0.075
-388.033	-200.000	0.164	-0.000
-387.019	190.191	-0.027	-0.040
-386.004	14.549	0.183	0.142
-384.990	388.693	-0.132	0.272
-383.975	-66.455	-0.126	-0.050
-382.960	-200.000	-0.052	-0.300
-381.946	-66.579	-0.153	-0.060
-380.931	-69.035	-0.088	0.034
-379.917	-200.000	0.351	-0.001
-378.902	-77.982	0.032	0.011
-377.888	-46.791	0.056	-0.027
-376.873	800.000	-0.108	-0.332
-375.858	-37.342	-0.262	0.139
-374.844	-164.739	0.261	0.012
-373.829	800.000	0.047	-0.132
-372.815	-200.000	-0.033	0.200
-371.800	-61.615	-0.209	0.087
-370.785	23.417	0.148	-0.121
-369.771	518.293	0.153	0.356
-368.756	-52.956	0.286	0.131
-367.742	-200.000	-0.017	-0.091
-366.727	-200.000	0.001	-0.277
-365.712	449.632	-0.098	0.215
-364.698	-200.000	-0.021	-0.219
-363.683	-82.233	0.142	0.046
-362.669	-200.000	-0.006	-0.044
-361.654	-107.674	-0.360	-0.078
-360.639	274.329	0.182	-0.320
-359.625	401.526	0.103	-0.214
-358.610	800.000	0.047	-0.203
-357.596	-200.000	-0.183	-0.000
-356.581	-44.770	0.247	0.122
-355.566	-52.198	0.233	0.107
-354.552	-200.000	0.032	-0.235
-353.537	113.355	-0.105	0.126
-352.523	150.701	0.111	-0.150
-351.508	-76.902	0.370	0.128
-350.493	47.909	-0.101	0.093
-349.479	-200.000	-0.016	0.295
-348.464	-200.000	-0.066	0.338
-347.450	-200.000	0.034	-0.206
-346.435	-6.794	-0.303	0.204
-345.420	-73.584	0.114	-0.041
-344.406	-200.000	0.018	0.160
-343.391	11.341	0.106	-0.081
-342.377	-200.000	0.006	0.230
-341.362	156.468	0.280	0.383
-340.348	-94.657	0.109	0.029
-339.333	-110.513	0.078	0.016
-338.318	14.683	0.251	-0.194
-337.304	-8.409	-0.173	0.115
-336.289	-170.154	-0.274	0.010
-335.275	-123.249	-0.255	-0.040
-334.260	-0.133	0.138	0.097
-333.245	53.704	-0.188	0.179
-332.231	50.261	-0.302	0.283
-331.216	188.789	0.107	0.159
-330.202	-200.000	-0.013	-0.275
-329.187	91.219	-0.147	0.164
-328.172	-200.000	-0.009	0.073
-327.158	-200.000	0.048	-0.276
-326.143	-90.919	-0.171	-0.049
-325.129	-95.749	0.229	-0.061
-324.114	-200.000	-0.042	-0.320
-323.099	401.429	-0.060	-0.125
-322.085	800.000	0.069	-0.206
-321.070	-200.000	0.099	0.458
-320.056	-47.434	-0.058	-0.028
-319.041	228.483	-0.278	-0.449
-318.026	-140.913	0.106	0.011
-317.012	-167.370	0.585	0.023
-315.997	195.039	0.078	0.118
-314.983	-4.244	0.060	-0.041
-313.968	288.137	-0.003	-0.006
-312.953	-200.000	-0.005	0.025
-311.939	-30.278	-0.249	0.140
-310.924	220.240	-0.028	0.044
-309.910	800.000	0.074	-0.265
-308.895	-200.000	-0.010	0.084
-307.880	-119.343	0.257	0.044
-306.866	-176.004	-0.411	-0.011
-305.851	-115.078	-0.303	-0.057
-304.837	-25.896	0.202	0.118
-303.822	-53.268	0.132	-0.060
-302.807	19.929	0.098	0.079
-301.793	-200.000	-0.186	-0.001
-300.778	-184.359	0.282	-0.005
-299.764	-192.386	0.267	0.002
-298.749	-98.201	0.376	-0.096
-297.735	-93.664	-0.194	-0.053
-296.720	260.959	-0.170	-0.291
-295.705	139.936	0.101	-0.132
-294.691	-148.601	-0.314	-0.025
-293.676	800.000	0.063	-0.178
-292.662	-69.073	-0.131	-0.050
-291.647	13.829	-0.135	0.104
-290.632	32.633	0.418	-0.358
-289.618	800.000	0.051	0.168
-288.603	-200.000	0.051	0.314
-287.589	-156.398	0.207	-0.013
-286.574	117.527	-0.076	0.092
-285.559	-83.570	-0.262	0.083
-284.545	-48.231	-0.117	0.056
-283.530	226.343	0.057	-0.092
-282.516	-75.765	-0.111	0.039
-281.501	-200.000	-0.045	-0.304
-280.486	77.241	-0.168	-0.176
-279.472	-117.770	0.190	0.034
-278.457	800.000	-0.048	-0.190
-277.443	-200.000	0.007	0.199
-276.428	10.883	0.180	0.136
-275.413	800.000	0.065	-0.238
-274.399	-20.803	-0.183	-0.111
-273.384	-200.000	-0.011	-0.261
-272.370	-95.382	-0.190	-0.051
-271.355	-31.880	0.115	0.064
-270.340	800.000	0.062	0.226
-269.326	-179.221	0.181	0.004
-268.311	172.790	0.102	0.145
-267.297	-67.103	0.330	-0.129
-266.282	800.000	-0.064	0.219
-265.267	-32.839	0.109	-0.060
-264.253	138.125	0.008	0.010
-263.238	118.166	-0.202	0.247
-262.224	11.352	-0.146	0.111
-261.209	-12.570	0.485	0.313
-260.195	-142.711	0.183	-0.018
-259.180	-168.979	-0.290	-0.011
-258.165	7.623	-0.114	0.084
-257.151	128.502	-0.166	0.209
-256.136	-50.656	0.166	0.077
-255.122	-12.678	-0.223	0.144
-254.107	-200.000	-0.004	0.128
-253.092	-122.186	0.474	-0.077
-252.078	-99.457	0.248	-0.062
-251.063	26.310	0.076	-0.063
-250.049	210.303	0.074	0.116
-249.034	244.419	0.104	-0.172
-248.019	-109.084	0.302	0.063
-247.005	578.223	-0.197	-0.477
-245.990	800.000	-0.112	0.317
-244.976	-200.000	0.006	0.185
-243.961	-83.955	0.171	0.054
-242.946	-51.344	0.126	0.058
-241.932	-11.775	0.016	0.010
-240.917	-101.584	0.234	-0.056
-239.903	397.395	-0.076	0.156
-238.888	27.613	0.105	-0.087
-237.873	800.000	0.024	-0.067
-236.859	-93.584	0.088	0.024
-235.844	462.029	0.072	-0.160
-234.830	800.000	0.034	0.124
-233.815	230.409	0.133	-0.215
-232.800	-21.071	0.226	0.137
-231.786	-124.090	-0.074	-0.012
-230.771	-42.737	-0.521	0.262
-229.757	134.806	0.334	0.428
-228.742	270.788	0.118	-0.205
-227.727	-82.507	-0.278	-0.089
-226.713	-13.719	0.171	0.109
-225.698	-127.943	-0.378	0.054
-224.684	800.000	-0.038	-0.164
-223.669	265.762	-0.150	0.258
-222.655	-5.338	0.039	0.027
-221.640	79.631	0.174	0.184
-220.625	800.000	0.095	-0.305
-219.611	-163.677	0.373	-0.017
-218.596	-116.750	-0.294	-0.053
-217.582	296.993	0.151	-0.274
-216.567	-63.352	-0.441	-0.179
-215.552	108.615	-0.026	-0.030
-214.538	-200.000	-0.035	0.228
-213.523	-200.000	0.041	0.244
-212.509	-171.005	-0.224	0.008
-211.494	-9.132	-0.270	-0.178
-210.479	-192.264	-0.187	0.002
-209.465	-53.974	-0.069	-0.031
-208.450	26.494	-0.123	0.101
-207.436	156.741	-0.069	-0.095
-206.421	-200.000	-0.010	-0.124
-205.406	456.985	-0.083	0.183
-204.392	-18.211	0.177	0.109
-203.377	-70.940	0.335	0.125
-202.363	572.792	-0.079	-0.190
-201.348	-200.000	0.033	0.380
-200.333	40.651	-0.333	0.296
-199.319	322.661	0.179	-0.336
-198.304	-158.175	-0.214	-0.012
-197.290	-98.640	0.058	0.015
-196.275	800.000	0.034	0.106
-195.260	-146.266	-0.305	0.026
-194.246	-168.836	-0.185	-0.007
-193.231	16.973	0.242	0.189
-192.217	119.042	-0.309	0.377
-191.202	154.001	-0.141	0.190
-190.187	44.098	-0.127	-0.115
-189.173	-17.930	-0.176	0.109
-188.158	-12.505	-0.064	0.041
-187.144	62.732	-0.135	0.133
-186.129	82.113	0.156	0.166
-185.114	0.561	0.277	0.195
-184.100	299.499	0.042	-0.076
-183.085	800.000	-0.038	-0.113
-182.071	661.349	0.071	-0.181
-181.056	-65.208	-0.178	-0.071
-180.042	205.760	-0.069	0.106
-179.027	423.774	-0.153	-0.325
-178.012	415.260	0.146	-0.307
-176.998	-200.000	-0.046	0.365
-175.983	76.686	0.314	0.328
-174.969	800.000	-0.098	-0.364
-173.954	-96.704	-0.122	0.032
-172.939	-143.552	-0.244	0.023
-171.925	-44.757	0.091	-0.045
-170.910	94.722	0.264	-0.296
-169.896	-71.222	-0.196	0.073
-168.881	-200.000	0.007	0.053
-167.866	-200.000	0.012	-0.248
-166.852	136.522	-0.107	-0.137
-165.837	-200.000	0.030	0.299
-164.823	-83.538	-0.276	0.087
-163.808	217.654	-0.095	-0.149
-162.793	-200.000	-0.023	0.155
-161.779	168.951	0.103	0.145
-160.764	4.862	-0.261	-0.189
-159.750	-44.677	0.299	0.147
-158.735	-200.000	0.059	-0.318
-157.720	153.050	-0.148	-0.199
-156.706	179.656	-0.048	-0.069
-155.691	-112.265	-0.355	-0.070
-154.677	-93.456	0.181	0.049
-153.662	173.990	0.032	-0.045
-152.647	-38.587	0.196	-0.102
-151.633	-123.344	0.352	-0.055
-150.618	-200.000	-0.020	0.278
-149.604	-200.000	-0.001	0.111
-148.589	-83.740	-0.472	0.148
-147.574	-66.357	-0.055	0.022
-146.560	9.486	0.120	-0.089
-145.545	590.254	-0.097	0.236
-144.531	-83.267	-0.148	-0.047
-143.516	-96.053	-0.223	0.058
-142.502	28.652	-0.149	0.124
-141.487	242.976	-0.074	0.123
-140.472	-200.000	-0.028	0.203
-139.458	341.018	-0.103	0.198
-138.443	-50.464	-0.110	0.051
-137.429	-129.179	-0.111	-0.015
-136.414	139.603	-0.178	-0.231
-135.399	-168.742	0.131	0.005
-134.385	-200.000	0.022	0.253
-133.370	800.000	0.039	0.123
-132.356	4.335	-0.361	0.260
-131.341	-33.626	-0.148	-0.080
-130.326	265.854	-0.046	0.080
-129.312	-200.000	0.008	-0.038
-128.297	-68.446	0.306	0.117
-127.283	-40.869	-0.092	0.047
-126.268	-165.440	0.242	0.010
-125.253	-1.463	-0.163	-0.113
-124.239	-200.000	-0.021	-0.290
-123.224	800.000	0.048	0.181
-122.210	-104.143	-0.471	-0.108
-121.195	-104.133	0.254	-0.058
-120.180	126.156	-0.163	-0.203
-119.166	-110.026	0.355	0.073
-118.151	-200.000	0.001	0.117
-117.137	-64.558	0.341	0.136
-116.122	399.801	0.197	0.406
-115.107	261.998	0.129	-0.220
-114.093	75.102	-0.196	-0.203
-113.078	-200.000	-0.445	0.000
-112.064	120.379	0.186	0.227
-111.049	-124.612	0.208	0.032
-110.034	-169.292	-0.181	0.007
-109.020	-39.757	0.016	0.008
-108.005	-6.621	-0.334	0.224
-106.991	-47.059	0.143	-0.069
-105.976	-44.227	-0.152	0.075
-104.962	-128.133	0.305	-0.043
-103.947	-71.460	-0.131	-0.048
-102.932	-200.000	0.034	0.512
-101.918	-200.000	-0.021	0.438
-100.903	186.958	-0.104	0.152
-99.889	27.893	0.105	0.087
-98.874	-19.248	0.247	-0.151
-97.859	-121.843	0.238	-0.039
-96.845	-24.954	-0.270	0.157
-95.830	14.729	-0.128	0.098
-94.816	-200.000	-0.020	0.086
-93.801	-200.000	-0.052	0.226
-92.786	279.620	0.055	0.097
-91.772	-196.486	0.115	0.001
-90.757	218.293	0.176	0.276
-89.743	158.397	0.160	0.218
-88.728	-110.201	0.120	0.025
-87.713	243.279	-0.022	-0.036
-86.699	23.600	0.109	0.088
-85.684	751.785	-0.091	-0.243
-84.670	-200.000	0.016	-0.223
-83.655	228.826	-0.044	0.071
-82.640	-128.666	0.303	0.042
-81.626	-20.838	0.159	-0.096
-80.611	760.661	0.080	-0.212
-79.597	-150.029	0.104	-0.008
-78.582	53.944	0.334	0.315
-77.567	-200.000	-0.031	0.207
-76.553	3.886	-0.071	-0.051
-75.538	-130.706	-0.294	-0.039
-74.524	537.496	0.117	0.272
-73.509	28.059	-0.241	0.200
-72.494	-200.000	-0.004	-0.110
-71.480	32.165	-0.046	-0.039
-70.465	800.000	-0.113	-0.324
-69.451	-200.000	0.002	-0.022
-68.436	7.340	-0.185	0.136
-67.422	406.582	0.129	0.268
-66.407	-200.000	0.030	-0.197
-65.392	241.674	-0.089	-0.146
-64.378	263.084	-0.031	-0.053
-63.363	628.138	0.051	0.126
-62.349	-139.203	-0.392	0.041
-61.334	16.082	-1.321	-1.022
-60.319	-200.000	0.117	0.558
-59.305	359.895	-0.529	-1.038
-58.290	189.996	0.540	0.796
-57.276	800.000	0.357	1.422
-56.261	-200.000	108.367	589.032
-55.246	442.543	1484.834	3190.388
-54.232	145.370	2678.641	3517.665
-53.217	99.143	2294.348	2600.432
-52.203	38.515	1905.057	1665.983
-51.188	32.753	1692.758	1436.534
-50.173	30.054	1650.096	1380.201
-49.159	48.950	1703.465	1568.359
-48.144	49.172	1718.592	1583.903
-47.130	32.376	1676.121	1419.348
-46.115	29.617	1661.685	1386.398
-45.100	29.526	1656.676	1381.479
-44.086	29.486	1653.973	1378.874
-43.071	29.438	1651.569	1376.459
-42.057	29.423	1648.596	1373.815
-41.042	29.473	1646.522	1372.403
-40.027	29.413	1644.896	1370.544
-39.013	29.450	1643.137	1369.304
-37.998	29.456	1641.669	1368.071
-36.984	29.388	1640.564	1366.588
-35.969	29.539	1638.866	1366.237
-34.954	29.651	1636.843	1365.323
-33.940	29.571	1635.466	1363.533
-32.925	29.562	1633.671	1361.918
-31.911	29.577	1632.066	1360.633
-30.896	29.558	1630.218	1358.897
-29.881	29.515	1628.541	1357.129
-28.867	29.578	1626.609	1355.933
-27.852	29.474	1625.937	1354.553
-26.838	29.514	1624.288	1353.420
-25.823	29.621	1622.279	1352.475
-24.809	29.623	1621.419	1351.715
-23.794	29.580	1620.176	1350.314
-22.779	29.691	1618.070	1349.312
-21.765	29.517	1616.946	1347.054
-20.750	29.542	1614.983	1345.545
-19.736	29.561	1613.758	1344.611
-18.721	29.559	1612.583	1343.565
-17.706	29.621	1610.526	1342.246
-16.692	29.598	1609.309	1341.015
-15.677	29.623	1607.607	1339.725
-14.663	29.640	1606.526	1338.892
-13.648	29.723	1605.105	1338.253
-12.633	29.544	1603.652	1335.698
-11.619	29.623	1602.255	1335.054
-10.604	29.507	1600.655	1332.826
-9.590	29.602	1599.475	1332.475
-8.575	29.671	1597.979	1331.676
-7.560	29.542	1597.256	1330.090
-6.546	29.621	1595.581	1329.209
-5.531	29.515	1594.570	1327.553
-4.517	29.589	1593.903	1327.480
-3.502	29.480	1593.152	1326.020
-2.487	29.710	1590.630	1325.516
-1.473	29.295	1578.857	1312.696
-0.458	26.401	1559.183	1275.901
0.556	21.103	1560.193	1243.883
1.571	18.735	1582.985	1244.791
2.586	18.393	1596.319	1252.669
3.600	16.972	1544.003	1201.448
4.615	9.528	1434.141	1066.715
5.629	1.867	1369.140	969.683
6.644	0.172	1361.160	953.220
7.659	0.079	1360.255	951.916
8.673	0.213	1358.529	951.466
9.688	0.086	1356.716	949.314
10.702	-0.127	1353.988	945.978
11.717	3.641	1359.625	973.625
12.731	12.008	1373.178	1036.349
13.746	17.223	1379.731	1074.256
14.761	17.206	1378.685	1073.241
15.775	16.213	1376.302	1065.027
16.790	15.303	1373.156	1056.770
17.804	14.453	1371.040	1049.691
18.819	14.080	1369.865	1046.356
19.834	13.747	1368.410	1043.058
20.848	13.592	1367.168	1041.046
21.863	13.367	1366.083	1038.713
22.877	13.259	1364.543	1036.776
23.892	13.170	1363.499	1035.330
24.907	13.093	1362.930	1034.327
25.921	13.143	1361.985	1033.831
26.936	13.097	1361.602	1033.162
27.950	13.226	1360.263	1032.860
28.965	13.199	1359.203	1031.793
29.980	13.359	1358.268	1031.990
30.994	13.323	1357.657	1031.211
32.009	13.475	1356.279	1031.021
33.023	13.393	1355.620	1029.918
34.038	13.336	1354.296	1028.465
35.053	13.374	1353.138	1027.731
36.067	13.233	1352.505	1026.282
37.082	13.382	1350.866	1025.875
38.096	13.422	1350.390	1025.667
39.111	13.434	1349.109	1024.677
40.126	13.243	1349.092	1023.391
41.140	13.236	1348.288	1022.648
42.155	13.069	1347.606	1021.008
43.169	13.130	1347.411	1021.147
44.184	13.217	1347.029	1021.309
45.199	13.148	1346.708	1020.547
46.213	13.159	1346.066	1020.037
47.228	13.305	1344.790	1019.881
48.242	13.286	1343.946	1019.034
49.257	13.265	1342.318	1017.582
50.271	13.244	1341.001	1016.361
51.286	13.359	1338.978	1015.443
52.301	13.238	1338.579	1014.308
53.315	13.309	1336.817	1013.320
54.330	13.232	1336.481	1012.503
55.344	13.174	1335.248	1011.124
56.359	13.274	1333.780	1010.537
57.374	13.274	1333.071	1009.909
58.388	13.162	1332.439	1008.654
59.403	13.129	1331.877	1007.943
60.417	13.135	1330.920	1007.162
61.432	13.094	1330.332	1006.378
62.447	13.079	1329.133	1005.293
63.461	13.083	1328.034	1004.395
64.476	13.054	1327.122	1003.441
65.490	13.043	1325.860	1002.330
66.505	13.079	1324.056	1001.098
67.520	13.110	1323.220	1000.562
68.534	13.102	1322.254	999.698
69.549	13.145	1321.065	998.969
70.563	13.104	1320.237	998.006
71.578	13.104	1319.183	997.120
72.593	13.008	1318.530	995.959
73.607	13.075	1317.359	995.392
74.622	13.010	1316.365	994.163
75.636	13.036	1315.488	993.569
76.651	12.990	1314.815	992.695
77.666	13.046	1314.490	992.701
78.680	12.988	1314.061	991.935
79.695	12.904	1313.862	991.194
80.709	13.139	1312.176	991.244
81.724	13.200	1311.429	990.959
82.739	13.097	1311.057	989.976
83.753	13.224	1309.525	989.487
84.768	13.346	1308.917	989.671
85.782	13.279	1307.340	987.991
86.797	13.354	1305.932	987.290
87.812	13.210	1305.163	985.760
88.826	13.287	1303.621	984.969
89.841	13.270	1302.826	984.178
90.855	13.326	1301.797	983.648
91.870	13.260	1301.467	982.918
92.884	13.304	1300.834	982.613
93.899	13.326	1299.598	981.723
94.914	13.362	1298.965	981.374
95.928	13.449	1297.958	981.039
96.943	13.444	1296.514	979.836
97.957	13.379	1295.688	978.736
98.972	13.308	1295.076	977.769
99.987	13.323	1294.236	977.139
101.001	13.302	1293.071	976.048
102.016	13.379	1292.026	975.624
103.030	13.359	1291.325	974.891
104.045	13.314	1290.148	973.654
105.060	13.426	1288.397	972.904
106.074	13.289	1287.517	971.351
107.089	13.166	1286.501	969.777
108.103	13.091	1285.139	968.220
109.118	13.196	1283.979	967.880
110.133	13.180	1282.561	966.630
111.147	13.161	1281.301	965.485
112.162	13.126	1280.191	964.357
113.176	13.253	1278.839	963.992
114.191	13.265	1277.990	963.337
115.206	13.243	1276.842	962.259
116.220	13.194	1275.883	961.169
117.235	13.234	1274.321	960.140
118.249	13.148	1273.680	959.068
119.264	13.317	1271.938	958.653
120.279	13.127	1271.675	957.270
121.293	13.188	1270.289	956.495
122.308	13.097	1269.271	955.117
123.322	13.213	1268.198	954.897
124.337	13.121	1267.488	953.743
125.352	13.126	1266.249	952.755
126.366	13.195	1264.787	951.969
127.381	13.196	1263.471	950.901
128.395	13.207	1262.818	950.389
129.410	13.131	1262.076	949.309
130.424	13.097	1261.213	948.384
131.439	13.188	1260.611	948.368
132.454	13.293	1259.263	947.874
133.468	13.242	1258.636	947.025
134.483	13.261	1257.578	946.254
135.497	13.335	1256.429	945.728
136.512	13.152	1255.081	943.584
137.527	13.207	1253.974	942.980
138.541	13.405	1251.842	942.422
139.556	13.271	1250.987	940.936
140.570	13.382	1249.869	940.639
141.585	13.379	1248.367	939.412
142.600	13.365	1247.691	938.741
143.614	13.406	1246.833	938.245
144.629	13.446	1245.640	937.486
145.643	13.544	1244.231	936.901
146.658	13.462	1242.802	935.278
147.673	13.298	1241.915	933.601
148.687	13.379	1240.950	933.251
149.702	13.321	1239.399	931.676
150.716	13.377	1237.994	930.852
151.731	13.278	1237.146	929.575
152.746	13.434	1235.794	929.352
153.760	13.385	1234.144	927.757
154.775	13.397	1233.716	927.415
155.789	13.472	1232.511	926.847
156.804	13.415	1231.654	925.802
157.819	13.485	1230.509	925.251
158.833	13.588	1229.429	924.935
159.848	13.602	1228.496	924.229
160.862	13.568	1227.762	923.403
161.877	13.573	1226.312	922.262
162.892	13.501	1225.125	920.888
163.906	13.410	1224.517	919.841
164.921	13.450	1223.659	919.335
165.935	13.459	1222.762	918.633
166.950	13.592	1221.813	918.577
167.964	13.537	1221.481	917.938
168.979	13.486	1220.815	917.078
169.994	13.473	1219.849	916.197
171.008	13.512	1219.484	916.056
172.023	13.609	1218.343	915.656
173.037	13.623	1217.466	914.991
174.052	13.650	1216.480	914.319
175.067	13.571	1215.441	913.021
176.081	13.502	1214.751	912.044
177.096	13.642	1213.752	911.981
178.110	13.666	1211.999	910.717
179.125	13.580	1211.585	909.852
180.140	13.568	1210.153	908.632
181.154	13.618	1209.337	908.210
182.169	13.708	1207.426	907.186
183.183	13.781	1206.214	906.598
184.198	13.792	1205.220	905.828
185.213	13.794	1203.658	904.588
186.227	13.799	1203.074	904.094
187.242	13.781	1202.119	903.201
188.256	13.885	1201.575	903.277
189.271	13.936	1200.164	902.413
190.286	13.800	1199.037	900.750
191.300	13.671	1198.196	899.336
192.315	13.783	1197.484	899.328
193.329	13.630	1197.048	898.096
194.344	13.597	1196.738	897.602
195.359	13.809	1195.868	898.016
196.373	13.845	1195.308	897.711
197.388	13.891	1194.623	897.368
198.402	13.976	1194.416	897.592
199.417	13.982	1193.969	897.206
200.432	13.994	1192.624	896.185
201.446	14.006	1191.772	895.526
202.461	14.059	1190.830	895.025
203.475	14.024	1190.037	894.162
204.490	13.995	1188.457	892.744
205.504	13.914	1187.534	891.532
206.519	14.028	1185.860	890.807
207.534	14.031	1184.758	889.917
208.548	14.006	1183.808	888.994
209.563	13.979	1183.374	888.442
210.577	14.063	1182.316	888.020
211.592	14.003	1181.769	887.209
212.607	14.151	1180.723	887.138
213.621	14.201	1179.892	886.699
214.636	13.986	1179.234	884.982
215.650	14.144	1178.028	884.837
216.665	14.315	1176.589	884.589
217.680	14.306	1176.473	884.375
218.694	14.232	1175.420	883.113
219.709	14.253	1174.474	882.433
220.723	14.303	1173.831	882.139
221.738	14.251	1172.966	881.133
222.753	14.261	1172.634	880.860
223.767	14.360	1171.259	880.272
224.782	14.325	1171.033	879.843
225.796	14.478	1170.233	879.966
226.811	14.312	1169.888	878.753
227.826	14.385	1168.452	877.985
228.840	14.340	1168.141	877.435
229.855	14.264	1167.483	876.463
230.869	14.397	1166.719	876.514
231.884	14.323	1166.088	875.570
232.899	14.250	1165.413	874.601
233.913	14.239	1164.767	873.982
234.928	14.316	1163.548	873.396
235.942	14.476	1162.668	873.494
236.957	14.359	1162.247	872.491
237.972	14.337	1161.270	871.562
238.986	14.401	1160.718	871.407
240.001	14.436	1160.222	871.140
241.015	14.357	1159.346	869.995
242.030	14.393	1158.537	869.499
243.045	14.521	1157.629	869.405
244.059	14.502	1156.721	868.550
245.074	14.477	1156.618	868.266
246.088	14.440	1155.556	867.199
247.103	14.519	1154.636	866.839
248.117	14.595	1154.131	866.777
249.132	14.684	1153.303	866.544
250.147	14.769	1152.565	866.350
251.161	14.734	1151.687	865.433
252.176	14.857	1151.045	865.513
253.190	14.850	1150.847	865.252
254.205	14.818	1150.276	864.580
255.220	14.856	1149.481	864.103
256.234	14.903	1148.857	863.797
257.249	14.904	1148.276	863.291
258.263	14.867	1147.155	862.181
259.278	14.905	1146.888	862.102
260.293	14.956	1146.370	861.895
261.307	14.895	1145.621	860.941
262.322	14.946	1145.357	860.932
263.336	15.091	1143.916	860.515
264.351	14.973	1143.946	859.856
265.366	15.004	1143.079	859.289
266.380	15.146	1142.013	859.140
267.395	15.074	1140.996	857.929
268.409	15.154	1140.315	857.753
269.424	15.018	1140.507	857.122
270.439	15.027	1139.695	856.483
271.453	15.133	1138.387	855.967
272.468	15.006	1138.078	855.011
273.482	15.040	1137.384	854.587
274.497	15.067	1136.421	853.927
275.512	15.168	1135.785	853.887
276.526	15.123	1135.190	853.134
277.541	15.127	1134.301	852.411
278.555	15.131	1133.980	852.116
279.570	15.237	1133.445	852.177
280.585	15.213	1132.195	851.037
281.599	15.259	1131.532	850.698
282.614	15.221	1130.623	849.747
283.628	15.300	1129.012	848.863
284.643	15.354	1128.331	848.545
285.657	15.297	1127.688	847.700
286.672	15.273	1126.864	846.883
287.687	15.346	1125.725	846.322
288.701	15.235	1125.278	845.352
289.716	15.345	1124.478	845.232
290.730	15.442	1123.491	844.902
291.745	15.346	1123.142	844.080
292.760	15.375	1122.690	843.815
293.774	15.468	1122.352	843.952
294.789	15.472	1121.084	842.945
295.803	15.417	1121.058	842.575
296.818	15.397	1119.882	841.514
297.833	15.400	1119.227	840.962
298.847	15.350	1118.530	840.115
299.862	15.475	1117.702	840.044
300.876	15.546	1116.554	839.460
301.891	15.590	1116.141	839.298
302.906	15.536	1115.578	838.528
303.920	15.554	1115.096	838.181
304.935	15.598	1114.271	837.708
305.949	15.696	1113.278	837.376
306.964	15.707	1112.603	836.850
307.979	15.576	1112.616	836.133
308.993	15.657	1111.478	835.604
310.008	15.707	1110.609	835.128
311.022	15.744	1109.824	834.644
312.037	15.736	1109.044	833.946
313.052	15.744	1107.871	833.030
314.066	15.602	1107.018	831.614
315.081	15.540	1106.820	831.083
316.095	15.651	1105.683	830.703
317.110	15.707	1105.237	830.571
318.125	15.708	1104.069	829.625
319.139	15.743	1103.177	829.052
320.154	15.663	1102.955	828.423
321.168	15.822	1102.130	828.508
322.183	15.724	1101.566	827.531
323.197	15.754	1101.263	827.377
324.212	15.748	1100.692	826.845
325.227	15.698	1100.054	826.046
326.241	15.759	1099.279	825.693
327.256	15.754	1098.739	825.187
328.270	15.782	1097.534	824.349
329.285	15.762	1096.508	823.405
330.300	15.760	1095.352	822.458
331.314	15.755	1094.367	821.618
332.329	15.753	1093.887	821.175
333.343	15.805	1092.903	820.619
334.358	15.955	1091.925	820.543
335.373	15.841	1091.858	819.864
336.387	15.982	1090.822	819.702
337.402	15.980	1090.058	819.041
338.416	16.041	1089.160	818.592
339.431	15.966	1088.868	817.937
340.446	16.149	1087.742	817.906
341.460	16.251	1087.314	818.007
342.475	16.221	1086.661	817.299
343.489	16.246	1085.483	816.461
344.504	16.233	1084.662	815.709
345.519	16.236	1084.053	815.189
346.533	16.225	1082.910	814.207
347.548	16.367	1082.158	814.253
348.562	16.322	1081.819	813.708
349.577	16.189	1080.524	812.022
350.592	16.198	1079.963	811.573
351.606	16.176	1079.556	811.089
352.621	16.249	1078.536	810.603
353.635	16.144	1077.944	809.582
354.650	16.126	1077.405	809.019
355.665	16.214	1076.520	808.703
356.679	16.308	1075.980	808.677
357.694	16.345	1075.001	808.049
358.708	16.233	1074.690	807.206
359.723	16.329	1074.156	807.194
360.738	16.370	1073.447	806.786
361.752	16.387	1073.164	806.582
362.767	16.324	1072.693	805.856
363.781	16.458	1071.772	805.733
364.796	16.439	1071.378	805.273
365.810	16.408	1070.707	804.549
366.825	16.521	1070.099	804.558
367.840	16.559	1069.584	804.280
368.854	16.603	1068.832	803.856
369.869	16.665	1067.911	803.383
370.883	16.690	1066.787	802.588
371.898	16.444	1066.831	801.380
372.913	16.505	1065.983	800.962
373.927	16.636	1065.464	801.122
374.942	16.645	1064.728	800.539
375.956	16.634	1064.550	800.282
376.971	16.668	1063.787	799.801
377.986	16.778	1063.200	799.810
379.000	16.686	1062.928	799.098
380.015	16.928	1062.299	799.694
381.029	16.812	1061.525	798.497
382.044	16.747	1061.166	797.851
383.059	16.834	1060.214	797.473
384.073	16.805	1059.381	796.638
385.088	16.848	1058.541	796.140
386.102	16.973	1057.473	795.852
387.117	16.797	1056.530	794.245
388.132	16.803	1056.032	793.830
389.146	16.821	1055.000	793.069
390.161	16.760	1054.319	792.200
391.175	16.857	1053.508	791.975
392.190	16.849	1052.927	791.430
393.205	16.952	1052.264	791.343
394.219	16.830	1051.482	790.118
395.234	16.882	1050.739	789.732
396.248	16.885	1049.441	788.697
397.263	16.896	1048.634	788.072
398.278	16.975	1047.931	787.844
399.292	16.820	1047.305	786.583
400.307	16.787	1046.954	786.095
401.321	16.827	1046.248	785.681
402.336	16.834	1045.674	785.213
403.350	16.907	1044.813	784.836
404.365	16.960	1044.013	784.411
405.380	16.930	1043.252	783.632
406.394	17.021	1042.643	783.524
407.409	17.091	1041.707	783.074
408.423	17.091	1041.203	782.624
409.438	17.131	1040.910	782.519
410.453	17.117	1040.152	781.819
411.467	17.271	1039.207	781.748
412.482	17.204	1038.578	780.895
413.496	17.337	1037.551	780.664
414.511	17.284	1036.936	779.888
415.526	17.364	1036.692	780.004
416.540	17.255	1036.215	779.075
417.555	17.438	1035.575	779.364
418.569	17.330	1035.239	778.547
419.584	17.351	1034.753	778.212
420.599	17.305	1034.613	777.827
421.613	103.499	1322.499	1469.784
422.628	94.826	1364.418	1469.882
