DTS Sentinel unit serial number:	SN413079Multiplexer serial number:	ORYXHardware model number:	OX4-SRSoftware version number:	ORYX F/W v4.00 Oryx Data Collector v3.7.2.0data status	okinstallation	princeton_trtdifferential loss correction	single-endedforward channel	channel 2reverse channel	N/Adate	2019/09/10time	23:09:11forward acquisition time	60.00reverse acquisition time	0.00gamma	496.2192k internal	0.2330k external	0.2330temperature offset calibration	0.9942default loss term (dB/km)	0.3790temperature slope calibration	1.0000multiplexer offset coefficient	1.0000multiplexer slope coefficient	1.0000fibre end	0.00T internal ref (°C)	29.94T ext. ref 1 (°C)	-0.31T ext. ref 2 (°C)	23.31length (m)	temperature (°C)	Stokes	anti-Stokes-747.200	440.535	0.058	0.127
-746.185	19.715	-0.133	0.108
-745.171	156.895	0.210	0.292
-744.156	505.950	-0.183	0.427
-743.142	-200.000	0.014	-0.107
-742.127	92.465	0.184	0.209
-741.112	77.562	-0.177	-0.190
-740.098	-103.050	0.346	0.083
-739.083	92.294	0.213	0.242
-738.069	-148.342	0.370	-0.031
-737.054	237.935	-0.172	0.287
-736.039	-52.636	0.295	-0.137
-735.025	-71.698	0.203	0.076
-734.010	-83.341	-0.009	-0.003
-732.996	59.434	-0.283	-0.281
-731.981	0.307	0.085	-0.061
-730.966	-96.128	0.225	0.060
-729.952	-200.000	0.017	0.323
-728.937	-200.000	-0.021	-0.325
-727.923	317.615	0.136	-0.259
-726.908	436.576	-0.116	-0.254
-725.894	-200.000	0.069	0.368
-724.879	-200.000	0.008	-0.128
-723.864	-115.829	-0.225	-0.042
-722.850	136.745	0.166	0.218
-721.835	800.000	0.065	0.223
-720.821	61.835	-0.322	-0.322
-719.806	65.195	-0.310	-0.315
-718.791	-200.000	-0.030	-0.133
-717.777	-200.000	-0.011	-0.421
-716.762	262.892	0.065	0.114
-715.748	70.775	0.150	0.156
-714.733	-44.430	-0.260	0.131
-713.718	307.552	-0.131	0.246
-712.704	-106.916	-0.069	-0.015
-711.689	576.867	0.131	0.322
-710.675	-11.760	-0.259	-0.171
-709.660	800.000	-0.090	-0.294
-708.645	800.000	0.049	0.152
-707.631	-105.580	0.261	0.059
-706.616	-32.190	0.258	-0.145
-705.602	-200.000	0.003	0.259
-704.587	177.498	-0.091	0.133
-703.572	-85.815	0.234	-0.073
-702.558	-4.892	0.329	-0.228
-701.543	-123.430	0.168	0.027
-700.529	156.767	-0.225	-0.312
-699.514	-32.551	-0.264	0.148
-698.499	-151.414	-0.116	0.009
-697.485	272.067	0.062	-0.109
-696.470	800.000	0.051	0.168
-695.456	1.577	-0.220	0.159
-694.441	-129.120	-0.369	0.052
-693.426	106.054	0.083	0.098
-692.412	81.093	0.224	0.243
-691.397	66.747	0.044	0.045
-690.383	-200.000	-0.060	0.317
-689.368	159.420	0.034	-0.048
-688.354	-165.849	-0.294	0.013
-687.339	800.000	0.032	0.096
-686.324	197.683	-0.061	-0.093
-685.310	-200.000	-0.022	0.418
-684.295	800.000	-0.072	0.201
-683.281	133.750	0.169	0.220
-682.266	-103.156	-0.372	0.088
-681.251	-200.000	-0.003	0.200
-680.237	-200.000	-0.064	0.398
-679.222	231.603	-0.085	0.141
-678.208	-200.000	-0.001	0.235
-677.193	-126.074	-0.228	-0.034
-676.178	-112.754	-0.185	-0.037
-675.164	-140.103	-0.137	0.014
-674.149	265.372	0.105	0.184
-673.135	-42.526	-0.119	-0.061
-672.120	-16.143	0.184	-0.118
-671.105	-19.046	-0.127	0.079
-670.091	-37.257	0.139	0.075
-669.076	-78.172	0.276	-0.095
-668.062	800.000	0.014	0.039
-667.047	217.445	-0.102	0.163
-666.032	-90.725	0.343	-0.099
-665.018	-168.629	0.372	0.014
-664.003	-200.000	0.051	-0.234
-662.989	800.000	-0.171	-0.479
-661.974	-200.000	-0.029	-0.266
-660.959	86.044	0.201	0.222
-659.945	242.375	0.060	-0.101
-658.930	800.000	0.067	-0.236
-657.916	496.971	0.073	-0.168
-656.901	39.614	-0.168	-0.151
-655.886	-200.000	0.051	-0.282
-654.872	-122.041	-0.180	0.030
-653.857	-130.484	0.142	0.019
-652.843	-157.310	-0.222	0.013
-651.828	-80.629	-0.053	-0.018
-650.814	126.200	0.203	-0.257
-649.799	-44.174	-0.420	0.211
-648.784	-68.118	0.193	0.075
-647.770	-200.000	0.078	-0.431
-646.755	130.926	0.099	0.127
-645.741	-200.000	0.003	-0.421
-644.726	-200.000	-0.037	0.290
-643.711	-200.000	0.046	-0.266
-642.697	182.137	-0.194	-0.287
-641.682	0.301	-0.516	0.369
-640.668	-50.341	-0.269	0.128
-639.653	46.393	0.113	-0.105
-638.638	64.785	-0.069	0.069
-637.624	-56.513	-0.349	0.155
-636.609	61.455	0.077	-0.077
-635.595	-60.845	-0.180	0.076
-634.580	276.239	-0.121	-0.215
-633.565	-24.434	0.235	-0.140
-632.551	86.097	-0.159	-0.176
-631.536	109.408	-0.092	-0.111
-630.522	121.072	-0.193	-0.240
-629.507	-38.493	0.309	-0.164
-628.492	93.400	-0.112	-0.127
-627.478	-16.264	-0.027	0.017
-626.463	7.958	0.359	-0.270
-625.449	-200.000	0.029	0.138
-624.434	-109.847	0.170	-0.036
-623.419	89.509	0.094	0.105
-622.405	433.805	0.045	-0.098
-621.390	-200.000	-0.013	-0.249
-620.376	-102.435	0.143	0.034
-619.361	-200.000	-0.010	-0.127
-618.346	800.000	-0.079	0.311
-617.332	94.348	-0.063	-0.072
-616.317	206.632	0.216	-0.336
-615.303	93.256	-0.304	-0.344
-614.288	-200.000	0.035	-0.243
-613.273	-138.666	-0.133	0.015
-612.259	-200.000	0.017	-0.114
-611.244	89.691	0.023	-0.026
-610.230	59.136	-0.154	-0.152
-609.215	62.278	0.277	0.277
-608.201	800.000	-0.086	-0.302
-607.186	-104.266	-0.259	-0.060
-606.171	-200.000	0.034	0.156
-605.157	-148.266	-0.192	-0.016
-604.142	360.399	0.114	0.228
-603.128	296.852	-0.029	-0.053
-602.113	800.000	-0.034	-0.112
-601.098	800.000	0.070	-0.211
-600.084	-32.267	-0.168	0.094
-599.069	720.277	-0.016	0.044
-598.055	-112.809	0.176	0.035
-597.040	-200.000	-0.041	-0.206
-596.025	-65.896	0.158	-0.063
-595.011	-66.165	-0.193	0.077
-593.996	-103.248	0.097	0.023
-592.982	-200.000	0.113	0.585
-591.967	-154.280	-0.111	-0.007
-590.952	800.000	-0.107	0.443
-589.938	65.939	0.262	-0.266
-588.923	-200.000	-0.001	-0.110
-587.909	800.000	0.036	0.131
-586.894	-71.700	0.219	-0.082
-585.879	-200.000	-0.022	-0.262
-584.865	125.520	0.123	0.155
-583.850	-141.054	-0.291	0.030
-582.836	69.753	0.125	-0.129
-581.821	-200.000	0.010	0.070
-580.806	22.980	0.145	-0.119
-579.792	635.874	0.057	0.146
-578.777	-200.000	0.015	0.455
-577.763	-159.477	0.092	0.005
-576.748	-200.000	-0.033	0.187
-575.733	800.000	-0.047	-0.185
-574.719	278.391	-0.096	0.171
-573.704	52.169	-0.155	-0.148
-572.690	714.357	-0.108	-0.287
-571.675	273.509	0.188	0.332
-570.661	-51.477	-0.317	-0.148
-569.646	332.811	-0.080	0.155
-568.631	-200.000	-0.012	-0.192
-567.617	-200.000	0.014	-0.285
-566.602	278.238	0.070	-0.124
-565.588	781.081	0.118	-0.324
-564.573	-0.994	-0.191	0.135
-563.558	-131.030	0.270	-0.036
-562.544	-112.228	0.228	-0.046
-561.529	102.939	-0.169	0.198
-560.515	-135.996	-0.061	-0.007
-559.500	-168.025	-0.123	-0.005
-558.485	-42.565	-0.169	0.086
-557.471	76.724	0.242	-0.256
-556.456	-75.089	0.054	0.019
-555.442	-88.796	0.063	-0.019
-554.427	119.918	-0.238	0.295
-553.412	-27.952	0.131	-0.076
-552.398	0.636	-0.543	-0.388
-551.383	-59.758	-0.119	0.051
-550.369	15.906	-0.006	0.005
-549.354	-17.222	0.054	0.034
-548.339	-62.647	0.280	0.116
-547.325	-84.320	-0.131	0.041
-546.310	30.161	-0.060	0.051
-545.296	-67.820	-0.196	0.077
-544.281	7.220	-0.242	-0.181
-543.266	66.845	-0.072	-0.073
-542.252	571.409	0.173	-0.422
-541.237	-51.206	0.282	0.132
-540.223	42.084	0.308	-0.279
-539.208	-94.362	0.268	-0.073
-538.193	47.211	-0.226	0.210
-537.179	-18.582	0.224	0.139
-536.164	-72.001	-0.088	-0.033
-535.150	800.000	-0.037	0.139
-534.135	-137.311	-0.181	0.021
-533.121	230.064	-0.014	0.023
-532.106	168.939	-0.153	0.217
-531.091	34.718	0.301	-0.263
-530.077	-126.515	-0.150	-0.022
-529.062	-128.666	-0.157	-0.022
-528.048	-23.271	-0.103	-0.062
-527.033	-29.143	-0.137	0.079
-526.018	-138.631	-0.227	-0.025
-525.004	-76.955	-0.192	0.067
-523.989	-200.000	0.057	0.305
-522.975	59.586	-0.330	0.325
-521.960	-18.790	0.056	-0.035
-520.945	-200.000	0.022	-0.171
-519.931	-159.826	-0.196	0.011
-518.916	-185.793	0.115	0.002
-517.902	-200.000	0.020	-0.117
-516.887	-38.869	0.143	-0.075
-515.872	-200.000	-0.004	-0.188
-514.858	138.835	0.133	0.175
-513.843	-200.000	0.009	-0.195
-512.829	-34.402	-0.189	0.104
-511.814	60.909	0.287	0.284
-510.799	-200.000	-0.060	-0.333
-509.785	408.272	0.073	-0.154
-508.770	800.000	-0.026	-0.100
-507.756	-136.702	-0.086	-0.010
-506.741	-200.000	-0.036	0.317
-505.726	-93.102	-0.234	0.065
-504.712	-46.104	-0.028	-0.014
-503.697	479.850	-0.099	0.223
-502.683	-139.647	-0.240	0.025
-501.668	207.353	0.200	0.311
-500.653	800.000	-0.132	0.413
-499.639	-117.164	0.183	0.033
-498.624	735.403	0.045	0.120
-497.610	119.388	0.148	0.182
-496.595	52.516	-0.207	-0.197
-495.581	800.000	0.012	0.050
-494.566	800.000	-0.050	0.186
-493.551	209.126	-0.180	0.281
-492.537	-69.286	-0.093	0.036
-491.522	146.053	-0.090	0.121
-490.508	-1.547	-0.110	0.077
-489.493	-86.735	0.240	0.073
-488.478	-200.000	0.070	0.404
-487.464	85.413	0.010	-0.011
-486.449	-52.327	0.104	0.048
-485.435	-200.000	-0.072	0.318
-484.420	-200.000	0.073	0.333
-483.405	-39.811	0.196	0.102
-482.391	148.437	-0.297	0.399
-481.376	-140.665	-0.363	-0.037
-480.362	-200.000	-0.086	0.511
-479.347	319.605	-0.137	-0.260
-478.332	73.160	0.144	0.150
-477.318	-88.516	-0.263	0.078
-476.303	-184.206	-0.365	0.006
-475.289	-61.263	0.299	-0.125
-474.274	541.925	-0.187	-0.445
-473.259	800.000	0.031	-0.123
-472.245	-146.481	0.220	0.019
-471.230	220.401	0.062	0.100
-470.216	-200.000	-0.014	0.068
-469.201	132.889	-0.136	0.175
-468.186	-187.129	0.344	0.005
-467.172	800.000	-0.033	-0.092
-466.157	-126.619	0.201	0.030
-465.143	674.414	0.029	-0.074
-464.128	-165.818	-0.379	0.016
-463.113	-58.812	0.177	-0.076
-462.099	-3.713	0.084	0.058
-461.084	-125.979	-0.401	0.060
-460.070	-18.338	-0.205	0.128
-459.055	107.100	-0.052	0.062
-458.040	12.902	-0.202	0.156
-457.026	129.924	0.084	-0.107
-456.011	204.500	-0.040	-0.062
-454.997	29.962	-0.015	-0.013
-453.982	-53.379	-0.042	0.019
-452.968	-179.159	-0.283	0.006
-451.953	-132.004	0.381	0.049
-450.938	-52.726	-0.321	-0.148
-449.924	-129.689	0.252	0.035
-448.909	800.000	-0.031	-0.104
-447.895	-2.908	0.080	0.055
-446.880	216.745	0.096	-0.152
-445.865	474.906	-0.054	-0.121
-444.851	267.606	0.202	-0.351
-443.836	-200.000	-0.007	0.274
-442.822	-200.000	-0.053	-0.349
-441.807	-200.000	-0.054	-0.412
-440.792	-200.000	0.011	-0.094
-439.778	273.945	-0.095	-0.166
-438.763	373.430	0.060	-0.120
-437.749	-141.664	0.174	-0.017
-436.734	312.366	0.102	-0.190
-435.719	73.852	0.163	-0.170
-434.705	-40.259	0.236	-0.122
-433.690	479.927	-0.062	-0.139
-432.676	-144.551	0.259	-0.024
-431.661	-75.494	-0.165	-0.059
-430.646	-78.171	0.260	-0.089
-429.632	-129.241	-0.089	0.012
-428.617	128.698	0.345	0.437
-427.603	34.880	-0.072	-0.062
-426.588	-74.016	-0.222	0.080
-425.573	-200.000	-0.004	-0.207
-424.559	-96.392	0.207	0.055
-423.544	-200.000	0.003	0.127
-422.530	27.879	-0.352	-0.295
-421.515	715.405	0.064	-0.169
-420.500	800.000	0.078	0.305
-419.486	181.828	0.204	-0.299
-418.471	303.738	-0.108	-0.199
-417.457	-22.754	0.020	0.012
-416.442	143.693	0.070	-0.093
-415.428	204.421	-0.058	0.089
-414.413	638.215	0.107	0.271
-413.398	-113.266	0.249	-0.049
-412.384	20.686	-0.154	-0.124
-411.369	125.312	-0.179	-0.225
-410.355	-200.000	-0.001	0.010
-409.340	-16.062	0.432	0.273
-408.325	230.724	-0.061	-0.098
-407.311	-90.579	0.277	0.080
-406.296	-200.000	0.019	-0.356
-405.282	269.930	0.197	0.344
-404.267	-33.008	0.127	-0.070
-403.252	-92.031	-0.131	0.037
-402.238	800.000	0.055	-0.203
-401.223	611.227	0.127	-0.317
-400.209	-86.318	0.242	-0.074
-399.194	-200.000	0.005	-0.208
-398.179	50.346	0.137	-0.129
-397.165	34.714	0.142	-0.123
-396.150	-128.376	0.299	0.042
-395.136	156.386	0.099	0.136
-394.121	140.473	-0.053	0.069
-393.106	-6.797	-0.102	-0.069
-392.092	-116.444	-0.381	0.070
-391.077	1.145	0.205	0.146
-390.063	-76.371	0.365	0.128
-389.048	-161.645	-0.322	-0.016
-388.033	-78.645	-0.168	0.057
-387.019	-200.000	-0.005	0.121
-386.004	106.007	0.276	-0.325
-384.990	279.126	-0.102	0.180
-383.975	-172.129	0.058	0.002
-382.960	-19.533	0.192	-0.118
-381.946	158.660	0.260	-0.359
-380.931	-83.106	-0.325	-0.104
-379.917	-200.000	0.072	0.385
-378.902	-200.000	0.049	-0.220
-377.888	248.004	-0.111	0.187
-376.873	-80.122	0.255	-0.085
-375.858	-3.572	-0.267	-0.184
-374.844	-97.744	-0.062	-0.016
-373.829	24.179	0.392	-0.322
-372.815	59.716	-0.263	-0.257
-371.800	-7.384	0.185	0.125
-370.785	97.703	0.231	0.263
-369.771	543.927	-0.033	0.078
-368.756	87.910	-0.023	-0.025
-367.742	-26.349	-0.045	-0.026
-366.727	-200.000	-0.044	0.345
-365.712	-73.318	-0.161	0.059
-364.698	-65.089	0.107	0.043
-363.683	800.000	-0.093	0.266
-362.669	-167.152	0.414	-0.017
-361.654	154.117	0.161	0.220
-360.639	99.659	-0.033	0.037
-359.625	65.634	0.208	0.209
-358.610	184.357	-0.049	-0.072
-357.596	136.449	-0.151	-0.196
-356.581	-119.118	0.401	-0.070
-355.566	-64.189	0.208	0.084
-354.552	160.950	0.094	0.131
-353.537	175.971	-0.196	0.282
-352.523	70.132	-0.115	0.118
-351.508	-123.524	-0.135	0.021
-350.493	800.000	0.079	-0.251
-349.479	139.684	0.169	-0.220
-348.464	-65.378	-0.053	0.021
-347.450	-56.143	0.135	-0.060
-346.435	37.680	-0.161	-0.141
-345.420	273.193	0.026	-0.045
-344.406	-78.584	-0.206	0.070
-343.391	800.000	-0.082	-0.231
-342.377	-200.000	-0.065	-0.282
-341.362	-56.039	-0.147	0.065
-340.348	27.755	0.066	-0.055
-339.333	-200.000	-0.043	0.221
-338.318	-3.115	-0.110	-0.076
-337.304	800.000	-0.028	-0.105
-336.289	-128.744	0.162	0.023
-335.275	800.000	-0.103	0.320
-334.260	-200.000	-0.002	-0.102
-333.245	-80.813	-0.221	-0.073
-332.231	83.672	0.182	0.196
-331.216	-192.022	0.379	0.004
-330.202	402.212	-0.106	0.220
-329.187	370.109	-0.136	0.273
-328.172	57.882	-0.090	0.087
-327.158	21.298	0.083	0.066
-326.143	-84.826	0.431	-0.134
-325.129	-200.000	-0.008	0.072
-324.114	-161.231	-0.108	-0.006
-323.099	-168.467	-0.107	0.004
-322.085	14.223	-0.501	-0.386
-321.070	-18.934	0.206	0.127
-320.056	-111.278	0.178	0.036
-319.041	800.000	-0.104	0.317
-318.026	158.745	0.191	0.262
-317.012	47.584	0.280	-0.259
-315.997	-200.000	0.003	-0.137
-314.983	-24.717	0.137	-0.081
-313.968	800.000	0.014	0.040
-312.953	94.043	-0.168	-0.189
-311.939	-78.704	-0.301	0.102
-310.924	-66.484	-0.078	-0.031
-309.910	-200.000	0.010	-0.097
-308.895	106.135	-0.229	-0.268
-307.880	-33.168	-0.139	0.076
-306.866	668.755	0.068	-0.174
-305.851	800.000	0.045	-0.153
-304.837	-200.000	-0.061	0.319
-303.822	-145.347	-0.436	0.039
-302.807	31.202	0.119	0.101
-301.793	44.647	0.172	-0.157
-300.778	518.301	0.139	0.323
-299.764	-200.000	-0.047	-0.296
-298.749	-8.713	-0.167	-0.111
-297.735	-129.950	0.232	0.031
-296.720	544.100	0.128	0.303
-295.705	206.494	-0.125	-0.193
-294.691	44.557	0.153	-0.139
-293.676	311.490	-0.265	-0.492
-292.662	134.590	0.070	0.090
-291.647	318.219	-0.098	0.183
-290.632	144.217	0.103	0.136
-289.618	553.808	-0.078	0.185
-288.603	129.901	0.057	0.072
-287.589	800.000	-0.184	0.531
-286.574	-200.000	0.070	0.396
-285.559	-130.806	0.279	0.037
-284.545	-200.000	0.023	-0.192
-283.530	-39.303	0.052	0.027
-282.516	-200.000	-0.082	0.532
-281.501	271.035	-0.180	0.313
-280.486	-3.634	-0.130	0.090
-279.472	-200.000	-0.001	-0.025
-278.457	119.183	0.161	-0.197
-277.443	-200.000	0.029	-0.143
-276.428	9.550	0.342	-0.256
-275.413	13.731	-0.162	-0.124
-274.399	-200.000	0.066	0.305
-273.384	82.268	-0.219	0.235
-272.370	43.088	0.246	-0.222
-271.355	-200.000	0.010	-0.181
-270.340	68.539	-0.278	-0.282
-269.326	-147.940	-0.255	-0.021
-268.311	-21.025	0.271	0.164
-267.297	-37.755	-0.373	0.196
-266.282	36.789	-0.277	0.242
-265.267	800.000	0.062	0.172
-264.253	800.000	0.047	-0.146
-263.238	172.526	0.189	-0.269
-262.224	-53.973	0.110	-0.049
-261.209	2.138	0.077	-0.055
-260.195	-200.000	-0.007	0.232
-259.180	-123.989	-0.436	0.068
-258.165	450.138	0.051	0.112
-257.151	-104.981	-0.120	-0.027
-256.136	-44.565	0.037	0.018
-255.122	-200.000	0.002	-0.024
-254.107	405.763	-0.065	-0.135
-253.092	-129.579	0.090	0.012
-252.078	-200.000	0.013	-0.169
-251.063	-200.000	0.031	0.345
-250.049	-192.136	-0.275	-0.003
-249.034	-125.497	-0.237	0.036
-248.019	136.393	-0.053	0.069
-247.005	-65.820	0.250	0.099
-245.990	40.855	-0.009	-0.008
-244.976	-200.000	0.011	0.087
-243.961	-137.423	-0.200	0.022
-242.946	191.713	-0.043	0.064
-241.932	264.765	0.173	0.298
-240.917	171.428	-0.123	0.175
-239.903	159.721	-0.094	-0.129
-238.888	-2.667	0.317	-0.219
-237.873	207.211	0.141	-0.217
-236.859	13.417	0.181	-0.138
-235.844	-44.399	0.165	-0.082
-234.830	-91.023	0.120	-0.034
-233.815	701.824	0.163	-0.424
-232.800	63.119	-0.072	0.072
-231.786	-200.000	0.003	-0.110
-230.771	255.152	0.051	-0.087
-229.757	-136.998	-0.158	0.018
-228.742	81.756	0.149	0.160
-227.727	3.410	-0.053	0.038
-226.713	160.494	-0.225	-0.310
-225.698	-200.000	-0.050	0.320
-224.684	-200.000	-0.012	0.079
-223.669	-200.000	-0.060	-0.419
-222.655	800.000	0.051	-0.140
-221.640	-200.000	-0.026	-0.295
-220.625	800.000	0.021	0.075
-219.611	8.990	-0.185	0.138
-218.596	-200.000	-0.080	-0.359
-217.582	21.697	-0.165	0.132
-216.567	800.000	0.055	-0.196
-215.552	28.449	0.115	0.096
-214.538	-51.687	-0.344	-0.158
-213.523	39.055	-0.358	-0.316
-212.509	74.639	0.248	-0.257
-211.494	800.000	-0.008	0.024
-210.479	171.128	0.031	0.043
-209.465	-200.000	-0.002	-0.315
-208.450	0.312	0.037	0.026
-207.436	-200.000	-0.073	0.367
-206.421	-93.708	0.254	-0.069
-205.406	-12.884	0.548	0.352
-204.392	114.714	-0.022	0.027
-203.377	0.866	-0.122	-0.086
-202.363	478.523	0.191	0.426
-201.348	-116.949	-0.207	-0.037
-200.333	139.080	-0.154	-0.200
-199.319	-155.130	-0.217	0.014
-198.304	219.507	-0.115	0.181
-197.290	-62.192	-0.081	-0.033
-196.275	30.153	-0.123	0.103
-195.260	127.376	-0.109	0.136
-194.246	284.024	-0.071	0.127
-193.231	-71.367	0.363	0.134
-192.217	-122.817	0.188	0.030
-191.202	-14.280	0.263	-0.167
-190.187	800.000	-0.060	0.193
-189.173	150.275	-0.153	0.204
-188.158	730.062	0.174	0.459
-187.144	98.029	-0.125	0.141
-186.129	-200.000	0.027	-0.404
-185.114	-151.787	0.227	-0.016
-184.100	312.984	-0.071	0.132
-183.085	23.047	0.167	0.135
-182.071	-162.963	0.111	0.005
-181.056	53.971	-0.015	0.015
-180.042	-134.088	0.348	-0.042
-179.027	-27.999	0.181	-0.103
-178.012	-200.000	0.033	0.234
-176.998	189.945	-0.114	-0.168
-175.983	-141.092	-0.329	0.033
-174.969	-91.844	0.122	0.034
-173.954	146.514	-0.162	-0.214
-172.939	-143.739	-0.162	-0.015
-171.925	800.000	-0.014	-0.042
-170.910	70.643	0.242	-0.247
-169.896	800.000	0.048	-0.140
-168.881	740.043	0.091	0.240
-167.866	328.852	-0.131	0.248
-166.852	-114.631	-0.045	-0.008
-165.837	61.314	-0.142	-0.139
-164.823	101.061	0.071	0.081
-163.808	-169.570	0.258	-0.009
-162.793	-73.616	0.153	0.055
-161.779	-116.217	-0.056	-0.010
-160.764	-200.000	-0.007	-0.052
-159.750	-200.000	-0.020	0.285
-158.735	-156.817	0.320	0.019
-157.720	800.000	-0.056	0.175
-156.706	759.334	-0.096	0.257
-155.691	18.081	0.310	-0.243
-154.677	35.285	0.051	-0.044
-153.662	21.898	-0.052	0.042
-152.647	-200.000	-0.019	-0.165
-151.633	-124.370	-0.112	0.017
-150.618	-35.005	0.278	0.149
-149.604	28.260	0.072	-0.059
-148.589	-200.000	-0.044	-0.278
-147.574	-43.507	0.046	-0.023
-146.560	-55.020	0.309	0.137
-145.545	-136.709	-0.105	0.012
-144.531	264.939	-0.113	-0.194
-143.516	52.834	-0.044	-0.041
-142.502	-200.000	-0.007	-0.056
-141.487	44.874	0.114	-0.103
-140.472	64.053	-0.143	-0.142
-139.458	720.665	-0.138	0.360
-138.443	-155.766	0.294	-0.018
-137.429	-200.000	0.003	0.221
-136.414	-75.914	0.187	-0.065
-135.399	269.891	0.180	-0.311
-134.385	800.000	0.030	-0.102
-133.370	-157.837	0.106	0.006
-132.356	779.096	-0.159	0.426
-131.341	-136.056	0.124	0.014
-130.326	56.942	0.196	-0.187
-129.312	599.506	0.122	-0.296
-128.297	-88.890	-0.387	0.113
-127.283	634.369	0.189	0.470
-126.268	-37.251	0.290	0.153
-125.253	163.718	0.032	0.044
-124.239	-45.156	0.419	-0.205
-123.224	-200.000	-0.055	0.358
-122.210	800.000	-0.019	-0.060
-121.195	155.949	-0.106	-0.144
-120.180	-153.003	0.166	-0.012
-119.166	-44.586	0.466	-0.229
-118.151	201.507	-0.056	-0.085
-117.137	598.235	-0.073	0.179
-116.122	-200.000	-0.007	-0.202
-115.107	-87.298	0.117	0.035
-114.093	134.865	0.121	-0.155
-113.078	-200.000	-0.089	0.422
-112.064	-182.839	0.206	-0.004
-111.049	31.791	0.087	0.073
-110.034	13.919	-0.035	-0.027
-109.020	-200.000	-0.008	0.202
-108.005	-200.000	0.020	0.129
-106.991	-132.076	-0.186	-0.024
-105.976	-200.000	0.006	-0.269
-104.962	-13.993	-0.260	-0.165
-103.947	376.573	-0.049	-0.099
-102.932	-33.799	0.216	-0.117
-101.918	179.155	-0.181	0.260
-100.903	296.422	-0.009	0.017
-99.889	-200.000	-0.045	0.209
-98.874	-9.274	-0.274	0.180
-97.859	165.279	0.262	0.364
-96.845	-200.000	-0.044	0.327
-95.830	-120.433	0.028	-0.005
-94.816	368.055	0.151	-0.299
-93.801	106.796	0.040	0.047
-92.786	-20.132	-0.114	0.069
-91.772	148.065	-0.078	0.103
-90.757	-107.023	0.318	-0.069
-89.743	47.331	0.164	0.150
-88.728	800.000	-0.070	0.205
-87.713	-200.000	-0.029	0.196
-86.699	-183.858	-0.086	0.001
-85.684	-106.236	-0.319	0.070
-84.670	-107.256	-0.262	-0.057
-83.655	-85.948	-0.170	-0.052
-82.640	-39.251	0.238	-0.122
-81.626	-200.000	-0.047	-0.244
-80.611	133.329	-0.151	-0.192
-79.597	800.000	-0.037	0.153
-78.582	-146.516	0.261	-0.022
-77.567	-43.636	-0.155	0.077
-76.553	-157.800	-0.174	-0.010
-75.538	800.000	0.035	0.120
-74.524	-41.601	0.203	0.102
-73.509	232.481	0.102	0.165
-72.494	60.834	0.165	0.160
-71.480	-147.260	0.069	-0.006
-70.465	344.339	0.071	0.136
-69.451	141.625	-0.133	-0.173
-68.436	-130.005	0.264	-0.035
-67.422	120.665	0.096	-0.117
-66.407	110.125	-0.133	-0.157
-65.392	-70.920	-0.137	-0.051
-64.378	230.386	-0.224	-0.359
-63.363	-90.351	0.257	-0.073
-62.349	8.655	0.273	-0.202
-61.334	37.537	-1.011	-0.879
-60.319	39.762	0.681	0.599
-59.305	476.082	-0.359	-0.796
-58.290	209.524	0.835	1.283
-57.276	279.744	0.851	1.490
-56.261	-200.000	104.929	614.622
-55.246	516.869	1491.859	3418.782
-54.232	177.582	2692.858	3845.939
-53.217	106.315	2288.387	2657.690
-52.203	39.002	1897.133	1661.836
-51.188	33.057	1684.797	1430.925
-50.173	30.563	1641.280	1375.484
-49.159	49.353	1694.900	1562.216
-48.144	50.117	1710.063	1581.873
-47.130	32.749	1667.537	1413.732
-46.115	30.076	1653.109	1381.551
-45.100	29.870	1648.299	1375.941
-44.086	29.881	1644.870	1373.105
-43.071	29.865	1642.604	1371.047
-42.057	29.862	1640.454	1369.171
-41.042	29.935	1638.325	1367.883
-40.027	29.891	1636.776	1366.210
-39.013	29.942	1634.373	1364.523
-37.998	29.723	1633.492	1362.117
-36.984	29.814	1632.385	1361.816
-35.969	29.978	1630.371	1361.288
-34.954	29.967	1628.775	1359.814
-33.940	29.905	1626.936	1357.777
-32.925	29.963	1625.212	1356.707
-31.911	29.866	1623.826	1354.783
-30.896	29.904	1621.579	1353.132
-29.881	29.917	1620.517	1352.289
-28.867	29.862	1618.565	1350.207
-27.852	29.884	1617.222	1349.191
-26.838	29.914	1615.512	1347.932
-25.823	29.960	1614.322	1347.217
-24.809	30.070	1613.176	1347.012
-23.794	29.932	1612.047	1345.007
-22.779	29.975	1609.878	1343.457
-21.765	29.898	1608.497	1341.694
-20.750	30.030	1606.735	1341.126
-19.736	29.938	1605.876	1339.690
-18.721	30.028	1603.653	1338.436
-17.706	29.923	1602.617	1336.757
-16.692	29.911	1601.113	1335.366
-15.677	29.972	1599.851	1334.700
-14.663	30.006	1598.555	1333.808
-13.648	29.967	1596.798	1332.010
-12.633	29.905	1595.688	1330.586
-11.619	29.940	1594.011	1329.384
-10.604	29.931	1592.897	1328.336
-9.590	30.010	1591.117	1327.365
-8.575	30.027	1590.350	1326.796
-7.560	30.021	1589.290	1325.818
-6.546	30.051	1587.930	1324.842
-5.531	29.976	1586.988	1323.470
-4.517	29.903	1585.703	1321.822
-3.502	30.027	1584.352	1321.527
-2.487	29.967	1583.274	1320.151
-1.473	29.514	1571.549	1307.119
-0.458	26.659	1551.804	1270.646
0.556	20.797	1552.959	1239.371
1.571	18.447	1577.512	1241.844
2.586	18.174	1590.695	1250.116
3.600	16.389	1538.370	1196.255
4.615	8.788	1429.649	1061.422
5.629	1.211	1366.630	966.410
6.644	-0.158	1358.747	952.079
7.659	-0.306	1357.322	950.059
8.673	-0.353	1355.997	948.749
9.688	-0.413	1354.382	947.153
10.702	-0.597	1350.949	943.513
11.717	2.484	1357.355	967.390
12.731	11.552	1374.415	1037.266
13.746	18.809	1387.155	1093.133
14.761	20.500	1389.160	1105.384
15.775	20.901	1388.610	1107.396
16.790	21.021	1388.257	1107.777
17.804	20.948	1387.556	1106.659
18.819	21.296	1387.266	1108.541
19.834	21.268	1386.763	1107.863
20.848	21.315	1386.303	1107.691
21.863	21.338	1385.083	1106.768
22.877	21.403	1383.641	1105.927
23.892	21.313	1383.324	1105.010
24.907	21.208	1382.933	1103.935
25.921	21.355	1381.559	1103.669
26.936	21.255	1380.426	1102.030
27.950	21.303	1379.905	1101.822
28.965	21.268	1378.912	1100.711
29.980	21.371	1376.749	1099.533
30.994	21.372	1375.660	1098.577
32.009	21.338	1375.022	1097.757
33.023	21.346	1374.000	1096.890
34.038	21.272	1372.537	1095.163
35.053	21.268	1371.464	1094.184
36.067	21.239	1370.790	1093.371
37.082	21.378	1369.331	1092.976
38.096	21.358	1368.831	1092.353
39.111	21.308	1367.985	1091.270
40.126	21.282	1367.533	1090.651
41.140	21.307	1366.790	1090.116
42.155	21.321	1366.586	1089.945
43.169	21.341	1366.391	1089.821
44.184	21.369	1365.977	1089.566
45.199	21.277	1365.640	1088.630
46.213	21.327	1365.196	1088.491
47.228	21.255	1364.135	1087.102
48.242	21.261	1363.148	1086.256
49.257	21.268	1361.043	1084.523
50.271	21.329	1359.813	1083.827
51.286	21.423	1358.301	1083.108
52.301	21.361	1357.078	1081.656
53.315	21.371	1356.759	1081.364
54.330	21.330	1355.748	1080.208
55.344	21.302	1354.576	1079.008
56.359	21.282	1353.526	1077.955
57.374	21.324	1352.764	1077.509
58.388	21.327	1352.255	1077.030
59.403	21.308	1351.978	1076.594
60.417	21.267	1351.045	1075.503
61.432	21.294	1350.476	1075.121
62.447	21.264	1349.203	1073.830
63.461	21.368	1348.418	1073.749
64.476	21.338	1347.228	1072.523
65.490	21.274	1346.147	1071.173
66.505	21.289	1344.532	1069.885
67.520	21.312	1343.265	1068.921
68.534	21.361	1341.819	1067.978
69.549	21.380	1341.095	1067.421
70.563	21.410	1340.059	1066.686
71.578	21.274	1339.730	1065.502
72.593	21.363	1338.589	1065.039
73.607	21.308	1337.792	1063.980
74.622	21.438	1336.781	1063.873
75.636	21.342	1336.574	1063.026
76.651	21.333	1335.833	1062.287
77.666	21.395	1335.020	1061.926
78.680	21.377	1334.816	1061.559
79.695	21.412	1333.484	1060.621
80.709	21.241	1333.327	1059.366
81.724	21.353	1332.428	1059.237
82.739	21.317	1331.605	1058.269
83.753	21.360	1330.564	1057.609
84.768	21.349	1329.324	1056.463
85.782	21.395	1328.360	1055.882
86.797	21.427	1326.655	1054.627
87.812	21.454	1325.710	1053.940
88.826	21.290	1325.025	1052.320
89.841	21.410	1323.647	1051.850
90.855	21.355	1322.762	1050.725
91.870	21.354	1322.023	1050.038
92.884	21.436	1321.241	1049.816
93.899	21.413	1320.437	1048.949
94.914	21.427	1319.647	1048.309
95.928	21.472	1318.629	1047.678
96.943	21.424	1317.694	1046.555
97.957	21.443	1316.938	1045.980
98.972	21.483	1316.225	1045.556
99.987	21.515	1314.977	1044.662
101.001	21.455	1313.714	1043.211
102.016	21.482	1312.851	1042.595
103.030	21.395	1311.988	1041.296
104.045	21.368	1311.673	1040.796
105.060	21.415	1310.839	1040.319
106.074	21.400	1309.374	1038.977
107.089	21.407	1308.909	1038.556
108.103	21.541	1307.216	1037.920
109.118	21.440	1306.622	1036.759
110.133	21.441	1305.293	1035.617
111.147	21.499	1303.991	1034.836
112.162	21.474	1302.627	1033.515
113.176	21.549	1301.567	1033.022
114.191	21.521	1301.216	1032.488
115.206	21.417	1300.076	1030.878
116.220	21.470	1298.762	1030.056
117.235	21.524	1297.721	1029.459
118.249	21.579	1296.774	1028.941
119.264	21.484	1296.346	1027.951
120.279	21.471	1295.738	1027.302
121.293	21.576	1294.284	1026.672
122.308	21.540	1293.176	1025.494
123.322	21.564	1292.365	1024.899
124.337	21.464	1291.758	1023.745
125.352	21.620	1290.490	1023.559
126.366	21.641	1289.777	1023.024
127.381	21.636	1288.414	1021.823
128.395	21.506	1287.829	1020.512
129.410	21.484	1287.126	1019.734
130.424	21.492	1286.180	1018.941
131.439	21.554	1284.904	1018.202
132.454	21.592	1284.080	1017.681
133.468	21.544	1283.328	1016.713
134.483	21.702	1283.092	1017.356
135.497	21.487	1282.618	1015.639
136.512	21.557	1280.586	1014.348
137.527	21.492	1279.709	1013.188
138.541	21.629	1278.374	1012.833
139.556	21.465	1277.546	1011.139
140.570	21.390	1276.844	1010.063
141.585	21.557	1275.046	1009.516
142.600	21.547	1274.288	1008.767
143.614	21.435	1273.518	1007.419
144.629	21.575	1272.216	1007.107
145.643	21.431	1271.645	1005.737
146.658	21.410	1270.864	1004.913
147.673	21.466	1269.435	1004.016
148.687	21.527	1268.409	1003.466
149.702	21.527	1266.954	1002.225
150.716	21.463	1266.213	1001.183
151.731	21.527	1265.114	1000.595
152.746	21.469	1264.134	999.399
153.760	21.681	1263.073	999.679
154.775	21.662	1261.975	998.612
155.789	21.628	1261.439	997.911
156.804	21.583	1260.288	996.651
157.819	21.617	1259.507	996.138
158.833	21.580	1258.935	995.391
159.848	21.607	1258.057	994.758
160.862	21.617	1257.527	994.310
161.877	21.711	1256.276	993.768
162.892	21.677	1255.564	992.922
163.906	21.640	1254.483	991.768
164.921	21.686	1253.802	991.406
165.935	21.631	1253.498	990.768
166.950	21.715	1252.193	990.123
167.964	21.657	1251.697	989.312
168.979	21.715	1251.108	989.088
169.994	21.653	1251.072	988.620
171.008	21.669	1250.110	987.863
172.023	21.660	1249.411	987.176
173.037	21.653	1248.251	986.130
174.052	21.678	1247.740	985.781
175.067	21.805	1246.967	985.797
176.081	21.641	1246.321	984.276
177.096	21.837	1245.225	984.422
178.110	21.677	1244.176	982.613
179.125	21.704	1243.549	982.180
180.140	21.817	1242.408	981.827
181.154	21.717	1241.066	980.120
182.169	21.807	1239.670	979.433
183.183	21.740	1238.934	978.390
184.198	21.705	1238.038	977.399
185.213	21.734	1237.004	976.658
186.227	21.744	1236.358	976.121
187.242	21.754	1235.425	975.351
188.256	21.856	1234.102	974.787
189.271	21.806	1233.557	973.993
190.286	21.783	1232.984	973.325
191.300	21.718	1232.467	972.473
192.315	21.759	1231.918	972.180
193.329	21.771	1231.533	971.853
194.344	21.795	1231.283	971.705
195.359	21.823	1230.767	971.366
196.373	21.765	1229.857	970.241
197.388	21.698	1229.493	969.499
198.402	21.712	1229.150	969.222
199.417	21.750	1228.624	968.927
200.432	21.710	1228.183	968.272
201.446	21.756	1227.309	967.756
202.461	21.832	1226.366	967.343
203.475	21.691	1226.175	966.330
204.490	21.776	1224.843	965.665
205.504	21.785	1223.849	964.846
206.519	21.813	1222.705	964.010
207.534	21.859	1221.988	963.612
208.548	21.813	1221.028	962.516
209.563	21.774	1220.589	961.871
210.577	21.741	1219.353	960.631
211.592	21.747	1218.630	960.009
212.607	21.939	1217.694	960.239
213.621	21.917	1217.037	959.514
214.636	21.946	1216.196	958.926
215.650	21.945	1215.477	958.269
216.665	21.895	1214.545	957.178
217.680	21.813	1214.380	956.514
218.694	21.968	1212.638	955.902
219.709	21.935	1212.358	955.415
220.723	21.888	1211.661	954.526
221.738	21.933	1210.526	953.793
222.753	21.899	1209.583	952.783
223.767	21.873	1209.616	952.583
224.782	22.051	1208.735	952.771
225.796	21.981	1208.369	952.020
226.811	21.986	1207.847	951.548
227.826	21.977	1207.774	951.361
228.840	22.002	1206.283	950.233
229.855	22.040	1205.923	950.075
230.869	21.976	1205.444	949.266
231.884	22.008	1204.617	948.705
232.899	22.039	1203.634	948.012
233.913	21.989	1203.277	947.379
234.928	22.220	1202.417	947.863
235.942	22.059	1202.310	946.826
236.957	22.060	1201.635	946.213
237.972	21.997	1201.247	945.490
238.986	22.129	1199.952	945.095
240.001	22.111	1199.644	944.670
241.015	22.203	1198.476	944.163
242.030	22.216	1197.609	943.468
243.045	22.039	1197.686	942.494
244.059	22.096	1196.796	942.013
245.074	22.205	1195.227	941.279
246.088	22.165	1194.768	940.620
247.103	22.113	1194.490	940.043
248.117	22.060	1193.632	938.999
249.132	22.265	1192.357	939.005
250.147	22.183	1191.970	938.182
251.161	22.247	1191.053	937.720
252.176	22.189	1190.374	936.794
253.190	22.225	1189.746	936.408
254.205	22.199	1189.011	935.607
255.220	22.225	1188.689	935.409
256.234	22.217	1188.208	934.905
257.249	22.331	1187.233	934.661
258.263	22.337	1186.592	934.104
259.278	22.241	1186.449	933.402
260.293	22.278	1185.884	933.068
261.307	22.332	1185.463	932.943
262.322	22.355	1184.372	932.122
263.336	22.296	1183.711	931.207
264.351	22.354	1183.424	931.207
265.366	22.208	1182.877	929.922
266.380	22.324	1182.011	929.769
267.395	22.254	1181.494	928.911
268.409	22.274	1180.978	928.532
269.424	22.370	1180.031	928.212
270.439	22.395	1179.602	927.921
271.453	22.449	1179.329	927.909
272.468	22.354	1178.178	926.424
273.482	22.313	1177.765	925.801
274.497	22.325	1177.324	925.432
275.512	22.377	1176.603	925.061
276.526	22.365	1176.047	924.476
277.541	22.341	1175.297	923.681
278.555	22.401	1174.511	923.296
279.570	22.497	1173.656	923.042
280.585	22.419	1172.862	921.927
281.599	22.382	1172.266	921.186
282.614	22.441	1171.296	920.648
283.628	22.482	1170.575	920.215
284.643	22.507	1169.755	919.620
285.657	22.432	1168.983	918.541
286.672	22.537	1167.872	918.136
287.687	22.514	1167.244	917.442
288.701	22.584	1166.613	917.224
289.716	22.528	1166.073	916.432
290.730	22.512	1165.148	915.541
291.745	22.617	1164.573	915.551
292.760	22.510	1163.969	914.440
293.774	22.570	1163.458	914.269
294.789	22.600	1162.877	913.887
295.803	22.702	1162.179	913.786
296.818	22.581	1161.880	912.842
297.833	22.634	1160.787	912.179
298.847	22.606	1160.363	911.618
299.862	22.608	1159.347	910.749
300.876	22.640	1158.978	910.545
301.891	22.632	1158.469	910.025
302.906	22.654	1157.675	909.435
303.920	22.665	1157.115	908.972
304.935	22.748	1156.132	908.544
305.949	22.657	1155.697	907.655
306.964	22.647	1154.819	906.832
307.979	22.617	1154.255	906.153
308.993	22.734	1153.883	906.384
310.008	22.768	1153.150	905.905
311.022	22.802	1152.112	905.180
312.037	22.832	1151.390	904.685
313.052	22.723	1150.454	903.312
314.066	22.760	1149.452	902.634
315.081	22.822	1149.049	902.556
316.095	22.937	1147.940	902.193
317.110	22.765	1147.661	901.016
318.125	22.802	1147.301	900.843
319.139	22.701	1146.752	899.815
320.154	22.863	1145.859	899.862
321.168	22.790	1145.439	899.081
322.183	22.871	1144.792	898.906
323.197	22.855	1144.214	898.291
324.212	22.807	1143.553	897.450
325.227	22.884	1143.484	897.704
326.241	23.025	1142.507	897.576
327.256	22.875	1141.897	896.255
328.270	22.791	1141.070	895.102
329.285	22.851	1140.203	894.645
330.300	22.936	1139.468	894.422
331.314	22.789	1138.584	892.905
332.329	22.857	1137.966	892.684
333.343	22.936	1136.907	892.176
334.358	23.075	1136.239	892.274
335.373	23.089	1135.687	891.831
336.387	22.869	1135.293	890.334
337.402	22.984	1134.336	890.083
338.416	23.034	1133.547	889.638
339.431	23.068	1132.875	889.200
340.446	23.049	1132.458	888.701
341.460	23.053	1131.955	888.246
342.475	23.120	1130.983	887.739
343.489	23.117	1129.828	886.742
344.504	23.002	1129.337	885.701
345.519	23.062	1128.515	885.277
346.533	23.131	1127.713	884.915
347.548	22.938	1127.510	883.712
348.562	23.042	1126.733	883.544
349.577	23.075	1125.340	882.540
350.592	23.037	1125.056	882.052
351.606	23.069	1124.047	881.343
352.621	23.197	1123.643	881.585
353.635	23.155	1123.026	880.811
354.650	23.215	1122.289	880.455
355.665	23.181	1121.889	879.895
356.679	23.149	1121.181	879.103
357.694	23.195	1120.653	878.836
358.708	23.225	1119.996	878.393
359.723	23.153	1119.262	877.382
360.738	23.276	1118.201	877.083
361.752	23.155	1118.572	876.696
362.767	23.427	1117.109	876.820
363.781	23.342	1116.949	876.193
364.796	23.411	1116.331	875.972
365.810	23.155	1115.998	874.368
366.825	23.271	1115.185	874.231
367.840	23.317	1115.287	874.458
368.854	23.355	1114.115	873.647
369.869	23.322	1113.339	872.802
370.883	23.418	1112.511	872.548
371.898	23.364	1112.292	872.034
372.913	23.426	1111.571	871.696
373.927	23.484	1110.577	871.125
374.942	23.526	1109.967	870.776
375.956	23.473	1109.619	870.162
376.971	23.401	1109.582	869.703
377.986	23.427	1108.853	869.184
379.000	23.459	1108.660	869.114
380.015	23.389	1107.637	867.890
381.029	23.558	1106.426	867.690
382.044	23.595	1105.961	867.433
383.059	23.548	1105.550	866.803
384.073	23.485	1104.848	865.869
385.088	23.623	1103.659	865.531
386.102	23.508	1103.212	864.545
387.117	23.577	1102.298	864.088
388.132	23.447	1101.707	862.915
389.146	23.513	1101.282	862.827
390.161	23.531	1100.487	862.216
391.175	23.642	1099.157	861.634
392.190	23.538	1098.914	860.866
393.205	23.581	1097.780	860.109
394.219	23.641	1097.022	859.728
395.234	23.676	1096.560	859.460
396.248	23.683	1095.569	858.643
397.263	23.681	1094.782	857.937
398.278	23.813	1094.333	858.151
399.292	23.669	1093.827	856.981
400.307	23.750	1093.044	856.682
401.321	23.682	1092.524	855.871
402.336	23.799	1091.346	855.436
403.350	23.768	1090.763	854.755
404.365	23.856	1090.567	854.950
405.380	23.848	1089.476	853.977
406.394	23.817	1089.021	853.397
407.409	23.852	1088.475	853.064
408.423	23.925	1087.555	852.614
409.438	23.912	1086.772	851.863
410.453	23.897	1086.295	851.342
411.467	23.884	1085.501	850.584
412.482	23.814	1084.516	849.400
413.496	23.889	1083.979	849.262
414.511	23.903	1083.523	848.899
415.526	23.910	1082.893	848.365
416.540	23.918	1082.525	848.036
417.555	23.982	1081.985	847.844
418.569	23.885	1081.810	847.169
419.584	24.007	1081.194	847.192
420.599	23.987	1080.770	846.692
421.613	148.986	1400.851	1799.312
422.628	137.603	1447.453	1799.419
