DTS Sentinel unit serial number:	SN413079Multiplexer serial number:	ORYXHardware model number:	OX4-SRSoftware version number:	ORYX F/W v4.00 Oryx Data Collector v3.7.2.0data status	okinstallation	princeton_trtdifferential loss correction	single-endedforward channel	channel 2reverse channel	N/Adate	2019/09/10time	22:41:11forward acquisition time	60.00reverse acquisition time	0.00gamma	496.2192k internal	0.2330k external	0.2330temperature offset calibration	0.9941default loss term (dB/km)	0.3790temperature slope calibration	1.0000multiplexer offset coefficient	1.0000multiplexer slope coefficient	1.0000fibre end	0.00T internal ref (°C)	30.23T ext. ref 1 (°C)	-0.31T ext. ref 2 (°C)	23.86length (m)	temperature (°C)	Stokes	anti-Stokes-747.200	157.950	-0.124	-0.173
-746.185	-106.358	-0.018	-0.004
-745.171	107.283	0.141	-0.168
-744.156	-54.589	0.144	-0.066
-743.142	-200.000	0.067	-0.322
-742.127	43.990	-0.164	-0.151
-741.112	-51.338	-0.498	-0.235
-740.098	-3.047	-0.222	-0.156
-739.083	-83.362	0.430	0.139
-738.069	491.817	-0.153	0.353
-737.054	341.475	-0.108	-0.212
-736.039	-3.154	-0.081	-0.057
-735.025	-200.000	0.001	0.189
-734.010	-80.333	-0.134	0.045
-732.996	-81.511	-0.336	0.111
-731.981	-139.937	-0.248	0.026
-730.966	229.238	0.188	-0.309
-729.952	-200.000	0.050	-0.323
-728.937	152.321	0.155	0.213
-727.923	-86.911	-0.237	0.073
-726.908	-200.000	-0.002	-0.051
-725.894	-107.471	-0.382	-0.084
-724.879	-16.658	-0.170	-0.108
-723.864	26.760	0.147	-0.124
-722.850	-36.466	-0.105	-0.057
-721.835	-200.000	-0.048	0.256
-720.821	-200.000	0.011	0.092
-719.806	193.257	0.067	0.101
-718.791	-132.248	-0.340	0.044
-717.777	-10.890	-0.114	0.076
-716.762	-35.761	-0.116	0.063
-715.748	183.001	0.180	-0.268
-714.733	-44.571	-0.145	0.073
-713.718	800.000	-0.074	-0.251
-712.704	56.892	-0.209	-0.205
-711.689	-47.648	0.223	-0.109
-710.675	800.000	0.040	-0.163
-709.660	800.000	0.073	-0.245
-708.645	485.498	-0.096	-0.219
-707.631	-49.888	0.088	-0.042
-706.616	122.603	-0.256	-0.322
-705.602	143.157	0.169	-0.226
-704.587	234.333	-0.030	-0.050
-703.572	-162.688	-0.436	-0.021
-702.558	82.769	-0.175	0.191
-701.543	551.877	-0.107	0.257
-700.529	278.297	0.229	-0.410
-699.514	-125.367	-0.228	-0.035
-698.499	-179.932	0.364	-0.008
-697.485	800.000	-0.067	-0.191
-696.470	-44.134	-0.388	0.196
-695.456	-195.870	0.163	-0.001
-694.441	-92.508	-0.300	0.085
-693.426	-77.776	-0.224	-0.078
-692.412	320.771	0.170	-0.325
-691.397	-157.312	0.031	-0.002
-690.383	188.490	-0.209	0.314
-689.368	492.286	-0.153	-0.353
-688.354	-200.000	-0.012	0.387
-687.339	353.526	-0.069	-0.137
-686.324	800.000	0.076	-0.241
-685.310	-5.246	-0.188	-0.130
-684.295	-115.235	-0.251	0.048
-683.281	-200.000	0.041	-0.355
-682.266	800.000	-0.070	-0.207
-681.251	7.650	0.089	0.067
-680.237	1.955	-0.241	-0.174
-679.222	-200.000	-0.006	-0.205
-678.208	-37.660	-0.303	0.162
-677.193	113.813	-0.031	-0.038
-676.178	-200.000	0.033	-0.170
-675.164	-178.951	-0.339	-0.008
-674.149	-72.250	-0.190	-0.071
-673.135	91.300	-0.251	0.283
-672.120	106.807	0.162	0.193
-671.105	-200.000	0.000	-0.170
-670.091	-145.937	0.055	-0.005
-669.076	-56.893	-0.170	-0.075
-668.062	-200.000	-0.043	-0.227
-667.047	-95.370	-0.142	-0.038
-666.032	75.301	-0.228	-0.241
-665.018	277.688	-0.049	-0.088
-664.003	-76.284	-0.049	-0.017
-662.989	-108.617	0.284	-0.061
-661.974	-77.007	-0.180	-0.063
-660.959	-200.000	-0.052	0.319
-659.945	-88.686	0.119	-0.035
-658.930	-107.740	-0.064	-0.014
-657.916	-200.000	0.021	-0.131
-656.901	800.000	0.143	-0.398
-655.886	-138.855	0.056	0.006
-654.872	483.640	-0.049	-0.111
-653.857	213.998	0.097	-0.153
-652.843	-118.718	0.166	-0.029
-651.828	800.000	-0.046	-0.187
-650.814	-200.000	0.011	-0.263
-649.799	-200.000	0.016	-0.298
-648.784	438.896	-0.091	0.200
-647.770	-53.789	-0.320	0.147
-646.755	-44.250	0.191	0.096
-645.741	-127.001	-0.234	-0.035
-644.726	-39.756	0.355	0.186
-643.711	800.000	0.050	-0.206
-642.697	402.113	-0.225	-0.475
-641.682	-18.173	0.242	0.152
-640.668	-147.869	-0.084	0.007
-639.653	-92.108	0.099	-0.028
-638.638	-80.078	-0.226	-0.076
-637.624	375.016	-0.086	-0.177
-636.609	486.097	0.243	-0.556
-635.595	-18.673	-0.152	-0.095
-634.580	-35.059	0.061	0.034
-633.565	435.432	-0.156	-0.340
-632.551	-186.228	-0.446	-0.007
-631.536	-77.297	-0.323	-0.113
-630.522	-37.398	0.142	0.076
-629.507	-67.033	0.493	-0.195
-628.492	-200.000	0.034	0.164
-627.478	-200.000	-0.042	-0.243
-626.463	-200.000	-0.065	-0.313
-625.449	-110.004	0.401	-0.084
-624.434	800.000	-0.112	-0.421
-623.419	340.837	-0.037	-0.072
-622.405	-200.000	0.072	0.334
-621.390	-70.559	0.115	0.044
-620.376	-200.000	0.045	-0.446
-619.361	-65.327	-0.183	0.074
-618.346	111.975	0.038	0.046
-617.332	282.158	0.137	0.246
-616.317	4.439	-0.129	-0.095
-615.303	213.668	-0.036	0.057
-614.288	-200.000	-0.044	-0.230
-613.273	301.545	0.162	0.299
-612.259	-143.694	0.277	0.026
-611.244	311.034	-0.112	-0.210
-610.230	84.697	-0.318	-0.349
-609.215	-132.348	0.213	-0.028
-608.201	202.841	0.093	0.143
-607.186	-200.000	0.015	-0.173
-606.171	208.331	-0.254	-0.398
-605.157	-71.193	-0.113	-0.043
-604.142	739.966	-0.050	0.135
-603.128	-82.681	-0.197	0.064
-602.113	-200.000	0.039	-0.356
-601.098	800.000	-0.042	0.158
-600.084	205.277	0.060	-0.093
-599.069	-200.000	0.014	-0.320
-598.055	412.646	-0.088	0.187
-597.040	-109.365	-0.023	0.005
-596.025	211.096	0.145	-0.229
-595.011	524.553	-0.031	-0.074
-593.996	-141.295	0.465	-0.047
-592.982	800.000	-0.093	-0.272
-591.967	326.583	-0.059	-0.112
-590.952	-200.000	-0.004	-0.184
-589.938	595.378	-0.082	-0.202
-588.923	-97.919	0.335	0.087
-587.909	2.599	-0.296	-0.215
-586.894	-64.562	0.279	0.113
-585.879	-101.010	0.077	-0.019
-584.865	166.823	-0.042	0.060
-583.850	-200.000	0.057	0.296
-582.836	2.840	-0.197	-0.143
-581.821	266.383	-0.036	-0.063
-580.806	-58.243	0.171	0.074
-579.792	-96.108	0.142	-0.038
-578.777	-116.440	0.098	-0.018
-577.763	-200.000	-0.003	-0.317
-576.748	-200.000	-0.003	0.197
-575.733	412.730	-0.034	0.072
-574.719	181.324	0.089	-0.131
-573.704	-73.427	0.223	0.082
-572.690	146.777	-0.042	-0.056
-571.675	-84.796	0.171	-0.054
-570.661	-200.000	-0.006	-0.156
-569.646	-200.000	0.036	0.489
-568.631	-200.000	0.010	-0.068
-567.617	-98.239	-0.072	-0.019
-566.602	-70.171	0.021	0.008
-565.588	-200.000	-0.005	-0.351
-564.573	-14.860	0.246	0.158
-563.558	-80.395	-0.210	0.070
-562.544	800.000	0.086	0.270
-561.529	125.515	-0.045	0.057
-560.515	-61.898	-0.287	-0.120
-559.500	127.121	0.074	-0.093
-558.485	-115.187	-0.218	-0.041
-557.471	568.182	-0.147	0.357
-556.456	42.480	-0.379	0.345
-555.442	101.357	-0.192	0.224
-554.427	90.391	0.242	-0.270
-553.412	304.255	0.123	-0.228
-552.398	378.632	-0.114	0.234
-551.383	705.265	0.059	-0.156
-550.369	-118.455	0.277	0.049
-549.354	800.000	-0.081	-0.256
-548.339	53.866	-0.267	0.257
-547.325	128.038	0.091	-0.116
-546.310	-114.414	0.220	-0.042
-545.296	800.000	-0.057	-0.241
-544.281	-80.803	0.284	0.094
-543.266	197.223	-0.060	0.091
-542.252	-38.370	0.138	0.073
-541.237	-77.729	-0.343	-0.119
-540.223	16.041	0.332	0.262
-539.208	-66.440	-0.569	0.226
-538.193	-200.000	0.010	0.055
-537.179	25.667	0.172	0.143
-536.164	210.505	-0.148	-0.232
-535.150	-97.853	0.308	0.079
-534.135	-32.764	-0.215	-0.119
-533.121	-200.000	0.080	0.000
-532.106	9.635	-0.226	-0.171
-531.091	-84.262	-0.110	0.035
-530.077	-148.110	0.138	-0.011
-529.062	-151.078	-0.187	-0.014
-528.048	-200.000	-0.000	-0.093
-527.033	70.928	0.078	-0.081
-526.018	10.442	-0.159	0.121
-525.004	105.942	-0.079	-0.093
-523.989	-194.185	-0.277	0.002
-522.975	203.885	-0.071	-0.110
-521.960	131.422	-0.179	-0.230
-520.945	11.281	0.236	-0.181
-519.931	-141.476	-0.208	0.021
-518.916	158.088	0.179	0.247
-517.902	800.000	0.115	-0.362
-516.887	270.489	0.209	-0.367
-515.872	451.103	-0.054	-0.119
-514.858	-104.432	-0.176	0.041
-513.843	-51.751	0.020	-0.009
-512.829	44.754	0.140	0.129
-511.814	800.000	-0.052	-0.171
-510.799	66.446	0.130	0.132
-509.785	-168.704	-0.230	-0.009
-508.770	-28.924	0.290	-0.166
-507.756	-16.829	-0.093	-0.058
-506.741	62.531	0.260	0.260
-505.726	-102.336	0.329	-0.079
-504.712	-56.794	-0.267	0.118
-503.697	523.224	-0.160	0.375
-502.683	167.077	-0.208	0.295
-501.668	89.593	-0.226	0.252
-500.653	381.240	-0.121	0.248
-499.639	331.367	0.031	-0.059
-498.624	165.960	0.171	0.241
-497.610	-9.344	0.153	0.102
-496.595	-194.367	0.182	-0.001
-495.581	-200.000	-0.036	-0.259
-494.566	-83.976	-0.093	-0.030
-493.551	-149.340	0.202	0.016
-492.537	-102.709	0.259	-0.062
-491.522	-200.000	-0.061	-0.304
-490.508	-123.588	0.246	-0.039
-489.493	-102.080	-0.300	-0.072
-488.478	-110.871	-0.160	0.033
-487.464	698.920	-0.053	0.138
-486.449	134.116	0.237	-0.306
-485.435	642.694	0.122	-0.309
-484.420	-37.296	0.197	-0.105
-483.405	800.000	-0.048	0.167
-482.391	178.321	0.111	-0.162
-481.376	196.452	0.104	-0.157
-480.362	-138.878	-0.083	-0.009
-479.347	31.938	-0.234	0.201
-478.332	278.838	-0.123	-0.218
-477.318	-28.733	-0.092	-0.053
-476.303	568.963	0.070	-0.171
-475.289	-91.788	0.082	-0.023
-474.274	80.587	-0.388	-0.417
-473.259	191.986	-0.099	0.148
-472.245	-155.437	-0.161	0.010
-471.230	-200.000	0.087	0.413
-470.216	92.299	0.057	-0.064
-469.201	800.000	-0.030	0.092
-468.186	-141.270	-0.058	-0.006
-467.172	-130.990	0.118	0.016
-466.157	-35.366	-0.267	-0.145
-465.143	602.940	-0.095	-0.236
-464.128	48.645	-0.265	-0.247
-463.113	-52.580	-0.544	-0.250
-462.099	-142.173	0.215	0.021
-461.084	-102.234	0.131	-0.031
-460.070	-200.000	0.011	-0.208
-459.055	-23.836	-0.018	0.011
-458.040	-38.364	0.107	-0.056
-457.026	171.501	0.069	0.099
-456.011	269.248	-0.154	-0.270
-454.997	-200.000	0.028	-0.306
-453.982	67.925	0.019	0.020
-452.968	-47.463	0.159	-0.077
-451.953	-50.877	-0.300	0.140
-450.938	174.860	0.081	-0.117
-449.924	-200.000	0.023	0.173
-448.909	-47.828	-0.356	-0.172
-447.895	212.855	-0.143	0.224
-446.880	335.453	0.167	0.323
-445.865	-58.755	-0.220	-0.095
-444.851	255.913	-0.117	0.201
-443.836	-109.612	0.102	-0.021
-442.822	-172.392	0.076	0.002
-441.807	-200.000	0.000	0.046
-440.792	24.406	-0.069	-0.057
-439.778	-24.838	0.104	0.061
-438.763	25.858	-0.035	-0.029
-437.749	154.563	-0.146	0.199
-436.734	291.860	-0.221	0.400
-435.719	248.468	-0.100	0.168
-434.705	107.510	0.184	0.218
-433.690	-200.000	0.048	0.256
-432.676	317.548	0.017	-0.033
-431.661	4.378	-0.214	0.156
-430.646	-5.449	0.189	-0.129
-429.632	-200.000	0.046	-0.338
-428.617	-188.602	0.274	-0.003
-427.603	280.787	-0.068	-0.121
-426.588	88.796	-0.063	0.070
-425.573	-26.479	-0.345	0.201
-424.559	-200.000	-0.007	-0.186
-423.544	-123.057	-0.183	0.029
-422.530	-91.980	0.194	-0.055
-421.515	96.924	-0.131	-0.149
-420.500	505.555	0.109	0.251
-419.486	129.199	0.187	-0.238
-418.471	-200.000	-0.027	0.203
-417.457	357.184	-0.146	0.290
-416.442	36.083	-0.212	0.185
-415.428	268.896	-0.113	0.197
-414.413	-32.245	-0.333	0.185
-413.398	-55.616	0.284	0.126
-412.384	-101.353	-0.456	0.111
-411.369	99.343	0.246	-0.283
-410.355	-2.230	-0.103	0.072
-409.340	132.196	-0.090	0.115
-408.325	-200.000	-0.013	-0.162
-407.311	-113.902	0.074	-0.014
-406.296	228.144	-0.093	0.150
-405.282	65.559	-0.113	-0.113
-404.267	-44.173	0.367	0.183
-403.252	-130.487	0.064	0.009
-402.238	387.937	-0.104	0.215
-401.223	492.216	0.222	-0.505
-400.209	-139.341	-0.291	-0.031
-399.194	609.992	0.140	0.347
-398.179	142.852	0.201	0.265
-397.165	-200.000	0.035	-0.155
-396.150	99.824	-0.104	0.120
-395.136	-200.000	0.023	0.111
-394.121	-142.413	-0.225	0.022
-393.106	44.441	-0.068	-0.062
-392.092	-82.295	-0.129	0.042
-391.077	-65.732	-0.137	-0.054
-390.063	2.317	-0.063	0.045
-389.048	-55.088	0.309	0.138
-388.033	370.252	0.058	0.117
-387.019	-28.679	-0.357	0.204
-386.004	-193.925	0.460	-0.004
-384.990	194.017	0.057	0.086
-383.975	252.580	0.200	0.339
-382.960	54.624	0.151	0.145
-381.946	146.231	-0.186	-0.248
-380.931	-0.799	-0.043	-0.030
-379.917	-121.515	-0.149	0.025
-378.902	-200.000	-0.045	0.282
-377.888	-158.089	0.259	-0.015
-376.873	266.582	-0.135	0.234
-375.858	800.000	-0.068	0.206
-374.844	-200.000	-0.055	0.403
-373.829	-86.196	-0.015	0.005
-372.815	-29.200	0.270	0.154
-371.800	-110.060	-0.243	0.050
-370.785	-62.894	0.451	-0.185
-369.771	30.147	0.428	-0.362
-368.756	-34.955	0.186	-0.101
-367.742	800.000	0.073	0.257
-366.727	-136.654	0.347	0.040
-365.712	128.115	-0.166	-0.210
-364.698	-93.138	-0.317	-0.088
-363.683	104.377	-0.043	-0.050
-362.669	-200.000	0.011	0.097
-361.654	-161.786	-0.117	-0.006
-360.639	-70.578	0.078	0.029
-359.625	-121.369	0.057	0.009
-358.610	107.491	-0.013	0.015
-357.596	-37.636	0.325	-0.172
-356.581	-200.000	-0.005	-0.072
-355.566	94.474	-0.247	0.278
-354.552	70.286	0.232	0.238
-353.537	98.532	0.157	-0.180
-352.523	51.979	0.213	-0.201
-351.508	-200.000	0.002	0.123
-350.493	-1.229	-0.191	0.134
-349.479	-47.354	0.289	0.140
-348.464	-200.000	-0.027	-0.202
-347.450	800.000	-0.059	-0.167
-346.435	302.327	-0.266	0.487
-345.420	524.501	0.041	-0.095
-344.406	-40.224	-0.178	-0.092
-343.391	-200.000	-0.017	-0.205
-342.377	-67.236	-0.070	-0.027
-341.362	-116.166	0.181	0.033
-340.348	800.000	0.100	0.411
-339.333	23.373	-0.177	0.144
-338.318	95.570	-0.026	-0.029
-337.304	93.588	-0.046	0.052
-336.289	31.217	-0.072	0.061
-335.275	689.440	-0.049	0.127
-334.260	-200.000	-0.041	-0.187
-333.245	-111.780	-0.119	0.024
-332.231	800.000	0.112	0.392
-331.216	-200.000	-0.017	0.311
-330.202	-3.453	0.102	0.070
-329.187	130.184	-0.060	0.076
-328.172	-200.000	-0.057	0.385
-327.158	289.461	0.060	-0.107
-326.143	472.565	0.009	-0.019
-325.129	101.279	-0.156	-0.180
-324.114	318.621	0.073	-0.137
-323.099	554.981	-0.129	-0.308
-322.085	-91.160	-0.264	-0.075
-321.070	250.448	-0.226	0.380
-320.056	-28.829	0.061	-0.035
-319.041	319.626	-0.039	0.074
-318.026	9.638	-0.149	0.112
-317.012	-74.267	0.258	-0.092
-315.997	-79.792	0.206	-0.068
-314.983	800.000	0.129	-0.375
-313.968	-67.279	-0.076	0.030
-312.953	93.246	-0.120	0.135
-311.939	-53.777	0.177	-0.080
-310.924	726.642	-0.107	0.282
-309.910	30.484	0.059	0.050
-308.895	148.874	0.211	0.282
-307.880	23.461	-0.176	0.144
-306.866	99.799	-0.066	-0.076
-305.851	135.423	0.308	0.396
-304.837	-116.137	-0.163	-0.030
-303.822	-95.713	-0.145	-0.038
-302.807	-56.166	-0.290	-0.128
-301.793	800.000	-0.047	-0.147
-300.778	291.567	0.087	-0.157
-299.764	-22.346	-0.270	0.162
-298.749	800.000	-0.015	0.060
-297.735	-128.659	-0.281	-0.039
-296.720	800.000	0.077	-0.235
-295.705	-183.086	0.229	0.004
-294.691	-7.903	-0.175	0.117
-293.676	-68.772	0.289	-0.110
-292.662	222.078	-0.157	-0.250
-291.647	409.521	-0.086	0.181
-290.632	-71.487	0.318	-0.118
-289.618	465.826	-0.051	0.113
-288.603	16.262	0.117	0.091
-287.589	-200.000	0.012	0.188
-286.574	-128.771	0.164	0.023
-285.559	800.000	-0.038	-0.153
-284.545	-90.298	-0.231	-0.066
-283.530	-105.434	-0.159	-0.036
-282.516	200.429	-0.071	0.108
-281.501	-23.268	-0.076	-0.045
-280.486	800.000	-0.099	0.299
-279.472	-200.000	-0.007	0.040
-278.457	651.510	0.082	0.208
-277.443	-175.858	-0.235	-0.006
-276.428	-97.384	-0.180	0.046
-275.413	-58.220	0.062	0.027
-274.399	560.350	0.101	-0.242
-273.384	-200.000	0.029	0.310
-272.370	-200.000	0.019	-0.106
-271.355	15.279	0.218	-0.169
-270.340	-200.000	0.049	-0.257
-269.326	-45.548	0.242	0.119
-268.311	76.049	0.135	0.141
-267.297	-96.688	0.195	-0.051
-266.282	53.539	-0.384	-0.364
-265.267	-55.531	0.093	-0.041
-264.253	172.566	-0.105	0.149
-263.238	48.541	0.172	-0.159
-262.224	372.720	0.058	-0.117
-261.209	-7.428	0.236	-0.158
-260.195	34.642	0.159	-0.137
-259.180	43.733	-0.121	0.109
-258.165	-110.848	-0.120	0.024
-257.151	220.307	0.106	-0.168
-256.136	800.000	0.041	-0.156
-255.122	-137.940	0.441	0.049
-254.107	-20.510	0.093	-0.056
-253.092	-56.003	0.148	-0.065
-252.078	-125.653	0.093	0.014
-251.063	61.187	0.187	-0.183
-250.049	800.000	0.042	-0.147
-249.034	-29.296	-0.162	-0.092
-248.019	22.910	0.291	-0.235
-247.005	395.748	0.011	-0.022
-245.990	-45.388	0.415	0.203
-244.976	-200.000	-0.061	0.307
-243.961	-26.580	-0.288	0.167
-242.946	91.644	0.094	-0.105
-241.932	218.643	0.209	-0.330
-240.917	-122.139	-0.251	0.041
-239.903	800.000	0.026	0.098
-238.888	-4.095	-0.293	0.200
-237.873	800.000	0.047	0.138
-236.859	60.052	0.157	-0.153
-235.844	75.901	-0.071	0.074
-234.830	-200.000	-0.080	0.548
-233.815	176.231	-0.148	0.213
-232.800	-200.000	-0.036	-0.255
-231.786	156.481	0.169	0.230
-230.771	44.922	0.058	-0.053
-229.757	-200.000	0.012	-0.235
-228.742	160.087	0.064	-0.088
-227.727	-21.984	-0.279	-0.168
-226.713	-91.405	0.313	-0.088
-225.698	243.169	0.177	-0.293
-224.684	68.922	0.081	0.082
-223.669	117.796	0.113	-0.137
-222.655	-9.578	-0.326	0.215
-221.640	-75.501	0.410	-0.144
-220.625	-200.000	-0.008	-0.166
-219.611	-120.862	0.126	-0.021
-218.596	-200.000	0.062	-0.357
-217.582	-200.000	-0.056	0.473
-216.567	-155.436	-0.088	-0.006
-215.552	12.953	-0.120	0.092
-214.538	21.291	-0.109	-0.087
-213.523	33.039	-0.250	0.214
-212.509	-138.900	-0.349	0.037
-211.494	-200.000	0.037	-0.184
-210.479	520.357	-0.061	-0.140
-209.465	92.320	0.088	-0.098
-208.450	60.509	-0.191	-0.187
-207.436	-200.000	0.003	0.065
-206.421	-123.502	-0.132	0.021
-205.406	-63.669	0.069	-0.028
-204.392	-64.961	0.145	0.058
-203.377	-17.847	-0.154	0.095
-202.363	-147.574	-0.125	-0.010
-201.348	-200.000	0.002	0.012
-200.333	167.741	-0.147	-0.206
-199.319	800.000	-0.056	0.201
-198.304	-200.000	0.005	0.206
-197.290	-3.396	0.234	-0.161
-196.275	-53.907	-0.089	0.040
-195.260	-107.572	0.204	0.044
-194.246	-200.000	-0.023	0.233
-193.231	-30.275	0.161	-0.090
-192.217	562.042	-0.139	0.332
-191.202	-7.417	0.116	0.077
-190.187	50.879	-0.072	0.067
-189.173	-21.625	-0.058	0.035
-188.158	440.979	-0.068	0.146
-187.144	-200.000	0.047	0.209
-186.129	-154.720	-0.093	0.006
-185.114	-62.381	-0.220	-0.090
-184.100	129.258	-0.030	0.038
-183.085	-174.266	-0.214	0.006
-182.071	52.184	0.055	0.052
-181.056	-133.929	0.370	0.045
-180.042	-109.468	0.377	0.078
-179.027	-15.585	0.075	0.047
-178.012	-112.444	0.390	0.077
-176.998	105.662	0.194	0.226
-175.983	116.576	-0.257	0.311
-174.969	4.931	0.171	0.124
-173.954	-200.000	0.023	0.267
-172.939	-90.050	0.104	-0.030
-171.925	11.900	-0.171	-0.130
-170.910	-200.000	-0.005	-0.172
-169.896	-200.000	0.006	-0.218
-168.881	369.371	-0.138	-0.274
-167.866	347.766	0.055	0.107
-166.852	-27.749	-0.144	-0.082
-165.837	487.931	0.099	-0.223
-164.823	260.128	0.107	0.182
-163.808	-96.970	0.129	0.033
-162.793	-66.951	-0.121	0.047
-161.779	-60.816	-0.379	0.158
-160.764	-40.513	0.527	0.269
-159.750	-72.060	0.127	0.046
-158.735	-88.938	0.124	-0.036
-157.720	-200.000	-0.021	0.120
-156.706	-123.322	-0.280	-0.044
-155.691	-82.067	0.300	0.096
-154.677	141.615	-0.047	-0.062
-153.662	49.835	0.199	-0.184
-152.647	-142.903	-0.132	-0.013
-151.633	800.000	-0.045	-0.123
-150.618	438.832	-0.047	0.101
-149.604	-57.909	0.230	0.099
-148.589	-200.000	0.066	0.342
-147.574	110.962	-0.150	0.178
-146.560	-48.011	-0.164	-0.078
-145.545	-17.382	-0.118	-0.073
-144.531	-200.000	0.007	0.218
-143.516	-79.862	-0.168	0.056
-142.502	-200.000	0.045	0.390
-141.487	-118.382	0.136	-0.024
-140.472	800.000	0.068	0.293
-139.458	-89.286	-0.113	-0.033
-138.443	-64.865	-0.164	0.065
-137.429	53.725	0.199	-0.188
-136.414	-200.000	-0.055	-0.320
-135.399	-200.000	-0.008	0.083
-134.385	-138.663	0.330	-0.036
-133.370	-59.314	0.350	-0.148
-132.356	-200.000	-0.016	-0.107
-131.341	800.000	0.053	0.181
-130.326	48.571	-0.129	-0.119
-129.312	-200.000	-0.006	-0.218
-128.297	385.393	-0.045	-0.091
-127.283	800.000	-0.096	-0.333
-126.268	154.274	0.034	0.046
-125.253	387.124	-0.113	0.229
-124.239	397.178	0.173	-0.356
-123.224	9.818	-0.254	-0.190
-122.210	-71.886	-0.384	0.140
-121.195	-99.120	-0.461	-0.115
-120.180	-200.000	-0.080	-0.403
-119.166	43.474	0.186	0.167
-118.151	-200.000	0.008	0.166
-117.137	-142.641	-0.547	0.053
-116.122	217.917	0.132	-0.206
-115.107	115.744	0.125	0.151
-114.093	-20.391	0.284	0.172
-113.078	-95.138	0.204	0.054
-112.064	800.000	-0.116	0.339
-111.049	-125.239	-0.174	-0.026
-110.034	191.883	-0.104	0.154
-109.020	-131.044	-0.215	0.028
-108.005	800.000	-0.042	0.139
-106.991	490.340	-0.075	0.168
-105.976	-1.902	-0.347	-0.240
-104.962	-132.467	0.235	0.030
-103.947	139.154	0.152	-0.196
-102.932	-90.264	-0.263	0.075
-101.918	282.542	0.098	0.172
-100.903	20.299	-0.205	-0.162
-99.889	322.516	-0.102	0.191
-98.874	110.195	0.029	0.035
-97.859	11.658	-0.261	0.197
-96.845	-200.000	-0.002	0.042
-95.830	-146.035	-0.192	0.017
-94.816	-102.599	-0.319	-0.075
-93.801	800.000	0.085	-0.291
-92.786	-7.966	0.053	-0.035
-91.772	170.591	-0.035	0.050
-90.757	-74.289	-0.388	-0.137
-89.743	582.600	0.110	-0.265
-88.728	80.979	-0.027	0.029
-87.713	-104.614	0.132	-0.030
-86.699	-55.104	-0.112	0.049
-85.684	-181.748	0.242	-0.005
-84.670	-200.000	0.048	-0.458
-83.655	92.859	0.149	0.165
-82.640	-200.000	-0.004	-0.060
-81.626	95.007	0.084	0.094
-80.611	-146.784	0.510	0.043
-79.597	-96.762	-0.176	0.045
-78.582	439.308	0.037	-0.079
-77.567	242.140	-0.089	0.146
-76.553	-43.104	-0.275	-0.137
-75.538	-200.000	-0.007	-0.186
-74.524	-112.198	-0.363	0.072
-73.509	-65.800	-0.140	0.055
-72.494	700.194	0.068	-0.177
-71.480	-74.507	0.312	0.110
-70.465	175.790	0.076	0.108
-69.451	-94.643	0.315	-0.084
-68.436	-3.594	-0.343	-0.234
-67.422	-179.154	0.296	-0.006
-66.407	-200.000	-0.024	-0.125
-65.392	32.532	-0.099	-0.084
-64.378	-34.908	-0.080	0.043
-63.363	28.949	0.296	-0.246
-62.349	122.019	0.106	0.130
-61.334	76.887	-0.939	-0.978
-60.319	800.000	0.252	0.690
-59.305	-200.000	0.034	-0.963
-58.290	800.000	0.294	0.868
-57.276	753.359	0.618	1.638
-56.261	-200.000	104.169	617.116
-55.246	523.706	1477.029	3403.095
-54.232	179.949	2677.881	3846.611
-53.217	107.575	2284.960	2665.231
-52.203	39.540	1894.735	1664.287
-51.188	33.467	1683.368	1432.820
-50.173	30.985	1639.514	1377.125
-49.159	49.220	1693.002	1559.480
-48.144	50.061	1708.312	1579.841
-47.130	33.103	1665.855	1414.963
-46.115	30.375	1651.926	1382.789
-45.100	30.232	1646.986	1377.542
-44.086	30.185	1644.230	1374.828
-43.071	30.179	1641.725	1372.637
-42.057	30.138	1639.729	1370.608
-41.042	30.192	1637.507	1369.095
-40.027	30.120	1635.683	1366.989
-39.013	30.158	1633.960	1365.776
-37.998	30.029	1632.346	1363.421
-36.984	30.068	1631.154	1362.656
-35.969	30.258	1629.597	1362.700
-34.954	30.360	1627.617	1361.738
-33.940	30.239	1626.001	1359.446
-32.925	30.287	1624.355	1358.364
-31.911	30.239	1622.412	1356.334
-30.896	30.260	1620.614	1354.930
-29.881	30.188	1619.243	1353.207
-28.867	30.197	1618.009	1352.186
-27.852	30.191	1616.449	1350.784
-26.838	30.229	1614.760	1349.596
-25.823	30.201	1613.388	1348.194
-24.809	30.293	1611.902	1347.570
-23.794	30.247	1610.730	1346.197
-22.779	30.272	1608.985	1344.873
-21.765	30.275	1607.470	1343.569
-20.750	30.183	1606.020	1341.642
-19.736	30.244	1604.729	1340.947
-18.721	30.305	1602.889	1339.799
-17.706	30.086	1602.122	1337.523
-16.692	30.214	1599.670	1336.350
-15.677	30.250	1598.320	1335.428
-14.663	30.427	1597.356	1335.843
-13.648	30.323	1596.175	1334.051
-12.633	30.219	1594.993	1332.268
-11.619	30.262	1593.040	1330.889
-10.604	30.225	1591.677	1329.431
-9.590	30.232	1590.408	1328.373
-8.575	30.303	1589.270	1327.873
-7.560	30.331	1588.117	1327.055
-6.546	30.299	1586.858	1325.728
-5.531	30.321	1585.729	1324.889
-4.517	30.213	1585.116	1323.550
-3.502	30.351	1583.614	1323.230
-2.487	30.422	1582.097	1322.413
-1.473	29.962	1570.067	1309.056
-0.458	27.023	1550.446	1272.092
0.556	21.097	1552.029	1240.811
1.571	18.908	1576.152	1244.156
2.586	18.605	1589.567	1252.426
3.600	16.822	1537.220	1198.472
4.615	8.934	1427.739	1061.009
5.629	1.178	1363.952	964.347
6.644	-0.234	1355.490	949.351
7.659	-0.337	1354.329	947.802
8.673	-0.403	1353.195	946.510
9.688	-0.286	1350.568	945.324
10.702	-0.577	1348.071	941.666
11.717	2.504	1354.519	965.531
12.731	11.637	1372.316	1036.263
13.746	18.999	1383.331	1091.368
14.761	20.519	1385.664	1102.766
15.775	20.726	1385.943	1104.206
16.790	20.777	1385.173	1103.818
17.804	20.805	1384.679	1103.504
18.819	21.004	1384.261	1104.328
19.834	21.078	1383.584	1104.159
20.848	21.189	1382.455	1103.862
21.863	21.097	1381.814	1102.672
22.877	21.226	1380.716	1102.513
23.892	21.196	1379.717	1101.430
24.907	21.139	1379.268	1100.612
25.921	21.199	1378.273	1100.104
26.936	21.190	1377.087	1098.997
27.950	21.164	1376.498	1098.269
28.965	21.165	1374.975	1096.960
29.980	21.155	1373.758	1095.830
30.994	21.163	1372.646	1094.899
32.009	21.142	1371.675	1093.899
33.023	21.164	1370.086	1092.668
34.038	21.120	1369.206	1091.596
35.053	21.168	1368.365	1091.129
36.067	21.099	1367.916	1090.243
37.082	21.140	1366.680	1089.415
38.096	21.127	1365.333	1088.164
39.111	21.171	1364.321	1087.541
40.126	21.154	1363.631	1086.785
41.140	21.100	1363.275	1086.071
42.155	21.147	1362.789	1085.881
43.169	21.247	1362.827	1086.437
44.184	21.143	1362.845	1085.704
45.199	21.155	1361.818	1084.869
46.213	21.124	1361.251	1084.127
47.228	21.169	1360.354	1083.596
48.242	21.215	1359.340	1082.975
49.257	21.202	1357.923	1081.674
50.271	21.092	1357.029	1080.183
51.286	21.157	1354.950	1078.835
52.301	21.117	1354.471	1078.112
53.315	21.016	1353.566	1076.672
54.330	21.150	1352.607	1076.640
55.344	21.063	1351.487	1075.119
56.359	21.196	1349.908	1074.585
57.374	21.116	1349.664	1073.805
58.388	21.192	1348.855	1073.534
59.403	21.141	1348.172	1072.577
60.417	21.223	1347.005	1072.061
61.432	21.108	1346.794	1071.088
62.447	21.202	1345.804	1070.784
63.461	21.357	1344.150	1070.323
64.476	21.082	1343.919	1068.362
65.490	21.189	1342.535	1067.820
66.505	21.192	1341.185	1066.669
67.520	21.120	1340.324	1065.454
68.534	21.109	1339.362	1064.526
69.549	21.212	1337.976	1063.957
70.563	21.214	1336.837	1062.971
71.578	21.251	1336.078	1062.500
72.593	21.090	1335.325	1060.826
73.607	21.208	1334.358	1060.682
74.622	21.203	1333.597	1059.950
75.636	21.096	1333.055	1058.776
76.651	21.174	1332.488	1058.709
77.666	21.187	1331.638	1058.019
78.680	21.143	1331.355	1057.431
79.695	21.151	1330.570	1056.764
80.709	21.169	1329.552	1055.967
81.724	21.210	1328.280	1055.116
82.739	21.100	1327.876	1054.038
83.753	21.188	1326.522	1053.399
84.768	21.181	1325.386	1052.363
85.782	21.218	1324.765	1051.996
86.797	21.149	1323.462	1050.454
87.812	21.224	1322.309	1049.897
88.826	21.147	1321.461	1048.666
89.841	21.233	1319.950	1047.892
90.855	21.213	1319.012	1046.934
91.870	21.148	1318.575	1046.104
92.884	21.122	1317.646	1045.120
93.899	21.310	1316.470	1045.223
94.914	21.278	1315.870	1044.462
95.928	21.230	1314.993	1043.386
96.943	21.260	1314.394	1042.996
97.957	21.200	1313.359	1041.724
98.972	21.299	1312.668	1041.678
99.987	21.329	1311.192	1040.589
101.001	21.286	1310.586	1039.760
102.016	21.187	1309.720	1038.394
103.030	21.311	1308.710	1038.239
104.045	21.130	1308.422	1036.840
105.060	21.168	1307.369	1036.143
106.074	21.276	1305.830	1035.472
107.089	21.254	1304.838	1034.463
108.103	21.307	1304.079	1034.084
109.118	21.310	1302.488	1032.746
110.133	21.417	1301.088	1032.177
111.147	21.408	1300.255	1031.369
112.162	21.391	1298.812	1030.035
113.176	21.246	1298.385	1028.753
114.191	21.310	1297.218	1028.111
115.206	21.354	1296.216	1027.488
116.220	21.392	1294.718	1026.432
117.235	21.277	1294.195	1025.250
118.249	21.227	1293.236	1024.109
119.264	21.144	1292.411	1022.878
120.279	21.276	1291.134	1022.549
121.293	21.467	1290.283	1022.901
122.308	21.408	1289.136	1021.556
123.322	21.341	1288.645	1020.685
124.337	21.403	1287.525	1020.070
125.352	21.310	1286.615	1018.720
126.366	21.241	1285.934	1017.684
127.381	21.404	1284.546	1017.446
128.395	21.298	1284.205	1016.467
129.410	21.361	1282.911	1015.722
130.424	21.409	1282.036	1015.218
131.439	21.387	1280.955	1014.145
132.454	21.254	1280.370	1012.821
133.468	21.335	1279.277	1012.332
134.483	21.270	1279.044	1011.686
135.497	21.283	1278.340	1011.114
136.512	21.391	1277.083	1010.656
137.527	21.308	1275.884	1009.138
138.541	21.293	1274.656	1007.991
139.556	21.280	1273.218	1006.689
140.570	21.312	1272.306	1006.062
141.585	21.330	1271.477	1005.421
142.600	21.304	1269.751	1003.820
143.614	21.337	1268.883	1003.231
144.629	21.259	1268.067	1002.053
145.643	21.227	1267.291	1001.164
146.658	21.314	1265.841	1000.431
147.673	21.270	1265.117	999.516
148.687	21.279	1264.453	998.958
149.702	21.214	1263.328	997.607
150.716	21.299	1261.873	996.853
151.731	21.310	1260.774	995.959
152.746	21.354	1259.870	995.408
153.760	21.431	1258.706	994.838
154.775	21.395	1257.614	993.686
155.789	21.411	1256.703	992.968
156.804	21.300	1256.241	991.882
157.819	21.347	1254.988	991.073
158.833	21.406	1254.350	990.819
159.848	21.490	1253.525	990.555
160.862	21.409	1252.704	989.358
161.877	21.420	1251.787	988.607
162.892	21.452	1251.072	988.140
163.906	21.436	1250.112	987.199
164.921	21.496	1249.221	986.748
165.935	21.441	1248.785	986.005
166.950	21.487	1248.376	985.858
167.964	21.694	1247.129	985.949
168.979	21.416	1247.125	984.295
169.994	21.554	1246.285	984.321
171.008	21.387	1246.005	983.076
172.023	21.474	1244.518	982.301
173.037	21.551	1243.988	982.226
174.052	21.553	1243.587	981.833
175.067	21.601	1242.295	980.997
176.081	21.467	1241.606	979.617
177.096	21.477	1241.080	979.173
178.110	21.443	1240.126	978.141
179.125	21.471	1238.831	977.188
180.140	21.599	1237.703	976.930
181.154	21.471	1236.630	975.280
182.169	21.452	1235.554	974.239
183.183	21.497	1234.447	973.530
184.198	21.666	1233.334	973.506
185.213	21.591	1232.693	972.497
186.227	21.583	1231.985	971.808
187.242	21.627	1231.131	971.294
188.256	21.468	1230.405	969.756
189.271	21.550	1229.238	969.203
190.286	21.613	1228.486	968.871
191.300	21.527	1228.645	968.434
192.315	21.513	1227.719	967.544
193.329	21.571	1227.458	967.574
194.344	21.516	1227.038	966.854
195.359	21.575	1226.331	966.537
196.373	21.507	1225.608	965.503
197.388	21.467	1225.371	965.010
198.402	21.523	1225.094	965.019
199.417	21.558	1224.473	964.636
200.432	21.528	1224.223	964.189
201.446	21.611	1222.915	963.530
202.461	21.599	1222.587	963.118
203.475	21.643	1221.705	962.579
204.490	21.611	1220.470	961.347
205.504	21.707	1219.275	960.844
206.519	21.681	1218.493	960.003
207.534	21.658	1217.644	959.124
208.548	21.611	1217.004	958.280
209.563	21.527	1216.678	957.477
210.577	21.648	1215.460	957.095
211.592	21.536	1214.626	955.743
212.607	21.722	1213.796	956.018
213.621	21.641	1213.231	955.044
214.636	21.686	1212.282	954.462
215.650	21.682	1211.640	953.852
216.665	21.606	1210.715	952.623
217.680	21.716	1209.168	951.917
218.694	21.662	1208.428	950.961
219.709	21.718	1207.817	950.701
220.723	21.758	1207.465	950.553
221.738	21.639	1206.351	948.951
222.753	21.796	1206.104	949.520
223.767	21.762	1205.286	948.608
224.782	21.703	1204.949	947.939
225.796	21.825	1203.909	947.696
226.811	21.804	1203.617	947.270
227.826	21.800	1203.073	946.735
228.840	21.891	1202.348	946.574
229.855	21.848	1201.471	945.565
230.869	21.905	1200.994	945.412
231.884	21.788	1200.348	944.195
232.899	21.687	1199.705	943.059
233.913	21.792	1199.087	943.054
234.928	21.835	1198.639	942.851
235.942	21.847	1198.105	942.412
236.957	21.893	1197.039	941.738
237.972	21.897	1196.207	941.018
238.986	21.709	1195.975	939.746
240.001	21.839	1195.468	939.965
241.015	21.984	1194.636	939.999
242.030	21.940	1193.910	939.109
243.045	21.982	1192.854	938.420
244.059	21.851	1192.448	937.317
245.074	21.988	1191.523	937.243
246.088	21.895	1191.164	936.379
247.103	22.010	1189.823	935.855
248.117	21.929	1188.832	934.563
249.132	21.890	1188.394	933.926
250.147	21.982	1187.804	933.871
251.161	22.105	1187.153	933.931
252.176	22.070	1186.025	932.775
253.190	22.069	1185.463	932.243
254.205	21.957	1185.161	931.331
255.220	22.083	1184.535	931.424
256.234	21.978	1184.189	930.510
257.249	22.099	1183.244	930.330
258.263	22.049	1182.937	929.739
259.278	22.070	1182.301	929.268
260.293	22.134	1181.760	929.100
261.307	22.108	1181.143	928.393
262.322	22.009	1180.467	927.258
263.336	22.027	1180.056	926.947
264.351	21.975	1179.676	926.294
265.366	22.078	1178.753	926.028
266.380	22.156	1177.788	925.599
267.395	22.070	1177.250	924.644
268.409	22.026	1176.665	923.871
269.424	22.155	1176.027	923.964
270.439	22.122	1176.100	923.771
271.453	22.187	1174.740	922.960
272.468	22.142	1173.946	922.016
273.482	22.125	1173.310	921.350
274.497	22.176	1173.037	921.318
275.512	22.226	1172.265	920.892
276.526	22.129	1171.259	919.516
277.541	22.347	1170.634	920.081
278.555	22.206	1170.362	919.048
279.570	22.186	1169.360	918.076
280.585	22.218	1168.489	917.479
281.599	22.271	1167.722	917.073
282.614	22.279	1166.747	916.265
283.628	22.233	1165.846	915.240
284.643	22.173	1165.356	914.460
285.657	22.248	1164.361	913.988
286.672	22.300	1163.304	913.351
287.687	22.292	1163.034	913.016
288.701	22.330	1161.901	912.241
289.716	22.259	1161.523	911.495
290.730	22.331	1160.989	911.371
291.745	22.330	1160.267	910.718
292.760	22.395	1159.762	910.575
293.774	22.445	1159.184	910.300
294.789	22.350	1158.963	909.554
295.803	22.358	1158.367	909.048
296.818	22.412	1157.229	908.353
297.833	22.439	1156.608	907.923
298.847	22.398	1155.921	907.095
299.862	22.477	1155.118	906.792
300.876	22.458	1154.516	906.141
301.891	22.428	1154.116	905.589
302.906	22.428	1153.247	904.830
303.920	22.513	1152.954	904.953
304.935	22.498	1152.311	904.294
305.949	22.520	1151.220	903.467
306.964	22.539	1150.589	902.991
307.979	22.424	1150.223	902.033
308.993	22.594	1149.131	901.970
310.008	22.445	1149.044	901.057
311.022	22.605	1148.112	901.068
312.037	22.633	1146.857	900.147
313.052	22.642	1145.893	899.355
314.066	22.538	1145.220	898.219
315.081	22.556	1144.794	897.893
316.095	22.573	1144.523	897.686
317.110	22.542	1144.161	897.169
318.125	22.547	1143.006	896.208
319.139	22.644	1141.550	895.482
320.154	22.634	1141.350	895.195
321.168	22.649	1141.273	895.132
322.183	22.554	1140.865	894.249
323.197	22.626	1139.433	893.413
324.212	22.596	1139.250	893.040
325.227	22.718	1138.685	893.135
326.241	22.751	1138.144	892.797
327.256	22.801	1137.402	892.387
328.270	22.672	1137.017	891.353
329.285	22.685	1136.010	890.555
330.300	22.628	1134.888	889.306
331.314	22.648	1134.059	888.677
332.329	22.721	1133.308	888.379
333.343	22.697	1132.475	887.527
334.358	22.921	1131.781	888.030
335.373	22.821	1131.241	887.029
336.387	22.880	1130.562	886.713
337.402	22.815	1130.142	885.977
338.416	22.824	1129.297	885.280
339.431	22.788	1128.863	884.683
340.446	22.768	1128.191	883.979
341.460	22.805	1127.567	883.598
342.475	22.856	1126.419	882.875
343.489	22.808	1125.608	881.919
344.504	22.845	1124.788	881.386
345.519	22.910	1123.900	880.937
346.533	22.826	1123.733	880.306
347.548	22.812	1122.591	879.263
348.562	22.889	1122.261	879.313
349.577	22.842	1121.510	878.412
350.592	22.785	1120.719	877.431
351.606	22.817	1119.802	876.792
352.621	22.800	1119.557	876.440
353.635	22.949	1118.819	876.523
354.650	22.958	1117.977	875.833
355.665	23.006	1117.176	875.364
356.679	22.986	1117.027	875.071
357.694	23.041	1116.481	874.839
358.708	23.015	1115.473	873.844
359.723	22.997	1114.513	872.923
360.738	23.008	1113.864	872.393
361.752	23.045	1113.887	872.518
362.767	23.046	1113.434	872.088
363.781	23.129	1112.373	871.592
364.796	23.071	1112.161	871.061
365.810	23.102	1111.242	870.417
366.825	23.070	1111.288	870.220
367.840	23.166	1110.603	870.075
368.854	23.241	1109.340	869.379
369.869	23.134	1109.052	868.550
370.883	23.155	1108.139	867.860
371.898	23.097	1107.939	867.345
372.913	23.148	1107.344	867.050
373.927	23.285	1106.402	866.907
374.942	23.285	1106.363	866.803
375.956	23.281	1105.517	866.040
376.971	23.270	1105.112	865.593
377.986	23.238	1104.416	864.814
379.000	23.358	1103.900	864.920
380.015	23.171	1103.336	863.490
381.029	23.304	1102.595	863.480
382.044	23.227	1102.136	862.672
383.059	23.281	1101.501	862.362
384.073	23.243	1101.120	861.800
385.088	23.341	1099.833	861.195
386.102	23.460	1098.957	861.012
387.117	23.411	1097.836	859.819
388.132	23.401	1096.903	858.963
389.146	23.495	1096.179	858.775
390.161	23.493	1095.615	858.245
391.175	23.414	1095.546	857.736
392.190	23.330	1094.676	856.573
393.205	23.391	1093.870	856.159
394.219	23.383	1093.503	855.761
395.234	23.368	1092.732	855.008
396.248	23.545	1091.480	854.804
397.263	23.561	1090.935	854.379
398.278	23.517	1090.275	853.573
399.292	23.661	1089.201	853.353
400.307	23.616	1088.683	852.651
401.321	23.585	1088.152	852.013
402.336	23.394	1088.056	850.943
403.350	23.493	1087.243	850.711
404.365	23.554	1086.287	850.180
405.380	23.524	1085.662	849.472
406.394	23.578	1084.801	848.978
407.409	23.661	1083.900	848.596
408.423	23.713	1083.170	848.197
409.438	23.599	1082.642	847.167
410.453	23.650	1081.735	846.625
411.467	23.574	1081.030	845.636
412.482	23.735	1080.483	845.898
413.496	23.710	1079.735	845.121
414.511	23.766	1079.174	844.872
415.526	23.744	1078.671	844.298
416.540	23.740	1078.588	844.141
417.555	23.701	1078.208	843.582
418.569	23.771	1077.553	843.328
419.584	23.703	1077.379	842.795
420.599	23.796	1076.886	842.773
421.613	149.339	1399.827	1799.831
422.628	137.828	1446.834	1799.909
