DTS Sentinel unit serial number:	SN413079Multiplexer serial number:	ORYXHardware model number:	OX4-SRSoftware version number:	ORYX F/W v4.00 Oryx Data Collector v3.7.2.0data status	okinstallation	princeton_trtdifferential loss correction	single-endedforward channel	channel 2reverse channel	N/Adate	2019/09/13time	06:23:35forward acquisition time	60.00reverse acquisition time	0.00gamma	496.2192k internal	0.2338k external	0.2338temperature offset calibration	1.0191default loss term (dB/km)	0.3790temperature slope calibration	1.0000multiplexer offset coefficient	1.0000multiplexer slope coefficient	1.0000fibre end	0.00T internal ref (°C)	26.12T ext. ref 1 (°C)	4.09T ext. ref 2 (°C)	20.75length (m)	temperature (°C)	Stokes	anti-Stokes-747.200	800.000	-0.031	0.099
-746.185	254.183	0.106	0.182
-745.171	200.241	0.105	0.162
-744.156	-106.625	-0.185	0.041
-743.142	-154.120	-0.140	-0.010
-742.127	-67.789	-0.433	0.170
-741.112	800.000	-0.088	-0.277
-740.098	-53.448	-0.091	-0.042
-739.083	127.401	-0.060	0.076
-738.069	107.798	-0.150	0.179
-737.054	-93.818	0.218	-0.060
-736.039	224.567	0.041	-0.066
-735.025	245.408	0.148	0.251
-734.010	101.515	-0.078	0.091
-732.996	-200.000	0.011	-0.226
-731.981	-38.531	0.235	0.125
-730.966	153.383	-0.307	-0.422
-729.952	227.707	0.088	0.143
-728.937	125.614	-0.088	-0.111
-727.923	-49.559	0.242	-0.116
-726.908	-63.729	-0.417	0.171
-725.894	104.199	-0.066	-0.078
-724.879	-200.000	-0.011	0.124
-723.864	394.068	-0.067	-0.141
-722.850	800.000	0.095	-0.266
-721.835	-54.826	-0.335	-0.152
-720.821	542.651	0.090	-0.214
-719.806	284.669	0.124	0.224
-718.791	639.129	0.078	-0.198
-717.777	312.359	-0.080	0.151
-716.762	-34.265	0.382	-0.210
-715.748	-200.000	-0.001	0.174
-714.733	-164.541	-0.200	-0.009
-713.718	-82.885	0.131	0.042
-712.704	122.037	0.105	0.131
-711.689	-135.451	0.112	-0.013
-710.675	-31.597	0.161	-0.091
-709.660	-90.142	-0.107	-0.031
-708.645	-92.514	0.097	0.027
-707.631	-77.365	0.057	0.020
-706.616	374.361	-0.122	-0.249
-705.602	-110.620	0.144	-0.030
-704.587	81.601	-0.089	-0.096
-703.572	-14.267	-0.205	0.132
-702.558	-85.060	-0.147	0.046
-701.543	-108.625	0.186	-0.040
-700.529	394.513	0.052	-0.108
-699.514	-106.773	-0.360	-0.080
-698.499	-200.000	0.343	-0.001
-697.485	77.976	-0.150	0.160
-696.470	-200.000	0.001	0.026
-695.456	-200.000	0.053	0.301
-694.441	-200.000	-0.032	-0.162
-693.426	29.224	-0.205	-0.174
-692.412	57.210	-0.199	-0.194
-691.397	38.850	-0.118	-0.106
-690.383	-200.000	0.011	-0.338
-689.368	800.000	0.048	-0.171
-688.354	-120.221	0.296	0.051
-687.339	261.544	0.185	-0.321
-686.324	-32.517	-0.136	-0.076
-685.310	-20.689	-0.199	0.122
-684.295	238.153	0.070	-0.116
-683.281	-24.873	0.156	-0.093
-682.266	800.000	0.038	-0.138
-681.251	139.665	0.167	-0.221
-680.237	98.488	0.134	-0.155
-679.222	-200.000	0.024	-0.311
-678.208	-35.121	0.323	0.176
-677.193	31.075	-0.078	0.067
-676.178	-161.231	0.098	-0.005
-675.164	-196.613	0.167	-0.001
-674.149	-101.467	-0.283	-0.069
-673.135	800.000	0.078	0.297
-672.120	-119.681	0.053	-0.009
-671.105	-200.000	0.007	-0.229
-670.091	72.493	0.084	-0.087
-669.076	-200.000	-0.013	-0.170
-668.062	300.353	0.189	-0.349
-667.047	-110.784	-0.059	0.012
-666.032	50.092	0.135	-0.127
-665.018	53.326	-0.098	0.094
-664.003	-200.000	0.010	-0.063
-662.989	-200.000	0.026	-0.283
-661.974	-200.000	0.066	-0.313
-660.959	-15.756	0.034	0.022
-659.945	89.826	-0.150	-0.168
-658.930	391.626	0.032	-0.067
-657.916	-49.146	-0.240	-0.115
-656.901	-200.000	0.036	0.188
-655.886	-101.043	-0.098	-0.024
-654.872	-200.000	-0.016	-0.163
-653.857	39.292	0.298	-0.266
-652.843	-106.305	0.348	-0.078
-651.828	-51.403	0.076	-0.035
-650.814	246.216	0.050	0.085
-649.799	-27.257	-0.213	-0.124
-648.784	-118.504	0.394	-0.070
-647.770	-200.000	-0.051	0.000
-646.755	-7.925	-0.343	0.231
-645.741	-149.671	-0.159	0.013
-644.726	800.000	0.057	-0.181
-643.711	-30.341	0.279	0.158
-642.697	-65.349	-0.117	-0.047
-641.682	467.083	0.040	-0.091
-640.668	19.792	-0.138	0.111
-639.653	44.737	-0.106	-0.097
-638.638	153.331	0.071	-0.097
-637.624	-62.876	-0.129	-0.053
-636.609	-200.000	-0.033	-0.372
-635.595	-200.000	-0.051	-0.339
-634.580	-158.366	0.241	0.014
-633.565	-32.184	-0.277	0.155
-632.551	34.168	0.101	-0.088
-631.536	-200.000	-0.051	0.351
-630.522	-12.578	0.218	0.142
-629.507	-200.000	-0.040	-0.273
-628.492	-200.000	-0.003	0.092
-627.478	-53.733	0.170	0.077
-626.463	-53.173	0.149	-0.068
-625.449	-104.279	-0.099	-0.023
-624.434	-48.767	0.296	0.142
-623.419	111.877	-0.050	-0.060
-622.405	-23.323	-0.468	-0.281
-621.390	638.707	0.125	-0.317
-620.376	-200.000	-0.000	0.062
-619.361	-169.695	-0.064	0.002
-618.346	-121.926	-0.262	0.043
-617.332	-200.000	0.008	0.380
-616.317	-44.619	-0.177	0.088
-615.303	-48.635	-0.161	0.077
-614.288	-81.854	-0.268	-0.088
-613.273	642.675	-0.048	0.122
-612.259	-200.000	0.033	0.286
-611.244	36.363	-0.143	0.126
-610.230	-127.925	0.442	0.063
-609.215	-21.274	0.110	0.067
-608.201	-70.603	0.063	-0.024
-607.186	236.820	0.052	0.086
-606.171	-200.000	-0.053	0.377
-605.157	-105.212	0.296	0.067
-604.142	-10.208	-0.070	0.047
-603.128	-163.075	-0.144	0.007
-602.113	109.803	-0.025	0.030
-601.098	-2.444	-0.100	-0.070
-600.084	24.892	-0.168	0.139
-599.069	230.122	0.087	0.142
-598.055	774.858	0.128	-0.347
-597.040	135.037	0.222	-0.288
-596.025	-165.444	-0.417	-0.018
-595.011	35.007	0.164	0.144
-593.996	100.090	0.074	-0.086
-592.982	24.244	-0.144	0.119
-591.967	-38.708	-0.079	0.042
-590.952	-45.092	0.099	-0.049
-589.938	55.082	-0.070	0.068
-588.923	-49.255	-0.146	-0.069
-587.909	-200.000	-0.031	-0.151
-586.894	-200.000	-0.008	-0.109
-585.879	592.410	0.186	-0.457
-584.865	-200.000	-0.053	-0.371
-583.850	-85.313	0.194	-0.060
-582.836	-69.124	0.305	0.117
-581.821	-151.287	0.405	0.030
-580.806	-38.096	0.089	-0.047
-579.792	-200.000	0.010	-0.238
-578.777	-146.978	0.245	-0.021
-577.763	382.564	0.176	0.361
-576.748	34.230	-0.111	-0.096
-575.733	800.000	-0.078	-0.229
-574.719	-200.000	0.003	-0.022
-573.704	-102.352	-0.310	-0.074
-572.690	310.841	-0.095	-0.177
-571.675	-57.467	-0.299	-0.131
-570.661	-41.284	-0.206	0.106
-569.646	-93.682	0.142	0.039
-568.631	-163.337	-0.267	0.013
-567.617	-44.074	0.274	-0.137
-566.602	-200.000	0.025	0.307
-565.588	185.660	-0.053	-0.079
-564.573	149.818	-0.197	0.266
-563.558	-6.700	0.355	0.240
-562.544	47.143	0.099	-0.092
-561.529	800.000	0.043	-0.169
-560.515	46.188	-0.203	-0.188
-559.500	-140.064	0.276	-0.029
-558.485	-157.277	0.180	-0.011
-557.471	148.649	-0.112	0.150
-556.456	-200.000	-0.026	-0.139
-555.442	163.951	0.065	-0.091
-554.427	194.113	-0.098	0.148
-553.412	-80.335	-0.300	-0.100
-552.398	11.626	0.187	0.143
-551.383	800.000	0.041	0.161
-550.369	207.758	0.017	-0.027
-549.354	34.765	0.130	-0.113
-548.339	-200.000	-0.032	-0.278
-547.325	-17.183	0.169	0.106
-546.310	-119.393	0.050	0.009
-545.296	-140.431	-0.194	0.020
-544.281	63.162	-0.089	0.089
-543.266	393.798	0.113	0.235
-542.252	514.370	-0.094	-0.219
-541.237	-200.000	-0.042	0.188
-540.223	-200.000	-0.001	-0.224
-539.208	-104.413	0.125	-0.029
-538.193	43.046	-0.133	0.121
-537.179	164.760	-0.017	0.024
-536.164	566.570	0.059	0.142
-535.150	800.000	-0.086	0.252
-534.135	800.000	0.069	0.259
-533.121	103.604	-0.016	0.018
-532.106	-200.000	0.036	0.245
-531.091	800.000	-0.103	-0.309
-530.077	-200.000	-0.027	-0.508
-529.062	-56.672	-0.234	0.103
-528.048	800.000	-0.109	0.435
-527.033	55.298	0.058	0.056
-526.018	-145.810	-0.311	0.028
-525.004	-122.674	0.036	-0.006
-523.989	-112.444	-0.144	0.029
-522.975	-200.000	0.021	0.248
-521.960	-200.000	0.009	0.062
-520.945	220.833	0.015	-0.024
-519.931	-54.581	0.096	0.043
-518.916	-200.000	-0.048	-0.216
-517.902	113.886	-0.094	-0.114
-516.887	-181.629	-0.158	0.003
-515.872	-189.468	-0.337	-0.004
-514.858	-159.982	0.113	0.006
-513.843	-80.642	0.207	0.068
-512.829	-200.000	-0.022	0.246
-511.814	-21.285	-0.241	0.146
-510.799	-104.349	0.124	0.029
-509.785	-106.272	0.298	0.066
-508.770	-155.046	0.229	-0.015
-507.756	-65.082	-0.111	-0.045
-506.741	228.025	0.045	-0.073
-505.726	-12.313	0.135	-0.088
-504.712	108.412	0.137	-0.162
-503.697	-200.000	0.047	0.218
-502.683	-200.000	-0.035	0.228
-501.668	20.201	-0.147	0.118
-500.653	-200.000	-0.052	0.252
-499.639	800.000	-0.034	-0.133
-498.624	-200.000	0.060	-0.363
-497.610	63.501	-0.148	-0.148
-496.595	800.000	-0.075	-0.239
-495.581	162.090	-0.194	0.270
-494.566	-109.881	-0.162	-0.034
-493.551	531.524	-0.126	0.295
-492.537	71.378	-0.141	0.146
-491.522	-76.585	-0.179	0.063
-490.508	534.834	0.200	0.470
-489.493	508.856	0.047	-0.109
-488.478	12.126	-0.276	0.211
-487.464	-193.211	-0.332	0.003
-486.449	37.354	0.083	0.073
-485.435	800.000	0.092	0.324
-484.420	-102.705	-0.195	-0.046
-483.405	-156.919	0.089	-0.005
-482.391	208.432	0.022	0.035
-481.376	-200.000	-0.035	0.275
-480.362	22.385	-0.167	0.136
-479.347	92.274	0.049	-0.055
-478.332	19.518	-0.258	-0.206
-477.318	-24.989	0.158	-0.093
-476.303	43.722	0.219	0.199
-475.289	-200.000	-0.035	0.395
-474.274	-23.504	0.139	-0.083
-473.259	-121.589	0.348	0.057
-472.245	-153.030	0.192	0.013
-471.230	97.440	-0.177	0.202
-470.216	200.080	0.204	0.310
-469.201	187.510	0.103	-0.153
-468.186	15.826	0.162	-0.127
-467.172	-56.392	-0.249	0.110
-466.157	133.874	-0.124	-0.160
-465.143	800.000	-0.071	0.231
-464.128	132.657	0.022	0.029
-463.113	-114.341	0.124	-0.024
-462.099	-200.000	0.022	-0.233
-461.084	-65.049	-0.120	-0.048
-460.070	-200.000	0.076	0.333
-459.055	-200.000	0.036	0.410
-458.040	-120.472	0.240	0.040
-457.026	-200.000	-0.002	-0.531
-456.011	-200.000	-0.031	0.252
-454.997	-152.644	0.374	-0.026
-453.982	-137.727	-0.204	0.023
-452.968	329.235	-0.156	0.298
-451.953	104.699	0.131	0.153
-450.938	-200.000	0.015	0.100
-449.924	-200.000	0.003	0.116
-448.909	131.541	0.154	-0.196
-447.895	-73.401	0.304	0.110
-446.880	363.912	-0.101	-0.202
-445.865	165.517	0.170	-0.239
-444.851	215.465	-0.277	-0.436
-443.836	778.426	-0.136	-0.368
-442.822	45.123	0.094	-0.086
-441.807	-200.000	-0.041	0.198
-440.792	-200.000	0.002	0.170
-439.778	22.221	0.226	-0.183
-438.763	-200.000	-0.005	-0.233
-437.749	800.000	0.088	-0.378
-436.734	-57.647	-0.120	-0.052
-435.719	-64.783	-0.202	0.081
-434.705	5.236	0.210	0.153
-433.690	9.773	0.174	0.131
-432.676	49.277	-0.056	-0.052
-431.661	-173.775	-0.415	-0.012
-430.646	-200.000	0.010	0.094
-429.632	-152.335	-0.323	0.023
-428.617	-60.301	-0.167	-0.070
-427.603	-160.577	0.175	-0.009
-426.588	-60.479	-0.290	-0.122
-425.573	3.675	0.133	0.096
-424.559	800.000	0.012	0.052
-423.544	24.977	0.191	-0.157
-422.530	489.888	0.089	-0.202
-421.515	800.000	-0.102	-0.310
-420.500	800.000	0.059	-0.173
-419.486	-200.000	-0.003	0.178
-418.471	-39.482	0.256	0.133
-417.457	16.538	0.202	0.158
-416.442	521.651	-0.093	-0.216
-415.428	-88.354	-0.183	-0.054
-414.413	100.305	0.165	0.190
-413.398	800.000	-0.022	-0.092
-412.384	320.345	-0.206	0.388
-411.369	-15.638	-0.315	0.199
-410.355	166.470	-0.159	0.224
-409.340	88.058	-0.102	0.112
-408.325	800.000	-0.094	0.382
-407.311	-200.000	-0.017	0.120
-406.296	-200.000	-0.018	-0.299
-405.282	34.367	0.197	0.171
-404.267	-179.576	0.176	0.004
-403.252	235.122	-0.104	-0.170
-402.238	-102.767	0.332	0.078
-401.223	-68.321	0.112	0.043
-400.209	-14.349	-0.193	0.123
-399.194	-150.814	-0.250	-0.019
-398.179	85.467	0.162	-0.176
-397.165	-200.000	-0.008	0.078
-396.150	800.000	0.037	-0.152
-395.136	-74.242	-0.127	-0.045
-394.121	37.301	0.266	-0.233
-393.106	136.397	0.105	-0.136
-392.092	618.728	0.103	0.256
-391.077	193.514	-0.171	-0.256
-390.063	304.296	0.180	0.331
-389.048	200.667	-0.062	0.094
-388.033	-200.000	-0.221	-0.001
-387.019	-200.000	-0.002	-0.085
-386.004	7.270	0.183	0.135
-384.990	-75.711	-0.254	0.089
-383.975	392.845	-0.072	-0.148
-382.960	-73.028	-0.569	-0.207
-381.946	-173.799	0.194	-0.006
-380.931	-200.000	0.038	-0.173
-379.917	46.671	0.250	0.230
-378.902	-188.287	-0.374	-0.005
-377.888	-121.412	0.123	-0.020
-376.873	-200.000	-0.043	-0.310
-375.858	-200.000	-0.080	-0.425
-374.844	720.466	0.076	0.200
-373.829	-200.000	-0.044	0.383
-372.815	-59.404	0.074	0.031
-371.800	-96.466	-0.071	0.018
-370.785	150.158	-0.046	-0.062
-369.771	7.096	-0.243	0.179
-368.756	-200.000	-0.034	-0.416
-367.742	-200.000	0.040	-0.504
-366.727	340.209	-0.123	0.238
-365.712	-148.790	0.386	0.031
-364.698	-200.000	0.019	0.228
-363.683	800.000	0.057	0.241
-362.669	-200.000	-0.019	-0.085
-361.654	-158.387	-0.244	-0.014
-360.639	-175.778	0.283	-0.007
-359.625	717.073	-0.119	-0.313
-358.610	369.021	0.190	0.381
-357.596	-200.000	0.000	-0.086
-356.581	-36.118	-0.078	-0.041
-355.566	286.074	-0.235	-0.419
-354.552	-200.000	-0.057	-0.274
-353.537	54.459	-0.138	0.131
-352.523	-79.781	-0.228	-0.076
-351.508	-109.481	-0.300	0.063
-350.493	-200.000	0.062	-0.370
-349.479	45.486	0.133	-0.121
-348.464	485.908	-0.083	0.187
-347.450	-99.596	0.229	-0.057
-346.435	-108.019	0.163	-0.035
-345.420	-85.097	0.296	0.092
-344.406	-200.000	0.016	0.112
-343.391	98.573	0.079	0.090
-342.377	-7.640	-0.219	0.146
-341.362	-200.000	-0.015	0.201
-340.348	-200.000	-0.028	0.364
-339.333	-200.000	0.033	-0.340
-338.318	64.432	-0.065	-0.064
-337.304	800.000	0.034	-0.115
-336.289	-124.329	0.043	0.007
-335.275	99.288	-0.096	0.109
-334.260	-39.255	-0.141	0.073
-333.245	-200.000	-0.013	-0.154
-332.231	-159.661	-0.202	0.011
-331.216	40.560	0.123	-0.109
-330.202	-90.034	-0.125	0.036
-329.187	-200.000	-0.031	0.142
-328.172	15.246	-0.152	0.118
-327.158	-200.000	0.037	-0.197
-326.143	-72.289	0.142	0.052
-325.129	180.588	0.134	0.195
-324.114	-86.988	-0.125	-0.038
-323.099	322.133	-0.169	0.317
-322.085	-69.692	0.265	0.100
-321.070	178.367	0.084	-0.121
-320.056	-175.065	-0.111	-0.003
-319.041	341.179	-0.051	-0.099
-318.026	-5.478	0.194	0.131
-317.012	-4.279	-0.225	-0.154
-315.997	83.149	0.124	0.134
-314.983	229.222	0.146	0.235
-313.968	-200.000	-0.043	-0.310
-312.953	116.940	-0.062	-0.075
-311.939	443.227	-0.079	0.170
-310.924	-150.100	-0.061	-0.005
-309.910	-200.000	-0.030	-0.417
-308.895	186.524	0.185	-0.271
-307.880	-121.989	-0.409	0.066
-306.866	-80.265	-0.250	0.082
-305.851	-181.635	0.229	0.004
-304.837	-34.641	-0.236	0.127
-303.822	17.613	-0.165	0.130
-302.807	-54.413	0.306	-0.137
-301.793	-200.000	-0.033	-0.153
-300.778	-200.000	-0.059	-0.282
-299.764	-84.586	0.104	0.032
-298.749	87.062	-0.054	0.059
-297.735	-200.000	-0.021	-0.236
-296.720	-80.239	0.333	0.110
-295.705	-144.739	-0.232	-0.021
-294.691	102.888	0.146	0.168
-293.676	-78.505	0.201	0.068
-292.662	43.500	0.258	-0.232
-291.647	364.155	-0.172	-0.341
-290.632	320.048	-0.061	0.113
-289.618	-200.000	0.028	-0.227
-288.603	-200.000	0.053	-0.344
-287.589	213.693	0.168	0.262
-286.574	-200.000	-0.038	-0.204
-285.559	-10.738	0.409	0.267
-284.545	800.000	0.053	0.167
-283.530	-173.555	0.052	0.002
-282.516	129.852	0.007	-0.008
-281.501	-59.302	0.150	-0.064
-280.486	688.149	-0.082	-0.212
-279.472	-109.282	0.165	0.034
-278.457	-132.090	-0.173	-0.022
-277.443	-200.000	-0.034	-0.198
-276.428	13.384	-0.122	-0.093
-275.413	-200.000	0.044	-0.300
-274.399	-20.758	-0.152	-0.092
-273.384	800.000	0.116	0.416
-272.370	-31.436	0.150	0.083
-271.355	174.004	-0.316	0.450
-270.340	84.223	-0.177	-0.190
-269.326	-33.295	-0.138	-0.075
-268.311	353.229	-0.113	-0.221
-267.297	-119.867	0.078	-0.013
-266.282	194.715	0.051	-0.077
-265.267	-101.510	0.144	0.034
-264.253	184.057	0.094	-0.138
-263.238	800.000	-0.065	0.268
-262.224	131.789	0.140	-0.177
-261.209	-115.902	0.329	0.060
-260.195	584.503	0.187	-0.452
-259.180	-200.000	0.018	0.215
-258.165	-139.577	-0.104	-0.011
-257.151	-36.517	-0.279	0.148
-256.136	179.002	0.111	0.160
-255.122	-55.703	0.265	-0.117
-254.107	-111.188	-0.315	-0.063
-253.092	-42.696	0.242	0.121
-252.078	289.247	-0.196	0.350
-251.063	-128.659	0.276	0.038
-250.049	-106.919	-0.292	-0.064
-249.034	40.049	-0.200	-0.177
-248.019	-200.000	-0.072	-0.398
-247.005	-200.000	0.018	-0.262
-245.990	-115.202	0.245	-0.046
-244.976	154.662	0.204	-0.276
-243.961	284.715	-0.058	-0.103
-242.946	19.767	-0.229	0.182
-241.932	694.383	0.123	0.317
-240.917	295.911	-0.037	0.068
-239.903	-123.795	0.004	0.001
-238.888	-86.108	0.213	-0.065
-237.873	-144.851	0.218	0.020
-236.859	3.818	0.239	0.172
-235.844	712.189	-0.085	0.223
-234.830	-200.000	0.007	-0.129
-233.815	-200.000	0.050	-0.231
-232.800	181.626	0.101	0.147
-231.786	357.971	-0.083	0.162
-230.771	232.221	0.018	0.029
-229.757	-67.319	-0.131	-0.050
-228.742	-29.666	-0.116	-0.065
-227.727	-23.867	-0.166	-0.098
-226.713	-30.400	0.293	-0.163
-225.698	-87.981	0.243	-0.072
-224.684	7.555	-0.153	-0.113
-223.669	104.159	0.091	0.105
-222.655	-28.302	0.136	0.077
-221.640	-21.045	-0.075	-0.045
-220.625	-177.046	-0.394	0.010
-219.611	-49.725	0.213	0.099
-218.596	-1.885	0.145	0.100
-217.582	-200.000	-0.046	0.279
-216.567	-71.893	0.188	0.069
-215.552	-32.531	-0.307	0.168
-214.538	-42.274	0.022	0.011
-213.523	-26.479	0.388	-0.223
-212.509	33.515	-0.292	0.250
-211.494	-50.385	-0.091	0.042
-210.479	483.105	0.084	0.188
-209.465	-33.935	-0.145	0.079
-208.450	240.270	-0.095	0.155
-207.436	-182.022	0.290	-0.005
-206.421	-106.682	0.289	0.063
-205.406	-200.000	0.004	0.372
-204.392	-96.358	-0.108	0.028
-203.377	19.155	0.128	0.101
-202.363	800.000	0.052	-0.147
-201.348	-53.410	-0.214	-0.096
-200.333	109.039	0.201	0.236
-199.319	-95.489	0.379	-0.100
-198.304	-108.050	-0.288	-0.061
-197.290	-200.000	0.109	0.000
-196.275	-19.625	0.282	-0.172
-195.260	-64.569	0.415	0.165
-194.246	600.549	0.121	-0.296
-193.231	90.096	0.154	0.169
-192.217	800.000	-0.073	-0.208
-191.202	-12.195	-0.267	0.172
-190.187	23.045	0.044	-0.036
-189.173	471.116	0.137	-0.304
-188.158	-200.000	-0.032	-0.425
-187.144	-14.499	0.251	-0.159
-186.129	-145.288	-0.273	0.024
-185.114	-31.608	-0.115	-0.063
-184.100	-100.621	-0.024	0.006
-183.085	-200.000	0.027	0.244
-182.071	-200.000	-0.052	-0.398
-181.056	-122.879	0.253	-0.040
-180.042	396.837	-0.197	-0.403
-179.027	-200.000	-0.009	0.080
-178.012	-32.562	-0.116	0.064
-176.998	408.509	0.075	0.156
-175.983	-200.000	0.018	-0.115
-174.969	-153.445	0.047	0.003
-173.954	41.151	0.059	-0.052
-172.939	44.991	-0.062	0.056
-171.925	782.583	0.082	0.220
-170.910	-200.000	-0.016	0.260
-169.896	100.633	-0.386	-0.440
-168.881	49.176	0.153	-0.141
-167.866	-43.758	0.207	-0.102
-166.852	-49.783	-0.255	-0.119
-165.837	-200.000	0.012	0.282
-164.823	-101.104	0.451	-0.108
-163.808	-69.891	0.113	0.042
-162.793	-200.000	0.017	-0.282
-161.779	800.000	-0.049	0.174
-160.764	22.521	-0.100	0.080
-159.750	185.241	0.139	0.202
-158.735	-27.710	-0.105	0.060
-157.720	-200.000	0.040	0.181
-156.706	-45.266	-0.383	-0.186
-155.691	-57.955	-0.477	-0.204
-154.677	800.000	0.035	-0.103
-153.662	-101.593	0.120	-0.029
-152.647	643.134	-0.040	0.099
-151.633	800.000	0.028	-0.076
-150.618	-200.000	0.049	-0.306
-149.604	-86.739	0.177	0.053
-148.589	-19.379	-0.156	-0.095
-147.574	301.612	-0.060	-0.110
-146.560	473.291	-0.132	-0.291
-145.545	-200.000	0.003	0.084
-144.531	-48.933	-0.112	0.053
-143.516	-200.000	-0.001	0.063
-142.502	30.743	-0.141	0.119
-141.487	-78.228	0.164	-0.055
-140.472	-200.000	0.039	-0.387
-139.458	202.562	0.092	-0.139
-138.443	199.763	-0.110	-0.166
-137.429	321.486	0.292	-0.544
-136.414	257.807	-0.160	0.270
-135.399	-114.430	0.081	-0.015
-134.385	4.565	-0.256	0.184
-133.370	254.666	0.058	0.097
-132.356	800.000	0.064	-0.264
-131.341	-152.221	-0.304	0.022
-130.326	-65.076	0.163	0.065
-129.312	-73.887	-0.162	0.058
-128.297	-19.089	-0.258	0.157
-127.283	350.198	0.105	0.203
-126.268	-200.000	0.001	0.079
-125.253	-200.000	0.024	0.133
-124.239	800.000	0.055	-0.202
-123.224	-200.000	-0.020	0.177
-122.210	238.506	0.098	0.159
-121.195	-112.339	0.134	-0.026
-120.180	109.796	-0.277	-0.325
-119.166	160.725	-0.133	-0.182
-118.151	404.959	-0.049	-0.101
-117.137	-200.000	0.025	-0.130
-116.122	34.098	0.199	0.170
-115.107	393.783	0.134	-0.274
-114.093	-200.000	-0.012	0.234
-113.078	-104.432	0.070	-0.016
-112.064	-200.000	0.049	0.438
-111.049	-58.569	-0.133	-0.056
-110.034	-126.058	0.245	0.036
-109.020	278.870	0.120	-0.209
-108.005	-42.350	-0.241	-0.120
-106.991	-200.000	0.005	-0.126
-105.976	399.986	-0.038	-0.077
-104.962	311.335	0.120	-0.221
-103.947	-200.000	0.007	0.331
-102.932	54.438	0.178	0.168
-101.918	-180.534	0.142	-0.003
-100.903	-200.000	-0.075	-0.426
-99.889	139.602	-0.144	-0.185
-98.874	277.975	0.098	-0.171
-97.859	46.380	0.151	0.137
-96.845	-200.000	0.077	0.337
-95.830	-200.000	-0.006	0.082
-94.816	107.809	-0.285	-0.332
-93.801	-9.397	-0.293	0.192
-92.786	-68.115	0.069	0.026
-91.772	212.887	0.099	0.152
-90.757	189.938	-0.166	-0.243
-89.743	-200.000	0.005	-0.101
-88.728	800.000	-0.086	-0.287
-87.713	-200.000	0.010	-0.076
-86.699	369.319	0.224	0.444
-85.684	-33.591	0.193	-0.104
-84.670	-200.000	-0.021	-0.247
-83.655	-10.895	-0.167	0.108
-82.640	320.851	0.051	-0.095
-81.626	800.000	-0.022	-0.080
-80.611	-5.780	-0.117	0.078
-79.597	800.000	-0.114	-0.313
-78.582	-86.716	-0.183	0.055
-77.567	-126.291	0.226	0.033
-76.553	-200.000	-0.097	0.464
-75.538	-48.613	-0.274	-0.129
-74.524	-76.850	0.163	-0.056
-73.509	-133.738	0.242	0.029
-72.494	-200.000	0.016	-0.254
-71.480	-151.781	-0.175	0.013
-70.465	45.551	0.284	0.257
-69.451	-17.547	0.145	-0.089
-68.436	75.289	0.054	-0.056
-67.422	800.000	-0.111	-0.377
-66.407	-62.939	-0.303	-0.122
-65.392	-82.029	0.164	0.052
-64.378	-200.000	0.013	0.234
-63.363	-122.123	-0.290	-0.046
-62.349	-42.237	0.223	0.111
-61.334	19.303	-1.260	-0.989
-60.319	53.011	0.642	0.601
-59.305	800.000	-0.305	-1.244
-58.290	411.337	0.725	1.503
-57.276	408.689	0.835	1.726
-56.261	-200.000	118.302	645.061
-55.246	483.610	1554.991	3454.502
-54.232	172.897	2731.774	3843.383
-53.217	97.479	2296.063	2575.863
-52.203	35.090	1902.166	1627.351
-51.188	29.256	1696.781	1407.187
-50.173	26.932	1655.551	1355.605
-49.159	46.746	1713.869	1554.647
-48.144	45.716	1727.233	1558.880
-47.130	28.773	1683.841	1392.579
-46.115	26.153	1669.925	1361.289
-45.100	25.996	1665.214	1356.209
-44.086	25.966	1662.714	1353.898
-43.071	25.978	1660.095	1351.797
-42.057	25.991	1657.159	1349.455
-41.042	26.018	1655.117	1347.941
-40.027	26.014	1653.673	1346.676
-39.013	25.965	1651.617	1344.588
-37.998	26.006	1649.943	1343.476
-36.984	25.986	1648.593	1342.173
-35.969	26.025	1647.926	1341.868
-34.954	26.112	1646.018	1340.904
-33.940	26.124	1644.126	1339.398
-32.925	26.028	1642.285	1337.140
-31.911	26.170	1640.673	1336.820
-30.896	26.055	1638.878	1334.459
-29.881	26.125	1637.308	1333.645
-28.867	26.078	1635.787	1332.006
-27.852	26.157	1634.119	1331.178
-26.838	26.191	1632.530	1330.079
-25.823	26.154	1631.702	1329.080
-24.809	26.191	1630.040	1327.946
-23.794	26.175	1628.585	1326.592
-22.779	26.196	1627.256	1325.608
-21.765	26.162	1625.639	1323.990
-20.750	26.131	1623.866	1322.268
-19.736	26.058	1622.895	1320.886
-18.721	26.155	1621.472	1320.384
-17.706	26.176	1619.475	1318.864
-16.692	26.203	1617.914	1317.738
-15.677	26.125	1617.038	1316.399
-14.663	26.217	1615.604	1315.850
-13.648	26.185	1613.988	1314.248
-12.633	26.180	1612.083	1312.612
-11.619	26.124	1610.603	1310.946
-10.604	26.060	1609.208	1309.292
-9.590	26.127	1607.886	1308.650
-8.575	26.267	1606.327	1308.344
-7.560	26.246	1605.436	1307.414
-6.546	26.214	1604.159	1306.089
-5.531	26.126	1603.421	1304.805
-4.517	26.093	1602.319	1303.620
-3.502	26.076	1601.224	1302.552
-2.487	26.195	1599.197	1301.706
-1.473	25.834	1587.383	1289.456
-0.458	22.993	1568.408	1253.870
0.556	21.459	1569.740	1222.607
1.571	18.902	1593.676	1222.974
2.586	18.481	1605.648	1229.032
3.600	16.853	1551.625	1176.285
4.615	10.565	1445.152	1054.704
5.629	4.967	1385.883	976.373
6.644	4.008	1378.446	965.074
7.659	4.035	1377.176	964.265
8.673	4.112	1376.802	964.402
9.688	4.185	1374.586	963.219
10.702	4.127	1371.391	960.532
11.717	6.664	1376.573	979.846
12.731	13.971	1390.068	1035.041
13.746	20.622	1400.990	1084.700
14.761	22.568	1402.784	1098.133
15.775	22.043	1401.345	1093.645
16.790	21.081	1399.352	1086.002
17.804	20.415	1396.730	1079.733
18.819	20.035	1395.435	1076.277
19.834	19.962	1394.933	1075.345
20.848	20.022	1393.492	1074.509
21.863	19.808	1392.611	1072.408
22.877	19.605	1391.738	1070.385
23.892	19.770	1390.421	1070.294
24.907	19.557	1389.657	1068.293
25.921	19.569	1388.549	1067.420
26.936	19.646	1387.603	1067.076
27.950	19.636	1387.049	1066.498
28.965	19.883	1385.746	1066.920
29.980	19.933	1384.394	1066.093
30.994	20.099	1383.468	1066.307
32.009	20.103	1383.006	1065.882
33.023	20.132	1381.464	1064.779
34.038	19.908	1380.519	1062.583
35.053	19.871	1378.733	1060.887
36.067	19.785	1377.499	1059.312
37.082	19.848	1376.798	1059.065
38.096	19.891	1375.988	1058.612
39.111	19.926	1375.329	1058.229
40.126	19.819	1374.410	1056.775
41.140	19.465	1373.353	1053.702
42.155	19.225	1372.791	1051.714
43.169	19.248	1372.483	1051.526
44.184	19.217	1372.091	1050.946
45.199	19.407	1371.761	1051.757
46.213	19.491	1371.499	1051.976
47.228	19.727	1370.679	1052.689
48.242	19.750	1369.711	1051.996
49.257	19.715	1368.074	1050.433
50.271	19.691	1366.882	1049.274
51.286	19.745	1365.275	1048.280
52.301	19.814	1363.862	1047.517
53.315	19.504	1363.169	1045.016
54.330	19.299	1362.257	1042.982
55.344	19.352	1360.558	1041.911
56.359	19.413	1359.680	1041.518
57.374	19.330	1358.869	1040.299
58.388	19.254	1357.703	1038.858
59.403	19.226	1357.605	1038.523
60.417	19.135	1357.028	1037.442
61.432	19.082	1355.725	1036.033
62.447	19.078	1354.825	1035.229
63.461	19.055	1353.216	1033.774
64.476	18.988	1352.551	1032.770
65.490	19.020	1351.528	1032.087
66.505	18.937	1349.930	1030.280
67.520	19.091	1348.611	1030.105
68.534	19.136	1347.722	1029.606
69.549	18.920	1346.962	1027.638
70.563	18.928	1345.336	1026.354
71.578	18.819	1344.389	1024.896
72.593	18.738	1343.799	1023.871
73.607	18.728	1342.563	1022.779
74.622	18.765	1342.249	1022.669
75.636	18.764	1342.003	1022.386
76.651	18.996	1340.100	1022.222
77.666	18.856	1340.101	1021.303
78.680	19.078	1339.505	1022.078
79.695	19.191	1338.863	1022.165
80.709	19.164	1338.785	1021.855
81.724	19.246	1338.164	1021.779
82.739	19.463	1336.842	1021.965
83.753	19.544	1336.290	1021.929
84.768	19.801	1335.318	1022.618
85.782	19.944	1334.363	1022.640
86.797	19.891	1333.141	1021.297
87.812	19.808	1331.917	1019.783
88.826	19.789	1330.426	1018.440
89.841	19.837	1329.784	1018.139
90.855	19.928	1328.846	1017.865
91.870	19.925	1328.152	1017.227
92.884	20.046	1327.476	1017.329
93.899	19.989	1326.555	1016.198
94.914	20.099	1325.795	1016.172
95.928	20.035	1325.140	1015.205
96.943	19.913	1323.927	1013.474
97.957	19.872	1323.158	1012.554
98.972	19.818	1321.973	1011.239
99.987	19.885	1321.256	1010.994
101.001	19.827	1320.161	1009.730
102.016	19.907	1319.461	1009.572
103.030	19.899	1318.405	1008.630
104.045	19.867	1317.355	1007.546
105.060	19.805	1315.471	1005.657
106.074	19.411	1314.357	1002.428
107.089	19.071	1312.664	999.075
108.103	19.103	1311.151	998.021
109.118	19.024	1310.313	996.836
110.133	19.014	1309.397	995.991
111.147	19.180	1307.595	995.492
112.162	19.187	1306.348	994.495
113.176	19.179	1305.398	993.638
114.191	19.300	1304.584	993.629
115.206	19.176	1303.415	991.935
116.220	19.165	1302.004	990.713
117.235	19.214	1300.834	990.016
118.249	19.072	1299.836	988.352
119.264	19.059	1298.244	986.982
120.279	19.007	1297.169	985.782
121.293	18.912	1296.454	984.602
122.308	18.835	1295.470	983.330
123.322	18.840	1294.179	982.288
124.337	18.838	1293.028	981.317
125.352	18.761	1291.898	979.934
126.366	18.779	1290.873	979.174
127.381	18.748	1289.779	978.078
128.395	18.762	1288.716	977.266
129.410	18.826	1288.110	977.087
130.424	18.939	1287.965	977.529
131.439	19.009	1286.547	976.767
132.454	19.221	1285.714	977.251
133.468	19.134	1285.017	976.141
134.483	19.179	1284.633	976.017
135.497	19.235	1283.742	975.574
136.512	19.250	1282.784	974.839
137.527	19.220	1281.333	973.483
138.541	19.287	1279.732	972.560
139.556	19.320	1278.950	972.063
140.570	19.567	1277.576	972.325
141.585	19.675	1276.714	972.189
142.600	19.693	1275.921	971.603
143.614	19.827	1274.994	971.565
144.629	19.867	1274.083	971.008
145.643	19.847	1273.064	970.032
146.658	19.680	1271.370	967.723
147.673	19.568	1269.917	965.902
148.687	19.281	1269.021	963.534
149.702	19.207	1267.378	961.786
150.716	19.206	1265.793	960.493
151.731	19.230	1264.733	959.734
152.746	19.214	1264.285	959.223
153.760	19.346	1262.836	958.775
154.775	19.389	1261.961	958.260
155.789	19.540	1261.086	958.353
156.804	19.582	1260.097	957.749
157.819	19.650	1258.965	957.180
158.833	19.758	1258.421	957.279
159.848	19.873	1258.006	957.517
160.862	19.858	1256.617	956.292
161.877	19.572	1254.836	953.274
162.892	19.270	1253.875	950.792
163.906	19.191	1252.721	949.398
164.921	19.266	1251.821	949.044
165.935	19.268	1251.640	948.832
166.950	19.392	1251.161	949.070
167.964	19.405	1250.176	948.308
168.979	19.476	1249.212	947.886
169.994	19.341	1248.548	946.557
171.008	19.395	1247.392	945.893
172.023	19.601	1246.837	946.516
173.037	19.872	1246.271	947.488
174.052	19.679	1245.657	945.882
175.067	19.478	1243.929	943.386
176.081	19.266	1243.232	941.613
177.096	19.174	1242.482	940.462
178.110	19.315	1241.150	940.141
179.125	19.451	1239.823	939.793
180.140	19.591	1238.558	939.514
181.154	19.601	1238.175	939.194
182.169	19.729	1237.276	939.125
183.183	19.784	1236.052	938.407
184.198	19.773	1234.761	937.285
185.213	19.755	1233.813	936.385
186.227	19.922	1232.662	936.332
187.242	19.998	1231.561	935.823
188.256	20.036	1230.716	935.304
189.271	20.027	1230.162	934.754
190.286	19.766	1228.792	932.223
191.300	19.375	1227.620	929.142
192.315	19.252	1226.535	927.578
193.329	19.276	1226.256	927.417
194.344	19.501	1225.072	927.648
195.359	19.501	1224.886	927.422
196.373	19.570	1224.358	927.313
197.388	19.751	1224.469	928.286
198.402	19.994	1224.364	929.431
199.417	20.054	1223.844	929.276
200.432	20.212	1223.242	929.580
201.446	20.318	1222.101	929.197
202.461	20.473	1221.409	929.421
203.475	20.432	1220.146	928.159
204.490	20.196	1218.819	925.807
205.504	19.886	1217.587	923.137
206.519	19.815	1216.382	921.763
207.534	19.725	1215.019	920.168
208.548	19.727	1214.530	919.728
209.563	19.846	1213.479	919.481
210.577	19.750	1212.822	918.395
211.592	19.969	1211.826	918.721
212.607	20.187	1211.067	919.220
213.621	20.099	1210.627	918.338
214.636	20.106	1209.081	917.119
215.650	20.045	1208.770	916.481
216.665	20.283	1207.496	916.693
217.680	20.439	1207.041	917.089
218.694	20.403	1206.114	916.111
219.709	20.293	1205.211	914.768
220.723	20.334	1204.631	914.461
221.738	20.288	1203.885	913.572
222.753	20.286	1202.468	912.407
223.767	20.327	1201.909	912.117
224.782	20.401	1201.590	912.179
225.796	20.517	1201.475	912.622
226.811	20.451	1200.277	911.284
227.826	20.238	1199.643	909.605
228.840	20.275	1198.844	909.113
229.855	20.214	1198.005	908.079
230.869	20.226	1196.927	907.244
231.884	20.127	1196.026	905.963
232.899	19.984	1195.262	904.556
233.913	19.933	1194.398	903.559
234.928	19.839	1193.738	902.490
235.942	19.929	1192.864	902.217
236.957	19.763	1192.509	901.005
237.972	19.957	1190.895	900.714
238.986	19.846	1190.719	899.923
240.001	19.919	1189.944	899.637
241.015	19.873	1189.517	898.994
242.030	19.987	1188.736	898.915
243.045	20.060	1188.084	898.725
244.059	20.332	1187.071	899.289
245.074	20.212	1186.256	897.972
246.088	20.403	1185.258	898.120
247.103	20.418	1184.917	897.861
248.117	20.637	1184.344	898.477
249.132	20.719	1184.103	898.643
250.147	20.973	1183.260	899.230
251.161	21.192	1182.644	899.816
252.176	21.139	1181.797	898.815
253.190	21.165	1182.013	899.033
254.205	21.274	1181.280	898.957
255.220	21.308	1180.596	898.535
256.234	21.185	1180.101	897.444
257.249	21.163	1179.736	896.974
258.263	21.264	1178.696	896.625
259.278	21.146	1178.019	895.423
260.293	21.157	1177.686	895.147
261.307	21.337	1176.799	895.317
262.322	21.410	1176.129	895.100
263.336	21.427	1175.540	894.659
264.351	21.373	1175.031	893.915
265.366	21.377	1174.371	893.355
266.380	21.424	1173.460	892.827
267.395	21.415	1172.153	891.706
268.409	21.213	1171.592	890.173
269.424	21.137	1170.621	888.965
270.439	21.233	1170.189	889.049
271.453	21.153	1169.358	887.932
272.468	20.955	1168.330	886.068
273.482	20.940	1167.520	885.295
274.497	20.878	1166.950	884.469
275.512	20.933	1166.151	884.068
276.526	20.836	1165.966	883.357
277.541	20.966	1164.874	883.110
278.555	21.054	1164.359	883.085
279.570	21.289	1164.011	883.935
280.585	21.367	1163.735	884.039
281.599	21.490	1161.721	883.052
282.614	21.219	1160.753	880.871
283.628	21.056	1159.833	879.278
284.643	21.149	1158.357	878.547
285.657	21.174	1157.552	877.984
286.672	21.153	1156.786	877.219
287.687	21.179	1156.246	876.861
288.701	21.109	1155.323	875.732
289.716	21.159	1154.417	875.222
290.730	21.088	1154.326	874.716
291.745	21.183	1153.401	874.416
292.760	21.319	1152.592	874.405
293.774	21.355	1152.104	874.136
294.789	21.451	1151.961	874.433
295.803	21.422	1151.003	873.484
296.818	21.244	1149.883	871.666
297.833	21.244	1148.906	870.849
298.847	21.135	1148.475	869.903
299.862	21.150	1147.872	869.444
300.876	21.336	1146.798	869.479
301.891	21.369	1146.385	869.255
302.906	21.520	1145.760	869.455
303.920	21.560	1145.438	869.332
304.935	21.733	1145.071	869.832
305.949	21.837	1144.639	869.944
306.964	21.862	1143.605	869.203
307.979	21.651	1142.683	867.380
308.993	21.563	1141.880	866.261
310.008	21.714	1141.207	866.421
311.022	21.657	1140.771	865.729
312.037	21.760	1139.641	865.305
313.052	21.576	1138.628	863.551
314.066	21.324	1137.268	861.203
315.081	21.211	1136.332	859.859
316.095	21.243	1135.227	859.108
317.110	21.141	1135.258	858.549
318.125	21.120	1134.173	857.551
319.139	21.152	1133.485	857.115
320.154	21.183	1132.973	856.802
321.168	21.162	1132.645	856.378
322.183	21.250	1131.438	855.819
323.197	21.272	1131.250	855.709
324.212	21.350	1130.592	855.516
325.227	21.355	1130.557	855.439
326.241	21.411	1129.640	854.941
327.256	21.299	1128.886	853.749
328.270	21.201	1127.706	852.305
329.285	21.314	1126.625	851.962
330.300	21.371	1125.727	851.483
331.314	21.201	1124.759	849.851
332.329	21.279	1124.461	849.930
333.343	21.413	1123.079	849.459
334.358	21.463	1122.614	849.277
335.373	21.574	1121.870	849.176
336.387	21.636	1121.193	848.891
337.402	21.802	1119.994	848.713
338.416	21.674	1120.010	848.027
339.431	21.804	1119.385	848.107
340.446	21.975	1119.079	848.627
341.460	22.069	1118.384	848.479
342.475	22.233	1117.211	848.308
343.489	22.236	1116.786	847.924
344.504	22.306	1115.851	847.478
345.519	22.286	1114.896	846.581
346.533	22.319	1114.214	846.144
347.548	22.481	1113.217	846.091
348.562	22.349	1112.883	845.131
349.577	22.225	1111.443	843.367
350.592	21.796	1110.703	840.673
351.606	21.671	1109.698	839.241
352.621	21.716	1108.738	838.655
353.635	21.697	1108.480	838.292
354.650	21.695	1107.319	837.333
355.665	21.705	1106.630	836.785
356.679	21.879	1106.294	837.286
357.694	21.914	1105.956	837.124
358.708	22.004	1105.172	836.886
359.723	22.030	1104.493	836.422
360.738	21.937	1104.021	835.545
361.752	21.904	1103.633	835.022
362.767	22.082	1102.692	835.082
363.781	21.993	1102.423	834.382
364.796	22.255	1101.837	835.110
365.810	22.327	1101.455	835.086
366.825	22.504	1100.624	835.222
367.840	22.657	1100.750	835.969
368.854	22.679	1100.189	835.572
369.869	22.765	1099.108	835.085
370.883	22.553	1098.330	833.419
371.898	22.340	1097.347	831.593
372.913	22.423	1096.825	831.514
373.927	22.544	1096.447	831.726
374.942	22.675	1096.020	831.945
375.956	22.553	1095.296	830.750
376.971	22.538	1094.780	830.215
377.986	22.524	1094.445	829.821
379.000	22.701	1094.025	830.263
380.015	22.798	1093.184	830.004
381.029	22.764	1092.597	829.329
382.044	22.862	1091.594	828.950
383.059	22.821	1090.768	828.058
384.073	22.734	1089.870	826.898
385.088	22.995	1088.639	827.109
386.102	22.796	1088.297	825.848
387.117	22.552	1087.072	823.704
388.132	22.512	1086.005	822.634
389.146	22.419	1085.134	821.470
390.161	22.287	1084.380	820.209
391.175	22.369	1083.281	819.689
392.190	22.475	1082.924	819.838
393.205	22.667	1082.312	820.198
394.219	22.685	1081.583	819.654
395.234	22.509	1081.023	818.342
396.248	22.281	1079.852	816.324
397.263	22.371	1078.761	815.843
398.278	22.387	1077.835	815.146
399.292	22.336	1076.780	814.039
400.307	22.205	1076.122	812.865
401.321	22.140	1075.388	811.936
402.336	22.098	1074.787	811.218
403.350	22.195	1074.189	811.141
404.365	22.327	1073.608	811.244
405.380	22.349	1072.940	810.767
406.394	22.343	1072.365	810.230
407.409	22.612	1071.691	810.889
408.423	22.841	1070.913	811.279
409.438	22.862	1070.535	811.019
410.453	23.171	1069.826	811.826
411.467	23.042	1069.614	811.003
412.482	23.016	1068.965	810.319
413.496	23.182	1067.965	810.250
414.511	23.255	1067.445	810.119
415.526	23.414	1066.937	810.388
416.540	23.407	1066.744	810.139
417.555	23.280	1066.082	808.982
418.569	23.211	1065.652	808.272
419.584	23.190	1065.115	807.696
420.599	23.186	1064.856	807.408
421.613	158.101	1404.963	1798.627
422.628	145.549	1454.484	1798.727
