DTS Sentinel unit serial number:	SN413079Multiplexer serial number:	ORYXHardware model number:	OX4-SRSoftware version number:	ORYX F/W v4.00 Oryx Data Collector v3.7.2.0data status	okinstallation	princeton_trtdifferential loss correction	single-endedforward channel	channel 2reverse channel	N/Adate	2019/09/13time	02:35:34forward acquisition time	60.00reverse acquisition time	0.00gamma	496.2192k internal	0.2335k external	0.2335temperature offset calibration	1.0182default loss term (dB/km)	0.3790temperature slope calibration	1.0000multiplexer offset coefficient	1.0000multiplexer slope coefficient	1.0000fibre end	0.00T internal ref (°C)	27.48T ext. ref 1 (°C)	3.98T ext. ref 2 (°C)	22.24length (m)	temperature (°C)	Stokes	anti-Stokes-747.200	-164.071	0.465	0.022
-746.185	-184.397	0.283	-0.005
-745.171	800.000	0.094	-0.275
-744.156	162.331	0.130	-0.183
-743.142	20.398	-0.036	-0.029
-742.127	101.593	-0.197	0.230
-741.112	38.242	-0.133	-0.119
-740.098	800.000	-0.012	-0.049
-739.083	47.608	-0.185	-0.174
-738.069	-116.113	-0.234	-0.044
-737.054	368.886	-0.027	-0.054
-736.039	159.039	0.088	-0.122
-735.025	252.029	0.127	-0.218
-734.010	74.149	-0.067	-0.071
-732.996	-104.742	0.034	-0.008
-731.981	4.384	0.166	0.122
-730.966	-78.282	0.166	-0.057
-729.952	800.000	0.033	-0.132
-728.937	-52.492	0.167	0.078
-727.923	-154.778	-0.338	0.022
-726.908	98.936	0.203	-0.236
-725.894	-33.215	-0.117	0.065
-724.879	-99.453	-0.113	-0.029
-723.864	3.299	0.214	0.157
-722.850	-93.131	0.421	0.118
-721.835	-164.008	0.363	-0.017
-720.821	-93.639	0.084	-0.023
-719.806	-200.000	-0.004	0.465
-718.791	-99.464	-0.229	-0.058
-717.777	-150.215	0.235	-0.018
-716.762	-142.029	0.153	0.015
-715.748	-200.000	-0.028	-0.187
-714.733	-39.110	-0.156	-0.082
-713.718	286.063	-0.161	-0.291
-712.704	-103.443	-0.185	0.044
-711.689	29.134	0.036	0.030
-710.675	-121.586	0.150	-0.025
-709.660	230.737	0.154	0.253
-708.645	-144.486	-0.107	0.010
-707.631	684.963	-0.065	-0.171
-706.616	-57.463	-0.316	-0.139
-705.602	343.341	-0.007	0.014
-704.587	-200.000	0.069	0.335
-703.572	-200.000	0.047	0.227
-702.558	75.663	0.215	-0.228
-701.543	-78.183	-0.109	0.037
-700.529	-200.000	0.045	0.226
-699.514	-18.353	-0.205	0.129
-698.499	-25.700	0.128	-0.076
-697.485	303.752	-0.151	0.280
-696.470	-109.865	-0.294	-0.062
-695.456	-73.827	0.699	-0.255
-694.441	642.156	-0.065	0.167
-693.426	75.717	0.258	-0.274
-692.412	800.000	-0.078	0.329
-691.397	-147.776	-0.122	-0.010
-690.383	-138.149	-0.304	-0.034
-689.368	103.921	-0.135	0.160
-688.354	-19.337	0.236	0.147
-687.339	-133.401	-0.165	-0.021
-686.324	800.000	-0.040	-0.160
-685.310	33.803	0.180	-0.157
-684.295	55.322	-0.283	0.274
-683.281	573.930	0.082	0.200
-682.266	38.121	-0.094	0.084
-681.251	141.575	-0.066	-0.088
-680.237	-200.000	0.002	-0.144
-679.222	-200.000	-0.016	-0.189
-678.208	-72.653	0.368	0.136
-677.193	-200.000	-0.036	0.200
-676.178	58.473	-0.104	0.103
-675.164	-200.000	0.023	-0.335
-674.149	183.565	-0.108	-0.159
-673.135	111.802	0.260	0.315
-672.120	-75.515	0.276	-0.098
-671.105	-79.950	-0.282	0.095
-670.091	-29.801	-0.118	-0.067
-669.076	-54.712	0.031	0.014
-668.062	800.000	-0.022	-0.076
-667.047	261.668	0.255	0.442
-666.032	-23.927	-0.099	0.059
-665.018	-37.547	-0.080	0.043
-664.003	-135.975	0.188	-0.022
-662.989	-46.181	0.170	0.084
-661.974	-99.399	0.198	-0.050
-660.959	-200.000	-0.040	0.231
-659.945	320.615	-0.092	0.175
-658.930	-31.652	-0.115	0.065
-657.916	-200.000	-0.029	-0.290
-656.901	-65.932	0.121	-0.048
-655.886	-148.924	-0.149	-0.012
-654.872	108.977	-0.281	0.336
-653.857	13.357	-0.240	-0.186
-652.843	-98.109	-0.160	0.041
-651.828	86.824	0.230	-0.254
-650.814	-124.587	-0.147	-0.023
-649.799	-13.557	-0.121	-0.078
-648.784	501.088	0.045	0.104
-647.770	-142.344	0.128	0.013
-646.755	158.276	0.193	-0.268
-645.741	-200.000	0.058	-0.320
-644.726	178.331	0.218	0.318
-643.711	486.682	0.201	0.458
-642.697	251.774	-0.054	-0.091
-641.682	749.112	0.140	-0.379
-640.668	2.498	-0.169	0.123
-639.653	-200.000	0.040	-0.252
-638.638	105.968	-0.251	-0.298
-637.624	-200.000	0.025	-0.203
-636.609	-12.275	0.156	0.102
-635.595	-200.000	-0.045	-0.388
-634.580	100.286	-0.103	-0.119
-633.565	-87.335	-0.339	0.103
-632.551	-61.232	0.122	-0.051
-631.536	-91.400	0.179	0.051
-630.522	-78.142	0.068	0.023
-629.507	635.489	0.101	-0.257
-628.492	-17.180	0.169	-0.107
-627.478	-163.215	-0.380	-0.018
-626.463	-115.957	0.255	-0.048
-625.449	18.556	-0.211	0.169
-624.434	129.294	0.156	0.199
-623.419	431.190	0.087	-0.188
-622.405	493.081	0.078	0.179
-621.390	800.000	0.059	-0.181
-620.376	-200.000	-0.037	0.300
-619.361	433.628	-0.138	-0.300
-618.346	-77.598	0.176	-0.061
-617.332	800.000	0.056	0.167
-616.317	-97.138	-0.612	0.160
-615.303	-200.000	-0.013	0.270
-614.288	-141.801	-0.106	-0.011
-613.273	-34.584	-0.234	-0.128
-612.259	-25.352	0.248	0.147
-611.244	259.282	-0.030	-0.051
-610.230	-159.518	0.047	0.003
-609.215	800.000	-0.073	-0.257
-608.201	-200.000	0.008	-0.421
-607.186	124.333	0.197	0.247
-606.171	-79.287	-0.235	0.080
-605.157	-28.985	0.047	0.027
-604.142	-145.628	-0.093	-0.008
-603.128	-29.809	-0.137	-0.078
-602.113	230.935	-0.091	0.149
-601.098	-146.357	0.214	-0.019
-600.084	-38.982	-0.242	-0.127
-599.069	28.765	0.123	-0.104
-598.055	-101.567	-0.485	0.118
-597.040	158.991	-0.204	0.283
-596.025	531.070	0.025	0.060
-595.011	156.399	0.186	-0.257
-593.996	-118.882	0.215	0.038
-592.982	13.995	-0.186	0.145
-591.967	100.809	0.142	-0.165
-590.952	575.565	-0.105	0.256
-589.938	-60.985	0.182	-0.077
-588.923	800.000	0.033	0.136
-587.909	-123.125	-0.183	-0.029
-586.894	-110.374	-0.277	-0.057
-585.879	230.138	-0.141	-0.231
-584.865	-172.074	-0.344	0.011
-583.850	238.254	0.103	0.170
-582.836	-154.978	0.050	-0.003
-581.821	800.000	-0.086	0.257
-580.806	5.557	0.220	0.162
-579.792	-67.589	0.179	0.070
-578.777	-96.025	0.151	0.040
-577.763	27.348	0.271	0.228
-576.748	800.000	0.137	-0.385
-575.733	586.313	0.107	-0.263
-574.719	800.000	0.020	-0.074
-573.704	-200.000	-0.044	-0.277
-572.690	800.000	0.076	0.239
-571.675	-200.000	-0.045	0.340
-570.661	207.683	0.196	0.305
-569.646	-2.342	0.148	0.104
-568.631	80.217	0.053	0.057
-567.617	-200.000	0.039	0.575
-566.602	13.597	-0.114	0.088
-565.588	800.000	-0.081	-0.291
-564.573	93.536	-0.266	-0.300
-563.558	-200.000	-0.052	-0.304
-562.544	-200.000	-0.009	0.323
-561.529	800.000	0.013	0.054
-560.515	157.551	-0.080	0.110
-559.500	-50.273	-0.273	-0.129
-558.485	-200.000	-0.001	-0.105
-557.471	-4.147	0.155	-0.107
-556.456	328.407	0.235	-0.451
-555.442	-200.000	-0.036	0.251
-554.427	-79.955	-0.245	0.082
-553.412	-111.926	0.165	-0.033
-552.398	-46.537	0.127	0.062
-551.383	-91.229	-0.112	-0.032
-550.369	-52.063	-0.196	-0.091
-549.354	-99.847	0.355	0.089
-548.339	-200.000	0.021	-0.292
-547.325	-159.604	-0.205	-0.011
-546.310	-200.000	0.034	0.150
-545.296	-116.769	-0.325	-0.060
-544.281	12.343	0.089	-0.069
-543.266	197.573	0.197	0.299
-542.252	83.325	0.079	-0.086
-541.237	47.073	-0.192	0.178
-540.223	111.776	-0.199	0.239
-539.208	490.575	-0.113	0.257
-538.193	-66.884	-0.109	-0.043
-537.179	-200.000	-0.012	0.064
-536.164	-114.951	0.409	0.078
-535.150	-200.000	-0.001	-0.007
-534.135	-15.043	-0.157	0.101
-533.121	-200.000	-0.025	0.158
-532.106	-43.595	-0.090	0.045
-531.091	138.840	0.180	-0.236
-530.077	-64.781	0.322	-0.130
-529.062	2.284	0.175	0.126
-528.048	-200.000	0.011	-0.119
-527.033	190.899	-0.132	0.198
-526.018	-116.715	0.079	0.015
-525.004	-200.000	0.005	-0.069
-523.989	-19.601	0.133	-0.082
-522.975	-24.199	0.111	-0.066
-521.960	137.184	-0.075	0.097
-520.945	-49.297	0.158	0.075
-519.931	167.490	0.289	0.410
-518.916	130.184	0.264	0.336
-517.902	12.864	-0.263	0.202
-516.887	800.000	-0.109	-0.355
-515.872	-121.844	-0.201	-0.033
-514.858	-200.000	-0.016	0.178
-513.843	-136.657	-0.131	-0.015
-512.829	-107.343	0.276	-0.060
-511.814	105.827	-0.140	0.165
-510.799	-97.266	-0.170	-0.044
-509.785	-15.418	-0.109	-0.069
-508.770	800.000	0.075	0.274
-507.756	-113.355	0.371	0.073
-506.741	26.757	-0.291	-0.242
-505.726	-105.581	0.135	0.031
-504.712	-33.197	-0.105	-0.058
-503.697	-129.084	-0.032	-0.004
-502.683	81.039	-0.139	-0.149
-501.668	-200.000	0.044	-0.422
-500.653	724.444	-0.103	0.273
-499.639	-6.118	0.387	0.263
-498.624	-94.939	0.122	-0.033
-497.610	800.000	-0.098	-0.283
-496.595	-200.000	-0.024	-0.213
-495.581	800.000	0.061	-0.233
-494.566	218.098	-0.199	0.315
-493.551	-185.932	0.342	0.005
-492.537	6.782	-0.164	0.122
-491.522	289.361	0.024	-0.043
-490.508	800.000	0.065	-0.214
-489.493	-126.928	-0.146	-0.021
-488.478	296.079	0.062	0.113
-487.464	439.578	0.096	-0.209
-486.449	59.737	-0.235	0.231
-485.435	256.553	0.013	0.022
-484.420	-200.000	-0.001	-0.101
-483.405	-57.816	-0.082	0.036
-482.391	-30.487	0.007	0.004
-481.376	222.240	0.147	0.235
-480.362	37.247	-0.224	0.198
-479.347	460.705	-0.186	0.412
-478.332	216.234	-0.139	0.220
-477.318	553.066	-0.093	0.222
-476.303	-41.380	0.271	-0.139
-475.289	358.685	0.208	-0.413
-474.274	356.677	-0.021	0.042
-473.259	-17.714	-0.028	-0.018
-472.245	-58.262	0.130	0.056
-471.230	-49.336	0.208	-0.098
-470.216	206.270	-0.184	-0.285
-469.201	800.000	0.043	0.136
-468.186	54.302	0.124	-0.119
-467.172	-192.880	0.116	-0.001
-466.157	-200.000	-0.004	0.082
-465.143	87.687	0.045	-0.050
-464.128	488.290	0.144	0.327
-463.113	800.000	0.016	0.063
-462.099	-1.860	-0.196	0.137
-461.084	750.275	-0.037	0.098
-460.070	-200.000	-0.018	0.122
-459.055	310.607	-0.226	-0.421
-458.040	-45.530	0.159	-0.078
-457.026	800.000	0.018	0.052
-456.011	-44.898	-0.293	0.145
-454.997	621.464	0.018	0.045
-453.982	800.000	0.045	-0.147
-452.968	-147.861	-0.197	-0.016
-451.953	-129.468	-0.250	0.034
-450.938	75.032	0.189	-0.198
-449.924	213.303	-0.066	-0.103
-448.909	-28.271	-0.044	-0.025
-447.895	728.023	-0.102	-0.269
-446.880	-200.000	-0.049	0.338
-445.865	322.273	0.149	0.281
-444.851	-156.066	-0.111	-0.007
-443.836	32.748	0.215	-0.185
-442.822	54.660	-0.181	-0.173
-441.807	549.862	-0.085	0.203
-440.792	8.424	-0.094	0.070
-439.778	-42.240	-0.151	-0.077
-438.763	-35.343	-0.325	0.176
-437.749	315.980	-0.041	0.076
-436.734	-91.010	-0.390	-0.111
-435.719	-200.000	0.015	-0.078
-434.705	-162.454	0.302	0.015
-433.690	279.580	-0.051	0.091
-432.676	-111.785	0.083	0.017
-431.661	-120.940	-0.383	0.064
-430.646	-163.636	-0.209	0.010
-429.632	-51.700	0.296	0.137
-428.617	695.388	-0.178	-0.465
-427.603	-200.000	-0.011	0.281
-426.588	-56.346	0.184	-0.081
-425.573	-119.157	0.196	0.034
-424.559	23.396	0.264	0.216
-423.544	-105.444	-0.169	-0.038
-422.530	-200.000	-0.008	-0.131
-421.515	26.949	0.108	0.090
-420.500	33.598	0.070	0.061
-419.486	-184.496	0.408	-0.007
-418.471	81.578	-0.043	0.046
-417.457	-200.000	-0.048	0.211
-416.442	140.507	-0.129	0.169
-415.428	155.030	-0.137	-0.186
-414.413	800.000	-0.049	-0.211
-413.398	254.042	0.131	-0.223
-412.384	-16.425	-0.283	0.178
-411.369	-60.407	-0.163	0.069
-410.355	-200.000	-0.069	-0.326
-409.340	-123.346	0.080	0.013
-408.325	800.000	-0.040	-0.136
-407.311	104.337	0.117	-0.137
-406.296	-34.869	-0.165	-0.089
-405.282	800.000	-0.058	0.170
-404.267	368.912	0.103	0.207
-403.252	-31.605	0.235	-0.131
-402.238	-50.826	0.150	-0.070
-401.223	-69.329	-0.241	-0.092
-400.209	-124.060	-0.209	-0.033
-399.194	307.626	-0.100	-0.185
-398.179	-117.504	-0.353	-0.063
-397.165	-92.061	-0.309	-0.087
-396.150	-200.000	-0.028	-0.266
-395.136	800.000	-0.067	-0.189
-394.121	-55.489	0.052	-0.023
-393.106	-114.163	-0.032	0.006
-392.092	51.274	-0.059	-0.056
-391.077	213.839	0.165	0.259
-390.063	179.210	-0.183	0.266
-389.048	-53.137	0.343	0.156
-388.033	-86.547	0.156	0.047
-387.019	-200.000	0.013	0.213
-386.004	175.052	0.024	-0.035
-384.990	-200.000	0.015	-0.071
-383.975	-171.522	0.293	0.010
-382.960	800.000	0.050	0.169
-381.946	423.064	0.207	-0.440
-380.931	-142.243	0.514	0.050
-379.917	-200.000	0.024	-0.594
-378.902	-146.973	0.029	0.002
-377.888	405.728	-0.102	-0.213
-376.873	-143.233	-0.349	-0.033
-375.858	800.000	-0.079	0.300
-374.844	800.000	-0.053	-0.157
-373.829	303.687	-0.125	-0.229
-372.815	-81.452	0.340	0.111
-371.800	-200.000	0.147	-0.000
-370.785	-200.000	0.022	0.298
-369.771	-200.000	-0.026	-0.127
-368.756	-119.439	-0.162	0.028
-367.742	22.824	0.276	0.224
-366.727	-85.477	0.080	-0.025
-365.712	-64.656	-0.229	0.092
-364.698	-53.931	0.145	-0.065
-363.683	800.000	-0.078	0.310
-362.669	-80.274	0.208	-0.069
-361.654	49.931	0.023	-0.022
-360.639	-61.313	0.247	0.103
-359.625	-83.449	0.232	-0.074
-358.610	331.530	0.093	0.177
-357.596	-200.000	0.037	-0.187
-356.581	-79.259	-0.302	-0.101
-355.566	-46.332	-0.102	-0.049
-354.552	-86.441	0.287	-0.087
-353.537	800.000	0.073	0.298
-352.523	101.826	-0.162	-0.187
-351.508	-180.747	-0.110	-0.002
-350.493	-64.688	-0.058	-0.023
-349.479	35.337	0.124	-0.108
-348.464	94.325	0.183	0.205
-347.450	-200.000	0.001	0.135
-346.435	263.360	-0.187	-0.321
-345.420	-64.442	0.383	0.154
-344.406	21.716	-0.132	-0.107
-343.391	-200.000	0.031	0.153
-342.377	581.229	-0.128	-0.311
-341.362	-119.692	0.111	-0.019
-340.348	362.050	0.146	-0.290
-339.333	2.602	0.166	-0.119
-338.318	800.000	-0.049	-0.210
-337.304	12.739	-0.080	0.061
-336.289	527.805	-0.120	-0.280
-335.275	-200.000	-0.080	0.381
-334.260	506.444	0.071	-0.163
-333.245	-58.708	-0.317	0.136
-332.231	-200.000	0.032	-0.218
-331.216	-148.702	-0.232	0.019
-330.202	39.181	-0.168	0.149
-329.187	800.000	0.078	0.218
-328.172	148.940	-0.128	0.171
-327.158	-162.466	0.327	-0.016
-326.143	97.793	-0.145	0.165
-325.129	-125.840	-0.220	-0.033
-324.114	800.000	-0.087	0.284
-323.099	-82.555	-0.366	0.117
-322.085	287.555	-0.167	-0.298
-321.070	-200.000	-0.031	0.196
-320.056	62.892	-0.040	0.040
-319.041	129.317	0.166	0.210
-318.026	131.195	-0.035	-0.044
-317.012	24.033	-0.123	0.100
-315.997	104.846	0.149	-0.174
-314.983	-200.000	0.048	0.458
-313.968	12.846	0.205	0.157
-312.953	-164.046	0.233	-0.011
-311.939	-177.733	-0.182	-0.004
-310.924	79.020	-0.114	0.120
-309.910	-200.000	-0.053	-0.235
-308.895	-122.792	-0.075	-0.012
-307.880	612.448	0.084	-0.208
-306.866	418.798	-0.029	0.060
-305.851	-43.602	-0.263	-0.131
-304.837	-200.000	0.045	0.233
-303.822	800.000	0.036	-0.108
-302.807	-69.761	0.169	-0.064
-301.793	81.332	0.060	0.064
-300.778	800.000	-0.038	0.137
-299.764	382.932	-0.148	-0.300
-298.749	-56.993	0.307	0.134
-297.735	164.166	0.141	-0.196
-296.720	-71.492	0.102	-0.038
-295.705	-52.567	-0.090	-0.041
-294.691	-86.382	-0.039	-0.012
-293.676	-200.000	0.025	0.139
-292.662	-68.398	-0.183	-0.070
-291.647	-14.408	-0.317	-0.202
-290.632	800.000	0.057	-0.219
-289.618	800.000	-0.154	-0.464
-288.603	-136.993	0.114	0.013
-287.589	103.832	-0.088	-0.102
-286.574	9.012	-0.174	0.129
-285.559	-200.000	-0.063	-0.313
-284.545	48.745	-0.243	0.225
-283.530	277.203	0.115	0.201
-282.516	131.331	-0.161	-0.204
-281.501	-154.136	-0.143	0.010
-280.486	-200.000	-0.014	0.075
-279.472	-70.964	-0.210	0.078
-278.457	246.501	-0.072	-0.120
-277.443	-200.000	0.024	-0.195
-276.428	-151.140	0.090	0.007
-275.413	32.557	0.048	-0.041
-274.399	-200.000	-0.003	-0.336
-273.384	-26.883	-0.200	0.115
-272.370	8.960	0.175	0.131
-271.355	732.973	-0.068	-0.180
-270.340	-200.000	0.009	-0.123
-269.326	-88.190	0.181	-0.053
-268.311	-117.830	-0.238	0.042
-267.297	-104.181	-0.205	0.047
-266.282	-200.000	0.037	0.223
-265.267	44.132	0.225	-0.204
-264.253	-115.620	-0.161	-0.030
-263.238	52.952	0.191	0.180
-262.224	-36.453	-0.273	0.145
-261.209	3.831	0.267	-0.192
-260.195	-200.000	0.000	0.052
-259.180	-200.000	-0.024	-0.164
-258.165	-107.673	0.386	-0.083
-257.151	212.210	-0.123	0.191
-256.136	-200.000	-0.015	-0.197
-255.122	-37.919	0.434	-0.227
-254.107	-25.600	-0.174	0.101
-253.092	278.297	-0.106	0.186
-252.078	-94.960	-0.207	0.055
-251.063	285.062	0.141	-0.250
-250.049	131.366	0.191	0.241
-249.034	-85.916	0.053	0.016
-248.019	-96.894	-0.135	0.035
-247.005	93.891	-0.110	-0.122
-245.990	22.061	0.070	-0.056
-244.976	-15.144	0.239	0.151
-243.961	76.039	0.319	-0.333
-242.946	-176.641	0.372	-0.009
-241.932	-200.000	-0.017	0.114
-240.917	122.631	0.089	-0.109
-239.903	175.369	-0.343	0.489
-238.888	800.000	0.061	0.188
-237.873	56.694	0.027	-0.026
-236.859	214.795	0.133	-0.207
-235.844	800.000	-0.147	0.455
-234.830	-200.000	0.015	0.171
-233.815	40.225	0.024	0.021
-232.800	2.043	-0.123	-0.087
-231.786	-12.292	0.106	-0.069
-230.771	800.000	0.164	0.464
-229.757	-115.522	0.259	-0.048
-228.742	-138.616	-0.321	-0.035
-227.727	-121.180	-0.150	-0.025
-226.713	-145.044	-0.209	0.019
-225.698	-78.273	-0.157	0.053
-224.684	396.919	0.036	0.075
-223.669	69.555	0.238	-0.242
-222.655	7.416	0.015	-0.011
-221.640	-87.679	-0.163	-0.048
-220.625	128.104	0.082	-0.102
-219.611	454.844	0.201	-0.438
-218.596	-200.000	0.013	0.158
-217.582	-14.315	0.219	-0.139
-216.567	23.580	0.330	0.267
-215.552	160.613	0.139	0.192
-214.538	-111.604	-0.252	-0.050
-213.523	130.854	0.227	-0.287
-212.509	-118.100	-0.230	-0.040
-211.494	68.701	-0.154	0.156
-210.479	-183.252	-0.118	0.002
-209.465	158.265	0.121	-0.165
-208.450	-37.053	0.406	-0.214
-207.436	226.660	-0.049	0.079
-206.421	800.000	0.085	-0.256
-205.406	-95.568	-0.240	0.063
-204.392	-200.000	-0.012	-0.205
-203.377	26.625	-0.318	0.262
-202.363	224.548	0.161	0.256
-201.348	800.000	0.077	0.272
-200.333	-200.000	0.023	-0.180
-199.319	-28.355	-0.239	0.136
-198.304	800.000	0.171	-0.469
-197.290	-200.000	-0.021	-0.104
-196.275	249.674	0.140	0.233
-195.260	-86.342	0.235	0.071
-194.246	-47.025	-0.183	-0.088
-193.231	800.000	0.137	-0.383
-192.217	-28.351	-0.215	0.122
-191.202	-200.000	0.008	0.083
-190.187	78.017	-0.134	0.141
-189.173	-78.922	0.255	0.085
-188.158	-130.000	-0.264	-0.035
-187.144	12.489	-0.121	0.092
-186.129	-2.990	0.151	-0.104
-185.114	256.686	-0.068	-0.114
-184.100	-133.221	-0.145	-0.018
-183.085	107.572	0.240	0.280
-182.071	270.824	0.086	0.149
-181.056	-200.000	-0.005	-0.252
-180.042	145.930	0.205	0.270
-179.027	154.009	0.100	-0.135
-178.012	73.854	0.053	-0.055
-176.998	800.000	-0.028	0.089
-175.983	268.741	-0.115	-0.199
-174.969	800.000	0.042	-0.130
-173.954	-125.061	-0.265	0.040
-172.939	363.503	0.093	0.185
-171.925	-5.596	0.084	-0.057
-170.910	48.416	0.231	0.213
-169.896	265.503	0.104	0.177
-168.881	85.576	0.171	-0.184
-167.866	800.000	0.101	0.313
-166.852	-105.272	-0.098	0.022
-165.837	-37.341	0.093	-0.049
-164.823	-8.846	0.028	-0.019
-163.808	-61.566	-0.260	0.107
-162.793	-7.621	-0.240	-0.159
-161.779	800.000	-0.079	-0.227
-160.764	-68.892	-0.029	-0.011
-159.750	-200.000	-0.031	0.178
-158.735	97.086	-0.070	-0.078
-157.720	-200.000	-0.025	-0.135
-156.706	-200.000	0.061	-0.384
-155.691	79.158	0.280	0.294
-154.677	-187.764	-0.149	0.002
-153.662	169.968	0.111	-0.156
-152.647	52.888	0.232	0.218
-151.633	591.590	-0.088	0.214
-150.618	43.350	-0.257	0.231
-149.604	-108.667	0.196	0.041
-148.589	-87.885	0.256	0.076
-147.574	-90.237	-0.207	-0.059
-146.560	-200.000	0.040	-0.175
-145.545	-105.156	0.218	-0.049
-144.531	71.268	-0.173	0.177
-143.516	16.959	0.256	0.199
-142.502	-121.176	0.342	0.056
-141.487	-35.948	0.322	0.171
-140.472	-200.000	-0.028	0.224
-139.458	-20.558	-0.075	-0.045
-138.443	-58.621	0.321	0.137
-137.429	-200.000	-0.003	0.088
-136.414	16.951	-0.034	-0.027
-135.399	519.410	0.121	-0.278
-134.385	-57.403	-0.120	0.052
-133.370	-200.000	-0.015	-0.398
-132.356	-34.151	0.181	0.098
-131.341	362.396	0.069	-0.136
-130.326	-98.817	0.122	0.030
-129.312	-151.347	-0.101	0.007
-128.297	42.947	0.263	0.235
-127.283	-77.909	0.170	-0.058
-126.268	-200.000	0.116	-0.513
-125.253	-57.426	-0.260	-0.112
-124.239	-200.000	0.002	0.024
-123.224	401.154	-0.072	0.147
-122.210	800.000	0.067	0.188
-121.195	65.918	0.162	-0.161
-120.180	-200.000	0.028	0.289
-119.166	26.005	-0.435	-0.356
-118.151	-9.003	0.297	0.195
-117.137	800.000	0.053	0.216
-116.122	685.256	-0.153	0.392
-115.107	-200.000	-0.002	0.084
-114.093	-200.000	0.224	-0.001
-113.078	6.320	-0.314	0.228
-112.064	3.271	0.101	-0.072
-111.049	11.048	-0.254	0.190
-110.034	-200.000	-0.038	-0.249
-109.020	595.176	-0.067	-0.163
-108.005	172.901	-0.171	0.241
-106.991	800.000	0.064	0.213
-105.976	137.749	-0.126	-0.161
-104.962	-200.000	0.001	0.379
-103.947	-18.670	0.329	-0.201
-102.932	-200.000	0.012	0.122
-101.918	800.000	-0.065	-0.196
-100.903	-114.375	-0.177	-0.033
-99.889	33.559	0.211	0.180
-98.874	-200.000	-0.045	-0.274
-97.859	-200.000	-0.018	0.134
-96.845	-62.510	0.230	-0.094
-95.830	434.348	-0.062	-0.132
-94.816	800.000	0.043	0.137
-93.801	-54.595	0.255	-0.113
-92.786	176.857	0.240	-0.343
-91.772	-59.651	0.088	0.037
-90.757	3.219	0.076	0.054
-89.743	-200.000	0.016	-0.129
-88.728	-120.972	-0.167	-0.027
-87.713	106.833	-0.256	0.298
-86.699	-90.320	-0.304	0.087
-85.684	-114.254	0.243	0.046
-84.670	-200.000	0.003	-0.027
-83.655	171.200	-0.096	-0.135
-82.640	-135.649	0.404	0.047
-81.626	-200.000	0.009	0.110
-80.611	-200.000	0.073	-0.395
-79.597	8.646	-0.123	0.091
-78.582	-102.397	-0.101	0.024
-77.567	-100.714	0.105	0.025
-76.553	-62.320	0.042	-0.017
-75.538	-92.684	0.103	-0.028
-74.524	-24.016	-0.176	0.103
-73.509	-8.841	-0.208	-0.136
-72.494	312.737	0.112	0.206
-71.480	-2.736	0.372	-0.255
-70.465	55.868	-0.105	0.099
-69.451	273.130	-0.207	-0.358
-68.436	453.019	0.073	0.157
-67.422	169.926	-0.043	-0.059
-66.407	-200.000	0.028	0.327
-65.392	-68.282	-0.105	0.040
-64.378	261.451	0.122	0.207
-63.363	-159.597	0.150	-0.008
-62.349	-200.000	0.002	0.165
-61.334	57.420	-1.022	-0.976
-60.319	-0.096	0.747	0.520
-59.305	-200.000	-0.152	-1.182
-58.290	761.767	0.513	1.362
-57.276	711.110	0.616	1.594
-56.261	-200.000	113.224	649.664
-55.246	540.548	1520.166	3540.748
-54.232	177.738	2696.565	3844.921
-53.217	102.526	2288.121	2617.270
-52.203	36.745	1893.817	1636.523
-51.188	30.621	1683.772	1408.744
-50.173	28.211	1641.023	1355.103
-49.159	49.837	1696.833	1564.447
-48.144	48.663	1710.763	1568.412
-47.130	30.264	1668.323	1392.918
-46.115	27.549	1654.201	1360.829
-45.100	27.415	1649.086	1355.565
-44.086	27.343	1646.904	1353.185
-43.071	27.398	1643.729	1350.931
-42.057	27.276	1641.958	1348.516
-41.042	27.369	1639.554	1347.179
-40.027	27.338	1637.493	1345.198
-39.013	27.388	1635.734	1344.072
-37.998	27.295	1634.203	1342.072
-36.984	27.473	1632.451	1341.897
-35.969	27.394	1631.255	1340.273
-34.954	27.537	1629.612	1339.923
-33.940	27.390	1628.405	1337.801
-32.925	27.436	1626.046	1336.147
-31.911	27.527	1624.072	1335.134
-30.896	27.539	1622.274	1333.690
-29.881	27.500	1620.709	1332.066
-28.867	27.505	1619.103	1330.734
-27.852	27.428	1617.934	1329.153
-26.838	27.504	1615.891	1327.977
-25.823	27.609	1614.570	1327.607
-24.809	27.451	1613.945	1325.890
-23.794	27.506	1612.113	1324.735
-22.779	27.464	1610.920	1323.393
-21.765	27.509	1608.882	1321.996
-20.750	27.461	1607.811	1320.710
-19.736	27.452	1606.232	1319.298
-18.721	27.468	1605.108	1318.441
-17.706	27.484	1603.750	1317.388
-16.692	27.478	1602.358	1316.149
-15.677	27.470	1600.561	1314.564
-14.663	27.561	1599.058	1313.930
-13.648	27.532	1597.681	1312.541
-12.633	27.591	1596.471	1311.920
-11.619	27.526	1594.277	1309.594
-10.604	27.533	1593.162	1308.677
-9.590	27.529	1591.963	1307.613
-8.575	27.494	1590.839	1306.382
-7.560	27.540	1589.622	1305.662
-6.546	27.548	1588.554	1304.794
-5.531	27.590	1587.260	1303.976
-4.517	27.520	1586.378	1302.700
-3.502	27.450	1585.618	1301.525
-2.487	27.580	1583.391	1300.575
-1.473	27.254	1571.803	1288.696
-0.458	24.429	1552.663	1253.143
0.556	22.724	1554.154	1221.998
1.571	20.467	1577.587	1224.424
2.586	20.078	1590.463	1231.546
3.600	18.145	1536.263	1176.190
4.615	11.152	1430.315	1050.047
5.629	5.076	1370.162	968.179
6.644	3.866	1362.437	955.164
7.659	3.986	1360.763	954.648
8.673	4.008	1360.197	954.302
9.688	4.050	1358.437	953.239
10.702	3.881	1355.783	950.257
11.717	6.859	1360.583	971.872
12.731	14.580	1375.415	1030.228
13.746	21.311	1386.118	1079.893
14.761	23.111	1387.870	1092.289
15.775	22.564	1386.195	1087.503
16.790	21.713	1383.774	1080.262
17.804	21.010	1381.891	1074.364
18.819	20.707	1380.461	1071.297
19.834	20.634	1379.963	1070.365
20.848	20.633	1379.043	1069.550
21.863	20.539	1377.905	1067.994
22.877	20.343	1377.049	1066.032
23.892	20.289	1376.290	1065.019
24.907	20.216	1375.027	1063.500
25.921	20.193	1374.193	1062.620
26.936	20.211	1372.994	1061.709
27.950	20.303	1372.540	1061.830
28.965	20.533	1371.093	1062.022
29.980	20.616	1370.437	1061.923
30.994	20.584	1369.646	1061.023
32.009	20.677	1368.545	1060.645
33.023	20.770	1367.041	1059.950
34.038	20.610	1365.938	1058.029
35.053	20.426	1365.011	1056.096
36.067	20.438	1363.764	1055.113
37.082	20.401	1362.700	1053.971
38.096	20.563	1361.961	1054.286
39.111	20.595	1361.207	1053.804
40.126	20.358	1360.586	1051.798
41.140	20.052	1359.240	1048.810
42.155	19.978	1358.290	1047.539
43.169	19.829	1358.613	1046.791
44.184	19.891	1358.154	1046.720
45.199	20.000	1357.527	1046.803
46.213	20.375	1357.180	1048.706
47.228	20.291	1356.801	1047.813
48.242	20.502	1355.444	1047.944
49.257	20.386	1354.357	1046.316
50.271	20.454	1352.404	1045.123
51.286	20.399	1351.243	1043.805
52.301	20.318	1350.225	1042.438
53.315	20.179	1349.028	1040.585
54.330	20.106	1347.613	1038.966
55.344	20.021	1346.701	1037.659
56.359	20.052	1345.339	1036.705
57.374	19.986	1344.835	1035.829
58.388	19.824	1344.100	1034.203
59.403	19.828	1343.473	1033.652
60.417	19.850	1342.374	1032.851
61.432	19.695	1341.787	1031.380
62.447	19.669	1340.519	1030.162
63.461	19.637	1339.369	1028.993
64.476	19.545	1338.740	1027.875
65.490	19.534	1337.699	1026.917
66.505	19.649	1335.950	1026.168
67.520	19.708	1334.889	1025.611
68.534	19.585	1333.895	1024.028
69.549	19.585	1332.889	1023.162
70.563	19.498	1331.440	1021.449
71.578	19.398	1330.439	1019.996
72.593	19.341	1329.094	1018.537
73.607	19.308	1328.489	1017.790
74.622	19.415	1327.877	1017.865
75.636	19.503	1327.152	1017.738
76.651	19.555	1326.925	1017.778
77.666	19.453	1326.479	1016.746
78.680	19.526	1326.071	1016.773
79.695	19.679	1324.773	1016.587
80.709	19.858	1324.798	1017.568
81.724	19.993	1323.868	1017.556
82.739	20.014	1323.454	1017.274
83.753	20.283	1322.578	1018.090
84.768	20.506	1321.605	1018.559
85.782	20.650	1320.548	1018.495
86.797	20.642	1319.293	1017.393
87.812	20.445	1318.386	1015.450
88.826	20.361	1317.100	1013.877
89.841	20.469	1316.258	1013.768
90.855	20.460	1315.637	1013.148
91.870	20.642	1314.382	1013.156
92.884	20.694	1313.847	1012.958
93.899	20.686	1312.880	1012.074
94.914	20.776	1312.138	1011.933
95.928	20.747	1311.894	1011.488
96.943	20.663	1310.922	1010.164
97.957	20.508	1309.714	1008.240
98.972	20.664	1307.785	1007.571
99.987	20.588	1307.748	1007.013
101.001	20.650	1306.510	1006.329
102.016	20.561	1305.601	1005.029
103.030	20.650	1305.127	1005.086
104.045	20.577	1304.001	1003.709
105.060	20.300	1302.358	1000.761
106.074	19.914	1300.927	997.345
107.089	19.735	1299.013	994.763
108.103	19.639	1297.395	992.883
109.118	19.594	1296.578	991.910
110.133	19.670	1295.164	991.181
111.147	19.668	1293.960	990.156
112.162	19.756	1292.953	989.801
113.176	19.808	1291.766	989.104
114.191	19.830	1290.858	988.445
115.206	19.793	1289.997	987.486
116.220	19.877	1288.062	986.401
117.235	19.762	1287.248	985.034
118.249	19.614	1286.347	983.413
119.264	19.601	1285.227	982.396
120.279	19.649	1283.544	981.299
121.293	19.443	1282.923	979.565
122.308	19.360	1281.770	978.129
123.322	19.269	1280.543	976.587
124.337	19.386	1279.409	976.299
125.352	19.234	1278.455	974.628
126.366	19.251	1277.363	973.805
127.381	19.164	1276.868	972.846
128.395	19.214	1275.544	972.037
129.410	19.201	1274.647	971.195
130.424	19.384	1274.301	971.875
131.439	19.588	1273.173	972.077
132.454	19.650	1272.514	971.838
133.468	19.642	1271.679	971.070
134.483	19.774	1270.980	971.191
135.497	19.771	1270.025	970.355
136.512	19.804	1269.063	969.721
137.527	19.880	1267.518	968.882
138.541	19.854	1266.670	968.000
139.556	20.021	1265.225	967.742
140.570	20.056	1264.585	967.366
141.585	20.184	1263.565	967.213
142.600	20.321	1262.359	966.967
143.614	20.478	1262.014	967.491
144.629	20.465	1261.200	966.710
145.643	20.460	1259.878	965.585
146.658	20.342	1258.284	963.624
147.673	20.166	1256.834	961.450
148.687	19.881	1255.458	958.732
149.702	19.784	1253.867	956.897
150.716	19.748	1252.880	955.859
151.731	19.676	1251.744	954.514
152.746	19.788	1250.523	954.112
153.760	19.869	1249.666	953.820
154.775	19.965	1248.623	953.470
155.789	20.010	1248.074	953.213
156.804	20.132	1246.774	952.807
157.819	20.229	1246.097	952.741
158.833	20.295	1245.307	952.410
159.848	20.471	1244.518	952.691
160.862	20.391	1243.628	951.485
161.877	20.054	1242.103	948.392
162.892	19.602	1240.856	944.882
163.906	19.767	1239.508	944.673
164.921	19.719	1238.595	943.635
165.935	19.862	1237.940	943.832
166.950	20.040	1236.973	943.979
167.964	19.997	1236.843	943.563
168.979	19.881	1235.398	941.743
169.994	19.930	1235.099	941.700
171.008	19.870	1234.279	940.668
172.023	20.064	1233.552	941.085
173.037	20.321	1233.159	942.095
174.052	20.246	1232.042	940.750
175.067	19.955	1230.701	938.069
176.081	19.586	1230.058	935.498
177.096	19.668	1228.921	934.991
178.110	19.696	1228.072	934.414
179.125	19.919	1226.227	934.131
180.140	19.986	1225.634	933.960
181.154	20.117	1224.735	933.900
182.169	20.338	1223.411	933.995
183.183	20.398	1222.906	933.851
184.198	20.281	1222.111	932.531
185.213	20.401	1220.757	932.059
186.227	20.358	1219.925	931.112
187.242	20.583	1218.910	931.457
188.256	20.546	1217.936	930.435
189.271	20.609	1217.147	930.084
190.286	20.410	1215.624	927.775
191.300	19.868	1214.296	923.790
192.315	19.810	1213.556	922.832
193.329	19.780	1213.252	922.364
194.344	19.919	1212.472	922.428
195.359	19.965	1212.031	922.256
196.373	19.993	1211.410	921.852
197.388	20.153	1211.307	922.541
198.402	20.480	1211.341	924.227
199.417	20.536	1211.070	924.238
200.432	20.748	1210.609	924.930
201.446	20.823	1209.866	924.677
202.461	20.936	1208.723	924.322
203.475	20.827	1207.605	922.807
204.490	20.654	1205.861	920.476
205.504	20.402	1204.163	917.769
206.519	20.307	1203.433	916.629
207.534	20.355	1202.175	915.844
208.548	20.229	1201.644	914.692
209.563	20.345	1200.550	914.392
210.577	20.308	1200.238	913.874
211.592	20.521	1199.078	914.033
212.607	20.697	1198.872	914.721
213.621	20.617	1198.016	913.567
214.636	20.613	1196.865	912.584
215.650	20.615	1195.723	911.645
216.665	20.750	1195.320	911.964
217.680	20.899	1194.802	912.266
218.694	20.929	1193.783	911.565
219.709	20.784	1193.093	910.201
220.723	20.838	1192.022	909.586
221.738	20.853	1191.329	909.054
222.753	20.698	1190.832	907.786
223.767	20.866	1189.925	907.891
224.782	20.991	1189.051	907.794
225.796	21.047	1189.109	908.051
226.811	21.008	1188.224	907.091
227.826	20.727	1187.536	905.025
228.840	20.741	1186.203	904.003
229.855	20.735	1185.180	903.112
230.869	20.730	1184.747	902.673
231.884	20.586	1183.743	901.084
232.899	20.427	1182.708	899.393
233.913	20.347	1181.934	898.313
234.928	20.185	1181.726	897.233
235.942	20.329	1180.552	897.007
236.957	20.183	1179.914	895.688
237.972	20.323	1178.924	895.580
238.986	20.234	1178.965	895.076
240.001	20.300	1178.216	894.770
241.015	20.239	1177.261	893.646
242.030	20.495	1176.523	894.329
243.045	20.605	1175.657	894.154
244.059	20.589	1175.116	893.582
245.074	20.660	1174.188	893.160
246.088	20.811	1173.808	893.567
247.103	20.885	1173.170	893.383
248.117	21.107	1172.242	893.736
249.132	21.355	1171.657	894.479
250.147	21.576	1171.452	895.373
251.161	21.780	1170.644	895.721
252.176	21.819	1170.345	895.610
253.190	21.884	1169.870	895.502
254.205	21.894	1169.278	895.017
255.220	21.852	1169.095	894.586
256.234	21.790	1168.014	893.363
257.249	21.858	1167.374	893.139
258.263	21.713	1166.786	891.873
259.278	21.676	1165.891	890.924
260.293	21.796	1165.364	891.051
261.307	21.928	1164.907	891.293
262.322	21.983	1164.144	890.910
263.336	21.976	1163.712	890.462
264.351	21.900	1162.993	889.451
265.366	22.032	1162.387	889.577
266.380	21.944	1161.675	888.507
267.395	21.868	1160.562	887.192
268.409	21.588	1159.964	885.244
269.424	21.677	1159.060	884.921
270.439	21.632	1158.573	884.244
271.453	21.535	1157.705	883.014
272.468	21.328	1156.547	881.011
273.482	21.346	1156.016	880.620
274.497	21.401	1155.324	880.289
275.512	21.368	1154.501	879.421
276.526	21.422	1153.931	879.182
277.541	21.497	1152.979	878.753
278.555	21.579	1152.542	878.752
279.570	21.779	1151.883	879.175
280.585	21.841	1151.860	879.394
281.599	21.858	1150.577	878.421
282.614	21.528	1149.574	875.928
283.628	21.557	1148.068	874.845
284.643	21.510	1146.984	873.706
285.657	21.584	1146.289	873.470
286.672	21.566	1145.554	872.742
287.687	21.542	1145.004	872.127
288.701	21.610	1143.943	871.581
289.716	21.647	1142.876	870.876
290.730	21.600	1142.091	869.966
291.745	21.574	1141.816	869.549
292.760	21.631	1141.343	869.395
293.774	21.791	1141.006	869.858
294.789	21.953	1140.427	870.139
295.803	21.939	1139.417	869.225
296.818	21.722	1138.429	867.321
297.833	21.637	1137.582	866.177
298.847	21.537	1137.372	865.443
299.862	21.639	1136.584	865.273
300.876	21.627	1136.009	864.698
301.891	21.851	1134.867	864.860
302.906	21.927	1134.442	864.832
303.920	22.113	1134.524	865.735
304.935	22.228	1133.929	865.773
305.949	22.331	1133.249	865.681
306.964	22.335	1132.712	865.218
307.979	22.136	1131.549	863.273
308.993	22.188	1130.424	862.595
310.008	22.132	1130.037	861.945
311.022	22.204	1129.520	861.829
312.037	22.240	1128.519	861.164
313.052	21.897	1127.401	858.560
314.066	21.855	1125.971	857.188
315.081	21.625	1125.205	855.406
316.095	21.486	1124.199	853.887
317.110	21.565	1123.577	853.726
318.125	21.642	1122.665	853.330
319.139	21.469	1122.318	852.151
320.154	21.537	1121.876	852.071
321.168	21.478	1121.186	851.183
322.183	21.572	1120.825	851.289
323.197	21.681	1120.569	851.551
324.212	21.703	1119.299	850.617
325.227	21.638	1119.912	850.691
326.241	21.726	1118.478	849.955
327.256	21.772	1117.520	849.372
328.270	21.627	1116.476	847.804
329.285	21.561	1115.450	846.628
330.300	21.670	1114.588	846.427
331.314	21.634	1113.853	845.622
332.329	21.735	1112.959	845.352
333.343	21.809	1112.248	845.096
334.358	21.854	1111.694	844.817
335.373	22.099	1110.936	845.344
336.387	22.023	1110.123	844.288
337.402	22.098	1109.528	844.121
338.416	22.165	1109.277	844.178
339.431	22.254	1108.855	844.205
340.446	22.301	1108.890	844.383
341.460	22.487	1108.018	844.538
342.475	22.630	1107.134	844.473
343.489	22.756	1105.935	844.089
344.504	22.731	1105.444	843.521
345.519	22.788	1104.460	842.967
346.533	23.016	1103.737	843.427
347.548	23.016	1103.204	842.945
348.562	22.829	1101.829	840.932
349.577	22.506	1100.999	838.683
350.592	22.297	1100.252	837.046
351.606	22.072	1099.410	835.261
352.621	22.115	1098.250	834.510
353.635	22.000	1097.478	833.307
354.650	21.917	1097.470	832.830
355.665	22.147	1096.538	833.141
356.679	22.240	1095.828	832.967
357.694	22.283	1095.462	832.817
358.708	22.403	1094.904	832.888
359.723	22.432	1094.074	832.323
360.738	22.423	1093.690	831.913
361.752	22.367	1093.453	831.397
362.767	22.424	1092.270	830.691
363.781	22.501	1091.948	830.737
364.796	22.756	1091.555	831.567
365.810	22.688	1091.713	831.291
366.825	22.968	1090.530	831.636
367.840	23.233	1089.743	832.205
368.854	23.284	1089.573	832.242
369.869	23.113	1089.167	831.055
370.883	23.028	1088.222	829.861
371.898	22.726	1087.191	827.585
372.913	22.797	1086.608	827.405
373.927	22.832	1086.178	827.164
374.942	22.933	1085.986	827.421
375.956	22.956	1085.364	826.978
376.971	22.944	1084.500	826.194
377.986	22.983	1084.063	825.968
379.000	23.250	1083.403	826.639
380.015	23.318	1082.999	826.573
381.029	23.383	1082.416	826.360
382.044	23.263	1081.587	825.095
383.059	23.206	1081.155	824.428
384.073	23.205	1079.726	823.260
385.088	23.342	1079.185	823.413
386.102	23.213	1077.997	821.831
387.117	23.091	1076.707	820.209
388.132	22.687	1076.130	817.829
389.146	22.799	1074.866	817.311
390.161	22.635	1074.479	816.184
391.175	22.742	1073.669	815.994
392.190	22.707	1073.373	815.535
393.205	23.015	1072.873	816.507
394.219	23.040	1071.994	815.879
395.234	22.919	1070.789	814.334
396.248	22.816	1069.728	812.978
397.263	22.779	1068.556	811.849
398.278	22.561	1068.218	810.518
399.292	22.491	1066.991	809.190
400.307	22.368	1066.458	808.149
401.321	22.525	1065.757	808.267
402.336	22.487	1065.050	807.486
403.350	22.473	1064.182	806.692
404.365	22.580	1063.699	806.746
405.380	22.757	1063.226	807.123
406.394	22.891	1062.410	807.048
407.409	23.126	1061.941	807.691
408.423	23.362	1061.246	808.168
409.438	23.382	1060.917	807.936
410.453	23.359	1060.337	807.319
411.467	23.516	1059.435	807.277
412.482	23.564	1059.312	807.331
413.496	23.759	1058.157	807.262
414.511	23.588	1058.386	806.591
415.526	23.652	1058.224	806.683
416.540	23.834	1057.491	806.883
417.555	23.671	1057.116	805.785
418.569	23.653	1056.005	804.787
419.584	23.477	1055.965	803.884
420.599	23.383	1055.385	802.948
421.613	157.484	1404.063	1798.605
422.628	144.654	1454.836	1798.695
