DTS Sentinel unit serial number:	SN413079Multiplexer serial number:	ORYXHardware model number:	OX4-SRSoftware version number:	ORYX F/W v4.00 Oryx Data Collector v3.7.2.0data status	okinstallation	princeton_trtdifferential loss correction	single-endedforward channel	channel 2reverse channel	N/Adate	2019/09/11time	06:13:11forward acquisition time	60.00reverse acquisition time	0.00gamma	496.2192k internal	0.2329k external	0.2329temperature offset calibration	0.9935default loss term (dB/km)	0.3790temperature slope calibration	1.0000multiplexer offset coefficient	1.0000multiplexer slope coefficient	1.0000fibre end	0.00T internal ref (°C)	29.50T ext. ref 1 (°C)	-0.20T ext. ref 2 (°C)	23.75length (m)	temperature (°C)	Stokes	anti-Stokes-747.200	-25.950	0.215	0.128
-746.185	-200.000	0.008	-0.154
-745.171	78.467	0.116	0.124
-744.156	-63.941	-0.120	-0.049
-743.142	-127.051	0.255	-0.038
-742.127	-11.789	-0.166	0.110
-741.112	51.526	0.244	-0.233
-740.098	180.109	-0.110	0.163
-739.083	44.621	0.147	-0.136
-738.069	-200.000	0.019	-0.180
-737.054	174.319	0.146	-0.212
-736.039	258.562	-0.176	0.306
-735.025	-54.229	-0.247	0.113
-734.010	-45.639	-0.206	0.103
-732.996	-107.472	-0.349	-0.077
-731.981	-153.150	-0.229	0.016
-730.966	-145.360	0.029	-0.003
-729.952	783.647	-0.019	-0.054
-728.937	800.000	-0.025	0.102
-727.923	-137.587	0.246	-0.028
-726.908	-7.923	-0.158	-0.107
-725.894	-200.000	-0.067	-0.392
-724.879	-200.000	-0.024	-0.220
-723.864	-185.398	-0.203	-0.003
-722.850	62.222	-0.129	-0.130
-721.835	456.770	-0.061	0.136
-720.821	9.217	0.261	0.198
-719.806	242.088	-0.036	0.061
-718.791	-131.714	-0.088	-0.012
-717.777	-36.046	-0.107	-0.058
-716.762	-200.000	0.040	-0.466
-715.748	-148.185	0.260	0.022
-714.733	-107.963	0.337	0.074
-713.718	800.000	0.018	0.056
-712.704	-200.000	0.003	-0.218
-711.689	8.087	0.018	0.013
-710.675	-137.426	-0.407	-0.046
-709.660	165.176	-0.274	0.390
-708.645	-200.000	0.052	0.000
-707.631	42.676	-0.153	-0.140
-706.616	287.116	0.088	-0.159
-705.602	58.115	-0.222	0.219
-704.587	361.180	-0.132	0.266
-703.572	419.411	0.109	-0.235
-702.558	-42.888	-0.202	0.103
-701.543	10.992	0.015	0.011
-700.529	-77.616	-0.085	0.029
-699.514	509.528	-0.083	0.194
-698.499	800.000	0.012	0.045
-697.485	23.939	-0.163	0.135
-696.470	12.685	-0.141	0.110
-695.456	23.609	0.214	0.177
-694.441	-138.916	0.297	-0.032
-693.426	322.365	0.096	0.183
-692.412	110.235	0.227	-0.274
-691.397	-148.286	0.299	0.025
-690.383	-114.689	0.141	0.027
-689.368	-94.495	-0.074	-0.020
-688.354	800.000	0.040	-0.155
-687.339	0.531	-0.160	-0.115
-686.324	50.381	-0.238	-0.226
-685.310	-200.000	0.035	-0.219
-684.295	-73.770	-0.316	-0.116
-683.281	58.021	0.129	-0.127
-682.266	60.662	0.089	-0.088
-681.251	800.000	-0.022	-0.073
-680.237	-82.483	0.113	-0.037
-679.222	-200.000	0.068	0.416
-678.208	-55.045	-0.093	-0.042
-677.193	-97.909	-0.375	-0.097
-676.178	-89.524	0.109	-0.032
-675.164	-24.963	0.215	0.128
-674.149	-71.728	-0.340	0.127
-673.135	218.238	0.147	-0.235
-672.120	-200.000	-0.049	-0.229
-671.105	800.000	0.069	0.199
-670.091	-128.319	0.117	0.017
-669.076	-200.000	0.005	-0.258
-668.062	-20.869	0.255	-0.157
-667.047	19.809	-0.067	0.054
-666.032	1.831	-0.267	-0.193
-665.018	130.156	0.296	-0.380
-664.003	121.692	-0.180	-0.226
-662.989	-75.087	-0.356	-0.128
-661.974	95.816	-0.047	-0.054
-660.959	-200.000	0.025	0.175
-659.945	101.499	0.299	0.350
-658.930	800.000	-0.004	0.016
-657.916	-34.522	-0.341	0.188
-656.901	-77.579	0.199	-0.069
-655.886	186.406	-0.141	-0.211
-654.872	-170.977	-0.235	-0.008
-653.857	112.383	-0.141	0.171
-652.843	800.000	-0.077	0.221
-651.828	-130.001	0.084	0.011
-650.814	-109.900	0.169	-0.036
-649.799	-153.139	-0.216	-0.015
-648.784	381.875	-0.015	-0.031
-647.770	-57.110	-0.258	0.114
-646.755	-200.000	-0.009	-0.061
-645.741	-78.646	-0.076	-0.026
-644.726	13.443	-0.195	0.152
-643.711	-200.000	0.050	-0.238
-642.697	-200.000	0.017	0.075
-641.682	106.163	-0.162	-0.193
-640.668	771.516	0.037	-0.101
-639.653	-200.000	-0.029	0.132
-638.638	-13.882	0.259	0.168
-637.624	-73.416	0.196	0.072
-636.609	27.571	0.332	-0.280
-635.595	-84.058	0.090	0.029
-634.580	-200.000	-0.054	-0.267
-633.565	-139.392	0.263	-0.028
-632.551	172.904	0.162	-0.234
-631.536	800.000	-0.107	0.334
-630.522	196.569	-0.068	-0.104
-629.507	302.845	0.191	-0.354
-628.492	-89.196	0.304	-0.090
-627.478	232.797	-0.124	0.205
-626.463	-59.662	-0.414	-0.178
-625.449	338.447	-0.114	-0.223
-624.434	800.000	0.103	0.350
-623.419	179.436	-0.261	0.383
-622.405	-200.000	0.059	0.285
-621.390	-69.387	0.258	0.099
-620.376	800.000	0.028	-0.118
-619.361	-37.795	0.432	-0.230
-618.346	-131.409	0.138	-0.018
-617.332	800.000	-0.071	-0.257
-616.317	-93.760	-0.050	0.014
-615.303	-129.869	0.233	-0.032
-614.288	11.069	0.116	0.089
-613.273	235.907	0.190	-0.314
-612.259	-200.000	-0.054	-0.344
-611.244	-95.056	-0.130	-0.035
-610.230	12.274	0.251	-0.194
-609.215	80.835	-0.310	0.335
-608.201	-62.161	0.213	-0.089
-607.186	-53.882	0.231	-0.106
-606.171	800.000	0.052	-0.172
-605.157	800.000	0.119	0.346
-604.142	-14.590	-0.237	-0.153
-603.128	421.037	-0.041	0.088
-602.113	800.000	0.044	-0.136
-601.098	-28.486	-0.192	0.111
-600.084	405.029	0.149	-0.315
-599.069	-200.000	0.080	-0.371
-598.055	632.820	-0.100	-0.254
-597.040	15.230	-0.125	0.098
-596.025	631.427	-0.066	0.167
-595.011	800.000	-0.085	0.284
-593.996	-39.982	0.372	-0.194
-592.982	-12.000	0.154	0.101
-591.967	44.372	-0.191	-0.175
-590.952	246.805	-0.077	0.129
-589.938	-113.642	-0.173	-0.034
-588.923	42.167	0.305	0.277
-587.909	158.955	0.302	-0.420
-586.894	-200.000	-0.006	0.092
-585.879	800.000	0.082	0.241
-584.865	-2.682	0.258	0.180
-583.850	313.743	0.084	0.158
-582.836	240.376	0.076	-0.127
-581.821	-137.521	-0.070	-0.008
-580.806	-111.321	0.210	-0.043
-579.792	-200.000	0.024	-0.290
-578.777	11.916	-0.286	0.220
-577.763	-25.886	0.342	-0.202
-576.748	233.372	0.085	0.139
-575.733	-38.106	-0.262	-0.139
-574.719	-4.027	-0.166	0.115
-573.704	125.457	-0.116	0.146
-572.690	231.027	-0.149	0.243
-571.675	162.924	0.042	0.060
-570.661	-119.364	0.239	0.042
-569.646	-96.227	0.215	0.057
-568.631	800.000	-0.084	-0.283
-567.617	183.943	0.039	0.058
-566.602	286.183	-0.107	-0.192
-565.588	-122.852	-0.199	0.032
-564.573	-41.230	0.211	-0.109
-563.558	-147.101	0.118	0.010
-562.544	63.325	-0.196	-0.196
-561.529	361.726	-0.088	-0.177
-560.515	-2.683	0.156	0.109
-559.500	-200.000	-0.004	0.031
-558.485	160.721	0.099	-0.138
-557.471	-200.000	0.018	0.134
-556.456	-200.000	-0.076	-0.367
-555.442	25.365	0.280	-0.233
-554.427	200.842	0.143	0.219
-553.412	117.519	-0.285	0.351
-552.398	76.105	0.160	0.169
-551.383	-200.000	0.040	-0.221
-550.369	201.141	-0.051	-0.078
-549.354	406.246	0.124	-0.262
-548.339	255.698	0.167	-0.286
-547.325	-84.673	-0.534	0.168
-546.310	-68.133	-0.097	-0.038
-545.296	-157.072	0.187	0.011
-544.281	800.000	0.072	-0.223
-543.266	-98.868	0.144	0.037
-542.252	-164.503	0.204	-0.009
-541.237	-167.461	0.145	-0.006
-540.223	-136.306	0.127	-0.015
-539.208	-11.575	-0.108	-0.071
-538.193	-101.900	0.052	-0.013
-537.179	-198.497	0.284	0.002
-536.164	-52.931	-0.029	0.014
-535.150	-95.598	0.284	0.076
-534.135	-73.479	-0.162	-0.059
-533.121	-200.000	-0.044	-0.236
-532.106	-55.291	-0.165	0.074
-531.091	128.895	-0.011	0.014
-530.077	16.638	0.179	0.141
-529.062	-193.298	-0.202	0.002
-528.048	258.156	0.092	0.158
-527.033	357.028	-0.116	0.231
-526.018	-200.000	-0.010	-0.142
-525.004	-8.157	0.150	-0.101
-523.989	11.010	0.066	0.050
-522.975	-17.659	0.209	-0.131
-521.960	-200.000	-0.054	0.299
-520.945	186.857	-0.135	-0.201
-519.931	-173.364	0.252	0.008
-518.916	219.445	0.085	0.136
-517.902	170.002	-0.071	-0.102
-516.887	36.011	-0.154	0.135
-515.872	26.180	-0.160	0.133
-514.858	-183.227	-0.297	-0.005
-513.843	-131.620	-0.521	-0.068
-512.829	214.541	0.171	0.270
-511.814	800.000	-0.043	-0.151
-510.799	-59.560	-0.168	0.072
-509.785	-200.000	-0.017	-0.081
-508.770	231.143	-0.059	-0.097
-507.756	-200.000	0.013	0.210
-506.741	-176.000	0.117	0.003
-505.726	-75.402	0.221	-0.079
-504.712	20.836	-0.182	0.147
-503.697	204.954	-0.082	-0.126
-502.683	-200.000	0.053	-0.352
-501.668	-200.000	-0.011	0.225
-500.653	-200.000	0.027	0.160
-499.639	-50.072	-0.301	0.142
-498.624	94.193	0.158	0.179
-497.610	-200.000	0.032	-0.159
-496.595	304.127	0.055	0.101
-495.581	58.366	-0.126	0.123
-494.566	41.822	-0.164	-0.148
-493.551	-162.430	0.152	-0.007
-492.537	-11.442	-0.172	-0.113
-491.522	-200.000	-0.012	0.150
-490.508	-200.000	-0.091	0.562
-489.493	41.693	0.232	-0.209
-488.478	-89.131	0.128	0.038
-487.464	-200.000	0.038	-0.325
-486.449	-200.000	-0.025	0.160
-485.435	216.836	0.189	0.300
-484.420	348.865	-0.100	0.196
-483.405	26.490	0.201	-0.167
-482.391	13.615	-0.160	0.124
-481.376	-14.256	0.112	0.072
-480.362	-132.029	-0.190	-0.025
-479.347	-200.000	-0.003	0.149
-478.332	282.759	-0.208	-0.372
-477.318	-89.939	0.155	0.045
-476.303	-60.001	0.207	-0.088
-475.289	-2.850	-0.063	-0.044
-474.274	512.960	0.053	-0.124
-473.259	-133.619	-0.165	0.021
-472.245	-24.133	-0.096	-0.057
-471.230	-28.599	-0.047	0.027
-470.216	800.000	0.105	0.384
-469.201	23.679	0.259	0.213
-468.186	-45.320	-0.123	0.061
-467.172	192.327	0.038	-0.057
-466.157	436.727	0.153	-0.333
-465.143	-149.554	0.221	0.017
-464.128	-188.532	0.121	-0.001
-463.113	282.400	0.086	-0.154
-462.099	-200.000	-0.003	-0.253
-461.084	132.206	-0.264	0.338
-460.070	-163.296	-0.146	0.007
-459.055	69.997	-0.158	-0.163
-458.040	-59.242	-0.288	0.124
-457.026	-200.000	-0.001	-0.234
-456.011	-200.000	0.019	0.166
-454.997	242.938	0.092	-0.154
-453.982	-200.000	-0.006	-0.142
-452.968	-200.000	0.012	-0.138
-451.953	800.000	0.079	0.308
-450.938	-43.262	0.209	-0.105
-449.924	-8.267	-0.026	0.017
-448.909	800.000	0.057	-0.218
-447.895	-200.000	-0.039	0.000
-446.880	800.000	0.047	-0.171
-445.865	-151.562	0.282	0.021
-444.851	42.948	-0.054	0.049
-443.836	17.467	-0.303	-0.240
-442.822	11.753	-0.068	0.052
-441.807	-200.000	0.074	-0.373
-440.792	167.976	-0.091	-0.130
-439.778	800.000	0.079	0.291
-438.763	-73.827	0.101	0.037
-437.749	800.000	-0.100	0.276
-436.734	-46.329	0.144	-0.070
-435.719	89.238	0.208	0.231
-434.705	534.990	-0.143	0.338
-433.690	-83.869	0.267	-0.085
-432.676	65.811	-0.081	-0.081
-431.661	-200.000	-0.007	0.128
-430.646	38.774	0.205	0.182
-429.632	800.000	0.062	0.169
-428.617	522.999	-0.054	-0.127
-427.603	800.000	0.021	-0.069
-426.588	76.712	0.108	0.114
-425.573	-123.306	-0.301	-0.048
-424.559	-51.584	0.122	-0.057
-423.544	-76.563	-0.098	-0.034
-422.530	-200.000	-0.011	0.159
-421.515	-150.082	-0.266	0.021
-420.500	-84.760	-0.297	-0.093
-419.486	62.854	-0.092	0.091
-418.471	-200.000	0.050	-0.441
-417.457	116.837	-0.155	0.189
-416.442	-69.645	0.177	0.067
-415.428	-200.000	0.003	0.253
-414.413	86.176	-0.149	-0.164
-413.398	-46.678	0.234	-0.114
-412.384	-125.048	0.066	-0.010
-411.369	-179.870	-0.495	-0.011
-410.355	-86.082	-0.288	0.088
-409.340	432.643	0.069	0.149
-408.325	-19.038	-0.082	-0.051
-407.311	800.000	0.031	0.116
-406.296	750.312	0.093	-0.249
-405.282	130.791	0.084	0.106
-404.267	-200.000	0.003	0.117
-403.252	-39.346	0.030	0.016
-402.238	-200.000	0.021	-0.123
-401.223	-2.002	0.141	0.098
-400.209	233.955	-0.154	-0.253
-399.194	82.482	0.264	-0.284
-398.179	191.092	-0.191	-0.286
-397.165	-41.542	-0.360	-0.184
-396.150	-32.522	0.120	-0.067
-395.136	193.843	0.027	0.040
-394.121	-150.462	-0.256	-0.020
-393.106	348.561	-0.158	0.309
-392.092	628.389	0.074	0.186
-391.077	24.628	0.218	0.179
-390.063	-144.786	-0.061	0.006
-389.048	118.150	-0.083	0.102
-388.033	800.000	0.091	-0.272
-387.019	800.000	0.070	-0.255
-386.004	-200.000	-0.010	-0.443
-384.990	-14.838	0.214	-0.136
-383.975	-200.000	-0.025	0.123
-382.960	-76.887	0.319	0.111
-381.946	148.702	-0.142	0.190
-380.931	-80.310	-0.150	0.050
-379.917	-115.577	0.318	-0.059
-378.902	-98.464	-0.060	-0.015
-377.888	800.000	-0.008	0.035
-376.873	-23.669	0.155	0.092
-375.858	164.214	0.088	0.123
-374.844	-144.950	0.412	0.037
-373.829	-34.896	0.129	0.070
-372.815	-35.283	0.205	0.111
-371.800	-105.103	-0.326	0.074
-370.785	64.366	0.130	0.130
-369.771	-153.157	-0.167	-0.012
-368.756	800.000	-0.069	-0.197
-367.742	91.893	0.060	0.067
-366.727	106.772	0.373	0.440
-365.712	-102.572	0.214	0.051
-364.698	-78.532	0.288	0.098
-363.683	-26.720	-0.163	0.095
-362.669	-200.000	0.003	0.130
-361.654	-200.000	-0.002	0.021
-360.639	-35.086	-0.188	-0.102
-359.625	-200.000	-0.045	-0.460
-358.610	-58.518	0.076	-0.033
-357.596	224.230	0.059	-0.094
-356.581	-40.531	0.252	0.130
-355.566	800.000	0.065	0.207
-354.552	183.062	0.067	-0.099
-353.537	64.987	-0.209	0.209
-352.523	-200.000	0.013	-0.307
-351.508	168.024	0.083	0.117
-350.493	-168.486	-0.387	0.015
-349.479	342.085	-0.077	0.150
-348.464	-200.000	-0.019	0.290
-347.450	105.002	-0.155	-0.181
-346.435	-200.000	0.211	-0.000
-345.420	15.906	-0.098	0.077
-344.406	-200.000	-0.003	-0.240
-343.391	-200.000	-0.026	0.147
-342.377	-76.373	-0.306	0.107
-341.362	-200.000	-0.100	-0.500
-340.348	-200.000	0.010	0.217
-339.333	-12.859	0.014	0.009
-338.318	-200.000	0.016	-0.430
-337.304	125.852	0.134	-0.167
-336.289	-118.646	-0.180	0.031
-335.275	159.911	0.062	-0.086
-334.260	800.000	0.025	0.091
-333.245	39.424	-0.154	0.137
-332.231	26.995	-0.027	0.023
-331.216	-196.552	0.234	-0.002
-330.202	-178.624	0.163	-0.004
-329.187	-18.087	-0.072	-0.045
-328.172	174.549	0.209	0.300
-327.158	-200.000	-0.062	0.277
-326.143	-75.429	-0.187	-0.066
-325.129	80.791	-0.205	0.219
-324.114	-74.027	0.175	0.063
-323.099	328.935	0.060	-0.114
-322.085	-25.083	-0.171	-0.100
-321.070	-128.024	-0.357	0.051
-320.056	800.000	-0.047	-0.139
-319.041	612.459	-0.043	0.107
-318.026	800.000	0.057	0.165
-317.012	-63.740	-0.055	-0.022
-315.997	79.511	-0.132	0.141
-314.983	140.181	0.115	-0.151
-313.968	-4.079	-0.358	-0.246
-312.953	-200.000	-0.006	0.280
-311.939	-71.021	-0.298	0.111
-310.924	137.036	0.100	0.129
-309.910	-130.190	-0.428	-0.058
-308.895	-200.000	-0.027	0.200
-307.880	-101.074	-0.249	-0.061
-306.866	137.926	0.057	0.073
-305.851	-101.822	-0.187	-0.045
-304.837	-77.817	0.030	0.010
-303.822	-60.700	0.222	-0.093
-302.807	10.636	0.342	-0.258
-301.793	-200.000	-0.058	-0.275
-300.778	-102.275	-0.305	0.072
-299.764	711.111	-0.029	0.077
-298.749	543.666	0.064	0.151
-297.735	365.326	0.029	0.058
-296.720	62.854	0.070	-0.069
-295.705	800.000	-0.067	-0.212
-294.691	158.007	-0.078	-0.108
-293.676	530.193	0.044	0.103
-292.662	-86.304	-0.251	-0.077
-291.647	29.004	-0.204	-0.171
-290.632	-36.455	0.133	0.071
-289.618	121.805	0.157	0.194
-288.603	-200.000	0.014	-0.144
-287.589	24.889	-0.110	0.090
-286.574	800.000	0.078	-0.251
-285.559	-84.130	0.374	-0.117
-284.545	282.366	0.051	-0.091
-283.530	-54.359	-0.133	-0.059
-282.516	-200.000	0.029	0.275
-281.501	-46.513	-0.221	-0.107
-280.486	800.000	0.052	-0.153
-279.472	-200.000	0.006	-0.280
-278.457	223.431	-0.254	-0.406
-277.443	-200.000	0.065	0.330
-276.428	-200.000	-0.041	0.373
-275.413	723.006	-0.147	0.386
-274.399	205.479	0.184	0.283
-273.384	800.000	0.069	-0.229
-272.370	-150.073	-0.206	-0.016
-271.355	-8.717	0.187	0.124
-270.340	-200.000	-0.008	-0.174
-269.326	-90.180	-0.173	-0.050
-268.311	-200.000	-0.079	0.344
-267.297	-200.000	-0.002	0.087
-266.282	-131.358	-0.202	0.026
-265.267	-165.422	-0.295	-0.013
-264.253	-126.741	0.118	0.017
-263.238	181.739	-0.085	-0.123
-262.224	800.000	-0.136	-0.425
-261.209	225.756	-0.119	0.190
-260.195	800.000	-0.056	-0.165
-259.180	63.375	-0.201	0.200
-258.165	-69.461	0.337	0.128
-257.151	800.000	-0.029	-0.115
-256.136	-13.024	-0.100	0.064
-255.122	-200.000	-0.005	0.253
-254.107	-200.000	0.010	0.109
-253.092	-72.572	0.322	0.117
-252.078	104.981	-0.118	-0.138
-251.063	-87.711	-0.186	-0.055
-250.049	-62.336	0.115	-0.047
-249.034	800.000	-0.056	-0.236
-248.019	-200.000	-0.062	-0.286
-247.005	358.679	-0.088	-0.174
-245.990	-118.189	-0.293	0.052
-244.976	47.751	0.180	-0.166
-243.961	320.934	-0.185	-0.347
-242.946	12.323	-0.077	-0.058
-241.932	47.573	-0.061	-0.056
-240.917	178.498	-0.178	-0.257
-239.903	73.965	-0.234	-0.242
-238.888	800.000	0.037	-0.147
-237.873	-200.000	-0.038	-0.170
-236.859	14.301	-0.070	-0.054
-235.844	-79.820	-0.111	0.037
-234.830	44.234	0.028	-0.026
-233.815	-200.000	-0.016	-0.190
-232.800	-69.082	0.319	-0.121
-231.786	-19.550	0.084	0.051
-230.771	456.101	0.103	-0.225
-229.757	43.978	0.069	0.063
-228.742	-178.131	0.058	-0.001
-227.727	508.448	0.212	0.486
-226.713	-106.015	-0.134	-0.030
-225.698	631.720	-0.045	0.113
-224.684	793.313	0.022	-0.060
-223.669	-85.031	0.264	0.082
-222.655	17.532	-0.109	-0.085
-221.640	800.000	0.078	-0.306
-220.625	-200.000	-0.033	0.167
-219.611	-143.256	-0.403	-0.038
-218.596	-30.872	-0.098	-0.055
-217.582	-60.148	-0.243	0.102
-216.567	-200.000	0.013	0.116
-215.552	83.162	0.077	-0.083
-214.538	-24.248	0.126	0.074
-213.523	-200.000	-0.007	0.091
-212.509	-200.000	-0.042	-0.192
-211.494	97.394	-0.398	0.451
-210.479	-200.000	0.019	-0.113
-209.465	73.515	-0.188	0.194
-208.450	-40.716	0.139	0.071
-207.436	199.896	0.144	-0.217
-206.421	71.539	-0.214	0.219
-205.406	-107.374	-0.041	-0.009
-204.392	-195.658	0.247	0.002
-203.377	-183.598	0.635	-0.011
-202.363	-175.436	-0.193	-0.005
-201.348	304.746	0.165	0.303
-200.333	33.835	0.252	0.216
-199.319	800.000	-0.052	-0.194
-198.304	-80.422	0.346	-0.114
-197.290	-38.838	-0.128	0.067
-196.275	582.192	0.087	-0.211
-195.260	337.903	0.108	0.206
-194.246	-154.163	-0.104	0.007
-193.231	12.780	0.211	-0.161
-192.217	575.704	-0.109	0.263
-191.202	219.809	-0.075	0.118
-190.187	445.943	0.131	0.284
-189.173	133.068	-0.200	-0.254
-188.158	-180.627	0.351	0.007
-187.144	-29.312	-0.321	0.181
-186.129	62.100	-0.026	0.026
-185.114	-57.839	-0.225	0.097
-184.100	-200.000	0.043	0.260
-183.085	416.549	-0.049	-0.103
-182.071	697.203	-0.087	-0.226
-181.056	703.746	0.105	0.273
-180.042	-200.000	0.017	0.305
-179.027	-200.000	-0.007	0.166
-178.012	-105.525	-0.143	-0.032
-176.998	117.072	0.092	0.111
-175.983	7.423	-0.256	0.189
-174.969	107.543	0.299	0.351
-173.954	-11.904	-0.074	0.048
-172.939	152.157	0.071	-0.096
-171.925	-200.000	0.028	0.233
-170.910	384.902	-0.043	0.087
-169.896	7.564	-0.247	-0.182
-168.881	7.131	-0.060	0.044
-167.866	-42.629	0.098	0.049
-166.852	-22.313	-0.229	-0.137
-165.837	72.559	0.165	-0.170
-164.823	518.551	0.034	-0.078
-163.808	-88.141	-0.214	0.063
-162.793	11.503	0.199	0.150
-161.779	16.130	-0.187	-0.145
-160.764	800.000	0.132	-0.391
-159.750	427.257	-0.070	-0.148
-158.735	800.000	0.075	0.256
-157.720	-200.000	0.032	0.252
-156.706	149.048	0.109	0.146
-155.691	154.598	0.147	0.199
-154.677	-59.894	0.233	0.098
-153.662	-200.000	-0.010	0.073
-152.647	373.391	-0.068	-0.136
-151.633	-74.832	-0.038	-0.014
-150.618	-85.671	-0.245	0.075
-149.604	-189.606	0.168	0.002
-148.589	319.504	0.091	0.169
-147.574	800.000	0.069	0.241
-146.560	82.194	0.118	0.126
-145.545	372.157	0.101	0.202
-144.531	-200.000	-0.016	-0.335
-143.516	101.107	-0.129	0.148
-142.502	-67.082	0.077	-0.030
-141.487	-83.374	0.222	0.070
-140.472	56.705	0.247	-0.236
-139.458	-124.474	0.300	0.046
-138.443	129.424	-0.180	0.226
-137.429	-200.000	-0.046	0.270
-136.414	-23.608	0.160	0.094
-135.399	-106.040	0.494	-0.109
-134.385	-129.117	-0.130	-0.018
-133.370	-97.662	-0.171	-0.043
-132.356	-200.000	0.017	-0.418
-131.341	800.000	-0.165	-0.545
-130.326	-103.491	-0.309	0.071
-129.312	-54.927	0.249	0.110
-128.297	-2.127	0.241	0.167
-127.283	-51.465	-0.267	0.122
-126.268	117.418	0.042	-0.051
-125.253	-16.685	0.122	0.076
-124.239	-200.000	0.080	0.354
-123.224	-200.000	0.042	-0.192
-122.210	-44.297	-0.239	-0.118
-121.195	414.369	0.081	0.170
-120.180	-23.719	0.269	0.158
-119.166	-200.000	0.011	-0.310
-118.151	5.864	-0.142	-0.103
-117.137	-110.234	0.275	-0.056
-116.122	-200.000	0.015	0.114
-115.107	-134.596	0.075	0.009
-114.093	-200.000	0.044	-0.282
-113.078	-81.946	0.090	-0.029
-112.064	216.175	-0.167	0.261
-111.049	205.103	0.115	0.176
-110.034	-200.000	-0.027	-0.176
-109.020	-96.558	-0.200	-0.052
-108.005	800.000	0.077	-0.261
-106.991	114.183	-0.080	0.095
-105.976	-128.937	0.314	-0.043
-104.962	-108.296	-0.126	-0.027
-103.947	-200.000	0.009	-0.074
-102.932	-142.447	0.163	0.016
-101.918	65.958	-0.169	-0.169
-100.903	-137.388	0.171	-0.019
-99.889	-19.741	-0.273	-0.166
-98.874	-200.000	-0.005	-0.170
-97.859	800.000	0.062	-0.201
-96.845	83.011	-0.035	0.037
-95.830	319.395	0.123	0.228
-94.816	62.976	0.159	0.156
-93.801	505.092	0.055	0.126
-92.786	-9.753	0.203	0.133
-91.772	-115.776	0.199	0.037
-90.757	-47.455	0.246	0.117
-89.743	-168.594	-0.343	0.013
-88.728	173.472	0.169	0.240
-87.713	121.137	-0.101	-0.123
-86.699	320.844	-0.020	-0.036
-85.684	-150.016	-0.094	0.007
-84.670	-79.707	0.237	0.078
-83.655	-102.355	0.185	-0.044
-82.640	800.000	-0.052	-0.194
-81.626	-92.597	0.222	-0.061
-80.611	-29.418	0.271	0.152
-79.597	-200.000	0.013	0.264
-78.582	800.000	0.146	0.538
-77.567	-32.237	0.268	0.147
-76.553	-47.274	-0.426	0.204
-75.538	79.190	0.102	0.107
-74.524	-200.000	0.045	-0.320
-73.509	-101.410	0.327	0.078
-72.494	800.000	-0.035	-0.107
-71.480	-159.490	0.373	0.020
-70.465	-200.000	0.037	-0.380
-69.451	-200.000	-0.005	-0.317
-68.436	202.654	-0.105	0.160
-67.422	-200.000	0.010	-0.148
-66.407	9.259	-0.172	0.128
-65.392	5.712	-0.146	0.106
-64.378	23.113	-0.183	0.147
-63.363	371.228	0.052	-0.104
-62.349	56.231	-0.093	-0.089
-61.334	118.707	-0.860	-1.042
-60.319	502.739	0.316	0.716
-59.305	570.646	-0.309	-0.738
-58.290	101.802	1.159	1.326
-57.276	800.000	0.436	1.642
-56.261	-200.000	105.694	610.551
-55.246	500.934	1508.033	3412.434
-54.232	174.567	2710.971	3844.312
-53.217	104.529	2302.124	2657.932
-52.203	38.679	1905.332	1666.757
-51.188	32.685	1690.869	1433.670
-50.173	30.038	1648.110	1377.705
-49.159	48.983	1701.532	1566.012
-48.144	49.379	1716.595	1582.805
-47.130	32.318	1674.487	1416.791
-46.115	29.592	1660.018	1384.097
-45.100	29.441	1654.743	1378.519
-44.086	29.384	1651.795	1375.584
-43.071	29.350	1649.478	1373.343
-42.057	29.346	1647.012	1371.206
-41.042	29.334	1645.584	1369.873
-40.027	29.437	1643.499	1368.847
-39.013	29.379	1641.122	1366.384
-37.998	29.339	1639.857	1364.978
-36.984	29.403	1638.614	1364.365
-35.969	29.486	1636.854	1363.463
-34.954	29.497	1635.185	1362.097
-33.940	29.465	1633.715	1360.579
-32.925	29.480	1631.689	1358.952
-31.911	29.428	1630.314	1357.371
-30.896	29.480	1628.172	1355.914
-29.881	29.523	1626.173	1354.507
-28.867	29.511	1625.164	1353.530
-27.852	29.564	1623.620	1352.578
-26.838	29.657	1621.536	1351.468
-25.823	29.503	1621.008	1349.851
-24.809	29.526	1619.849	1348.999
-23.794	29.516	1617.731	1347.105
-22.779	29.487	1616.878	1346.132
-21.765	29.512	1615.277	1344.928
-20.750	29.498	1613.482	1343.278
-19.736	29.507	1612.284	1342.295
-18.721	29.505	1610.492	1340.733
-17.706	29.517	1609.301	1339.775
-16.692	29.504	1607.607	1338.221
-15.677	29.500	1606.382	1337.118
-14.663	29.586	1605.279	1336.768
-13.648	29.427	1604.438	1334.865
-12.633	29.563	1602.288	1334.002
-11.619	29.590	1600.230	1332.435
-10.604	29.486	1599.460	1330.988
-9.590	29.557	1597.585	1329.884
-8.575	29.513	1596.821	1328.882
-7.560	29.654	1595.420	1328.677
-6.546	29.583	1594.512	1327.360
-5.531	29.503	1593.353	1325.763
-4.517	29.535	1592.160	1324.953
-3.502	29.504	1591.428	1324.068
-2.487	29.682	1589.448	1323.639
-1.473	29.307	1577.941	1311.342
-0.458	26.651	1558.775	1276.670
0.556	20.975	1559.817	1247.319
1.571	18.720	1585.334	1251.195
2.586	18.538	1598.703	1260.297
3.600	16.637	1546.261	1205.325
4.615	8.737	1436.375	1067.107
5.629	1.246	1372.336	971.611
6.644	-0.096	1364.095	957.142
7.659	-0.208	1363.128	955.669
8.673	-0.268	1362.351	954.655
9.688	-0.237	1360.067	953.167
10.702	-0.503	1356.986	949.240
11.717	3.190	1363.811	977.413
12.731	12.451	1382.112	1049.827
13.746	19.894	1394.226	1106.711
14.761	21.921	1396.815	1121.641
15.775	22.250	1396.926	1123.733
16.790	22.280	1396.376	1123.386
17.804	22.298	1395.885	1123.003
18.819	22.606	1395.561	1124.608
19.834	22.644	1395.100	1124.383
20.848	22.634	1394.378	1123.633
21.863	22.669	1393.361	1122.941
22.877	22.646	1392.448	1121.961
23.892	22.698	1391.776	1121.650
24.907	22.751	1390.973	1121.238
25.921	22.720	1389.923	1120.097
26.936	22.779	1388.835	1119.496
27.950	22.732	1387.864	1118.317
28.965	22.734	1386.927	1117.471
29.980	22.668	1385.480	1115.792
30.994	22.640	1384.669	1114.864
32.009	22.645	1383.710	1114.025
33.023	22.682	1382.346	1113.057
34.038	22.648	1381.440	1112.018
35.053	22.732	1380.269	1111.506
36.067	22.762	1379.056	1110.620
37.082	22.683	1378.502	1109.578
38.096	22.770	1377.368	1109.116
39.111	22.609	1376.936	1107.654
40.126	22.728	1376.184	1107.702
41.140	22.668	1375.507	1106.681
42.155	22.699	1375.447	1106.727
43.169	22.679	1374.949	1106.104
44.184	22.697	1375.077	1106.224
45.199	22.595	1374.744	1105.219
46.213	22.661	1373.895	1104.851
47.228	22.739	1372.499	1104.118
48.242	22.713	1371.391	1102.967
49.257	22.667	1370.187	1101.611
50.271	22.740	1368.449	1100.577
51.286	22.645	1367.094	1098.797
52.301	22.696	1366.000	1098.138
53.315	22.721	1365.157	1097.518
54.330	22.644	1364.717	1096.584
55.344	22.737	1362.789	1095.517
56.359	22.674	1362.319	1094.651
57.374	22.520	1362.033	1093.368
58.388	22.711	1360.899	1093.548
59.403	22.693	1360.542	1093.051
60.417	22.664	1359.831	1092.202
61.432	22.624	1359.008	1091.201
62.447	22.696	1358.107	1090.822
63.461	22.676	1357.015	1089.727
64.476	22.737	1356.096	1089.269
65.490	22.762	1354.608	1088.131
66.505	22.733	1353.280	1086.790
67.520	22.689	1351.967	1085.366
68.534	22.744	1351.071	1084.890
69.549	22.662	1350.480	1083.816
70.563	22.680	1349.560	1083.095
71.578	22.676	1348.523	1082.140
72.593	22.679	1347.745	1081.439
73.607	22.723	1346.940	1080.965
74.622	22.742	1346.020	1080.250
75.636	22.796	1345.044	1079.704
76.651	22.734	1344.516	1078.804
77.666	22.688	1344.281	1078.237
78.680	22.655	1344.159	1077.842
79.695	22.705	1342.865	1077.015
80.709	22.739	1341.936	1076.381
81.724	22.741	1341.184	1075.694
82.739	22.847	1340.058	1075.343
83.753	22.675	1339.447	1073.713
84.768	22.656	1338.407	1072.664
85.782	22.668	1337.106	1071.603
86.797	22.832	1335.682	1071.360
87.812	22.687	1334.686	1069.586
88.826	22.771	1333.994	1069.446
89.841	22.677	1333.422	1068.325
90.855	22.789	1331.744	1067.564
91.870	22.726	1331.319	1066.750
92.884	22.698	1330.396	1065.745
93.899	22.740	1329.566	1065.237
94.914	22.833	1328.624	1064.953
95.928	22.756	1327.893	1063.805
96.943	22.835	1327.356	1063.758
97.957	22.768	1326.873	1062.874
98.972	22.814	1325.614	1062.049
99.987	22.815	1324.598	1061.145
101.001	22.723	1323.675	1059.761
102.016	22.790	1322.272	1058.947
103.030	22.862	1321.548	1058.704
104.045	22.882	1321.014	1058.305
105.060	22.813	1319.958	1056.950
106.074	22.797	1319.350	1056.275
107.089	22.815	1318.110	1055.294
108.103	22.820	1316.908	1054.269
109.118	22.739	1316.374	1053.264
110.133	22.807	1314.666	1052.211
111.147	22.731	1314.364	1051.423
112.162	22.776	1312.685	1050.256
113.176	22.847	1311.373	1049.532
114.191	22.806	1310.516	1048.511
115.206	22.777	1309.702	1047.595
116.220	22.792	1308.358	1046.517
117.235	22.819	1307.691	1046.051
118.249	22.795	1306.715	1045.036
119.264	22.875	1305.568	1044.497
120.279	23.012	1304.673	1044.500
121.293	22.908	1303.948	1043.215
122.308	22.856	1303.279	1042.279
123.322	22.870	1302.759	1041.854
124.337	22.956	1301.255	1041.064
125.352	22.936	1300.517	1040.265
126.366	22.878	1299.691	1039.172
127.381	22.970	1298.648	1038.786
128.395	22.964	1297.960	1038.110
129.410	22.871	1297.291	1036.934
130.424	22.810	1296.403	1035.776
131.439	22.967	1295.206	1035.644
132.454	22.894	1294.573	1034.623
133.468	22.845	1294.442	1034.137
134.483	22.959	1293.544	1033.998
135.497	22.838	1292.998	1032.761
136.512	22.962	1290.753	1031.599
137.527	23.047	1290.002	1031.405
138.541	22.937	1288.720	1029.645
139.556	22.936	1287.839	1028.846
140.570	22.889	1286.452	1027.376
141.585	22.909	1285.771	1026.853
142.600	22.866	1284.588	1025.569
143.614	22.827	1284.229	1024.969
144.629	22.834	1283.140	1024.050
145.643	22.790	1281.822	1022.649
146.658	22.863	1280.975	1022.308
147.673	22.831	1279.950	1021.214
148.687	22.877	1278.869	1020.526
149.702	22.870	1277.420	1019.241
150.716	22.903	1276.074	1018.264
151.731	22.871	1275.669	1017.668
152.746	22.816	1274.753	1016.530
153.760	22.892	1273.525	1015.898
154.775	22.902	1272.821	1015.305
155.789	22.922	1271.698	1014.432
156.804	22.948	1270.604	1013.618
157.819	22.893	1269.984	1012.718
158.833	22.895	1269.504	1012.261
159.848	22.971	1268.476	1011.784
160.862	22.936	1267.499	1010.715
161.877	23.001	1266.880	1010.505
162.892	22.987	1265.677	1009.373
163.906	23.074	1265.357	1009.528
164.921	22.925	1264.873	1008.201
165.935	23.027	1263.935	1007.945
166.950	23.032	1262.908	1007.068
167.964	23.100	1262.716	1007.215
168.979	22.988	1262.187	1006.062
169.994	23.023	1261.178	1005.371
171.008	23.138	1260.377	1005.298
172.023	23.023	1260.278	1004.475
173.037	23.137	1259.053	1004.058
174.052	23.105	1258.269	1003.162
175.067	22.979	1257.681	1001.889
176.081	23.054	1256.773	1001.499
177.096	23.101	1255.796	1000.899
178.110	23.073	1255.493	1000.413
179.125	23.100	1254.040	999.317
180.140	23.047	1253.238	998.293
181.154	23.069	1251.715	997.115
182.169	23.096	1250.617	996.301
183.183	22.999	1249.909	995.106
184.198	23.104	1248.640	994.595
185.213	23.116	1248.179	994.207
186.227	23.119	1247.023	993.219
187.242	23.071	1246.083	992.111
188.256	23.152	1245.059	991.664
189.271	23.181	1244.614	991.384
190.286	23.089	1244.194	990.444
191.300	23.208	1243.463	990.440
192.315	23.153	1242.516	989.293
193.329	23.079	1242.142	988.492
194.344	23.104	1242.017	988.444
195.359	23.171	1241.259	988.129
196.373	23.152	1240.844	987.606
197.388	23.116	1240.426	986.985
198.402	23.078	1240.000	986.345
199.417	23.166	1239.419	986.285
200.432	23.133	1238.915	985.615
201.446	23.151	1238.073	984.956
202.461	23.108	1237.617	984.268
203.475	23.148	1236.493	983.510
204.490	23.118	1235.367	982.359
205.504	23.103	1234.642	981.613
206.519	23.130	1233.796	981.004
207.534	23.197	1232.794	980.492
208.548	23.160	1231.931	979.516
209.563	23.178	1231.266	978.998
210.577	23.253	1230.098	978.398
211.592	23.181	1229.786	977.663
212.607	23.287	1228.841	977.414
213.621	23.220	1228.029	976.311
214.636	23.203	1227.543	975.745
215.650	23.260	1226.543	975.174
216.665	23.133	1225.355	973.445
217.680	23.326	1224.451	973.702
218.694	23.284	1223.788	972.862
219.709	23.323	1222.937	972.309
220.723	23.229	1222.466	971.338
221.738	23.173	1221.618	970.268
222.753	23.174	1220.763	969.511
223.767	23.300	1220.482	969.888
224.782	23.377	1219.747	969.642
225.796	23.459	1219.507	969.816
226.811	23.419	1218.660	968.834
227.826	23.391	1218.006	968.079
228.840	23.362	1217.423	967.370
229.855	23.386	1216.852	966.962
230.869	23.388	1216.263	966.419
231.884	23.415	1215.103	965.557
232.899	23.395	1214.598	964.965
233.913	23.451	1213.720	964.482
234.928	23.412	1213.734	964.196
235.942	23.511	1212.882	963.976
236.957	23.312	1212.175	962.246
237.972	23.367	1211.738	962.112
238.986	23.501	1210.820	962.026
240.001	23.475	1209.920	961.082
241.015	23.580	1209.506	961.239
242.030	23.519	1208.814	960.272
243.045	23.473	1207.963	959.261
244.059	23.550	1207.111	958.919
245.074	23.507	1206.478	958.100
246.088	23.555	1205.626	957.595
247.103	23.513	1205.098	956.864
248.117	23.460	1203.924	955.563
249.132	23.450	1203.808	955.334
250.147	23.455	1202.861	954.526
251.161	23.498	1201.951	953.947
252.176	23.581	1201.174	953.694
253.190	23.625	1200.661	953.438
254.205	23.658	1200.142	953.118
255.220	23.614	1199.448	952.247
256.234	23.628	1199.055	951.926
257.249	23.671	1198.030	951.259
258.263	23.691	1197.439	950.814
259.278	23.681	1197.106	950.411
260.293	23.665	1196.810	950.002
261.307	23.732	1195.943	949.593
262.322	23.599	1195.484	948.431
263.336	23.552	1195.078	947.774
264.351	23.691	1193.860	947.467
265.366	23.685	1193.526	947.086
266.380	23.650	1192.808	946.246
267.395	23.618	1192.279	945.572
268.409	23.598	1191.578	944.824
269.424	23.613	1191.071	944.420
270.439	23.594	1190.432	943.727
271.453	23.769	1189.752	944.038
272.468	23.681	1188.545	942.529
273.482	23.741	1188.057	942.377
274.497	23.665	1187.970	941.819
275.512	23.744	1187.168	941.519
276.526	23.748	1186.768	941.143
277.541	23.900	1185.441	940.809
278.555	23.785	1185.217	939.940
279.570	23.743	1184.821	939.321
280.585	23.692	1183.815	938.168
281.599	23.747	1182.654	937.457
282.614	23.876	1181.966	937.508
283.628	23.729	1181.632	936.388
284.643	23.739	1180.619	935.552
285.657	23.713	1179.628	934.548
286.672	23.875	1178.526	934.444
287.687	23.877	1177.942	933.909
288.701	23.898	1177.203	933.350
289.716	23.905	1176.781	932.971
290.730	23.852	1175.844	931.867
291.745	23.969	1175.057	931.776
292.760	23.848	1174.692	930.767
293.774	23.975	1174.246	930.999
294.789	23.945	1173.714	930.338
295.803	23.969	1173.219	929.988
296.818	23.938	1172.479	929.157
297.833	23.944	1171.511	928.340
298.847	24.030	1170.835	928.167
299.862	23.986	1169.990	927.187
300.876	24.018	1169.414	926.814
301.891	24.086	1169.008	926.765
302.906	24.005	1168.458	925.824
303.920	24.180	1167.540	925.929
304.935	24.020	1167.014	924.598
305.949	24.160	1165.968	924.410
306.964	23.977	1165.927	923.346
307.979	24.135	1165.407	923.672
308.993	24.057	1164.476	922.450
310.008	24.172	1163.255	921.998
311.022	24.030	1163.166	921.111
312.037	24.122	1162.130	920.685
313.052	24.076	1161.602	919.947
314.066	24.106	1160.739	919.338
315.081	24.106	1159.936	918.622
316.095	24.165	1159.135	918.206
317.110	24.179	1158.394	917.612
318.125	24.175	1157.790	917.033
319.139	24.068	1157.490	916.163
320.154	24.084	1157.016	915.786
321.168	24.242	1155.910	915.642
322.183	24.177	1155.865	915.193
323.197	24.139	1155.153	914.351
324.212	24.287	1154.585	914.579
325.227	24.273	1153.776	913.790
326.241	24.206	1153.654	913.266
327.256	24.158	1152.840	912.296
328.270	24.298	1151.420	911.807
329.285	24.204	1151.035	910.944
330.300	24.249	1150.322	910.524
331.314	24.251	1149.544	909.843
332.329	24.316	1148.778	909.485
333.343	24.348	1148.061	908.999
334.358	24.330	1147.174	908.129
335.373	24.393	1146.406	907.758
336.387	24.326	1145.497	906.615
337.402	24.285	1145.234	906.119
338.416	24.421	1144.331	906.016
339.431	24.418	1143.499	905.265
340.446	24.513	1142.963	905.240
341.460	24.425	1142.762	904.556
342.475	24.517	1141.311	903.791
343.489	24.496	1140.636	903.071
344.504	24.398	1140.163	902.123
345.519	24.457	1139.101	901.501
346.533	24.503	1138.212	900.950
347.548	24.559	1137.223	900.369
348.562	24.576	1137.014	900.210
349.577	24.375	1136.465	898.682
350.592	24.413	1135.226	897.813
351.606	24.455	1135.269	897.981
352.621	24.550	1134.720	897.943
353.635	24.569	1133.772	897.207
354.650	24.591	1132.917	896.564
355.665	24.598	1132.437	896.139
356.679	24.566	1131.800	895.392
357.694	24.601	1130.989	894.851
358.708	24.578	1130.479	894.254
359.723	24.441	1130.191	893.258
360.738	24.469	1129.434	892.722
361.752	24.578	1128.974	892.822
362.767	24.601	1128.645	892.601
363.781	24.668	1127.256	891.755
364.796	24.749	1126.786	891.709
365.810	24.709	1126.281	891.031
366.825	24.641	1125.946	890.347
367.840	24.731	1125.509	890.374
368.854	24.791	1124.796	890.028
369.869	24.844	1123.945	889.542
370.883	24.874	1123.379	889.162
371.898	24.824	1122.679	888.282
372.913	24.790	1121.935	887.444
373.927	24.843	1121.552	887.326
374.942	24.850	1120.955	886.810
375.956	24.735	1120.717	885.976
376.971	24.681	1120.258	885.265
377.986	24.815	1119.420	885.190
379.000	24.889	1118.907	885.070
380.015	24.818	1118.318	884.176
381.029	24.691	1118.132	883.320
382.044	24.818	1117.261	883.184
383.059	24.846	1116.686	882.787
384.073	24.928	1115.732	882.358
385.088	24.996	1114.687	881.788
386.102	24.901	1113.987	880.693
387.117	24.864	1112.974	879.633
388.132	24.830	1112.252	878.816
389.146	24.873	1111.927	878.694
390.161	24.978	1111.127	878.494
391.175	24.983	1110.125	877.650
392.190	24.904	1109.834	876.958
393.205	24.804	1109.550	876.164
394.219	24.894	1108.549	875.737
395.234	24.965	1107.519	875.193
396.248	25.062	1106.723	874.962
397.263	25.032	1105.594	873.845
398.278	25.155	1104.879	873.800
399.292	25.187	1104.326	873.443
400.307	25.192	1103.590	872.809
401.321	25.094	1103.403	872.103
402.336	25.106	1102.116	871.067
403.350	25.167	1101.697	870.956
404.365	25.176	1101.398	870.685
405.380	25.202	1100.710	870.193
406.394	25.162	1099.546	869.001
407.409	25.208	1099.414	869.044
408.423	25.235	1098.451	868.337
409.438	25.280	1097.933	868.066
410.453	25.265	1097.323	867.437
411.467	25.355	1096.373	867.040
412.482	25.217	1096.098	866.081
413.496	25.369	1095.224	866.047
414.511	25.275	1094.713	865.113
415.526	25.309	1094.322	864.894
416.540	25.245	1094.111	864.338
417.555	25.344	1093.083	863.930
418.569	25.305	1092.861	863.490
419.584	25.310	1092.544	863.186
420.599	25.300	1091.938	862.583
421.613	147.636	1403.630	1797.831
422.628	136.629	1448.993	1797.906
