DTS Sentinel unit serial number:	SN413079Multiplexer serial number:	ORYXHardware model number:	OX4-SRSoftware version number:	ORYX F/W v4.00 Oryx Data Collector v3.7.2.0data status	okinstallation	princeton_trtdifferential loss correction	single-endedforward channel	channel 2reverse channel	N/Adate	2019/09/11time	04:05:10forward acquisition time	60.00reverse acquisition time	0.00gamma	496.2192k internal	0.2329k external	0.2329temperature offset calibration	0.9938default loss term (dB/km)	0.3790temperature slope calibration	1.0000multiplexer offset coefficient	1.0000multiplexer slope coefficient	1.0000fibre end	0.00T internal ref (°C)	29.56T ext. ref 1 (°C)	-0.28T ext. ref 2 (°C)	23.65length (m)	temperature (°C)	Stokes	anti-Stokes-747.200	-9.917	-0.244	-0.164
-746.185	-200.000	0.065	-0.406
-745.171	-33.231	0.142	-0.079
-744.156	-73.702	0.132	-0.049
-743.142	-165.283	0.161	0.007
-742.127	-101.543	0.210	0.051
-741.112	47.346	-0.091	0.086
-740.098	153.676	-0.298	0.412
-739.083	-166.898	0.298	0.012
-738.069	53.507	-0.064	0.062
-737.054	562.691	-0.109	-0.266
-736.039	-175.109	-0.379	0.011
-735.025	-113.405	0.428	-0.085
-734.010	585.195	-0.177	-0.437
-732.996	-0.383	0.041	-0.029
-731.981	-43.516	-0.325	-0.165
-730.966	-142.872	-0.456	-0.045
-729.952	-7.595	-0.039	0.027
-728.937	149.754	-0.166	0.226
-727.923	800.000	-0.082	-0.255
-726.908	309.963	-0.116	-0.219
-725.894	10.116	-0.174	-0.133
-724.879	212.691	0.204	-0.325
-723.864	440.062	-0.020	-0.044
-722.850	771.476	0.133	-0.366
-721.835	8.142	0.202	-0.153
-720.821	12.053	-0.382	-0.296
-719.806	-200.000	-0.008	0.078
-718.791	-89.625	-0.128	-0.038
-717.777	109.736	0.078	0.094
-716.762	-200.000	-0.010	0.162
-715.748	36.308	-0.047	-0.042
-714.733	297.174	-0.044	-0.081
-713.718	17.717	0.143	0.115
-712.704	50.087	-0.121	0.115
-711.689	-35.830	0.108	-0.059
-710.675	27.491	-0.287	-0.242
-709.660	-70.663	0.274	0.104
-708.645	71.884	0.035	0.037
-707.631	228.122	-0.075	-0.123
-706.616	800.000	0.046	0.137
-705.602	-180.829	-0.215	0.004
-704.587	-200.000	-0.040	-0.250
-703.572	-144.293	0.184	-0.017
-702.558	447.054	-0.040	0.090
-701.543	63.778	-0.133	0.134
-700.529	-0.736	-0.195	-0.139
-699.514	-76.834	-0.183	0.064
-698.499	-200.000	-0.027	-0.131
-697.485	-12.629	0.093	0.061
-696.470	424.698	0.014	-0.031
-695.456	-88.232	-0.314	-0.094
-694.441	-66.982	-0.306	-0.121
-693.426	26.965	0.087	0.074
-692.412	547.413	-0.147	-0.353
-691.397	-170.736	0.358	0.012
-690.383	-25.133	-0.204	-0.122
-689.368	-46.258	0.292	0.144
-688.354	115.900	0.189	-0.232
-687.339	-145.958	0.151	0.013
-686.324	800.000	-0.088	0.351
-685.310	233.682	0.179	-0.296
-684.295	347.380	0.101	0.200
-683.281	34.136	-0.203	0.178
-682.266	-78.761	0.326	0.112
-681.251	-7.096	0.131	-0.089
-680.237	-200.000	-0.040	0.208
-679.222	781.366	0.024	-0.066
-678.208	152.374	-0.149	0.205
-677.193	-200.000	0.034	-0.250
-676.178	149.119	-0.087	0.119
-675.164	585.714	-0.150	0.370
-674.149	-159.571	0.143	-0.008
-673.135	-32.263	-0.198	-0.111
-672.120	-24.621	-0.260	0.155
-671.105	-149.324	0.155	0.012
-670.091	6.101	-0.208	0.155
-669.076	-82.454	-0.274	0.090
-668.062	800.000	-0.059	-0.248
-667.047	-200.000	0.000	0.014
-666.032	186.775	0.152	0.228
-665.018	800.000	0.101	-0.329
-664.003	-24.996	0.193	-0.115
-662.989	380.596	0.163	-0.335
-661.974	800.000	0.031	-0.093
-660.959	-12.907	-0.156	-0.102
-659.945	-41.634	-0.092	-0.048
-658.930	-5.278	-0.089	0.062
-657.916	28.673	0.072	0.061
-656.901	-200.000	-0.007	0.038
-655.886	800.000	0.022	0.086
-654.872	-79.883	-0.535	-0.181
-653.857	-200.000	0.001	0.153
-652.843	126.474	-0.222	-0.282
-651.828	710.283	0.149	-0.397
-650.814	543.193	-0.132	-0.316
-649.799	-64.669	-0.134	-0.055
-648.784	280.726	0.137	0.246
-647.770	-24.742	0.170	-0.102
-646.755	-64.202	-0.303	-0.124
-645.741	-78.984	0.179	0.061
-644.726	-153.676	0.124	0.009
-643.711	-200.000	-0.002	0.043
-642.697	604.714	-0.035	-0.088
-641.682	-183.021	-0.306	-0.005
-640.668	-125.941	0.558	-0.084
-639.653	-200.000	-0.001	-0.093
-638.638	-200.000	0.005	0.088
-637.624	-24.682	0.147	0.088
-636.609	800.000	-0.035	-0.143
-635.595	1.861	-0.158	-0.114
-634.580	55.941	-0.202	-0.197
-633.565	53.395	0.073	0.070
-632.551	265.470	0.050	0.088
-631.536	-200.000	-0.059	-0.517
-630.522	-200.000	-0.011	0.098
-629.507	27.568	-0.315	-0.265
-628.492	143.760	0.139	0.185
-627.478	-110.152	-0.161	0.034
-626.463	-2.061	0.155	-0.109
-625.449	-92.757	-0.112	-0.031
-624.434	160.437	-0.223	-0.313
-623.419	-79.551	-0.172	0.058
-622.405	99.711	-0.147	0.170
-621.390	-200.000	0.027	-0.216
-620.376	148.093	0.162	0.219
-619.361	4.372	-0.281	0.207
-618.346	800.000	-0.024	0.073
-617.332	-139.687	0.216	0.023
-616.317	-82.751	0.207	0.067
-615.303	-141.100	0.126	-0.013
-614.288	-26.541	-0.215	0.126
-613.273	-116.592	0.216	0.040
-612.259	-157.967	0.285	0.017
-611.244	-39.617	-0.281	0.147
-610.230	0.994	-0.377	0.271
-609.215	800.000	0.099	-0.380
-608.201	490.918	0.133	-0.304
-607.186	-89.856	0.057	0.017
-606.171	119.806	-0.212	-0.263
-605.157	-200.000	0.025	-0.206
-604.142	-200.000	-0.004	0.212
-603.128	481.478	0.035	0.080
-602.113	-30.838	-0.072	-0.041
-601.098	115.192	-0.168	-0.206
-600.084	-93.378	-0.123	-0.034
-599.069	-90.375	0.179	-0.052
-598.055	269.932	-0.061	-0.108
-597.040	-1.620	0.109	-0.077
-596.025	800.000	-0.076	0.323
-595.011	527.354	-0.071	-0.167
-593.996	-64.731	-0.128	-0.052
-592.982	31.555	0.045	-0.039
-591.967	-102.822	-0.257	-0.061
-590.952	800.000	0.119	-0.448
-589.938	-200.000	-0.014	-0.244
-588.923	-107.321	-0.250	-0.055
-587.909	11.681	-0.470	0.361
-586.894	24.888	-0.095	-0.079
-585.879	184.482	-0.073	0.108
-584.865	48.985	-0.012	0.011
-583.850	69.309	-0.278	0.287
-582.836	-73.008	0.098	0.036
-581.821	-200.000	-0.009	0.131
-580.806	397.818	-0.044	-0.093
-579.792	-64.758	0.223	0.090
-578.777	-146.664	0.159	0.014
-577.763	711.523	0.044	0.118
-576.748	800.000	0.022	0.091
-575.733	-7.743	0.108	-0.073
-574.719	-130.330	-0.488	0.066
-573.704	-83.885	-0.225	-0.072
-572.690	-79.675	0.150	0.051
-571.675	36.088	-0.177	-0.156
-570.661	-56.320	0.202	0.090
-569.646	-200.000	0.040	0.261
-568.631	-167.342	-0.232	0.009
-567.617	-200.000	-0.002	0.064
-566.602	-47.356	0.108	-0.053
-565.588	-5.397	-0.141	-0.097
-564.573	-200.000	0.011	0.327
-563.558	-127.535	0.169	-0.025
-562.544	-66.134	-0.216	0.086
-561.529	591.499	-0.054	0.134
-560.515	-131.160	-0.183	-0.024
-559.500	-34.886	0.341	-0.186
-558.485	97.915	-0.257	0.296
-557.471	-101.554	0.151	-0.037
-556.456	-99.981	-0.294	-0.073
-555.442	-106.869	0.129	-0.029
-554.427	241.274	0.106	0.177
-553.412	19.283	-0.082	0.066
-552.398	800.000	0.077	-0.214
-551.383	-200.000	0.015	-0.282
-550.369	-155.386	-0.288	-0.019
-549.354	509.233	-0.082	-0.191
-548.339	-200.000	0.021	-0.319
-547.325	-90.229	-0.297	0.086
-546.310	277.795	-0.069	-0.124
-545.296	-200.000	-0.061	-0.377
-544.281	800.000	0.097	0.292
-543.266	-15.263	0.101	-0.064
-542.252	30.550	-0.048	0.041
-541.237	800.000	0.048	-0.173
-540.223	-138.542	0.265	-0.029
-539.208	-131.751	-0.261	-0.034
-538.193	170.487	0.131	-0.188
-537.179	50.728	0.194	-0.184
-536.164	-18.649	-0.140	0.088
-535.150	-55.138	0.140	-0.063
-534.135	22.225	-0.188	-0.153
-533.121	97.077	-0.114	-0.131
-532.106	800.000	0.026	0.111
-531.091	800.000	-0.053	0.219
-530.077	-23.336	0.223	0.134
-529.062	90.150	-0.172	-0.192
-528.048	272.159	-0.181	-0.320
-527.033	215.207	-0.103	-0.163
-526.018	154.438	-0.182	0.250
-525.004	-125.746	-0.054	-0.008
-523.989	72.549	0.153	0.160
-522.975	38.609	0.137	-0.122
-521.960	-151.974	-0.096	0.007
-520.945	-5.936	0.157	0.108
-519.931	-16.556	0.107	-0.067
-518.916	105.555	-0.122	0.144
-517.902	-200.000	-0.007	-0.056
-516.887	764.892	0.071	-0.193
-515.872	-90.583	0.273	0.079
-514.858	41.516	0.121	0.109
-513.843	1.403	0.140	0.101
-512.829	373.474	0.109	-0.222
-511.814	-118.999	0.392	-0.069
-510.799	43.626	-0.128	0.116
-509.785	-200.000	0.005	0.303
-508.770	-200.000	-0.014	-0.299
-507.756	102.705	0.042	0.050
-506.741	-49.004	-0.213	-0.102
-505.726	-65.364	-0.251	-0.101
-504.712	-144.029	0.232	-0.022
-503.697	-130.295	0.104	-0.014
-502.683	74.944	0.152	-0.160
-501.668	189.905	0.142	0.212
-500.653	-116.569	0.263	0.048
-499.639	180.717	-0.130	-0.191
-498.624	-200.000	0.008	0.218
-497.610	-200.000	-0.011	0.205
-496.595	-6.249	-0.137	-0.093
-495.581	-39.004	0.247	-0.130
-494.566	734.710	-0.082	0.218
-493.551	800.000	-0.023	0.072
-492.537	127.554	-0.037	-0.047
-491.522	-53.356	0.086	0.039
-490.508	-90.963	-0.127	-0.037
-489.493	-14.593	-0.211	-0.135
-488.478	66.714	0.086	0.087
-487.464	-150.082	0.055	-0.004
-486.449	-69.779	0.060	-0.023
-485.435	-200.000	-0.010	0.049
-484.420	-27.847	0.073	-0.042
-483.405	486.626	-0.154	-0.349
-482.391	-171.494	-0.052	0.002
-481.376	60.203	-0.151	-0.148
-480.362	-200.000	-0.003	0.126
-479.347	72.043	-0.169	0.176
-478.332	-102.950	-0.142	0.034
-477.318	-55.032	-0.093	-0.042
-476.303	-200.000	-0.009	-0.177
-475.289	56.244	-0.234	0.227
-474.274	-200.000	-0.013	0.293
-473.259	-138.262	0.304	-0.034
-472.245	-1.723	0.181	0.127
-471.230	800.000	0.048	0.141
-470.216	-44.016	-0.083	0.042
-469.201	136.088	0.187	-0.243
-468.186	-51.641	0.274	0.127
-467.172	-106.659	0.199	0.044
-466.157	51.960	-0.229	0.217
-465.143	-200.000	0.007	-0.168
-464.128	800.000	-0.082	-0.337
-463.113	507.381	-0.131	-0.302
-462.099	-16.417	-0.103	0.065
-461.084	-63.126	-0.236	0.097
-460.070	133.285	0.330	0.425
-459.055	-200.000	-0.054	0.239
-458.040	-43.389	-0.124	0.062
-457.026	54.598	0.112	0.108
-456.011	800.000	-0.045	-0.181
-454.997	371.071	0.123	-0.248
-453.982	222.744	-0.120	0.193
-452.968	171.682	0.167	0.239
-451.953	-93.328	0.076	-0.021
-450.938	800.000	-0.064	-0.198
-449.924	-200.000	-0.163	-0.000
-448.909	-158.106	-0.188	0.011
-447.895	-118.787	-0.009	0.002
-446.880	429.587	-0.154	0.331
-445.865	-70.465	0.447	0.169
-444.851	-179.436	-0.238	0.005
-443.836	189.580	0.091	-0.136
-442.822	-200.000	0.074	0.413
-441.807	130.463	-0.178	-0.227
-440.792	-85.893	0.066	0.020
-439.778	-200.000	-0.006	-0.101
-438.763	-148.648	-0.227	0.018
-437.749	275.452	0.053	0.094
-436.734	-200.000	0.015	0.170
-435.719	-53.656	-0.185	0.084
-434.705	800.000	0.081	-0.327
-433.690	-87.745	0.161	-0.048
-432.676	-100.836	0.178	0.044
-431.661	174.070	-0.125	0.180
-430.646	-55.132	0.196	0.088
-429.632	-200.000	0.047	-0.218
-428.617	-200.000	-0.002	0.103
-427.603	-42.956	-0.056	-0.028
-426.588	-200.000	0.002	-0.180
-425.573	-200.000	-0.070	0.345
-424.559	3.770	0.305	-0.221
-423.544	162.946	-0.235	0.329
-422.530	-108.863	-0.327	0.070
-421.515	-13.002	-0.186	0.121
-420.500	800.000	0.016	0.066
-419.486	9.562	0.087	-0.066
-418.471	-63.403	0.222	-0.091
-417.457	800.000	-0.090	-0.296
-416.442	71.076	-0.087	0.089
-415.428	-200.000	0.016	0.119
-414.413	62.502	0.142	-0.141
-413.398	800.000	0.023	-0.091
-412.384	-181.751	0.311	0.006
-411.369	237.100	-0.131	-0.216
-410.355	800.000	0.095	-0.375
-409.340	-119.813	0.197	-0.034
-408.325	184.458	-0.086	-0.126
-407.311	162.737	-0.184	-0.257
-406.296	673.973	-0.149	-0.385
-405.282	-145.278	0.172	-0.015
-404.267	-77.364	0.103	0.036
-403.252	165.423	0.089	-0.125
-402.238	-121.102	-0.230	0.038
-401.223	-89.044	0.279	-0.082
-400.209	-200.000	-0.018	-0.094
-399.194	-200.000	0.287	-0.001
-398.179	-39.261	0.148	-0.077
-397.165	-1.839	-0.140	0.098
-396.150	436.163	-0.117	0.253
-395.136	800.000	0.104	0.326
-394.121	156.316	0.037	0.050
-393.106	-16.121	-0.333	-0.210
-392.092	147.647	0.055	0.074
-391.077	37.948	-0.117	-0.103
-390.063	-67.886	0.059	0.023
-389.048	123.103	-0.173	-0.215
-388.033	110.809	0.182	0.218
-387.019	-18.830	0.250	0.155
-386.004	800.000	-0.047	-0.133
-384.990	-34.185	-0.299	0.163
-383.975	-110.297	-0.016	-0.003
-382.960	-120.983	0.136	0.023
-381.946	-50.383	-0.368	-0.173
-380.931	487.868	0.105	-0.237
-379.917	241.975	0.172	-0.286
-378.902	282.292	-0.084	0.149
-377.888	50.405	-0.080	-0.075
-376.873	-86.094	-0.128	0.039
-375.858	49.691	-0.352	-0.330
-374.844	-129.891	-0.336	-0.046
-373.829	-200.000	-0.003	0.049
-372.815	123.654	-0.201	0.250
-371.800	800.000	0.021	0.087
-370.785	-200.000	-0.011	-0.322
-369.771	-30.716	-0.129	0.072
-368.756	800.000	0.057	0.231
-367.742	-63.291	0.122	0.050
-366.727	165.486	-0.141	0.198
-365.712	-200.000	-0.005	-0.246
-364.698	204.321	0.151	-0.232
-363.683	122.057	-0.227	0.281
-362.669	73.037	0.062	0.065
-361.654	-200.000	0.041	-0.441
-360.639	-200.000	0.010	-0.092
-359.625	-114.523	0.203	-0.039
-358.610	-162.522	0.343	-0.017
-357.596	-81.710	0.182	0.059
-356.581	553.355	0.052	0.124
-355.566	171.107	-0.111	-0.158
-354.552	-200.000	-0.006	-0.077
-353.537	-77.921	-0.087	-0.030
-352.523	-25.928	-0.086	-0.050
-351.508	-200.000	-0.029	-0.149
-350.493	319.771	0.109	-0.205
-349.479	-200.000	-0.066	0.321
-348.464	-90.839	-0.426	-0.122
-347.450	-78.490	-0.186	-0.063
-346.435	-100.399	-0.257	0.063
-345.420	108.702	-0.164	0.194
-344.406	105.985	0.078	0.092
-343.391	800.000	0.036	0.117
-342.377	-200.000	0.009	0.134
-341.362	-51.949	0.305	-0.141
-340.348	20.389	0.229	-0.183
-339.333	800.000	-0.036	0.137
-338.318	152.510	0.128	-0.173
-337.304	83.816	-0.240	-0.260
-336.289	557.972	-0.086	0.205
-335.275	-137.639	0.339	0.038
-334.260	64.089	-0.154	-0.154
-333.245	-200.000	-0.014	-0.068
-332.231	-135.913	-0.097	0.011
-331.216	800.000	-0.039	-0.110
-330.202	241.890	-0.181	0.300
-329.187	-10.741	0.377	-0.247
-328.172	-89.311	0.137	-0.040
-327.158	800.000	-0.041	-0.157
-326.143	-155.336	0.234	0.015
-325.129	-60.802	-0.224	0.094
-324.114	-82.849	-0.080	0.026
-323.099	-132.419	0.031	0.004
-322.085	464.268	0.051	-0.114
-321.070	-120.880	-0.405	-0.068
-320.056	-23.678	-0.183	0.109
-319.041	-3.649	0.347	0.239
-318.026	-34.265	0.172	-0.094
-317.012	-68.007	0.236	0.091
-315.997	78.238	-0.269	0.285
-314.983	30.760	-0.189	0.161
-313.968	14.310	-0.236	0.182
-312.953	-178.123	0.558	0.013
-311.939	-200.000	0.008	-0.243
-310.924	800.000	-0.045	-0.162
-309.910	-200.000	0.036	0.175
-308.895	800.000	-0.028	0.090
-307.880	21.256	-0.089	0.072
-306.866	-76.640	0.332	0.115
-305.851	-194.859	0.164	-0.001
-304.837	202.678	-0.051	0.078
-303.822	-145.888	0.169	-0.015
-302.807	-140.080	-0.409	0.043
-301.793	328.454	0.028	-0.052
-300.778	800.000	-0.041	0.111
-299.764	-87.286	0.232	0.070
-298.749	-44.112	0.255	-0.127
-297.735	77.199	-0.137	0.144
-296.720	-200.000	0.056	0.276
-295.705	-132.213	0.078	-0.010
-294.691	800.000	-0.063	-0.177
-293.676	114.831	0.159	0.192
-292.662	71.995	0.164	0.169
-291.647	-15.300	0.100	-0.064
-290.632	800.000	0.011	-0.040
-289.618	-200.000	0.059	-0.314
-288.603	76.338	-0.150	-0.157
-287.589	135.990	-0.170	0.219
-286.574	-200.000	0.016	0.094
-285.559	-126.577	-0.129	-0.019
-284.545	64.965	-0.226	-0.226
-283.530	772.640	-0.037	-0.100
-282.516	-145.730	-0.229	0.020
-281.501	190.226	0.128	-0.190
-280.486	-47.977	0.222	-0.106
-279.472	27.664	0.134	-0.112
-278.457	299.726	0.073	0.133
-277.443	-89.773	0.220	0.064
-276.428	-71.995	-0.332	0.122
-275.413	-200.000	0.009	-0.129
-274.399	-91.026	-0.255	0.073
-273.384	-148.741	-0.295	0.024
-272.370	-200.000	-0.054	0.392
-271.355	800.000	-0.067	-0.195
-270.340	686.420	-0.150	-0.387
-269.326	171.388	-0.212	0.301
-268.311	-200.000	0.009	-0.161
-267.297	208.231	0.038	-0.059
-266.282	158.997	-0.132	0.181
-265.267	364.682	-0.116	-0.232
-264.253	291.864	0.125	-0.226
-263.238	800.000	-0.056	0.158
-262.224	342.066	0.107	0.207
-261.209	-200.000	0.025	0.355
-260.195	-143.468	0.296	0.028
-259.180	48.739	0.106	0.099
-258.165	322.285	0.096	0.180
-257.151	347.959	-0.022	0.043
-256.136	57.103	-0.148	0.142
-255.122	-39.507	0.126	0.065
-254.107	90.336	0.102	0.113
-253.092	-166.033	0.093	0.004
-252.078	780.717	0.028	0.076
-251.063	-200.000	0.079	0.416
-250.049	4.735	0.198	0.143
-249.034	61.850	-0.110	0.108
-248.019	12.685	0.127	0.097
-247.005	-71.081	-0.114	-0.042
-245.990	-120.812	0.348	0.058
-244.976	-78.483	0.391	-0.132
-243.961	-200.000	-0.028	0.246
-242.946	-200.000	0.023	-0.189
-241.932	-46.208	0.236	-0.115
-240.917	800.000	0.078	-0.280
-239.903	-36.876	-0.147	0.078
-238.888	616.630	0.072	-0.178
-237.873	123.482	-0.207	0.256
-236.859	-200.000	-0.086	0.430
-235.844	-200.000	-0.023	0.223
-234.830	198.265	0.124	-0.188
-233.815	-10.718	-0.427	0.279
-232.800	-3.741	-0.081	0.055
-231.786	-200.000	-0.011	0.380
-230.771	-89.869	0.156	-0.045
-229.757	-200.000	-0.023	-0.123
-228.742	119.230	0.082	0.100
-227.727	-83.414	0.286	0.090
-226.713	-200.000	0.035	0.267
-225.698	320.691	0.123	0.230
-224.684	97.923	0.218	0.248
-223.669	-5.776	-0.281	-0.190
-222.655	800.000	0.044	-0.129
-221.640	-50.542	0.078	-0.036
-220.625	171.304	-0.086	0.122
-219.611	-147.618	-0.120	0.010
-218.596	-50.323	0.274	-0.128
-217.582	11.003	0.081	0.061
-216.567	-196.893	0.102	-0.001
-215.552	-68.184	-0.072	-0.028
-214.538	-200.000	0.036	-0.206
-213.523	-200.000	-0.012	-0.164
-212.509	-87.402	0.232	-0.069
-211.494	0.842	-0.238	0.168
-210.479	-67.155	-0.059	0.023
-209.465	203.705	0.099	0.151
-208.450	-35.100	-0.053	0.029
-207.436	800.000	0.070	0.246
-206.421	-7.140	0.260	-0.174
-205.406	-51.793	0.078	0.036
-204.392	159.764	-0.220	0.303
-203.377	-178.913	-0.120	0.003
-202.363	12.570	-0.197	0.150
-201.348	299.569	0.096	0.175
-200.333	265.828	0.036	0.061
-199.319	-158.095	-0.292	-0.017
-198.304	-17.270	-0.162	0.101
-197.290	340.602	0.079	0.152
-196.275	-135.835	0.019	0.002
-195.260	642.939	0.119	-0.298
-194.246	12.238	-0.066	-0.050
-193.231	36.692	0.476	-0.414
-192.217	89.593	-0.211	-0.232
-191.202	109.542	0.052	0.061
-190.187	-130.177	0.234	0.031
-189.173	-91.597	0.145	0.041
-188.158	-200.000	-0.002	0.070
-187.144	59.666	-0.076	-0.074
-186.129	455.819	0.026	0.057
-185.114	24.261	-0.117	0.096
-184.100	800.000	0.072	-0.249
-183.085	330.585	-0.102	0.194
-182.071	-75.915	0.307	-0.107
-181.056	63.375	-0.039	-0.039
-180.042	133.329	0.059	0.075
-179.027	39.956	0.253	0.224
-178.012	-8.824	-0.122	-0.080
-176.998	-78.784	-0.334	-0.112
-175.983	39.142	-0.242	-0.213
-174.969	191.303	0.173	-0.257
-173.954	272.764	0.102	0.177
-172.939	294.738	0.042	0.075
-171.925	-200.000	-0.025	0.163
-170.910	-160.421	-0.283	0.015
-169.896	-42.719	0.225	0.113
-168.881	240.172	-0.169	0.278
-167.866	-104.740	0.060	-0.014
-166.852	7.050	0.309	0.227
-165.837	-200.000	0.038	-0.370
-164.823	800.000	0.099	0.275
-163.808	-200.000	-0.029	-0.229
-162.793	160.856	0.135	-0.185
-161.779	-200.000	0.039	0.315
-160.764	-135.284	-0.091	0.011
-159.750	35.360	0.255	-0.220
-158.735	164.643	0.212	-0.295
-157.720	-78.738	-0.259	-0.087
-156.706	154.415	0.152	0.205
-155.691	-21.191	-0.044	-0.027
-154.677	512.324	0.129	-0.297
-153.662	-200.000	0.011	-0.209
-152.647	-200.000	0.064	-0.311
-151.633	-144.291	0.273	0.025
-150.618	-37.986	-0.150	0.078
-149.604	-200.000	-0.010	0.215
-148.589	338.595	-0.149	0.285
-147.574	37.046	-0.402	0.350
-146.560	-76.126	-0.235	0.082
-145.545	800.000	0.052	0.212
-144.531	-200.000	-0.000	0.020
-143.516	178.796	0.183	-0.264
-142.502	-2.435	-0.030	-0.020
-141.487	-102.146	0.148	0.035
-140.472	112.084	0.235	0.279
-139.458	-200.000	-0.003	0.536
-138.443	452.574	-0.074	-0.161
-137.429	79.254	0.195	0.206
-136.414	-0.390	-0.216	0.151
-135.399	-50.608	0.071	0.033
-134.385	-73.845	0.026	-0.009
-133.370	-43.033	0.062	-0.031
-132.356	41.877	-0.280	0.250
-131.341	-200.000	-0.047	0.314
-130.326	58.216	0.136	0.131
-129.312	40.151	-0.277	0.245
-128.297	-105.636	-0.235	-0.052
-127.283	8.342	-0.012	-0.009
-126.268	-99.494	-0.336	0.083
-125.253	59.163	-0.160	-0.155
-124.239	233.216	0.046	0.074
-123.224	-200.000	0.012	-0.070
-122.210	-200.000	-0.047	-0.395
-121.195	-200.000	-0.024	0.175
-120.180	-57.519	0.292	0.126
-119.166	-142.352	-0.155	0.015
-118.151	66.397	0.132	0.132
-117.137	-185.834	-0.136	-0.002
-116.122	-10.736	0.172	0.112
-115.107	1.039	-0.066	0.047
-114.093	-128.427	0.170	-0.024
-113.078	-177.570	-0.195	-0.005
-112.064	167.092	0.156	0.218
-111.049	42.284	-0.334	0.298
-110.034	-200.000	0.057	0.350
-109.020	530.253	-0.122	0.284
-108.005	800.000	-0.011	-0.042
-106.991	-200.000	0.016	-0.161
-105.976	149.461	-0.166	0.221
-104.962	-43.758	-0.220	0.109
-103.947	-120.727	-0.207	-0.034
-102.932	5.453	0.194	-0.141
-101.918	-157.309	-0.167	-0.010
-100.903	427.212	0.103	0.218
-99.889	800.000	0.041	0.157
-98.874	-200.000	0.063	0.309
-97.859	215.217	0.146	-0.228
-96.845	69.848	0.317	-0.321
-95.830	-85.027	-0.269	0.083
-94.816	-144.177	-0.282	-0.026
-93.801	108.791	0.096	-0.112
-92.786	-61.540	0.341	-0.141
-91.772	452.579	-0.022	-0.047
-90.757	55.227	0.286	-0.272
-89.743	-138.749	0.086	0.009
-88.728	-67.871	0.143	0.055
-87.713	-11.755	-0.199	0.128
-86.699	13.137	-0.079	0.060
-85.684	51.093	0.166	0.154
-84.670	-164.580	-0.228	-0.010
-83.655	-27.547	0.118	-0.067
-82.640	800.000	-0.086	0.326
-81.626	-200.000	0.000	0.057
-80.611	197.966	0.148	0.223
-79.597	-72.078	0.369	0.135
-78.582	306.325	0.075	0.138
-77.567	800.000	-0.054	0.225
-76.553	800.000	0.081	-0.283
-75.538	-102.427	0.416	0.098
-74.524	-62.077	0.128	0.052
-73.509	800.000	-0.111	0.337
-72.494	-60.620	0.189	0.079
-71.480	800.000	0.103	0.325
-70.465	800.000	-0.138	-0.376
-69.451	12.722	-0.146	-0.110
-68.436	292.534	0.096	0.172
-67.422	-13.418	0.161	-0.103
-66.407	-116.697	0.181	0.033
-65.392	80.112	0.137	0.145
-64.378	800.000	-0.069	0.208
-63.363	-200.000	-0.016	0.091
-62.349	-200.000	-0.030	0.418
-61.334	48.427	-0.935	-0.858
-60.319	42.844	0.572	0.511
-59.305	-200.000	-0.097	-1.064
-58.290	166.759	0.737	1.025
-57.276	800.000	0.521	1.821
-56.261	-200.000	105.603	611.363
-55.246	501.260	1507.906	3413.951
-54.232	174.657	2709.987	3844.772
-53.217	104.816	2301.526	2660.577
-52.203	38.699	1905.691	1667.668
-51.188	32.761	1691.072	1434.793
-50.173	30.163	1647.671	1378.622
-49.159	49.012	1701.625	1566.721
-48.144	49.325	1717.058	1583.235
-47.130	32.276	1674.794	1417.100
-46.115	29.682	1659.837	1384.980
-45.100	29.544	1654.436	1379.388
-44.086	29.414	1651.982	1376.314
-43.071	29.417	1649.312	1374.063
-42.057	29.392	1646.889	1371.804
-41.042	29.512	1645.201	1371.235
-40.027	29.494	1642.955	1369.174
-39.013	29.426	1641.143	1367.100
-37.998	29.393	1640.249	1366.056
-36.984	29.477	1638.344	1365.044
-35.969	29.532	1637.320	1364.540
-34.954	29.614	1635.052	1363.204
-33.940	29.573	1633.106	1361.219
-32.925	29.563	1631.769	1359.981
-31.911	29.523	1629.906	1358.077
-30.896	29.553	1628.278	1356.889
-29.881	29.625	1626.132	1355.574
-28.867	29.541	1624.819	1353.809
-27.852	29.552	1623.479	1352.720
-26.838	29.472	1622.546	1351.304
-25.823	29.509	1620.948	1350.188
-24.809	29.515	1619.898	1349.308
-23.794	29.597	1618.156	1348.402
-22.779	29.576	1616.531	1346.839
-21.765	29.573	1614.536	1345.105
-20.750	29.579	1613.224	1344.000
-19.736	29.594	1611.947	1342.993
-18.721	29.640	1610.438	1342.011
-17.706	29.611	1609.336	1340.834
-16.692	29.581	1607.527	1339.058
-15.677	29.628	1606.140	1338.189
-14.663	29.635	1604.948	1337.190
-13.648	29.561	1603.828	1335.671
-12.633	29.674	1601.459	1334.460
-11.619	29.578	1600.486	1332.903
-10.604	29.557	1599.451	1331.840
-9.590	29.639	1597.313	1330.596
-8.575	29.657	1596.283	1329.815
-7.560	29.542	1595.793	1328.523
-6.546	29.641	1594.297	1327.939
-5.531	29.628	1593.344	1327.001
-4.517	29.605	1591.750	1325.451
-3.502	29.536	1590.968	1324.254
-2.487	29.688	1588.994	1323.647
-1.473	29.360	1577.478	1311.672
-0.458	26.566	1558.662	1276.307
0.556	20.811	1560.257	1246.514
1.571	18.716	1585.069	1250.973
2.586	18.490	1598.844	1260.070
3.600	16.764	1546.281	1206.256
4.615	8.865	1436.376	1067.975
5.629	1.204	1372.061	971.155
6.644	-0.157	1364.198	956.838
7.659	-0.260	1362.832	955.142
8.673	-0.288	1362.256	954.472
9.688	-0.405	1360.196	952.201
10.702	-0.478	1357.071	949.465
11.717	3.069	1363.799	976.648
12.731	12.431	1381.281	1049.079
13.746	19.656	1393.597	1104.700
14.761	21.564	1396.236	1118.903
15.775	21.864	1396.706	1121.105
16.790	21.980	1395.808	1121.019
17.804	22.060	1395.327	1121.049
18.819	22.326	1394.946	1122.338
19.834	22.297	1394.698	1121.854
20.848	22.462	1393.765	1122.059
21.863	22.457	1392.570	1120.966
22.877	22.457	1391.764	1120.219
23.892	22.413	1391.353	1119.507
24.907	22.467	1390.424	1119.002
25.921	22.382	1389.540	1117.651
26.936	22.324	1388.573	1116.407
27.950	22.424	1387.208	1115.845
28.965	22.407	1386.311	1114.916
29.980	22.450	1384.618	1113.728
30.994	22.390	1384.128	1112.856
32.009	22.399	1382.751	1111.712
33.023	22.456	1381.858	1111.254
34.038	22.255	1380.592	1108.867
35.053	22.350	1379.619	1108.587
36.067	22.359	1378.813	1107.895
37.082	22.404	1377.614	1107.117
38.096	22.245	1377.263	1105.742
39.111	22.282	1376.344	1105.135
40.126	22.347	1375.684	1104.916
41.140	22.324	1375.074	1104.188
42.155	22.335	1374.692	1103.849
43.169	22.397	1374.497	1103.987
44.184	22.373	1374.065	1103.391
45.199	22.300	1373.942	1102.736
46.213	22.387	1373.101	1102.505
47.228	22.418	1372.017	1101.734
48.242	22.333	1370.859	1100.176
49.257	22.407	1369.130	1099.154
50.271	22.301	1368.537	1097.920
51.286	22.257	1367.078	1096.374
52.301	22.404	1365.462	1095.897
53.315	22.392	1364.651	1095.072
54.330	22.364	1363.845	1094.160
55.344	22.291	1362.761	1092.739
56.359	22.300	1361.523	1091.703
57.374	22.336	1361.149	1091.528
58.388	22.343	1360.065	1090.607
59.403	22.372	1359.924	1090.579
60.417	22.383	1358.988	1089.797
61.432	22.367	1358.219	1088.985
62.447	22.355	1357.141	1087.951
63.461	22.335	1355.947	1086.773
64.476	22.411	1355.081	1086.456
65.490	22.386	1353.873	1085.237
66.505	22.430	1352.539	1084.341
67.520	22.448	1351.208	1083.289
68.534	22.432	1350.497	1082.523
69.549	22.398	1349.303	1081.260
70.563	22.441	1348.666	1080.919
71.578	22.412	1347.475	1079.692
72.593	22.428	1346.610	1079.000
73.607	22.493	1346.041	1078.848
74.622	22.559	1345.189	1078.472
75.636	22.472	1344.240	1077.087
76.651	22.334	1343.754	1075.761
77.666	22.403	1343.379	1075.784
78.680	22.411	1342.986	1075.421
79.695	22.420	1341.801	1074.432
80.709	22.385	1341.255	1073.686
81.724	22.408	1340.319	1072.986
82.739	22.347	1339.401	1071.785
83.753	22.364	1338.523	1071.090
84.768	22.413	1337.201	1070.234
85.782	22.337	1336.112	1068.807
86.797	22.436	1335.062	1068.475
87.812	22.351	1334.088	1067.082
88.826	22.406	1333.061	1066.498
89.841	22.428	1331.908	1065.616
90.855	22.387	1330.677	1064.288
91.870	22.435	1330.100	1064.025
92.884	22.380	1329.169	1062.853
93.899	22.361	1328.415	1062.041
94.914	22.432	1327.792	1061.880
95.928	22.455	1326.598	1060.965
96.943	22.591	1325.478	1060.794
97.957	22.525	1325.188	1060.072
98.972	22.475	1324.085	1058.797
99.987	22.437	1323.394	1057.922
101.001	22.479	1322.164	1057.095
102.016	22.355	1321.350	1055.607
103.030	22.396	1320.993	1055.475
104.045	22.411	1319.904	1054.600
105.060	22.454	1318.812	1053.893
106.074	22.455	1317.373	1052.654
107.089	22.612	1315.931	1052.346
108.103	22.490	1315.511	1051.194
109.118	22.455	1314.817	1050.338
110.133	22.608	1313.077	1049.764
111.147	22.536	1311.959	1048.350
112.162	22.552	1310.825	1047.444
113.176	22.516	1309.988	1046.468
114.191	22.519	1309.375	1045.908
115.206	22.636	1307.672	1045.146
116.220	22.538	1306.636	1043.646
117.235	22.527	1306.106	1043.065
118.249	22.504	1305.290	1042.184
119.264	22.535	1304.221	1041.422
120.279	22.564	1303.474	1040.906
121.293	22.599	1302.516	1040.255
122.308	22.636	1301.547	1039.604
123.322	22.639	1300.533	1038.724
124.337	22.607	1299.975	1037.998
125.352	22.545	1299.222	1036.939
126.366	22.663	1297.835	1036.431
127.381	22.600	1297.235	1035.489
128.395	22.735	1295.713	1034.980
129.410	22.610	1295.191	1033.736
130.424	22.589	1294.735	1033.159
131.439	22.583	1293.917	1032.377
132.454	22.437	1293.181	1030.842
133.468	22.490	1292.424	1030.459
134.483	22.526	1291.756	1030.045
135.497	22.676	1290.348	1029.707
136.512	22.535	1289.517	1028.133
137.527	22.574	1288.191	1027.210
138.541	22.593	1287.032	1026.307
139.556	22.554	1285.910	1025.094
140.570	22.449	1285.111	1023.753
141.585	22.551	1283.734	1023.161
142.600	22.483	1282.806	1021.936
143.614	22.553	1281.679	1021.356
144.629	22.531	1280.634	1020.302
145.643	22.489	1279.624	1019.163
146.658	22.380	1279.092	1018.020
147.673	22.493	1277.849	1017.597
148.687	22.471	1276.719	1016.479
149.702	22.482	1275.704	1015.641
150.716	22.435	1274.573	1014.382
151.731	22.488	1273.132	1013.449
152.746	22.539	1272.674	1013.291
153.760	22.556	1271.333	1012.227
154.775	22.622	1270.560	1011.907
155.789	22.656	1269.144	1010.884
156.804	22.393	1269.082	1009.233
157.819	22.534	1268.115	1009.182
158.833	22.535	1267.070	1008.271
159.848	22.564	1266.437	1007.840
160.862	22.688	1265.154	1007.442
161.877	22.630	1264.466	1006.470
162.892	22.564	1264.002	1005.638
163.906	22.645	1263.192	1005.367
164.921	22.684	1262.286	1004.776
165.935	22.691	1261.470	1004.081
166.950	22.624	1261.086	1003.303
167.964	22.605	1260.463	1002.613
168.979	22.787	1259.310	1002.640
169.994	22.613	1259.073	1001.372
171.008	22.698	1258.514	1001.324
172.023	22.809	1257.073	1000.717
173.037	22.690	1256.329	999.364
174.052	22.776	1255.863	999.387
175.067	22.633	1255.342	998.080
176.081	22.683	1254.607	997.688
177.096	22.725	1253.700	997.116
178.110	22.662	1252.936	996.062
179.125	22.692	1251.638	995.111
180.140	22.720	1250.534	994.306
181.154	22.703	1249.898	993.613
182.169	22.705	1248.524	992.448
183.183	22.796	1247.212	991.825
184.198	22.796	1246.630	991.277
185.213	22.799	1245.631	990.411
186.227	22.748	1244.861	989.425
187.242	22.800	1243.891	988.859
188.256	22.810	1242.996	988.112
189.271	22.687	1242.087	986.619
190.286	22.760	1241.815	986.724
191.300	22.760	1240.996	985.986
192.315	22.646	1240.724	985.045
193.329	22.904	1239.641	985.539
194.344	22.744	1239.317	984.301
195.359	22.756	1238.884	983.932
196.373	22.751	1238.806	983.760
197.388	22.793	1238.304	983.508
198.402	22.698	1237.342	982.127
199.417	22.783	1237.156	982.367
200.432	22.929	1236.526	982.588
201.446	22.816	1236.029	981.481
202.461	22.726	1235.262	980.285
203.475	22.823	1233.980	979.717
204.490	22.716	1233.380	978.564
205.504	22.827	1231.961	977.963
206.519	22.899	1230.957	977.479
207.534	22.806	1230.547	976.553
208.548	22.833	1229.526	975.805
209.563	22.896	1228.568	975.305
210.577	22.865	1227.677	974.342
211.592	22.805	1227.013	973.395
212.607	22.898	1226.102	973.101
213.621	22.881	1225.473	972.423
214.636	22.896	1224.914	971.978
215.650	22.858	1224.306	971.196
216.665	22.856	1223.099	970.144
217.680	22.875	1222.066	969.343
218.694	22.997	1221.585	969.543
219.709	22.962	1221.013	968.814
220.723	22.989	1219.897	967.988
221.738	22.942	1219.642	967.446
222.753	22.951	1218.134	966.212
223.767	22.903	1218.219	965.929
224.782	22.952	1217.985	965.926
225.796	23.051	1217.340	965.871
226.811	23.012	1216.479	964.888
227.826	22.895	1216.184	963.933
228.840	22.980	1215.177	963.511
229.855	22.890	1215.003	962.798
230.869	22.938	1214.320	962.431
231.884	22.957	1213.214	961.573
232.899	23.048	1212.083	961.087
233.913	22.909	1212.022	960.199
234.928	23.174	1211.133	960.851
235.942	23.136	1210.915	960.385
236.957	23.030	1210.259	959.205
237.972	22.976	1209.190	957.982
238.986	23.057	1208.500	957.790
240.001	23.035	1208.277	957.404
241.015	23.095	1207.540	957.065
242.030	23.119	1206.484	956.270
243.045	23.178	1206.041	956.154
244.059	23.200	1204.891	955.274
245.074	23.158	1204.250	954.456
246.088	23.212	1203.613	954.158
247.103	23.307	1202.299	953.543
248.117	23.121	1202.313	952.469
249.132	23.232	1201.265	952.154
250.147	23.181	1200.670	951.324
251.161	23.291	1199.406	950.825
252.176	23.293	1198.593	950.108
253.190	23.306	1198.023	949.642
254.205	23.310	1197.737	949.353
255.220	23.130	1197.661	948.246
256.234	23.302	1196.547	948.202
257.249	23.245	1196.389	947.685
258.263	23.227	1195.424	946.743
259.278	23.185	1195.083	946.164
260.293	23.257	1194.549	946.040
261.307	23.345	1193.662	945.726
262.322	23.413	1192.992	945.472
263.336	23.345	1192.480	944.619
264.351	23.225	1192.067	943.571
265.366	23.328	1191.726	943.766
266.380	23.258	1190.992	942.730
267.395	23.317	1190.316	942.422
268.409	23.288	1189.575	941.600
269.424	23.385	1188.526	941.200
270.439	23.367	1188.123	940.701
271.453	23.390	1187.577	940.310
272.468	23.197	1187.078	938.807
273.482	23.314	1186.641	939.001
274.497	23.296	1186.038	938.346
275.512	23.485	1185.063	938.492
276.526	23.372	1184.607	937.447
277.541	23.330	1184.134	936.767
278.555	23.394	1183.629	936.622
279.570	23.424	1182.296	935.646
280.585	23.371	1181.950	935.008
281.599	23.434	1180.914	934.437
282.614	23.475	1179.911	933.779
283.628	23.548	1179.040	933.390
284.643	23.452	1178.657	932.500
285.657	23.415	1177.793	931.539
286.672	23.434	1176.640	930.645
287.687	23.561	1175.693	930.481
288.701	23.489	1175.338	929.735
289.716	23.587	1174.161	929.239
290.730	23.567	1174.085	928.990
291.745	23.573	1173.127	928.179
292.760	23.546	1172.535	927.488
293.774	23.594	1171.952	927.200
294.789	23.439	1171.606	926.031
295.803	23.618	1171.067	926.456
296.818	23.678	1170.224	926.025
297.833	23.622	1169.568	925.130
298.847	23.592	1168.839	924.314
299.862	23.785	1167.904	924.500
300.876	23.613	1167.580	923.265
301.891	23.665	1167.188	923.144
302.906	23.629	1166.337	922.203
303.920	23.762	1165.361	922.037
304.935	23.678	1165.326	921.492
305.949	23.661	1164.804	920.912
306.964	23.749	1163.740	920.447
307.979	23.719	1163.118	919.718
308.993	23.861	1162.683	920.025
310.008	23.826	1161.432	918.774
311.022	23.733	1161.055	917.912
312.037	23.705	1160.412	917.182
313.052	23.730	1159.417	916.440
314.066	23.814	1158.453	916.028
315.081	23.709	1157.961	915.020
316.095	23.724	1157.381	914.559
317.110	23.848	1156.123	914.120
318.125	23.781	1155.677	913.342
319.139	23.758	1155.394	912.918
320.154	23.718	1155.060	912.371
321.168	23.845	1154.256	912.303
322.183	23.823	1153.658	911.639
323.197	23.761	1153.184	910.868
324.212	23.842	1152.434	910.609
325.227	23.843	1151.896	910.105
326.241	24.016	1151.166	910.337
327.256	23.918	1150.702	909.389
328.270	23.856	1149.565	908.089
329.285	23.941	1149.099	908.077
330.300	24.083	1147.986	907.842
331.314	23.865	1147.157	905.996
332.329	23.934	1146.338	905.618
333.343	23.929	1145.842	905.120
334.358	23.966	1144.944	904.522
335.373	24.050	1144.286	904.345
336.387	24.008	1143.778	903.650
337.402	24.047	1143.166	903.287
338.416	24.062	1142.160	902.485
339.431	24.065	1142.042	902.329
340.446	24.075	1141.493	901.867
341.460	24.067	1140.492	900.956
342.475	24.060	1139.798	900.292
343.489	23.984	1139.009	899.207
344.504	24.117	1137.987	898.990
345.519	24.116	1137.310	898.371
346.533	24.184	1136.101	897.677
347.548	24.109	1135.686	896.896
348.562	24.144	1134.929	896.394
349.577	24.147	1134.326	895.855
350.592	24.060	1133.390	894.598
351.606	24.067	1132.980	894.229
352.621	24.078	1132.355	893.711
353.635	24.204	1132.144	894.097
354.650	24.210	1131.030	893.172
355.665	24.197	1130.361	892.497
356.679	24.235	1129.701	892.087
357.694	24.257	1129.100	891.643
358.708	24.320	1128.497	891.405
359.723	24.269	1127.401	890.205
360.738	24.264	1126.831	889.651
361.752	24.269	1126.692	889.489
362.767	24.257	1125.993	888.796
363.781	24.317	1125.187	888.382
364.796	24.332	1124.893	888.146
365.810	24.380	1124.347	887.872
366.825	24.303	1123.591	886.816
367.840	24.281	1123.480	886.538
368.854	24.460	1122.707	886.739
369.869	24.497	1121.395	885.810
370.883	24.380	1121.185	884.984
371.898	24.304	1120.854	884.268
372.913	24.353	1120.209	883.925
373.927	24.403	1119.753	883.735
374.942	24.615	1118.704	883.879
375.956	24.621	1118.350	883.546
376.971	24.541	1117.275	882.224
377.986	24.530	1116.755	881.683
379.000	24.372	1117.079	881.082
380.015	24.464	1116.551	881.040
381.029	24.605	1115.259	880.636
382.044	24.564	1114.318	879.612
383.059	24.490	1114.564	879.366
384.073	24.629	1113.388	879.045
385.088	24.557	1112.537	877.940
386.102	24.621	1111.729	877.539
387.117	24.527	1110.979	876.410
388.132	24.522	1110.075	875.595
389.146	24.685	1109.485	875.848
390.161	24.539	1109.172	874.811
391.175	24.573	1108.348	874.247
392.190	24.642	1107.851	874.118
393.205	24.502	1107.255	872.884
394.219	24.535	1106.195	872.135
395.234	24.714	1105.145	872.101
396.248	24.683	1104.411	871.294
397.263	24.671	1103.794	870.674
398.278	24.794	1103.054	870.610
399.292	24.820	1102.340	870.095
400.307	24.808	1101.584	869.362
401.321	24.728	1101.222	868.611
402.336	24.770	1100.522	868.188
403.350	24.686	1100.209	867.457
404.365	24.786	1099.200	867.070
405.380	24.801	1098.694	866.663
406.394	24.757	1098.049	865.867
407.409	24.763	1097.308	865.234
408.423	24.907	1096.425	865.159
409.438	25.012	1095.684	865.005
410.453	24.878	1095.260	863.948
411.467	24.843	1094.542	863.136
412.482	24.900	1093.576	862.570
413.496	24.988	1092.714	862.238
414.511	25.019	1092.325	862.002
415.526	24.987	1091.970	861.492
416.540	25.010	1091.412	861.086
417.555	24.876	1091.178	860.185
418.569	24.960	1090.459	859.943
419.584	24.853	1090.371	859.283
420.599	24.989	1089.660	859.301
421.613	147.809	1403.255	1798.244
422.628	136.721	1448.917	1798.322
