DTS Sentinel unit serial number:	SN413079Multiplexer serial number:	ORYXHardware model number:	OX4-SRSoftware version number:	ORYX F/W v4.00 Oryx Data Collector v3.7.2.0data status	okinstallation	princeton_trtdifferential loss correction	single-endedforward channel	channel 2reverse channel	N/Adate	2019/09/15time	18:55:34forward acquisition time	60.00reverse acquisition time	0.00gamma	496.2192k internal	0.2294k external	0.2294temperature offset calibration	0.9924default loss term (dB/km)	0.3790temperature slope calibration	1.0000multiplexer offset coefficient	1.0000multiplexer slope coefficient	1.0000fibre end	0.00T internal ref (°C)	42.59T ext. ref 1 (°C)	6.98T ext. ref 2 (°C)	32.73length (m)	temperature (°C)	Stokes	anti-Stokes-747.200	-195.590	-0.106	-0.001
-746.185	68.392	0.308	0.322
-745.171	-8.721	-0.460	-0.315
-744.156	-122.626	-0.341	0.057
-743.142	-200.000	0.004	-0.378
-742.127	-200.000	0.028	0.227
-741.112	-200.000	0.047	0.287
-740.098	800.000	-0.105	0.313
-739.083	-38.245	0.471	-0.255
-738.069	31.946	0.123	-0.108
-737.054	800.000	-0.013	-0.056
-736.039	-200.000	-0.049	-0.225
-735.025	710.102	-0.059	-0.160
-734.010	-65.840	0.187	0.077
-732.996	-138.903	-0.137	0.015
-731.981	-20.493	-0.227	-0.142
-730.966	-200.000	0.071	0.371
-729.952	-52.408	0.082	0.039
-728.937	-200.000	0.036	-0.174
-727.923	-172.682	-0.313	-0.010
-726.908	-150.584	-0.218	0.017
-725.894	137.663	0.123	0.165
-724.879	253.273	-0.100	-0.174
-723.864	-148.582	-0.028	-0.002
-722.850	74.872	-0.025	0.027
-721.835	3.611	0.043	0.032
-720.821	227.915	-0.103	-0.171
-719.806	800.000	0.052	-0.225
-718.791	69.215	0.085	-0.090
-717.777	12.559	-0.171	-0.135
-716.762	397.289	-0.073	-0.156
-715.748	187.713	-0.066	-0.101
-714.733	38.111	-0.078	0.071
-713.718	-8.536	-0.102	0.070
-712.704	126.488	0.105	-0.136
-711.689	800.000	-0.088	-0.348
-710.675	215.410	-0.107	-0.174
-709.660	800.000	0.041	0.131
-708.645	-93.145	0.162	-0.046
-707.631	42.162	0.041	-0.038
-706.616	-120.080	-0.331	0.058
-705.602	-48.736	0.289	-0.142
-704.587	-200.000	-0.007	0.184
-703.572	-86.424	0.221	0.069
-702.558	684.489	-0.028	-0.075
-701.543	96.902	-0.048	0.056
-700.529	158.625	0.147	0.208
-699.514	332.147	0.097	-0.192
-698.499	46.928	-0.199	-0.189
-697.485	12.444	-0.203	-0.160
-696.470	-142.432	0.286	0.029
-695.456	-200.000	-0.065	0.327
-694.441	-200.000	0.019	0.170
-693.426	25.738	-0.098	-0.083
-692.412	-41.978	-0.260	0.136
-691.397	-30.854	-0.250	-0.144
-690.383	800.000	0.144	0.416
-689.368	-170.002	-0.211	-0.008
-688.354	-67.433	-0.132	-0.053
-687.339	47.808	-0.098	0.093
-686.324	-124.374	-0.236	0.038
-685.310	557.958	-0.065	-0.161
-684.295	-53.591	0.229	-0.107
-683.281	800.000	-0.090	-0.381
-682.266	-1.212	0.131	-0.095
-681.251	800.000	0.026	0.084
-680.237	-106.121	0.404	0.093
-679.222	-3.001	0.208	-0.148
-678.208	-70.355	-0.216	-0.084
-677.193	-200.000	-0.027	0.211
-676.178	800.000	-0.106	0.326
-675.164	-12.363	0.085	0.057
-674.149	-15.169	-0.281	0.183
-673.135	-3.553	-0.055	-0.039
-672.120	-121.205	0.376	-0.064
-671.105	800.000	-0.038	-0.134
-670.091	43.198	0.284	0.264
-669.076	-118.062	0.433	-0.079
-668.062	-35.288	-0.186	-0.103
-667.047	-108.162	0.236	0.052
-666.032	800.000	-0.061	0.180
-665.018	775.157	-0.092	-0.255
-664.003	-200.000	-0.015	0.226
-662.989	198.897	0.097	0.151
-661.974	294.025	0.064	-0.118
-660.959	143.493	0.121	0.164
-659.945	-93.469	0.247	-0.070
-658.930	-54.268	-0.084	-0.039
-657.916	-156.676	-0.215	-0.014
-656.901	21.828	0.278	0.230
-655.886	-107.207	-0.083	-0.019
-654.872	358.083	0.083	0.168
-653.857	800.000	0.057	-0.186
-652.843	-34.802	0.039	0.022
-651.828	20.229	-0.259	-0.213
-650.814	-164.513	0.226	-0.010
-649.799	425.254	0.098	0.216
-648.784	-200.000	-0.018	0.348
-647.770	-20.217	-0.263	-0.165
-646.755	526.687	-0.055	0.133
-645.741	-135.166	-0.334	0.041
-644.726	-200.000	-0.008	-0.237
-643.711	-52.537	0.200	0.094
-642.697	800.000	-0.065	0.205
-641.682	178.941	-0.059	-0.088
-640.668	236.572	0.213	-0.359
-639.653	800.000	0.075	-0.314
-638.638	-43.642	-0.055	-0.028
-637.624	32.993	-0.105	-0.093
-636.609	-200.000	-0.004	-0.521
-635.595	-113.356	-0.411	-0.082
-634.580	-71.033	-0.183	0.070
-633.565	800.000	0.055	0.190
-632.551	-10.159	-0.259	-0.175
-631.536	235.875	-0.095	-0.159
-630.522	-200.000	-0.004	0.105
-629.507	437.513	-0.110	-0.243
-628.492	-170.878	-0.155	0.005
-627.478	6.622	-0.149	-0.113
-626.463	-15.481	0.183	0.119
-625.449	-48.204	0.329	0.162
-624.434	236.127	-0.227	-0.382
-623.419	-81.534	-0.341	-0.114
-622.405	-145.149	0.278	0.026
-621.390	-160.840	-0.159	0.009
-620.376	-4.250	0.237	-0.167
-619.361	62.697	-0.081	-0.082
-618.346	-168.303	-0.320	-0.013
-617.332	-200.000	-0.014	0.086
-616.317	52.182	-0.290	-0.281
-615.303	193.639	0.053	0.082
-614.288	-77.655	-0.018	-0.006
-613.273	143.485	-0.030	0.040
-612.259	-151.976	0.059	0.004
-611.244	81.799	0.065	-0.071
-610.230	-118.701	0.112	-0.020
-609.215	-200.000	0.030	-0.157
-608.201	-87.231	0.131	0.041
-607.186	-194.979	0.089	0.001
-606.171	89.112	-0.042	0.048
-605.157	-200.000	0.004	0.067
-604.142	-106.851	0.165	0.037
-603.128	340.467	-0.156	0.310
-602.113	474.119	-0.072	-0.166
-601.098	-19.927	-0.128	-0.080
-600.084	144.361	-0.097	-0.132
-599.069	-116.312	0.154	0.029
-598.055	83.325	0.247	-0.274
-597.040	-200.000	0.045	0.269
-596.025	-200.000	0.028	0.235
-595.011	-200.000	-0.011	-0.157
-593.996	61.411	-0.059	-0.060
-592.982	123.928	-0.110	0.140
-591.967	-119.470	-0.131	0.023
-590.952	-133.365	-0.255	0.033
-589.938	-127.028	-0.324	-0.048
-588.923	61.121	-0.329	-0.332
-587.909	-6.163	-0.203	-0.141
-586.894	-24.334	0.083	-0.050
-585.879	552.592	0.126	0.308
-584.865	203.765	-0.126	0.198
-583.850	-89.651	-0.216	0.064
-582.836	69.581	-0.152	0.159
-581.821	10.215	0.183	0.141
-580.806	-47.916	-0.265	0.131
-579.792	96.462	-0.058	0.068
-578.777	-200.000	-0.011	0.052
-577.763	-200.000	-0.007	0.256
-576.748	-172.878	-0.345	-0.011
-575.733	242.115	-0.219	0.372
-574.719	-108.521	0.143	0.031
-573.704	-142.560	-0.377	0.038
-572.690	347.515	-0.016	0.032
-571.675	-95.014	0.126	-0.035
-570.661	-56.881	0.262	-0.118
-569.646	-3.859	0.205	-0.144
-568.631	-104.775	-0.147	0.034
-567.617	142.959	-0.089	-0.120
-566.602	800.000	0.148	0.469
-565.588	-48.459	0.306	0.150
-564.573	91.409	-0.169	0.192
-563.558	79.401	-0.135	0.147
-562.544	272.158	0.053	-0.094
-561.529	-135.096	-0.249	0.030
-560.515	124.791	0.120	0.153
-559.500	-46.224	0.291	0.145
-558.485	245.247	-0.097	-0.166
-557.471	800.000	0.079	-0.349
-556.456	673.851	0.034	-0.090
-555.442	-163.470	-0.110	-0.005
-554.427	-200.000	0.024	-0.289
-553.412	465.784	-0.050	-0.114
-552.398	-200.000	-0.077	0.550
-551.383	251.228	0.116	-0.200
-550.369	297.127	0.030	0.056
-549.354	1.063	0.248	-0.180
-548.339	-119.617	-0.338	0.059
-547.325	-139.873	0.271	0.029
-546.310	-68.378	0.379	-0.149
-545.296	-200.000	0.004	0.139
-544.281	-166.955	0.338	0.014
-543.266	-200.000	-0.184	-0.000
-542.252	-166.372	-0.389	0.017
-541.237	14.646	-0.025	0.020
-540.223	-200.000	0.035	0.299
-539.208	149.826	0.136	-0.187
-538.193	-10.117	0.177	-0.119
-537.179	800.000	0.121	0.470
-536.164	-104.265	-0.057	-0.013
-535.150	73.682	-0.076	-0.081
-534.135	78.788	0.076	0.082
-533.121	-4.688	-0.209	-0.146
-532.106	13.718	-0.090	-0.071
-531.091	168.103	-0.117	0.169
-530.077	-1.656	-0.090	-0.064
-529.062	676.354	-0.260	-0.684
-528.048	-79.347	0.123	-0.042
-527.033	-200.000	0.027	-0.124
-526.018	-80.493	-0.054	-0.018
-525.004	109.163	-0.223	0.270
-523.989	22.748	-0.118	-0.098
-522.975	84.321	-0.124	-0.137
-521.960	235.753	0.063	-0.105
-520.945	-78.462	0.151	0.052
-519.931	45.159	-0.259	-0.242
-518.916	-117.336	-0.301	-0.055
-517.902	-78.591	0.327	-0.113
-516.887	-200.000	-0.007	0.393
-515.872	62.123	0.088	0.089
-514.858	104.164	0.093	-0.111
-513.843	152.368	-0.300	-0.415
-512.829	-112.652	0.174	0.035
-511.814	-168.826	0.106	-0.004
-510.799	168.324	0.085	-0.122
-509.785	-90.425	0.124	-0.036
-508.770	-179.825	-0.291	-0.006
-507.756	-172.907	0.304	-0.010
-506.741	162.677	0.183	0.260
-505.726	145.627	-0.101	-0.137
-504.712	26.186	-0.211	-0.178
-503.697	-40.317	-0.087	0.046
-502.683	800.000	-0.102	0.335
-501.668	-50.518	-0.342	0.163
-500.653	-79.874	0.456	-0.155
-499.639	28.845	0.205	-0.176
-498.624	454.368	0.014	-0.031
-497.610	-27.415	0.329	-0.194
-496.595	-141.750	0.430	-0.044
-495.581	-200.000	-0.257	0.001
-494.566	437.162	-0.186	0.411
-493.551	-22.437	-0.216	0.132
-492.537	231.397	0.101	0.168
-491.522	-105.585	0.225	-0.052
-490.508	-51.155	-0.384	-0.182
-489.493	-32.468	-0.030	-0.017
-488.478	315.483	0.143	-0.273
-487.464	-26.165	0.023	-0.014
-486.449	800.000	0.039	-0.109
-485.435	-150.667	-0.267	0.021
-484.420	-166.952	0.198	0.008
-483.405	35.489	0.206	-0.183
-482.391	270.170	-0.072	-0.128
-481.376	-149.642	0.172	0.014
-480.362	-156.504	-0.116	0.007
-479.347	-65.930	0.195	-0.079
-478.332	-63.806	0.094	0.039
-477.318	642.903	0.048	-0.124
-476.303	218.044	0.100	0.161
-475.289	-119.338	-0.324	0.057
-474.274	710.384	0.049	0.132
-473.259	-51.771	0.102	-0.048
-472.245	-78.402	0.291	-0.101
-471.230	-133.898	0.502	0.063
-470.216	-112.912	0.510	0.102
-469.201	800.000	0.051	-0.194
-468.186	-177.717	-0.338	-0.008
-467.172	162.355	0.097	0.137
-466.157	-58.152	0.236	-0.104
-465.143	800.000	-0.082	-0.255
-464.128	-200.000	0.010	-0.134
-463.113	-3.268	-0.304	-0.214
-462.099	-125.017	-0.189	-0.029
-461.084	59.027	-0.148	0.147
-460.070	428.209	0.028	0.060
-459.055	-200.000	-0.058	-0.319
-458.040	14.464	-0.204	-0.161
-457.026	-51.644	0.068	0.032
-456.011	-76.549	-0.217	0.077
-454.997	-200.000	0.037	-0.213
-453.982	-103.437	-0.075	0.018
-452.968	-112.050	0.043	0.009
-451.953	800.000	0.011	-0.035
-450.938	54.230	0.310	0.302
-449.924	-84.788	-0.053	0.017
-448.909	-200.000	0.017	-0.147
-447.895	-116.083	-0.104	-0.020
-446.880	-200.000	-0.019	0.093
-445.865	-98.254	0.265	0.069
-444.851	276.067	-0.234	0.419
-443.836	-45.461	-0.165	-0.083
-442.822	362.201	0.065	0.132
-441.807	455.413	0.119	-0.266
-440.792	-41.580	0.145	0.075
-439.778	68.007	0.218	0.225
-438.763	800.000	-0.030	0.089
-437.749	-142.512	-0.080	-0.008
-436.734	396.803	-0.099	-0.209
-435.719	108.203	-0.177	0.214
-434.705	-122.127	-0.160	0.027
-433.690	165.621	0.213	-0.305
-432.676	-200.000	0.027	0.122
-431.661	-45.726	0.261	-0.130
-430.646	34.656	-0.063	0.056
-429.632	-200.000	-0.038	0.367
-428.617	-200.000	0.008	0.437
-427.603	-5.148	0.176	-0.122
-426.588	246.562	0.046	0.078
-425.573	356.744	0.222	0.447
-424.559	162.132	-0.121	0.171
-423.544	800.000	-0.085	-0.318
-422.530	104.856	0.044	0.052
-421.515	1.545	0.106	-0.077
-420.500	117.366	-0.087	-0.108
-419.486	-58.378	-0.118	-0.052
-418.471	-80.911	0.162	-0.054
-417.457	99.856	0.120	-0.140
-416.442	-51.598	-0.058	0.027
-415.428	-200.000	-0.007	0.220
-414.413	800.000	-0.011	0.042
-413.398	-74.347	-0.079	-0.029
-412.384	-21.789	-0.182	-0.112
-411.369	15.625	-0.098	0.077
-410.355	-105.903	-0.195	0.044
-409.340	-111.756	-0.259	0.053
-408.325	501.122	0.088	-0.205
-407.311	-39.989	0.126	0.067
-406.296	-84.833	0.522	-0.166
-405.282	280.811	0.125	-0.225
-404.267	800.000	0.060	0.238
-403.252	-20.365	0.147	0.091
-402.238	-1.835	0.105	0.074
-401.223	157.388	-0.154	0.215
-400.209	-104.047	-0.484	-0.114
-399.194	-173.174	-0.181	-0.006
-398.179	-200.000	-0.033	-0.232
-397.165	-37.337	-0.324	-0.174
-396.150	-63.072	-0.127	0.053
-395.136	90.581	-0.079	0.089
-394.121	45.836	-0.135	0.126
-393.106	255.705	-0.217	0.375
-392.092	-200.000	-0.050	0.230
-391.077	89.419	-0.089	0.100
-390.063	-200.000	-0.069	-0.367
-389.048	197.386	0.039	-0.060
-388.033	800.000	-0.047	-0.181
-387.019	-200.000	0.058	0.331
-386.004	83.936	-0.167	0.184
-384.990	-200.000	-0.064	0.362
-383.975	-113.462	-0.284	0.056
-382.960	-173.099	-0.032	-0.001
-381.946	-123.403	0.404	-0.065
-380.931	-200.000	-0.072	0.348
-379.917	-43.041	-0.255	0.130
-378.902	34.347	0.171	-0.151
-377.888	65.268	0.124	-0.126
-376.873	-41.285	0.325	-0.169
-375.858	-200.000	-0.041	-0.223
-374.844	-127.471	-0.185	-0.027
-373.829	-178.224	0.271	-0.006
-372.815	-105.592	-0.196	-0.045
-371.800	-138.806	-0.329	0.036
-370.785	89.189	0.100	0.112
-369.771	-102.684	0.313	-0.075
-368.756	-103.480	-0.042	-0.010
-367.742	-159.705	0.314	0.017
-366.727	780.041	0.047	0.130
-365.712	-89.014	0.220	-0.066
-364.698	-161.976	-0.123	0.006
-363.683	-200.000	0.048	0.218
-362.669	-200.000	0.011	-0.147
-361.654	800.000	0.035	0.150
-360.639	-72.426	-0.136	0.050
-359.625	-200.000	0.006	-0.042
-358.610	29.063	-0.099	0.085
-357.596	31.318	0.143	0.124
-356.581	24.228	0.140	0.116
-355.566	108.108	0.037	0.045
-354.552	5.464	-0.306	-0.228
-353.537	47.924	0.189	0.178
-352.523	-47.742	-0.057	-0.028
-351.508	-57.754	-0.332	0.146
-350.493	55.112	-0.158	-0.154
-349.479	221.342	0.061	-0.099
-348.464	-112.543	0.108	-0.022
-347.450	175.403	0.091	-0.133
-346.435	-127.019	-0.147	0.022
-345.420	-164.008	0.278	0.013
-344.406	16.212	0.278	0.221
-343.391	-200.000	0.017	-0.274
-342.377	-200.000	-0.030	-0.252
-341.362	-160.954	0.117	0.006
-340.348	-95.294	0.183	-0.050
-339.333	-88.330	-0.360	-0.108
-338.318	144.417	-0.123	0.166
-337.304	190.512	-0.090	0.137
-336.289	476.670	-0.075	-0.172
-335.275	-200.000	0.068	0.449
-334.260	-142.361	-0.222	0.022
-333.245	-200.000	-0.030	-0.321
-332.231	-51.229	-0.088	-0.041
-331.216	-19.644	0.076	0.047
-330.202	800.000	0.067	-0.260
-329.187	-81.840	-0.100	-0.033
-328.172	800.000	-0.094	0.389
-327.158	-200.000	-0.001	0.097
-326.143	-200.000	-0.045	0.316
-325.129	-181.023	0.201	-0.004
-324.114	-9.677	-0.151	0.101
-323.099	-200.000	0.018	-0.156
-322.085	-69.694	0.168	0.065
-321.070	800.000	-0.070	-0.301
-320.056	-200.000	0.009	-0.297
-319.041	-166.082	-0.188	-0.008
-318.026	39.146	0.343	-0.308
-317.012	-66.851	0.258	-0.102
-315.997	-73.172	0.051	-0.019
-314.983	-65.401	-0.150	0.061
-313.968	800.000	-0.066	0.211
-312.953	-200.000	-0.012	-0.139
-311.939	800.000	-0.081	-0.270
-310.924	800.000	-0.065	0.192
-309.910	-153.910	0.189	0.013
-308.895	133.251	-0.070	-0.091
-307.880	-131.869	-0.210	-0.028
-306.866	74.686	-0.074	0.079
-305.851	260.859	-0.098	0.171
-304.837	34.236	-0.105	0.092
-303.822	8.783	-0.063	0.047
-302.807	608.829	0.102	0.255
-301.793	-126.560	0.260	0.039
-300.778	16.741	0.067	-0.053
-299.764	-200.000	-0.010	-0.179
-298.749	303.553	0.030	-0.056
-297.735	248.624	-0.214	0.364
-296.720	-200.000	0.018	-0.149
-295.705	-39.411	0.049	-0.026
-294.691	-90.538	-0.109	0.032
-293.676	-200.000	-0.042	0.194
-292.662	416.912	0.071	-0.152
-291.647	-20.130	-0.060	-0.037
-290.632	-200.000	0.003	0.066
-289.618	443.935	-0.051	0.113
-288.603	508.131	-0.022	-0.052
-287.589	61.981	0.137	-0.137
-286.574	75.248	0.252	0.266
-285.559	800.000	0.032	0.130
-284.545	193.024	0.086	0.130
-283.530	-140.177	0.185	-0.020
-282.516	-76.420	0.183	0.065
-281.501	-183.283	0.104	0.002
-280.486	800.000	0.154	0.549
-279.472	283.568	-0.085	-0.154
-278.457	800.000	0.068	-0.216
-277.443	495.759	-0.042	0.097
-276.428	255.934	-0.056	-0.097
-275.413	-7.145	-0.093	-0.064
-274.399	658.223	-0.163	-0.422
-273.384	236.400	-0.089	-0.148
-272.370	-131.535	-0.111	0.015
-271.355	-200.000	-0.048	-0.233
-270.340	-62.341	-0.148	-0.062
-269.326	800.000	0.053	0.161
-268.311	-34.528	0.116	-0.064
-267.297	-122.306	-0.086	0.014
-266.282	-121.929	0.593	-0.098
-265.267	-81.995	-0.132	-0.043
-264.253	111.506	-0.090	0.109
-263.238	-200.000	-0.021	-0.114
-262.224	447.444	0.191	-0.423
-261.209	643.022	0.069	0.176
-260.195	241.287	0.060	0.100
-259.180	173.255	0.053	-0.077
-258.165	7.204	0.191	0.143
-257.151	800.000	-0.094	-0.353
-256.136	6.896	0.379	-0.283
-255.122	-27.510	0.067	0.039
-254.107	407.873	-0.066	-0.140
-253.092	-200.000	-0.011	0.084
-252.078	17.500	0.149	0.119
-251.063	-100.753	0.087	-0.021
-250.049	-117.595	0.166	-0.030
-249.034	452.509	-0.149	0.330
-248.019	-152.113	0.168	-0.012
-247.005	503.237	0.053	0.122
-245.990	-51.979	-0.347	0.162
-244.976	-6.992	0.164	0.112
-243.961	450.651	-0.108	0.240
-242.946	-200.000	0.009	0.113
-241.932	-132.513	0.227	-0.029
-240.917	800.000	0.022	0.084
-239.903	319.090	0.109	-0.207
-238.888	-200.000	-0.030	-0.258
-237.873	-87.387	0.175	0.053
-236.859	-28.034	0.353	-0.205
-235.844	-106.828	0.407	-0.091
-234.830	800.000	-0.191	-0.655
-233.815	95.881	0.146	-0.167
-232.800	-200.000	0.063	-0.284
-231.786	348.224	-0.062	0.122
-230.771	-123.836	-0.323	-0.051
-229.757	800.000	0.043	-0.155
-228.742	-106.608	0.237	-0.053
-227.727	29.300	0.100	-0.085
-226.713	-56.203	-0.348	-0.155
-225.698	-20.088	-0.285	0.176
-224.684	-133.116	0.222	-0.028
-223.669	-200.000	0.007	0.046
-222.655	-96.716	-0.069	-0.018
-221.640	71.504	-0.088	0.091
-220.625	-38.196	-0.131	0.070
-219.611	-133.947	0.383	-0.048
-218.596	-47.722	0.345	-0.167
-217.582	800.000	-0.035	0.140
-216.567	-200.000	-0.053	0.278
-215.552	-200.000	0.033	0.212
-214.538	-200.000	-0.025	-0.129
-213.523	-69.626	0.309	-0.118
-212.509	38.306	0.099	-0.088
-211.494	9.886	-0.275	-0.209
-210.479	-200.000	0.060	-0.298
-209.465	-117.480	0.032	-0.006
-208.450	172.289	0.093	0.134
-207.436	-200.000	-0.031	0.177
-206.421	-103.035	0.301	-0.071
-205.406	247.571	-0.150	-0.254
-204.392	301.820	0.132	-0.244
-203.377	-110.677	-0.300	0.062
-202.363	-200.000	-0.044	0.275
-201.348	79.702	-0.136	0.147
-200.333	134.133	-0.120	0.155
-199.319	-200.000	0.020	-0.381
-198.304	60.339	-0.167	-0.166
-197.290	80.385	0.075	0.081
-196.275	-3.565	0.109	0.076
-195.260	-43.025	-0.054	0.027
-194.246	-140.197	0.181	-0.019
-193.231	800.000	0.055	0.218
-192.217	-41.599	0.135	0.069
-191.202	15.148	0.127	0.100
-190.187	628.486	0.092	-0.232
-189.173	476.353	-0.103	0.232
-188.158	-200.000	0.022	0.137
-187.144	-72.321	-0.206	0.077
-186.129	59.794	0.267	0.263
-185.114	33.642	-0.105	-0.092
-184.100	93.928	0.267	-0.303
-183.085	377.716	0.112	-0.229
-182.071	-31.514	-0.371	0.209
-181.056	-43.975	-0.093	0.047
-180.042	800.000	-0.076	0.298
-179.027	224.907	0.141	0.228
-178.012	-22.573	0.259	-0.157
-176.998	19.965	-0.159	-0.128
-175.983	800.000	0.023	0.072
-174.969	672.204	0.052	0.136
-173.954	800.000	0.036	0.147
-172.939	29.794	-0.194	-0.166
-171.925	193.032	-0.081	0.123
-170.910	-93.450	-0.200	0.055
-169.896	330.555	-0.074	-0.143
-168.881	140.008	0.055	0.072
-167.866	397.191	-0.101	-0.211
-166.852	-79.419	-0.125	0.042
-165.837	800.000	0.055	0.169
-164.823	-22.855	-0.149	-0.090
-163.808	-148.597	0.286	0.023
-162.793	-200.000	-0.047	0.227
-161.779	164.977	-0.178	0.250
-160.764	-131.664	0.348	0.046
-159.750	-200.000	-0.039	0.240
-158.735	-200.000	-0.011	0.127
-157.720	-36.831	0.163	0.088
-156.706	-200.000	-0.003	-0.058
-155.691	800.000	-0.099	0.291
-154.677	72.832	0.089	-0.093
-153.662	-57.068	0.172	-0.076
-152.647	410.017	-0.105	0.222
-151.633	800.000	0.044	-0.135
-150.618	-44.601	-0.245	0.123
-149.604	-36.686	-0.352	0.189
-148.589	-73.230	0.141	-0.052
-147.574	99.839	-0.126	0.146
-146.560	-70.697	0.141	0.053
-145.545	-63.135	0.246	0.101
-144.531	380.326	0.038	0.077
-143.516	127.710	0.191	-0.243
-142.502	-56.133	0.071	-0.031
-141.487	26.181	-0.287	-0.239
-140.472	-49.383	0.115	-0.055
-139.458	-112.847	-0.343	0.068
-138.443	534.788	0.037	0.087
-137.429	-200.000	-0.017	0.219
-136.414	173.847	-0.008	0.011
-135.399	-200.000	0.014	0.095
-134.385	800.000	0.076	-0.210
-133.370	-33.521	0.118	0.065
-132.356	-121.841	-0.072	-0.012
-131.341	29.357	0.204	0.173
-130.326	164.842	0.141	-0.198
-129.312	-124.914	0.236	-0.036
-128.297	62.877	0.216	0.215
-127.283	23.662	0.326	-0.268
-126.268	117.778	-0.100	0.123
-125.253	-195.348	0.254	-0.002
-124.239	-83.094	-0.221	-0.071
-123.224	53.616	0.073	-0.070
-122.210	800.000	-0.078	-0.235
-121.195	-84.111	0.294	-0.093
-120.180	362.767	-0.109	-0.218
-119.166	-200.000	0.057	0.286
-118.151	-58.946	-0.173	-0.074
-117.137	-24.447	0.191	-0.113
-116.122	188.156	0.125	-0.186
-115.107	146.899	0.071	-0.096
-114.093	-45.928	0.114	0.056
-113.078	-107.467	0.089	-0.019
-112.064	302.117	-0.052	-0.096
-111.049	21.629	-0.127	-0.103
-110.034	412.252	-0.175	0.370
-109.020	-200.000	0.025	-0.227
-108.005	-16.104	-0.216	-0.137
-106.991	61.149	0.248	-0.246
-105.976	-20.175	0.255	0.157
-104.962	800.000	-0.023	-0.092
-103.947	-25.616	-0.038	-0.023
-102.932	696.990	-0.102	0.268
-101.918	-139.965	-0.047	0.005
-100.903	-121.360	0.205	0.034
-99.889	-108.058	0.354	0.077
-98.874	-117.005	-0.279	-0.051
-97.859	100.729	0.177	0.205
-96.845	197.264	0.256	-0.390
-95.830	-159.902	0.408	-0.022
-94.816	-51.984	0.281	0.130
-93.801	-142.388	-0.268	0.026
-92.786	-36.911	0.371	0.198
-91.772	378.556	0.068	0.139
-90.757	-200.000	0.002	0.196
-89.743	597.841	0.090	0.222
-88.728	-65.497	0.334	-0.134
-87.713	-133.795	-0.369	-0.046
-86.699	264.522	0.113	0.195
-85.684	8.963	0.343	0.258
-84.670	-85.160	-0.349	0.109
-83.655	172.282	-0.094	-0.135
-82.640	-70.179	0.133	-0.051
-81.626	-110.578	-0.342	0.071
-80.611	800.000	-0.061	-0.239
-79.597	143.228	-0.132	0.175
-78.582	146.911	0.218	-0.292
-77.567	-200.000	0.035	-0.368
-76.553	213.337	0.144	-0.227
-75.538	-51.316	-0.101	-0.047
-74.524	-16.273	-0.133	0.084
-73.509	800.000	0.098	0.279
-72.494	48.744	-0.148	-0.138
-71.480	168.894	0.171	0.242
-70.465	-200.000	0.061	-0.270
-69.451	-200.000	-0.014	-0.104
-68.436	-128.891	-0.273	-0.038
-67.422	187.599	0.276	-0.410
-66.407	-167.871	-0.090	-0.004
-65.392	572.831	0.078	0.189
-64.378	670.424	0.125	0.323
-63.363	-148.994	-0.062	-0.005
-62.349	-13.565	0.107	-0.069
-61.334	194.917	-0.532	-0.805
-60.319	-1.180	0.341	0.240
-59.305	-200.000	-0.118	-0.577
-58.290	-200.000	0.154	0.857
-57.276	800.000	0.535	1.483
-56.261	-200.000	75.916	538.939
-55.246	564.432	1305.308	3148.100
-54.232	148.376	2526.087	3394.775
-53.217	115.055	2339.009	2841.156
-52.203	52.290	1962.260	1862.676
-51.188	46.012	1756.699	1618.216
-50.173	43.083	1712.278	1554.681
-49.159	57.684	1745.649	1698.571
-48.144	63.535	1763.708	1761.395
-47.130	46.058	1727.716	1591.621
-46.115	42.680	1714.416	1553.267
-45.100	42.526	1709.743	1547.781
-44.086	42.511	1706.920	1545.049
-43.071	42.430	1705.120	1542.736
-42.057	42.510	1701.609	1540.110
-41.042	42.405	1699.996	1537.790
-40.027	42.509	1697.892	1536.617
-39.013	42.494	1695.817	1534.566
-37.998	42.474	1694.463	1533.127
-36.984	42.476	1692.904	1531.670
-35.969	42.557	1691.851	1531.276
-34.954	42.654	1689.794	1530.089
-33.940	42.645	1687.221	1527.629
-32.925	42.717	1685.590	1526.642
-31.911	42.558	1684.673	1524.545
-30.896	42.621	1682.344	1522.852
-29.881	42.567	1680.915	1521.089
-28.867	42.597	1678.946	1519.477
-27.852	42.519	1677.515	1517.528
-26.838	42.531	1676.108	1516.283
-25.823	42.652	1674.290	1515.497
-24.809	42.609	1672.789	1513.753
-23.794	42.582	1671.337	1512.176
-22.779	42.560	1670.129	1510.854
-21.765	42.534	1668.904	1509.489
-20.750	42.512	1667.130	1507.665
-19.736	42.665	1665.485	1507.265
-18.721	42.675	1663.703	1505.667
-17.706	42.682	1662.303	1504.388
-16.692	42.509	1661.199	1502.039
-15.677	42.565	1659.367	1500.742
-14.663	42.659	1657.702	1499.878
-13.648	42.675	1656.443	1498.798
-12.633	42.628	1655.189	1497.253
-11.619	42.690	1653.009	1495.681
-10.604	42.684	1651.645	1494.341
-9.590	42.611	1650.737	1492.922
-8.575	42.629	1649.535	1491.910
-7.560	42.686	1648.108	1490.983
-6.546	42.662	1646.995	1489.736
-5.531	42.568	1646.124	1488.197
-4.517	42.640	1644.762	1487.438
-3.502	42.550	1643.409	1485.490
-2.487	42.588	1642.206	1484.620
-1.473	42.013	1629.111	1468.508
-0.458	37.616	1604.634	1414.521
0.556	28.922	1598.215	1357.918
1.571	24.934	1619.749	1346.177
2.586	23.329	1632.314	1344.334
3.600	20.570	1581.202	1281.811
4.615	14.150	1473.878	1150.444
5.629	8.404	1407.126	1060.206
6.644	7.132	1397.937	1044.795
7.659	7.035	1396.830	1043.235
8.673	6.959	1395.504	1041.654
9.688	6.795	1393.823	1039.226
10.702	6.573	1390.869	1035.478
11.717	9.055	1395.780	1055.380
12.731	14.539	1405.352	1098.742
13.746	17.489	1409.297	1121.187
14.761	16.881	1407.755	1115.859
15.775	15.812	1404.513	1106.167
16.790	14.787	1402.234	1097.540
17.804	13.946	1399.399	1089.714
18.819	13.593	1397.958	1086.179
19.834	13.221	1396.571	1082.569
20.848	12.947	1395.107	1079.546
21.863	12.811	1393.840	1077.583
22.877	12.613	1392.680	1075.295
23.892	12.594	1391.759	1074.363
24.907	12.554	1391.041	1073.457
25.921	12.542	1390.237	1072.661
26.936	12.669	1389.076	1072.499
27.950	12.684	1388.238	1071.850
28.965	12.782	1386.621	1071.149
29.980	12.786	1385.924	1070.539
30.994	12.850	1384.602	1069.842
32.009	12.877	1383.698	1069.221
33.023	12.874	1382.303	1068.026
34.038	12.820	1380.752	1066.386
35.053	12.732	1379.361	1064.648
36.067	12.783	1378.112	1063.922
37.082	12.748	1377.389	1063.042
38.096	12.840	1376.135	1062.576
39.111	12.836	1375.754	1062.158
40.126	12.732	1375.053	1060.858
41.140	12.650	1373.618	1059.127
42.155	12.491	1373.445	1057.878
43.169	12.458	1373.464	1057.584
44.184	12.483	1373.252	1057.486
45.199	12.550	1372.475	1057.229
46.213	12.598	1372.055	1057.117
47.228	12.723	1370.701	1056.786
48.242	12.738	1369.497	1055.856
49.257	12.712	1368.254	1054.638
50.271	12.720	1366.812	1053.484
51.286	12.668	1365.441	1052.005
52.301	12.664	1363.827	1050.643
53.315	12.626	1363.163	1049.796
54.330	12.567	1362.012	1048.438
55.344	12.519	1360.626	1046.973
56.359	12.547	1359.681	1046.335
57.374	12.578	1358.395	1045.447
58.388	12.543	1357.908	1044.760
59.403	12.460	1357.521	1043.841
60.417	12.436	1357.158	1043.317
61.432	12.481	1355.655	1042.357
62.447	12.486	1354.483	1041.395
63.461	12.341	1353.656	1039.749
64.476	12.392	1352.464	1039.063
65.490	12.362	1351.564	1038.090
66.505	12.455	1349.635	1037.102
67.520	12.395	1348.497	1035.760
68.534	12.442	1347.403	1035.123
69.549	12.386	1346.686	1034.129
70.563	12.395	1345.350	1033.069
71.578	12.287	1344.373	1031.548
72.593	12.343	1343.343	1031.018
73.607	12.337	1342.417	1030.180
74.622	12.233	1341.647	1028.846
75.636	12.299	1341.105	1028.752
76.651	12.370	1340.246	1028.443
77.666	12.313	1340.030	1027.830
78.680	12.299	1339.447	1027.203
79.695	12.353	1338.722	1026.897
80.709	12.437	1337.626	1026.492
81.724	12.388	1337.106	1025.694
82.739	12.592	1335.425	1025.586
83.753	12.587	1335.312	1025.373
84.768	12.629	1334.518	1024.938
85.782	12.645	1333.201	1023.932
86.797	12.745	1331.598	1023.232
87.812	12.553	1330.495	1021.102
88.826	12.539	1329.583	1020.225
89.841	12.685	1328.327	1020.077
90.855	12.672	1327.418	1019.211
91.870	12.729	1326.781	1018.984
92.884	12.710	1325.674	1017.925
93.899	12.729	1324.914	1017.368
94.914	12.853	1323.809	1017.192
95.928	12.795	1323.283	1016.340
96.943	12.806	1322.290	1015.558
97.957	12.751	1321.002	1014.141
98.972	12.767	1320.339	1013.643
99.987	12.756	1319.318	1012.698
101.001	12.761	1318.138	1011.737
102.016	12.732	1317.171	1010.725
103.030	12.753	1316.505	1010.253
104.045	12.781	1315.502	1009.563
105.060	12.713	1314.182	1008.045
106.074	12.603	1312.441	1005.950
107.089	12.545	1310.967	1004.378
108.103	12.462	1309.634	1002.760
109.118	12.465	1308.846	1002.086
110.133	12.513	1307.085	1000.944
111.147	12.505	1305.781	999.808
112.162	12.499	1304.222	998.489
113.176	12.558	1303.396	998.127
114.191	12.549	1302.863	997.574
115.206	12.591	1301.546	996.731
116.220	12.524	1300.019	995.069
117.235	12.596	1298.683	994.395
118.249	12.538	1297.869	993.335
119.264	12.545	1296.594	992.311
120.279	12.478	1295.772	991.191
121.293	12.518	1294.807	990.604
122.308	12.514	1293.386	989.404
123.322	12.451	1292.660	988.381
124.337	12.482	1291.103	987.292
125.352	12.421	1290.219	986.162
126.366	12.388	1289.442	985.286
127.381	12.472	1288.519	984.995
128.395	12.430	1287.311	983.735
129.410	12.545	1286.177	983.469
130.424	12.497	1285.636	982.677
131.439	12.510	1284.654	981.918
132.454	12.643	1283.295	981.590
133.468	12.617	1282.562	980.784
134.483	12.654	1281.881	980.400
135.497	12.644	1280.787	979.416
136.512	12.640	1279.286	978.158
137.527	12.557	1278.338	976.850
138.541	12.609	1276.612	975.752
139.556	12.625	1275.318	974.777
140.570	12.763	1274.227	974.668
141.585	12.717	1273.480	973.740
142.600	12.816	1272.092	973.180
143.614	12.863	1271.399	972.838
144.629	12.847	1270.141	971.697
145.643	12.972	1268.487	971.083
146.658	12.753	1267.857	969.224
147.673	12.749	1266.359	967.969
148.687	12.612	1265.257	966.241
149.702	12.587	1263.680	964.802
150.716	12.647	1262.106	963.867
151.731	12.530	1261.181	962.388
152.746	12.625	1259.614	961.666
153.760	12.728	1258.647	961.442
154.775	12.790	1257.562	960.892
155.789	12.841	1256.263	960.110
156.804	12.880	1255.490	959.659
157.819	12.832	1254.395	958.458
158.833	12.843	1253.824	958.005
159.848	12.959	1252.237	957.379
160.862	12.817	1251.587	955.972
161.877	12.852	1250.314	955.119
162.892	12.756	1249.189	953.617
163.906	12.696	1248.161	952.404
164.921	12.811	1247.447	952.436
165.935	12.857	1246.371	951.797
166.950	12.838	1245.825	951.190
167.964	12.869	1245.296	950.881
168.979	12.720	1244.674	949.457
169.994	12.787	1243.760	949.065
171.008	12.839	1242.911	948.630
172.023	12.933	1241.935	948.345
173.037	12.918	1241.334	947.716
174.052	12.988	1240.224	947.188
175.067	12.747	1239.279	944.998
176.081	12.942	1237.826	944.924
177.096	12.732	1237.516	943.401
178.110	12.829	1236.184	942.856
179.125	12.833	1234.854	941.781
180.140	12.974	1233.490	941.464
181.154	12.957	1232.536	940.555
182.169	12.921	1231.009	939.099
183.183	13.122	1229.678	939.145
184.198	13.095	1228.903	938.317
185.213	13.100	1227.348	937.078
186.227	13.161	1226.593	936.762
187.242	13.037	1225.986	935.513
188.256	13.209	1224.482	935.257
189.271	13.205	1223.861	934.675
190.286	13.113	1222.617	933.124
191.300	12.763	1222.096	930.664
192.315	12.819	1221.059	930.112
193.329	12.939	1220.014	929.907
194.344	12.844	1220.276	929.492
195.359	12.982	1219.199	929.368
196.373	12.973	1218.759	928.897
197.388	13.142	1217.939	929.140
198.402	13.139	1218.140	929.197
199.417	13.320	1216.937	929.210
200.432	13.376	1216.158	928.851
201.446	13.363	1215.273	928.020
202.461	13.409	1214.695	927.753
203.475	13.405	1213.109	926.438
204.490	13.429	1211.583	925.326
205.504	13.335	1210.545	923.926
206.519	13.381	1209.102	922.997
207.534	13.338	1208.241	922.019
208.548	13.298	1207.558	921.195
209.563	13.253	1206.455	920.019
210.577	13.216	1205.593	919.073
211.592	13.273	1204.927	918.802
212.607	13.445	1203.927	918.914
213.621	13.342	1202.975	917.533
214.636	13.526	1202.084	917.791
215.650	13.445	1201.238	916.619
216.665	13.394	1200.282	915.528
217.680	13.467	1199.358	915.141
218.694	13.552	1198.366	914.772
219.709	13.495	1197.776	913.926
220.723	13.561	1197.034	913.643
221.738	13.475	1196.673	912.817
222.753	13.655	1195.123	912.542
223.767	13.552	1194.635	911.523
224.782	13.579	1194.455	911.455
225.796	13.747	1193.314	911.425
226.811	13.781	1192.275	910.736
227.826	13.622	1191.963	909.545
228.840	13.553	1191.403	908.660
229.855	13.604	1190.456	908.134
230.869	13.613	1189.569	907.430
231.884	13.682	1188.410	906.841
232.899	13.573	1187.742	905.655
233.913	13.568	1186.909	904.912
234.928	13.542	1186.279	904.210
235.942	13.621	1185.487	903.959
236.957	13.483	1184.676	902.508
237.972	13.643	1183.847	902.669
238.986	13.560	1183.557	901.916
240.001	13.486	1182.977	900.993
241.015	13.737	1181.518	901.163
242.030	13.695	1180.815	900.320
243.045	13.711	1180.014	899.716
244.059	13.736	1179.558	899.426
245.074	13.781	1178.591	898.851
246.088	13.808	1177.833	898.341
247.103	13.822	1176.776	897.531
248.117	13.868	1176.084	897.169
249.132	13.919	1175.632	897.022
250.147	14.067	1174.791	897.103
251.161	14.116	1173.862	896.576
252.176	14.131	1173.555	896.340
253.190	14.135	1173.052	895.900
254.205	14.107	1172.741	895.435
255.220	14.291	1171.598	895.468
256.234	14.249	1170.938	894.662
257.249	14.189	1170.479	893.908
258.263	14.230	1169.397	893.222
259.278	14.111	1169.149	892.317
260.293	14.255	1168.307	892.369
261.307	14.189	1167.770	891.523
262.322	14.417	1166.676	891.831
263.336	14.228	1166.335	890.482
264.351	14.311	1165.899	890.513
265.366	14.458	1164.762	890.349
266.380	14.264	1164.648	889.148
267.395	14.433	1163.366	888.993
268.409	14.334	1162.577	887.785
269.424	14.274	1162.070	886.996
270.439	14.274	1161.622	886.577
271.453	14.329	1160.813	886.175
272.468	14.283	1159.724	885.018
273.482	14.232	1159.160	884.239
274.497	14.180	1158.684	883.525
275.512	14.314	1158.286	883.850
276.526	14.367	1156.842	882.952
277.541	14.391	1156.082	882.423
278.555	14.390	1155.596	881.968
279.570	14.473	1154.794	881.717
280.585	14.467	1154.199	881.152
281.599	14.502	1153.482	880.712
282.614	14.426	1152.013	879.111
283.628	14.500	1150.713	878.429
284.643	14.522	1149.800	877.775
285.657	14.441	1149.583	877.102
286.672	14.477	1148.268	876.209
287.687	14.455	1146.941	875.006
288.701	14.503	1146.516	874.854
289.716	14.524	1145.663	874.237
290.730	14.550	1145.295	874.015
291.745	14.587	1144.369	873.427
292.760	14.567	1143.625	872.674
293.774	14.665	1143.132	872.737
294.789	14.726	1142.648	872.606
295.803	14.682	1142.012	871.815
296.818	14.622	1141.203	870.808
297.833	14.543	1140.528	869.803
298.847	14.523	1140.130	869.318
299.862	14.643	1138.972	868.983
300.876	14.760	1138.209	868.931
301.891	14.901	1136.828	868.533
302.906	14.843	1136.519	867.918
303.920	14.820	1136.187	867.471
304.935	14.827	1135.378	866.810
305.949	15.000	1134.257	866.775
306.964	14.971	1133.973	866.329
307.979	14.975	1133.154	865.650
308.993	14.887	1132.688	864.763
310.008	14.883	1131.788	863.979
311.022	15.068	1130.559	863.916
312.037	15.064	1129.744	863.196
313.052	14.948	1128.665	861.701
314.066	14.930	1128.015	861.035
315.081	14.746	1127.629	859.719
316.095	14.905	1126.250	859.405
317.110	14.860	1125.704	858.684
318.125	14.755	1125.197	857.680
319.139	14.819	1123.960	856.988
320.154	14.878	1123.374	856.772
321.168	14.845	1122.919	856.180
322.183	14.940	1122.259	856.087
323.197	14.945	1121.682	855.597
324.212	14.922	1121.305	855.116
325.227	14.947	1120.559	854.595
326.241	14.939	1120.059	854.098
327.256	14.935	1119.142	853.304
328.270	14.960	1118.333	852.740
329.285	14.865	1117.386	851.460
330.300	14.969	1116.136	850.960
331.314	15.023	1114.917	850.231
332.329	15.017	1114.716	849.972
333.343	15.014	1113.668	849.079
334.358	15.075	1112.818	848.666
335.373	15.180	1111.900	848.421
336.387	15.053	1111.810	847.638
337.402	15.146	1110.985	847.403
338.416	15.198	1110.138	846.947
339.431	15.172	1109.412	846.184
340.446	15.253	1108.925	846.144
341.460	15.396	1107.867	845.984
342.475	15.464	1106.696	845.358
343.489	15.417	1106.218	844.685
344.504	15.403	1105.550	844.027
345.519	15.331	1104.940	843.123
346.533	15.428	1104.022	842.835
347.548	15.601	1103.062	842.900
348.562	15.511	1102.126	841.657
349.577	15.403	1101.344	840.444
350.592	15.403	1100.866	840.006
351.606	15.351	1099.822	838.873
352.621	15.373	1098.979	838.265
353.635	15.365	1098.335	837.660
354.650	15.384	1097.831	837.298
355.665	15.442	1096.625	836.594
356.679	15.431	1096.251	836.177
357.694	15.402	1096.115	835.859
358.708	15.551	1095.621	836.150
359.723	15.481	1094.623	834.965
360.738	15.483	1094.044	834.457
361.752	15.574	1093.387	834.335
362.767	15.454	1093.131	833.471
363.781	15.561	1092.625	833.543
364.796	15.574	1091.755	832.868
365.810	15.660	1091.103	832.723
366.825	15.714	1090.417	832.392
367.840	15.644	1090.220	831.824
368.854	15.794	1089.553	831.981
369.869	15.844	1088.691	831.497
370.883	15.768	1087.561	830.185
371.898	15.732	1086.774	829.334
372.913	15.790	1086.529	829.361
373.927	15.814	1085.950	828.964
374.942	15.899	1085.341	828.842
375.956	15.885	1085.086	828.504
376.971	15.783	1084.148	827.214
377.986	15.898	1083.438	827.166
379.000	15.903	1083.106	826.863
380.015	15.963	1082.484	826.611
381.029	16.145	1081.850	826.944
382.044	16.092	1081.167	826.089
383.059	16.052	1080.448	825.271
384.073	16.028	1079.509	824.365
385.088	16.086	1078.304	823.653
386.102	16.107	1077.768	823.272
387.117	16.103	1076.605	822.295
388.132	16.017	1075.601	821.033
389.146	15.946	1075.083	820.221
390.161	15.898	1074.482	819.457
391.175	15.950	1073.866	819.169
392.190	15.978	1073.476	818.932
393.205	16.026	1072.612	818.435
394.219	16.062	1071.551	817.729
395.234	16.119	1070.573	817.187
396.248	16.181	1069.400	816.518
397.263	16.075	1068.868	815.527
398.278	16.085	1067.957	814.808
399.292	16.109	1067.034	814.147
400.307	15.885	1066.807	812.819
401.321	16.035	1065.879	812.766
402.336	15.918	1065.495	811.837
403.350	16.158	1064.380	812.071
404.365	16.006	1064.175	811.111
405.380	16.268	1062.684	811.162
406.394	16.142	1062.391	810.260
407.409	16.270	1061.268	809.944
408.423	16.283	1061.041	809.764
409.438	16.365	1060.310	809.526
410.453	16.321	1059.528	808.650
411.467	16.414	1058.709	808.395
412.482	16.471	1058.008	808.061
413.496	16.631	1057.064	808.033
414.511	16.515	1056.652	807.096
415.526	16.513	1056.586	806.962
416.540	16.579	1055.938	806.711
417.555	16.669	1055.318	806.593
418.569	16.419	1055.215	805.251
419.584	16.460	1054.240	804.632
420.599	16.564	1053.932	804.823
421.613	81.181	1290.555	1346.720
422.628	74.671	1325.025	1346.799
