DTS Sentinel unit serial number:	SN413079Multiplexer serial number:	ORYXHardware model number:	OX4-SRSoftware version number:	ORYX F/W v4.00 Oryx Data Collector v3.7.2.0data status	okinstallation	princeton_trtdifferential loss correction	single-endedforward channel	channel 2reverse channel	N/Adate	2019/09/18time	09:59:34forward acquisition time	60.00reverse acquisition time	0.00gamma	496.2192k internal	0.2334k external	0.2334temperature offset calibration	0.9982default loss term (dB/km)	0.3790temperature slope calibration	1.0000multiplexer offset coefficient	1.0000multiplexer slope coefficient	1.0000fibre end	0.00T internal ref (°C)	27.44T ext. ref 1 (°C)	0.32T ext. ref 2 (°C)	24.01length (m)	temperature (°C)	Stokes	anti-Stokes-747.200	351.506	0.069	0.137
-746.185	-135.098	-0.076	0.009
-745.171	-200.000	-0.008	-0.198
-744.156	800.000	-0.114	0.402
-743.142	-200.000	0.030	0.142
-742.127	-53.617	0.039	0.018
-741.112	78.851	-0.080	-0.086
-740.098	41.430	-0.333	0.303
-739.083	53.128	0.247	-0.238
-738.069	332.685	0.040	0.078
-737.054	-20.627	0.197	-0.122
-736.039	-200.000	-0.015	0.175
-735.025	-67.313	0.192	0.076
-734.010	-91.056	-0.311	0.090
-732.996	244.361	-0.181	-0.305
-731.981	-73.652	-0.278	-0.102
-730.966	-26.095	-0.207	0.122
-729.952	-100.644	-0.246	-0.061
-728.937	399.746	0.057	-0.120
-727.923	-29.264	-0.438	0.252
-726.908	-29.019	-0.272	0.157
-725.894	741.692	-0.079	0.212
-724.879	-31.918	-0.412	-0.232
-723.864	-123.012	0.142	0.023
-722.850	-101.411	0.287	-0.070
-721.835	84.085	-0.133	-0.146
-720.821	44.015	-0.148	-0.136
-719.806	-65.990	0.140	-0.056
-718.791	272.114	0.114	0.202
-717.777	133.275	0.100	0.130
-716.762	3.909	0.251	-0.184
-715.748	134.266	0.047	-0.061
-714.733	-200.000	0.018	-0.239
-713.718	-92.822	-0.214	0.060
-712.704	24.250	0.128	-0.106
-711.689	467.156	0.070	-0.156
-710.675	-91.563	-0.126	-0.036
-709.660	-23.394	0.337	-0.203
-708.645	88.269	-0.023	0.026
-707.631	-200.000	0.046	0.301
-706.616	23.005	-0.184	-0.152
-705.602	137.312	-0.125	0.164
-704.587	-109.008	0.168	-0.036
-703.572	-111.171	-0.095	-0.020
-702.558	-200.000	0.043	-0.255
-701.543	-58.498	-0.088	0.038
-700.529	-115.381	-0.298	0.056
-699.514	123.477	-0.138	0.173
-698.499	-85.211	0.316	-0.099
-697.485	59.140	0.012	0.012
-696.470	800.000	0.052	-0.200
-695.456	19.153	0.261	-0.210
-694.441	-20.437	-0.196	-0.121
-693.426	-200.000	-0.083	-0.496
-692.412	355.139	0.142	-0.283
-691.397	-111.736	-0.313	-0.064
-690.383	-113.232	0.308	-0.061
-689.368	148.635	-0.154	0.208
-688.354	-200.000	-0.008	-0.264
-687.339	-53.619	-0.167	0.076
-686.324	-200.000	0.037	-0.201
-685.310	432.780	-0.222	0.482
-684.295	800.000	-0.070	0.266
-683.281	300.427	-0.115	-0.212
-682.266	326.980	-0.014	0.027
-681.251	-200.000	-0.051	-0.230
-680.237	11.117	0.077	0.059
-679.222	224.515	-0.206	0.334
-678.208	-93.146	-0.190	-0.053
-677.193	-54.280	0.093	0.042
-676.178	-116.706	0.254	-0.047
-675.164	384.144	-0.128	0.263
-674.149	-33.694	0.199	-0.110
-673.135	-52.025	-0.517	0.241
-672.120	800.000	0.075	0.296
-671.105	-3.784	0.303	-0.211
-670.091	79.818	-0.067	0.072
-669.076	-200.000	-0.002	0.179
-668.062	-65.068	-0.109	0.044
-667.047	-200.000	0.003	-0.097
-666.032	-143.335	-0.343	-0.033
-665.018	-200.000	-0.051	0.371
-664.003	-5.999	-0.248	-0.170
-662.989	48.219	-0.144	-0.135
-661.974	800.000	-0.056	0.155
-660.959	328.370	-0.156	-0.301
-659.945	-138.211	0.290	0.032
-658.930	-64.040	0.019	-0.008
-657.916	99.486	-0.250	-0.289
-656.901	154.868	-0.124	-0.170
-655.886	16.239	0.066	-0.052
-654.872	-198.879	-0.077	0.000
-653.857	-131.325	0.266	0.035
-652.843	428.594	-0.057	0.123
-651.828	305.803	0.034	0.063
-650.814	-55.695	-0.210	0.094
-649.799	800.000	0.074	0.263
-648.784	-112.371	-0.120	-0.024
-647.770	-32.555	-0.196	-0.109
-646.755	-113.043	-0.140	-0.028
-645.741	800.000	0.051	-0.152
-644.726	-11.940	-0.346	-0.227
-643.711	-174.877	0.353	-0.010
-642.697	411.016	-0.106	0.225
-641.682	-166.280	-0.253	0.011
-640.668	297.857	0.079	-0.146
-639.653	400.446	-0.065	-0.136
-638.638	-200.000	0.028	-0.158
-637.624	-144.026	-0.221	-0.021
-636.609	-186.249	-0.236	-0.003
-635.595	-200.000	0.029	0.156
-634.580	16.079	0.064	0.050
-633.565	32.774	-0.145	0.126
-632.551	46.796	-0.174	0.162
-631.536	82.930	-0.327	-0.356
-630.522	-151.120	0.205	0.015
-629.507	91.020	0.048	0.053
-628.492	53.509	0.191	-0.183
-627.478	604.231	0.060	0.149
-626.463	-104.993	0.215	0.049
-625.449	-80.177	0.121	-0.041
-624.434	800.000	-0.031	0.115
-623.419	-26.746	0.174	0.102
-622.405	-200.000	0.030	0.228
-621.390	-200.000	-0.003	0.055
-620.376	-200.000	0.031	0.309
-619.361	-98.161	0.332	0.085
-618.346	324.668	-0.084	0.160
-617.332	-24.420	0.236	0.141
-616.317	-97.387	0.106	-0.028
-615.303	4.317	-0.034	0.025
-614.288	-200.000	-0.027	0.203
-613.273	224.685	-0.094	0.153
-612.259	-185.469	0.584	-0.009
-611.244	-200.000	0.012	0.244
-610.230	182.017	-0.135	0.199
-609.215	-90.092	-0.161	0.047
-608.201	-109.404	-0.198	0.042
-607.186	800.000	-0.067	-0.205
-606.171	227.467	-0.148	0.240
-605.157	68.875	0.107	-0.110
-604.142	122.615	0.166	0.207
-603.128	-183.138	0.487	0.009
-602.113	-107.368	-0.257	0.056
-601.098	-16.163	0.278	0.177
-600.084	-200.000	0.103	0.532
-599.069	352.701	0.070	-0.138
-598.055	40.740	-0.137	0.124
-597.040	-62.089	-0.279	0.116
-596.025	-103.503	-0.147	-0.035
-595.011	295.318	0.078	0.142
-593.996	97.834	-0.105	-0.121
-592.982	-146.307	0.147	0.013
-591.967	-18.230	0.205	-0.128
-590.952	156.294	0.066	0.090
-589.938	44.788	-0.175	0.161
-588.923	8.037	0.310	0.233
-587.909	76.252	0.179	0.190
-586.894	245.800	0.117	-0.196
-585.879	-41.650	-0.394	-0.202
-584.865	-76.239	0.195	0.069
-583.850	218.403	-0.110	0.175
-582.836	116.273	-0.202	-0.248
-581.821	-27.639	-0.389	-0.226
-580.806	97.448	-0.267	-0.306
-579.792	800.000	0.052	-0.193
-578.777	-59.110	-0.136	-0.059
-577.763	800.000	-0.055	0.175
-576.748	455.792	-0.096	0.213
-575.733	-200.000	0.030	0.291
-574.719	-200.000	-0.033	0.163
-573.704	16.700	0.394	0.311
-572.690	59.303	-0.226	-0.223
-571.675	-200.000	-0.017	0.295
-570.661	-200.000	-0.024	0.412
-569.646	-200.000	-0.010	-0.133
-568.631	284.698	0.270	0.486
-567.617	-9.113	-0.212	-0.142
-566.602	-38.449	0.136	0.072
-565.588	-81.073	-0.092	-0.030
-564.573	-65.399	-0.189	0.076
-563.558	-31.725	0.101	0.057
-562.544	-200.000	-0.027	-0.172
-561.529	-94.251	-0.152	0.042
-560.515	215.573	-0.182	0.289
-559.500	-74.200	0.124	-0.045
-558.485	-0.688	-0.118	0.083
-557.471	-200.000	-0.007	-0.240
-556.456	800.000	0.071	0.273
-555.442	-200.000	0.018	-0.128
-554.427	48.953	0.135	-0.127
-553.412	800.000	0.063	-0.188
-552.398	143.298	-0.362	-0.480
-551.383	-32.427	0.294	-0.163
-550.369	800.000	0.067	-0.203
-549.354	9.037	0.079	0.060
-548.339	-182.322	0.088	-0.002
-547.325	-140.993	0.217	0.022
-546.310	-65.690	-0.272	-0.109
-545.296	106.522	-0.239	-0.283
-544.281	-112.475	-0.188	0.037
-543.266	34.443	0.126	0.110
-542.252	800.000	0.030	-0.090
-541.237	-51.783	-0.128	0.059
-540.223	529.993	0.024	-0.056
-539.208	800.000	-0.009	-0.035
-538.193	-152.390	-0.182	-0.013
-537.179	447.904	0.115	-0.252
-536.164	-200.000	-0.014	0.097
-535.150	-94.941	0.301	-0.081
-534.135	800.000	0.047	0.190
-533.121	126.114	-0.035	-0.045
-532.106	-66.667	-0.318	-0.126
-531.091	-200.000	-0.023	0.229
-530.077	795.230	-0.036	0.099
-529.062	616.761	0.081	-0.202
-528.048	800.000	-0.027	-0.118
-527.033	-88.311	-0.175	-0.052
-526.018	51.557	-0.305	-0.289
-525.004	-200.000	-0.016	0.370
-523.989	197.168	-0.063	-0.095
-522.975	-106.688	-0.455	-0.101
-521.960	-45.319	0.133	-0.066
-520.945	113.137	0.150	-0.181
-519.931	-51.404	-0.474	-0.221
-518.916	235.940	-0.140	0.230
-517.902	-54.193	0.084	0.038
-516.887	-30.003	0.281	0.160
-515.872	102.945	0.271	-0.317
-514.858	-87.395	-0.103	-0.031
-513.843	91.428	0.253	0.283
-512.829	613.151	0.048	-0.119
-511.814	-128.850	0.221	0.031
-510.799	56.187	0.168	0.163
-509.785	-200.000	-0.123	0.001
-508.770	-55.113	-0.314	0.141
-507.756	-200.000	-0.018	-0.371
-506.741	-137.618	-0.328	0.037
-505.726	144.234	-0.102	0.136
-504.712	-42.254	-0.222	-0.113
-503.697	-200.000	0.011	-0.062
-502.683	572.851	-0.050	0.120
-501.668	94.202	0.073	-0.083
-500.653	-80.738	-0.155	0.051
-499.639	-200.000	-0.039	-0.276
-498.624	-79.146	0.199	0.067
-497.610	223.341	-0.195	0.312
-496.595	-112.760	-0.180	0.036
-495.581	-64.459	-0.293	-0.119
-494.566	124.116	-0.049	-0.061
-493.551	-87.321	0.058	-0.017
-492.537	-89.180	-0.168	-0.049
-491.522	9.457	-0.166	0.125
-490.508	51.307	0.064	-0.060
-489.493	800.000	-0.027	0.100
-488.478	156.709	-0.146	0.201
-487.464	-83.717	-0.394	-0.125
-486.449	-124.497	0.286	-0.044
-485.435	132.807	-0.234	-0.300
-484.420	68.680	0.423	0.432
-483.405	-200.000	-0.029	0.149
-482.391	-100.639	-0.173	-0.042
-481.376	-0.490	-0.309	0.218
-480.362	505.784	0.138	-0.317
-479.347	-200.000	0.034	0.261
-478.332	-152.769	0.109	0.008
-477.318	112.419	-0.081	0.098
-476.303	800.000	0.047	0.185
-475.289	162.738	0.176	0.245
-474.274	-75.363	-0.380	-0.135
-473.259	-91.189	-0.468	0.133
-472.245	266.170	0.132	0.229
-471.230	709.008	0.103	0.270
-470.216	156.582	0.124	-0.170
-469.201	133.613	0.139	-0.179
-468.186	800.000	-0.022	0.065
-467.172	-145.522	0.056	-0.005
-466.157	155.477	-0.086	-0.118
-465.143	88.703	0.079	-0.087
-464.128	800.000	-0.099	0.399
-463.113	-58.554	0.402	-0.173
-462.099	-171.985	-0.088	-0.003
-461.084	-87.010	-0.087	-0.026
-460.070	800.000	0.073	0.215
-459.055	800.000	0.071	-0.307
-458.040	170.742	-0.109	-0.156
-457.026	-135.325	0.118	0.014
-456.011	77.384	0.050	-0.053
-454.997	-200.000	-0.024	0.181
-453.982	336.426	0.123	-0.238
-452.968	-200.000	0.015	-0.098
-451.953	204.269	0.206	0.317
-450.938	157.430	-0.107	-0.147
-449.924	133.272	0.143	0.184
-448.909	-51.197	-0.213	-0.099
-447.895	116.779	-0.139	-0.169
-446.880	-27.238	0.229	0.133
-445.865	800.000	0.041	0.131
-444.851	-200.000	-0.003	0.278
-443.836	800.000	0.064	-0.214
-442.822	684.657	-0.072	-0.188
-441.807	123.994	-0.148	0.185
-440.792	-200.000	-0.019	-0.292
-439.778	-200.000	-0.090	-0.456
-438.763	45.312	-0.057	-0.052
-437.749	215.779	-0.162	0.255
-436.734	37.216	0.214	-0.188
-435.719	-31.808	-0.167	-0.093
-434.705	47.527	0.206	0.191
-433.690	-200.000	-0.023	0.135
-432.676	210.739	0.111	0.174
-431.661	40.403	-0.130	-0.116
-430.646	674.856	-0.095	0.245
-429.632	279.535	-0.104	-0.185
-428.617	20.625	-0.043	0.035
-427.603	205.781	-0.083	-0.128
-426.588	-101.216	0.349	0.085
-425.573	-111.472	0.111	-0.022
-424.559	-130.805	0.052	-0.007
-423.544	200.745	-0.149	0.228
-422.530	122.094	0.210	0.261
-421.515	-168.258	-0.468	-0.018
-420.500	-200.000	-0.008	-0.139
-419.486	-112.308	-0.098	0.020
-418.471	-200.000	-0.022	-0.136
-417.457	-124.377	0.250	-0.039
-416.442	27.098	0.141	-0.117
-415.428	31.431	0.274	0.233
-414.413	214.203	-0.059	-0.093
-413.398	519.750	-0.094	-0.219
-412.384	-7.735	-0.288	-0.193
-411.369	360.007	0.088	-0.175
-410.355	800.000	0.056	-0.191
-409.340	-41.075	0.382	0.196
-408.325	-54.325	0.153	-0.069
-407.311	-176.773	-0.024	-0.001
-406.296	-135.445	0.294	0.035
-405.282	676.573	0.106	-0.273
-404.267	-68.176	-0.232	0.090
-403.252	48.572	-0.314	0.292
-402.238	-148.888	0.231	-0.019
-401.223	-200.000	0.018	-0.196
-400.209	-41.071	-0.217	-0.111
-399.194	199.460	0.153	-0.232
-398.179	-24.824	-0.241	0.142
-397.165	429.285	-0.175	0.375
-396.150	-102.165	-0.293	-0.070
-395.136	48.199	0.212	-0.197
-394.121	-137.700	0.173	-0.019
-393.106	-53.318	-0.348	0.158
-392.092	-190.051	0.335	0.004
-391.077	-149.782	-0.167	0.013
-390.063	-200.000	-0.039	0.195
-389.048	-200.000	0.020	-0.111
-388.033	-158.374	-0.286	0.016
-387.019	65.493	0.056	-0.056
-386.004	-112.550	-0.144	-0.028
-384.990	-37.774	-0.224	-0.118
-383.975	-21.414	0.060	0.036
-382.960	-59.398	0.145	-0.062
-381.946	-0.652	-0.125	0.088
-380.931	-200.000	0.012	0.081
-379.917	-200.000	-0.029	-0.396
-378.902	-58.326	-0.014	0.006
-377.888	-50.206	0.254	0.119
-376.873	-200.000	0.005	0.081
-375.858	-54.453	0.123	-0.055
-374.844	-68.273	-0.299	0.115
-373.829	211.804	0.088	-0.138
-372.815	125.646	0.090	0.113
-371.800	-26.224	-0.281	0.163
-370.785	264.742	0.143	0.247
-369.771	75.366	-0.144	-0.150
-368.756	577.785	0.136	0.328
-367.742	800.000	0.059	-0.236
-366.727	312.403	0.045	-0.084
-365.712	91.417	0.120	0.134
-364.698	800.000	-0.107	-0.450
-363.683	439.949	0.075	-0.162
-362.669	-39.130	0.208	0.108
-361.654	-78.157	0.228	0.078
-360.639	324.947	-0.095	-0.180
-359.625	15.587	0.143	0.111
-358.610	-24.537	0.165	0.098
-357.596	-200.000	0.053	0.245
-356.581	-200.000	0.009	-0.101
-355.566	-104.250	-0.160	0.037
-354.552	82.394	0.169	0.182
-353.537	1.799	-0.198	-0.142
-352.523	800.000	-0.166	-0.594
-351.508	100.819	-0.235	-0.270
-350.493	-200.000	-0.022	-0.176
-349.479	459.282	0.088	0.194
-348.464	-12.521	-0.261	0.169
-347.450	-200.000	0.027	0.324
-346.435	29.223	0.277	0.233
-345.420	-200.000	0.010	-0.081
-344.406	204.609	0.012	-0.018
-343.391	-21.754	-0.446	0.269
-342.377	25.427	0.083	-0.069
-341.362	-30.590	-0.068	-0.038
-340.348	126.121	0.039	-0.048
-339.333	-200.000	0.098	0.430
-338.318	-8.807	0.317	0.210
-337.304	-100.758	0.033	0.008
-336.289	-200.000	-0.024	0.212
-335.275	-25.399	0.187	0.109
-334.260	800.000	-0.047	-0.129
-333.245	-200.000	-0.004	-0.084
-332.231	362.741	-0.075	-0.149
-331.216	101.756	0.231	-0.266
-330.202	-161.108	-0.161	-0.008
-329.187	-69.632	0.114	0.043
-328.172	-85.408	-0.396	-0.122
-327.158	408.767	0.116	0.242
-326.143	588.528	0.022	-0.054
-325.129	142.037	0.070	-0.091
-324.114	-113.273	-0.101	0.020
-323.099	152.236	-0.348	-0.470
-322.085	-200.000	0.014	-0.224
-321.070	-200.000	-0.002	-0.038
-320.056	-200.000	-0.034	0.196
-319.041	-82.338	-0.383	-0.123
-318.026	-147.971	0.187	0.015
-317.012	308.261	-0.056	0.103
-315.997	84.381	-0.075	-0.081
-314.983	222.060	0.068	0.108
-313.968	-0.596	0.118	-0.083
-312.953	5.922	0.189	0.138
-311.939	-98.894	-0.113	0.028
-310.924	-137.620	-0.272	0.030
-309.910	-200.000	-0.027	-0.241
-308.895	-100.497	0.227	0.056
-307.880	-14.513	0.093	-0.059
-306.866	-200.000	0.029	-0.182
-305.851	-32.895	0.259	-0.142
-304.837	-24.440	0.267	0.157
-303.822	58.341	0.233	-0.226
-302.807	-131.746	0.112	0.015
-301.793	165.549	-0.103	-0.144
-300.778	-125.601	-0.149	-0.022
-299.764	-200.000	0.033	-0.283
-298.749	93.201	0.107	-0.119
-297.735	-200.000	0.024	-0.120
-296.720	-152.150	0.116	0.008
-295.705	-28.429	0.056	0.032
-294.691	800.000	0.096	-0.304
-293.676	393.450	-0.039	0.080
-292.662	800.000	-0.076	0.248
-291.647	-200.000	0.018	-0.145
-290.632	-200.000	0.055	-0.254
-289.618	108.456	-0.084	0.099
-288.603	48.171	-0.204	-0.189
-287.589	-149.408	-0.270	0.021
-286.574	-114.422	-0.185	-0.035
-285.559	170.916	0.181	-0.256
-284.545	390.244	-0.051	-0.105
-283.530	82.350	0.057	-0.061
-282.516	-200.000	-0.012	0.324
-281.501	-200.000	0.007	0.057
-280.486	-188.824	0.370	-0.004
-279.472	-76.840	0.345	0.119
-278.457	462.882	0.092	0.203
-277.443	-183.196	-0.203	0.004
-276.428	20.600	0.227	-0.182
-275.413	669.803	-0.089	-0.227
-274.399	14.468	-0.236	-0.182
-273.384	400.852	0.072	-0.149
-272.370	-73.562	0.209	0.075
-271.355	-127.709	0.567	0.081
-270.340	189.150	0.119	-0.176
-269.326	-51.473	0.261	0.120
-268.311	166.499	-0.202	-0.283
-267.297	31.132	-0.099	-0.084
-266.282	335.514	0.064	-0.122
-265.267	157.223	-0.122	-0.166
-264.253	274.540	0.132	-0.231
-263.238	-200.000	0.014	-0.331
-262.224	-144.267	-0.135	-0.012
-261.209	-10.313	-0.063	-0.041
-260.195	-1.731	0.287	-0.199
-259.180	-31.545	-0.317	0.176
-258.165	-71.015	0.546	0.203
-257.151	-105.502	0.066	0.015
-256.136	-54.993	-0.303	-0.135
-255.122	127.623	-0.229	0.287
-254.107	173.907	0.075	0.107
-253.092	444.262	-0.158	0.341
-252.078	91.342	-0.143	-0.159
-251.063	-32.987	0.137	-0.075
-250.049	213.779	-0.202	-0.315
-249.034	168.953	-0.235	0.331
-248.019	319.009	-0.111	-0.208
-247.005	-200.000	0.009	-0.142
-245.990	-111.232	0.435	0.088
-244.976	-200.000	0.017	-0.293
-243.961	792.942	-0.134	-0.362
-242.946	15.463	0.127	-0.098
-241.932	190.158	0.093	-0.137
-240.917	-188.060	0.306	-0.004
-239.903	-175.969	0.108	0.003
-238.888	6.618	0.309	-0.226
-237.873	-200.000	0.018	-0.184
-236.859	-37.915	0.155	0.081
-235.844	0.603	-0.167	0.118
-234.830	-60.629	0.118	0.049
-233.815	-11.861	-0.130	-0.084
-232.800	-200.000	-0.008	0.085
-231.786	-102.369	-0.154	0.036
-230.771	-200.000	0.012	-0.161
-229.757	-200.000	0.023	-0.188
-228.742	293.132	0.058	0.105
-227.727	115.151	-0.120	0.144
-226.713	361.622	-0.175	0.346
-225.698	800.000	-0.154	0.501
-224.684	-123.375	0.189	-0.030
-223.669	575.853	-0.091	0.218
-222.655	107.325	0.152	-0.178
-221.640	-68.135	-0.158	-0.061
-220.625	-60.356	0.153	-0.064
-219.611	-59.930	-0.194	0.082
-218.596	-200.000	-0.279	-0.001
-217.582	-200.000	-0.037	-0.179
-216.567	126.173	-0.094	0.117
-215.552	-200.000	-0.006	-0.129
-214.538	725.683	0.111	0.292
-213.523	-98.204	0.344	0.087
-212.509	800.000	-0.066	0.214
-211.494	527.539	0.081	0.188
-210.479	69.590	0.296	0.300
-209.465	317.592	-0.054	0.101
-208.450	8.414	0.218	-0.161
-207.436	161.215	0.067	-0.092
-206.421	-200.000	-0.056	-0.265
-205.406	800.000	0.027	0.099
-204.392	-200.000	-0.020	-0.192
-203.377	-125.464	-0.158	0.024
-202.363	590.869	0.049	-0.118
-201.348	-23.970	0.073	0.043
-200.333	800.000	0.033	-0.141
-199.319	-200.000	-0.033	0.334
-198.304	5.456	-0.087	0.063
-197.290	210.703	0.059	-0.092
-196.275	212.886	0.054	-0.084
-195.260	-200.000	0.002	0.036
-194.246	50.820	0.150	0.140
-193.231	-200.000	-0.035	-0.234
-192.217	-51.355	0.186	0.086
-191.202	-200.000	-0.022	-0.186
-190.187	331.887	-0.108	-0.204
-189.173	-134.679	0.037	0.004
-188.158	800.000	0.048	0.201
-187.144	-15.121	-0.295	0.186
-186.129	95.909	-0.234	0.263
-185.114	98.938	0.116	-0.132
-184.100	-200.000	-0.025	0.114
-183.085	-200.000	0.009	0.170
-182.071	317.155	-0.042	-0.078
-181.056	-200.000	0.015	-0.106
-180.042	-89.294	0.176	-0.051
-179.027	-200.000	-0.039	-0.227
-178.012	48.832	-0.081	0.075
-176.998	800.000	0.137	0.553
-175.983	-24.455	0.189	-0.111
-174.969	-80.814	0.190	0.062
-173.954	-200.000	0.046	-0.350
-172.939	157.639	0.135	-0.183
-171.925	-23.648	0.152	0.090
-170.910	-115.410	0.145	0.027
-169.896	48.551	-0.137	-0.126
-168.881	-103.048	0.090	0.021
-167.866	800.000	0.070	-0.266
-166.852	-35.604	-0.053	0.028
-165.837	-23.334	0.237	-0.140
-164.823	800.000	0.134	0.381
-163.808	-123.432	-0.240	-0.038
-162.793	-99.724	0.293	0.072
-161.779	-4.476	0.199	-0.135
-160.764	-26.269	0.130	0.075
-159.750	-200.000	0.012	0.199
-158.735	-64.967	0.192	-0.076
-157.720	-45.045	-0.251	-0.123
-156.706	-158.475	0.167	-0.009
-155.691	-200.000	0.057	0.254
-154.677	26.833	-0.338	0.278
-153.662	-141.436	-0.215	-0.021
-152.647	77.293	-0.199	0.208
-151.633	800.000	-0.071	-0.278
-150.618	-200.000	0.014	-0.153
-149.604	-119.148	0.148	0.025
-148.589	285.938	-0.070	0.124
-147.574	-88.853	0.268	0.078
-146.560	-172.491	0.196	0.006
-145.545	11.492	-0.197	-0.148
-144.531	-11.342	-0.207	0.134
-143.516	-197.074	-0.090	0.001
-142.502	-162.252	0.296	-0.015
-141.487	-200.000	-0.012	-0.214
-140.472	22.386	0.266	0.213
-139.458	215.905	-0.078	0.121
-138.443	46.618	0.239	0.217
-137.429	-200.000	-0.041	0.257
-136.414	69.257	-0.180	0.182
-135.399	-200.000	-0.002	0.074
-134.385	-96.533	0.157	-0.041
-133.370	-43.791	-0.325	0.161
-132.356	-140.679	0.145	-0.015
-131.341	-200.000	-0.007	-0.135
-130.326	129.184	-0.265	0.331
-129.312	183.123	-0.175	0.253
-128.297	-92.233	-0.236	-0.065
-127.283	-149.483	-0.227	-0.018
-126.268	35.589	0.150	-0.129
-125.253	800.000	0.028	0.111
-124.239	15.545	0.258	0.199
-123.224	-179.272	0.212	-0.005
-122.210	783.380	-0.100	0.268
-121.195	-129.754	-0.203	-0.027
-120.180	-136.959	0.253	0.028
-119.166	-59.441	-0.327	0.138
-118.151	-200.000	-0.019	-0.121
-117.137	-165.324	-0.138	-0.006
-116.122	800.000	-0.080	-0.233
-115.107	657.094	0.154	0.389
-114.093	226.432	0.098	-0.156
-113.078	-200.000	0.087	0.000
-112.064	800.000	0.070	-0.268
-111.049	-131.107	-0.036	-0.005
-110.034	-61.450	-0.185	-0.076
-109.020	800.000	-0.045	0.133
-108.005	-96.642	0.207	0.053
-106.991	-16.058	-0.090	-0.056
-105.976	253.477	0.080	0.135
-104.962	-46.321	0.021	0.010
-103.947	179.277	0.053	0.077
-102.932	125.564	0.211	-0.261
-101.918	-52.042	-0.218	-0.099
-100.903	54.774	-0.085	0.081
-99.889	107.136	0.135	-0.157
-98.874	86.330	0.126	-0.137
-97.859	150.485	0.107	0.143
-96.845	405.192	-0.071	0.146
-95.830	-200.000	0.012	0.138
-94.816	-145.000	-0.075	-0.007
-93.801	-77.044	-0.327	-0.112
-92.786	23.413	-0.264	-0.213
-91.772	-106.822	0.291	0.063
-90.757	800.000	0.168	0.543
-89.743	800.000	0.020	0.075
-88.728	800.000	0.045	0.152
-87.713	331.619	0.150	-0.283
-86.699	-68.997	0.267	-0.101
-85.684	1.421	0.012	-0.009
-84.670	379.619	0.093	-0.186
-83.655	251.510	0.073	0.122
-82.640	800.000	0.137	-0.412
-81.626	-75.210	0.351	0.123
-80.611	403.487	-0.006	0.013
-79.597	-200.000	-0.071	-0.352
-78.582	-13.331	0.288	0.183
-77.567	-43.013	-0.304	-0.151
-76.553	-36.073	-0.149	0.079
-75.538	7.205	-0.201	-0.147
-74.524	96.435	0.293	0.328
-73.509	800.000	0.045	0.168
-72.494	-167.382	-0.087	-0.003
-71.480	38.336	0.079	0.069
-70.465	380.265	-0.154	0.308
-69.451	800.000	0.080	0.281
-68.436	-126.161	0.247	0.036
-67.422	-154.880	0.113	0.007
-66.407	-79.476	0.467	0.155
-65.392	-171.868	0.083	-0.003
-64.378	-200.000	0.011	-0.123
-63.363	-41.011	0.221	0.112
-62.349	8.314	-0.147	0.108
-61.334	94.214	-0.857	-0.952
-60.319	210.061	0.348	0.534
-59.305	202.620	-0.522	-0.790
-58.290	501.923	0.688	1.555
-57.276	322.472	0.888	1.655
-56.261	-200.000	110.741	607.760
-55.246	438.908	1519.387	3244.893
-54.232	142.988	2710.270	3526.215
-53.217	95.622	2322.438	2592.430
-52.203	36.487	1926.537	1663.088
-51.188	30.451	1713.264	1432.542
-50.173	28.054	1670.423	1378.616
-49.159	48.356	1724.039	1578.798
-48.144	47.754	1738.457	1587.342
-47.130	30.169	1697.956	1417.360
-46.115	27.595	1682.651	1385.005
-45.100	27.384	1678.216	1379.697
-44.086	27.294	1675.733	1376.921
-43.071	27.324	1672.969	1374.825
-42.057	27.365	1670.416	1372.978
-41.042	27.324	1668.656	1371.171
-40.027	27.324	1666.504	1369.347
-39.013	27.283	1663.878	1366.829
-37.998	27.274	1662.938	1365.932
-36.984	27.394	1661.310	1365.444
-35.969	27.409	1659.831	1364.281
-34.954	27.476	1658.499	1363.633
-33.940	27.528	1656.136	1362.027
-32.925	27.337	1655.156	1359.737
-31.911	27.417	1652.838	1358.377
-30.896	27.284	1651.683	1356.382
-29.881	27.371	1650.040	1355.627
-28.867	27.401	1647.229	1353.485
-27.852	27.439	1645.940	1352.655
-26.838	27.484	1644.437	1351.706
-25.823	27.391	1643.499	1350.189
-24.809	27.451	1642.186	1349.502
-23.794	27.415	1640.667	1347.937
-22.779	27.490	1639.267	1347.285
-21.765	27.481	1637.232	1345.491
-20.750	27.421	1636.148	1344.104
-19.736	27.421	1634.728	1342.886
-18.721	27.571	1632.960	1342.483
-17.706	27.478	1631.880	1340.861
-16.692	27.434	1630.484	1339.334
-15.677	27.466	1628.957	1338.261
-14.663	27.496	1627.324	1337.086
-13.648	27.576	1625.767	1336.339
-12.633	27.556	1624.726	1335.283
-11.619	27.509	1623.107	1333.560
-10.604	27.535	1621.809	1332.627
-9.590	27.390	1620.638	1330.553
-8.575	27.510	1618.535	1329.652
-7.560	27.477	1617.871	1328.811
-6.546	27.515	1617.197	1328.480
-5.531	27.430	1615.949	1326.783
-4.517	27.420	1614.766	1325.686
-3.502	27.419	1613.623	1324.694
-2.487	27.636	1611.984	1324.867
-1.473	27.363	1600.466	1313.379
-0.458	25.110	1581.872	1281.983
0.556	20.289	1584.053	1253.291
1.571	18.188	1608.468	1257.069
2.586	17.818	1620.849	1263.892
3.600	16.282	1566.769	1210.607
4.615	9.073	1455.674	1076.477
5.629	1.856	1392.051	982.923
6.644	0.500	1383.906	968.385
7.659	0.367	1382.536	966.493
8.673	0.208	1382.048	965.041
9.688	0.196	1379.930	963.401
10.702	0.087	1376.159	959.993
11.717	3.664	1381.967	986.845
12.731	11.690	1394.848	1047.551
13.746	16.539	1401.092	1083.284
14.761	16.867	1400.486	1084.819
15.775	16.164	1398.253	1078.497
16.790	15.301	1395.565	1070.818
17.804	14.545	1392.911	1063.871
18.819	14.075	1392.675	1060.595
19.834	13.817	1391.415	1057.901
20.848	13.604	1389.365	1054.890
21.863	13.268	1388.394	1051.926
22.877	13.130	1387.076	1049.953
23.892	13.186	1385.605	1049.107
24.907	13.193	1385.105	1048.675
25.921	13.094	1384.194	1047.265
26.936	13.100	1383.554	1046.731
27.950	13.220	1382.700	1046.748
28.965	13.345	1381.200	1046.312
29.980	13.334	1380.512	1045.630
30.994	13.412	1379.366	1045.159
32.009	13.306	1378.596	1043.817
33.023	13.389	1377.666	1043.541
34.038	13.386	1376.387	1042.466
35.053	13.320	1374.929	1040.850
36.067	13.263	1374.075	1039.757
37.082	13.350	1373.194	1039.540
38.096	13.349	1372.198	1038.689
39.111	13.414	1371.292	1038.323
40.126	13.343	1370.355	1037.074
41.140	13.164	1369.732	1035.385
42.155	13.178	1369.442	1035.163
43.169	13.147	1369.547	1034.959
44.184	13.186	1369.134	1034.801
45.199	13.075	1368.901	1033.835
46.213	13.191	1367.603	1033.488
47.228	13.166	1366.705	1032.562
48.242	13.276	1365.665	1032.374
49.257	13.251	1364.118	1030.957
50.271	13.315	1362.583	1030.105
51.286	13.181	1361.768	1028.565
52.301	13.253	1360.311	1027.819
53.315	13.182	1358.952	1026.258
54.330	13.099	1358.413	1025.248
55.344	13.121	1356.813	1024.086
56.359	13.187	1355.816	1023.655
57.374	13.111	1355.000	1022.472
58.388	13.182	1354.119	1022.160
59.403	13.165	1353.576	1021.550
60.417	13.137	1353.362	1021.129
61.432	13.108	1351.879	1019.738
62.447	13.057	1351.369	1018.949
63.461	13.068	1349.845	1017.779
64.476	13.039	1348.955	1016.840
65.490	13.171	1347.429	1016.408
66.505	13.091	1345.981	1014.737
67.520	13.057	1345.231	1013.874
68.534	13.086	1343.790	1012.873
69.549	13.138	1342.820	1012.371
70.563	13.124	1341.701	1011.355
71.578	13.113	1340.819	1010.535
72.593	13.110	1339.673	1009.561
73.607	13.016	1339.106	1008.472
74.622	12.969	1338.323	1007.504
75.636	13.006	1337.838	1007.276
76.651	12.958	1336.788	1006.102
77.666	12.931	1336.538	1005.662
78.680	13.032	1335.766	1005.605
79.695	13.012	1334.767	1004.645
80.709	13.108	1334.070	1004.612
81.724	13.158	1333.169	1004.151
82.739	13.098	1332.627	1003.288
83.753	13.153	1331.260	1002.507
84.768	13.354	1329.715	1002.470
85.782	13.269	1328.956	1001.294
86.797	13.228	1327.717	1000.028
87.812	13.153	1326.491	998.559
88.826	13.138	1325.471	997.611
89.841	13.231	1324.093	997.049
90.855	13.158	1323.278	995.905
91.870	13.257	1322.270	995.654
92.884	13.304	1321.481	995.259
93.899	13.328	1320.712	994.734
94.914	13.346	1319.685	993.979
95.928	13.365	1318.713	993.276
96.943	13.294	1318.033	992.249
97.957	13.295	1317.093	991.461
98.972	13.325	1315.885	990.642
99.987	13.253	1315.032	989.481
101.001	13.392	1314.016	989.458
102.016	13.309	1312.884	988.027
103.030	13.358	1311.647	987.301
104.045	13.239	1311.058	986.057
105.060	13.280	1309.901	985.346
106.074	13.210	1308.733	983.963
107.089	13.208	1307.310	982.793
108.103	13.155	1305.754	981.223
109.118	13.069	1304.462	979.652
110.133	13.230	1303.266	979.622
111.147	13.168	1302.162	978.340
112.162	13.214	1300.883	977.564
113.176	13.197	1300.237	976.891
114.191	13.226	1299.059	976.089
115.206	13.231	1297.859	975.134
116.220	13.264	1296.630	974.320
117.235	13.312	1295.105	973.367
118.249	13.227	1294.304	972.183
119.264	13.312	1293.027	971.637
120.279	13.256	1292.124	970.544
121.293	13.209	1290.986	969.326
122.308	13.193	1289.842	968.288
123.322	13.141	1288.849	967.150
124.337	13.259	1287.765	966.942
125.352	13.207	1286.957	965.945
126.366	13.229	1285.581	964.959
127.381	13.128	1285.082	963.909
128.395	13.188	1283.553	963.025
129.410	13.306	1282.563	962.883
130.424	13.276	1281.772	962.028
131.439	13.251	1280.618	960.937
132.454	13.252	1279.901	960.319
133.468	13.281	1278.631	959.445
134.483	13.299	1278.116	959.080
135.497	13.222	1277.053	957.752
136.512	13.237	1275.875	956.869
137.527	13.241	1274.238	955.584
138.541	13.265	1272.785	954.548
139.556	13.230	1271.679	953.431
140.570	13.237	1270.032	952.150
141.585	13.352	1269.053	951.992
142.600	13.310	1267.902	950.807
143.614	13.401	1267.051	950.607
144.629	13.406	1266.006	949.766
145.643	13.434	1264.884	949.002
146.658	13.414	1263.640	947.868
147.673	13.302	1262.238	946.096
148.687	13.330	1261.068	945.294
149.702	13.299	1259.608	943.939
150.716	13.265	1258.211	942.614
151.731	13.411	1256.740	942.260
152.746	13.349	1255.655	941.009
153.760	13.299	1254.894	940.074
154.775	13.452	1253.576	939.872
155.789	13.418	1252.660	938.909
156.804	13.496	1251.430	938.345
157.819	13.563	1250.646	938.055
158.833	13.596	1249.742	937.479
159.848	13.568	1248.549	936.342
160.862	13.478	1247.864	935.239
161.877	13.520	1246.725	934.539
162.892	13.507	1245.424	933.410
163.906	13.442	1244.834	932.517
164.921	13.549	1243.984	932.401
165.935	13.437	1243.207	931.105
166.950	13.537	1242.030	930.701
167.964	13.518	1241.498	930.115
168.979	13.544	1240.711	929.591
169.994	13.600	1239.415	928.847
171.008	13.606	1238.791	928.334
172.023	13.615	1238.243	927.893
173.037	13.622	1237.240	927.095
174.052	13.546	1236.647	926.146
175.067	13.593	1235.336	925.341
176.081	13.603	1234.003	924.322
177.096	13.523	1233.610	923.496
178.110	13.630	1232.299	923.032
179.125	13.610	1230.933	921.813
180.140	13.756	1229.664	921.592
181.154	13.588	1228.433	919.656
182.169	13.648	1227.448	919.172
183.183	13.771	1226.089	918.752
184.198	13.724	1225.635	918.074
185.213	13.820	1223.950	917.259
186.227	13.816	1222.866	916.345
187.242	13.832	1221.833	915.574
188.256	13.898	1220.885	915.151
189.271	13.758	1220.194	913.780
190.286	13.760	1219.087	912.882
191.300	13.780	1218.116	912.181
192.315	13.642	1217.430	910.830
193.329	13.591	1216.957	910.114
194.344	13.682	1216.168	909.941
195.359	13.890	1215.198	910.278
196.373	13.797	1214.911	909.472
197.388	13.851	1214.482	909.367
198.402	13.980	1214.028	909.652
199.417	14.096	1212.893	909.355
200.432	13.937	1212.393	908.034
201.446	14.058	1211.320	907.808
202.461	14.116	1210.539	907.459
203.475	14.140	1208.899	906.277
204.490	14.059	1207.923	905.026
205.504	14.023	1207.065	904.107
206.519	13.934	1205.860	902.640
207.534	13.993	1204.477	901.850
208.548	14.131	1203.520	901.800
209.563	14.054	1202.604	900.614
210.577	13.994	1202.188	899.898
211.592	14.073	1201.061	899.406
212.607	14.080	1200.151	898.683
213.621	14.199	1199.650	898.871
214.636	14.173	1198.256	897.605
215.650	14.143	1197.479	896.779
216.665	14.266	1196.356	896.523
217.680	14.291	1195.681	896.075
218.694	14.170	1194.976	894.814
219.709	14.298	1193.702	894.469
220.723	14.124	1193.518	893.318
221.738	14.388	1192.331	893.766
222.753	14.260	1191.740	892.560
223.767	14.328	1191.112	892.375
224.782	14.418	1190.224	892.113
225.796	14.477	1189.277	891.635
226.811	14.326	1189.376	890.827
227.826	14.371	1188.671	890.457
228.840	14.386	1187.421	889.524
229.855	14.511	1186.211	889.207
230.869	14.412	1186.151	888.554
231.884	14.506	1184.813	887.972
232.899	14.468	1184.189	887.227
233.913	14.412	1183.785	886.544
234.928	14.412	1183.008	885.886
235.942	14.333	1182.100	884.707
236.957	14.400	1181.234	884.339
237.972	14.330	1180.668	883.463
238.986	14.390	1180.244	883.387
240.001	14.331	1179.635	882.541
241.015	14.427	1178.736	882.296
242.030	14.367	1177.700	881.123
243.045	14.439	1177.111	880.989
244.059	14.490	1175.668	880.099
245.074	14.545	1175.008	879.819
246.088	14.546	1174.427	879.313
247.103	14.541	1173.966	878.862
248.117	14.692	1172.729	878.648
249.132	14.616	1172.383	877.913
250.147	14.668	1171.696	877.597
251.161	14.776	1170.748	877.375
252.176	14.840	1169.568	876.751
253.190	14.775	1169.680	876.414
254.205	14.932	1168.326	876.145
255.220	14.807	1168.277	875.378
256.234	14.891	1167.623	875.249
257.249	14.926	1166.565	874.562
258.263	14.933	1166.009	874.101
259.278	14.768	1165.798	873.005
260.293	14.894	1164.702	872.766
261.307	14.920	1164.483	872.661
262.322	14.878	1163.741	871.807
263.336	14.947	1163.256	871.729
264.351	15.028	1162.614	871.589
265.366	15.068	1161.700	871.038
266.380	15.067	1160.989	870.423
267.395	15.090	1159.842	869.602
268.409	14.967	1159.601	868.709
269.424	15.091	1158.868	868.724
270.439	15.063	1158.174	867.982
271.453	14.997	1157.603	867.137
272.468	14.907	1156.514	865.776
273.482	15.041	1155.935	865.959
274.497	15.002	1155.282	865.193
275.512	14.966	1154.944	864.674
276.526	15.152	1153.805	864.708
277.541	15.170	1152.854	864.013
278.555	15.216	1152.151	863.646
279.570	15.170	1151.482	862.829
280.585	15.184	1151.164	862.589
281.599	15.241	1149.935	861.882
282.614	15.157	1148.931	860.622
283.628	15.188	1147.759	859.826
284.643	15.282	1146.706	859.444
285.657	15.217	1146.190	858.649
286.672	15.332	1145.104	858.347
287.687	15.293	1144.116	857.330
288.701	15.275	1143.260	856.522
289.716	15.395	1142.381	856.399
290.730	15.402	1142.012	856.086
291.745	15.388	1141.372	855.458
292.760	15.383	1140.410	854.637
293.774	15.381	1140.276	854.449
294.789	15.398	1139.550	853.919
295.803	15.443	1138.782	853.494
296.818	15.426	1137.930	852.692
297.833	15.387	1137.445	852.055
298.847	15.400	1136.469	851.318
299.862	15.501	1135.534	851.053
300.876	15.460	1135.054	850.412
301.891	15.487	1134.279	849.892
302.906	15.513	1133.062	849.034
303.920	15.569	1132.994	849.190
304.935	15.693	1132.199	849.145
305.949	15.713	1131.378	848.557
306.964	15.667	1130.837	847.844
307.979	15.611	1130.093	846.932
308.993	15.650	1129.436	846.556
310.008	15.576	1129.032	845.808
311.022	15.748	1127.598	845.525
312.037	15.678	1127.062	844.696
313.052	15.636	1126.252	843.802
314.066	15.750	1124.611	843.070
315.081	15.624	1124.355	842.172
316.095	15.754	1123.482	842.094
317.110	15.751	1122.858	841.537
318.125	15.660	1122.241	840.544
319.139	15.680	1121.461	839.985
320.154	15.722	1120.775	839.609
321.168	15.759	1120.224	839.304
322.183	15.694	1120.043	838.770
323.197	15.704	1119.060	838.010
324.212	15.820	1118.259	837.913
325.227	15.870	1117.442	837.478
326.241	15.774	1117.186	836.736
327.256	15.805	1116.392	836.221
328.270	15.666	1115.613	834.870
329.285	15.724	1114.235	834.056
330.300	15.831	1113.490	833.951
331.314	15.807	1112.835	833.270
332.329	15.877	1111.423	832.485
333.343	15.880	1110.848	831.996
334.358	15.961	1109.790	831.530
335.373	15.966	1109.175	831.019
336.387	15.980	1108.445	830.467
337.402	16.045	1107.373	829.910
338.416	16.032	1107.106	829.574
339.431	16.040	1106.619	829.173
340.446	16.094	1105.728	828.699
341.460	16.110	1105.086	828.224
342.475	16.166	1104.148	827.720
343.489	16.265	1103.383	827.561
344.504	16.250	1102.272	826.579
345.519	16.183	1101.571	825.654
346.533	16.214	1100.920	825.245
347.548	16.260	1100.103	824.786
348.562	16.369	1099.054	824.456
349.577	16.155	1098.972	823.278
350.592	16.218	1097.694	822.556
351.606	16.177	1097.113	821.848
352.621	16.143	1096.279	820.985
353.635	16.104	1095.986	820.502
354.650	16.186	1094.919	820.031
355.665	16.238	1094.198	819.670
356.679	16.305	1093.600	819.476
357.694	16.265	1093.234	818.933
358.708	16.389	1092.142	818.646
359.723	16.300	1091.640	817.764
360.738	16.325	1091.364	817.607
361.752	16.376	1090.817	817.372
362.767	16.402	1090.026	816.831
363.781	16.462	1089.417	816.593
364.796	16.432	1088.884	815.975
365.810	16.472	1088.432	815.756
366.825	16.536	1087.671	815.424
367.840	16.551	1087.174	815.050
368.854	16.668	1086.234	814.839
369.869	16.613	1085.568	814.002
370.883	16.542	1085.096	813.232
371.898	16.590	1084.027	812.593
372.913	16.608	1083.581	812.273
373.927	16.560	1083.211	811.692
374.942	16.564	1082.447	811.068
375.956	16.616	1081.904	810.839
376.971	16.668	1081.309	810.568
377.986	16.734	1080.449	810.167
379.000	16.660	1080.494	809.777
380.015	16.819	1079.391	809.636
381.029	16.881	1078.445	809.154
382.044	16.803	1078.312	808.610
383.059	16.826	1077.577	808.096
384.073	16.832	1076.557	807.286
385.088	16.908	1075.497	806.783
386.102	16.824	1074.735	805.741
387.117	16.936	1073.523	805.294
388.132	16.801	1072.962	804.162
389.146	16.805	1072.286	803.599
390.161	16.770	1071.430	802.721
391.175	16.744	1070.907	802.136
392.190	16.881	1070.250	802.222
393.205	16.982	1068.978	801.673
394.219	16.996	1068.360	801.206
395.234	16.894	1067.796	800.231
396.248	16.831	1066.981	799.251
397.263	16.894	1065.902	798.671
398.278	16.845	1065.249	797.881
399.292	16.858	1064.211	797.093
400.307	16.836	1063.639	796.492
401.321	16.886	1062.992	796.171
402.336	16.976	1062.209	795.936
403.350	16.891	1061.516	794.948
404.365	17.062	1060.848	795.180
405.380	16.993	1060.309	794.380
406.394	16.995	1059.545	793.745
407.409	17.104	1058.726	793.571
408.423	17.090	1058.550	793.307
409.438	17.154	1057.535	792.775
410.453	17.143	1056.471	791.854
411.467	17.228	1055.928	791.773
412.482	17.159	1055.313	790.921
413.496	17.241	1054.530	790.647
414.511	17.318	1054.062	790.583
415.526	17.414	1053.364	790.436
416.540	17.284	1053.377	789.772
417.555	17.277	1052.446	788.969
418.569	17.366	1051.856	788.871
419.584	17.341	1051.589	788.486
420.599	17.377	1051.197	788.287
421.613	104.954	1327.494	1478.447
422.628	96.598	1367.666	1478.544
