DTS Sentinel unit serial number:	SN413079Multiplexer serial number:	ORYXHardware model number:	OX4-SRSoftware version number:	ORYX F/W v4.00 Oryx Data Collector v3.7.2.0data status	okinstallation	princeton_trtdifferential loss correction	single-endedforward channel	channel 2reverse channel	N/Adate	2019/09/11time	10:01:11forward acquisition time	60.00reverse acquisition time	0.00gamma	496.2192k internal	0.2314k external	0.2314temperature offset calibration	0.9968default loss term (dB/km)	0.3790temperature slope calibration	1.0000multiplexer offset coefficient	1.0000multiplexer slope coefficient	1.0000fibre end	0.00T internal ref (°C)	35.37T ext. ref 1 (°C)	0.15T ext. ref 2 (°C)	32.76length (m)	temperature (°C)	Stokes	anti-Stokes-747.200	-93.002	0.221	-0.062
-746.185	1.143	0.078	0.057
-745.171	-106.897	-0.586	-0.132
-744.156	50.167	0.178	-0.170
-743.142	404.210	-0.069	0.148
-742.127	-121.757	-0.081	0.014
-741.112	63.569	-0.177	0.180
-740.098	171.493	-0.178	0.259
-739.083	58.804	-0.387	0.386
-738.069	-78.073	-0.297	-0.104
-737.054	502.394	-0.102	0.238
-736.039	-200.000	-0.010	-0.081
-735.025	148.999	0.066	0.091
-734.010	344.705	-0.069	0.137
-732.996	291.641	0.164	-0.303
-731.981	395.212	-0.149	0.315
-730.966	163.788	-0.319	0.455
-729.952	-200.000	-0.039	-0.314
-728.937	-32.636	-0.407	-0.230
-727.923	-151.715	-0.175	-0.013
-726.908	800.000	0.085	-0.254
-725.894	667.334	0.050	-0.131
-724.879	14.058	0.083	-0.065
-723.864	-200.000	-0.066	0.340
-722.850	-52.102	-0.386	-0.181
-721.835	800.000	-0.056	-0.171
-720.821	483.567	0.067	0.154
-719.806	92.632	-0.180	-0.206
-718.791	-19.553	-0.067	-0.042
-717.777	12.589	-0.291	-0.227
-716.762	-200.000	-0.014	-0.123
-715.748	398.917	-0.130	-0.275
-714.733	800.000	-0.020	-0.074
-713.718	-200.000	0.019	-0.333
-712.704	69.801	0.122	-0.127
-711.689	96.944	0.158	-0.183
-710.675	64.441	-0.237	-0.242
-709.660	-63.679	-0.437	-0.181
-708.645	-101.388	0.333	0.082
-707.631	-82.601	-0.409	-0.134
-706.616	-200.000	0.013	0.105
-705.602	800.000	-0.091	-0.380
-704.587	127.807	0.197	-0.253
-703.572	78.877	0.184	-0.199
-702.558	-93.186	-0.327	-0.092
-701.543	-0.464	-0.273	-0.196
-700.529	-109.467	-0.275	-0.059
-699.514	-48.552	0.199	-0.097
-698.499	800.000	-0.050	-0.142
-697.485	-1.311	0.056	-0.040
-696.470	800.000	0.038	-0.109
-695.456	51.158	0.108	-0.104
-694.441	-200.000	0.005	0.132
-693.426	-200.000	0.062	0.373
-692.412	62.952	0.140	-0.142
-691.397	189.110	0.041	0.061
-690.383	-80.178	-0.214	-0.073
-689.368	-200.000	-0.019	0.089
-688.354	-128.410	0.129	0.019
-687.339	-45.635	0.077	-0.038
-686.324	800.000	-0.054	-0.206
-685.310	800.000	0.062	-0.178
-684.295	-200.000	0.067	-0.507
-683.281	99.258	0.142	-0.166
-682.266	-153.276	0.122	0.009
-681.251	60.097	-0.249	-0.249
-680.237	-31.801	0.140	-0.079
-679.222	319.395	-0.072	-0.138
-678.208	-100.838	-0.098	-0.024
-677.193	195.061	0.072	0.111
-676.178	-4.456	-0.082	0.058
-675.164	-189.296	-0.042	0.000
-674.149	5.865	-0.148	-0.111
-673.135	166.934	0.107	-0.153
-672.120	-200.000	0.019	-0.140
-671.105	-200.000	0.051	-0.228
-670.091	220.469	-0.098	0.158
-669.076	-200.000	-0.106	0.489
-668.062	-102.626	-0.190	0.046
-667.047	172.195	-0.046	0.067
-666.032	-200.000	0.068	0.317
-665.018	-32.262	-0.111	0.063
-664.003	800.000	-0.086	-0.278
-662.989	-20.604	-0.153	0.095
-661.974	35.462	-0.308	0.273
-660.959	560.479	-0.058	0.141
-659.945	-99.274	-0.143	-0.037
-658.930	-121.402	-0.011	-0.002
-657.916	201.087	0.175	-0.271
-656.901	-84.032	-0.372	-0.119
-655.886	135.989	-0.117	0.154
-654.872	178.354	0.024	-0.035
-653.857	-31.633	-0.350	0.198
-652.843	159.083	-0.145	0.204
-651.828	-192.367	0.060	0.001
-650.814	10.515	0.019	0.015
-649.799	-200.000	0.042	-0.318
-648.784	-157.304	0.188	0.011
-647.770	95.750	-0.125	-0.144
-646.755	84.460	-0.070	-0.077
-645.741	137.339	0.145	-0.191
-644.726	-200.000	-0.015	-0.169
-643.711	6.514	-0.219	0.164
-642.697	-200.000	-0.019	-0.152
-641.682	412.833	-0.138	0.296
-640.668	-138.871	-0.083	0.009
-639.653	-112.025	-0.282	0.057
-638.638	-59.841	0.037	0.016
-637.624	-200.000	-0.015	0.071
-636.609	-200.000	0.002	0.037
-635.595	127.041	0.007	0.009
-634.580	-137.139	-0.138	-0.016
-633.565	35.002	-0.281	-0.248
-632.551	111.531	0.125	0.153
-631.536	-48.099	-0.100	-0.049
-630.522	39.959	0.264	-0.239
-629.507	-5.851	-0.275	0.190
-628.492	154.473	-0.159	-0.220
-627.478	259.288	0.240	0.417
-626.463	-117.290	-0.164	-0.030
-625.449	124.962	-0.059	-0.075
-624.434	-80.405	-0.150	0.051
-623.419	395.011	-0.121	-0.254
-622.405	-72.851	-0.249	0.093
-621.390	119.748	-0.083	0.104
-620.376	-83.687	-0.280	0.090
-619.361	-200.000	-0.016	-0.343
-618.346	65.905	0.258	-0.264
-617.332	60.091	0.202	-0.202
-616.317	106.795	-0.064	0.077
-615.303	-35.876	0.093	-0.051
-614.288	-158.813	-0.174	-0.010
-613.273	45.563	-0.340	-0.317
-612.259	-68.837	0.248	-0.097
-611.244	129.177	-0.077	-0.099
-610.230	-132.929	0.061	0.008
-609.215	-113.371	0.317	0.063
-608.201	144.017	-0.235	0.316
-607.186	-82.406	-0.109	0.036
-606.171	-200.000	0.026	0.127
-605.157	591.756	-0.168	-0.419
-604.142	-82.285	-0.329	0.108
-603.128	-200.000	-0.068	0.346
-602.113	-200.000	0.032	0.244
-601.098	51.033	0.028	0.027
-600.084	-55.062	-0.087	-0.039
-599.069	-200.000	0.015	0.178
-598.055	788.901	0.075	0.208
-597.040	152.720	0.128	0.177
-596.025	-45.018	-0.092	-0.046
-595.011	765.838	0.110	0.302
-593.996	-54.757	-0.408	-0.186
-592.982	306.548	-0.147	-0.276
-591.967	378.927	0.176	0.363
-590.952	-68.932	0.226	-0.088
-589.938	155.678	-0.266	0.369
-588.923	-158.516	-0.056	0.003
-587.909	800.000	-0.174	-0.491
-586.894	43.903	-0.093	0.086
-585.879	235.117	-0.223	-0.371
-584.865	-200.000	-0.013	0.093
-583.850	-200.000	0.036	0.228
-582.836	190.833	-0.124	0.187
-581.821	-143.955	-0.116	0.011
-580.806	164.214	-0.135	0.191
-579.792	109.144	-0.179	-0.216
-578.777	192.713	0.088	-0.134
-577.763	275.673	0.051	-0.092
-576.748	800.000	-0.059	0.209
-575.733	-140.663	0.180	0.019
-574.719	-200.000	-0.006	-0.176
-573.704	-162.476	0.071	-0.004
-572.690	-37.115	-0.303	-0.163
-571.675	185.548	-0.035	0.052
-570.661	57.224	-0.179	0.176
-569.646	-52.785	0.129	0.060
-568.631	-200.000	-0.010	-0.095
-567.617	800.000	-0.040	-0.118
-566.602	13.769	-0.098	0.076
-565.588	-89.788	0.195	-0.058
-564.573	43.601	0.124	0.114
-563.558	-7.078	-0.160	-0.109
-562.544	-56.140	0.164	0.073
-561.529	-46.838	-0.131	0.065
-560.515	-30.597	0.209	0.119
-559.500	139.994	0.016	-0.022
-558.485	-1.587	-0.185	0.131
-557.471	-150.302	0.307	-0.024
-556.456	100.681	-0.060	0.071
-555.442	800.000	-0.118	-0.354
-554.427	-130.007	-0.072	-0.010
-553.412	-107.644	-0.089	0.020
-552.398	-23.406	0.095	-0.058
-551.383	-48.665	-0.191	0.092
-550.369	60.008	0.150	-0.149
-549.354	15.907	0.158	0.125
-548.339	-200.000	0.011	-0.106
-547.325	-135.305	-0.086	-0.010
-546.310	76.943	-0.041	0.044
-545.296	800.000	0.068	-0.209
-544.281	202.981	-0.068	-0.105
-543.266	260.191	-0.054	-0.094
-542.252	-73.697	0.067	-0.025
-541.237	-200.000	0.029	0.240
-540.223	-4.507	-0.105	-0.073
-539.208	176.290	-0.177	-0.259
-538.193	-200.000	0.008	-0.214
-537.179	-34.762	0.075	0.041
-536.164	69.627	0.029	-0.030
-535.150	21.793	0.138	-0.113
-534.135	-200.000	0.019	-0.109
-533.121	-51.006	-0.166	0.078
-532.106	117.328	0.013	-0.016
-531.091	-71.187	0.084	0.032
-530.077	800.000	0.045	-0.172
-529.062	-123.643	-0.175	0.028
-528.048	57.127	0.086	0.084
-527.033	442.911	0.042	-0.092
-526.018	-169.158	-0.270	0.010
-525.004	3.748	-0.191	0.140
-523.989	-200.000	0.050	0.286
-522.975	74.357	-0.134	-0.141
-521.960	5.911	-0.114	0.085
-520.945	186.732	-0.154	-0.230
-519.931	611.539	0.040	-0.100
-518.916	13.110	0.261	-0.203
-517.902	-200.000	0.017	-0.211
-516.887	431.593	0.112	-0.244
-515.872	-50.765	-0.233	-0.110
-514.858	19.497	-0.106	0.085
-513.843	800.000	0.146	0.534
-512.829	367.655	-0.055	0.112
-511.814	16.371	-0.032	0.026
-510.799	-200.000	0.008	0.181
-509.785	252.972	0.125	-0.214
-508.770	112.798	0.151	-0.184
-507.756	-156.376	-0.241	0.015
-506.741	205.701	0.077	0.120
-505.726	745.955	-0.034	0.092
-504.712	592.390	0.090	-0.223
-503.697	12.547	-0.055	-0.043
-502.683	-33.559	0.109	-0.061
-501.668	-21.235	0.060	-0.037
-500.653	-63.789	0.332	-0.136
-499.639	42.167	0.182	-0.166
-498.624	-56.625	-0.206	0.092
-497.610	-80.655	0.284	0.095
-496.595	800.000	-0.074	0.251
-495.581	-200.000	0.035	0.216
-494.566	-126.230	-0.152	0.023
-493.551	-130.004	0.296	-0.041
-492.537	-122.665	0.091	0.015
-491.522	-123.431	0.231	-0.037
-490.508	-158.801	0.102	0.006
-489.493	-82.119	0.317	0.104
-488.478	309.143	-0.050	-0.094
-487.464	45.553	-0.146	-0.135
-486.449	-74.457	-0.311	-0.113
-485.435	92.187	-0.063	-0.071
-484.420	425.511	-0.052	-0.112
-483.405	-35.749	-0.139	0.075
-482.391	132.457	0.439	0.567
-481.376	-46.745	0.097	0.047
-480.362	-69.559	0.224	0.086
-479.347	-45.627	-0.261	0.129
-478.332	784.496	0.125	0.343
-477.318	-39.018	-0.259	0.137
-476.303	-39.800	-0.408	-0.214
-475.289	14.230	0.338	0.264
-474.274	-38.580	-0.154	0.082
-473.259	58.651	-0.081	0.080
-472.245	-54.017	-0.076	0.035
-471.230	-9.860	0.078	0.052
-470.216	-85.133	0.127	-0.040
-469.201	-116.734	-0.232	-0.043
-468.186	198.027	0.102	0.157
-467.172	339.619	0.033	-0.065
-466.157	98.812	0.151	0.175
-465.143	421.118	-0.073	0.157
-464.128	800.000	0.042	-0.143
-463.113	-81.938	0.326	-0.107
-462.099	46.520	0.194	-0.181
-461.084	511.925	-0.090	-0.210
-460.070	-44.879	-0.129	0.065
-459.055	41.485	0.129	0.117
-458.040	-200.000	-0.003	-0.228
-457.026	-38.614	-0.176	0.093
-456.011	-98.995	-0.097	0.025
-454.997	-200.000	-0.007	0.207
-453.982	800.000	-0.096	0.370
-452.968	-169.675	0.303	-0.011
-451.953	24.821	-0.228	-0.190
-450.938	-92.083	0.184	-0.052
-449.924	-27.399	-0.135	0.078
-448.909	100.921	0.187	-0.218
-447.895	-154.851	0.248	0.016
-446.880	59.809	0.349	0.345
-445.865	-194.999	0.129	-0.001
-444.851	800.000	-0.095	-0.412
-443.836	-143.377	-0.239	0.023
-442.822	382.164	0.120	0.248
-441.807	800.000	0.038	-0.142
-440.792	-200.000	-0.021	-0.501
-439.778	-37.993	0.307	0.164
-438.763	-200.000	-0.008	0.065
-437.749	-200.000	-0.013	-0.146
-436.734	800.000	-0.045	-0.127
-435.719	455.286	0.065	-0.145
-434.705	-96.184	0.088	-0.023
-433.690	-74.902	-0.074	-0.027
-432.676	800.000	0.031	0.101
-431.661	-17.598	0.127	0.080
-430.646	-88.371	-0.124	0.037
-429.632	800.000	0.082	0.312
-428.617	-7.601	0.228	0.154
-427.603	106.759	-0.175	-0.207
-426.588	-132.286	0.199	-0.026
-425.573	211.441	0.110	-0.173
-424.559	-55.567	0.251	0.113
-423.544	25.141	0.124	0.103
-422.530	-200.000	0.031	-0.269
-421.515	-127.814	-0.035	-0.005
-420.500	-122.609	0.035	-0.006
-419.486	41.512	0.182	-0.165
-418.471	-121.722	-0.132	0.022
-417.457	249.838	0.137	0.232
-416.442	292.839	-0.192	0.350
-415.428	-129.820	0.149	0.021
-414.413	94.831	-0.052	0.060
-413.398	-28.447	0.356	0.205
-412.384	-200.000	0.034	-0.207
-411.369	23.389	-0.276	-0.227
-410.355	14.585	0.222	0.174
-409.340	-108.679	-0.328	-0.070
-408.325	-200.000	0.030	0.216
-407.311	384.221	-0.222	0.457
-406.296	89.887	-0.083	0.093
-405.282	9.385	0.192	0.145
-404.267	-200.000	-0.022	0.215
-403.252	-120.609	0.091	0.015
-402.238	223.441	-0.062	-0.100
-401.223	-173.279	-0.080	0.002
-400.209	96.959	-0.161	-0.185
-399.194	264.394	0.193	0.336
-398.179	-114.475	-0.365	0.070
-397.165	560.272	-0.067	-0.162
-396.150	-106.011	0.071	0.016
-395.136	-6.110	-0.340	0.232
-394.121	-199.019	0.351	0.002
-393.106	800.000	-0.041	0.125
-392.092	83.622	0.051	-0.056
-391.077	-98.146	0.388	0.100
-390.063	-154.061	0.147	-0.010
-389.048	-64.146	-0.246	-0.100
-388.033	-90.980	0.215	0.062
-387.019	-200.000	0.012	0.661
-386.004	-42.278	-0.283	-0.145
-384.990	57.358	0.108	0.105
-383.975	514.779	0.042	-0.098
-382.960	6.801	0.171	0.128
-381.946	800.000	0.112	-0.448
-380.931	391.735	-0.078	0.161
-379.917	-61.397	0.087	0.037
-378.902	43.829	-0.218	-0.200
-377.888	-200.000	-0.033	-0.306
-376.873	19.479	0.090	-0.072
-375.858	267.062	0.191	-0.333
-374.844	740.281	-0.119	-0.320
-373.829	800.000	0.053	0.195
-372.815	-159.487	0.239	-0.013
-371.800	-200.000	-0.020	-0.109
-370.785	-200.000	-0.059	0.277
-369.771	75.483	-0.003	-0.004
-368.756	-150.842	-0.179	0.014
-367.742	416.595	-0.097	0.206
-366.727	-149.384	0.259	0.021
-365.712	800.000	0.105	-0.330
-364.698	-200.000	0.024	-0.131
-363.683	85.621	0.105	0.115
-362.669	-103.170	0.356	-0.084
-361.654	169.745	-0.270	-0.386
-360.639	59.775	0.203	0.200
-359.625	439.655	-0.039	-0.085
-358.610	454.532	-0.026	0.059
-357.596	-157.140	0.243	-0.015
-356.581	183.473	0.157	-0.232
-355.566	-33.716	0.068	-0.037
-354.552	-59.654	0.187	0.080
-353.537	-18.173	-0.116	0.073
-352.523	-112.091	-0.416	-0.084
-351.508	-120.030	-0.251	0.043
-350.493	2.255	-0.154	-0.111
-349.479	-27.445	-0.076	-0.044
-348.464	538.749	0.030	0.071
-347.450	-21.145	-0.415	-0.254
-346.435	-200.000	-0.026	-0.167
-345.420	-10.075	0.181	0.120
-344.406	35.043	-0.119	0.104
-343.391	134.869	-0.085	0.110
-342.377	-34.349	0.278	-0.152
-341.362	-65.093	-0.211	-0.085
-340.348	169.570	0.214	-0.305
-339.333	-96.922	0.148	-0.039
-338.318	-145.116	-0.356	-0.032
-337.304	-39.077	-0.199	-0.104
-336.289	-200.000	-0.029	0.149
-335.275	-200.000	0.001	0.030
-334.260	-200.000	0.028	-0.176
-333.245	-107.658	-0.125	-0.027
-332.231	-200.000	0.022	-0.100
-331.216	-112.278	0.242	-0.048
-330.202	302.025	0.114	-0.209
-329.187	-200.000	0.038	0.192
-328.172	339.351	0.067	0.130
-327.158	1.462	-0.302	0.217
-326.143	-139.899	0.205	-0.022
-325.129	148.280	-0.107	0.144
-324.114	800.000	0.077	0.309
-323.099	-73.959	0.207	0.075
-322.085	294.170	0.168	0.306
-321.070	34.425	-0.147	0.128
-320.056	-92.841	0.051	-0.014
-319.041	73.640	-0.097	-0.102
-318.026	106.816	0.083	0.098
-317.012	528.115	0.094	0.221
-315.997	-126.409	-0.344	-0.051
-314.983	-200.000	0.086	0.402
-313.968	94.220	0.029	-0.033
-312.953	800.000	0.074	0.211
-311.939	-148.392	0.146	-0.012
-310.924	30.790	0.370	0.316
-309.910	220.907	-0.097	0.155
-308.895	488.568	0.063	-0.143
-307.880	-103.335	-0.206	0.048
-306.866	5.671	-0.178	-0.131
-305.851	-52.541	-0.056	-0.026
-304.837	-162.791	0.308	0.015
-303.822	-8.312	0.148	-0.099
-302.807	800.000	0.092	-0.290
-301.793	-146.489	0.220	-0.019
-300.778	93.377	0.111	-0.125
-299.764	33.025	-0.161	0.139
-298.749	-50.890	-0.085	-0.040
-297.735	-75.526	0.259	0.092
-296.720	-98.951	-0.010	-0.003
-295.705	-200.000	0.004	0.207
-294.691	686.631	-0.143	0.373
-293.676	-6.997	0.078	0.053
-292.662	92.808	-0.189	0.213
-291.647	-48.179	-0.286	-0.138
-290.632	800.000	0.028	-0.118
-289.618	131.376	-0.053	0.067
-288.603	-79.286	0.520	-0.176
-287.589	-4.396	-0.017	-0.012
-286.574	681.201	-0.037	-0.096
-285.559	121.076	-0.129	-0.160
-284.545	-14.031	0.157	0.101
-283.530	-118.532	0.235	0.041
-282.516	-200.000	-0.029	-0.381
-281.501	-200.000	0.021	-0.152
-280.486	24.806	0.102	0.084
-279.472	376.767	-0.105	-0.213
-278.457	-139.363	0.166	-0.018
-277.443	394.058	-0.050	0.104
-276.428	-200.000	-0.053	0.254
-275.413	-170.397	-0.308	0.011
-274.399	3.829	0.404	-0.293
-273.384	-200.000	-0.009	-0.135
-272.370	43.276	0.131	0.119
-271.355	-132.506	0.264	0.034
-270.340	-134.936	-0.196	-0.024
-269.326	800.000	0.006	-0.020
-268.311	514.401	-0.083	0.194
-267.297	-64.245	-0.347	0.141
-266.282	-83.747	0.086	0.027
-265.267	-28.774	-0.143	-0.082
-264.253	3.521	0.225	-0.163
-263.238	260.953	-0.156	-0.268
-262.224	-200.000	-0.026	-0.312
-261.209	-21.963	0.314	0.190
-260.195	-43.487	0.134	-0.067
-259.180	-43.081	0.155	0.078
-258.165	800.000	0.119	0.328
-257.151	-15.613	0.115	0.073
-256.136	-108.342	-0.448	-0.096
-255.122	-81.432	-0.164	-0.054
-254.107	6.827	-0.075	-0.055
-253.092	800.000	0.086	-0.340
-252.078	800.000	0.078	0.235
-251.063	94.522	0.051	0.058
-250.049	-146.309	-0.114	0.010
-249.034	-126.996	0.103	-0.015
-248.019	37.505	0.260	-0.230
-247.005	788.005	0.045	-0.122
-245.990	30.564	-0.300	0.255
-244.976	98.776	-0.089	-0.102
-243.961	-200.000	0.023	-0.216
-242.946	160.487	0.103	0.143
-241.932	131.826	0.204	0.260
-240.917	32.131	-0.152	0.130
-239.903	-7.618	-0.243	-0.163
-238.888	59.948	-0.048	0.047
-237.873	492.110	0.080	0.183
-236.859	-30.421	0.216	-0.122
-235.844	87.776	-0.141	-0.156
-234.830	78.659	-0.046	-0.049
-233.815	800.000	-0.077	-0.316
-232.800	-91.758	-0.171	-0.048
-231.786	132.685	-0.250	-0.320
-230.771	800.000	0.063	-0.216
-229.757	-108.885	0.264	0.056
-228.742	800.000	0.052	-0.207
-227.727	-13.594	0.046	-0.030
-226.713	-200.000	-0.049	0.455
-225.698	-104.266	-0.148	0.034
-224.684	36.697	-0.190	-0.167
-223.669	56.346	0.104	0.101
-222.655	-24.810	0.190	-0.112
-221.640	-132.424	-0.102	0.013
-220.625	-5.052	-0.196	0.134
-219.611	-34.362	-0.199	0.108
-218.596	-71.835	0.250	0.093
-217.582	-200.000	0.017	0.227
-216.567	256.797	-0.111	-0.189
-215.552	800.000	-0.006	0.020
-214.538	131.384	0.221	0.282
-213.523	-200.000	0.071	0.310
-212.509	-200.000	0.019	-0.128
-211.494	250.920	0.082	0.138
-210.479	-73.426	-0.072	0.026
-209.465	-150.092	0.330	-0.025
-208.450	618.752	-0.030	0.074
-207.436	-32.383	0.282	0.156
-206.421	-65.319	-0.170	0.068
-205.406	800.000	0.060	0.238
-204.392	-115.103	-0.239	-0.045
-203.377	-58.336	-0.057	-0.025
-202.363	92.985	0.213	0.239
-201.348	-72.207	-0.362	-0.133
-200.333	345.780	-0.060	0.118
-199.319	31.929	0.202	0.173
-198.304	55.189	0.183	-0.176
-197.290	-174.372	0.198	-0.006
-196.275	94.072	-0.067	0.076
-195.260	357.222	-0.147	0.291
-194.246	-49.997	-0.186	-0.087
-193.231	148.452	-0.126	-0.169
-192.217	374.121	-0.070	-0.140
-191.202	-31.616	0.147	-0.082
-190.187	-163.709	-0.135	0.006
-189.173	60.723	0.038	0.037
-188.158	800.000	-0.032	0.129
-187.144	-126.752	-0.400	-0.059
-186.129	-18.750	-0.068	0.042
-185.114	800.000	-0.013	-0.053
-184.100	632.471	-0.137	-0.344
-183.085	-33.000	-0.420	-0.231
-182.071	-200.000	-0.010	-0.084
-181.056	50.986	0.099	-0.093
-180.042	-200.000	-0.012	-0.251
-179.027	385.694	0.022	0.044
-178.012	-70.414	0.432	0.163
-176.998	-27.544	-0.404	-0.233
-175.983	-22.916	0.046	-0.027
-174.969	800.000	0.014	-0.046
-173.954	266.788	0.104	-0.180
-172.939	11.253	-0.015	0.011
-171.925	140.065	-0.078	-0.101
-170.910	-3.370	-0.209	0.144
-169.896	800.000	0.039	0.132
-168.881	769.940	0.040	-0.107
-167.866	-200.000	0.038	-0.229
-166.852	56.200	0.182	-0.176
-165.837	98.807	-0.153	0.175
-164.823	800.000	-0.090	0.367
-163.808	-120.395	0.191	-0.032
-162.793	-200.000	0.039	-0.244
-161.779	19.689	-0.231	-0.184
-160.764	-65.053	-0.340	0.136
-159.750	-132.129	0.247	0.032
-158.735	774.672	0.024	0.064
-157.720	-156.387	0.419	-0.026
-156.706	-109.930	0.031	0.007
-155.691	800.000	0.050	0.208
-154.677	-200.000	0.021	-0.152
-153.662	-80.861	0.255	0.084
-152.647	303.350	0.074	-0.136
-151.633	-107.271	-0.230	-0.050
-150.618	18.701	-0.052	-0.041
-149.604	800.000	0.054	-0.188
-148.589	-75.951	-0.238	0.084
-147.574	46.076	0.335	-0.307
-146.560	133.719	-0.074	-0.095
-145.545	-80.649	0.141	-0.047
-144.531	-118.761	-0.214	0.037
-143.516	-60.098	-0.212	0.090
-142.502	179.107	0.083	-0.120
-141.487	205.340	0.057	0.088
-140.472	503.393	0.098	0.225
-139.458	125.969	-0.257	0.322
-138.443	-39.068	-0.226	-0.118
-137.429	-141.911	-0.187	0.018
-136.414	44.382	0.204	0.186
-135.399	-200.000	-0.002	-0.121
-134.385	-27.840	0.153	-0.088
-133.370	12.936	0.190	0.145
-132.356	-48.237	0.101	0.048
-131.341	215.440	0.028	-0.044
-130.326	-161.139	0.060	0.003
-129.312	-13.517	0.285	-0.183
-128.297	-114.045	0.172	0.033
-127.283	-152.554	-0.059	0.004
-126.268	-108.405	-0.196	-0.042
-125.253	-200.000	-0.039	-0.191
-124.239	134.394	-0.153	0.196
-123.224	235.047	-0.084	-0.137
-122.210	-24.096	-0.141	0.083
-121.195	34.022	0.107	0.092
-120.180	143.617	0.070	0.093
-119.166	800.000	-0.050	-0.171
-118.151	194.620	-0.207	-0.311
-117.137	-162.795	-0.239	-0.012
-116.122	-200.000	0.006	0.185
-115.107	94.918	0.122	-0.137
-114.093	233.270	0.016	0.026
-113.078	-200.000	-0.001	0.012
-112.064	-200.000	0.063	-0.360
-111.049	800.000	0.081	-0.288
-110.034	61.900	0.233	-0.230
-109.020	800.000	-0.102	0.317
-108.005	-200.000	0.006	0.035
-106.991	-130.995	0.130	-0.017
-105.976	-25.347	-0.224	-0.131
-104.962	800.000	0.091	0.305
-103.947	-200.000	-0.036	-0.273
-102.932	-200.000	0.058	0.351
-101.918	-118.613	0.164	0.029
-100.903	20.152	0.293	0.234
-99.889	-200.000	-0.004	-0.356
-98.874	-85.914	0.050	0.015
-97.859	171.291	0.081	-0.114
-96.845	-200.000	0.107	-0.468
-95.830	703.886	-0.090	-0.235
-94.816	-174.244	-0.064	0.002
-93.801	800.000	-0.028	-0.115
-92.786	-200.000	0.012	-0.066
-91.772	-200.000	-0.021	0.116
-90.757	47.909	0.263	-0.243
-89.743	-94.682	0.142	-0.038
-88.728	50.238	0.174	-0.163
-87.713	-63.173	-0.279	0.114
-86.699	57.800	0.247	0.238
-85.684	14.879	-0.031	0.024
-84.670	-108.684	-0.307	0.065
-83.655	-200.000	-0.013	0.312
-82.640	730.129	-0.117	0.309
-81.626	-157.781	0.226	-0.013
-80.611	75.681	-0.133	0.139
-79.597	800.000	0.004	-0.017
-78.582	80.297	0.070	-0.075
-77.567	-200.000	0.010	-0.300
-76.553	800.000	0.064	-0.245
-75.538	-17.606	0.057	-0.035
-74.524	-16.892	-0.080	-0.050
-73.509	67.279	0.137	0.138
-72.494	-200.000	0.026	-0.216
-71.480	104.310	-0.143	0.166
-70.465	800.000	0.117	0.354
-69.451	800.000	0.029	-0.108
-68.436	269.287	0.088	0.153
-67.422	-55.342	-0.213	-0.094
-66.407	260.424	0.122	0.209
-65.392	-178.052	0.121	-0.003
-64.378	-100.488	-0.266	0.065
-63.363	-0.423	-0.090	-0.063
-62.349	-195.220	0.273	-0.002
-61.334	22.135	-1.042	-0.840
-60.319	61.371	0.319	0.313
-59.305	800.000	-0.257	-1.101
-58.290	238.792	0.629	1.032
-57.276	-200.000	0.319	1.631
-56.261	-200.000	90.153	504.858
-55.246	557.633	1365.632	3249.577
-54.232	185.433	2617.684	3835.799
-53.217	110.887	2338.185	2777.023
-52.203	44.445	1948.495	1765.985
-51.188	38.522	1731.933	1523.727
-50.173	35.806	1686.360	1462.948
-49.159	51.158	1732.472	1621.617
-48.144	54.463	1749.995	1663.432
-47.130	38.373	1707.635	1500.965
-46.115	35.406	1692.930	1465.365
-45.100	35.310	1687.700	1460.045
-44.086	35.149	1685.608	1456.957
-43.071	35.190	1682.362	1454.403
-42.057	35.186	1680.246	1452.483
-41.042	35.183	1678.410	1450.818
-40.027	35.240	1676.739	1449.746
-39.013	35.189	1674.894	1447.709
-37.998	35.134	1673.154	1445.737
-36.984	35.164	1671.870	1444.797
-35.969	35.378	1670.179	1444.889
-34.954	35.456	1668.304	1443.791
-33.940	35.281	1666.841	1441.157
-32.925	35.332	1665.106	1439.983
-31.911	35.382	1663.150	1438.604
-30.896	35.396	1661.520	1437.243
-29.881	35.378	1660.131	1435.848
-28.867	35.344	1658.317	1433.974
-27.852	35.429	1656.361	1432.856
-26.838	35.393	1655.107	1431.451
-25.823	35.368	1654.159	1430.383
-24.809	35.457	1652.611	1429.649
-23.794	35.437	1651.052	1428.100
-22.779	35.421	1649.493	1426.571
-21.765	35.401	1647.722	1424.838
-20.750	35.417	1645.662	1423.114
-19.736	35.419	1644.461	1422.039
-18.721	35.426	1643.035	1420.803
-17.706	35.379	1641.920	1419.434
-16.692	35.393	1639.826	1417.671
-15.677	35.439	1638.508	1416.814
-14.663	35.430	1637.367	1415.700
-13.648	35.412	1635.900	1414.250
-12.633	35.423	1634.240	1412.839
-11.619	35.380	1632.996	1411.387
-10.604	35.476	1630.565	1409.936
-9.590	35.361	1629.989	1408.536
-8.575	35.397	1628.605	1407.548
-7.560	35.442	1627.201	1406.613
-6.546	35.494	1625.934	1405.841
-5.531	35.383	1625.527	1404.623
-4.517	35.483	1623.825	1403.824
-3.502	35.417	1623.060	1402.627
-2.487	35.542	1621.105	1401.794
-1.473	35.508	1609.344	1391.322
-0.458	33.302	1590.858	1359.458
0.556	28.165	1591.877	1329.466
1.571	26.121	1617.129	1335.336
2.586	25.485	1631.386	1342.241
3.600	22.172	1576.331	1272.882
4.615	11.377	1458.799	1105.123
5.629	1.954	1389.016	991.150
6.644	0.281	1379.438	973.428
7.659	0.156	1377.956	971.491
8.673	0.114	1376.757	970.290
9.688	0.039	1375.647	968.935
10.702	-0.175	1372.172	965.031
11.717	3.371	1379.393	992.895
12.731	13.711	1399.824	1074.839
13.746	21.586	1413.807	1136.826
14.761	23.162	1414.537	1147.540
15.775	23.278	1414.732	1148.354
16.790	23.350	1413.952	1148.086
17.804	23.374	1413.745	1147.966
18.819	23.698	1413.180	1149.504
19.834	23.691	1412.461	1148.777
20.848	23.634	1412.244	1148.128
21.863	23.765	1410.879	1147.761
22.877	23.676	1410.000	1146.371
23.892	23.617	1409.755	1145.691
24.907	23.658	1408.540	1144.867
25.921	23.778	1407.349	1144.567
26.936	23.725	1406.140	1143.143
27.950	23.640	1405.607	1142.061
28.965	23.709	1404.239	1141.297
29.980	23.710	1402.806	1140.035
30.994	23.778	1401.092	1138.975
32.009	23.685	1400.597	1137.876
33.023	23.693	1399.122	1136.629
34.038	23.664	1398.421	1135.778
35.053	23.768	1396.894	1135.096
36.067	23.691	1396.314	1134.035
37.082	23.686	1395.155	1132.963
38.096	23.725	1394.213	1132.344
39.111	23.649	1393.756	1131.389
40.126	23.656	1392.802	1130.558
41.140	23.726	1391.919	1130.188
42.155	23.681	1392.357	1130.157
43.169	23.602	1392.045	1129.304
44.184	23.725	1391.704	1129.710
45.199	23.619	1391.515	1128.778
46.213	23.732	1390.427	1128.516
47.228	23.736	1389.620	1127.787
48.242	23.682	1388.454	1126.398
49.257	23.665	1387.243	1125.210
50.271	23.651	1385.424	1123.541
51.286	23.681	1383.809	1122.321
52.301	23.634	1383.177	1121.416
53.315	23.627	1382.244	1120.514
54.330	23.699	1381.582	1120.331
55.344	23.664	1380.281	1118.961
56.359	23.696	1379.004	1118.028
57.374	23.636	1378.520	1117.155
58.388	23.645	1377.603	1116.372
59.403	23.735	1377.036	1116.377
60.417	23.719	1376.610	1115.835
61.432	23.611	1375.672	1114.299
62.447	23.694	1374.986	1114.166
63.461	23.783	1373.485	1113.406
64.476	23.706	1372.860	1112.319
65.490	23.796	1371.295	1111.517
66.505	23.670	1370.426	1109.924
67.520	23.759	1368.614	1108.918
68.534	23.714	1368.173	1108.178
69.549	23.664	1367.514	1107.237
70.563	23.774	1366.017	1106.611
71.578	23.815	1364.696	1105.696
72.593	23.647	1364.083	1104.059
73.607	23.667	1363.360	1103.500
74.622	23.657	1362.981	1103.034
75.636	23.820	1361.240	1102.537
76.651	23.722	1360.999	1101.637
77.666	23.704	1360.431	1100.967
78.680	23.639	1360.140	1100.235
79.695	23.681	1359.285	1099.705
80.709	23.700	1358.443	1099.044
81.724	23.797	1357.226	1098.563
82.739	23.696	1356.424	1097.193
83.753	23.737	1355.465	1096.573
84.768	23.678	1354.126	1095.030
85.782	23.741	1353.370	1094.705
86.797	23.708	1351.997	1093.299
87.812	23.729	1350.872	1092.417
88.826	23.693	1350.074	1091.457
89.841	23.691	1349.367	1090.778
90.855	23.777	1347.937	1090.052
91.870	23.841	1347.036	1089.620
92.884	23.717	1346.471	1088.303
93.899	23.698	1345.766	1087.521
94.914	23.768	1345.015	1087.250
95.928	23.772	1343.907	1086.278
96.943	23.833	1342.904	1085.747
97.957	23.799	1342.344	1084.988
98.972	23.759	1341.769	1084.183
99.987	23.788	1340.411	1083.169
101.001	23.739	1339.748	1082.241
102.016	23.687	1338.866	1081.110
103.030	23.652	1338.026	1080.124
104.045	23.810	1336.825	1080.024
105.060	23.820	1335.709	1079.084
106.074	23.792	1335.001	1078.248
107.089	23.758	1334.074	1077.199
108.103	23.761	1333.048	1076.291
109.118	23.841	1331.570	1075.489
110.133	23.813	1330.570	1074.416
111.147	23.913	1329.132	1073.760
112.162	23.773	1328.342	1072.188
113.176	23.888	1326.770	1071.515
114.191	23.754	1326.228	1070.173
115.206	23.871	1325.222	1069.975
116.220	23.770	1324.511	1068.695
117.235	23.795	1323.294	1067.770
118.249	23.760	1322.635	1066.936
119.264	23.723	1321.651	1065.824
120.279	23.869	1320.788	1065.908
121.293	23.893	1319.538	1064.951
122.308	23.807	1318.997	1063.905
123.322	23.936	1318.250	1063.976
124.337	23.885	1317.221	1062.747
125.352	23.928	1316.439	1062.279
126.366	23.891	1315.275	1061.026
127.381	23.872	1314.516	1060.210
128.395	23.853	1313.847	1059.463
129.410	23.898	1312.724	1058.727
130.424	23.908	1312.241	1058.307
131.439	23.918	1311.489	1057.665
132.454	23.862	1310.768	1056.654
133.468	23.915	1309.780	1056.080
134.483	23.921	1309.345	1055.674
135.497	23.867	1308.512	1054.587
136.512	23.895	1306.989	1053.432
137.527	23.811	1306.240	1052.236
138.541	23.930	1304.581	1051.512
139.556	23.833	1303.284	1049.800
140.570	23.916	1302.634	1049.678
141.585	23.843	1301.264	1048.049
142.600	23.885	1300.111	1047.276
143.614	23.874	1299.203	1046.387
144.629	23.886	1297.933	1045.340
145.643	23.840	1297.445	1044.585
146.658	23.813	1296.322	1043.427
147.673	23.754	1295.245	1042.125
148.687	23.725	1294.349	1041.139
149.702	23.770	1293.137	1040.340
150.716	23.651	1292.080	1038.701
151.731	23.765	1291.037	1038.435
152.746	23.853	1289.862	1037.915
153.760	23.876	1288.522	1036.879
154.775	23.823	1288.239	1036.247
155.789	23.923	1286.606	1035.423
156.804	23.916	1285.889	1034.714
157.819	23.865	1285.553	1034.056
158.833	23.835	1284.528	1032.967
159.848	23.898	1283.854	1032.700
160.862	23.949	1282.819	1032.070
161.877	23.959	1282.241	1031.572
162.892	23.919	1281.113	1030.342
163.906	24.035	1280.322	1030.288
164.921	23.912	1280.142	1029.339
165.935	23.990	1279.193	1028.935
166.950	23.976	1278.264	1028.013
167.964	23.858	1278.184	1027.179
168.979	24.008	1277.364	1027.293
169.994	23.971	1277.151	1026.817
171.008	23.921	1276.376	1025.818
172.023	23.987	1275.441	1025.357
173.037	24.040	1274.690	1024.965
174.052	24.084	1273.407	1024.099
175.067	23.987	1273.179	1023.265
176.081	24.043	1272.447	1022.906
177.096	23.952	1271.331	1021.395
178.110	24.028	1270.607	1021.162
179.125	23.963	1269.533	1019.836
180.140	24.057	1268.248	1019.253
181.154	24.021	1267.524	1018.372
182.169	24.012	1266.271	1017.222
183.183	24.022	1265.182	1016.319
184.198	24.025	1264.001	1015.296
185.213	24.070	1263.112	1014.748
186.227	24.016	1262.705	1014.023
187.242	24.010	1261.513	1012.940
188.256	24.030	1260.612	1012.242
189.271	24.096	1259.703	1011.798
190.286	24.029	1259.114	1010.855
191.300	24.121	1258.301	1010.636
192.315	24.031	1257.712	1009.565
193.329	24.118	1257.559	1009.846
194.344	24.101	1257.100	1009.291
195.359	24.137	1256.721	1009.102
196.373	24.055	1256.048	1008.006
197.388	24.033	1255.616	1007.446
198.402	23.975	1255.799	1007.177
199.417	24.078	1254.797	1006.866
200.432	24.050	1254.144	1006.095
201.446	24.025	1253.318	1005.201
202.461	24.055	1252.458	1004.591
203.475	24.044	1251.888	1003.986
204.490	24.148	1250.660	1003.498
205.504	23.991	1250.241	1002.185
206.519	24.153	1249.239	1002.205
207.534	24.048	1248.331	1000.800
208.548	24.103	1247.109	1000.039
209.563	23.985	1246.981	999.185
210.577	24.132	1245.259	998.542
211.592	24.077	1244.649	997.657
212.607	24.227	1244.004	997.892
213.621	24.185	1243.150	996.884
214.636	24.186	1242.496	996.275
215.650	24.132	1241.663	995.218
216.665	24.131	1240.233	993.979
217.680	24.135	1239.561	993.373
218.694	24.200	1238.700	992.960
219.709	24.083	1238.498	992.055
220.723	24.239	1237.544	992.069
221.738	24.104	1237.000	990.799
222.753	24.071	1236.034	989.754
223.767	24.305	1234.858	990.024
224.782	24.232	1234.893	989.560
225.796	24.292	1234.245	989.283
226.811	24.372	1233.190	988.793
227.826	24.361	1232.895	988.410
228.840	24.320	1232.313	987.628
229.855	24.399	1231.658	987.452
230.869	24.314	1231.197	986.523
231.884	24.366	1230.040	985.799
232.899	24.207	1229.537	984.427
233.913	24.326	1229.017	984.583
234.928	24.352	1228.189	983.978
235.942	24.342	1227.380	983.189
236.957	24.330	1227.099	982.809
237.972	24.275	1226.199	981.696
238.986	24.369	1225.852	981.852
240.001	24.403	1225.228	981.452
241.015	24.607	1224.039	981.533
242.030	24.454	1223.596	980.251
243.045	24.529	1222.708	979.862
244.059	24.293	1222.388	978.227
245.074	24.520	1221.037	978.303
246.088	24.452	1220.752	977.616
247.103	24.542	1219.249	976.815
248.117	24.387	1218.807	975.526
249.132	24.440	1218.177	975.225
250.147	24.558	1217.309	975.091
251.161	24.527	1216.614	974.278
252.176	24.556	1216.045	973.894
253.190	24.597	1215.042	973.231
254.205	24.414	1214.637	971.823
255.220	24.497	1213.956	971.642
256.234	24.475	1214.157	971.600
257.249	24.543	1213.033	970.980
258.263	24.669	1211.957	970.716
259.278	24.579	1211.850	970.061
260.293	24.625	1211.063	969.594
261.307	24.562	1210.932	969.059
262.322	24.546	1210.463	968.512
263.336	24.721	1209.282	968.429
264.351	24.596	1208.948	967.400
265.366	24.510	1208.325	966.348
266.380	24.726	1206.999	966.372
267.395	24.656	1206.520	965.525
268.409	24.580	1206.171	964.751
269.424	24.698	1205.306	964.608
270.439	24.717	1204.710	964.151
271.453	24.725	1203.944	963.492
272.468	24.657	1203.651	962.806
273.482	24.593	1202.951	961.816
274.497	24.708	1202.660	962.121
275.512	24.839	1201.973	962.190
276.526	24.675	1201.264	960.656
277.541	24.688	1200.482	960.014
278.555	24.666	1199.880	959.329
279.570	24.762	1199.164	959.187
280.585	24.695	1198.308	958.057
281.599	24.696	1197.307	957.179
282.614	24.717	1196.791	956.795
283.628	24.728	1195.619	955.832
284.643	24.820	1194.747	955.542
285.657	24.829	1193.427	954.447
286.672	24.735	1193.184	953.666
287.687	24.748	1192.203	952.871
288.701	24.850	1191.731	952.948
289.716	24.853	1191.067	952.350
290.730	24.790	1190.158	951.205
291.745	24.845	1189.815	951.141
292.760	24.862	1188.964	950.464
293.774	24.760	1188.640	949.583
294.789	24.841	1188.419	949.749
295.803	24.841	1187.522	948.948
296.818	24.856	1186.627	948.229
297.833	24.902	1185.717	947.662
298.847	24.815	1185.627	947.045
299.862	24.952	1184.447	946.740
300.876	24.894	1184.315	946.246
301.891	25.029	1183.417	946.159
302.906	24.904	1183.186	945.231
303.920	24.976	1181.872	944.476
304.935	25.046	1181.724	944.646
305.949	25.025	1180.785	943.701
306.964	24.990	1180.383	943.110
307.979	25.069	1179.406	942.662
308.993	25.122	1178.264	941.947
310.008	25.147	1177.641	941.495
311.022	25.093	1177.002	940.618
312.037	25.085	1176.544	940.122
313.052	24.970	1175.550	938.648
314.066	25.018	1174.651	938.098
315.081	25.049	1174.223	937.831
316.095	25.064	1173.335	937.122
317.110	25.126	1172.810	936.943
318.125	25.028	1172.418	936.035
319.139	25.064	1171.654	935.529
320.154	25.215	1170.891	935.622
321.168	25.142	1170.379	934.751
322.183	25.111	1170.017	934.215
323.197	25.040	1169.532	933.378
324.212	25.054	1168.865	932.836
325.227	25.151	1168.179	932.712
326.241	25.302	1167.304	932.714
327.256	25.143	1167.018	931.576
328.270	25.087	1166.345	930.667
329.285	25.166	1165.459	930.286
330.300	25.180	1164.326	929.372
331.314	25.243	1163.706	929.124
332.329	25.244	1162.829	928.343
333.343	25.373	1161.945	928.224
334.358	25.189	1161.438	926.785
335.373	25.237	1160.753	926.407
336.387	25.274	1160.027	925.935
337.402	25.194	1159.271	924.839
338.416	25.285	1158.504	924.611
339.431	25.298	1158.145	924.312
340.446	25.343	1157.524	923.966
341.460	25.428	1156.694	923.659
342.475	25.351	1156.225	922.803
343.489	25.357	1155.123	921.875
344.504	25.352	1154.286	921.098
345.519	25.396	1153.425	920.555
346.533	25.457	1152.337	919.922
347.548	25.396	1151.855	919.142
348.562	25.657	1150.823	919.569
349.577	25.367	1150.669	917.885
350.592	25.253	1149.786	916.518
351.606	25.396	1149.210	916.708
352.621	25.468	1148.357	916.313
353.635	25.525	1147.677	915.980
354.650	25.440	1147.565	915.375
355.665	25.487	1146.719	914.857
356.679	25.447	1146.037	914.029
357.694	25.451	1145.550	913.579
358.708	25.487	1144.645	912.960
359.723	25.475	1143.995	912.303
360.738	25.405	1143.821	911.728
361.752	25.541	1142.837	911.549
362.767	25.550	1142.336	911.114
363.781	25.612	1141.747	910.879
364.796	25.574	1141.341	910.284
365.810	25.598	1140.586	909.724
366.825	25.615	1140.114	909.350
367.840	25.649	1139.766	909.162
368.854	25.796	1138.660	908.945
369.869	25.606	1138.342	907.648
370.883	25.710	1137.361	907.314
371.898	25.662	1136.682	906.449
372.913	25.702	1135.814	905.879
373.927	25.799	1135.083	905.703
374.942	25.802	1135.177	905.711
375.956	25.768	1134.166	904.653
376.971	25.706	1134.146	904.247
377.986	25.704	1133.925	903.981
379.000	25.741	1133.167	903.481
380.015	25.846	1132.467	903.370
381.029	25.845	1131.639	902.626
382.044	25.759	1130.854	901.489
383.059	25.874	1130.071	901.361
384.073	25.789	1129.533	900.424
385.088	25.931	1128.580	900.298
386.102	25.802	1127.732	898.895
387.117	25.728	1127.018	897.877
388.132	25.849	1125.914	897.524
389.146	25.976	1125.117	897.440
390.161	25.905	1124.535	896.543
391.175	25.970	1123.966	896.333
392.190	25.988	1123.602	896.054
393.205	25.881	1122.786	894.792
394.219	25.956	1121.906	894.386
395.234	25.845	1121.478	893.411
396.248	25.964	1120.317	892.997
397.263	25.926	1119.571	892.138
398.278	25.976	1118.734	891.639
399.292	26.055	1118.571	891.817
400.307	25.936	1118.198	890.855
401.321	26.012	1117.452	890.557
402.336	25.937	1116.720	889.523
403.350	25.954	1116.081	889.019
404.365	26.115	1115.027	888.894
405.380	26.069	1114.516	888.184
406.394	26.133	1113.600	887.688
407.409	26.097	1113.078	887.019
408.423	26.201	1112.226	886.769
409.438	26.120	1111.773	885.932
410.453	26.188	1111.029	885.598
411.467	26.195	1110.121	884.826
412.482	26.085	1109.583	883.781
413.496	26.207	1108.766	883.651
414.511	26.132	1108.303	882.837
415.526	26.098	1108.157	882.475
416.540	26.230	1107.734	882.704
417.555	26.210	1106.704	881.708
418.569	26.248	1106.099	881.332
419.584	26.182	1106.093	880.931
420.599	26.288	1105.672	881.034
421.613	144.797	1403.515	1789.024
422.628	134.397	1446.912	1789.138
