DTS Sentinel unit serial number:	SN413079Multiplexer serial number:	ORYXHardware model number:	OX4-SRSoftware version number:	ORYX F/W v4.00 Oryx Data Collector v3.7.2.0data status	okinstallation	princeton_trtdifferential loss correction	single-endedforward channel	channel 2reverse channel	N/Adate	2019/09/11time	19:17:10forward acquisition time	60.00reverse acquisition time	0.00gamma	496.2192k internal	0.2301k external	0.2301temperature offset calibration	1.0040default loss term (dB/km)	0.3790temperature slope calibration	1.0000multiplexer offset coefficient	1.0000multiplexer slope coefficient	1.0000fibre end	0.00T internal ref (°C)	41.23T ext. ref 1 (°C)	1.27T ext. ref 2 (°C)	33.47length (m)	temperature (°C)	Stokes	anti-Stokes-747.200	-200.000	0.050	-0.405
-746.185	-15.160	-0.163	0.107
-745.171	-83.226	0.114	0.037
-744.156	800.000	-0.087	0.316
-743.142	7.140	-0.262	-0.199
-742.127	-200.000	0.010	-0.059
-741.112	800.000	-0.056	-0.242
-740.098	73.116	-0.189	0.201
-739.083	2.988	0.206	0.153
-738.069	503.502	-0.183	0.431
-737.054	-200.000	-0.009	-0.132
-736.039	-171.865	-0.049	0.002
-735.025	-66.905	-0.085	0.034
-734.010	115.993	-0.193	-0.240
-732.996	618.091	-0.058	0.148
-731.981	26.271	-0.289	-0.246
-730.966	85.658	-0.195	-0.218
-729.952	800.000	-0.075	0.278
-728.937	-200.000	0.035	-0.172
-727.923	-46.123	-0.187	0.094
-726.908	5.322	-0.136	-0.102
-725.894	-200.000	-0.030	-0.162
-724.879	-162.871	-0.422	-0.021
-723.864	800.000	0.041	0.131
-722.850	-131.031	0.101	0.014
-721.835	-91.767	-0.222	-0.064
-720.821	-20.749	0.252	0.158
-719.806	-200.000	0.045	-0.208
-718.791	-45.600	-0.229	-0.116
-717.777	800.000	-0.012	-0.036
-716.762	140.378	-0.152	-0.205
-715.748	12.830	0.167	0.131
-714.733	-200.000	0.005	-0.079
-713.718	19.179	0.130	0.106
-712.704	-97.654	-0.253	-0.067
-711.689	37.375	0.068	0.061
-710.675	-200.000	-0.034	0.157
-709.660	-200.000	-0.010	0.059
-708.645	-20.247	0.181	0.113
-707.631	107.649	0.192	-0.233
-706.616	30.721	-0.075	0.065
-705.602	-200.000	-0.007	0.183
-704.587	-23.233	-0.158	0.097
-703.572	800.000	-0.167	-0.548
-702.558	-14.916	0.041	-0.027
-701.543	-100.427	0.247	0.062
-700.529	800.000	-0.095	0.269
-699.514	800.000	-0.115	0.379
-698.499	-35.806	-0.074	0.041
-697.485	125.466	0.261	-0.335
-696.470	-172.922	-0.203	-0.006
-695.456	800.000	0.062	-0.179
-694.441	-89.410	-0.235	-0.070
-693.426	7.028	0.244	-0.185
-692.412	-200.000	0.006	0.068
-691.397	16.703	-0.232	-0.187
-690.383	-58.602	-0.042	-0.018
-689.368	800.000	-0.154	-0.532
-688.354	-200.000	-0.017	-0.128
-687.339	-200.000	-0.004	-0.199
-686.324	-102.660	-0.144	0.035
-685.310	800.000	-0.109	0.353
-684.295	-13.905	0.395	0.260
-683.281	293.282	-0.112	0.208
-682.266	-72.785	0.125	0.047
-681.251	194.947	0.265	0.409
-680.237	-102.429	-0.143	-0.035
-679.222	-25.791	-0.006	0.004
-678.208	-174.225	-0.096	-0.003
-677.193	4.182	-0.075	-0.056
-676.178	-41.364	-0.196	0.103
-675.164	-200.000	-0.042	-0.266
-674.149	231.259	-0.076	0.127
-673.135	172.989	-0.189	0.276
-672.120	-200.000	-0.049	0.476
-671.105	-200.000	0.095	0.525
-670.091	-157.844	-0.172	0.010
-669.076	-200.000	0.015	0.158
-668.062	800.000	-0.077	0.293
-667.047	202.848	0.154	-0.241
-666.032	-103.684	0.081	-0.019
-665.018	-200.000	-0.028	-0.211
-664.003	-200.000	-0.013	-0.072
-662.989	-169.751	0.243	-0.009
-661.974	14.973	-0.252	-0.201
-660.959	466.797	-0.017	-0.039
-659.945	-200.000	0.059	-0.303
-658.930	-200.000	-0.046	-0.348
-657.916	340.972	0.163	-0.324
-656.901	-33.592	-0.105	0.059
-655.886	-195.208	0.159	-0.001
-654.872	68.713	0.171	-0.179
-653.857	800.000	-0.040	-0.138
-652.843	-200.000	0.004	-0.202
-651.828	-34.889	0.174	0.096
-650.814	800.000	0.115	0.369
-649.799	-42.347	0.204	-0.106
-648.784	66.271	-0.106	0.109
-647.770	-145.268	-0.150	-0.014
-646.755	-92.009	0.227	-0.065
-645.741	-64.602	-0.142	-0.058
-644.726	800.000	0.059	0.210
-643.711	-52.474	0.249	0.117
-642.697	-200.000	-0.050	0.286
-641.682	-104.717	-0.163	0.038
-640.668	-147.393	0.240	0.021
-639.653	-69.989	-0.063	-0.024
-638.638	463.393	-0.046	-0.104
-637.624	-200.000	0.007	0.108
-636.609	-9.109	0.120	-0.082
-635.595	281.455	0.048	-0.087
-634.580	-186.868	-0.105	-0.001
-633.565	800.000	-0.095	0.302
-632.551	318.540	-0.100	-0.191
-631.536	251.071	-0.096	-0.165
-630.522	-200.000	-0.015	0.127
-629.507	-24.191	0.134	0.081
-628.492	-132.694	-0.272	0.035
-627.478	246.377	0.024	-0.040
-626.463	34.292	-0.196	-0.173
-625.449	-200.000	0.035	-0.164
-624.434	-49.464	-0.390	0.188
-623.419	-200.000	-0.051	0.242
-622.405	-160.386	-0.177	-0.010
-621.390	-200.000	-0.002	-0.151
-620.376	-68.538	0.152	-0.060
-619.361	89.882	-0.355	0.403
-618.346	-101.560	-0.212	-0.052
-617.332	-57.002	-0.140	-0.063
-616.317	49.192	0.079	0.075
-615.303	441.274	0.030	-0.066
-614.288	-200.000	-0.002	-0.282
-613.273	-47.462	0.053	0.026
-612.259	-80.393	-0.190	0.064
-611.244	0.211	-0.151	-0.109
-610.230	-200.000	0.014	0.097
-609.215	800.000	0.014	0.050
-608.201	-42.781	0.244	-0.126
-607.186	-200.000	0.071	0.383
-606.171	233.629	0.096	-0.161
-605.157	-78.432	-0.205	0.071
-604.142	-15.130	0.015	0.010
-603.128	-127.192	0.163	0.024
-602.113	-107.767	-0.115	0.025
-601.098	-200.000	-0.106	0.000
-600.084	208.897	0.057	0.091
-599.069	125.775	0.099	0.127
-598.055	-31.160	-0.108	-0.062
-597.040	-37.762	0.150	0.081
-596.025	-39.397	-0.135	-0.072
-595.011	341.778	-0.068	0.134
-593.996	474.812	-0.136	0.312
-592.982	95.119	0.149	-0.172
-591.967	110.952	-0.091	0.111
-590.952	-200.000	0.005	0.037
-589.938	-97.565	-0.209	-0.055
-588.923	452.943	0.129	-0.289
-587.909	335.770	-0.090	0.176
-586.894	37.867	0.252	0.227
-585.879	-79.202	-0.145	-0.050
-584.865	-109.890	0.127	-0.027
-583.850	-43.720	0.045	-0.023
-582.836	-160.597	-0.370	0.020
-581.821	-59.819	-0.309	-0.134
-580.806	800.000	-0.081	-0.299
-579.792	-200.000	-0.009	0.116
-578.777	-106.043	-0.272	-0.062
-577.763	96.089	0.488	-0.565
-576.748	-124.345	-0.090	-0.014
-575.733	800.000	-0.040	0.125
-574.719	150.507	-0.268	-0.369
-573.704	-96.994	-0.340	-0.090
-572.690	-47.100	-0.303	-0.150
-571.675	-28.495	0.446	0.260
-570.661	464.569	0.107	0.243
-569.646	-40.951	-0.288	-0.151
-568.631	347.757	0.167	0.332
-567.617	-126.588	0.145	0.022
-566.602	-54.040	0.064	-0.030
-565.588	29.054	-0.155	0.133
-564.573	32.024	0.151	-0.131
-563.558	594.871	-0.051	-0.128
-562.544	40.430	0.328	0.299
-561.529	-27.435	-0.227	0.134
-560.515	5.486	-0.400	0.299
-559.500	65.579	0.245	0.251
-558.485	-27.328	0.194	0.114
-557.471	800.000	-0.019	-0.074
-556.456	182.229	0.177	-0.264
-555.442	618.636	0.033	0.084
-554.427	40.439	-0.127	-0.116
-553.412	-4.458	0.042	-0.029
-552.398	-200.000	0.010	-0.179
-551.383	-200.000	0.020	0.244
-550.369	3.008	0.260	-0.191
-549.354	105.217	-0.077	0.093
-548.339	77.579	-0.081	0.087
-547.325	-90.245	0.063	-0.018
-546.310	-200.000	-0.049	-0.335
-545.296	737.935	0.146	-0.396
-544.281	-200.000	-0.003	0.141
-543.266	-200.000	-0.073	0.350
-542.252	-200.000	-0.072	0.438
-541.237	800.000	-0.045	0.161
-540.223	596.563	0.146	0.365
-539.208	-28.910	0.257	0.149
-538.193	-86.646	-0.233	0.072
-537.179	-47.625	0.119	0.059
-536.164	-144.326	-0.269	0.025
-535.150	325.682	0.144	-0.279
-534.135	-200.000	0.040	0.241
-533.121	0.034	-0.123	0.089
-532.106	800.000	-0.166	-0.520
-531.091	574.864	0.058	0.144
-530.077	118.169	0.135	0.169
-529.062	-139.684	0.181	0.019
-528.048	576.172	-0.040	-0.098
-527.033	-200.000	0.029	-0.343
-526.018	-96.875	-0.081	-0.021
-525.004	171.148	0.134	-0.195
-523.989	-14.366	-0.118	-0.077
-522.975	92.295	0.112	0.128
-521.960	469.346	-0.229	0.519
-520.945	-34.071	0.217	0.121
-519.931	12.810	-0.084	0.066
-518.916	59.319	-0.278	-0.277
-517.902	93.624	-0.065	0.074
-516.887	-106.662	-0.046	0.010
-515.872	800.000	-0.056	-0.171
-514.858	344.504	-0.049	0.098
-513.843	-93.866	-0.104	0.029
-512.829	-8.904	-0.116	-0.078
-511.814	-200.000	0.009	0.384
-510.799	-160.331	-0.128	-0.007
-509.785	-129.158	-0.203	0.029
-508.770	75.023	0.272	0.290
-507.756	-61.902	-0.149	-0.063
-506.741	-83.953	-0.257	-0.083
-505.726	-36.357	-0.084	0.045
-504.712	13.551	-0.096	0.075
-503.697	-28.897	0.186	-0.108
-502.683	800.000	0.085	-0.241
-501.668	-37.760	0.120	0.065
-500.653	-200.000	0.074	-0.373
-499.639	-200.000	0.029	-0.137
-498.624	468.305	-0.066	0.151
-497.610	98.249	-0.171	-0.198
-496.595	246.312	0.075	0.127
-495.581	800.000	-0.060	-0.210
-494.566	-84.576	0.228	-0.073
-493.551	-200.000	-0.009	-0.047
-492.537	-3.768	0.033	0.023
-491.522	-89.090	0.458	-0.137
-490.508	-90.416	-0.258	-0.076
-489.493	223.681	0.049	-0.079
-488.478	489.622	0.137	-0.315
-487.464	70.581	0.364	0.380
-486.449	-20.216	-0.258	0.160
-485.435	-67.583	-0.137	-0.054
-484.420	-4.977	-0.245	0.171
-483.405	800.000	-0.041	-0.145
-482.391	-100.519	-0.326	-0.081
-481.376	-55.120	0.372	0.169
-480.362	800.000	0.029	-0.091
-479.347	-121.500	-0.101	0.017
-478.332	130.553	0.152	-0.196
-477.318	-69.268	0.140	-0.054
-476.303	800.000	-0.155	-0.484
-475.289	-194.422	-0.252	0.002
-474.274	-200.000	0.013	0.194
-473.259	-121.778	-0.262	-0.044
-472.245	-54.294	-0.286	-0.131
-471.230	-42.363	-0.170	-0.087
-470.216	800.000	-0.030	0.098
-469.201	-200.000	-0.029	-0.405
-468.186	-73.406	0.301	-0.111
-467.172	-113.575	-0.205	-0.040
-466.157	232.994	0.052	-0.086
-465.143	56.604	0.204	0.200
-464.128	-0.231	0.119	-0.085
-463.113	212.021	0.100	0.159
-462.099	-86.760	-0.292	-0.090
-461.084	458.158	-0.066	-0.147
-460.070	-200.000	-0.024	-0.166
-459.055	64.898	0.068	0.070
-458.040	-3.871	-0.183	0.128
-457.026	-30.557	-0.243	-0.139
-456.011	-182.400	-0.278	0.005
-454.997	-88.497	0.273	0.082
-453.982	-23.099	-0.190	-0.115
-452.968	800.000	0.076	0.237
-451.953	800.000	0.124	0.370
-450.938	72.999	0.200	-0.210
-449.924	-35.572	0.220	-0.120
-448.909	-48.245	0.151	-0.074
-447.895	79.296	-0.198	0.214
-446.880	-200.000	0.025	-0.135
-445.865	397.497	-0.085	-0.179
-444.851	-20.159	-0.175	-0.109
-443.836	-155.779	0.177	0.011
-442.822	184.737	-0.036	0.053
-441.807	547.087	-0.114	0.275
-440.792	-84.365	0.030	-0.010
-439.778	-56.416	-0.276	-0.124
-438.763	-129.406	0.310	0.043
-437.749	113.918	0.164	-0.201
-436.734	800.000	-0.035	-0.126
-435.719	158.743	0.155	0.217
-434.705	-200.000	-0.000	-0.020
-433.690	-129.969	0.287	0.040
-432.676	-36.888	0.177	0.095
-431.661	-200.000	-0.005	-0.038
-430.646	-200.000	0.119	-0.000
-429.632	-200.000	-0.007	0.221
-428.617	0.519	0.068	-0.049
-427.603	-126.507	0.219	0.033
-426.588	-64.646	-0.268	-0.109
-425.573	-200.000	-0.035	-0.198
-424.559	105.608	0.049	-0.058
-423.544	200.894	-0.292	-0.453
-422.530	800.000	-0.062	-0.211
-421.515	-200.000	-0.036	-0.265
-420.500	-174.255	0.126	0.004
-419.486	168.727	0.051	0.074
-418.471	-20.934	-0.091	-0.056
-417.457	-167.110	0.196	0.008
-416.442	-176.494	-0.278	0.007
-415.428	800.000	-0.043	-0.142
-414.413	800.000	-0.047	-0.131
-413.398	-200.000	-0.029	0.223
-412.384	529.400	-0.116	0.275
-411.369	-81.654	-0.175	-0.058
-410.355	-48.422	0.319	0.155
-409.340	-23.039	-0.129	0.078
-408.325	37.924	0.090	-0.081
-407.311	-179.207	-0.212	-0.005
-406.296	-123.096	-0.077	-0.012
-405.282	247.589	0.032	-0.055
-404.267	-47.025	0.093	-0.046
-403.252	463.302	0.134	0.301
-402.238	-90.502	-0.149	-0.043
-401.223	-149.889	-0.004	0.000
-400.209	-36.580	-0.079	-0.043
-399.194	-200.000	-0.009	-0.359
-398.179	121.428	-0.130	-0.163
-397.165	-111.906	-0.247	-0.050
-396.150	287.664	-0.067	-0.122
-395.136	186.247	-0.167	0.250
-394.121	-108.078	-0.259	-0.056
-393.106	114.792	-0.136	0.167
-392.092	-200.000	0.029	-0.149
-391.077	-200.000	0.057	0.325
-390.063	143.536	-0.053	0.070
-389.048	-72.831	-0.463	-0.171
-388.033	675.046	-0.085	-0.222
-387.019	-93.538	-0.060	-0.017
-386.004	15.108	-0.191	-0.150
-384.990	54.442	0.074	0.071
-383.975	82.346	-0.086	-0.094
-382.960	800.000	0.106	0.448
-381.946	-6.256	-0.168	-0.116
-380.931	-36.531	0.220	-0.119
-379.917	57.059	0.214	0.210
-378.902	6.445	0.185	-0.138
-377.888	766.927	0.054	-0.148
-376.873	-4.334	-0.241	0.167
-375.858	-19.125	0.285	0.178
-374.844	-87.720	0.186	-0.056
-373.829	-200.000	0.042	-0.241
-372.815	168.870	-0.196	0.281
-371.800	697.664	0.026	0.070
-370.785	-200.000	0.003	0.192
-369.771	45.218	0.220	-0.204
-368.756	15.017	0.149	-0.117
-367.742	-122.067	-0.139	0.023
-366.727	397.573	0.078	-0.163
-365.712	-67.441	0.080	-0.032
-364.698	800.000	0.078	-0.262
-363.683	43.482	0.238	-0.219
-362.669	39.417	0.107	-0.097
-361.654	-200.000	0.030	0.152
-360.639	-126.572	0.124	0.019
-359.625	-66.231	0.328	0.131
-358.610	-200.000	-0.043	-0.261
-357.596	-144.105	-0.132	0.012
-356.581	-111.982	0.474	-0.096
-355.566	69.185	0.262	-0.271
-354.552	-190.879	-0.112	-0.001
-353.537	-93.161	0.178	0.050
-352.523	-80.941	-0.234	0.078
-351.508	-44.205	0.246	0.124
-350.493	-57.570	0.268	-0.118
-349.479	800.000	0.040	-0.123
-348.464	-24.736	-0.122	-0.073
-347.450	66.976	-0.181	-0.185
-346.435	-200.000	-0.037	-0.367
-345.420	-166.767	-0.196	0.008
-344.406	-159.661	-0.240	-0.013
-343.391	800.000	0.088	-0.317
-342.377	-37.420	0.133	-0.071
-341.362	-82.697	0.141	0.046
-340.348	-200.000	0.029	0.174
-339.333	176.138	-0.116	0.169
-338.318	-146.360	-0.079	-0.007
-337.304	-116.878	-0.196	-0.036
-336.289	76.573	-0.011	0.011
-335.275	133.896	-0.014	0.018
-334.260	44.020	0.243	0.224
-333.245	52.371	-0.149	0.142
-332.231	800.000	0.076	-0.227
-331.216	-38.120	-0.138	-0.073
-330.202	-154.312	0.195	-0.013
-329.187	7.589	0.168	0.126
-328.172	-115.678	-0.101	-0.019
-327.158	800.000	0.021	0.072
-326.143	-121.611	0.109	0.018
-325.129	800.000	0.088	0.297
-324.114	-22.755	0.104	-0.063
-323.099	-156.475	0.068	0.004
-322.085	86.920	0.097	0.107
-321.070	-7.857	-0.232	0.157
-320.056	97.602	0.188	0.217
-319.041	800.000	-0.024	0.084
-318.026	149.699	0.101	0.138
-317.012	-148.797	-0.226	0.018
-315.997	-200.000	-0.029	-0.189
-314.983	120.829	-0.224	0.279
-313.968	247.434	-0.125	0.212
-312.953	-200.000	0.088	-0.390
-311.939	442.911	0.172	-0.379
-310.924	-31.751	-0.052	-0.029
-309.910	-200.000	0.004	-0.160
-308.895	-200.000	0.021	0.210
-307.880	644.490	0.136	0.349
-306.866	242.160	0.113	0.189
-305.851	800.000	-0.053	-0.199
-304.837	1.974	0.165	-0.119
-303.822	49.925	-0.128	-0.121
-302.807	800.000	0.080	0.293
-301.793	-139.021	0.261	-0.028
-300.778	699.698	-0.106	0.279
-299.764	-200.000	-0.003	-0.080
-298.749	36.919	-0.161	-0.142
-297.735	-25.474	0.101	0.060
-296.720	-200.000	-0.022	-0.186
-295.705	-81.166	0.256	-0.085
-294.691	30.796	-0.133	-0.114
-293.676	119.378	0.115	0.143
-292.662	-10.369	-0.149	-0.099
-291.647	800.000	0.101	-0.385
-290.632	-139.150	0.480	0.052
-289.618	-200.000	0.010	0.202
-288.603	213.827	0.056	0.089
-287.589	-200.000	0.023	-0.106
-286.574	-200.000	-0.026	-0.116
-285.559	2.410	0.104	-0.076
-284.545	-11.191	0.208	0.137
-283.530	-200.000	-0.017	0.226
-282.516	-106.170	-0.231	-0.052
-281.501	505.092	0.109	-0.252
-280.486	721.068	-0.082	-0.219
-279.472	-41.184	0.234	0.121
-278.457	-47.945	0.367	0.178
-277.443	24.616	-0.096	-0.079
-276.428	-26.004	-0.183	0.108
-275.413	-63.600	-0.140	-0.058
-274.399	157.356	-0.269	-0.373
-273.384	56.273	0.160	-0.155
-272.370	-200.000	0.066	-0.298
-271.355	-200.000	-0.073	0.420
-270.340	800.000	-0.065	-0.201
-269.326	800.000	0.120	0.487
-268.311	68.004	0.307	-0.315
-267.297	800.000	-0.094	0.294
-266.282	104.302	0.181	0.213
-265.267	-200.000	-0.008	0.125
-264.253	169.362	-0.143	0.205
-263.238	326.733	-0.039	-0.075
-262.224	424.337	-0.038	0.081
-261.209	-50.493	0.278	0.131
-260.195	52.037	-0.167	0.159
-259.180	-200.000	-0.013	-0.207
-258.165	-18.693	0.293	0.183
-257.151	85.768	-0.023	0.026
-256.136	2.599	0.126	0.091
-255.122	-119.185	0.225	0.039
-254.107	-7.596	-0.108	0.073
-253.092	-200.000	0.053	0.260
-252.078	-44.829	0.054	0.027
-251.063	50.196	-0.065	0.062
-250.049	49.514	0.108	0.102
-249.034	-69.848	-0.042	0.016
-248.019	111.623	-0.180	-0.217
-247.005	-112.182	0.300	-0.060
-245.990	104.843	0.159	-0.187
-244.976	-200.000	-0.021	0.120
-243.961	800.000	-0.102	0.313
-242.946	800.000	0.042	0.132
-241.932	-134.230	-0.232	-0.029
-240.917	-200.000	0.023	-0.327
-239.903	364.025	0.068	0.136
-238.888	103.698	0.022	-0.026
-237.873	-200.000	0.058	-0.256
-236.859	-167.911	-0.291	0.011
-235.844	-47.419	0.539	0.262
-234.830	-200.000	0.007	0.095
-233.815	-34.193	0.201	0.111
-232.800	-200.000	0.034	-0.158
-231.786	253.886	-0.109	0.186
-230.771	-200.000	-0.031	0.186
-229.757	555.726	0.146	0.352
-228.742	-200.000	0.076	0.342
-227.727	32.814	0.023	-0.020
-226.713	-200.000	-0.009	0.320
-225.698	-100.237	-0.100	-0.025
-224.684	513.857	0.258	-0.600
-223.669	136.662	0.213	-0.278
-222.655	-200.000	-0.105	-0.479
-221.640	-200.000	0.003	-0.034
-220.625	-52.753	-0.287	-0.132
-219.611	106.357	0.247	-0.292
-218.596	529.889	-0.102	-0.240
-217.582	134.635	0.130	0.168
-216.567	-135.579	-0.345	-0.041
-215.552	-107.013	-0.148	-0.033
-214.538	-155.345	-0.373	0.024
-213.523	-200.000	-0.015	0.160
-212.509	7.144	0.074	-0.055
-211.494	376.438	0.117	-0.238
-210.479	175.133	-0.199	0.288
-209.465	-200.000	-0.049	0.302
-208.450	800.000	0.113	-0.393
-207.436	69.115	-0.223	-0.229
-206.421	-102.280	0.237	0.057
-205.406	-200.000	0.015	-0.348
-204.392	-76.869	0.246	-0.086
-203.377	139.603	0.136	0.179
-202.363	-200.000	0.018	0.142
-201.348	-107.697	0.123	-0.027
-200.333	-200.000	0.011	0.148
-199.319	-64.094	0.166	-0.068
-198.304	212.963	0.020	0.031
-197.290	-200.000	-0.028	-0.138
-196.275	306.734	-0.090	-0.167
-195.260	-7.869	-0.148	-0.100
-194.246	-101.238	0.058	0.014
-193.231	-13.642	-0.268	0.173
-192.217	6.545	0.279	-0.207
-191.202	-150.233	0.405	0.031
-190.187	-200.000	-0.031	-0.182
-189.173	-186.642	-0.265	-0.004
-188.158	-68.721	0.125	0.048
-187.144	800.000	0.078	0.216
-186.129	-29.225	0.270	0.154
-185.114	-78.221	-0.257	-0.088
-184.100	120.426	-0.072	0.090
-183.085	-89.278	0.198	0.058
-182.071	626.599	0.116	0.293
-181.056	800.000	-0.062	0.173
-180.042	-43.491	-0.277	0.140
-179.027	-92.867	-0.342	0.095
-178.012	-36.118	-0.103	0.055
-176.998	-200.000	0.050	-0.494
-175.983	-161.464	0.211	-0.011
-174.969	-200.000	-0.028	0.152
-173.954	-17.488	-0.351	0.220
-172.939	26.186	0.172	-0.143
-171.925	71.139	0.125	-0.129
-170.910	-200.000	-0.032	-0.190
-169.896	-126.601	0.078	-0.012
-168.881	210.494	-0.160	0.251
-167.866	28.244	-0.185	0.156
-166.852	-40.518	0.174	0.090
-165.837	-71.307	0.131	0.049
-164.823	-55.899	0.036	0.016
-163.808	-135.627	0.281	0.033
-162.793	86.157	-0.342	0.376
-161.779	-99.707	-0.092	0.023
-160.764	130.927	0.156	-0.199
-159.750	-62.432	-0.186	0.077
-158.735	121.348	-0.124	0.154
-157.720	675.304	0.041	0.107
-156.706	800.000	0.148	-0.416
-155.691	-50.483	-0.264	0.124
-154.677	110.923	-0.092	-0.110
-153.662	40.590	0.117	0.105
-152.647	-200.000	-0.063	0.394
-151.633	-200.000	-0.010	-0.071
-150.618	-200.000	0.017	-0.083
-149.604	-200.000	0.068	-0.384
-148.589	2.593	-0.048	0.035
-147.574	-200.000	-0.031	-0.140
-146.560	326.310	0.177	-0.338
-145.545	58.073	0.113	-0.110
-144.531	800.000	0.083	-0.294
-143.516	-5.057	0.405	0.278
-142.502	-200.000	-0.002	0.286
-141.487	-200.000	-0.034	-0.212
-140.472	-200.000	-0.064	0.320
-139.458	-9.052	0.375	-0.250
-138.443	98.947	0.118	-0.135
-137.429	57.408	0.089	-0.087
-136.414	-200.000	0.005	0.148
-135.399	-121.409	0.100	-0.017
-134.385	-35.109	0.171	-0.093
-133.370	18.259	0.081	0.064
-132.356	-23.247	-0.173	0.103
-131.341	-36.338	-0.113	-0.061
-130.326	800.000	0.041	0.127
-129.312	-103.522	0.309	0.072
-128.297	-41.863	-0.079	-0.040
-127.283	308.270	0.238	-0.441
-126.268	-85.610	0.136	-0.042
-125.253	261.248	0.204	-0.352
-124.239	-119.748	-0.063	-0.011
-123.224	-66.303	-0.219	-0.087
-122.210	-122.944	0.278	-0.045
-121.195	-141.279	0.259	-0.026
-120.180	-124.887	0.278	0.043
-119.166	45.111	0.208	-0.191
-118.151	78.037	0.135	-0.143
-117.137	27.582	0.262	-0.219
-116.122	-200.000	0.033	-0.283
-115.107	-55.628	0.181	-0.081
-114.093	800.000	0.047	-0.135
-113.078	-200.000	0.010	0.117
-112.064	-147.036	0.163	0.014
-111.049	-124.015	0.137	-0.021
-110.034	80.887	-0.185	0.199
-109.020	-111.636	0.200	-0.040
-108.005	-3.218	-0.317	0.219
-106.991	800.000	0.022	0.090
-105.976	1.711	0.235	0.168
-104.962	800.000	-0.066	-0.231
-103.947	332.675	-0.161	0.310
-102.932	81.519	0.058	-0.062
-101.918	-200.000	-0.004	-0.147
-100.903	681.861	-0.029	0.076
-99.889	648.607	0.126	-0.320
-98.874	5.066	0.426	-0.312
-97.859	-152.180	0.230	0.017
-96.845	286.500	-0.172	-0.308
-95.830	57.399	-0.059	0.058
-94.816	13.350	0.273	0.211
-93.801	-56.288	0.223	-0.099
-92.786	-65.810	-0.196	0.078
-91.772	15.649	-0.212	0.166
-90.757	-200.000	0.003	0.193
-89.743	-19.356	0.188	-0.116
-88.728	281.963	0.085	-0.151
-87.713	-88.670	-0.290	-0.086
-86.699	-105.629	-0.047	-0.011
-85.684	120.725	-0.036	0.045
-84.670	-12.545	0.344	-0.223
-83.655	-200.000	-0.013	0.085
-82.640	-100.599	-0.189	0.046
-81.626	800.000	-0.088	-0.249
-80.611	-40.308	0.254	0.131
-79.597	-108.527	0.159	0.034
-78.582	800.000	-0.095	-0.348
-77.567	-167.339	-0.056	-0.002
-76.553	-200.000	0.034	-0.165
-75.538	800.000	-0.033	0.115
-74.524	-56.345	-0.137	-0.060
-73.509	195.287	-0.118	0.179
-72.494	-200.000	0.007	0.126
-71.480	-46.303	-0.056	0.028
-70.465	-169.998	-0.368	0.013
-69.451	96.867	0.200	0.228
-68.436	-50.064	0.127	-0.060
-67.422	-140.269	0.302	0.031
-66.407	321.226	-0.127	0.239
-65.392	-139.813	-0.207	-0.022
-64.378	122.845	0.160	0.199
-63.363	-99.705	0.080	0.020
-62.349	-37.652	0.029	-0.015
-61.334	142.851	-0.713	-0.941
-60.319	35.468	0.183	0.159
-59.305	800.000	-0.313	-0.893
-58.290	9.830	1.044	0.787
-57.276	800.000	0.630	1.873
-56.261	-200.000	76.897	512.641
-55.246	538.278	1314.346	3100.959
-54.232	149.853	2544.866	3424.176
-53.217	112.576	2330.577	2799.642
-52.203	50.652	1951.501	1832.922
-51.188	44.571	1741.692	1588.519
-50.173	41.659	1696.672	1525.200
-49.159	56.396	1731.861	1670.467
-48.144	62.113	1750.231	1732.026
-47.130	44.571	1713.648	1562.690
-46.115	41.352	1699.608	1525.245
-45.100	41.210	1695.303	1520.243
-44.086	41.099	1692.889	1517.169
-43.071	41.142	1690.183	1515.008
-42.057	41.133	1687.787	1512.734
-41.042	41.107	1685.866	1510.757
-40.027	41.093	1684.134	1509.039
-39.013	41.090	1682.207	1507.230
-37.998	41.031	1681.052	1505.687
-36.984	41.092	1679.300	1504.521
-35.969	41.195	1677.727	1503.829
-34.954	41.265	1675.821	1502.586
-33.940	41.178	1674.071	1500.301
-32.925	41.190	1672.186	1498.644
-31.911	41.206	1670.594	1497.280
-30.896	41.181	1668.624	1495.266
-29.881	41.232	1666.773	1493.934
-28.867	41.236	1665.314	1492.592
-27.852	41.218	1663.875	1491.112
-26.838	41.226	1662.337	1489.730
-25.823	41.266	1661.182	1488.941
-24.809	41.303	1659.582	1487.720
-23.794	41.302	1658.177	1486.398
-22.779	41.348	1656.717	1485.367
-21.765	41.282	1654.946	1483.232
-20.750	41.290	1653.777	1482.186
-19.736	41.311	1652.112	1480.793
-18.721	41.333	1650.527	1479.477
-17.706	41.258	1649.036	1477.524
-16.692	41.301	1647.255	1476.188
-15.677	41.273	1646.049	1474.836
-14.663	41.289	1644.905	1473.871
-13.648	41.195	1643.970	1472.282
-12.633	41.321	1641.982	1471.373
-11.619	41.160	1640.755	1469.029
-10.604	41.241	1638.700	1467.727
-9.590	41.281	1637.397	1466.796
-8.575	41.311	1635.877	1465.595
-7.560	41.297	1634.770	1464.447
-6.546	41.286	1633.883	1463.514
-5.531	41.247	1632.509	1461.934
-4.517	41.257	1631.601	1461.136
-3.502	41.339	1630.408	1460.610
-2.487	41.343	1628.114	1458.531
-1.473	40.755	1616.362	1443.672
-0.458	37.373	1594.016	1399.356
0.556	32.195	1590.886	1355.829
1.571	28.847	1614.434	1351.210
2.586	27.929	1628.167	1355.775
3.600	24.489	1575.029	1286.663
4.615	13.613	1457.789	1117.820
5.629	3.503	1384.407	996.412
6.644	1.423	1374.485	975.837
7.659	1.294	1373.555	974.262
8.673	1.217	1372.341	972.822
9.688	1.156	1370.814	971.259
10.702	0.911	1368.006	967.617
11.717	4.632	1375.687	996.854
12.731	15.223	1395.499	1079.679
13.746	23.385	1409.984	1143.700
14.761	25.033	1411.647	1155.582
15.775	25.249	1411.717	1156.931
16.790	25.276	1411.174	1156.559
17.804	25.415	1410.192	1156.542
18.819	25.574	1410.067	1157.366
19.834	25.688	1409.247	1157.324
20.848	25.590	1408.869	1156.277
21.863	25.650	1407.651	1155.562
22.877	25.639	1406.719	1154.622
23.892	25.741	1405.334	1154.038
24.907	25.649	1404.620	1152.762
25.921	25.559	1404.342	1151.857
26.936	25.604	1403.322	1151.204
27.950	25.668	1401.798	1150.263
28.965	25.682	1400.562	1149.237
29.980	25.607	1399.316	1147.634
30.994	25.703	1397.568	1146.710
32.009	25.656	1397.022	1145.863
33.023	25.602	1396.268	1144.799
34.038	25.604	1394.769	1143.476
35.053	25.700	1393.514	1142.959
36.067	25.696	1392.600	1142.081
37.082	25.731	1391.254	1141.099
38.096	25.707	1390.559	1140.278
39.111	25.651	1390.120	1139.463
40.126	25.686	1389.293	1138.900
41.140	25.655	1388.708	1138.129
42.155	25.675	1388.445	1137.937
43.169	25.622	1388.526	1137.567
44.184	25.644	1388.434	1137.533
45.199	25.590	1388.048	1136.771
46.213	25.516	1387.229	1135.531
47.228	25.633	1386.360	1135.459
48.242	25.592	1385.385	1134.302
49.257	25.536	1383.958	1132.679
50.271	25.571	1382.457	1131.571
51.286	25.634	1380.935	1130.625
52.301	25.663	1379.592	1129.605
53.315	25.556	1379.298	1128.593
54.330	25.734	1377.700	1128.304
55.344	25.666	1377.074	1127.262
56.359	25.594	1375.866	1125.724
57.374	25.550	1374.994	1124.635
58.388	25.685	1374.106	1124.654
59.403	25.637	1373.788	1123.993
60.417	25.645	1372.946	1123.258
61.432	25.627	1372.279	1122.495
62.447	25.625	1371.439	1121.698
63.461	25.714	1370.285	1121.211
64.476	25.611	1369.334	1119.690
65.490	25.651	1368.126	1118.850
66.505	25.747	1366.499	1118.021
67.520	25.622	1365.578	1116.392
68.534	25.618	1364.613	1115.480
69.549	25.705	1363.357	1114.892
70.563	25.605	1363.233	1114.072
71.578	25.645	1361.710	1112.977
72.593	25.665	1361.165	1112.559
73.607	25.696	1359.942	1111.651
74.622	25.698	1359.642	1111.322
75.636	25.683	1358.890	1110.516
76.651	25.658	1358.093	1109.609
77.666	25.666	1357.669	1109.217
78.680	25.622	1357.151	1108.425
79.695	25.678	1356.386	1108.046
80.709	25.646	1355.670	1107.163
81.724	25.531	1354.735	1105.593
82.739	25.597	1353.608	1104.982
83.753	25.742	1352.041	1104.497
84.768	25.687	1351.320	1103.471
85.782	25.636	1350.309	1102.236
86.797	25.732	1348.699	1101.413
87.812	25.722	1347.641	1100.390
88.826	25.721	1346.866	1099.652
89.841	25.767	1346.119	1099.226
90.855	25.689	1344.925	1097.680
91.870	25.718	1343.878	1096.902
92.884	25.712	1343.575	1096.524
93.899	25.754	1342.413	1095.733
94.914	25.760	1341.788	1095.162
95.928	25.756	1340.903	1094.318
96.943	25.717	1340.346	1093.531
97.957	25.768	1339.256	1092.853
98.972	25.718	1338.593	1091.915
99.987	25.720	1337.383	1090.841
101.001	25.701	1336.105	1089.586
102.016	25.681	1335.446	1088.836
103.030	25.635	1334.917	1088.030
104.045	25.599	1334.456	1087.341
105.060	25.737	1332.740	1086.678
106.074	25.762	1331.626	1085.825
107.089	25.739	1330.947	1085.036
108.103	25.783	1329.838	1084.302
109.118	25.779	1328.574	1083.151
110.133	25.681	1328.151	1082.117
111.147	25.771	1326.846	1081.500
112.162	25.783	1325.472	1080.359
113.176	25.771	1324.312	1079.246
114.191	25.795	1323.682	1078.777
115.206	25.791	1322.643	1077.811
116.220	25.850	1321.463	1077.109
117.235	25.751	1320.564	1075.692
118.249	25.747	1319.620	1074.801
119.264	25.868	1318.520	1074.532
120.279	25.881	1317.906	1074.012
121.293	25.868	1316.989	1073.095
122.308	25.766	1316.394	1071.905
123.322	25.775	1315.458	1071.103
124.337	25.851	1314.487	1070.668
125.352	25.836	1314.070	1070.149
126.366	25.890	1312.551	1069.138
127.381	25.910	1311.970	1068.683
128.395	25.794	1311.101	1067.197
129.410	25.983	1310.093	1067.397
130.424	25.884	1309.686	1066.386
131.439	25.959	1308.773	1065.995
132.454	25.811	1308.091	1064.468
133.468	25.909	1307.470	1064.450
134.483	25.870	1306.784	1063.565
135.497	25.890	1305.826	1062.810
136.512	25.966	1304.781	1062.315
137.527	25.943	1303.716	1061.216
138.541	25.856	1302.610	1059.709
139.556	25.881	1301.103	1058.536
140.570	25.844	1300.727	1057.921
141.585	25.732	1299.511	1056.180
142.600	25.764	1298.074	1055.107
143.614	25.921	1297.443	1055.418
144.629	25.776	1296.542	1053.745
145.643	25.856	1294.821	1052.718
146.658	25.691	1294.419	1051.339
147.673	25.770	1293.527	1050.979
148.687	25.700	1292.561	1049.698
149.702	25.714	1291.239	1048.613
150.716	25.713	1290.187	1047.659
151.731	25.786	1289.136	1047.135
152.746	25.835	1287.811	1046.251
153.760	25.789	1286.952	1045.197
154.775	25.793	1285.695	1044.107
155.789	25.789	1285.037	1043.455
156.804	25.888	1284.039	1043.122
157.819	25.926	1283.286	1042.639
158.833	25.815	1282.331	1041.131
159.848	25.854	1282.028	1041.016
160.862	25.890	1281.100	1040.380
161.877	25.834	1280.379	1039.378
162.892	25.945	1279.092	1038.882
163.906	25.881	1278.613	1038.031
164.921	25.914	1277.618	1037.325
165.935	25.919	1276.986	1036.745
166.950	26.025	1276.458	1036.839
167.964	25.983	1276.054	1036.172
168.979	25.868	1275.677	1035.117
169.994	25.959	1274.847	1034.876
171.008	25.940	1273.991	1033.980
172.023	25.891	1273.299	1033.045
173.037	25.985	1272.547	1032.883
174.052	25.998	1271.614	1032.109
175.067	25.966	1270.973	1031.310
176.081	26.016	1269.983	1030.705
177.096	25.956	1269.240	1029.664
178.110	26.012	1268.545	1029.331
179.125	25.904	1267.774	1027.997
180.140	25.998	1266.408	1027.336
181.154	25.888	1265.390	1025.791
182.169	25.926	1264.039	1024.820
183.183	25.904	1263.167	1023.902
184.198	25.954	1261.950	1023.107
185.213	25.933	1261.126	1022.231
186.227	25.935	1260.653	1021.767
187.242	25.987	1259.442	1020.989
188.256	26.049	1258.322	1020.339
189.271	26.118	1257.549	1020.016
190.286	26.089	1256.796	1019.149
191.300	26.022	1256.597	1018.521
192.315	26.020	1255.601	1017.609
193.329	26.018	1255.514	1017.438
194.344	26.046	1255.064	1017.141
195.359	25.944	1254.883	1016.330
196.373	25.979	1254.282	1015.950
197.388	26.041	1253.577	1015.640
198.402	26.083	1253.202	1015.484
199.417	25.898	1252.895	1014.103
200.432	25.995	1252.153	1013.956
201.446	25.996	1251.852	1013.630
202.461	25.986	1251.021	1012.808
203.475	26.039	1249.848	1012.070
204.490	26.020	1248.985	1011.171
205.504	25.922	1248.365	1010.035
206.519	26.116	1247.193	1010.082
207.534	26.037	1246.250	1008.787
208.548	26.057	1245.205	1007.962
209.563	26.008	1244.599	1007.108
210.577	26.072	1243.810	1006.738
211.592	26.190	1242.967	1006.625
212.607	26.064	1242.327	1005.314
213.621	26.187	1241.271	1005.059
214.636	26.176	1240.454	1004.248
215.650	26.132	1239.764	1003.352
216.665	26.156	1238.832	1002.644
217.680	26.070	1237.807	1001.248
218.694	26.177	1237.332	1001.367
219.709	26.122	1236.406	1000.227
220.723	26.222	1235.548	999.997
221.738	26.095	1234.731	998.545
222.753	26.116	1234.096	998.061
223.767	26.091	1233.558	997.400
224.782	26.186	1233.250	997.584
225.796	26.204	1232.685	997.138
226.811	26.295	1231.759	996.805
227.826	26.224	1231.167	995.844
228.840	26.285	1230.749	995.754
229.855	26.187	1229.933	994.467
230.869	26.202	1229.330	993.973
231.884	26.159	1228.670	993.117
232.899	26.225	1228.187	993.002
233.913	26.275	1227.264	992.444
234.928	26.312	1226.744	992.136
235.942	26.373	1226.063	991.835
236.957	26.311	1225.527	990.969
237.972	26.269	1224.956	990.194
238.986	26.278	1223.981	989.365
240.001	26.376	1223.770	989.644
241.015	26.505	1222.363	989.121
242.030	26.345	1222.143	987.981
243.045	26.378	1221.268	987.368
244.059	26.392	1220.524	986.756
245.074	26.410	1219.687	986.091
246.088	26.465	1218.810	985.594
247.103	26.426	1217.861	984.525
248.117	26.480	1216.708	983.802
249.132	26.491	1216.352	983.486
250.147	26.451	1215.919	982.834
251.161	26.590	1214.740	982.549
252.176	26.516	1214.545	981.902
253.190	26.542	1213.673	981.249
254.205	26.377	1213.453	980.089
255.220	26.478	1212.733	979.971
256.234	26.421	1211.990	978.973
257.249	26.554	1211.107	978.895
258.263	26.550	1210.368	978.187
259.278	26.580	1210.012	977.976
260.293	26.461	1209.941	977.187
261.307	26.573	1209.084	977.012
262.322	26.546	1208.325	976.168
263.336	26.579	1207.864	975.886
264.351	26.533	1207.388	975.167
265.366	26.508	1206.634	974.339
266.380	26.591	1205.787	974.017
267.395	26.546	1205.031	973.074
268.409	26.562	1204.381	972.553
269.424	26.599	1204.013	972.367
270.439	26.622	1203.195	971.743
271.453	26.558	1202.864	971.049
272.468	26.662	1201.747	970.619
273.482	26.470	1201.425	969.241
274.497	26.585	1200.863	969.317
275.512	26.604	1200.373	968.938
276.526	26.644	1199.693	968.519
277.541	26.711	1198.656	967.955
278.555	26.724	1198.018	967.422
279.570	26.599	1197.477	966.234
280.585	26.681	1196.328	965.656
281.599	26.776	1195.519	965.423
282.614	26.647	1194.986	964.222
283.628	26.731	1194.419	964.127
284.643	26.709	1193.135	962.885
285.657	26.707	1192.326	962.138
286.672	26.637	1191.787	961.246
287.687	26.608	1190.934	960.322
288.701	26.737	1190.582	960.637
289.716	26.866	1189.693	960.519
290.730	26.742	1189.043	959.251
291.745	26.706	1188.222	958.312
292.760	26.738	1187.462	957.782
293.774	26.909	1186.872	958.128
294.789	26.772	1186.774	957.236
295.803	26.837	1185.606	956.555
296.818	26.780	1185.396	956.001
297.833	26.815	1184.754	955.585
298.847	26.862	1183.788	954.968
299.862	26.809	1183.152	954.089
300.876	26.837	1182.340	953.499
301.891	26.880	1181.705	953.127
302.906	26.988	1180.881	952.948
303.920	26.969	1180.292	952.285
304.935	26.918	1179.865	951.589
305.949	26.923	1179.327	951.099
306.964	26.960	1178.645	950.659
307.979	26.957	1177.923	949.978
308.993	27.018	1177.299	949.705
310.008	27.015	1176.569	949.018
311.022	26.995	1175.624	948.070
312.037	27.034	1175.119	947.782
313.052	26.862	1174.535	946.326
314.066	26.960	1173.187	945.668
315.081	26.993	1172.446	945.162
316.095	26.953	1172.046	944.545
317.110	26.966	1171.512	944.101
318.125	27.000	1171.141	943.894
319.139	26.975	1170.431	943.108
320.154	27.022	1169.310	942.365
321.168	27.080	1169.146	942.452
322.183	27.089	1168.509	941.902
323.197	27.164	1167.445	941.347
324.212	27.156	1167.029	940.889
325.227	27.138	1166.655	940.410
326.241	27.241	1166.118	940.425
327.256	27.092	1165.264	938.885
328.270	27.126	1164.436	938.310
329.285	27.132	1163.816	937.757
330.300	27.038	1163.229	936.716
331.314	27.150	1162.309	936.469
332.329	27.186	1161.201	935.682
333.343	27.189	1160.319	934.900
334.358	27.204	1159.773	934.458
335.373	27.295	1159.080	934.285
336.387	27.211	1158.566	933.353
337.402	27.332	1157.296	932.872
338.416	27.257	1157.166	932.299
339.431	27.238	1156.821	931.842
340.446	27.253	1156.124	931.274
341.460	27.363	1155.250	931.048
342.475	27.274	1154.668	930.042
343.489	27.423	1153.295	929.615
344.504	27.322	1152.260	928.182
345.519	27.243	1151.998	927.488
346.533	27.337	1151.111	927.173
347.548	27.336	1150.465	926.565
348.562	27.349	1149.979	926.157
349.577	27.370	1149.018	925.407
350.592	27.272	1148.149	924.129
351.606	27.299	1147.647	923.780
352.621	27.323	1146.968	923.270
353.635	27.495	1145.976	923.264
354.650	27.437	1145.222	922.281
355.665	27.443	1144.903	921.974
356.679	27.473	1144.375	921.617
357.694	27.469	1143.668	920.946
358.708	27.500	1143.227	920.667
359.723	27.458	1142.670	919.925
360.738	27.341	1141.950	918.670
361.752	27.444	1141.112	918.436
362.767	27.480	1140.899	918.364
363.781	27.495	1140.130	917.742
364.796	27.575	1139.884	917.863
365.810	27.657	1139.053	917.526
366.825	27.536	1138.375	916.288
367.840	27.579	1138.150	916.242
368.854	27.607	1137.566	915.832
369.869	27.738	1136.574	915.614
370.883	27.608	1135.911	914.343
371.898	27.737	1135.078	914.238
372.913	27.536	1134.689	912.839
373.927	27.622	1134.029	912.658
374.942	27.685	1133.078	912.128
375.956	27.650	1133.125	911.907
376.971	27.621	1132.450	911.139
377.986	27.684	1132.165	911.145
379.000	27.744	1131.263	910.639
380.015	27.793	1131.018	910.604
381.029	27.749	1130.043	909.519
382.044	27.839	1129.434	909.395
383.059	27.894	1128.591	908.909
384.073	27.963	1127.762	908.507
385.088	27.834	1127.632	907.682
386.102	27.665	1126.679	905.994
387.117	27.723	1125.897	905.571
388.132	27.651	1125.018	904.429
389.146	27.708	1124.235	904.002
390.161	27.838	1123.444	903.929
391.175	27.811	1122.705	903.120
392.190	27.871	1122.190	902.925
393.205	27.864	1121.758	902.459
394.219	27.910	1120.990	901.990
395.234	27.922	1120.251	901.377
396.248	27.968	1118.840	900.389
397.263	27.986	1118.058	899.766
398.278	27.826	1118.194	899.006
399.292	28.038	1117.081	899.074
400.307	28.126	1116.123	898.660
401.321	28.077	1115.424	897.773
402.336	27.978	1115.028	896.892
403.350	27.970	1114.449	896.309
404.365	28.002	1114.079	896.088
405.380	28.112	1113.268	895.896
406.394	28.118	1112.461	895.195
407.409	28.100	1111.656	894.379
408.423	28.278	1110.779	894.466
409.438	28.286	1110.030	893.821
410.453	28.108	1109.493	892.442
411.467	28.244	1108.654	892.350
412.482	28.243	1108.134	891.849
413.496	28.170	1107.601	890.987
414.511	28.250	1106.773	890.629
415.526	28.234	1106.369	890.149
416.540	28.155	1106.086	889.459
417.555	28.114	1105.878	889.010
418.569	28.209	1105.375	888.991
419.584	28.256	1104.556	888.481
420.599	28.363	1103.931	888.421
421.613	88.625	1300.071	1376.139
422.628	83.020	1328.654	1376.238
