DTS Sentinel unit serial number:	SN413079Multiplexer serial number:	ORYXHardware model number:	OX4-SRSoftware version number:	ORYX F/W v4.00 Oryx Data Collector v3.7.2.0data status	okinstallation	princeton_trtdifferential loss correction	single-endedforward channel	channel 2reverse channel	N/Adate	2019/09/17time	09:19:35forward acquisition time	60.00reverse acquisition time	0.00gamma	496.2192k internal	0.2330k external	0.2330temperature offset calibration	0.9972default loss term (dB/km)	0.3790temperature slope calibration	1.0000multiplexer offset coefficient	1.0000multiplexer slope coefficient	1.0000fibre end	0.00T internal ref (°C)	28.66T ext. ref 1 (°C)	0.14T ext. ref 2 (°C)	25.63length (m)	temperature (°C)	Stokes	anti-Stokes-747.200	-163.763	0.142	0.007
-746.185	-154.352	0.171	-0.012
-745.171	-85.256	0.067	-0.021
-744.156	-165.980	-0.310	0.013
-743.142	111.459	0.161	0.195
-742.127	-102.084	-0.135	0.033
-741.112	-1.376	-0.025	-0.018
-740.098	800.000	-0.078	0.253
-739.083	214.421	-0.028	-0.045
-738.069	89.208	0.221	0.248
-737.054	-200.000	-0.004	0.179
-736.039	-98.703	-0.493	-0.127
-735.025	253.519	-0.075	0.129
-734.010	30.472	-0.202	0.174
-732.996	92.085	-0.292	0.331
-731.981	-97.967	0.159	-0.041
-730.966	-82.068	0.182	-0.060
-729.952	-80.484	0.280	-0.094
-728.937	227.729	-0.122	-0.200
-727.923	276.308	-0.281	0.502
-726.908	227.524	-0.150	-0.246
-725.894	-200.000	-0.010	-0.054
-724.879	445.337	0.099	-0.218
-723.864	-46.291	-0.235	0.116
-722.850	-19.292	-0.123	0.077
-721.835	390.347	-0.047	0.099
-720.821	-155.706	-0.254	0.016
-719.806	-200.000	0.027	-0.159
-718.791	-200.000	-0.035	0.312
-717.777	-58.766	-0.147	-0.064
-716.762	-176.488	-0.121	0.003
-715.748	166.402	0.117	-0.167
-714.733	113.052	-0.231	-0.282
-713.718	130.777	0.121	0.156
-712.704	-24.530	0.278	-0.167
-711.689	-200.000	-0.015	0.093
-710.675	-103.412	-0.223	0.053
-709.660	-145.883	0.185	-0.016
-708.645	24.170	0.188	-0.156
-707.631	124.450	0.042	-0.053
-706.616	-103.134	-0.333	0.079
-705.602	509.543	0.075	0.174
-704.587	-152.079	-0.431	0.032
-703.572	-75.043	-0.305	0.110
-702.558	-200.000	-0.028	-0.276
-701.543	-104.213	0.240	0.056
-700.529	113.808	-0.128	0.157
-699.514	-22.553	-0.103	0.062
-698.499	3.360	0.366	0.268
-697.485	105.942	-0.047	-0.055
-696.470	-89.663	-0.231	-0.068
-695.456	-200.000	0.037	-0.322
-694.441	89.776	-0.108	0.121
-693.426	-173.036	0.388	0.012
-692.412	-85.431	-0.241	-0.075
-691.397	544.457	-0.126	-0.302
-690.383	43.911	-0.340	-0.313
-689.368	382.692	0.129	-0.267
-688.354	-200.000	-0.033	0.348
-687.339	-64.187	0.108	0.044
-686.324	800.000	0.066	0.274
-685.310	-2.729	-0.078	0.055
-684.295	52.398	0.123	-0.118
-683.281	-178.158	-0.426	-0.010
-682.266	311.173	-0.166	0.313
-681.251	-200.000	0.010	-0.413
-680.237	25.569	-0.168	-0.141
-679.222	41.899	0.135	-0.123
-678.208	-95.729	-0.231	-0.062
-677.193	129.782	-0.062	-0.079
-676.178	-23.231	0.105	-0.064
-675.164	-200.000	0.011	0.205
-674.149	-200.000	-0.027	0.129
-673.135	800.000	-0.086	0.253
-672.120	142.763	-0.110	-0.147
-671.105	800.000	-0.054	0.167
-670.091	-28.208	-0.128	-0.074
-669.076	-200.000	-0.016	-0.137
-668.062	77.839	-0.096	-0.102
-667.047	135.389	-0.160	0.210
-666.032	458.238	0.045	-0.099
-665.018	509.664	-0.152	0.355
-664.003	257.986	-0.152	-0.263
-662.989	-89.544	-0.108	0.032
-661.974	445.550	-0.067	-0.147
-660.959	-72.365	0.331	-0.123
-659.945	-200.000	-0.012	-0.195
-658.930	-30.978	-0.195	0.111
-657.916	800.000	0.069	-0.214
-656.901	14.570	-0.111	0.087
-655.886	37.565	0.255	0.227
-654.872	-24.389	-0.260	0.156
-653.857	800.000	-0.100	-0.323
-652.843	116.208	-0.209	0.257
-651.828	-62.856	-0.325	-0.135
-650.814	55.272	-0.213	0.207
-649.799	-39.921	-0.657	-0.344
-648.784	-200.000	-0.028	-0.174
-647.770	-16.766	-0.140	0.089
-646.755	43.033	0.184	-0.168
-645.741	-200.000	-0.009	-0.107
-644.726	800.000	-0.028	-0.078
-643.711	-200.000	0.107	0.495
-642.697	-93.351	0.161	0.045
-641.682	85.806	0.233	-0.257
-640.668	-134.188	-0.213	-0.026
-639.653	-200.000	-0.059	-0.335
-638.638	-200.000	-0.007	0.152
-637.624	-30.292	0.102	0.058
-636.609	-200.000	0.012	-0.065
-635.595	770.840	0.085	-0.233
-634.580	-200.000	-0.220	0.000
-633.565	-43.653	0.191	0.097
-632.551	-200.000	-0.016	0.171
-631.536	-3.696	0.113	0.079
-630.522	-85.415	0.059	-0.019
-629.507	84.911	0.203	0.224
-628.492	687.706	-0.092	0.240
-627.478	424.851	0.128	-0.276
-626.463	-82.163	-0.245	-0.080
-625.449	-118.518	-0.151	-0.027
-624.434	-200.000	-0.002	0.018
-623.419	800.000	0.057	-0.192
-622.405	-76.289	-0.118	0.042
-621.390	-85.511	0.380	-0.119
-620.376	-113.299	-0.254	0.050
-619.361	-109.494	-0.235	-0.050
-618.346	99.848	0.199	0.231
-617.332	800.000	0.107	-0.387
-616.317	44.892	-0.307	0.283
-615.303	-123.774	-0.089	-0.014
-614.288	31.505	0.115	0.099
-613.273	-130.873	0.184	0.025
-612.259	-187.277	0.285	-0.004
-611.244	-94.361	-0.236	0.065
-610.230	-98.346	0.381	0.098
-609.215	347.930	-0.055	0.108
-608.201	-128.965	-0.081	-0.011
-607.186	18.290	-0.144	-0.115
-606.171	-105.843	0.218	0.049
-605.157	-30.156	-0.323	-0.184
-604.142	6.651	-0.304	-0.226
-603.128	-62.063	-0.239	-0.100
-602.113	-74.243	-0.319	0.116
-601.098	136.778	-0.244	0.320
-600.084	2.439	-0.201	-0.146
-599.069	-100.668	0.233	-0.058
-598.055	-0.046	0.018	-0.013
-597.040	-200.000	0.030	-0.187
-596.025	-200.000	-0.014	-0.094
-595.011	-46.891	0.138	0.068
-593.996	-132.191	0.250	-0.032
-592.982	293.034	-0.105	-0.191
-591.967	82.315	0.105	-0.114
-590.952	800.000	-0.020	-0.076
-589.938	-55.438	-0.149	-0.067
-588.923	110.231	0.107	0.128
-587.909	-117.281	-0.148	0.027
-586.894	-200.000	0.015	0.170
-585.879	33.657	0.060	0.052
-584.865	-200.000	0.002	-0.037
-583.850	-200.000	-0.063	-0.360
-582.836	66.066	0.263	0.267
-581.821	800.000	-0.099	-0.361
-580.806	-200.000	0.011	0.106
-579.792	211.096	-0.051	-0.080
-578.777	-3.672	0.181	0.126
-577.763	-50.531	-0.146	-0.069
-576.748	90.709	-0.052	-0.058
-575.733	542.758	-0.063	0.151
-574.719	2.339	-0.246	-0.178
-573.704	1.957	-0.205	0.148
-572.690	361.434	0.025	0.051
-571.675	316.701	0.139	-0.263
-570.661	62.966	0.250	0.250
-569.646	-7.479	0.355	0.241
-568.631	-200.000	0.040	-0.185
-567.617	-59.761	0.318	0.136
-566.602	376.713	0.056	0.115
-565.588	-156.331	0.280	-0.018
-564.573	-120.204	-0.119	0.020
-563.558	-124.765	0.593	0.092
-562.544	-129.382	0.181	0.025
-561.529	800.000	-0.080	0.224
-560.515	800.000	0.023	-0.089
-559.500	-50.961	0.145	0.068
-558.485	40.622	0.092	-0.083
-557.471	52.994	0.182	0.174
-556.456	800.000	0.036	-0.116
-555.442	-93.007	0.134	0.037
-554.427	32.561	0.157	0.136
-553.412	93.286	0.183	0.207
-552.398	-33.677	-0.293	0.161
-551.383	135.592	0.049	0.064
-550.369	-62.958	-0.233	-0.096
-549.354	-178.035	-0.068	0.002
-548.339	-5.880	-0.115	-0.078
-547.325	1.021	0.146	0.105
-546.310	800.000	-0.078	-0.293
-545.296	-200.000	0.004	0.067
-544.281	-23.499	0.169	-0.102
-543.266	575.839	0.138	-0.336
-542.252	19.456	0.092	0.074
-541.237	119.251	-0.039	-0.049
-540.223	-54.509	-0.204	0.092
-539.208	346.660	-0.148	0.290
-538.193	-67.808	0.146	0.057
-537.179	-106.955	0.115	0.025
-536.164	800.000	-0.100	0.364
-535.150	-200.000	-0.091	-0.415
-534.135	-200.000	-0.025	-0.217
-533.121	36.368	-0.311	0.274
-532.106	674.027	0.083	-0.215
-531.091	-70.814	-0.133	-0.050
-530.077	-200.000	0.034	0.181
-529.062	-83.869	-0.137	-0.044
-528.048	7.359	-0.100	0.074
-527.033	21.321	-0.186	-0.151
-526.018	724.314	-0.069	0.183
-525.004	-86.703	0.260	-0.079
-523.989	-118.895	-0.272	0.048
-522.975	242.864	-0.111	-0.186
-521.960	-142.632	-0.294	0.029
-520.945	60.212	-0.112	0.111
-519.931	-200.000	-0.323	0.001
-518.916	-40.986	0.297	0.153
-517.902	95.484	0.272	0.310
-516.887	380.676	0.158	0.324
-515.872	-31.964	0.051	-0.029
-514.858	800.000	-0.073	0.228
-513.843	-200.000	0.007	-0.065
-512.829	-42.423	0.153	0.078
-511.814	-200.000	0.017	0.156
-510.799	-200.000	-0.061	0.361
-509.785	79.975	0.074	0.079
-508.770	-140.684	0.035	-0.004
-507.756	-98.991	-0.167	0.042
-506.741	-200.000	0.024	-0.247
-505.726	800.000	-0.086	0.341
-504.712	800.000	-0.145	0.425
-503.697	-176.050	-0.112	-0.003
-502.683	85.447	0.112	-0.122
-501.668	12.293	-0.128	0.098
-500.653	254.871	0.008	-0.014
-499.639	-73.405	0.090	0.033
-498.624	7.182	0.202	0.150
-497.610	-39.993	0.310	0.161
-496.595	315.466	0.068	-0.128
-495.581	-200.000	-0.032	0.240
-494.566	-166.579	0.258	-0.011
-493.551	10.645	0.324	-0.246
-492.537	153.183	-0.133	-0.181
-491.522	133.913	-0.223	0.288
-490.508	277.640	0.135	-0.240
-489.493	261.212	-0.196	0.338
-488.478	-200.000	-0.019	0.104
-487.464	84.096	0.108	-0.118
-486.449	339.706	-0.199	0.386
-485.435	90.624	-0.122	-0.137
-484.420	-200.000	0.029	0.360
-483.405	461.191	0.013	-0.029
-482.391	9.506	0.282	-0.213
-481.376	-16.610	-0.190	-0.120
-480.362	-157.238	-0.010	-0.001
-479.347	86.790	-0.061	0.067
-478.332	28.660	-0.128	-0.108
-477.318	-30.176	-0.121	-0.068
-476.303	77.131	-0.152	-0.161
-475.289	120.321	-0.050	0.062
-474.274	45.677	-0.366	0.337
-473.259	414.960	-0.041	-0.088
-472.245	-200.000	0.018	-0.283
-471.230	-28.152	-0.106	-0.061
-470.216	800.000	-0.035	-0.111
-469.201	-99.853	0.233	0.058
-468.186	-200.000	-0.063	-0.285
-467.172	239.280	0.205	0.339
-466.157	312.242	-0.193	0.361
-465.143	63.022	0.126	-0.126
-464.128	-200.000	-0.005	0.220
-463.113	-51.332	0.170	0.079
-462.099	-75.555	0.204	-0.072
-461.084	164.678	-0.105	0.147
-460.070	-97.417	-0.190	-0.049
-459.055	201.938	0.162	0.249
-458.040	305.905	-0.136	0.251
-457.026	-23.122	-0.214	-0.128
-456.011	-200.000	-0.015	-0.207
-454.997	-24.654	-0.180	-0.107
-453.982	-128.318	-0.229	0.033
-452.968	-117.297	-0.302	-0.055
-451.953	-95.562	0.476	0.127
-450.938	800.000	-0.107	0.345
-449.924	800.000	0.097	-0.286
-448.909	55.366	0.168	0.162
-447.895	-4.501	-0.279	0.192
-446.880	-139.996	0.252	-0.026
-445.865	16.974	0.277	-0.218
-444.851	-54.873	-0.012	-0.005
-443.836	96.789	0.138	0.158
-442.822	-173.916	-0.173	0.005
-441.807	-158.863	-0.055	-0.003
-440.792	-200.000	-0.006	-0.258
-439.778	119.859	-0.089	-0.110
-438.763	-14.504	0.268	0.171
-437.749	760.361	0.147	-0.397
-436.734	-8.442	0.148	-0.099
-435.719	5.369	-0.073	-0.053
-434.705	275.030	0.133	-0.235
-433.690	483.731	0.068	-0.154
-432.676	10.189	0.134	-0.101
-431.661	-66.933	-0.334	-0.131
-430.646	800.000	-0.097	-0.313
-429.632	670.127	0.013	-0.034
-428.617	712.338	0.063	-0.165
-427.603	-52.986	0.187	-0.086
-426.588	90.453	0.024	0.026
-425.573	-62.891	-0.217	-0.089
-424.559	-38.892	-0.127	-0.067
-423.544	-200.000	-0.002	0.053
-422.530	4.662	-0.276	-0.201
-421.515	800.000	-0.073	-0.224
-420.500	51.158	0.035	-0.033
-419.486	542.890	0.089	-0.212
-418.471	800.000	-0.143	-0.453
-417.457	-59.687	0.202	0.086
-416.442	53.466	0.208	-0.198
-415.428	135.275	0.081	-0.105
-414.413	-93.299	-0.177	-0.049
-413.398	93.488	0.174	-0.196
-412.384	-18.758	-0.233	-0.144
-411.369	61.804	-0.272	-0.270
-410.355	-200.000	0.008	-0.316
-409.340	800.000	0.088	0.289
-408.325	-200.000	0.018	-0.173
-407.311	-148.222	-0.230	-0.019
-406.296	57.156	0.082	0.080
-405.282	-200.000	0.000	0.152
-404.267	-74.465	-0.065	0.023
-403.252	233.364	-0.061	0.099
-402.238	-200.000	0.001	-0.037
-401.223	-52.939	0.295	0.135
-400.209	551.513	-0.081	0.194
-399.194	-73.192	-0.299	-0.109
-398.179	618.854	-0.205	-0.512
-397.165	162.011	-0.056	0.078
-396.150	176.693	0.106	-0.153
-395.136	167.946	-0.050	0.071
-394.121	-77.590	0.319	0.110
-393.106	259.378	0.239	0.410
-392.092	-200.000	0.007	0.139
-391.077	-158.505	0.073	-0.004
-390.063	-125.103	0.207	0.032
-389.048	-56.994	0.132	-0.058
-388.033	-32.711	0.069	-0.038
-387.019	-200.000	-0.004	-0.307
-386.004	219.794	-0.142	-0.226
-384.990	-141.826	0.212	0.021
-383.975	32.408	0.266	0.228
-382.960	105.403	0.106	-0.125
-381.946	218.523	0.115	0.183
-380.931	49.271	0.105	-0.098
-379.917	800.000	0.082	0.237
-378.902	-2.776	-0.278	0.193
-377.888	-29.981	-0.238	-0.135
-376.873	-76.391	0.084	-0.029
-375.858	-163.247	0.499	-0.024
-374.844	34.939	-0.147	-0.127
-373.829	61.642	0.161	-0.159
-372.815	-109.397	-0.438	-0.092
-371.800	229.603	0.029	-0.047
-370.785	0.773	-0.165	-0.117
-369.771	224.801	-0.151	-0.242
-368.756	-171.776	-0.188	-0.006
-367.742	800.000	0.020	0.058
-366.727	-159.033	-0.227	0.013
-365.712	-20.091	-0.024	-0.015
-364.698	104.936	0.149	0.174
-363.683	36.334	0.191	0.167
-362.669	-164.696	-0.195	0.009
-361.654	-25.744	0.146	-0.085
-360.639	-147.744	-0.254	-0.021
-359.625	83.901	0.116	-0.126
-358.610	105.067	-0.075	-0.088
-357.596	37.572	0.036	-0.032
-356.581	638.632	-0.127	-0.319
-355.566	800.000	-0.043	-0.182
-354.552	800.000	-0.127	-0.435
-353.537	-200.000	-0.014	0.089
-352.523	-116.096	-0.212	0.039
-351.508	285.979	0.114	0.204
-350.493	-91.730	-0.337	0.095
-349.479	-81.566	0.164	0.053
-348.464	49.714	-0.265	-0.248
-347.450	67.597	-0.024	-0.024
-346.435	-180.609	-0.044	-0.001
-345.420	-200.000	-0.009	0.099
-344.406	59.644	0.318	0.311
-343.391	0.183	-0.035	-0.025
-342.377	800.000	0.085	0.280
-341.362	-200.000	0.019	0.203
-340.348	173.169	-0.033	-0.047
-339.333	689.744	0.123	-0.318
-338.318	5.730	0.243	-0.178
-337.304	800.000	-0.068	-0.201
-336.289	7.064	-0.041	0.031
-335.275	435.348	0.119	-0.257
-334.260	31.970	0.080	-0.068
-333.245	-200.000	0.036	-0.203
-332.231	800.000	-0.044	-0.144
-331.216	447.934	0.142	0.310
-330.202	118.745	0.191	0.234
-329.187	-88.229	0.210	-0.062
-328.172	-43.904	-0.342	0.171
-327.158	-163.694	0.187	-0.009
-326.143	94.897	0.209	0.235
-325.129	800.000	-0.058	0.163
-324.114	-65.464	0.091	-0.036
-323.099	-113.326	-0.400	0.078
-322.085	-76.943	-0.172	0.060
-321.070	462.634	-0.173	-0.383
-320.056	27.052	0.186	-0.154
-319.041	151.276	-0.038	-0.051
-318.026	55.788	-0.228	-0.219
-317.012	800.000	0.081	0.334
-315.997	212.683	0.257	0.402
-314.983	-200.000	-0.001	-0.215
-313.968	27.855	-0.243	0.203
-312.953	-96.995	0.156	-0.040
-311.939	-48.482	0.190	-0.091
-310.924	-31.097	-0.468	-0.261
-309.910	-200.000	-0.010	-0.203
-308.895	-200.000	-0.110	-0.495
-307.880	49.865	-0.099	-0.093
-306.866	-130.215	-0.329	0.044
-305.851	-73.279	-0.043	0.016
-304.837	42.691	0.423	0.381
-303.822	585.290	-0.012	0.028
-302.807	-200.000	-0.017	-0.128
-301.793	-200.000	-0.042	-0.211
-300.778	-200.000	0.021	-0.322
-299.764	641.585	-0.050	-0.127
-298.749	-200.000	-0.005	0.055
-297.735	49.556	0.100	-0.094
-296.720	-46.829	0.326	-0.158
-295.705	5.571	0.252	0.184
-294.691	244.374	-0.180	0.300
-293.676	800.000	-0.069	-0.243
-292.662	-189.906	-0.437	-0.005
-291.647	-20.125	-0.246	0.150
-290.632	-92.031	0.354	-0.099
-289.618	295.751	-0.075	0.136
-288.603	-89.908	0.215	-0.062
-287.589	135.719	0.238	-0.307
-286.574	-50.403	0.177	-0.083
-285.559	17.628	0.141	-0.111
-284.545	-122.956	-0.331	-0.053
-283.530	-103.631	-0.219	0.051
-282.516	31.385	-0.086	0.073
-281.501	-66.918	-0.279	0.109
-280.486	-118.634	-0.056	0.010
-279.472	-200.000	0.000	0.264
-278.457	201.548	-0.121	0.185
-277.443	-35.729	-0.436	0.234
-276.428	-200.000	0.015	-0.587
-275.413	208.780	-0.096	0.149
-274.399	-18.599	-0.256	0.158
-273.384	152.281	-0.129	0.173
-272.370	-31.195	0.168	0.094
-271.355	105.852	-0.240	0.281
-270.340	228.640	0.053	0.085
-269.326	237.342	-0.132	0.216
-268.311	58.644	0.313	0.304
-267.297	-200.000	0.048	0.372
-266.282	800.000	0.030	-0.112
-265.267	-65.449	0.105	-0.042
-264.253	-60.461	-0.317	-0.133
-263.238	117.293	0.250	0.304
-262.224	234.231	-0.169	-0.276
-261.209	-117.123	0.218	-0.039
-260.195	-30.808	0.245	-0.137
-259.180	-26.778	0.130	0.075
-258.165	361.279	-0.109	0.215
-257.151	18.490	-0.175	-0.138
-256.136	-66.380	0.214	0.084
-255.122	504.278	0.085	0.194
-254.107	-25.817	-0.248	0.145
-253.092	23.223	0.355	-0.288
-252.078	30.575	-0.067	-0.057
-251.063	800.000	-0.014	0.045
-250.049	28.615	-0.068	0.056
-249.034	134.122	-0.011	-0.015
-248.019	-50.677	0.178	0.083
-247.005	-200.000	-0.027	0.305
-245.990	-200.000	-0.004	-0.112
-244.976	-200.000	0.015	0.164
-243.961	764.229	-0.052	0.139
-242.946	204.093	-0.068	0.103
-241.932	152.575	0.175	0.236
-240.917	-150.266	0.113	0.009
-239.903	498.993	0.005	-0.011
-238.888	-200.000	0.026	-0.493
-237.873	763.133	-0.033	0.089
-236.859	263.880	0.106	-0.182
-235.844	-152.018	0.208	-0.015
-234.830	259.860	0.116	-0.199
-233.815	-200.000	0.014	0.267
-232.800	40.110	0.043	0.038
-231.786	-157.165	-0.304	-0.018
-230.771	-200.000	0.037	-0.184
-229.757	26.863	0.206	0.171
-228.742	-200.000	-0.016	-0.261
-227.727	62.554	-0.263	0.259
-226.713	-144.435	-0.075	0.007
-225.698	-200.000	-0.011	0.221
-224.684	134.524	0.228	-0.292
-223.669	165.702	-0.145	0.202
-222.655	-200.000	-0.008	-0.353
-221.640	510.312	0.021	0.048
-220.625	-56.290	-0.259	0.114
-219.611	41.787	0.061	-0.054
-218.596	-32.896	0.480	0.263
-217.582	800.000	0.028	-0.101
-216.567	-45.020	0.143	0.070
-215.552	28.781	0.186	-0.155
-214.538	-57.162	0.382	0.166
-213.523	800.000	0.103	0.415
-212.509	-200.000	0.031	0.158
-211.494	68.487	-0.112	0.113
-210.479	136.902	0.061	0.079
-209.465	134.515	-0.037	0.048
-208.450	-200.000	-0.025	-0.274
-207.436	75.867	0.074	0.077
-206.421	-200.000	0.016	0.131
-205.406	-200.000	0.023	-0.157
-204.392	-13.947	0.101	0.064
-203.377	-13.118	0.206	-0.132
-202.363	-200.000	-0.011	-0.165
-201.348	-15.279	-0.135	0.085
-200.333	-76.466	-0.349	-0.121
-199.319	-200.000	0.039	0.321
-198.304	-200.000	-0.014	0.376
-197.290	-126.175	-0.202	0.030
-196.275	-154.114	0.287	0.019
-195.260	-160.916	0.206	0.011
-194.246	302.325	-0.033	-0.060
-193.231	171.730	-0.170	0.241
-192.217	-200.000	-0.041	0.250
-191.202	-5.101	-0.177	0.120
-190.187	-200.000	0.038	0.277
-189.173	-194.460	-0.135	0.001
-188.158	26.708	0.078	0.065
-187.144	0.728	-0.229	0.161
-186.129	581.064	-0.092	-0.223
-185.114	-168.285	-0.152	-0.006
-184.100	-200.000	-0.023	0.198
-183.085	-197.635	-0.249	0.002
-182.071	3.047	-0.152	0.109
-181.056	86.732	0.126	-0.137
-180.042	741.118	0.080	-0.211
-179.027	136.866	0.122	-0.157
-178.012	800.000	-0.027	-0.094
-176.998	306.955	0.129	-0.236
-175.983	486.350	0.163	-0.365
-174.969	601.844	0.068	0.167
-173.954	-79.513	0.044	0.015
-172.939	-63.780	0.221	0.089
-171.925	-200.000	-0.030	-0.186
-170.910	-200.000	0.019	0.091
-169.896	-119.003	-0.169	-0.029
-168.881	-104.908	-0.121	-0.027
-167.866	77.880	-0.230	-0.241
-166.852	283.333	-0.093	0.164
-165.837	-172.450	0.319	-0.010
-164.823	-200.000	0.035	0.250
-163.808	7.154	0.106	-0.078
-162.793	49.792	-0.078	-0.072
-161.779	81.557	0.142	-0.151
-160.764	-58.103	-0.171	-0.073
-159.750	-81.104	-0.145	0.047
-158.735	113.353	0.101	-0.121
-157.720	137.923	0.173	-0.223
-156.706	-13.503	0.179	-0.114
-155.691	455.366	0.069	0.150
-154.677	168.017	0.245	0.343
-153.662	-80.911	-0.381	-0.124
-152.647	-154.059	-0.175	-0.012
-151.633	-99.717	0.095	0.023
-150.618	-119.304	-0.333	-0.057
-149.604	8.043	0.146	-0.108
-148.589	-64.630	-0.135	-0.054
-147.574	-200.000	0.063	0.408
-146.560	-28.140	0.153	0.087
-145.545	264.888	-0.134	-0.229
-144.531	35.286	0.269	0.232
-143.516	72.413	-0.397	0.407
-142.502	421.908	-0.142	0.300
-141.487	-31.347	0.085	0.047
-140.472	-24.350	0.147	-0.086
-139.458	43.641	-0.128	-0.115
-138.443	-149.351	-0.069	0.005
-137.429	22.719	0.164	-0.132
-136.414	-200.000	0.033	-0.388
-135.399	85.475	0.381	0.411
-134.385	-200.000	-0.043	0.244
-133.370	-161.725	0.213	0.011
-132.356	-63.452	-0.093	0.038
-131.341	102.001	-0.119	0.137
-130.326	-77.334	0.611	0.209
-129.312	800.000	-0.066	0.249
-128.297	-200.000	0.020	0.180
-127.283	800.000	0.011	0.046
-126.268	84.129	0.030	0.032
-125.253	-88.220	-0.218	0.064
-124.239	-200.000	0.025	-0.115
-123.224	-200.000	-0.025	-0.352
-122.210	-43.672	-0.202	0.100
-121.195	46.455	-0.177	0.162
-120.180	-13.559	0.166	0.106
-119.166	93.703	-0.138	-0.154
-118.151	397.077	0.043	-0.089
-117.137	-55.250	0.071	-0.031
-116.122	-130.653	-0.406	-0.054
-115.107	634.190	-0.060	-0.150
-114.093	-18.445	-0.224	-0.137
-113.078	91.913	0.177	-0.196
-112.064	-200.000	-0.030	0.154
-111.049	394.025	-0.038	0.077
-110.034	-131.119	0.060	-0.008
-109.020	-200.000	-0.021	0.164
-108.005	235.867	-0.274	0.444
-106.991	800.000	-0.062	0.245
-105.976	-110.526	-0.257	-0.052
-104.962	317.985	-0.127	-0.237
-103.947	77.087	-0.045	-0.046
-102.932	451.076	-0.135	-0.292
-101.918	72.364	0.215	-0.220
-100.903	-62.277	0.247	-0.101
-99.889	-200.000	-0.033	0.240
-98.874	800.000	0.057	-0.158
-97.859	35.952	-0.391	0.338
-96.845	-200.000	0.069	0.375
-95.830	39.994	-0.170	-0.150
-94.816	88.978	0.100	0.110
-93.801	-200.000	-0.043	-0.252
-92.786	8.362	0.152	0.112
-91.772	597.987	-0.049	-0.120
-90.757	-85.609	0.094	0.029
-89.743	50.209	-0.136	0.126
-88.728	-111.423	-0.217	-0.043
-87.713	-104.053	0.127	0.029
-86.699	404.823	-0.119	-0.247
-85.684	15.688	0.190	0.147
-84.670	-200.000	0.014	-0.102
-83.655	-116.246	-0.080	-0.015
-82.640	298.770	-0.092	0.166
-81.626	465.514	0.137	0.301
-80.611	114.586	0.096	-0.115
-79.597	418.584	0.025	-0.053
-78.582	800.000	0.051	-0.154
-77.567	-33.330	-0.091	0.049
-76.553	23.477	-0.214	0.173
-75.538	65.346	-0.153	-0.151
-74.524	-120.515	0.239	0.040
-73.509	-200.000	0.004	-0.113
-72.494	29.971	-0.244	-0.204
-71.480	241.782	-0.112	-0.184
-70.465	-200.000	0.021	-0.112
-69.451	-33.459	-0.307	-0.166
-68.436	220.007	0.056	0.088
-67.422	-44.876	0.032	0.016
-66.407	-117.744	-0.104	0.018
-65.392	800.000	0.076	-0.259
-64.378	799.783	0.095	0.256
-63.363	-136.006	0.237	-0.027
-62.349	58.576	0.120	-0.115
-61.334	31.583	-1.109	-0.935
-60.319	-14.795	0.404	0.254
-59.305	-200.000	-0.152	-1.531
-58.290	289.606	0.690	1.227
-57.276	800.000	0.577	1.654
-56.261	-200.000	109.169	582.725
-55.246	432.681	1501.104	3191.578
-54.232	143.918	2694.073	3520.413
-53.217	97.618	2299.346	2589.675
-52.203	37.560	1906.238	1657.492
-51.188	31.809	1692.128	1427.612
-50.173	29.249	1649.868	1372.866
-49.159	48.186	1704.307	1562.094
-48.144	48.139	1719.222	1575.344
-47.130	31.448	1676.429	1411.418
-46.115	28.749	1662.360	1379.281
-45.100	28.548	1657.065	1373.334
-44.086	28.591	1653.968	1371.028
-43.071	28.448	1651.743	1368.065
-42.057	28.422	1649.866	1366.261
-41.042	28.456	1647.302	1364.342
-40.027	28.582	1645.395	1363.640
-39.013	28.494	1643.560	1361.414
-37.998	28.418	1642.048	1359.540
-36.984	28.500	1640.750	1359.025
-35.969	28.663	1638.977	1358.706
-34.954	28.669	1637.645	1357.589
-33.940	28.644	1636.351	1356.278
-32.925	28.620	1634.312	1354.362
-31.911	28.629	1632.665	1353.009
-30.896	28.654	1630.893	1351.672
-29.881	28.661	1629.593	1350.587
-28.867	28.653	1627.889	1349.067
-27.852	28.575	1626.563	1347.337
-26.838	28.692	1624.579	1346.501
-25.823	28.741	1623.279	1345.731
-24.809	28.654	1622.504	1344.394
-23.794	28.646	1620.869	1342.930
-22.779	28.677	1619.597	1342.052
-21.765	28.566	1618.237	1340.055
-20.750	28.653	1616.393	1339.110
-19.736	28.715	1615.088	1338.434
-18.721	28.710	1613.753	1337.233
-17.706	28.732	1611.963	1335.856
-16.692	28.670	1610.509	1334.149
-15.677	28.751	1608.894	1333.346
-14.663	28.805	1607.222	1332.297
-13.648	28.768	1605.957	1330.928
-12.633	28.796	1604.240	1329.658
-11.619	28.621	1603.301	1327.559
-10.604	28.689	1601.242	1326.292
-9.590	28.723	1600.082	1325.525
-8.575	28.694	1599.297	1324.611
-7.560	28.665	1598.082	1323.344
-6.546	28.656	1597.082	1322.402
-5.531	28.756	1595.845	1322.046
-4.517	28.650	1594.877	1320.429
-3.502	28.620	1594.008	1319.437
-2.487	28.820	1591.581	1318.813
-1.473	28.635	1580.001	1307.846
-0.458	26.123	1561.917	1275.106
0.556	21.131	1563.887	1246.698
1.571	19.282	1588.499	1252.780
2.586	18.905	1601.606	1260.245
3.600	17.096	1547.377	1204.638
4.615	9.390	1437.453	1067.988
5.629	1.759	1373.313	971.694
6.644	0.254	1364.909	956.114
7.659	0.186	1363.469	954.594
8.673	0.099	1362.768	953.468
9.688	0.021	1360.476	951.283
10.702	-0.104	1357.758	948.510
11.717	3.464	1363.069	974.721
12.731	11.788	1375.856	1036.710
13.746	16.903	1382.692	1074.255
14.761	17.147	1381.701	1074.937
15.775	16.300	1379.217	1067.553
16.790	15.231	1376.780	1058.821
17.804	14.523	1374.738	1052.691
18.819	14.106	1373.625	1049.116
19.834	13.775	1371.771	1045.522
20.848	13.532	1370.568	1042.981
21.863	13.356	1369.756	1041.166
22.877	13.192	1368.083	1038.773
23.892	13.074	1367.272	1037.320
24.907	13.160	1366.219	1036.969
25.921	13.166	1365.328	1036.238
26.936	13.204	1364.895	1036.059
27.950	13.230	1363.638	1035.175
28.965	13.332	1362.607	1034.936
29.980	13.257	1362.214	1034.082
30.994	13.348	1361.067	1033.688
32.009	13.432	1360.192	1033.456
33.023	13.419	1358.786	1032.213
34.038	13.399	1357.385	1030.934
35.053	13.351	1356.342	1029.749
36.067	13.243	1355.592	1028.416
37.082	13.345	1354.669	1028.260
38.096	13.345	1353.565	1027.335
39.111	13.280	1353.262	1026.607
40.126	13.335	1352.201	1026.053
41.140	13.143	1351.085	1023.925
42.155	13.129	1350.840	1023.565
43.169	13.115	1350.648	1023.241
44.184	13.173	1350.179	1023.156
45.199	13.201	1349.636	1022.826
46.213	13.176	1349.072	1022.149
47.228	13.191	1348.362	1021.617
48.242	13.219	1347.048	1020.701
49.257	13.265	1345.677	1019.856
50.271	13.289	1343.875	1018.553
51.286	13.223	1342.986	1017.380
52.301	13.257	1341.258	1016.192
53.315	13.222	1340.173	1015.064
54.330	13.226	1339.332	1014.358
55.344	13.188	1338.128	1013.129
56.359	13.174	1337.351	1012.366
57.374	13.164	1336.202	1011.344
58.388	13.112	1335.450	1010.363
59.403	13.165	1334.668	1010.008
60.417	13.078	1334.209	1009.041
61.432	13.053	1333.488	1008.251
62.447	13.091	1332.513	1007.657
63.461	13.053	1331.158	1006.314
64.476	13.029	1330.297	1005.425
65.490	12.989	1329.178	1004.249
66.505	13.078	1327.609	1003.512
67.520	13.054	1326.531	1002.466
68.534	13.083	1325.004	1001.396
69.549	12.995	1324.096	1000.088
70.563	13.035	1323.211	999.576
71.578	12.989	1321.937	998.249
72.593	12.932	1321.068	997.159
73.607	12.937	1320.201	996.446
74.622	12.973	1319.410	995.978
75.636	13.016	1318.117	995.171
76.651	13.045	1317.548	994.832
77.666	12.995	1316.897	993.950
78.680	13.124	1316.192	994.106
79.695	12.970	1315.869	992.849
80.709	13.006	1315.028	992.343
81.724	13.153	1314.175	992.494
82.739	13.176	1313.105	991.734
83.753	13.264	1311.706	991.120
84.768	13.270	1311.055	990.577
85.782	13.273	1309.977	989.690
86.797	13.210	1308.927	988.432
87.812	13.253	1307.654	987.639
88.826	13.185	1306.642	986.383
89.841	13.197	1305.533	985.530
90.855	13.242	1304.435	984.881
91.870	13.269	1303.610	984.335
92.884	13.233	1302.909	983.505
93.899	13.384	1301.850	983.512
94.914	13.339	1301.137	982.622
95.928	13.361	1300.169	981.934
96.943	13.225	1299.422	980.476
97.957	13.306	1298.715	980.338
98.972	13.287	1297.695	979.365
99.987	13.374	1296.273	978.721
101.001	13.314	1295.530	977.722
102.016	13.266	1294.525	976.593
103.030	13.366	1293.343	976.205
104.045	13.376	1292.059	975.207
105.060	13.306	1290.942	973.865
106.074	13.222	1290.149	972.685
107.089	13.112	1289.057	971.132
108.103	13.106	1287.656	969.950
109.118	13.142	1286.165	968.958
110.133	13.148	1284.882	967.941
111.147	13.160	1283.298	966.727
112.162	13.256	1282.054	966.266
113.176	13.185	1280.939	964.925
114.191	13.350	1280.135	965.200
115.206	13.234	1279.012	963.592
116.220	13.204	1277.722	962.360
117.235	13.304	1276.573	961.988
118.249	13.252	1275.423	960.737
119.264	13.237	1274.641	959.975
120.279	13.251	1273.502	959.112
121.293	13.107	1272.844	957.697
122.308	13.002	1271.924	956.311
123.322	12.981	1270.686	955.178
124.337	13.104	1269.740	955.094
125.352	13.187	1268.332	954.427
126.366	12.960	1267.477	952.387
127.381	13.051	1266.591	952.166
128.395	13.148	1265.059	951.489
129.410	13.154	1264.240	950.821
130.424	13.258	1263.338	950.659
131.439	13.269	1262.089	949.698
132.454	13.201	1261.144	948.510
133.468	13.245	1260.397	948.118
134.483	13.255	1259.696	947.563
135.497	13.210	1258.438	946.275
136.512	13.255	1257.092	945.436
137.527	13.260	1255.884	944.476
138.541	13.147	1254.763	942.904
139.556	13.261	1252.947	942.102
140.570	13.274	1252.317	941.619
141.585	13.299	1250.801	940.541
142.600	13.295	1249.622	939.547
143.614	13.346	1249.057	939.330
144.629	13.364	1248.061	938.602
145.643	13.410	1246.837	937.859
146.658	13.352	1245.471	936.416
147.673	13.202	1244.178	934.515
148.687	13.340	1242.720	934.114
149.702	13.413	1241.392	933.447
150.716	13.253	1240.090	931.486
151.731	13.405	1238.940	931.395
152.746	13.264	1237.864	929.708
153.760	13.372	1236.921	929.527
154.775	13.450	1235.205	928.592
155.789	13.443	1234.560	927.985
156.804	13.434	1233.872	927.334
157.819	13.475	1232.652	926.566
158.833	13.548	1231.238	925.829
159.848	13.534	1230.656	925.230
160.862	13.538	1229.261	924.126
161.877	13.510	1228.517	923.325
162.892	13.514	1227.389	922.417
163.906	13.425	1226.658	921.292
164.921	13.558	1225.045	920.738
165.935	13.523	1224.688	920.196
166.950	13.412	1224.426	919.297
167.964	13.539	1223.024	918.870
168.979	13.540	1222.710	918.556
169.994	13.529	1221.850	917.768
171.008	13.544	1220.918	917.074
172.023	13.633	1219.743	916.600
173.037	13.673	1219.302	916.408
174.052	13.695	1218.545	915.881
175.067	13.551	1217.702	914.370
176.081	13.638	1216.362	913.766
177.096	13.578	1215.507	912.712
178.110	13.570	1214.455	911.797
179.125	13.591	1213.585	911.176
180.140	13.422	1212.384	909.268
181.154	13.637	1210.847	909.212
182.169	13.615	1209.957	908.345
183.183	13.747	1208.394	907.810
184.198	13.749	1207.416	907.006
185.213	13.767	1206.253	906.154
186.227	13.757	1205.086	905.141
187.242	13.859	1204.305	905.028
188.256	13.846	1203.688	904.415
189.271	13.756	1202.484	902.942
190.286	13.722	1201.470	901.912
191.300	13.691	1200.314	900.797
192.315	13.635	1199.904	900.108
193.329	13.671	1199.263	899.743
194.344	13.754	1198.415	899.477
195.359	13.699	1198.170	898.913
196.373	13.861	1197.178	898.970
197.388	13.820	1197.073	898.588
198.402	13.877	1196.708	898.545
199.417	13.986	1195.920	898.460
200.432	13.976	1194.648	897.373
201.446	14.083	1193.899	897.307
202.461	14.090	1192.927	896.535
203.475	14.077	1191.967	895.662
204.490	13.999	1191.188	894.581
205.504	13.928	1190.084	893.292
206.519	13.944	1188.788	892.325
207.534	14.009	1187.514	891.636
208.548	14.027	1186.323	890.764
209.563	13.970	1185.981	890.123
210.577	14.009	1184.856	889.406
211.592	14.207	1183.882	889.653
212.607	14.204	1182.934	888.849
213.621	14.119	1182.182	887.752
214.636	14.010	1181.527	886.598
215.650	14.167	1180.272	886.412
216.665	14.162	1179.624	885.821
217.680	14.231	1178.744	885.450
218.694	14.300	1177.936	885.135
219.709	14.222	1177.559	884.356
220.723	14.261	1176.342	883.571
221.738	14.307	1175.699	883.256
222.753	14.169	1175.243	882.103
223.767	14.324	1174.397	882.209
224.782	14.378	1173.665	881.868
225.796	14.296	1173.584	881.297
226.811	14.329	1172.620	880.664
227.826	14.407	1171.370	880.061
228.840	14.434	1170.723	879.642
229.855	14.312	1170.155	878.490
230.869	14.432	1169.376	878.460
231.884	14.381	1168.267	877.285
232.899	14.352	1167.548	876.512
233.913	14.455	1166.721	876.359
234.928	14.321	1166.366	875.309
235.942	14.276	1165.751	874.534
236.957	14.393	1165.026	874.524
237.972	14.436	1163.885	873.819
238.986	14.311	1163.656	872.915
240.001	14.421	1162.620	872.631
241.015	14.476	1161.998	872.380
242.030	14.405	1161.410	871.486
243.045	14.553	1160.195	871.274
244.059	14.481	1159.484	870.283
245.074	14.549	1158.259	869.644
246.088	14.575	1157.725	869.300
247.103	14.588	1156.937	868.700
248.117	14.651	1156.243	868.428
249.132	14.668	1155.752	868.074
250.147	14.675	1155.223	867.634
251.161	14.754	1154.776	867.633
252.176	14.707	1153.759	866.549
253.190	14.778	1152.904	866.198
254.205	14.860	1152.718	866.404
255.220	14.826	1152.038	865.642
256.234	14.882	1151.178	865.212
257.249	14.831	1150.701	864.512
258.263	14.906	1149.575	863.975
259.278	14.861	1149.239	863.415
260.293	14.971	1148.786	863.567
261.307	14.991	1148.496	863.374
262.322	14.966	1147.847	862.679
263.336	15.037	1146.479	861.944
264.351	15.068	1146.219	861.830
265.366	15.075	1145.733	861.423
266.380	15.094	1144.859	860.790
267.395	14.949	1144.314	859.557
268.409	14.994	1143.181	858.861
269.424	15.137	1142.251	858.818
270.439	15.061	1142.445	858.500
271.453	15.120	1141.409	857.949
272.468	14.994	1140.767	856.744
273.482	14.989	1140.025	856.088
274.497	15.066	1139.055	855.674
275.512	15.070	1138.367	855.100
276.526	15.143	1137.299	854.598
277.541	15.119	1137.008	854.180
278.555	15.221	1136.504	854.245
279.570	15.183	1135.621	853.316
280.585	15.287	1134.886	853.217
281.599	15.174	1134.302	852.123
282.614	15.185	1132.778	850.959
283.628	15.191	1131.891	850.253
284.643	15.176	1131.076	849.486
285.657	15.348	1129.642	849.204
286.672	15.293	1128.669	848.123
287.687	15.272	1128.367	847.711
288.701	15.344	1127.776	847.556
289.716	15.175	1127.522	846.437
290.730	15.381	1125.960	846.228
291.745	15.357	1125.430	845.637
292.760	15.321	1124.759	844.874
293.774	15.386	1124.419	844.873
294.789	15.438	1123.747	844.552
295.803	15.410	1123.220	843.941
296.818	15.403	1122.524	843.311
297.833	15.456	1121.934	843.057
298.847	15.439	1121.077	842.252
299.862	15.481	1120.243	841.764
300.876	15.478	1119.255	840.934
301.891	15.579	1118.515	840.806
302.906	15.508	1117.675	839.745
303.920	15.575	1117.381	839.787
304.935	15.656	1116.386	839.370
305.949	15.752	1115.828	839.352
306.964	15.722	1115.305	838.735
307.979	15.678	1114.367	837.737
308.993	15.682	1113.562	837.076
310.008	15.732	1112.993	836.825
311.022	15.723	1112.265	836.158
312.037	15.669	1111.840	835.495
313.052	15.728	1110.372	834.611
314.066	15.799	1109.133	833.957
315.081	15.711	1108.563	833.021
316.095	15.677	1108.090	832.422
317.110	15.703	1107.504	832.036
318.125	15.528	1106.853	830.608
319.139	15.560	1106.192	830.199
320.154	15.688	1105.391	830.156
321.168	15.760	1104.955	830.109
322.183	15.730	1104.201	829.321
323.197	15.825	1103.553	829.232
324.212	15.754	1103.251	828.583
325.227	15.731	1102.462	827.801
326.241	15.822	1101.865	827.728
327.256	15.757	1101.061	826.732
328.270	15.948	1099.887	826.713
329.285	15.855	1099.000	825.516
330.300	15.861	1098.099	824.797
331.314	15.789	1097.265	823.748
332.329	15.889	1096.252	823.404
333.343	15.917	1095.248	822.709
334.358	15.860	1094.708	821.953
335.373	15.815	1094.147	821.243
336.387	16.094	1093.165	821.789
337.402	15.925	1092.690	820.537
338.416	16.006	1091.640	820.074
339.431	16.028	1091.409	819.932
340.446	16.070	1090.572	819.434
341.460	16.147	1089.785	819.146
342.475	16.323	1088.836	819.216
343.489	16.169	1088.459	818.110
344.504	16.038	1087.890	816.975
345.519	16.242	1086.416	816.786
346.533	16.260	1085.789	816.328
347.548	16.307	1085.055	815.929
348.562	16.309	1084.148	815.187
349.577	16.281	1083.115	814.201
350.592	16.187	1082.427	813.160
351.606	16.198	1081.790	812.664
352.621	16.175	1081.368	812.160
353.635	16.122	1080.731	811.355
354.650	16.206	1079.971	811.117
355.665	16.206	1079.376	810.600
356.679	16.347	1078.184	810.310
357.694	16.310	1078.085	809.984
358.708	16.316	1077.347	809.390
359.723	16.376	1076.660	809.089
360.738	16.360	1076.065	808.493
361.752	16.394	1075.476	808.144
362.767	16.320	1075.040	807.387
363.781	16.345	1074.730	807.204
364.796	16.455	1074.084	807.171
365.810	16.402	1073.620	806.497
366.825	16.438	1072.813	805.994
367.840	16.553	1072.055	805.902
368.854	16.598	1071.491	805.621
369.869	16.618	1070.894	805.196
370.883	16.649	1069.757	804.413
371.898	16.543	1069.096	803.344
372.913	16.461	1068.886	802.725
373.927	16.582	1068.244	802.747
374.942	16.521	1067.994	802.199
375.956	16.644	1067.314	802.201
376.971	16.727	1066.685	802.048
377.986	16.701	1066.055	801.383
379.000	16.665	1065.596	800.796
380.015	16.763	1065.112	800.825
381.029	16.808	1064.162	800.251
382.044	16.805	1063.270	799.497
383.059	16.934	1062.387	799.368
384.073	16.866	1062.015	798.700
385.088	16.897	1060.842	797.891
386.102	16.887	1059.972	797.118
387.117	16.856	1059.531	796.573
388.132	16.731	1058.437	795.092
389.146	16.839	1057.561	794.870
390.161	16.734	1057.187	794.025
391.175	16.803	1056.159	793.508
392.190	16.824	1055.518	793.054
393.205	16.888	1054.708	792.674
394.219	16.941	1053.884	792.232
395.234	16.835	1053.136	791.104
396.248	16.908	1051.924	790.466
397.263	16.827	1051.114	789.406
398.278	16.897	1050.396	789.124
399.292	16.894	1049.623	788.461
400.307	16.723	1049.477	787.485
401.321	16.994	1048.200	787.717
402.336	16.818	1048.238	786.857
403.350	16.957	1046.771	786.333
404.365	17.049	1046.200	786.262
405.380	16.909	1045.693	785.161
406.394	17.074	1044.873	785.237
407.409	17.095	1044.033	784.637
408.423	17.076	1043.667	784.203
409.438	17.143	1042.838	783.823
410.453	17.154	1041.861	783.067
411.467	17.279	1041.257	783.118
412.482	17.144	1040.999	782.236
413.496	17.327	1040.322	782.499
414.511	17.258	1039.443	781.451
415.526	17.325	1039.211	781.516
416.540	17.375	1038.425	781.086
417.555	17.315	1038.020	780.435
418.569	17.296	1037.535	779.915
419.584	17.321	1037.144	779.666
420.599	17.393	1036.418	779.380
421.613	104.137	1322.426	1472.597
422.628	95.491	1364.060	1472.689
