DTS Sentinel unit serial number:	SN413079Multiplexer serial number:	ORYXHardware model number:	OX4-SRSoftware version number:	ORYX F/W v4.00 Oryx Data Collector v3.7.2.0data status	okinstallation	princeton_trtdifferential loss correction	single-endedforward channel	channel 2reverse channel	N/Adate	2019/09/11time	17:45:11forward acquisition time	60.00reverse acquisition time	0.00gamma	496.2192k internal	0.2284k external	0.2284temperature offset calibration	1.0021default loss term (dB/km)	0.3790temperature slope calibration	1.0000multiplexer offset coefficient	1.0000multiplexer slope coefficient	1.0000fibre end	0.00T internal ref (°C)	43.89T ext. ref 1 (°C)	1.12T ext. ref 2 (°C)	39.14length (m)	temperature (°C)	Stokes	anti-Stokes-747.200	13.069	0.223	0.178
-746.185	-11.582	-0.111	0.075
-745.171	21.807	-0.124	0.103
-744.156	116.939	-0.047	-0.059
-743.142	-200.000	0.031	0.209
-742.127	99.740	0.165	0.196
-741.112	280.089	-0.127	-0.233
-740.098	-101.699	-0.176	-0.044
-739.083	-56.209	-0.114	0.052
-738.069	-89.719	-0.174	0.052
-737.054	-200.000	0.019	-0.257
-736.039	-127.121	-0.176	-0.026
-735.025	99.756	-0.067	0.079
-734.010	430.058	-0.185	-0.411
-732.996	510.624	-0.044	0.106
-731.981	239.272	0.203	-0.346
-730.966	-17.981	-0.113	-0.073
-729.952	78.363	-0.111	-0.121
-728.937	359.803	-0.092	-0.188
-727.923	219.489	0.085	-0.139
-726.908	508.316	-0.097	-0.232
-725.894	-117.152	-0.218	-0.041
-724.879	-137.101	-0.324	-0.038
-723.864	800.000	-0.112	-0.366
-722.850	800.000	-0.068	-0.284
-721.835	-111.679	-0.365	-0.076
-720.821	162.947	-0.008	-0.011
-719.806	-114.469	-0.170	-0.034
-718.791	-185.671	0.157	-0.002
-717.777	-77.188	-0.025	0.009
-716.762	-95.748	-0.290	0.079
-715.748	-96.785	-0.155	-0.042
-714.733	373.045	-0.168	-0.350
-713.718	-200.000	0.012	-0.401
-712.704	609.143	0.067	0.171
-711.689	800.000	0.065	0.217
-710.675	-62.489	-0.215	-0.092
-709.660	-200.000	-0.004	-0.320
-708.645	-79.951	-0.346	0.119
-707.631	800.000	-0.057	-0.236
-706.616	1.988	-0.157	0.116
-705.602	-200.000	-0.202	-0.000
-704.587	-147.069	0.254	-0.022
-703.572	-79.839	-0.116	-0.040
-702.558	-116.311	-0.295	0.056
-701.543	-29.555	0.117	-0.069
-700.529	800.000	-0.114	0.413
-699.514	-98.658	-0.217	-0.057
-698.499	16.277	0.121	-0.098
-697.485	-50.151	-0.324	-0.157
-696.470	268.165	0.128	-0.229
-695.456	40.825	0.234	0.217
-694.441	41.955	0.148	0.138
-693.426	-3.887	0.025	-0.018
-692.412	57.216	0.231	0.231
-691.397	29.200	0.167	0.145
-690.383	-121.510	-0.161	-0.027
-689.368	800.000	-0.121	-0.407
-688.354	-105.884	0.141	0.033
-687.339	-3.460	-0.201	-0.143
-686.324	-200.000	-0.017	-0.202
-685.310	800.000	0.031	-0.092
-684.295	800.000	-0.079	0.319
-683.281	47.802	-0.347	0.332
-682.266	-200.000	0.053	-0.285
-681.251	48.087	0.060	0.057
-680.237	800.000	-0.027	0.077
-679.222	15.348	-0.109	0.088
-678.208	-15.002	-0.115	0.076
-677.193	-200.000	-0.012	0.262
-676.178	-200.000	-0.064	0.329
-675.164	-53.401	0.128	0.060
-674.149	-200.000	-0.004	-0.320
-673.135	630.987	-0.030	-0.077
-672.120	203.335	0.037	0.059
-671.105	28.003	-0.090	-0.078
-670.091	68.833	-0.086	0.091
-669.076	800.000	0.139	-0.412
-668.062	-122.238	-0.094	0.016
-667.047	-200.000	0.039	0.233
-666.032	-64.819	0.137	-0.057
-665.018	0.698	-0.097	-0.071
-664.003	573.708	0.080	-0.199
-662.989	169.281	-0.182	-0.266
-661.974	-152.310	0.282	-0.021
-660.959	-118.101	-0.317	0.058
-659.945	-200.000	0.085	-0.548
-658.930	-1.217	-0.185	-0.134
-657.916	-29.895	-0.177	-0.103
-656.901	564.187	0.106	0.264
-655.886	-200.000	-0.006	-0.040
-654.872	255.560	0.101	0.178
-653.857	-11.009	0.265	-0.179
-652.843	-8.659	0.127	-0.087
-651.828	-112.375	-0.171	0.035
-650.814	-61.823	0.208	-0.089
-649.799	-69.463	-0.109	-0.043
-648.784	67.505	-0.116	-0.121
-647.770	108.737	-0.029	0.036
-646.755	33.611	0.408	-0.363
-645.741	223.635	0.211	0.348
-644.726	64.928	-0.125	-0.129
-643.711	-33.325	-0.146	0.083
-642.697	140.727	0.140	0.189
-641.682	800.000	-0.056	-0.165
-640.668	-98.786	0.335	0.087
-639.653	23.606	-0.132	-0.112
-638.638	-200.000	0.000	0.140
-637.624	233.285	-0.057	-0.096
-636.609	202.922	-0.227	-0.359
-635.595	-200.000	-0.076	0.418
-634.580	-112.330	-0.243	-0.050
-633.565	298.681	-0.101	0.190
-632.551	-5.057	0.243	0.171
-631.536	-61.703	-0.130	-0.056
-630.522	800.000	-0.064	-0.282
-629.507	800.000	-0.032	-0.101
-628.492	159.771	0.135	-0.193
-627.478	20.065	0.183	-0.151
-626.463	-144.546	-0.157	0.015
-625.449	-200.000	-0.014	-0.155
-624.434	303.435	-0.054	0.103
-623.419	-95.801	-0.275	-0.075
-622.405	-96.490	-0.295	0.080
-621.390	34.054	0.141	0.125
-620.376	-200.000	-0.010	0.047
-619.361	-200.000	0.024	0.424
-618.346	36.007	-0.225	0.202
-617.332	-88.958	-0.216	0.065
-616.317	7.046	-0.085	0.065
-615.303	-192.714	0.338	-0.003
-614.288	800.000	-0.094	-0.326
-613.273	800.000	0.062	-0.181
-612.259	-53.234	0.306	-0.144
-611.244	132.141	0.142	0.187
-610.230	-188.488	-0.475	0.006
-609.215	57.096	0.235	0.234
-608.201	-200.000	-0.001	-0.090
-607.186	-138.438	-0.210	-0.024
-606.171	-200.000	0.010	0.192
-605.157	-144.349	0.022	-0.002
-604.142	800.000	-0.053	0.168
-603.128	800.000	-0.063	-0.274
-602.113	95.085	-0.124	-0.144
-601.098	-200.000	-0.012	-0.157
-600.084	-56.451	0.149	0.068
-599.069	527.546	0.116	-0.280
-598.055	150.163	0.155	-0.215
-597.040	-120.191	-0.176	0.031
-596.025	-144.558	-0.157	-0.015
-595.011	-120.558	-0.048	-0.008
-593.996	-77.640	0.229	0.081
-592.982	195.908	-0.124	0.193
-591.967	-89.373	-0.179	0.054
-590.952	-120.359	-0.332	-0.058
-589.938	757.792	-0.120	-0.332
-588.923	800.000	0.080	0.266
-587.909	653.887	-0.019	-0.051
-586.894	-77.511	-0.254	0.090
-585.879	-200.000	-0.009	0.059
-584.865	13.088	-0.142	-0.112
-583.850	211.754	-0.021	0.033
-582.836	800.000	-0.059	-0.206
-581.821	155.406	-0.060	-0.085
-580.806	-166.370	0.185	0.008
-579.792	55.047	0.073	0.072
-578.777	-15.744	0.250	0.163
-577.763	214.347	-0.077	0.125
-576.748	-200.000	-0.027	-0.217
-575.733	89.571	0.267	0.304
-574.719	-68.125	0.170	0.068
-573.704	35.050	0.199	-0.177
-572.690	-62.121	0.220	-0.094
-571.675	329.676	0.169	0.332
-570.661	50.163	-0.053	-0.051
-569.646	-200.000	-0.005	0.142
-568.631	61.107	-0.207	0.210
-567.617	-32.230	0.520	-0.296
-566.602	430.612	0.058	0.127
-565.588	96.140	0.073	-0.085
-564.573	-200.000	-0.085	-0.400
-563.558	-67.219	-0.278	-0.112
-562.544	342.168	-0.114	-0.228
-561.529	73.226	0.155	-0.165
-560.515	-52.576	0.224	0.105
-559.500	-84.902	-0.168	-0.054
-558.485	-18.523	-0.167	-0.106
-557.471	465.506	0.111	-0.253
-556.456	-142.899	-0.026	-0.003
-555.442	535.008	-0.081	0.195
-554.427	-200.000	-0.020	-0.128
-553.412	-200.000	-0.009	0.163
-552.398	-102.435	0.284	-0.069
-551.383	223.013	0.105	0.172
-550.369	489.443	-0.099	0.231
-549.354	77.937	0.070	0.076
-548.339	800.000	0.033	-0.115
-547.325	-200.000	-0.004	0.355
-546.310	-4.569	-0.079	0.056
-545.296	452.517	0.076	0.170
-544.281	800.000	-0.074	-0.292
-543.266	-177.958	-0.090	0.002
-542.252	184.763	0.100	-0.151
-541.237	124.339	0.065	-0.083
-540.223	800.000	-0.096	-0.311
-539.208	-5.096	0.118	0.082
-538.193	-64.398	0.334	0.139
-537.179	99.870	-0.336	0.396
-536.164	-0.983	-0.197	0.142
-535.150	-127.792	-0.206	0.030
-534.135	-45.526	-0.245	-0.124
-533.121	269.324	-0.054	-0.097
-532.106	-200.000	-0.010	-0.355
-531.091	-53.691	-0.215	-0.100
-530.077	-129.468	0.122	-0.017
-529.062	-95.212	0.082	-0.022
-528.048	800.000	-0.082	-0.261
-527.033	-88.760	0.169	-0.051
-526.018	226.620	0.078	0.129
-525.004	796.491	-0.079	0.221
-523.989	33.741	-0.065	-0.058
-522.975	-98.194	0.244	0.064
-521.960	-153.261	-0.099	0.007
-520.945	-200.000	0.040	0.287
-519.931	118.885	0.030	-0.038
-518.916	189.805	-0.049	0.074
-517.902	-150.144	-0.147	-0.012
-516.887	-97.012	-0.161	-0.043
-515.872	-37.358	0.170	-0.092
-514.858	277.462	0.169	-0.306
-513.843	-200.000	-0.018	0.122
-512.829	-117.078	0.245	-0.045
-511.814	-85.509	0.184	0.058
-510.799	430.971	-0.067	0.148
-509.785	-200.000	-0.026	-0.218
-508.770	669.826	0.078	-0.205
-507.756	-26.234	0.156	-0.093
-506.741	115.836	-0.205	0.255
-505.726	155.050	0.076	0.106
-504.712	330.404	-0.129	-0.253
-503.697	-17.765	0.051	0.033
-502.683	-173.709	0.186	-0.006
-501.668	194.882	0.144	0.223
-500.653	121.457	-0.034	-0.043
-499.639	594.613	-0.110	0.276
-498.624	-200.000	0.060	0.348
-497.610	-48.387	-0.387	-0.190
-496.595	525.570	0.020	0.049
-495.581	-200.000	-0.005	0.364
-494.566	-34.145	0.288	-0.161
-493.551	-200.000	-0.004	-0.167
-492.537	-129.394	-0.195	-0.028
-491.522	-200.000	-0.023	0.149
-490.508	-200.000	0.036	0.380
-489.493	-123.177	0.209	0.034
-488.478	-56.810	-0.340	0.153
-487.464	-79.032	-0.257	-0.089
-486.449	-200.000	-0.003	-0.436
-485.435	-200.000	0.009	0.107
-484.420	150.456	-0.140	-0.193
-483.405	-200.000	-0.044	-0.205
-482.391	-200.000	0.041	0.276
-481.376	-106.105	-0.081	0.018
-480.362	-200.000	-0.006	-0.194
-479.347	-124.832	0.364	-0.057
-478.332	-118.885	-0.212	0.038
-477.318	-136.849	0.310	-0.036
-476.303	-107.560	0.268	0.060
-475.289	-200.000	0.004	-0.157
-474.274	40.083	0.085	-0.078
-473.259	-200.000	-0.025	-0.169
-472.245	-15.237	-0.265	0.172
-471.230	2.480	0.156	0.115
-470.216	-40.017	0.143	0.076
-469.201	800.000	0.089	-0.278
-468.186	-26.501	-0.137	-0.081
-467.172	-200.000	0.052	-0.242
-466.157	-200.000	0.032	-0.211
-465.143	-200.000	-0.029	0.203
-464.128	-200.000	-0.014	-0.249
-463.113	-122.862	-0.275	0.045
-462.099	-48.582	-0.184	0.090
-461.084	257.292	-0.116	0.203
-460.070	267.296	-0.116	0.206
-459.055	131.788	0.089	0.116
-458.040	149.803	0.148	0.204
-457.026	145.049	-0.115	0.156
-456.011	-200.000	0.047	-0.348
-454.997	800.000	0.077	0.294
-453.982	-164.448	-0.134	0.006
-452.968	153.410	0.191	-0.266
-451.953	243.065	-0.012	-0.020
-450.938	100.129	-0.063	0.074
-449.924	-53.883	0.084	0.039
-448.909	-66.841	0.182	-0.073
-447.895	118.225	0.050	0.063
-446.880	-98.930	0.187	-0.048
-445.865	-110.920	-0.171	0.036
-444.851	-2.349	0.304	-0.216
-443.836	-72.742	-0.473	-0.177
-442.822	-151.327	-0.146	0.011
-441.807	-165.224	0.242	-0.011
-440.792	-200.000	-0.013	0.185
-439.778	800.000	0.075	-0.328
-438.763	154.750	-0.024	-0.033
-437.749	104.355	0.028	0.034
-436.734	78.283	-0.213	-0.230
-435.719	348.671	0.128	-0.256
-434.705	800.000	-0.109	0.340
-433.690	-61.962	-0.130	0.055
-432.676	12.445	0.155	0.121
-431.661	519.268	-0.130	0.310
-430.646	374.579	-0.088	0.182
-429.632	800.000	-0.088	-0.378
-428.617	474.948	0.022	-0.051
-427.603	-118.935	0.059	-0.011
-426.588	52.012	0.074	0.071
-425.573	-92.715	-0.296	-0.084
-424.559	169.488	-0.197	0.286
-423.544	-172.185	0.342	-0.011
-422.530	4.685	0.145	0.108
-421.515	43.827	-0.184	0.171
-420.500	486.867	0.088	0.203
-419.486	-157.833	0.431	0.026
-418.471	35.347	0.163	0.145
-417.457	108.173	-0.244	-0.295
-416.442	-83.544	0.141	0.046
-415.428	407.332	0.098	0.210
-414.413	-35.944	0.361	0.198
-413.398	800.000	0.054	0.188
-412.384	46.110	0.375	0.352
-411.369	-36.083	0.011	0.006
-410.355	5.275	0.183	-0.137
-409.340	-200.000	0.004	-0.121
-408.325	188.886	-0.036	0.054
-407.311	87.903	-0.023	0.026
-406.296	524.056	-0.038	-0.091
-405.282	-200.000	0.010	-0.207
-404.267	-91.926	0.066	-0.019
-403.252	-200.000	-0.013	-0.159
-402.238	318.074	-0.087	-0.167
-401.223	-25.755	-0.280	0.167
-400.209	-184.390	-0.290	-0.005
-399.194	-200.000	-0.059	-0.395
-398.179	118.380	-0.102	-0.127
-397.165	-109.598	-0.234	0.050
-396.150	154.480	0.100	0.139
-395.136	737.382	-0.072	0.196
-394.121	-48.556	-0.116	-0.056
-393.106	33.149	-0.168	-0.148
-392.092	-63.892	-0.255	0.106
-391.077	-62.297	0.289	-0.122
-390.063	-25.759	0.120	-0.072
-389.048	-137.416	0.288	-0.033
-388.033	-145.437	-0.140	-0.013
-387.019	-123.741	-0.371	0.059
-386.004	247.068	0.154	0.263
-384.990	-19.671	-0.094	-0.059
-383.975	210.791	-0.187	-0.297
-382.960	147.775	0.116	0.159
-381.946	33.078	-0.187	0.164
-380.931	105.816	0.273	0.328
-379.917	-88.208	0.130	-0.039
-378.902	779.515	0.051	0.141
-377.888	-56.120	-0.235	-0.106
-376.873	-200.000	-0.021	0.328
-375.858	-56.287	0.158	-0.071
-374.844	2.798	-0.255	-0.187
-373.829	-88.690	-0.407	0.123
-372.815	190.439	0.034	0.051
-371.800	611.181	0.132	-0.335
-370.785	-53.121	0.312	-0.145
-369.771	-44.599	-0.130	-0.066
-368.756	-182.290	0.203	0.004
-367.742	117.815	-0.201	-0.250
-366.727	108.127	0.111	-0.134
-365.712	699.822	0.076	-0.203
-364.698	800.000	0.134	-0.407
-363.683	657.220	0.100	-0.261
-362.669	-200.000	-0.079	-0.362
-361.654	417.457	-0.171	0.370
-360.639	-33.337	0.018	0.010
-359.625	47.237	0.176	0.166
-358.610	800.000	-0.003	-0.008
-357.596	202.846	0.223	0.348
-356.581	-71.680	-0.301	0.114
-355.566	404.412	0.062	0.132
-354.552	-114.660	0.319	-0.062
-353.537	85.199	0.166	0.185
-352.523	800.000	0.048	0.156
-351.508	21.971	0.234	-0.193
-350.493	-200.000	0.002	-0.071
-349.479	28.072	-0.134	-0.114
-348.464	-200.000	0.016	0.169
-347.450	-64.191	0.283	-0.117
-346.435	148.033	-0.102	0.139
-345.420	-200.000	-0.028	0.209
-344.406	-145.196	-0.062	-0.006
-343.391	101.924	-0.143	0.169
-342.377	135.394	-0.131	-0.173
-341.362	-200.000	0.019	-0.207
-340.348	-52.308	-0.250	-0.117
-339.333	-64.910	0.156	-0.064
-338.318	110.624	0.042	-0.051
-337.304	-18.316	0.139	-0.088
-336.289	-104.757	0.384	0.089
-335.275	50.467	0.198	-0.189
-334.260	3.426	-0.150	-0.111
-333.245	-63.185	-0.180	-0.075
-332.231	33.794	0.141	-0.124
-331.216	-103.294	0.174	0.041
-330.202	40.340	-0.128	0.117
-329.187	-81.007	0.312	0.104
-328.172	800.000	-0.130	-0.412
-327.158	-89.137	-0.166	-0.049
-326.143	-200.000	-0.004	-0.352
-325.129	-200.000	0.095	-0.512
-324.114	604.434	0.127	0.320
-323.099	0.156	0.101	0.073
-322.085	800.000	-0.087	0.281
-321.070	-169.101	0.208	0.008
-320.056	-61.532	0.180	-0.076
-319.041	99.281	-0.184	-0.215
-318.026	-6.766	0.039	0.027
-317.012	48.556	0.074	0.070
-315.997	-140.173	-0.316	-0.034
-314.983	-200.000	0.017	0.081
-313.968	288.548	-0.091	0.166
-312.953	182.844	0.116	0.174
-311.939	-62.551	-0.212	0.089
-310.924	-200.000	-0.016	-0.102
-309.910	-200.000	-0.055	-0.315
-308.895	-47.870	-0.210	0.103
-307.880	-139.848	0.104	-0.011
-306.866	-86.022	0.196	0.061
-305.851	-200.000	-0.021	-0.171
-304.837	-200.000	-0.047	-0.551
-303.822	76.265	-0.261	0.279
-302.807	-176.209	-0.048	0.001
-301.793	800.000	-0.113	0.463
-300.778	-200.000	-0.018	0.141
-299.764	35.347	0.106	0.094
-298.749	-139.271	-0.208	-0.023
-297.735	762.079	0.012	0.033
-296.720	-200.000	-0.018	-0.082
-295.705	-35.173	0.087	0.048
-294.691	26.426	0.095	-0.080
-293.676	211.848	0.070	0.111
-292.662	-159.757	-0.236	-0.013
-291.647	-105.260	-0.173	-0.040
-290.632	-28.243	0.158	0.092
-289.618	702.277	-0.062	0.166
-288.603	800.000	-0.055	0.230
-287.589	369.853	0.084	-0.172
-286.574	-200.000	0.026	0.125
-285.559	11.616	0.130	0.101
-284.545	-159.461	-0.252	-0.014
-283.530	-96.050	-0.280	0.075
-282.516	-116.047	-0.361	-0.068
-281.501	-200.000	0.001	0.064
-280.486	-51.963	-0.444	0.208
-279.472	88.809	0.263	0.295
-278.457	83.395	-0.049	-0.054
-277.443	-7.195	0.232	0.158
-276.428	-64.910	0.016	-0.006
-275.413	-148.404	0.161	0.013
-274.399	174.607	0.108	0.157
-273.384	800.000	-0.098	-0.328
-272.370	-200.000	0.051	0.333
-271.355	200.420	0.026	0.041
-270.340	126.362	0.030	-0.038
-269.326	-200.000	0.010	-0.219
-268.311	-17.488	-0.060	0.038
-267.297	225.320	0.048	0.078
-266.282	-178.215	0.052	-0.001
-265.267	-24.411	-0.185	-0.111
-264.253	800.000	-0.110	-0.352
-263.238	-113.564	-0.087	-0.017
-262.224	-66.329	-0.152	0.061
-261.209	141.839	0.050	-0.066
-260.195	0.374	-0.112	-0.080
-259.180	-149.248	-0.105	0.008
-258.165	22.858	-0.260	0.215
-257.151	611.139	-0.021	0.052
-256.136	-47.110	-0.276	0.135
-255.122	520.050	-0.070	-0.166
-254.107	-11.790	-0.102	-0.067
-253.092	-134.671	0.107	-0.013
-252.078	599.376	0.077	-0.193
-251.063	562.171	-0.085	-0.207
-250.049	-77.230	0.172	0.060
-249.034	-151.626	0.331	-0.025
-248.019	800.000	0.052	-0.215
-247.005	176.033	0.099	0.145
-245.990	199.446	0.093	-0.143
-244.976	-130.816	-0.088	-0.012
-243.961	-2.101	0.067	0.047
-242.946	800.000	0.026	-0.081
-241.932	-67.121	-0.091	-0.036
-240.917	191.497	-0.070	0.107
-239.903	23.139	0.094	0.078
-238.888	-200.000	0.090	0.000
-237.873	76.964	0.073	0.078
-236.859	-0.310	0.186	0.133
-235.844	-13.808	0.097	-0.063
-234.830	-11.671	-0.102	0.068
-233.815	62.050	-0.106	-0.107
-232.800	-200.000	0.065	0.353
-231.786	-83.119	0.246	0.080
-230.771	71.654	-0.118	0.123
-229.757	800.000	0.051	0.153
-228.742	-36.496	0.452	0.245
-227.727	-124.468	0.249	0.039
-226.713	329.792	-0.189	0.366
-225.698	-200.000	0.001	-0.266
-224.684	-33.053	0.185	-0.103
-223.669	21.283	-0.163	-0.134
-222.655	-2.948	-0.131	-0.092
-221.640	125.908	-0.064	-0.082
-220.625	20.830	-0.330	0.269
-219.611	800.000	0.054	0.220
-218.596	-181.761	-0.275	0.005
-217.582	138.803	0.124	0.163
-216.567	23.046	0.075	0.062
-215.552	-200.000	-0.018	0.362
-214.538	-163.102	0.269	-0.013
-213.523	-200.000	0.013	0.348
-212.509	-5.343	-0.300	0.207
-211.494	252.885	-0.075	-0.129
-210.479	72.592	0.194	-0.203
-209.465	48.705	0.117	-0.111
-208.450	277.781	0.055	0.098
-207.436	-81.506	-0.135	0.045
-206.421	185.775	-0.103	-0.155
-205.406	-200.000	-0.061	-0.656
-204.392	185.365	0.245	-0.367
-203.377	-200.000	-0.029	0.294
-202.363	-176.328	-0.074	-0.002
-201.348	90.658	-0.060	0.067
-200.333	11.157	-0.096	-0.074
-199.319	-127.573	-0.350	-0.051
-198.304	379.613	-0.135	-0.279
-197.290	-55.194	0.321	-0.145
-196.275	-134.602	-0.251	0.031
-195.260	-65.482	0.452	0.182
-194.246	26.751	0.098	0.082
-193.231	280.081	0.176	0.316
-192.217	372.755	-0.070	0.144
-191.202	12.959	-0.336	-0.262
-190.187	-162.872	0.230	0.011
-189.173	-165.704	-0.173	0.008
-188.158	-28.725	0.059	-0.034
-187.144	127.948	0.103	-0.132
-186.129	-55.465	0.277	-0.125
-185.114	-81.570	-0.352	0.116
-184.100	-24.796	0.161	0.096
-183.085	-200.000	0.030	0.160
-182.071	-190.211	0.492	0.005
-181.056	159.027	0.090	0.126
-180.042	125.976	-0.043	0.055
-179.027	-83.930	0.212	0.068
-178.012	200.380	-0.159	-0.245
-176.998	-11.663	-0.010	0.007
-175.983	-30.464	-0.169	0.096
-174.969	-5.262	-0.102	-0.070
-173.954	432.607	0.157	-0.343
-172.939	-42.054	-0.090	-0.046
-171.925	-53.477	0.205	-0.094
-170.910	-7.385	0.089	-0.061
-169.896	-151.823	-0.246	-0.018
-168.881	-112.669	-0.266	-0.053
-167.866	-200.000	-0.086	0.404
-166.852	-47.142	-0.283	0.139
-165.837	549.049	0.057	-0.138
-164.823	102.091	0.070	-0.083
-163.808	800.000	0.129	0.431
-162.793	191.457	0.035	-0.053
-161.779	-70.711	0.163	0.062
-160.764	353.231	0.138	-0.275
-159.750	-182.364	-0.270	0.005
-158.735	292.417	0.118	0.216
-157.720	-20.640	-0.196	-0.121
-156.706	397.238	0.030	0.063
-155.691	163.368	0.113	-0.160
-154.677	-55.852	0.091	-0.041
-153.662	-64.235	0.274	0.112
-152.647	-62.735	-0.143	-0.059
-151.633	-200.000	-0.024	-0.162
-150.618	-26.824	0.177	-0.104
-149.604	108.475	0.092	0.110
-148.589	308.463	-0.080	0.150
-147.574	12.521	0.169	0.130
-146.560	154.770	-0.094	0.130
-145.545	-127.587	-0.148	-0.022
-144.531	-29.308	0.234	0.134
-143.516	-200.000	-0.014	-0.122
-142.502	-200.000	-0.026	0.215
-141.487	-81.274	0.241	0.080
-140.472	800.000	0.092	0.266
-139.458	28.282	0.106	-0.090
-138.443	161.212	-0.113	-0.159
-137.429	99.649	0.134	0.156
-136.414	637.681	-0.028	-0.072
-135.399	203.465	0.024	0.037
-134.385	-107.907	-0.148	0.032
-133.370	-200.000	-0.032	-0.151
-132.356	-54.834	0.167	-0.076
-131.341	-59.728	-0.204	0.088
-130.326	-94.163	-0.111	0.030
-129.312	-136.705	0.168	0.019
-128.297	-54.822	0.026	-0.012
-127.283	800.000	-0.066	-0.241
-126.268	2.256	0.174	-0.126
-125.253	125.501	-0.011	-0.013
-124.239	56.099	-0.079	-0.077
-123.224	-200.000	0.034	0.262
-122.210	-8.013	0.216	-0.146
-121.195	243.735	0.154	-0.259
-120.180	7.771	0.064	-0.048
-119.166	688.836	0.104	-0.274
-118.151	-122.037	-0.047	0.008
-117.137	-200.000	0.012	0.182
-116.122	794.342	0.043	0.120
-115.107	800.000	0.022	0.084
-114.093	-65.282	0.223	-0.090
-113.078	-113.614	-0.329	0.064
-112.064	-200.000	0.011	0.435
-111.049	-200.000	0.016	0.157
-110.034	-49.242	-0.310	0.148
-109.020	24.551	-0.284	-0.235
-108.005	-76.250	0.089	-0.031
-106.991	-40.517	-0.319	0.166
-105.976	-200.000	0.004	0.053
-104.962	-158.410	-0.031	-0.002
-103.947	-200.000	-0.013	0.339
-102.932	256.487	0.163	-0.280
-101.918	-41.213	0.266	0.138
-100.903	-117.610	-0.305	-0.055
-99.889	-80.963	0.042	-0.014
-98.874	-79.644	-0.059	0.020
-97.859	-200.000	-0.006	-0.177
-96.845	169.700	-0.093	-0.133
-95.830	319.006	-0.230	-0.436
-94.816	-89.867	-0.323	-0.095
-93.801	-28.503	0.268	-0.155
-92.786	-85.744	-0.248	-0.077
-91.772	-200.000	-0.024	0.164
-90.757	76.246	-0.169	0.179
-89.743	136.733	-0.039	0.051
-88.728	668.760	0.089	0.230
-87.713	-49.201	0.234	0.112
-86.699	-117.853	0.381	-0.069
-85.684	-129.951	-0.066	-0.009
-84.670	-46.152	0.279	0.138
-83.655	-91.560	0.054	-0.015
-82.640	371.235	0.101	-0.205
-81.626	149.124	-0.105	0.143
-80.611	288.218	0.241	0.437
-79.597	-100.692	0.347	-0.086
-78.582	-74.473	-0.186	-0.067
-77.567	114.662	-0.118	-0.144
-76.553	-110.429	0.188	-0.039
-75.538	472.445	0.106	-0.238
-74.524	30.592	0.182	-0.155
-73.509	-26.592	-0.088	0.051
-72.494	741.644	0.083	0.224
-71.480	297.213	-0.168	-0.308
-70.465	-35.686	0.277	-0.150
-69.451	252.238	-0.174	0.297
-68.436	800.000	0.035	-0.102
-67.422	-16.339	0.276	0.175
-66.407	99.138	0.386	0.447
-65.392	10.606	0.146	-0.111
-64.378	-77.567	0.338	-0.117
-63.363	800.000	0.083	0.260
-62.349	-47.654	0.202	0.098
-61.334	385.628	-0.439	-0.906
-60.319	539.657	0.196	0.466
-59.305	800.000	-0.214	-0.634
-58.290	-200.000	0.123	0.724
-57.276	800.000	0.550	1.676
-56.261	-200.000	70.754	515.312
-55.246	597.609	1266.374	3137.811
-54.232	146.257	2492.915	3345.127
-53.217	114.084	2342.476	2848.869
-52.203	53.663	1961.271	1882.036
-51.188	47.521	1748.470	1629.670
-50.173	44.392	1701.504	1561.838
-49.159	57.831	1731.635	1693.553
-48.144	64.583	1750.413	1763.936
-47.130	47.341	1715.154	1596.977
-46.115	43.962	1701.872	1558.621
-45.100	43.764	1697.295	1552.849
-44.086	43.709	1694.811	1550.096
-43.071	43.668	1692.044	1547.185
-42.057	43.654	1689.707	1544.884
-41.042	43.710	1687.718	1543.433
-40.027	43.729	1685.776	1541.737
-39.013	43.775	1683.318	1539.779
-37.998	43.697	1682.083	1537.994
-36.984	43.741	1680.381	1536.714
-35.969	43.853	1678.833	1536.082
-34.954	43.963	1677.057	1535.233
-33.940	43.966	1675.200	1533.495
-32.925	43.892	1673.745	1531.542
-31.911	43.852	1672.210	1529.773
-30.896	43.901	1669.810	1527.886
-29.881	43.827	1668.516	1526.088
-28.867	43.835	1666.827	1524.543
-27.852	43.870	1665.115	1523.179
-26.838	43.840	1663.706	1521.602
-25.823	43.911	1662.577	1521.044
-24.809	43.918	1660.941	1519.540
-23.794	43.913	1658.855	1517.530
-22.779	43.967	1658.039	1517.127
-21.765	43.891	1656.226	1514.838
-20.750	43.949	1653.989	1513.164
-19.736	44.060	1652.134	1512.242
-18.721	44.012	1650.943	1510.730
-17.706	43.899	1650.124	1509.077
-16.692	43.861	1648.225	1507.002
-15.677	43.888	1646.695	1505.746
-14.663	43.936	1645.332	1504.791
-13.648	43.930	1644.124	1503.583
-12.633	43.814	1642.656	1501.324
-11.619	44.011	1640.844	1501.068
-10.604	43.935	1639.554	1499.264
-9.590	43.915	1638.141	1497.762
-8.575	43.981	1636.537	1496.725
-7.560	43.937	1635.952	1495.808
-6.546	43.911	1634.438	1494.173
-5.531	43.897	1632.988	1492.684
-4.517	43.871	1632.172	1491.684
-3.502	43.898	1630.896	1490.656
-2.487	44.033	1629.239	1490.077
-1.473	43.972	1618.327	1479.593
-0.458	41.550	1597.957	1443.427
0.556	36.540	1595.627	1404.225
1.571	33.554	1618.455	1402.143
2.586	32.691	1632.489	1407.736
3.600	28.564	1579.224	1331.797
4.615	15.670	1457.806	1142.270
5.629	3.712	1380.758	1004.432
6.644	1.259	1370.211	980.830
7.659	1.195	1368.058	978.789
8.673	1.079	1367.233	977.365
9.688	0.966	1365.734	975.478
10.702	0.755	1362.857	971.980
11.717	4.681	1371.124	1003.146
12.731	15.986	1392.743	1092.561
13.746	23.970	1405.974	1154.897
14.761	24.918	1405.693	1160.715
15.775	24.982	1405.744	1161.070
16.790	24.950	1405.442	1160.508
17.804	25.085	1404.512	1160.513
18.819	25.219	1404.168	1160.990
19.834	25.331	1403.474	1161.039
20.848	25.352	1402.915	1160.608
21.863	25.350	1401.964	1159.708
22.877	25.251	1401.268	1158.391
23.892	25.188	1400.625	1157.349
24.907	25.338	1399.094	1156.949
25.921	25.330	1398.345	1156.176
26.936	25.287	1397.583	1155.163
27.950	25.275	1396.547	1154.129
28.965	25.349	1394.832	1153.087
29.980	25.333	1393.468	1151.756
30.994	25.346	1391.969	1150.496
32.009	25.330	1391.198	1149.652
33.023	25.201	1390.467	1148.120
34.038	25.220	1389.598	1147.426
35.053	25.155	1388.395	1145.915
36.067	25.284	1387.072	1145.547
37.082	25.226	1386.297	1144.436
38.096	25.358	1384.824	1143.958
39.111	25.275	1384.572	1143.119
40.126	25.299	1384.296	1142.946
41.140	25.242	1383.891	1142.147
42.155	25.211	1383.221	1141.290
43.169	25.242	1383.107	1141.298
44.184	25.325	1382.192	1140.969
45.199	25.182	1382.472	1140.188
46.213	25.220	1381.809	1139.784
47.228	25.240	1381.065	1139.195
48.242	25.351	1379.433	1138.451
49.257	25.242	1378.112	1136.568
50.271	25.254	1376.750	1135.419
51.286	25.283	1375.034	1134.088
52.301	25.241	1374.050	1132.910
53.315	25.275	1372.908	1132.087
54.330	25.329	1372.368	1131.879
55.344	25.243	1371.196	1130.272
56.359	25.277	1370.198	1129.564
57.374	25.208	1369.596	1128.535
58.388	25.212	1368.933	1127.910
59.403	25.250	1368.468	1127.671
60.417	25.264	1367.360	1126.740
61.432	25.257	1366.937	1126.249
62.447	25.418	1365.808	1126.231
63.461	25.284	1365.166	1124.759
64.476	25.328	1363.926	1123.913
65.490	25.316	1362.668	1122.706
66.505	25.398	1360.703	1121.501
67.520	25.290	1359.751	1119.939
68.534	25.302	1358.963	1119.270
69.549	25.265	1358.302	1118.394
70.563	25.310	1356.997	1117.500
71.578	25.296	1356.114	1116.587
72.593	25.310	1355.314	1115.917
73.607	25.358	1354.171	1115.176
74.622	25.268	1354.131	1114.481
75.636	25.246	1353.343	1113.600
76.651	25.264	1352.633	1113.032
77.666	25.250	1352.426	1112.676
78.680	25.296	1351.364	1111.988
79.695	25.291	1350.627	1111.251
80.709	25.249	1349.810	1110.217
81.724	25.282	1348.678	1109.394
82.739	25.245	1347.834	1108.376
83.753	25.213	1346.876	1107.290
84.768	25.313	1345.662	1106.810
85.782	25.301	1345.089	1106.171
86.797	25.249	1343.627	1104.546
87.812	25.314	1342.627	1104.027
88.826	25.242	1341.811	1102.819
89.841	25.344	1340.414	1102.199
90.855	25.341	1339.063	1100.970
91.870	25.301	1338.390	1100.077
92.884	25.388	1337.383	1099.684
93.899	25.328	1336.960	1098.869
94.914	25.292	1336.495	1098.170
95.928	25.328	1335.525	1097.498
96.943	25.352	1334.371	1096.596
97.957	25.373	1333.886	1096.227
98.972	25.421	1333.121	1095.798
99.987	25.345	1331.902	1094.235
101.001	25.321	1331.093	1093.327
102.016	25.260	1330.491	1092.363
103.030	25.315	1329.197	1091.541
104.045	25.322	1328.663	1091.047
105.060	25.390	1327.555	1090.451
106.074	25.281	1326.845	1089.110
107.089	25.338	1325.447	1088.217
108.103	25.309	1324.699	1087.329
109.118	25.434	1323.414	1086.935
110.133	25.398	1322.659	1086.002
111.147	25.368	1321.229	1084.546
112.162	25.373	1320.491	1083.878
113.176	25.274	1319.254	1082.169
114.191	25.273	1318.884	1081.763
115.206	25.383	1317.452	1081.156
116.220	25.475	1315.994	1080.415
117.235	25.381	1315.447	1079.309
118.249	25.372	1314.336	1078.243
119.264	25.419	1313.204	1077.501
120.279	25.437	1312.497	1076.935
121.293	25.430	1311.732	1076.169
122.308	25.410	1311.139	1075.468
123.322	25.534	1310.181	1075.332
124.337	25.452	1309.528	1074.206
125.352	25.447	1308.458	1073.207
126.366	25.517	1307.788	1072.982
127.381	25.547	1306.669	1072.145
128.395	25.526	1305.895	1071.289
129.410	25.518	1304.976	1070.396
130.424	25.556	1304.227	1069.908
131.439	25.582	1303.377	1069.273
132.454	25.462	1302.942	1068.112
133.468	25.492	1302.255	1067.628
134.483	25.579	1301.731	1067.620
135.497	25.496	1300.830	1066.298
136.512	25.476	1299.850	1065.282
137.527	25.569	1298.817	1064.892
138.541	25.501	1297.497	1063.313
139.556	25.475	1296.135	1061.949
140.570	25.622	1294.883	1061.695
141.585	25.564	1294.269	1060.755
142.600	25.478	1293.136	1059.229
143.614	25.526	1292.404	1058.817
144.629	25.422	1291.348	1057.243
145.643	25.412	1290.423	1056.335
146.658	25.460	1289.223	1055.541
147.673	25.425	1288.342	1054.524
148.687	25.388	1287.108	1053.201
149.702	25.384	1286.142	1052.297
150.716	25.453	1284.501	1051.265
151.731	25.460	1283.585	1050.461
152.746	25.375	1283.024	1049.413
153.760	25.465	1281.502	1048.597
154.775	25.405	1280.874	1047.644
155.789	25.472	1279.764	1047.034
156.804	25.516	1278.628	1046.269
157.819	25.426	1277.648	1044.850
158.833	25.424	1277.483	1044.608
159.848	25.526	1276.548	1044.347
160.862	25.384	1276.110	1043.070
161.877	25.525	1274.885	1042.794
162.892	25.541	1274.187	1042.226
163.906	25.491	1273.350	1041.160
164.921	25.487	1272.873	1040.652
165.935	25.483	1272.065	1039.874
166.950	25.540	1271.215	1039.418
167.964	25.526	1270.696	1038.824
168.979	25.470	1270.571	1038.305
169.994	25.601	1269.706	1038.262
171.008	25.560	1268.479	1036.928
172.023	25.560	1268.017	1036.463
173.037	25.639	1267.346	1036.277
174.052	25.539	1266.500	1034.917
175.067	25.514	1265.748	1034.065
176.081	25.531	1264.777	1033.280
177.096	25.569	1263.862	1032.657
178.110	25.487	1263.300	1031.638
179.125	25.553	1262.041	1030.896
180.140	25.597	1261.187	1030.360
181.154	25.620	1259.865	1029.318
182.169	25.577	1258.637	1027.978
183.183	25.552	1257.835	1027.092
184.198	25.576	1256.930	1026.399
185.213	25.597	1255.828	1025.530
186.227	25.677	1254.565	1024.859
187.242	25.590	1254.104	1023.898
188.256	25.630	1253.529	1023.565
189.271	25.634	1252.738	1022.850
190.286	25.643	1251.852	1022.087
191.300	25.644	1250.890	1021.219
192.315	25.688	1250.791	1021.298
193.329	25.609	1250.335	1020.386
194.344	25.667	1250.044	1020.391
195.359	25.597	1249.761	1019.668
196.373	25.668	1248.869	1019.252
197.388	25.641	1248.782	1018.940
198.402	25.627	1248.454	1018.501
199.417	25.543	1247.835	1017.430
200.432	25.689	1246.871	1017.384
201.446	25.612	1246.263	1016.359
202.461	25.638	1245.945	1016.158
203.475	25.712	1244.917	1015.645
204.490	25.533	1244.098	1013.881
205.504	25.604	1242.737	1013.081
206.519	25.754	1241.786	1013.057
207.534	25.691	1240.610	1011.657
208.548	25.744	1240.081	1011.432
209.563	25.658	1239.410	1010.313
210.577	25.734	1238.188	1009.655
211.592	25.598	1237.819	1008.500
212.607	25.701	1236.875	1008.221
213.621	25.678	1236.255	1007.497
214.636	25.795	1235.353	1007.326
215.650	25.801	1234.138	1006.281
216.665	25.815	1233.344	1005.625
217.680	25.743	1232.527	1004.468
218.694	25.763	1231.727	1003.838
219.709	25.715	1231.557	1003.344
220.723	25.795	1230.591	1002.914
221.738	25.642	1230.235	1001.682
222.753	25.656	1228.941	1000.616
223.767	25.868	1228.322	1001.204
224.782	25.803	1227.817	1000.341
225.796	25.784	1227.430	999.832
226.811	25.816	1226.915	999.502
227.826	25.857	1226.437	999.251
228.840	25.876	1225.628	998.606
229.855	25.881	1225.037	998.064
230.869	25.864	1224.661	997.580
231.884	25.890	1223.479	996.672
232.899	25.876	1222.636	995.818
233.913	25.860	1222.501	995.529
234.928	25.973	1221.849	995.537
235.942	25.996	1221.233	995.072
236.957	25.911	1220.269	993.732
237.972	25.924	1219.511	993.095
238.986	25.943	1219.100	992.782
240.001	25.956	1218.438	992.223
241.015	25.961	1217.721	991.578
242.030	26.057	1216.833	991.296
243.045	26.086	1215.799	990.524
244.059	26.087	1215.094	989.871
245.074	26.039	1214.375	988.935
246.088	26.068	1213.809	988.544
247.103	26.014	1212.911	987.431
248.117	26.048	1212.272	987.009
249.132	25.965	1211.380	985.738
250.147	26.089	1210.912	985.951
251.161	26.043	1210.316	985.124
252.176	26.064	1209.405	984.412
253.190	26.190	1208.584	984.344
254.205	26.188	1207.991	983.762
255.220	26.163	1207.229	982.918
256.234	26.164	1207.081	982.716
257.249	26.065	1206.556	981.664
258.263	26.202	1206.048	981.908
259.278	26.165	1205.290	981.005
260.293	26.130	1204.764	980.297
261.307	26.173	1204.287	980.058
262.322	25.997	1203.985	978.767
263.336	26.176	1202.777	978.672
264.351	26.139	1202.439	978.107
265.366	26.252	1201.343	977.744
266.380	26.190	1201.126	977.143
267.395	26.164	1200.593	976.482
268.409	26.231	1199.527	975.889
269.424	26.185	1199.111	975.221
270.439	26.092	1198.879	974.442
271.453	26.204	1198.035	974.274
272.468	26.085	1197.482	973.097
273.482	26.088	1196.541	972.263
274.497	26.296	1196.000	972.855
275.512	26.176	1195.764	971.930
276.526	26.250	1194.766	971.430
277.541	26.308	1193.975	971.015
278.555	26.290	1193.408	970.374
279.570	26.188	1193.009	969.411
280.585	26.259	1191.961	968.856
281.599	26.260	1190.840	967.864
282.614	26.206	1190.593	967.289
283.628	26.341	1189.226	966.816
284.643	26.341	1188.499	966.138
285.657	26.327	1187.345	965.039
286.672	26.265	1186.652	964.061
287.687	26.382	1185.915	964.002
288.701	26.341	1185.607	963.445
289.716	26.348	1184.506	962.501
290.730	26.295	1184.315	961.984
291.745	26.356	1183.502	961.558
292.760	26.414	1182.621	961.067
293.774	26.430	1182.080	960.631
294.789	26.393	1181.961	960.252
295.803	26.495	1181.102	960.010
296.818	26.430	1180.318	958.943
297.833	26.467	1179.583	958.456
298.847	26.608	1178.613	958.327
299.862	26.464	1178.040	957.017
300.876	26.378	1177.958	956.412
301.891	26.533	1177.108	956.455
302.906	26.596	1176.158	955.928
303.920	26.629	1175.466	955.459
304.935	26.592	1174.698	954.554
305.949	26.612	1173.975	953.986
306.964	26.528	1173.785	953.306
307.979	26.561	1173.228	952.945
308.993	26.502	1172.908	952.288
310.008	26.776	1171.101	952.177
311.022	26.612	1170.755	950.949
312.037	26.568	1170.414	950.359
313.052	26.558	1169.695	949.636
314.066	26.609	1168.299	948.688
315.081	26.692	1167.831	948.657
316.095	26.530	1167.737	947.650
317.110	26.657	1166.551	947.266
318.125	26.691	1166.142	947.030
319.139	26.632	1165.685	946.267
320.154	26.675	1164.680	945.593
321.168	26.599	1164.089	944.628
322.183	26.693	1163.200	944.317
323.197	26.684	1162.883	943.927
324.212	26.656	1162.350	943.265
325.227	26.676	1161.887	942.909
326.241	26.711	1161.635	942.802
327.256	26.800	1160.840	942.541
328.270	26.777	1159.807	941.495
329.285	26.861	1158.822	941.049
330.300	26.729	1158.369	939.916
331.314	26.750	1157.308	939.081
332.329	26.811	1156.546	938.691
333.343	26.819	1155.882	938.114
334.358	26.816	1154.815	937.151
335.373	26.801	1154.347	936.607
336.387	26.907	1153.588	936.458
337.402	26.905	1153.331	936.154
338.416	26.938	1152.466	935.539
339.431	26.988	1151.660	935.061
340.446	26.857	1151.168	933.905
341.460	26.872	1150.842	933.635
342.475	26.971	1149.721	933.150
343.489	26.995	1149.238	932.802
344.504	27.042	1147.761	931.760
345.519	27.015	1146.625	930.618
346.533	26.861	1146.879	929.952
347.548	26.955	1145.611	929.321
348.562	27.077	1144.657	929.092
349.577	26.972	1144.290	928.173
350.592	27.019	1143.063	927.334
351.606	26.887	1143.051	926.567
352.621	27.100	1142.017	926.735
353.635	26.966	1142.006	925.963
354.650	27.001	1141.177	925.386
355.665	27.035	1140.538	924.960
356.679	27.178	1139.618	924.861
357.694	27.141	1139.077	924.150
358.708	27.107	1138.125	923.124
359.723	27.063	1137.757	922.518
360.738	27.046	1137.226	921.922
361.752	26.945	1137.028	921.167
362.767	27.074	1136.197	921.064
363.781	27.164	1135.570	920.929
364.796	27.261	1134.873	920.776
365.810	27.169	1134.467	919.900
366.825	27.228	1133.822	919.596
367.840	27.196	1133.315	918.941
368.854	27.218	1132.868	918.607
369.869	27.318	1131.944	918.279
370.883	27.259	1131.486	917.532
371.898	27.317	1130.494	916.936
372.913	27.299	1129.942	916.319
373.927	27.209	1129.848	915.706
374.942	27.327	1129.210	915.702
375.956	27.287	1128.633	914.950
376.971	27.454	1127.637	914.901
377.986	27.398	1127.401	914.348
379.000	27.346	1127.282	913.911
380.015	27.457	1126.068	913.401
381.029	27.476	1125.460	912.926
382.044	27.412	1124.815	912.000
383.059	27.393	1124.291	911.397
384.073	27.521	1123.600	911.401
385.088	27.386	1122.713	909.920
386.102	27.394	1121.884	909.211
387.117	27.419	1121.019	908.555
388.132	27.387	1120.199	907.652
389.146	27.401	1119.965	907.452
390.161	27.468	1118.977	906.903
391.175	27.474	1118.400	906.385
392.190	27.456	1117.638	905.599
393.205	27.448	1117.077	905.021
394.219	27.502	1116.166	904.474
395.234	27.581	1115.091	903.915
396.248	27.490	1114.630	903.010
397.263	27.479	1114.019	902.379
398.278	27.606	1113.144	902.218
399.292	27.779	1112.413	902.401
400.307	27.652	1112.046	901.394
401.321	27.578	1111.475	900.490
402.336	27.646	1110.697	900.113
403.350	27.767	1109.939	900.017
404.365	27.624	1109.593	898.952
405.380	27.640	1108.897	898.387
406.394	27.616	1107.925	897.401
407.409	27.671	1106.986	896.831
408.423	27.771	1106.684	896.999
409.438	27.821	1105.619	896.302
410.453	27.847	1105.224	896.030
411.467	27.836	1104.399	895.231
412.482	27.757	1104.082	894.505
413.496	27.772	1103.012	893.633
414.511	27.745	1102.562	893.056
415.526	27.826	1102.387	893.233
416.540	27.810	1101.843	892.635
417.555	27.920	1101.022	892.430
418.569	27.895	1100.552	891.847
419.584	27.892	1100.099	891.383
420.599	27.876	1099.969	891.123
421.613	75.729	1277.143	1297.038
422.628	70.929	1302.969	1297.155
