DTS Sentinel unit serial number:	SN413079Multiplexer serial number:	ORYXHardware model number:	OX4-SRSoftware version number:	ORYX F/W v4.00 Oryx Data Collector v3.7.2.0data status	okinstallation	princeton_trtdifferential loss correction	single-endedforward channel	channel 2reverse channel	N/Adate	2019/09/18time	19:51:35forward acquisition time	60.00reverse acquisition time	0.00gamma	496.2192k internal	0.2331k external	0.2331temperature offset calibration	1.0034default loss term (dB/km)	0.3790temperature slope calibration	1.0000multiplexer offset coefficient	1.0000multiplexer slope coefficient	1.0000fibre end	0.00T internal ref (°C)	31.03T ext. ref 1 (°C)	1.01T ext. ref 2 (°C)	22.03length (m)	temperature (°C)	Stokes	anti-Stokes-747.200	-200.000	-0.027	0.283
-746.185	83.089	-0.206	0.225
-745.171	800.000	0.091	0.280
-744.156	-157.016	-0.273	0.017
-743.142	112.787	-0.039	0.047
-742.127	-200.000	-0.010	0.278
-741.112	-111.921	-0.097	-0.020
-740.098	-200.000	-0.018	-0.118
-739.083	-107.682	0.201	0.044
-738.069	-200.000	-0.045	-0.271
-737.054	800.000	0.134	0.440
-736.039	-38.393	-0.241	-0.128
-735.025	72.160	0.209	0.219
-734.010	800.000	-0.095	-0.340
-732.996	345.766	0.011	0.023
-731.981	93.448	0.196	-0.223
-730.966	-194.713	0.307	-0.002
-729.952	-30.318	-0.243	0.139
-728.937	-200.000	0.002	0.159
-727.923	42.392	-0.146	-0.134
-726.908	800.000	-0.053	-0.159
-725.894	104.186	-0.046	-0.054
-724.879	-200.000	-0.034	-0.200
-723.864	-200.000	-0.029	-0.374
-722.850	-58.397	0.039	0.017
-721.835	-72.151	0.285	-0.106
-720.821	-186.450	-0.337	0.005
-719.806	-200.000	0.048	0.314
-718.791	14.159	-0.297	-0.233
-717.777	-115.819	0.057	-0.011
-716.762	74.633	-0.129	-0.136
-715.748	-160.386	-0.268	-0.014
-714.733	-128.868	-0.143	-0.020
-713.718	-28.188	0.084	-0.049
-712.704	800.000	-0.035	0.117
-711.689	-200.000	0.007	0.218
-710.675	800.000	-0.036	-0.122
-709.660	-47.826	-0.179	0.087
-708.645	24.781	0.353	0.294
-707.631	-166.912	-0.184	0.008
-706.616	-103.797	0.271	0.064
-705.602	114.128	-0.293	0.358
-704.587	-200.000	0.048	0.370
-703.572	-65.483	-0.215	-0.087
-702.558	-200.000	-0.002	0.125
-701.543	-64.876	0.180	-0.073
-700.529	-200.000	0.037	-0.341
-699.514	-200.000	0.013	0.070
-698.499	789.615	-0.047	-0.129
-697.485	260.111	-0.032	-0.055
-696.470	-134.421	0.284	-0.035
-695.456	-41.056	0.266	0.138
-694.441	358.945	0.145	0.291
-693.426	800.000	0.057	0.174
-692.412	-150.330	-0.157	0.012
-691.397	-184.304	-0.132	-0.002
-690.383	24.211	-0.134	0.111
-689.368	171.092	-0.171	-0.246
-688.354	-84.922	-0.115	-0.036
-687.339	51.557	-0.194	-0.185
-686.324	800.000	-0.115	-0.411
-685.310	0.121	0.174	0.125
-684.295	-51.352	0.045	0.021
-683.281	-172.789	-0.172	0.005
-682.266	99.413	-0.099	0.115
-681.251	-200.000	0.024	0.139
-680.237	204.207	-0.066	-0.103
-679.222	-67.087	-0.132	-0.052
-678.208	60.206	0.233	-0.231
-677.193	800.000	-0.072	-0.234
-676.178	28.504	-0.076	0.065
-675.164	-149.265	0.092	-0.007
-674.149	-200.000	-0.042	-0.215
-673.135	36.298	0.197	-0.174
-672.120	245.734	-0.225	0.380
-671.105	239.199	0.120	0.200
-670.091	-176.656	-0.233	-0.006
-669.076	34.903	-0.187	-0.164
-668.062	-200.000	0.004	-0.404
-667.047	136.153	0.139	0.182
-666.032	-200.000	-0.029	0.204
-665.018	-200.000	0.068	-0.313
-664.003	800.000	0.018	0.076
-662.989	556.191	-0.110	0.267
-661.974	406.938	-0.101	-0.213
-660.959	-200.000	-0.011	-0.345
-659.945	19.598	-0.139	0.112
-658.930	116.497	-0.113	-0.138
-657.916	-14.102	-0.065	0.042
-656.901	-83.088	-0.054	0.017
-655.886	-78.526	0.176	0.060
-654.872	-80.070	0.072	-0.024
-653.857	-53.609	0.134	-0.061
-652.843	81.107	-0.159	-0.172
-651.828	-200.000	0.017	0.257
-650.814	41.254	0.295	0.267
-649.799	800.000	0.050	-0.188
-648.784	232.008	-0.141	-0.232
-647.770	-107.150	0.185	-0.041
-646.755	169.670	-0.143	-0.205
-645.741	-21.843	-0.268	-0.163
-644.726	-123.739	-0.113	-0.018
-643.711	91.211	-0.237	0.267
-642.697	-28.960	0.103	0.059
-641.682	126.442	0.119	0.151
-640.668	17.664	0.121	0.097
-639.653	-28.577	0.315	-0.182
-638.638	-63.318	-0.327	-0.135
-637.624	777.205	0.097	0.264
-636.609	800.000	0.109	-0.397
-635.595	62.135	0.159	-0.158
-634.580	71.006	0.106	0.110
-633.565	-46.247	0.263	-0.130
-632.551	-88.181	-0.427	0.128
-631.536	-120.874	-0.171	-0.029
-630.522	800.000	-0.045	0.125
-629.507	-128.945	0.074	0.010
-628.492	-200.000	-0.017	0.260
-627.478	-169.177	0.069	-0.003
-626.463	17.257	0.405	0.322
-625.449	-71.405	-0.203	-0.076
-624.434	-111.274	0.098	0.020
-623.419	44.471	-0.143	-0.132
-622.405	195.309	-0.055	-0.083
-621.390	0.012	0.100	-0.071
-620.376	328.941	0.042	0.081
-619.361	459.836	0.165	-0.368
-618.346	-74.319	0.061	0.022
-617.332	-108.184	-0.174	0.038
-616.317	135.838	0.192	-0.250
-615.303	-66.074	-0.180	0.072
-614.288	-200.000	-0.001	-0.250
-613.273	-6.391	-0.288	-0.197
-612.259	-58.772	0.269	-0.117
-611.244	-71.223	-0.239	0.090
-610.230	-200.000	0.018	0.079
-609.215	109.532	0.153	0.184
-608.201	311.174	-0.025	0.047
-607.186	-200.000	-0.078	-0.376
-606.171	-200.000	0.044	0.324
-605.157	-79.187	-0.170	-0.058
-604.142	800.000	0.034	-0.104
-603.128	-122.535	0.119	0.019
-602.113	-200.000	-0.020	0.193
-601.098	361.940	0.025	0.049
-600.084	373.138	0.135	0.274
-599.069	-200.000	0.036	-0.192
-598.055	-42.689	-0.197	-0.101
-597.040	138.735	-0.112	-0.148
-596.025	800.000	0.051	0.150
-595.011	-200.000	-0.025	0.163
-593.996	-109.051	0.029	-0.006
-592.982	108.404	-0.191	0.229
-591.967	-183.515	-0.418	-0.007
-590.952	-107.885	0.224	-0.049
-589.938	-200.000	0.109	-0.483
-588.923	-34.647	-0.097	0.053
-587.909	66.594	0.132	0.135
-586.894	-83.267	0.125	0.040
-585.879	-28.759	0.210	-0.121
-584.865	18.521	-0.174	-0.139
-583.850	-48.927	0.062	-0.030
-582.836	-111.282	0.067	0.014
-581.821	88.878	0.143	0.159
-580.806	-122.693	0.154	0.025
-579.792	325.905	0.036	-0.069
-578.777	-69.134	-0.139	0.054
-577.763	242.345	0.191	-0.319
-576.748	344.657	0.142	-0.279
-575.733	-49.099	0.148	0.071
-574.719	-200.000	-0.008	0.091
-573.704	186.126	-0.142	0.211
-572.690	-80.655	0.114	0.038
-571.675	-66.276	-0.028	0.011
-570.661	-133.668	0.413	0.052
-569.646	-23.554	0.158	-0.095
-568.631	21.838	-0.179	-0.146
-567.617	319.799	0.176	-0.334
-566.602	-11.096	0.017	-0.011
-565.588	800.000	-0.011	0.037
-564.573	86.807	-0.124	0.137
-563.558	-1.195	0.354	0.250
-562.544	-57.636	0.200	-0.087
-561.529	800.000	-0.064	0.234
-560.515	-152.138	0.101	-0.007
-559.500	137.950	0.104	-0.136
-558.485	8.365	-0.043	-0.032
-557.471	-32.910	0.212	-0.117
-556.456	-200.000	0.038	-0.263
-555.442	-55.048	-0.127	-0.057
-554.427	-43.457	-0.535	-0.270
-553.412	-81.830	-0.280	-0.092
-552.398	170.585	-0.199	-0.284
-551.383	49.319	0.253	0.238
-550.369	161.229	0.194	-0.270
-549.354	39.797	-0.259	0.232
-548.339	52.722	0.109	-0.104
-547.325	-200.000	0.009	-0.238
-546.310	176.997	-0.024	0.035
-545.296	93.191	-0.169	-0.191
-544.281	-93.983	0.069	-0.019
-543.266	-200.000	0.025	0.208
-542.252	53.609	0.149	0.143
-541.237	-79.695	0.240	-0.081
-540.223	-14.555	-0.072	-0.046
-539.208	-54.176	0.085	0.039
-538.193	-1.486	0.068	-0.048
-537.179	80.063	-0.055	0.059
-536.164	187.716	-0.102	0.153
-535.150	474.254	0.132	-0.297
-534.135	8.749	0.321	0.241
-533.121	33.645	0.211	0.184
-532.106	-33.108	0.153	-0.084
-531.091	582.282	-0.033	0.082
-530.077	198.583	-0.221	0.338
-529.062	642.951	-0.031	-0.080
-528.048	54.433	-0.123	-0.118
-527.033	-158.027	-0.220	0.013
-526.018	-64.057	-0.064	0.026
-525.004	800.000	-0.034	-0.130
-523.989	-200.000	0.047	-0.344
-522.975	-42.327	-0.256	-0.130
-521.960	-133.194	-0.442	-0.056
-520.945	565.183	0.125	-0.303
-519.931	35.569	0.129	0.113
-518.916	-97.616	0.094	0.024
-517.902	-61.717	0.210	0.088
-516.887	121.727	-0.165	-0.205
-515.872	-145.098	-0.192	-0.017
-514.858	-188.880	-0.082	-0.001
-513.843	-89.503	0.299	0.088
-512.829	-41.498	-0.132	0.068
-511.814	278.882	0.096	-0.171
-510.799	56.448	0.169	0.164
-509.785	-167.770	-0.406	0.016
-508.770	-38.627	-0.157	-0.083
-507.756	-105.378	-0.154	-0.035
-506.741	17.849	0.188	0.149
-505.726	302.262	0.118	-0.218
-504.712	-66.990	-0.021	-0.008
-503.697	-200.000	-0.060	0.275
-502.683	-21.316	0.089	0.054
-501.668	123.217	0.061	-0.076
-500.653	329.988	0.064	0.124
-499.639	299.499	0.095	0.174
-498.624	557.886	-0.116	0.279
-497.610	-200.000	-0.009	-0.348
-496.595	-107.041	0.183	0.040
-495.581	-42.937	-0.177	0.090
-494.566	-48.854	0.122	0.058
-493.551	-116.312	-0.251	-0.046
-492.537	-98.932	0.100	-0.025
-491.522	-96.987	-0.162	0.042
-490.508	65.072	-0.122	-0.123
-489.493	-70.777	-0.126	0.047
-488.478	-158.825	-0.102	0.006
-487.464	-40.976	-0.316	0.163
-486.449	-139.138	-0.197	-0.021
-485.435	-200.000	-0.038	0.191
-484.420	193.788	-0.189	0.285
-483.405	-76.687	0.541	0.189
-482.391	203.385	0.142	0.219
-481.376	-15.435	0.203	0.129
-480.362	-200.000	0.019	-0.250
-479.347	-145.093	-0.265	0.024
-478.332	231.547	-0.043	-0.070
-477.318	-147.527	0.158	-0.013
-476.303	-112.774	0.068	-0.013
-475.289	-103.903	-0.243	-0.056
-474.274	-52.446	0.242	-0.112
-473.259	178.935	0.077	-0.112
-472.245	-156.249	-0.159	0.010
-471.230	-200.000	0.045	0.271
-470.216	105.605	-0.006	-0.006
-469.201	800.000	-0.069	-0.243
-468.186	-200.000	0.008	-0.041
-467.172	-105.866	0.288	0.065
-466.157	-146.265	0.332	-0.029
-465.143	-200.000	0.028	0.159
-464.128	-200.000	0.020	0.119
-463.113	81.005	-0.117	0.125
-462.099	800.000	0.077	0.305
-461.084	157.893	-0.021	0.028
-460.070	175.300	-0.130	-0.187
-459.055	-72.556	0.231	0.085
-458.040	76.927	0.136	-0.143
-457.026	-130.989	-0.071	0.009
-456.011	-177.123	-0.189	-0.005
-454.997	-134.321	-0.085	0.010
-453.982	-93.871	-0.350	-0.096
-452.968	-200.000	0.002	-0.051
-451.953	800.000	0.133	-0.391
-450.938	-84.709	0.601	-0.188
-449.924	219.150	-0.115	0.183
-448.909	-113.062	-0.274	-0.054
-447.895	-89.812	0.329	-0.096
-446.880	39.209	0.297	-0.265
-445.865	-200.000	0.020	-0.286
-444.851	34.565	-0.053	0.046
-443.836	-116.811	0.405	-0.074
-442.822	168.547	-0.149	0.211
-441.807	-200.000	0.014	-0.227
-440.792	-28.396	-0.231	-0.133
-439.778	401.563	-0.112	0.234
-438.763	-30.470	0.318	-0.179
-437.749	217.482	0.061	0.097
-436.734	-63.961	-0.046	-0.019
-435.719	761.005	-0.069	0.186
-434.705	-195.091	-0.339	-0.003
-433.690	340.893	0.063	-0.123
-432.676	262.348	-0.092	0.159
-431.661	188.988	0.117	0.175
-430.646	-10.235	0.127	-0.084
-429.632	-141.586	-0.198	-0.020
-428.617	-139.732	-0.149	-0.016
-427.603	206.432	-0.045	-0.070
-426.588	-180.974	-0.257	0.005
-425.573	-92.856	0.055	-0.015
-424.559	193.200	-0.049	-0.073
-423.544	156.266	0.145	-0.198
-422.530	-31.624	-0.041	-0.023
-421.515	-168.932	-0.306	-0.011
-420.500	-8.784	0.256	0.170
-419.486	324.522	-0.130	0.246
-418.471	-66.212	-0.226	0.090
-417.457	2.405	0.215	-0.155
-416.442	-68.428	-0.233	0.090
-415.428	-147.830	0.265	0.022
-414.413	-48.927	-0.214	0.102
-413.398	-11.433	-0.135	0.088
-412.384	52.018	-0.214	0.203
-411.369	359.272	0.042	-0.084
-410.355	-200.000	0.021	-0.096
-409.340	-12.104	-0.299	0.195
-408.325	800.000	0.027	0.085
-407.311	-158.813	-0.137	0.008
-406.296	107.821	-0.030	-0.035
-405.282	-89.756	0.143	0.042
-404.267	28.482	-0.118	0.099
-403.252	566.513	0.145	-0.350
-402.238	-200.000	0.091	0.000
-401.223	-66.633	-0.293	0.115
-400.209	165.746	-0.094	0.133
-399.194	115.921	0.169	-0.205
-398.179	68.346	-0.154	-0.157
-397.165	-107.872	-0.531	0.115
-396.150	1.188	-0.048	0.034
-395.136	-60.659	-0.068	-0.029
-394.121	-13.595	-0.179	-0.115
-393.106	800.000	-0.068	0.214
-392.092	208.433	-0.119	0.184
-391.077	-135.843	0.215	0.025
-390.063	-200.000	0.005	0.172
-389.048	-200.000	-0.023	-0.199
-388.033	307.542	0.110	-0.204
-387.019	-200.000	-0.026	0.254
-386.004	337.065	0.023	-0.045
-384.990	193.953	0.149	-0.224
-383.975	-69.868	-0.272	-0.103
-382.960	-200.000	-0.032	-0.219
-381.946	123.418	-0.084	0.105
-380.931	-121.802	-0.420	0.069
-379.917	-39.120	-0.072	0.038
-378.902	-81.012	-0.237	-0.078
-377.888	182.296	-0.197	0.288
-376.873	-108.172	-0.145	0.031
-375.858	800.000	-0.080	0.221
-374.844	33.181	0.121	0.104
-373.829	-198.635	0.194	-0.001
-372.815	206.433	-0.179	-0.276
-371.800	800.000	-0.023	-0.089
-370.785	86.801	0.230	0.252
-369.771	-85.958	0.107	0.033
-368.756	-200.000	-0.038	-0.180
-367.742	-50.979	0.473	0.220
-366.727	-200.000	-0.019	0.221
-365.712	-194.992	-0.377	-0.003
-364.698	-36.749	-0.142	-0.076
-363.683	-200.000	0.048	-0.468
-362.669	800.000	-0.032	0.092
-361.654	-69.624	-0.436	-0.165
-360.639	-54.511	0.379	-0.170
-359.625	-200.000	0.001	0.117
-358.610	-200.000	-0.048	0.299
-357.596	-200.000	0.040	-0.351
-356.581	46.342	-0.227	0.208
-355.566	655.434	0.020	-0.050
-354.552	346.631	-0.137	0.268
-353.537	800.000	-0.039	0.137
-352.523	-200.000	-0.004	0.160
-351.508	-109.282	0.511	-0.107
-350.493	-200.000	0.026	-0.266
-349.479	5.817	0.025	0.018
-348.464	-200.000	-0.013	-0.347
-347.450	-87.978	-0.304	-0.090
-346.435	-200.000	0.026	0.122
-345.420	-96.912	0.065	-0.017
-344.406	107.378	-0.056	0.066
-343.391	-200.000	-0.005	-0.043
-342.377	-200.000	-0.019	-0.406
-341.362	-17.160	-0.164	-0.102
-340.348	336.363	0.130	0.250
-339.333	-118.866	0.335	0.058
-338.318	-17.963	-0.166	0.103
-337.304	800.000	-0.083	-0.234
-336.289	-38.169	0.187	-0.098
-335.275	91.904	-0.041	0.045
-334.260	-153.698	-0.202	-0.014
-333.245	-16.794	0.478	-0.300
-332.231	20.187	-0.109	0.087
-331.216	733.572	0.159	0.420
-330.202	-91.834	0.291	0.082
-329.187	-60.829	-0.335	-0.140
-328.172	270.699	-0.048	-0.084
-327.158	-100.852	0.347	-0.085
-326.143	-42.667	-0.199	-0.100
-325.129	241.744	0.129	-0.213
-324.114	-200.000	-0.304	0.001
-323.099	800.000	0.031	0.119
-322.085	-73.031	-0.184	-0.067
-321.070	28.692	-0.239	-0.200
-320.056	63.206	-0.119	-0.118
-319.041	-124.048	0.274	0.043
-318.026	12.045	-0.120	0.092
-317.012	-11.308	0.075	-0.049
-315.997	71.489	0.203	-0.209
-314.983	-200.000	-0.046	-0.296
-313.968	-200.000	0.018	-0.101
-312.953	-80.117	-0.092	0.031
-311.939	241.875	0.082	0.136
-310.924	53.718	0.117	-0.111
-309.910	-17.760	0.142	-0.088
-308.895	83.266	-0.083	0.090
-307.880	32.058	0.106	0.091
-306.866	-69.755	-0.191	-0.072
-305.851	-194.053	-0.204	0.002
-304.837	-65.831	-0.275	-0.109
-303.822	511.660	0.073	-0.169
-302.807	247.341	0.131	0.219
-301.793	-129.095	0.262	0.036
-300.778	464.475	-0.029	-0.065
-299.764	-45.339	-0.118	-0.058
-298.749	-98.091	-0.153	-0.039
-297.735	-111.224	0.150	0.030
-296.720	28.999	-0.191	0.160
-295.705	-200.000	0.029	-0.463
-294.691	-14.652	0.391	-0.248
-293.676	380.234	-0.011	0.021
-292.662	-200.000	0.003	0.072
-291.647	800.000	0.045	0.129
-290.632	210.852	0.116	0.180
-289.618	521.017	-0.055	-0.129
-288.603	14.378	0.220	0.169
-287.589	75.459	0.064	-0.067
-286.574	-116.743	-0.180	0.033
-285.559	800.000	0.059	0.211
-284.545	50.111	0.082	0.077
-283.530	648.409	-0.061	0.153
-282.516	303.844	0.045	-0.083
-281.501	-42.773	0.199	-0.100
-280.486	426.047	-0.052	0.110
-279.472	-14.476	-0.220	0.140
-278.457	-200.000	-0.015	0.200
-277.443	-200.000	-0.041	-0.186
-276.428	108.317	-0.094	-0.110
-275.413	-115.016	-0.273	-0.051
-274.399	-137.984	0.142	-0.016
-273.384	576.364	-0.067	0.161
-272.370	-175.688	0.286	-0.008
-271.355	-32.075	-0.160	-0.088
-270.340	-80.430	0.107	-0.035
-269.326	581.922	0.141	0.341
-268.311	-200.000	0.082	-0.376
-267.297	800.000	0.086	-0.256
-266.282	-20.064	-0.282	0.172
-265.267	28.267	-0.016	-0.014
-264.253	104.274	0.129	-0.149
-263.238	-74.511	-0.184	-0.066
-262.224	-200.000	-0.007	-0.328
-261.209	592.357	-0.104	0.253
-260.195	800.000	-0.039	0.147
-259.180	12.104	-0.206	-0.157
-258.165	96.140	-0.150	0.170
-257.151	-68.292	-0.125	0.048
-256.136	-188.901	-0.140	-0.002
-255.122	6.154	0.205	-0.150
-254.107	-18.766	-0.179	0.110
-253.092	800.000	0.024	-0.079
-252.078	-200.000	-0.010	0.152
-251.063	-0.071	0.227	0.159
-250.049	-159.480	0.063	-0.003
-249.034	-151.610	-0.039	0.003
-248.019	-130.383	0.313	0.042
-247.005	541.756	0.019	-0.045
-245.990	-90.493	-0.263	-0.075
-244.976	718.546	-0.092	0.242
-243.961	-172.880	0.209	-0.006
-242.946	16.341	-0.109	0.085
-241.932	-85.939	-0.230	0.070
-240.917	76.082	0.152	0.159
-239.903	304.099	0.019	-0.034
-238.888	800.000	0.018	0.076
-237.873	-54.272	0.214	0.096
-236.859	-181.000	0.294	0.006
-235.844	67.066	0.356	0.358
-234.830	51.744	-0.294	0.276
-233.815	800.000	-0.041	-0.151
-232.800	461.625	0.041	0.091
-231.786	140.416	-0.062	-0.081
-230.771	-41.558	-0.262	0.133
-229.757	800.000	-0.118	0.344
-228.742	270.162	-0.096	0.167
-227.727	800.000	0.138	0.523
-226.713	800.000	-0.042	0.140
-225.698	641.324	0.095	0.238
-224.684	800.000	0.051	0.208
-223.669	-10.219	-0.178	-0.117
-222.655	-126.869	-0.273	0.040
-221.640	-47.296	0.489	-0.235
-220.625	-67.916	-0.135	0.052
-219.611	718.364	0.081	0.212
-218.596	30.687	0.046	-0.039
-217.582	-19.688	0.146	0.089
-216.567	-200.000	0.024	0.257
-215.552	186.280	0.049	0.071
-214.538	33.544	0.136	-0.116
-213.523	-89.964	-0.416	0.120
-212.509	96.838	0.188	-0.212
-211.494	-74.723	0.407	-0.144
-210.479	-73.690	0.302	0.108
-209.465	-200.000	0.047	-0.245
-208.450	31.172	-0.106	-0.090
-207.436	-100.225	-0.308	-0.076
-206.421	-200.000	0.003	0.116
-205.406	800.000	-0.041	0.120
-204.392	-95.161	0.413	0.110
-203.377	358.691	0.147	-0.290
-202.363	52.938	-0.165	0.156
-201.348	13.535	0.149	-0.114
-200.333	392.900	0.083	0.170
-199.319	172.569	-0.097	-0.137
-198.304	-49.955	0.191	-0.089
-197.290	16.685	-0.099	-0.077
-196.275	-8.907	-0.231	-0.152
-195.260	-137.268	0.394	0.044
-194.246	115.545	-0.138	-0.166
-193.231	-25.660	-0.059	-0.034
-192.217	545.093	0.027	0.064
-191.202	-200.000	-0.002	-0.154
-190.187	-34.301	0.108	0.058
-189.173	-80.459	0.089	0.029
-188.158	799.372	0.052	0.143
-187.144	-200.000	0.031	0.168
-186.129	-200.000	-0.009	0.074
-185.114	-200.000	-0.011	0.198
-184.100	47.086	-0.257	-0.235
-183.085	187.846	-0.108	0.159
-182.071	-200.000	0.021	0.182
-181.056	-169.841	0.089	-0.003
-180.042	-24.057	0.169	0.100
-179.027	-177.530	0.366	-0.009
-178.012	-78.416	-0.415	-0.140
-176.998	-66.835	0.094	-0.037
-175.983	175.861	0.084	-0.120
-174.969	41.260	-0.090	0.080
-173.954	-33.582	-0.373	0.203
-172.939	800.000	-0.021	-0.072
-171.925	301.545	0.064	-0.117
-170.910	1.652	0.150	-0.106
-169.896	-75.885	0.079	-0.028
-168.881	800.000	-0.024	0.073
-167.866	480.612	0.034	0.076
-166.852	-65.925	-0.311	0.122
-165.837	-115.328	-0.191	-0.036
-164.823	-200.000	-0.026	0.171
-163.808	-189.956	0.345	-0.004
-162.793	327.614	0.196	0.369
-161.779	60.799	-0.211	0.205
-160.764	364.619	0.086	0.170
-159.750	-3.491	0.213	-0.146
-158.735	-177.055	-0.038	-0.001
-157.720	771.396	0.091	-0.243
-156.706	-200.000	-0.007	0.261
-155.691	-200.000	-0.065	-0.294
-154.677	86.225	0.167	0.181
-153.662	-86.469	0.201	-0.061
-152.647	-56.421	-0.230	-0.100
-151.633	-141.784	0.279	-0.028
-150.618	61.548	0.139	-0.136
-149.604	96.829	0.246	-0.277
-148.589	-200.000	0.049	0.221
-147.574	-74.762	0.346	0.122
-146.560	660.593	0.046	0.116
-145.545	-18.430	0.333	0.205
-144.531	-200.000	0.009	-0.055
-143.516	-137.938	0.246	0.027
-142.502	629.698	-0.089	0.222
-141.487	-40.059	-0.546	-0.280
-140.472	71.875	-0.163	0.167
-139.458	800.000	0.032	-0.138
-138.443	-105.082	0.253	-0.057
-137.429	513.737	-0.207	0.474
-136.414	690.213	-0.054	-0.140
-135.399	-103.903	0.160	0.037
-134.385	-22.593	0.230	-0.137
-133.370	-200.000	-0.055	-0.291
-132.356	-200.000	-0.043	0.237
-131.341	39.506	0.274	0.241
-130.326	642.976	0.044	0.110
-129.312	-200.000	0.008	0.095
-128.297	264.468	-0.111	0.189
-127.283	-29.142	0.152	-0.086
-126.268	-107.260	0.533	0.115
-125.253	78.128	-0.199	-0.209
-124.239	-4.837	-0.068	-0.046
-123.224	56.086	0.096	-0.091
-122.210	800.000	0.061	0.208
-121.195	278.957	0.041	-0.072
-120.180	-17.784	0.152	0.094
-119.166	41.516	-0.244	-0.217
-118.151	-200.000	0.058	-0.263
-117.137	-148.324	0.212	0.017
-116.122	-173.033	-0.143	-0.004
-115.107	-12.538	0.012	-0.008
-114.093	-132.180	-0.114	0.014
-113.078	470.306	-0.115	0.254
-112.064	77.939	0.151	-0.158
-111.049	800.000	0.052	0.161
-110.034	-162.071	-0.312	0.015
-109.020	-39.057	0.201	-0.104
-108.005	111.581	0.194	-0.230
-106.991	348.452	0.086	-0.166
-105.976	-200.000	0.062	-0.378
-104.962	296.370	-0.067	0.121
-103.947	-12.620	0.182	0.117
-102.932	91.201	0.163	-0.180
-101.918	-37.430	0.408	0.214
-100.903	25.699	0.203	0.166
-99.889	163.483	0.068	0.094
-98.874	128.467	-0.199	-0.249
-97.859	-38.950	0.172	0.089
-96.845	5.994	0.234	0.170
-95.830	-4.497	0.112	0.076
-94.816	800.000	-0.027	0.076
-93.801	-43.194	0.144	-0.071
-92.786	-68.325	-0.150	-0.057
-91.772	-48.050	-0.109	0.052
-90.757	-200.000	-0.085	-0.487
-89.743	81.552	0.118	-0.125
-88.728	60.635	0.241	0.234
-87.713	30.974	-0.241	0.202
-86.699	90.665	-0.099	-0.108
-85.684	-38.208	-0.425	-0.221
-84.670	-200.000	0.044	-0.203
-83.655	-31.181	0.167	-0.092
-82.640	-200.000	0.008	-0.045
-81.626	-14.653	0.154	0.097
-80.611	47.118	0.136	-0.124
-79.597	185.500	-0.142	0.206
-78.582	-161.529	0.426	-0.021
-77.567	110.465	-0.183	0.216
-76.553	800.000	-0.102	0.301
-75.538	547.467	0.141	-0.330
-74.524	617.523	-0.010	0.025
-73.509	339.861	0.294	0.563
-72.494	-200.000	0.015	0.173
-71.480	515.306	0.034	-0.077
-70.465	-80.208	-0.326	0.107
-69.451	-60.358	0.245	0.102
-68.436	-200.000	0.006	0.104
-67.422	-178.219	-0.378	0.009
-66.407	451.869	-0.097	-0.210
-65.392	533.467	-0.089	-0.208
-64.378	130.438	-0.041	0.051
-63.363	283.342	-0.093	0.164
-62.349	17.800	-0.218	0.170
-61.334	-3.168	-1.446	-0.988
-60.319	271.443	0.441	0.761
-59.305	722.078	-0.356	-0.928
-58.290	180.595	0.714	1.026
-57.276	354.407	0.776	1.510
-56.261	-200.000	107.644	624.120
-55.246	473.304	1482.309	3272.964
-54.232	146.845	2671.322	3518.054
-53.217	104.198	2285.290	2633.357
-52.203	40.438	1904.069	1679.243
-51.188	34.422	1696.744	1450.742
-50.173	31.650	1653.958	1393.502
-49.159	51.712	1706.686	1589.952
-48.144	52.404	1721.795	1609.173
-47.130	33.941	1680.072	1432.630
-46.115	31.188	1665.570	1399.603
-45.100	30.991	1660.947	1394.186
-44.086	30.888	1658.608	1391.395
-43.071	30.892	1656.497	1389.603
-42.057	30.928	1653.656	1387.432
-41.042	30.929	1651.630	1385.685
-40.027	31.034	1649.363	1384.508
-39.013	30.982	1647.647	1382.628
-37.998	30.889	1646.344	1380.787
-36.984	30.957	1645.064	1380.164
-35.969	31.035	1643.359	1379.257
-34.954	31.025	1641.426	1377.501
-33.940	31.049	1640.319	1376.697
-32.925	30.973	1638.667	1374.693
-31.911	31.169	1636.523	1374.290
-30.896	31.034	1634.963	1371.928
-29.881	31.016	1633.435	1370.460
-28.867	31.076	1631.769	1369.450
-27.852	31.000	1630.484	1367.758
-26.838	30.951	1629.358	1366.401
-25.823	31.093	1627.461	1365.793
-24.809	31.018	1626.440	1364.336
-23.794	31.051	1624.735	1363.095
-22.779	31.056	1622.896	1361.534
-21.765	30.972	1621.865	1359.998
-20.750	31.043	1620.049	1358.943
-19.736	31.032	1618.663	1357.642
-18.721	31.066	1617.080	1356.509
-17.706	31.056	1615.664	1355.197
-16.692	31.100	1613.566	1353.700
-15.677	31.006	1612.703	1352.239
-14.663	31.003	1611.438	1351.105
-13.648	31.113	1609.694	1350.382
-12.633	31.077	1608.721	1349.255
-11.619	31.034	1607.005	1347.451
-10.604	31.040	1605.707	1346.356
-9.590	31.094	1604.290	1345.499
-8.575	31.165	1602.830	1344.734
-7.560	31.030	1602.126	1343.119
-6.546	31.048	1600.625	1341.933
-5.531	31.051	1600.187	1341.540
-4.517	31.006	1598.684	1339.899
-3.502	31.047	1597.701	1339.317
-2.487	31.118	1596.058	1338.398
-1.473	30.468	1582.656	1322.480
-0.458	26.304	1561.171	1275.161
0.556	20.472	1559.291	1230.104
1.571	17.202	1580.154	1222.952
2.586	16.534	1592.228	1227.340
3.600	15.232	1540.348	1178.099
4.615	9.022	1434.610	1056.360
5.629	2.528	1371.586	968.882
6.644	1.044	1364.150	954.203
7.659	1.062	1362.376	952.994
8.673	0.985	1361.823	952.038
9.688	0.968	1359.652	950.328
10.702	0.839	1356.503	947.233
11.717	3.847	1360.627	968.902
12.731	11.166	1371.723	1022.813
13.746	16.538	1379.936	1062.688
14.761	17.613	1380.570	1069.835
15.775	17.027	1378.279	1064.293
16.790	16.009	1375.564	1055.724
17.804	15.206	1373.402	1048.950
18.819	14.904	1371.899	1045.818
19.834	14.633	1370.542	1042.996
20.848	14.267	1369.659	1039.946
21.863	14.014	1368.249	1037.205
22.877	13.940	1366.346	1035.211
23.892	13.855	1365.511	1033.960
24.907	13.888	1365.272	1033.892
25.921	13.917	1364.401	1033.320
26.936	13.907	1363.415	1032.417
27.950	14.031	1362.153	1032.144
28.965	14.037	1361.638	1031.701
29.980	14.088	1360.318	1030.923
30.994	14.142	1359.453	1030.512
32.009	14.121	1358.594	1029.642
33.023	14.146	1357.758	1029.068
34.038	14.042	1356.362	1027.274
35.053	13.974	1355.441	1026.071
36.067	14.084	1354.140	1025.672
37.082	14.055	1353.580	1024.977
38.096	14.089	1352.579	1024.341
39.111	14.060	1351.676	1023.387
40.126	14.116	1350.351	1022.634
41.140	13.985	1349.875	1021.378
42.155	13.909	1349.715	1020.702
43.169	13.890	1349.287	1020.171
44.184	13.957	1349.085	1020.337
45.199	13.884	1348.762	1019.559
46.213	14.016	1347.753	1019.516
47.228	14.049	1346.799	1018.905
48.242	14.020	1345.535	1017.679
49.257	14.039	1344.376	1016.830
50.271	13.986	1342.554	1015.040
51.286	14.038	1341.378	1014.375
52.301	14.054	1340.170	1013.472
53.315	13.939	1339.777	1012.384
54.330	13.871	1338.665	1011.041
55.344	13.943	1337.318	1010.370
56.359	13.964	1335.996	1009.411
57.374	13.900	1335.620	1008.647
58.388	13.883	1334.648	1007.721
59.403	13.963	1334.168	1007.754
60.417	13.894	1333.207	1006.523
61.432	13.858	1332.398	1005.602
62.447	13.913	1331.443	1005.125
63.461	13.916	1329.568	1003.640
64.476	13.862	1329.333	1003.047
65.490	13.748	1328.208	1001.421
66.505	13.932	1325.972	1000.759
67.520	13.836	1325.033	999.380
68.534	13.808	1324.635	998.824
69.549	13.852	1323.435	998.096
70.563	13.755	1322.685	996.856
71.578	13.760	1321.395	995.829
72.593	13.820	1320.086	995.114
73.607	13.739	1319.446	994.060
74.622	13.810	1318.692	993.824
75.636	13.780	1317.561	992.705
76.651	13.776	1316.959	992.140
77.666	13.735	1316.764	991.660
78.680	13.886	1315.680	991.658
79.695	13.788	1315.251	990.664
80.709	13.817	1314.473	990.162
81.724	13.842	1313.685	989.632
82.739	13.878	1312.716	989.029
83.753	13.877	1311.891	988.310
84.768	14.048	1310.668	988.319
85.782	13.986	1309.530	987.004
86.797	13.980	1308.321	985.975
87.812	13.896	1307.282	984.602
88.826	13.855	1305.982	983.292
89.841	13.959	1304.943	983.040
90.855	13.983	1303.833	982.257
91.870	13.964	1303.300	981.658
92.884	14.003	1302.586	981.263
93.899	14.130	1301.898	981.409
94.914	14.058	1300.687	979.988
95.928	14.148	1299.476	979.517
96.943	14.198	1298.479	978.973
97.957	14.095	1297.810	977.778
98.972	14.062	1296.850	976.773
99.987	14.059	1295.998	976.023
101.001	13.981	1294.725	974.523
102.016	14.028	1293.695	973.937
103.030	14.031	1292.966	973.321
104.045	13.973	1292.074	972.226
105.060	14.012	1290.913	971.492
106.074	14.030	1289.207	970.226
107.089	13.911	1288.438	968.866
108.103	13.909	1286.813	967.548
109.118	13.847	1285.860	966.386
110.133	13.826	1284.906	965.463
111.147	14.023	1283.078	965.148
112.162	13.936	1281.765	963.569
113.176	13.964	1280.795	962.918
114.191	13.932	1280.090	962.115
115.206	14.006	1278.832	961.514
116.220	14.027	1277.503	960.549
117.235	14.030	1276.170	959.481
118.249	13.995	1275.517	958.702
119.264	14.010	1274.579	958.002
120.279	13.996	1273.466	956.997
121.293	13.930	1272.504	955.808
122.308	13.938	1271.349	954.904
123.322	13.995	1270.201	954.284
124.337	13.984	1269.274	953.441
125.352	13.904	1268.647	952.425
126.366	13.952	1267.117	951.466
127.381	13.963	1266.217	950.771
128.395	13.934	1264.906	949.536
129.410	14.044	1264.252	949.589
130.424	13.941	1263.223	948.144
131.439	14.050	1261.864	947.665
132.454	14.060	1261.304	947.217
133.468	13.982	1260.638	946.190
134.483	13.917	1260.044	945.288
135.497	13.991	1258.612	944.552
136.512	14.062	1257.211	943.819
137.527	14.064	1255.650	942.576
138.541	13.987	1254.464	941.166
139.556	14.125	1252.909	940.697
140.570	14.082	1251.851	939.576
141.585	14.038	1250.822	938.470
142.600	14.128	1249.569	937.956
143.614	14.197	1248.509	937.468
144.629	14.127	1247.921	936.549
145.643	14.115	1246.786	935.544
146.658	14.084	1245.550	934.363
147.673	14.038	1243.940	932.813
148.687	14.040	1242.877	931.947
149.702	14.106	1241.548	931.235
150.716	14.079	1240.114	929.927
151.731	14.087	1239.083	929.118
152.746	14.051	1238.311	928.254
153.760	14.114	1237.133	927.641
154.775	14.202	1235.491	926.817
155.789	14.129	1234.944	925.915
156.804	14.287	1233.443	925.587
157.819	14.177	1232.794	924.408
158.833	14.240	1231.885	923.995
159.848	14.405	1230.517	923.800
160.862	14.301	1230.097	922.827
161.877	14.260	1228.780	921.531
162.892	14.233	1227.682	920.478
163.906	14.171	1226.655	919.286
164.921	14.187	1225.827	918.668
165.935	14.226	1224.965	918.160
166.950	14.360	1224.252	918.281
167.964	14.243	1223.500	916.990
168.979	14.305	1222.714	916.661
169.994	14.313	1222.425	916.411
171.008	14.311	1220.947	915.206
172.023	14.294	1220.521	914.713
173.037	14.336	1219.950	914.435
174.052	14.398	1218.507	913.613
175.067	14.365	1217.631	912.694
176.081	14.314	1216.873	911.769
177.096	14.270	1216.189	910.934
178.110	14.402	1214.441	910.263
179.125	14.467	1213.425	909.777
180.140	14.429	1212.310	908.652
181.154	14.346	1211.676	907.646
182.169	14.473	1210.361	907.273
183.183	14.505	1208.692	906.115
184.198	14.555	1207.830	905.659
185.213	14.512	1206.914	904.659
186.227	14.511	1205.718	903.677
187.242	14.647	1204.387	903.336
188.256	14.556	1203.816	902.338
189.271	14.587	1202.624	901.531
190.286	14.601	1201.482	900.670
191.300	14.458	1201.070	899.510
192.315	14.450	1200.294	898.806
193.329	14.545	1199.403	898.571
194.344	14.463	1199.237	897.924
195.359	14.548	1198.890	898.041
196.373	14.495	1198.150	897.122
197.388	14.552	1197.709	897.021
198.402	14.636	1197.235	897.038
199.417	14.744	1196.093	896.685
200.432	14.804	1194.854	895.994
201.446	14.738	1194.726	895.470
202.461	14.853	1193.749	895.275
203.475	14.810	1192.664	894.151
204.490	14.746	1191.317	892.720
205.504	14.772	1190.424	892.107
206.519	14.783	1189.062	891.068
207.534	14.757	1188.092	890.126
208.548	14.722	1186.963	889.014
209.563	14.682	1186.668	888.503
210.577	14.759	1185.331	887.833
211.592	14.808	1184.571	887.444
212.607	14.889	1183.602	887.066
213.621	14.943	1182.583	886.513
214.636	14.882	1182.001	885.674
215.650	14.953	1180.735	885.021
216.665	14.970	1180.211	884.642
217.680	14.999	1179.200	883.960
218.694	15.101	1177.855	883.411
219.709	15.054	1177.650	882.929
220.723	15.036	1176.598	881.969
221.738	15.057	1175.983	881.540
222.753	15.103	1175.244	881.151
223.767	15.025	1174.710	880.260
224.782	15.119	1174.019	880.159
225.796	15.178	1173.388	879.918
226.811	15.130	1172.798	879.148
227.826	15.093	1172.128	878.370
228.840	15.198	1171.109	878.081
229.855	15.167	1170.580	877.446
230.869	15.220	1169.638	876.938
231.884	15.098	1169.011	875.754
232.899	15.161	1168.194	875.394
233.913	15.081	1167.901	874.679
234.928	15.228	1166.786	874.533
235.942	15.084	1166.474	873.468
236.957	15.096	1165.187	872.491
237.972	15.060	1164.725	871.880
238.986	15.062	1164.160	871.392
240.001	15.181	1162.988	871.056
241.015	15.176	1162.010	870.218
242.030	15.177	1161.387	869.682
243.045	15.248	1160.094	869.001
244.059	15.236	1159.750	868.607
245.074	15.206	1159.134	867.916
246.088	15.267	1158.255	867.493
247.103	15.408	1156.811	867.066
248.117	15.326	1156.748	866.519
249.132	15.401	1156.007	866.271
250.147	15.461	1155.520	866.142
251.161	15.438	1154.724	865.349
252.176	15.454	1153.945	864.772
253.190	15.550	1153.336	864.735
254.205	15.491	1152.962	864.074
255.220	15.558	1152.288	863.837
256.234	15.519	1151.339	862.848
257.249	15.690	1150.531	863.042
258.263	15.615	1150.063	862.230
259.278	15.694	1149.570	862.189
260.293	15.643	1148.963	861.398
261.307	15.643	1148.600	861.050
262.322	15.740	1147.715	860.803
263.336	15.686	1147.139	860.022
264.351	15.723	1146.418	859.594
265.366	15.837	1145.773	859.615
266.380	15.787	1145.205	858.857
267.395	15.872	1144.065	858.360
268.409	15.734	1143.722	857.325
269.424	15.752	1143.289	857.016
270.439	15.841	1142.290	856.644
271.453	15.785	1141.651	855.806
272.468	15.773	1140.679	854.937
273.482	15.821	1139.838	854.474
274.497	15.799	1139.569	854.089
275.512	15.818	1138.750	853.494
276.526	15.825	1137.956	852.859
277.541	15.827	1137.353	852.341
278.555	15.963	1136.663	852.436
279.570	15.994	1135.807	851.879
280.585	15.976	1135.079	851.166
281.599	16.169	1133.674	851.009
282.614	16.015	1133.322	849.893
283.628	15.961	1132.438	848.885
284.643	15.928	1131.309	847.795
285.657	15.945	1130.460	847.168
286.672	16.088	1129.356	846.987
287.687	16.096	1128.314	846.169
288.701	16.055	1127.980	845.637
289.716	16.092	1127.106	845.095
290.730	16.181	1126.257	844.826
291.745	16.120	1126.045	844.290
292.760	16.090	1125.495	843.652
293.774	16.274	1124.638	843.853
294.789	16.122	1124.450	842.879
295.803	16.220	1123.113	842.290
296.818	16.302	1122.462	842.137
297.833	16.100	1121.881	840.620
298.847	16.176	1121.290	840.482
299.862	16.214	1120.607	840.087
300.876	16.191	1119.563	839.114
301.891	16.272	1118.986	839.008
302.906	16.351	1118.305	838.817
303.920	16.253	1117.924	837.973
304.935	16.536	1116.493	838.226
305.949	16.407	1116.472	837.496
306.964	16.475	1115.539	837.062
307.979	16.406	1114.618	835.955
308.993	16.459	1113.750	835.493
310.008	16.484	1113.159	835.098
311.022	16.465	1112.249	834.247
312.037	16.521	1111.635	833.988
313.052	16.448	1110.664	832.827
314.066	16.452	1109.834	832.150
315.081	16.412	1109.063	831.304
316.095	16.462	1108.206	830.830
317.110	16.364	1107.702	829.896
318.125	16.509	1107.153	830.126
319.139	16.405	1106.633	829.153
320.154	16.465	1105.456	828.491
321.168	16.481	1105.136	828.256
322.183	16.535	1104.268	827.796
323.197	16.471	1104.124	827.301
324.212	16.436	1103.227	826.386
325.227	16.434	1103.045	826.165
326.241	16.574	1101.887	825.910
327.256	16.520	1101.072	824.960
328.270	16.563	1100.065	824.346
329.285	16.643	1099.529	824.257
330.300	16.532	1098.470	822.855
331.314	16.563	1097.545	822.236
332.329	16.655	1096.699	821.980
333.343	16.582	1095.793	820.871
334.358	16.585	1094.650	819.956
335.373	16.707	1094.589	820.430
336.387	16.703	1093.169	819.274
337.402	16.672	1092.723	818.719
338.416	16.812	1091.802	818.632
339.431	16.721	1091.558	817.934
340.446	16.755	1091.034	817.638
341.460	16.875	1090.307	817.597
342.475	16.793	1089.223	816.315
343.489	16.764	1088.461	815.533
344.504	16.978	1087.339	815.652
345.519	16.915	1086.573	814.701
346.533	17.045	1085.418	814.388
347.548	17.033	1085.053	813.984
348.562	17.074	1083.715	813.106
349.577	17.047	1083.126	812.460
350.592	16.971	1082.838	811.810
351.606	16.875	1082.556	811.068
352.621	16.986	1081.551	810.772
353.635	16.966	1080.953	810.158
354.650	16.927	1080.100	809.260
355.665	16.996	1079.348	808.952
356.679	17.129	1078.808	809.110
357.694	16.988	1078.174	807.893
358.708	17.001	1077.427	807.322
359.723	17.143	1076.962	807.577
360.738	17.164	1076.421	807.203
361.752	17.107	1075.977	806.526
362.767	17.119	1075.412	806.089
363.781	17.200	1074.386	805.633
364.796	17.221	1074.061	805.417
365.810	17.297	1073.326	805.153
366.825	17.349	1072.643	804.816
367.840	17.295	1072.436	804.335
368.854	17.360	1071.674	803.999
369.869	17.383	1070.893	803.452
370.883	17.316	1070.347	802.652
371.898	17.317	1069.465	801.924
372.913	17.314	1068.713	801.275
373.927	17.323	1068.468	801.066
374.942	17.556	1067.452	801.329
375.956	17.396	1067.163	800.287
376.971	17.474	1066.490	800.077
377.986	17.352	1066.168	799.194
379.000	17.370	1065.718	798.872
380.015	17.527	1065.015	799.010
381.029	17.516	1064.450	798.464
382.044	17.614	1063.251	797.954
383.059	17.559	1062.544	797.095
384.073	17.516	1061.747	796.222
385.088	17.577	1061.169	796.005
386.102	17.586	1060.169	795.225
387.117	17.662	1059.264	794.834
388.132	17.491	1058.474	793.371
389.146	17.465	1058.097	792.899
390.161	17.517	1056.991	792.240
391.175	17.622	1055.965	791.888
392.190	17.615	1055.617	791.529
393.205	17.706	1054.906	791.345
394.219	17.748	1053.575	790.471
395.234	17.806	1052.750	790.051
396.248	17.671	1052.144	788.904
397.263	17.642	1050.958	787.807
398.278	17.626	1050.512	787.332
399.292	17.589	1050.092	786.778
400.307	17.752	1049.022	786.656
401.321	17.769	1048.134	785.998
402.336	17.738	1047.520	785.328
403.350	17.900	1046.696	785.383
404.365	17.616	1046.676	783.992
405.380	17.810	1045.950	784.272
406.394	17.692	1045.160	783.066
407.409	17.911	1044.105	783.216
408.423	17.804	1043.652	782.313
409.438	17.910	1042.815	782.102
410.453	17.862	1042.082	781.264
411.467	17.979	1041.488	781.283
412.482	18.060	1040.501	780.844
413.496	18.066	1039.983	780.416
414.511	18.060	1039.325	779.824
415.526	18.102	1038.654	779.444
416.540	18.019	1038.761	779.077
417.555	18.150	1037.828	778.905
418.569	18.107	1037.312	778.251
419.584	18.147	1037.038	778.158
420.599	18.025	1036.698	777.283
421.613	105.453	1322.938	1470.071
422.628	96.740	1364.612	1470.149
