DTS Sentinel unit serial number:	SN413079Multiplexer serial number:	ORYXHardware model number:	OX4-SRSoftware version number:	ORYX F/W v4.00 Oryx Data Collector v3.7.2.0data status	okinstallation	princeton_trtdifferential loss correction	single-endedforward channel	channel 2reverse channel	N/Adate	2019/09/11time	23:41:11forward acquisition time	60.00reverse acquisition time	0.00gamma	496.2192k internal	0.2325k external	0.2325temperature offset calibration	1.0082default loss term (dB/km)	0.3790temperature slope calibration	1.0000multiplexer offset coefficient	1.0000multiplexer slope coefficient	1.0000fibre end	0.00T internal ref (°C)	34.08T ext. ref 1 (°C)	1.92T ext. ref 2 (°C)	28.17length (m)	temperature (°C)	Stokes	anti-Stokes-747.200	128.186	0.234	-0.300
-746.185	-89.655	-0.291	-0.086
-745.171	207.019	-0.182	0.287
-744.156	-200.000	-0.032	0.262
-743.142	386.145	-0.041	0.086
-742.127	-82.650	0.142	-0.047
-741.112	-200.000	0.021	-0.147
-740.098	-200.000	-0.009	0.424
-739.083	148.031	0.262	0.356
-738.069	46.785	0.164	-0.154
-737.054	432.185	0.062	-0.137
-736.039	116.232	-0.188	-0.233
-735.025	-3.528	-0.140	-0.099
-734.010	-27.579	-0.304	0.178
-732.996	193.805	-0.241	-0.368
-731.981	15.807	0.054	0.043
-730.966	-35.408	-0.363	-0.199
-729.952	300.406	-0.216	0.401
-728.937	-112.852	-0.366	0.073
-727.923	-200.000	-0.047	-0.294
-726.908	28.657	-0.273	-0.233
-725.894	-118.943	-0.252	0.045
-724.879	-200.000	0.030	-0.231
-723.864	-160.268	-0.050	0.003
-722.850	504.234	0.141	-0.328
-721.835	-200.000	0.012	0.178
-720.821	366.318	0.063	0.129
-719.806	48.368	-0.223	-0.210
-718.791	205.311	0.103	0.161
-717.777	800.000	-0.139	-0.405
-716.762	0.583	-0.147	-0.106
-715.748	20.858	0.047	-0.039
-714.733	800.000	-0.043	-0.162
-713.718	-31.065	0.096	0.054
-712.704	-200.000	-0.029	-0.274
-711.689	-163.312	-0.119	-0.006
-710.675	8.902	0.287	-0.218
-709.660	-200.000	0.054	0.304
-708.645	-81.069	0.230	-0.077
-707.631	547.187	0.091	0.219
-706.616	100.014	-0.333	-0.389
-705.602	109.672	-0.070	-0.085
-704.587	-200.000	0.014	0.147
-703.572	800.000	0.149	-0.483
-702.558	-29.707	-0.069	0.040
-701.543	730.050	0.091	0.246
-700.529	74.127	-0.245	0.259
-699.514	-84.372	0.009	-0.003
-698.499	127.991	0.157	-0.201
-697.485	-200.000	-0.002	-0.125
-696.470	-200.000	0.034	0.294
-695.456	-11.717	0.143	0.095
-694.441	3.819	0.133	-0.098
-693.426	-200.000	0.013	0.107
-692.412	197.893	-0.169	-0.260
-691.397	-35.715	0.245	-0.134
-690.383	575.464	0.130	-0.320
-689.368	65.018	0.188	-0.191
-688.354	-95.669	-0.503	-0.136
-687.339	-144.386	-0.157	0.015
-686.324	102.972	0.055	-0.065
-685.310	-115.246	-0.340	-0.065
-684.295	-12.260	0.250	-0.165
-683.281	-26.031	-0.057	0.034
-682.266	311.883	0.108	0.204
-681.251	-76.303	-0.061	-0.022
-680.237	-200.000	-0.005	0.148
-679.222	27.327	0.228	0.193
-678.208	-3.855	-0.188	-0.131
-677.193	-137.708	0.267	-0.030
-676.178	-79.453	0.549	0.187
-675.164	-86.267	-0.269	0.083
-674.149	-200.000	0.039	0.176
-673.135	161.380	-0.146	0.206
-672.120	-40.923	0.130	-0.068
-671.105	-2.353	-0.272	0.192
-670.091	97.785	-0.045	0.053
-669.076	121.987	-0.158	-0.198
-668.062	392.033	-0.135	0.283
-667.047	-200.000	0.016	0.253
-666.032	-148.247	0.218	0.018
-665.018	800.000	0.014	0.058
-664.003	-200.000	-0.031	-0.390
-662.989	75.771	-0.191	0.203
-661.974	-200.000	0.056	-0.255
-660.959	-98.793	-0.074	0.019
-659.945	-200.000	-0.038	-0.212
-658.930	-27.713	0.181	0.105
-657.916	-56.206	0.245	0.110
-656.901	-144.636	-0.328	-0.030
-655.886	50.624	-0.167	-0.158
-654.872	-32.085	0.156	-0.088
-653.857	-25.123	-0.333	0.198
-652.843	-91.235	0.237	0.068
-651.828	-88.423	0.129	-0.039
-650.814	-54.995	0.034	-0.015
-649.799	800.000	0.089	0.287
-648.784	-200.000	-0.021	-0.097
-647.770	-145.429	-0.254	0.023
-646.755	69.741	0.120	0.124
-645.741	39.149	-0.281	0.253
-644.726	-200.000	-0.023	0.150
-643.711	615.900	0.016	0.040
-642.697	-1.659	0.056	0.040
-641.682	11.116	-0.155	-0.119
-640.668	9.519	0.047	-0.036
-639.653	10.866	0.216	-0.166
-638.638	-82.632	0.203	-0.066
-637.624	-200.000	0.076	-0.352
-636.609	-200.000	-0.024	0.202
-635.595	-129.309	-0.287	0.040
-634.580	-103.728	-0.368	0.087
-633.565	800.000	0.024	0.067
-632.551	-84.100	0.113	-0.036
-631.536	696.823	-0.010	-0.027
-630.522	308.663	-0.151	-0.284
-629.507	-95.588	-0.164	-0.044
-628.492	-29.959	-0.263	0.150
-627.478	-200.000	0.044	-0.282
-626.463	514.874	0.088	0.207
-625.449	124.064	-0.143	-0.181
-624.434	-143.388	0.071	-0.007
-623.419	-87.173	0.059	0.018
-622.405	800.000	-0.071	-0.267
-621.390	-92.822	0.074	0.021
-620.376	136.091	-0.312	-0.408
-619.361	107.566	-0.346	-0.413
-618.346	563.825	0.219	-0.533
-617.332	800.000	-0.108	-0.453
-616.317	-30.057	-0.147	0.084
-615.303	19.753	-0.281	-0.227
-614.288	-147.540	-0.092	-0.008
-613.273	378.600	-0.043	-0.088
-612.259	330.718	-0.219	-0.424
-611.244	-18.753	0.334	0.209
-610.230	-72.754	0.071	-0.026
-609.215	-200.000	-0.017	-0.215
-608.201	620.060	0.077	0.194
-607.186	129.875	0.072	0.092
-606.171	402.870	0.082	0.173
-605.157	702.332	-0.035	0.094
-604.142	-145.314	0.206	-0.019
-603.128	-105.600	-0.072	0.016
-602.113	611.012	0.106	0.266
-601.098	-23.738	0.323	0.194
-600.084	-57.291	-0.074	0.033
-599.069	-85.122	-0.438	0.138
-598.055	-169.369	0.212	-0.008
-597.040	448.815	-0.059	0.131
-596.025	-200.000	-0.056	-0.407
-595.011	61.118	0.152	0.152
-593.996	290.009	0.102	0.186
-592.982	51.821	-0.092	0.087
-591.967	384.768	0.082	0.169
-590.952	-132.475	-0.116	0.015
-589.938	58.066	-0.193	0.190
-588.923	81.294	0.025	0.027
-587.909	800.000	-0.132	-0.402
-586.894	-121.184	-0.058	0.010
-585.879	800.000	0.087	0.271
-584.865	-1.805	0.210	0.148
-583.850	400.005	-0.054	0.113
-582.836	230.289	0.097	0.159
-581.821	229.979	-0.117	-0.191
-580.806	-162.699	-0.175	-0.009
-579.792	-200.000	0.033	-0.184
-578.777	224.145	0.037	-0.060
-577.763	-200.000	0.009	-0.179
-576.748	-200.000	0.020	0.099
-575.733	60.845	-0.215	-0.214
-574.719	-116.852	-0.452	-0.083
-573.704	17.590	-0.159	0.127
-572.690	298.310	-0.080	0.148
-571.675	800.000	-0.067	-0.208
-570.661	43.959	0.074	0.068
-569.646	800.000	0.048	-0.140
-568.631	-200.000	0.032	0.153
-567.617	-200.000	0.015	0.237
-566.602	5.337	-0.266	-0.197
-565.588	-200.000	-0.008	-0.038
-564.573	150.911	-0.026	-0.036
-563.558	340.392	-0.054	-0.107
-562.544	311.970	-0.065	-0.122
-561.529	5.502	0.321	-0.237
-560.515	29.934	0.112	-0.096
-559.500	16.933	0.199	-0.158
-558.485	-170.204	-0.406	-0.014
-557.471	531.465	-0.081	0.192
-556.456	280.225	0.152	-0.272
-555.442	230.344	0.214	-0.350
-554.427	-118.274	0.162	0.029
-553.412	800.000	-0.116	-0.463
-552.398	-123.707	-0.061	-0.010
-551.383	181.646	-0.110	-0.162
-550.369	-200.000	-0.009	-0.176
-549.354	-105.754	-0.296	0.067
-548.339	-47.456	-0.205	-0.100
-547.325	-26.578	-0.160	0.094
-546.310	800.000	-0.008	-0.030
-545.296	-200.000	0.034	-0.213
-544.281	-200.000	-0.025	0.170
-543.266	29.813	-0.187	-0.159
-542.252	29.912	-0.079	0.067
-541.237	800.000	0.038	-0.154
-540.223	-109.077	-0.460	0.098
-539.208	800.000	0.126	-0.383
-538.193	-57.318	-0.155	0.068
-537.179	800.000	0.028	0.112
-536.164	-106.870	0.045	-0.010
-535.150	-99.263	0.054	0.014
-534.135	-131.115	0.157	-0.021
-533.121	800.000	-0.123	-0.364
-532.106	-200.000	-0.008	0.105
-531.091	-1.673	0.217	0.153
-530.077	-74.658	-0.105	-0.038
-529.062	-164.225	0.093	-0.004
-528.048	-64.283	0.259	0.106
-527.033	-178.506	-0.107	-0.002
-526.018	-200.000	0.016	-0.181
-525.004	800.000	-0.075	-0.323
-523.989	-53.919	-0.164	-0.075
-522.975	-184.817	0.282	0.004
-521.960	-3.785	0.377	-0.262
-520.945	71.785	-0.214	-0.223
-519.931	-161.142	0.441	0.023
-518.916	800.000	-0.047	0.189
-517.902	800.000	-0.066	0.242
-516.887	-200.000	-0.021	-0.295
-515.872	-91.996	-0.127	-0.036
-514.858	-111.256	0.059	-0.012
-513.843	-191.723	-0.257	0.003
-512.829	-102.971	0.257	-0.061
-511.814	34.847	-0.064	0.056
-510.799	327.147	0.138	-0.265
-509.785	800.000	0.082	-0.244
-508.770	503.708	0.045	0.103
-507.756	115.733	-0.154	-0.188
-506.741	184.751	-0.267	-0.395
-505.726	-200.000	0.012	0.221
-504.712	120.241	0.134	-0.166
-503.697	-200.000	0.032	-0.202
-502.683	-200.000	-0.008	-0.204
-501.668	4.259	0.086	0.063
-500.653	45.517	0.186	-0.171
-499.639	136.595	-0.031	0.040
-498.624	38.754	-0.105	-0.094
-497.610	134.857	0.187	-0.243
-496.595	-11.543	-0.151	0.099
-495.581	707.957	0.117	0.310
-494.566	-200.000	0.027	-0.204
-493.551	194.853	-0.262	-0.397
-492.537	-67.988	0.105	0.041
-491.522	-40.774	-0.164	-0.085
-490.508	-200.000	-0.027	-0.191
-489.493	-98.903	0.064	-0.016
-488.478	62.426	0.192	0.191
-487.464	-94.250	0.229	-0.062
-486.449	-200.000	-0.061	0.448
-485.435	800.000	0.123	-0.439
-484.420	-155.480	0.247	0.016
-483.405	176.804	-0.068	0.098
-482.391	401.738	0.028	0.058
-481.376	-48.239	-0.368	0.178
-480.362	215.283	0.140	0.222
-479.347	800.000	0.066	-0.260
-478.332	39.394	-0.187	-0.168
-477.318	392.189	0.123	-0.256
-476.303	-97.023	0.387	-0.101
-475.289	-116.202	0.299	-0.055
-474.274	96.176	0.140	0.159
-473.259	-69.379	0.179	0.069
-472.245	178.228	0.041	-0.059
-471.230	412.720	0.137	-0.291
-470.216	-168.756	-0.034	-0.001
-469.201	81.287	0.181	-0.195
-468.186	-200.000	-0.025	-0.275
-467.172	-71.908	-0.190	-0.070
-466.157	-18.749	-0.228	0.142
-465.143	-121.366	-0.229	-0.038
-464.128	-127.617	-0.158	0.023
-463.113	-169.642	-0.390	0.014
-462.099	745.793	0.040	0.108
-461.084	357.937	-0.037	0.074
-460.070	-38.245	0.155	-0.082
-459.055	800.000	0.071	0.206
-458.040	-158.284	0.128	0.007
-457.026	-65.763	0.106	-0.042
-456.011	800.000	0.097	0.269
-454.997	717.631	-0.058	0.154
-453.982	211.073	-0.122	-0.191
-452.968	55.988	0.088	0.085
-451.953	156.880	-0.096	0.133
-450.938	-200.000	-0.037	0.227
-449.924	-149.630	-0.083	-0.006
-448.909	-107.590	-0.173	0.038
-447.895	-54.864	-0.390	0.176
-446.880	-73.505	-0.221	0.081
-445.865	655.700	-0.160	0.411
-444.851	279.964	-0.029	0.052
-443.836	-123.680	0.385	-0.061
-442.822	285.667	0.055	-0.099
-441.807	-200.000	-0.026	-0.172
-440.792	-70.906	0.279	0.105
-439.778	-136.896	-0.449	0.051
-438.763	515.100	0.059	-0.138
-437.749	-124.106	-0.113	0.018
-436.734	-200.000	-0.032	0.229
-435.719	-64.407	0.139	-0.057
-434.705	-191.332	-0.525	-0.005
-433.690	-95.689	0.307	0.082
-432.676	144.375	0.178	0.237
-431.661	-119.656	-0.059	-0.010
-430.646	-200.000	-0.015	0.250
-429.632	-109.085	-0.236	-0.050
-428.617	-86.702	-0.299	0.091
-427.603	675.189	-0.064	-0.164
-426.588	29.519	-0.132	-0.112
-425.573	-55.186	0.128	0.057
-424.559	-97.389	0.077	0.020
-423.544	-4.322	-0.201	0.139
-422.530	344.369	-0.102	0.200
-421.515	800.000	0.100	0.359
-420.500	-7.858	0.229	-0.154
-419.486	-58.995	-0.124	-0.053
-418.471	-200.000	-0.016	0.202
-417.457	608.518	-0.065	0.161
-416.442	-55.534	0.261	0.117
-415.428	-200.000	-0.011	0.047
-414.413	-119.000	0.331	0.058
-413.398	307.445	-0.059	0.109
-412.384	11.212	-0.312	0.238
-411.369	-128.158	0.088	-0.013
-410.355	253.237	-0.130	-0.221
-409.340	98.553	-0.062	0.071
-408.325	-179.223	-0.086	-0.002
-407.311	-136.593	0.240	-0.028
-406.296	-200.000	0.020	-0.262
-405.282	34.674	0.131	0.114
-404.267	800.000	-0.103	-0.333
-403.252	-53.264	0.204	-0.093
-402.238	-97.664	0.126	-0.033
-401.223	800.000	-0.065	0.258
-400.209	-49.592	-0.218	-0.103
-399.194	206.730	-0.195	-0.302
-398.179	800.000	-0.039	0.148
-397.165	-138.033	0.407	-0.045
-396.150	154.537	0.077	0.105
-395.136	-99.128	0.248	-0.063
-394.121	75.950	0.228	0.240
-393.106	800.000	-0.083	0.300
-392.092	-113.332	-0.182	0.035
-391.077	31.417	0.113	-0.097
-390.063	-153.736	0.185	0.013
-389.048	37.515	0.196	0.173
-388.033	160.124	0.103	0.143
-387.019	-55.683	0.156	0.070
-386.004	-84.267	-0.116	0.037
-384.990	235.491	-0.092	-0.151
-383.975	800.000	-0.086	0.310
-382.960	51.173	-0.100	0.095
-381.946	129.377	0.162	0.206
-380.931	85.486	0.106	0.116
-379.917	-200.000	0.027	0.238
-378.902	124.099	0.174	-0.218
-377.888	132.555	0.156	-0.200
-376.873	-26.833	-0.254	-0.148
-375.858	-67.086	-0.227	0.089
-374.844	112.426	0.210	0.253
-373.829	72.865	-0.200	0.207
-372.815	-1.641	0.204	0.143
-371.800	-32.728	0.248	0.137
-370.785	24.589	0.045	-0.037
-369.771	-200.000	-0.015	-0.343
-368.756	800.000	0.058	-0.180
-367.742	800.000	0.013	0.052
-366.727	536.727	-0.223	-0.528
-365.712	800.000	0.072	0.202
-364.698	213.759	-0.057	0.089
-363.683	31.532	0.147	-0.126
-362.669	131.933	-0.176	0.225
-361.654	46.134	0.202	0.186
-360.639	-79.782	0.232	-0.078
-359.625	-48.572	0.209	0.100
-358.610	341.918	-0.080	-0.156
-357.596	-136.841	0.227	-0.026
-356.581	800.000	-0.007	0.025
-355.566	-123.093	-0.320	0.051
-354.552	-144.331	0.260	-0.024
-353.537	341.441	0.098	-0.190
-352.523	-200.000	-0.046	-0.437
-351.508	-72.535	-0.219	-0.081
-350.493	-104.358	-0.263	-0.061
-349.479	800.000	0.061	0.168
-348.464	406.651	-0.186	0.390
-347.450	67.430	0.379	0.384
-346.435	-50.082	0.125	-0.059
-345.420	7.167	-0.149	0.111
-344.406	-200.000	0.029	-0.177
-343.391	66.670	-0.205	-0.208
-342.377	-39.241	0.316	0.165
-341.362	-200.000	0.016	-0.201
-340.348	291.707	0.116	-0.210
-339.333	142.839	-0.120	-0.158
-338.318	217.536	-0.154	-0.244
-337.304	479.385	-0.154	0.348
-336.289	-62.317	0.055	0.023
-335.275	-71.602	-0.300	-0.111
-334.260	800.000	-0.052	-0.193
-333.245	-110.852	-0.198	-0.040
-332.231	30.803	0.206	-0.175
-331.216	800.000	-0.034	-0.146
-330.202	222.913	-0.049	0.079
-329.187	800.000	-0.023	-0.087
-328.172	-154.140	-0.197	0.013
-327.158	800.000	0.121	-0.462
-326.143	-131.750	-0.007	0.001
-325.129	-130.400	0.076	-0.010
-324.114	-200.000	0.003	0.092
-323.099	184.515	-0.091	0.134
-322.085	38.177	0.135	0.119
-321.070	277.706	0.142	0.252
-320.056	50.783	-0.218	-0.205
-319.041	-200.000	-0.008	0.342
-318.026	491.030	-0.175	0.399
-317.012	10.484	0.053	0.040
-315.997	-189.061	-0.053	0.001
-314.983	-57.760	-0.070	-0.031
-313.968	479.794	-0.081	0.182
-312.953	-94.977	-0.207	-0.055
-311.939	-200.000	-0.008	0.367
-310.924	-97.394	-0.168	0.043
-309.910	-131.925	-0.161	0.021
-308.895	-61.888	-0.130	-0.054
-307.880	198.515	0.056	-0.084
-306.866	771.695	-0.176	-0.477
-305.851	-200.000	-0.062	-0.287
-304.837	33.917	0.109	-0.094
-303.822	-33.142	-0.337	-0.185
-302.807	-135.797	0.371	0.044
-301.793	-70.221	0.287	-0.108
-300.778	679.596	-0.076	-0.196
-299.764	698.340	0.072	0.188
-298.749	-29.954	-0.087	-0.049
-297.735	-110.582	-0.035	0.007
-296.720	-6.661	-0.215	0.145
-295.705	-200.000	-0.056	0.274
-294.691	-200.000	0.033	0.316
-293.676	-131.908	0.357	0.046
-292.662	-52.308	-0.010	-0.004
-291.647	800.000	0.117	-0.379
-290.632	-200.000	-0.034	0.474
-289.618	-200.000	-0.001	0.104
-288.603	59.041	0.175	-0.170
-287.589	-118.805	0.276	0.048
-286.574	-84.653	0.299	-0.093
-285.559	4.173	-0.203	0.147
-284.545	544.862	-0.033	0.078
-283.530	800.000	0.042	-0.152
-282.516	-79.767	0.086	-0.029
-281.501	-47.359	0.098	-0.047
-280.486	-73.820	0.231	-0.083
-279.472	-41.965	-0.365	-0.185
-278.457	-170.147	0.092	-0.003
-277.443	800.000	0.062	0.212
-276.428	235.427	-0.136	0.222
-275.413	-23.261	-0.076	-0.045
-274.399	-200.000	-0.009	0.282
-273.384	-200.000	-0.046	0.337
-272.370	25.396	0.187	0.154
-271.355	-83.035	0.329	0.105
-270.340	-30.378	-0.097	0.054
-269.326	-149.769	-0.209	-0.016
-268.311	-26.014	0.280	-0.163
-267.297	-200.000	0.003	0.025
-266.282	800.000	0.044	0.149
-265.267	138.753	0.199	0.259
-264.253	126.957	0.185	0.232
-263.238	-70.497	-0.080	0.030
-262.224	-25.917	-0.045	-0.026
-261.209	-200.000	0.001	0.067
-260.195	12.709	-0.228	-0.174
-259.180	-161.245	-0.106	-0.005
-258.165	800.000	0.067	-0.191
-257.151	-7.081	-0.132	-0.089
-256.136	-30.736	-0.010	-0.005
-255.122	3.336	-0.096	0.069
-254.107	800.000	0.048	0.181
-253.092	-30.817	0.385	0.215
-252.078	-130.076	0.196	-0.027
-251.063	406.661	-0.219	0.457
-250.049	0.829	-0.210	0.149
-249.034	-115.879	0.288	0.053
-248.019	800.000	-0.068	0.244
-247.005	-142.815	0.034	0.003
-245.990	9.189	0.348	-0.260
-244.976	-200.000	-0.012	0.141
-243.961	43.455	-0.075	0.067
-242.946	-172.246	-0.039	0.001
-241.932	-13.621	0.372	0.238
-240.917	-106.094	0.099	-0.022
-239.903	-164.048	0.249	-0.011
-238.888	201.815	-0.164	0.250
-237.873	81.885	0.072	-0.078
-236.859	700.377	0.063	0.165
-235.844	-200.000	-0.006	-0.095
-234.830	162.114	-0.181	0.251
-233.815	97.083	0.358	0.407
-232.800	-19.398	-0.112	0.069
-231.786	16.291	0.229	-0.178
-230.771	-200.000	0.028	-0.168
-229.757	73.268	0.270	-0.279
-228.742	123.174	-0.092	-0.114
-227.727	407.612	-0.104	-0.218
-226.713	333.442	0.044	-0.085
-225.698	-28.251	0.086	-0.049
-224.684	151.499	0.264	0.356
-223.669	288.125	0.240	-0.430
-222.655	-200.000	-0.000	0.556
-221.640	800.000	0.075	0.269
-220.625	-36.744	0.106	-0.057
-219.611	451.569	-0.092	-0.200
-218.596	-165.984	-0.270	-0.011
-217.582	-94.125	-0.272	0.074
-216.567	800.000	-0.103	-0.283
-215.552	-51.893	0.289	-0.133
-214.538	-23.559	0.216	0.128
-213.523	37.107	-0.167	0.146
-212.509	800.000	0.054	-0.157
-211.494	-53.795	0.420	0.189
-210.479	220.371	-0.077	-0.122
-209.465	-4.536	-0.125	-0.085
-208.450	-19.022	0.157	0.096
-207.436	-79.214	0.232	-0.078
-206.421	-19.710	0.106	-0.065
-205.406	547.720	-0.054	-0.128
-204.392	171.263	-0.043	0.061
-203.377	800.000	0.034	-0.106
-202.363	88.121	0.247	0.271
-201.348	206.221	-0.103	0.158
-200.333	-109.017	-0.278	-0.058
-199.319	-200.000	0.008	0.050
-198.304	-200.000	-0.023	0.273
-197.290	7.155	0.113	0.083
-196.275	-200.000	-0.034	0.282
-195.260	86.851	-0.089	0.097
-194.246	-165.425	-0.198	-0.009
-193.231	-200.000	0.066	-0.363
-192.217	-100.280	-0.234	0.057
-191.202	30.841	0.084	-0.071
-190.187	5.843	0.208	-0.152
-189.173	-29.568	0.164	-0.092
-188.158	-76.880	0.268	0.093
-187.144	-70.938	0.148	0.055
-186.129	-90.164	-0.275	-0.079
-185.114	776.845	-0.185	-0.500
-184.100	432.268	-0.015	0.032
-183.085	762.517	-0.107	0.287
-182.071	-65.436	0.274	0.109
-181.056	-153.629	-0.231	0.016
-180.042	800.000	-0.037	0.102
-179.027	-57.946	-0.271	0.117
-178.012	-200.000	-0.006	0.112
-176.998	-33.446	0.118	-0.065
-175.983	16.000	-0.058	-0.045
-174.969	-79.900	-0.259	-0.086
-173.954	35.148	-0.420	-0.363
-172.939	-28.596	0.197	-0.112
-171.925	-129.225	0.248	-0.034
-170.910	-123.431	0.185	-0.029
-169.896	-58.570	-0.013	0.006
-168.881	313.407	-0.091	0.169
-167.866	-59.304	-0.255	-0.108
-166.852	-95.122	0.303	-0.081
-165.837	129.768	0.061	0.077
-164.823	-163.401	-0.247	0.012
-163.808	34.542	-0.368	-0.317
-162.793	-97.224	-0.176	-0.045
-161.779	-200.000	-0.004	0.250
-160.764	-84.521	-0.302	-0.094
-159.750	-200.000	0.040	0.288
-158.735	-141.982	0.255	0.025
-157.720	-44.763	-0.174	0.086
-156.706	342.335	0.073	0.142
-155.691	286.369	0.164	0.292
-154.677	39.189	0.287	0.253
-153.662	800.000	-0.087	0.298
-152.647	88.938	0.081	-0.088
-151.633	706.478	-0.061	0.158
-150.618	-95.309	-0.256	0.068
-149.604	280.206	0.219	0.386
-148.589	-200.000	0.039	-0.363
-147.574	-50.002	0.222	-0.104
-146.560	146.539	-0.139	-0.184
-145.545	-124.119	0.178	-0.028
-144.531	800.000	0.091	-0.286
-143.516	-38.839	0.259	0.135
-142.502	220.057	-0.034	0.053
-141.487	89.904	-0.021	0.023
-140.472	-117.451	0.257	-0.046
-139.458	27.024	0.248	-0.205
-138.443	-33.004	-0.306	-0.168
-137.429	-69.061	0.052	0.020
-136.414	-135.043	-0.195	0.023
-135.399	-200.000	0.050	-0.464
-134.385	800.000	0.030	-0.083
-133.370	4.149	-0.097	0.070
-132.356	69.745	0.085	-0.086
-131.341	-77.131	-0.208	-0.071
-130.326	-99.152	0.417	0.104
-129.312	4.287	0.133	0.096
-128.297	-98.172	-0.280	-0.071
-127.283	-200.000	-0.021	0.256
-126.268	-14.498	0.255	-0.161
-125.253	46.542	0.076	-0.070
-124.239	10.104	0.064	-0.048
-123.224	-200.000	-0.043	-0.462
-122.210	-99.725	-0.311	-0.077
-121.195	177.366	-0.202	0.290
-120.180	-37.642	-0.139	0.073
-119.166	-86.405	0.180	-0.055
-118.151	182.026	0.127	0.184
-117.137	305.428	0.019	-0.034
-116.122	-44.841	-0.309	0.152
-115.107	-86.814	-0.229	0.069
-114.093	-22.719	0.123	-0.073
-113.078	552.742	-0.030	0.071
-112.064	213.811	0.262	0.407
-111.049	-102.313	-0.424	-0.100
-110.034	800.000	-0.036	0.105
-109.020	-111.975	0.220	-0.044
-108.005	-200.000	-0.036	0.192
-106.991	-114.469	-0.250	0.047
-105.976	61.623	0.289	0.283
-104.962	-99.888	-0.167	0.041
-103.947	-64.883	-0.306	-0.122
-102.932	800.000	0.107	-0.319
-101.918	381.608	0.108	0.217
-100.903	-200.000	-0.031	0.340
-99.889	-153.927	0.402	0.027
-98.874	0.018	0.225	-0.158
-97.859	-102.058	0.178	-0.042
-96.845	-21.137	-0.239	-0.144
-95.830	-53.184	-0.190	-0.086
-94.816	225.796	0.051	-0.081
-93.801	-13.705	-0.057	-0.036
-92.786	728.973	0.052	0.136
-91.772	-134.895	-0.134	-0.016
-90.757	622.751	0.057	-0.141
-89.743	-200.000	-0.005	0.143
-88.728	-172.353	-0.122	-0.004
-87.713	120.286	0.124	0.152
-86.699	59.299	0.205	-0.199
-85.684	216.993	-0.036	0.057
-84.670	-171.996	0.120	-0.004
-83.655	124.285	-0.133	0.164
-82.640	17.108	0.281	0.219
-81.626	38.170	0.024	0.021
-80.611	268.514	0.052	-0.090
-79.597	-115.674	-0.332	0.061
-78.582	-121.346	0.285	0.047
-77.567	-200.000	-0.027	0.285
-76.553	-113.534	0.164	-0.032
-75.538	-73.996	-0.223	-0.079
-74.524	437.095	0.144	0.307
-73.509	-9.012	-0.272	0.179
-72.494	-200.000	-0.018	-0.510
-71.480	65.354	0.101	0.100
-70.465	348.379	-0.074	0.144
-69.451	-115.275	-0.184	-0.034
-68.436	8.685	-0.240	-0.178
-67.422	-39.539	0.097	0.050
-66.407	-200.000	0.012	0.120
-65.392	-145.402	-0.191	0.017
-64.378	-3.694	-0.226	0.155
-63.363	47.337	-0.088	0.080
-62.349	-200.000	-0.111	0.589
-61.334	27.703	-1.044	-0.864
-60.319	-200.000	0.094	0.582
-59.305	-200.000	0.177	-1.000
-58.290	93.130	0.699	0.776
-57.276	-200.000	0.312	1.653
-56.261	-200.000	97.750	586.316
-55.246	545.298	1395.856	3276.699
-54.232	153.909	2596.649	3496.829
-53.217	106.923	2281.502	2661.222
-52.203	43.269	1899.564	1703.851
-51.188	37.339	1690.551	1471.572
-50.173	34.537	1646.915	1412.815
-49.159	52.219	1694.661	1586.879
-48.144	54.974	1711.397	1623.138
-47.130	36.876	1669.528	1449.575
-46.115	34.098	1654.126	1415.514
-45.100	33.949	1649.337	1410.255
-44.086	33.917	1646.868	1407.846
-43.071	33.995	1643.463	1405.458
-42.057	33.962	1641.503	1403.482
-41.042	33.809	1640.131	1401.125
-40.027	34.045	1637.388	1400.468
-39.013	33.946	1635.561	1398.117
-37.998	33.901	1634.472	1396.804
-36.984	33.972	1632.824	1395.857
-35.969	34.114	1631.179	1395.440
-34.954	34.139	1629.785	1394.372
-33.940	34.065	1627.712	1392.004
-32.925	34.065	1626.268	1390.716
-31.911	34.015	1624.337	1388.643
-30.896	34.045	1622.408	1387.153
-29.881	34.051	1620.873	1385.836
-28.867	34.007	1619.401	1384.200
-27.852	34.071	1617.481	1382.972
-26.838	34.066	1616.214	1381.792
-25.823	34.070	1615.072	1380.792
-24.809	34.060	1613.987	1379.737
-23.794	34.060	1611.911	1377.909
-22.779	34.118	1610.252	1376.852
-21.765	34.123	1608.683	1375.493
-20.750	34.115	1607.533	1374.398
-19.736	34.100	1606.021	1372.945
-18.721	34.117	1604.155	1371.419
-17.706	34.121	1603.037	1370.431
-16.692	34.145	1601.254	1369.029
-15.677	34.159	1600.431	1368.373
-14.663	34.055	1598.868	1366.237
-13.648	34.053	1597.471	1364.971
-12.633	34.100	1595.839	1363.863
-11.619	34.185	1594.278	1363.079
-10.604	34.169	1592.909	1361.742
-9.590	34.102	1591.143	1359.700
-8.575	34.207	1589.702	1359.159
-7.560	34.140	1589.081	1358.099
-6.546	34.096	1588.145	1356.935
-5.531	34.149	1586.872	1356.171
-4.517	34.166	1585.436	1355.005
-3.502	34.052	1584.938	1353.718
-2.487	34.179	1582.839	1352.775
-1.473	33.746	1571.805	1340.237
-0.458	31.056	1552.382	1304.828
0.556	27.822	1552.800	1273.962
1.571	25.584	1577.249	1278.023
2.586	25.243	1591.997	1287.410
3.600	22.674	1538.530	1226.227
4.615	12.916	1426.936	1073.945
5.629	3.641	1359.840	965.567
6.644	2.026	1351.074	949.216
7.659	1.920	1349.223	947.175
8.673	1.927	1347.662	946.041
9.688	1.808	1346.367	944.307
10.702	1.627	1342.907	940.681
11.717	5.185	1350.182	967.778
12.731	15.430	1369.998	1046.051
13.746	23.871	1384.459	1109.935
14.761	26.042	1386.714	1125.198
15.775	26.220	1386.071	1125.690
16.790	26.391	1385.608	1126.281
17.804	26.441	1384.924	1125.934
18.819	26.546	1385.180	1126.694
19.834	26.675	1384.706	1127.012
20.848	26.711	1383.753	1126.360
21.863	26.626	1383.486	1125.518
22.877	26.643	1382.614	1124.815
23.892	26.768	1381.106	1124.262
24.907	26.768	1380.822	1123.929
25.921	26.678	1379.520	1122.214
26.936	26.630	1378.745	1121.186
27.950	26.743	1377.222	1120.548
28.965	26.792	1375.946	1119.714
29.980	26.706	1374.786	1118.142
30.994	26.661	1373.559	1116.767
32.009	26.801	1372.241	1116.456
33.023	26.790	1371.052	1115.323
34.038	26.660	1370.477	1113.961
35.053	26.742	1369.326	1113.430
36.067	26.855	1368.022	1112.964
37.082	26.669	1367.491	1111.289
38.096	26.630	1366.856	1110.438
39.111	26.756	1365.602	1110.095
40.126	26.761	1365.117	1109.631
41.140	26.734	1364.405	1108.788
42.155	26.682	1364.629	1108.556
43.169	26.646	1364.687	1108.283
44.184	26.722	1363.995	1108.088
45.199	26.783	1363.463	1107.932
46.213	26.775	1362.739	1107.196
47.228	26.825	1361.748	1106.594
48.242	26.698	1360.872	1105.015
49.257	26.683	1359.600	1103.788
50.271	26.749	1357.697	1102.550
51.286	26.715	1356.338	1101.139
52.301	26.705	1355.817	1100.560
53.315	26.686	1354.313	1099.129
54.330	26.705	1354.047	1098.928
55.344	26.715	1352.896	1097.958
56.359	26.651	1351.217	1096.112
57.374	26.763	1350.347	1095.985
58.388	26.660	1350.159	1095.113
59.403	26.717	1349.558	1094.875
60.417	26.697	1349.237	1094.398
61.432	26.753	1347.961	1093.598
62.447	26.568	1348.035	1092.446
63.461	26.690	1346.609	1091.935
64.476	26.675	1345.541	1090.877
65.490	26.720	1344.365	1090.100
66.505	26.702	1342.781	1088.613
67.520	26.621	1341.581	1087.052
68.534	26.717	1340.584	1086.726
69.549	26.779	1339.525	1086.145
70.563	26.748	1338.480	1085.014
71.578	26.775	1337.581	1084.349
72.593	26.736	1336.640	1083.258
73.607	26.685	1336.066	1082.394
74.622	26.782	1335.365	1082.310
75.636	26.703	1334.918	1081.378
76.651	26.730	1334.203	1080.867
77.666	26.784	1333.151	1080.237
78.680	26.797	1333.227	1080.282
79.695	26.607	1332.168	1078.199
80.709	26.746	1331.456	1078.351
81.724	26.711	1330.478	1077.260
82.739	26.833	1329.790	1077.332
83.753	26.615	1328.973	1075.276
84.768	26.686	1327.678	1074.559
85.782	26.734	1326.780	1074.022
86.797	26.787	1325.649	1073.320
87.812	26.766	1324.095	1071.844
88.826	26.707	1323.523	1070.938
89.841	26.718	1322.492	1070.078
90.855	26.843	1321.424	1069.854
91.870	26.727	1320.991	1068.725
92.884	26.820	1319.841	1068.248
93.899	26.679	1319.112	1066.734
94.914	26.823	1317.971	1066.563
95.928	26.761	1316.970	1065.294
96.943	26.788	1316.510	1064.988
97.957	26.783	1315.735	1064.235
98.972	26.890	1315.096	1064.250
99.987	26.789	1314.298	1062.917
101.001	26.733	1313.271	1061.668
102.016	26.711	1312.300	1060.659
103.030	26.695	1311.312	1059.674
104.045	26.746	1310.903	1059.548
105.060	26.751	1309.632	1058.458
106.074	26.852	1308.627	1058.140
107.089	26.852	1307.603	1057.219
108.103	26.831	1306.798	1056.353
109.118	26.777	1305.566	1054.950
110.133	26.873	1304.429	1054.491
111.147	26.904	1303.116	1053.516
112.162	26.868	1302.435	1052.667
113.176	26.845	1301.574	1051.741
114.191	26.896	1300.670	1051.214
115.206	26.926	1299.264	1050.160
116.220	26.836	1298.291	1048.762
117.235	26.909	1297.752	1048.654
118.249	26.839	1296.719	1047.321
119.264	26.758	1295.984	1046.170
120.279	26.856	1295.021	1045.865
121.293	26.859	1294.109	1045.054
122.308	26.904	1293.430	1044.672
123.322	26.832	1292.860	1043.705
124.337	26.948	1291.919	1043.516
125.352	26.975	1290.719	1042.610
126.366	26.987	1289.973	1041.988
127.381	26.811	1289.579	1040.565
128.395	26.953	1288.419	1040.351
129.410	26.861	1288.002	1039.394
130.424	26.988	1286.763	1039.028
131.439	26.859	1286.650	1038.111
132.454	26.929	1285.155	1037.208
133.468	26.908	1284.574	1036.529
134.483	26.929	1284.172	1036.232
135.497	26.888	1283.365	1035.257
136.512	26.791	1282.312	1033.762
137.527	26.961	1281.360	1033.872
138.541	26.940	1280.113	1032.655
139.556	26.965	1278.582	1031.469
140.570	27.000	1277.653	1030.830
141.585	26.905	1276.807	1029.518
142.600	26.926	1275.886	1028.799
143.614	26.955	1274.981	1028.145
144.629	27.009	1273.599	1027.245
145.643	26.873	1272.929	1025.844
146.658	26.801	1271.907	1024.524
147.673	26.898	1270.765	1024.060
148.687	26.856	1269.992	1023.108
149.702	26.749	1269.024	1021.638
150.716	26.847	1267.844	1021.150
151.731	26.818	1267.007	1020.222
152.746	26.818	1265.968	1019.295
153.760	26.820	1265.247	1018.636
154.775	26.837	1264.045	1017.674
155.789	26.989	1263.077	1017.653
156.804	26.796	1262.619	1016.113
157.819	26.902	1261.592	1015.792
158.833	26.909	1261.120	1015.363
159.848	26.934	1260.185	1014.659
160.862	27.067	1259.294	1014.593
161.877	26.949	1258.669	1013.340
162.892	26.881	1258.155	1012.458
163.906	27.025	1257.183	1012.390
164.921	26.959	1256.570	1011.440
165.935	27.094	1255.607	1011.327
166.950	26.921	1255.313	1010.038
167.964	26.996	1254.802	1009.952
168.979	26.970	1253.879	1008.975
169.994	27.040	1253.507	1008.974
171.008	26.892	1253.120	1007.752
172.023	26.932	1252.087	1007.059
173.037	26.908	1251.257	1006.164
174.052	27.013	1250.387	1005.958
175.067	27.058	1249.467	1005.381
176.081	27.033	1249.008	1004.782
177.096	27.008	1248.138	1003.858
178.110	27.058	1247.148	1003.245
179.125	26.967	1246.701	1002.293
180.140	27.105	1245.109	1001.689
181.154	27.030	1244.382	1000.602
182.169	27.074	1242.929	999.588
183.183	27.022	1241.992	998.460
184.198	27.035	1241.268	997.861
185.213	26.998	1240.302	996.793
186.227	27.186	1238.913	996.618
187.242	27.145	1238.480	995.958
188.256	27.082	1237.381	994.642
189.271	27.111	1236.725	994.185
190.286	27.109	1236.248	993.703
191.300	26.991	1235.838	992.639
192.315	26.939	1235.119	991.689
193.329	27.026	1234.644	991.696
194.344	27.130	1234.118	991.752
195.359	27.119	1233.481	991.092
196.373	27.025	1233.196	990.262
197.388	27.004	1232.784	989.730
198.402	27.014	1232.416	989.402
199.417	26.990	1231.944	988.806
200.432	27.158	1231.172	989.009
201.446	27.093	1230.628	988.134
202.461	27.079	1229.994	987.461
203.475	27.104	1229.298	986.953
204.490	27.053	1228.284	985.771
205.504	27.136	1227.298	985.344
206.519	27.197	1226.180	984.689
207.534	27.181	1225.130	983.675
208.548	27.154	1224.562	982.983
209.563	27.196	1223.882	982.578
210.577	27.222	1223.145	982.038
211.592	27.150	1222.055	980.688
212.607	27.197	1221.656	980.534
213.621	27.193	1220.837	979.772
214.636	27.270	1219.705	979.191
215.650	27.232	1219.386	978.643
216.665	27.246	1218.023	977.535
217.680	27.223	1217.211	976.674
218.694	27.300	1216.465	976.404
219.709	27.326	1216.078	976.148
220.723	27.275	1215.023	974.938
221.738	27.243	1214.296	974.100
222.753	27.256	1213.793	973.676
223.767	27.312	1212.878	973.159
224.782	27.308	1212.800	972.987
225.796	27.240	1212.374	972.194
226.811	27.353	1211.440	971.967
227.826	27.275	1210.931	971.053
228.840	27.270	1210.697	970.752
229.855	27.391	1209.410	970.282
230.869	27.340	1209.148	969.714
231.884	27.397	1207.764	968.821
232.899	27.260	1207.871	968.089
233.913	27.391	1206.850	967.884
234.928	27.472	1206.716	968.124
235.942	27.371	1205.831	966.792
236.957	27.328	1205.615	966.301
237.972	27.386	1204.322	965.490
238.986	27.331	1204.405	965.176
240.001	27.428	1203.355	964.764
241.015	27.528	1202.364	964.413
242.030	27.575	1201.555	963.927
243.045	27.543	1200.891	963.144
244.059	27.516	1200.266	962.414
245.074	27.529	1199.252	961.584
246.088	27.521	1198.851	961.133
247.103	27.450	1197.835	959.861
248.117	27.525	1196.743	959.294
249.132	27.422	1196.269	958.287
250.147	27.613	1195.253	958.396
251.161	27.629	1194.879	958.094
252.176	27.620	1194.102	957.339
253.190	27.607	1193.611	956.792
254.205	27.616	1192.986	956.251
255.220	27.629	1192.438	955.799
256.234	27.553	1192.167	955.097
257.249	27.618	1191.188	954.570
258.263	27.586	1190.650	953.883
259.278	27.611	1190.281	953.634
260.293	27.578	1190.039	953.185
261.307	27.634	1189.289	952.794
262.322	27.601	1188.559	951.951
263.336	27.608	1187.872	951.351
264.351	27.618	1186.841	950.497
265.366	27.592	1186.825	950.263
266.380	27.720	1185.630	949.889
267.395	27.760	1184.634	949.216
268.409	27.508	1184.374	947.611
269.424	27.593	1183.692	947.422
270.439	27.661	1183.220	947.315
271.453	27.650	1182.778	946.819
272.468	27.593	1181.907	945.746
273.482	27.641	1181.387	945.495
274.497	27.808	1180.789	945.797
275.512	27.754	1180.291	945.032
276.526	27.734	1179.580	944.278
277.541	27.799	1179.142	944.181
278.555	27.808	1178.043	943.262
279.570	27.852	1177.490	942.964
280.585	27.787	1176.705	941.919
281.599	27.768	1175.713	940.940
282.614	27.780	1175.038	940.381
283.628	27.774	1174.148	939.551
284.643	27.771	1173.318	938.791
285.657	27.794	1172.441	938.125
286.672	27.814	1171.427	937.330
287.687	27.740	1170.888	936.437
288.701	27.878	1170.263	936.562
289.716	27.827	1169.780	935.831
290.730	27.979	1168.838	935.773
291.745	28.005	1168.160	935.280
292.760	27.886	1167.718	934.235
293.774	27.989	1166.977	934.087
294.789	27.981	1166.167	933.314
295.803	28.105	1165.919	933.669
296.818	27.923	1165.579	932.383
297.833	27.951	1164.571	931.636
298.847	28.087	1163.688	931.543
299.862	27.951	1163.405	930.542
300.876	27.930	1162.529	929.652
301.891	27.989	1162.213	929.617
302.906	28.092	1161.184	929.235
303.920	28.122	1161.310	929.405
304.935	27.986	1160.725	928.162
305.949	28.105	1159.296	927.541
306.964	28.090	1158.661	926.876
307.979	27.982	1158.404	926.042
308.993	28.063	1157.934	925.994
310.008	28.118	1157.072	925.502
311.022	28.082	1156.092	924.454
312.037	28.125	1155.454	924.077
313.052	28.191	1154.388	923.476
314.066	28.065	1154.026	922.469
315.081	28.111	1153.230	921.985
316.095	28.124	1152.518	921.398
317.110	28.179	1151.772	920.995
318.125	28.244	1151.218	920.798
319.139	28.238	1150.494	920.111
320.154	28.162	1149.907	919.175
321.168	28.110	1149.864	918.800
322.183	28.084	1149.336	918.165
323.197	28.128	1148.545	917.673
324.212	28.119	1147.845	916.990
325.227	28.137	1147.578	916.784
326.241	28.398	1146.488	917.139
327.256	28.258	1146.403	916.287
328.270	28.202	1145.399	915.127
329.285	28.242	1144.530	914.552
330.300	28.343	1143.232	913.935
331.314	28.249	1142.848	913.076
332.329	28.311	1142.240	912.821
333.343	28.357	1141.327	912.239
334.358	28.312	1140.584	911.344
335.373	28.191	1140.636	910.702
336.387	28.341	1139.463	910.432
337.402	28.343	1138.768	909.803
338.416	28.373	1138.032	909.283
339.431	28.432	1137.320	908.928
340.446	28.361	1136.803	908.080
341.460	28.439	1136.273	907.966
342.475	28.349	1135.989	907.210
343.489	28.512	1134.374	906.645
344.504	28.504	1133.448	905.785
345.519	28.518	1132.685	905.165
346.533	28.473	1132.286	904.545
347.548	28.476	1131.463	903.824
348.562	28.437	1130.607	902.866
349.577	28.530	1129.631	902.464
350.592	28.481	1129.146	901.755
351.606	28.457	1128.734	901.231
352.621	28.527	1128.072	900.963
353.635	28.455	1127.737	900.263
354.650	28.514	1127.416	900.216
355.665	28.489	1126.368	899.177
356.679	28.618	1125.225	898.821
357.694	28.595	1125.074	898.504
358.708	28.620	1124.325	897.951
359.723	28.628	1123.599	897.330
360.738	28.548	1122.991	896.374
361.752	28.531	1122.903	896.142
362.767	28.551	1122.120	895.534
363.781	28.670	1121.404	895.464
364.796	28.648	1120.540	894.589
365.810	28.589	1120.749	894.389
366.825	28.681	1119.844	894.037
367.840	28.689	1119.627	893.822
368.854	28.768	1118.668	893.363
369.869	28.737	1117.912	892.530
370.883	28.811	1117.231	892.264
371.898	28.879	1116.113	891.622
372.913	28.742	1115.777	890.613
373.927	28.757	1115.830	890.649
374.942	28.802	1115.069	890.180
375.956	28.888	1114.392	889.976
376.971	28.801	1113.966	889.135
377.986	28.766	1113.510	888.525
379.000	28.923	1112.951	888.758
380.015	28.995	1112.418	888.600
381.029	28.939	1111.661	887.649
382.044	28.932	1110.752	886.809
383.059	29.016	1109.720	886.314
384.073	28.978	1109.605	885.957
385.088	28.962	1109.045	885.356
386.102	28.959	1107.590	884.105
387.117	28.925	1107.057	883.436
388.132	28.926	1106.014	882.532
389.146	28.953	1105.813	882.422
390.161	29.036	1105.083	882.159
391.175	29.005	1104.554	881.511
392.190	29.043	1103.813	881.023
393.205	29.122	1102.936	880.621
394.219	28.981	1102.407	879.449
395.234	28.946	1102.048	878.915
396.248	29.171	1100.767	878.893
397.263	29.139	1099.651	877.771
398.278	29.103	1099.538	877.431
399.292	29.068	1099.005	876.762
400.307	29.246	1097.988	876.716
401.321	29.150	1097.340	875.668
402.336	29.090	1096.886	874.942
403.350	29.157	1096.323	874.734
404.365	29.227	1095.660	874.461
405.380	29.153	1095.094	873.581
406.394	29.276	1094.104	873.296
407.409	29.199	1093.595	872.448
408.423	29.207	1092.984	871.919
409.438	29.415	1092.229	872.225
410.453	29.379	1091.380	871.300
411.467	29.337	1090.786	870.547
412.482	29.223	1090.175	869.448
413.496	29.208	1089.731	868.947
414.511	29.327	1088.717	868.621
415.526	29.235	1088.459	867.903
416.540	29.311	1088.057	867.866
417.555	29.300	1087.349	867.171
418.569	29.279	1086.948	866.678
419.584	29.344	1086.674	866.686
420.599	29.393	1086.210	866.470
421.613	102.758	1318.840	1448.816
422.628	95.722	1352.702	1448.939
