DTS Sentinel unit serial number:	SN413079Multiplexer serial number:	ORYXHardware model number:	OX4-SRSoftware version number:	ORYX F/W v4.00 Oryx Data Collector v3.7.2.0data status	okinstallation	princeton_trtdifferential loss correction	single-endedforward channel	channel 2reverse channel	N/Adate	2019/09/11time	04:13:11forward acquisition time	60.00reverse acquisition time	0.00gamma	496.2192k internal	0.2328k external	0.2328temperature offset calibration	0.9940default loss term (dB/km)	0.3790temperature slope calibration	1.0000multiplexer offset coefficient	1.0000multiplexer slope coefficient	1.0000fibre end	0.00T internal ref (°C)	29.56T ext. ref 1 (°C)	-0.30T ext. ref 2 (°C)	23.40length (m)	temperature (°C)	Stokes	anti-Stokes-747.200	-35.216	0.322	-0.177
-746.185	204.584	0.151	0.235
-745.171	800.000	-0.072	0.226
-744.156	-200.000	0.006	0.466
-743.142	-88.949	0.293	0.087
-742.127	-99.797	-0.340	-0.086
-741.112	195.211	-0.060	-0.091
-740.098	800.000	-0.028	0.086
-739.083	667.307	-0.114	-0.298
-738.069	-66.375	-0.108	-0.043
-737.054	-131.674	-0.086	-0.011
-736.039	11.251	-0.162	0.125
-735.025	28.600	-0.122	0.104
-734.010	58.965	-0.143	-0.142
-732.996	-69.633	-0.204	-0.079
-731.981	130.878	-0.120	-0.155
-730.966	254.440	0.166	-0.285
-729.952	800.000	0.031	0.116
-728.937	800.000	-0.067	-0.194
-727.923	-13.869	-0.299	-0.195
-726.908	395.768	-0.050	-0.106
-725.894	-18.547	0.079	-0.050
-724.879	-58.711	-0.294	-0.128
-723.864	682.280	-0.083	0.217
-722.850	-63.097	0.252	0.105
-721.835	-200.000	-0.024	-0.493
-720.821	800.000	-0.043	-0.164
-719.806	198.596	-0.168	-0.259
-718.791	239.034	-0.127	-0.213
-717.777	50.249	-0.196	-0.187
-716.762	-49.875	-0.151	-0.072
-715.748	152.978	0.114	0.157
-714.733	101.467	0.190	-0.223
-713.718	-153.106	-0.196	-0.014
-712.704	-96.977	-0.152	-0.040
-711.689	-116.485	0.485	0.090
-710.675	72.757	-0.093	0.098
-709.660	-200.000	-0.047	0.331
-708.645	-142.072	-0.392	-0.039
-707.631	-73.104	0.195	0.072
-706.616	-200.000	0.107	0.579
-705.602	-200.000	0.014	-0.112
-704.587	-200.000	0.039	-0.267
-703.572	124.615	-0.176	-0.222
-702.558	100.028	0.218	-0.255
-701.543	82.330	0.215	0.234
-700.529	31.303	0.355	-0.307
-699.514	-58.892	0.166	0.072
-698.499	-11.074	0.226	0.150
-697.485	-46.020	0.257	-0.127
-696.470	-151.050	-0.119	-0.009
-695.456	619.036	0.054	0.136
-694.441	-78.270	-0.372	0.128
-693.426	-200.000	0.040	0.319
-692.412	-142.577	-0.208	0.021
-691.397	-144.475	0.179	-0.017
-690.383	-18.618	-0.152	-0.095
-689.368	-104.668	0.327	0.076
-688.354	-119.680	-0.054	-0.009
-687.339	-102.694	-0.360	-0.086
-686.324	110.233	0.192	0.232
-685.310	800.000	-0.068	-0.240
-684.295	292.697	-0.142	0.260
-683.281	800.000	-0.129	0.462
-682.266	12.578	-0.192	-0.149
-681.251	-125.979	0.213	0.032
-680.237	510.355	0.071	0.166
-679.222	800.000	-0.064	-0.235
-678.208	101.592	0.185	-0.216
-677.193	68.356	-0.160	0.165
-676.178	-33.597	0.249	0.138
-675.164	800.000	-0.044	0.154
-674.149	218.442	-0.038	0.061
-673.135	148.227	0.120	0.163
-672.120	-66.259	0.124	-0.049
-671.105	160.133	-0.227	-0.318
-670.091	-14.516	0.125	0.081
-669.076	-26.506	-0.251	-0.148
-668.062	-99.057	-0.315	0.080
-667.047	-29.824	-0.139	-0.080
-666.032	-117.640	0.072	0.013
-665.018	-200.000	0.023	-0.179
-664.003	-119.665	0.292	0.051
-662.989	263.942	-0.177	0.310
-661.974	346.115	-0.042	0.083
-660.959	800.000	0.014	-0.041
-659.945	202.945	-0.131	0.203
-658.930	-10.948	0.228	-0.151
-657.916	800.000	-0.067	0.263
-656.901	-37.101	-0.145	0.078
-655.886	-98.413	-0.144	0.037
-654.872	-147.635	0.162	-0.014
-653.857	-85.051	0.240	0.076
-652.843	65.110	-0.072	0.073
-651.828	-200.000	-0.040	0.311
-650.814	800.000	-0.057	0.168
-649.799	-200.000	0.043	-0.233
-648.784	150.482	0.127	-0.173
-647.770	-71.044	-0.090	0.034
-646.755	102.355	-0.079	0.092
-645.741	800.000	-0.092	-0.304
-644.726	197.110	0.161	0.246
-643.711	800.000	0.055	0.185
-642.697	-140.661	-0.279	-0.029
-641.682	-149.567	0.400	-0.032
-640.668	397.857	0.028	0.059
-639.653	-77.900	-0.212	-0.073
-638.638	-42.467	0.182	-0.093
-637.624	-200.000	-0.019	-0.195
-636.609	272.999	0.156	-0.276
-635.595	23.122	-0.142	-0.117
-634.580	117.906	0.103	-0.127
-633.565	256.375	0.037	-0.064
-632.551	15.767	0.226	-0.179
-631.536	124.845	0.037	-0.047
-630.522	-56.559	0.180	-0.080
-629.507	85.617	-0.126	-0.139
-628.492	103.474	-0.142	0.167
-627.478	800.000	-0.036	0.125
-626.463	128.529	0.087	0.111
-625.449	-199.345	-0.261	0.001
-624.434	-30.250	-0.242	-0.138
-623.419	-96.515	0.373	0.099
-622.405	-200.000	0.002	-0.281
-621.390	91.727	-0.096	-0.109
-620.376	-102.608	0.171	0.041
-619.361	-66.485	-0.173	-0.069
-618.346	-178.673	-0.460	-0.011
-617.332	358.569	0.043	0.087
-616.317	-39.580	0.160	0.084
-615.303	336.780	-0.050	-0.097
-614.288	800.000	-0.094	-0.312
-613.273	131.937	-0.132	-0.170
-612.259	800.000	-0.056	0.193
-611.244	-200.000	-0.053	-0.248
-610.230	-74.371	0.124	0.045
-609.215	-200.000	-0.027	-0.318
-608.201	45.370	-0.201	-0.186
-607.186	-72.507	0.388	0.144
-606.171	274.598	0.121	-0.215
-605.157	-169.616	-0.129	-0.005
-604.142	75.978	-0.366	-0.388
-603.128	800.000	0.044	-0.160
-602.113	-45.548	-0.511	0.253
-601.098	48.815	-0.275	0.259
-600.084	108.730	0.145	0.174
-599.069	-27.053	-0.219	0.128
-598.055	-39.282	0.201	-0.106
-597.040	-200.000	0.079	-0.391
-596.025	-149.465	0.235	0.019
-595.011	-50.794	-0.271	-0.128
-593.996	-200.000	-0.005	0.215
-592.982	800.000	0.044	0.137
-591.967	-77.320	0.228	-0.080
-590.952	800.000	0.017	-0.061
-589.938	214.033	-0.297	0.470
-588.923	-136.072	-0.154	0.018
-587.909	601.368	-0.135	-0.336
-586.894	33.139	-0.146	-0.127
-585.879	-200.000	0.028	0.146
-584.865	-117.934	-0.077	-0.014
-583.850	88.015	-0.174	-0.194
-582.836	-200.000	0.008	0.051
-581.821	114.862	0.209	-0.256
-580.806	31.206	0.067	-0.057
-579.792	-123.553	-0.030	-0.005
-578.777	-4.117	0.139	0.096
-577.763	-139.301	-0.072	-0.008
-576.748	-200.000	-0.016	-0.388
-575.733	800.000	0.050	-0.169
-574.719	-115.117	-0.059	0.011
-573.704	-97.148	-0.195	0.051
-572.690	211.312	0.152	0.239
-571.675	-105.403	-0.098	-0.022
-570.661	-124.633	-0.374	-0.058
-569.646	-200.000	0.004	0.054
-568.631	224.234	-0.099	-0.159
-567.617	-200.000	0.118	-0.000
-566.602	108.372	0.081	-0.096
-565.588	-79.792	0.068	-0.023
-564.573	-79.627	0.210	0.071
-563.558	-200.000	-0.023	-0.377
-562.544	-56.560	-0.141	-0.062
-561.529	-200.000	-0.025	0.311
-560.515	-143.279	-0.108	-0.010
-559.500	800.000	-0.033	-0.096
-558.485	-145.024	0.175	0.016
-557.471	800.000	-0.042	0.116
-556.456	-24.516	0.251	-0.150
-555.442	55.149	-0.250	-0.241
-554.427	-200.000	-0.080	0.397
-553.412	293.531	-0.134	0.244
-552.398	-60.433	-0.113	-0.048
-551.383	193.800	0.035	-0.053
-550.369	-200.000	-0.036	0.506
-549.354	800.000	0.042	0.171
-548.339	-76.896	-0.316	-0.110
-547.325	75.477	0.155	-0.164
-546.310	96.995	-0.129	0.148
-545.296	-16.901	-0.122	-0.077
-544.281	376.430	-0.051	0.103
-543.266	-200.000	0.031	-0.229
-542.252	228.968	-0.136	0.221
-541.237	-38.608	0.250	-0.132
-540.223	-35.808	-0.301	-0.163
-539.208	800.000	0.035	0.106
-538.193	-30.151	-0.205	0.117
-537.179	118.739	-0.192	0.237
-536.164	56.765	0.253	0.246
-535.150	-26.825	-0.340	0.199
-534.135	-200.000	-0.016	-0.286
-533.121	-3.986	0.202	-0.140
-532.106	800.000	-0.095	-0.304
-531.091	-200.000	0.039	-0.187
-530.077	7.911	-0.037	0.028
-529.062	-142.182	-0.281	0.028
-528.048	-183.005	0.261	0.005
-527.033	-71.101	0.101	0.038
-526.018	800.000	0.080	0.300
-525.004	-19.003	0.218	-0.135
-523.989	378.982	-0.070	-0.143
-522.975	-200.000	-0.008	0.056
-521.960	84.985	0.379	-0.415
-520.945	-200.000	0.003	-0.378
-519.931	-66.813	0.294	0.116
-518.916	190.704	0.114	0.172
-517.902	-200.000	0.019	0.107
-516.887	101.617	-0.144	-0.168
-515.872	800.000	0.041	0.172
-514.858	447.338	0.070	0.153
-513.843	-152.368	-0.111	-0.008
-512.829	-200.000	-0.039	-0.249
-511.814	-200.000	-0.026	-0.252
-510.799	-94.383	0.309	0.084
-509.785	800.000	-0.056	-0.227
-508.770	458.994	-0.115	-0.255
-507.756	49.025	0.182	-0.170
-506.741	-126.726	-0.179	-0.026
-505.726	-200.000	0.037	-0.237
-504.712	180.273	-0.072	-0.106
-503.697	-4.235	-0.152	0.105
-502.683	-116.208	0.444	-0.082
-501.668	-7.558	-0.197	-0.133
-500.653	-160.153	-0.114	0.006
-499.639	-200.000	0.047	-0.257
-498.624	-44.429	0.301	0.150
-497.610	800.000	-0.031	0.119
-496.595	-200.000	0.007	-0.279
-495.581	-66.402	-0.207	-0.082
-494.566	285.733	0.056	-0.101
-493.551	-200.000	-0.008	0.226
-492.537	563.515	0.040	-0.096
-491.522	-44.566	0.149	0.074
-490.508	-43.799	-0.103	-0.052
-489.493	-166.308	-0.341	-0.014
-488.478	-200.000	0.014	-0.206
-487.464	95.801	-0.197	-0.224
-486.449	-42.920	0.068	0.034
-485.435	342.846	0.153	-0.300
-484.420	-108.607	-0.581	0.124
-483.405	611.890	-0.004	-0.009
-482.391	-20.246	0.316	-0.194
-481.376	220.679	-0.124	0.198
-480.362	-200.000	0.013	0.341
-479.347	-38.599	-0.143	-0.075
-478.332	-137.331	-0.394	-0.045
-477.318	129.710	0.151	0.193
-476.303	199.518	0.087	0.133
-475.289	-21.510	0.124	-0.076
-474.274	-200.000	0.007	0.037
-473.259	275.414	-0.104	0.184
-472.245	-119.719	0.192	-0.033
-471.230	-11.849	-0.390	0.255
-470.216	-71.636	0.283	0.105
-469.201	-130.736	-0.159	0.021
-468.186	-78.608	0.362	0.123
-467.172	272.505	-0.030	0.052
-466.157	1.989	-0.284	0.204
-465.143	-200.000	0.004	0.078
-464.128	521.419	0.150	-0.351
-463.113	-17.247	0.159	0.100
-462.099	183.915	-0.138	0.203
-461.084	-19.011	-0.182	0.113
-460.070	-200.000	-0.057	0.332
-459.055	-72.145	0.376	-0.139
-458.040	110.111	-0.221	-0.265
-457.026	-170.308	0.312	-0.011
-456.011	-92.282	0.197	-0.055
-454.997	15.006	0.131	0.103
-453.982	366.408	-0.137	0.275
-452.968	35.551	0.132	-0.115
-451.953	154.146	-0.161	-0.220
-450.938	-200.000	-0.037	0.227
-449.924	-81.413	0.376	-0.123
-448.909	800.000	0.036	0.117
-447.895	44.787	-0.174	0.159
-446.880	138.905	0.095	0.124
-445.865	800.000	0.088	-0.347
-444.851	-187.818	0.197	0.003
-443.836	-85.208	0.461	0.143
-442.822	-129.807	0.381	-0.052
-441.807	-113.346	-0.144	-0.028
-440.792	800.000	0.064	-0.270
-439.778	-128.881	0.238	-0.033
-438.763	-14.395	-0.147	-0.094
-437.749	541.766	0.085	0.203
-436.734	800.000	-0.017	0.068
-435.719	-132.804	-0.048	-0.006
-434.705	800.000	0.096	-0.359
-433.690	470.768	-0.051	-0.113
-432.676	-134.892	-0.283	0.034
-431.661	102.931	0.131	-0.152
-430.646	167.959	-0.077	-0.110
-429.632	384.771	0.115	0.237
-428.617	-19.747	-0.119	0.073
-427.603	574.382	0.111	-0.271
-426.588	-14.226	0.101	0.065
-425.573	-200.000	0.012	-0.247
-424.559	86.016	0.033	0.036
-423.544	163.946	-0.030	0.041
-422.530	-181.477	-0.127	-0.002
-421.515	85.701	-0.162	0.177
-420.500	9.385	-0.266	-0.200
-419.486	360.234	0.024	-0.048
-418.471	44.413	-0.133	0.121
-417.457	33.505	-0.057	0.049
-416.442	-2.882	0.059	-0.041
-415.428	-49.678	0.039	0.018
-414.413	-29.046	-0.224	-0.128
-413.398	48.120	0.173	0.161
-412.384	-62.548	0.155	0.064
-411.369	-18.135	-0.249	-0.155
-410.355	-124.330	0.241	-0.037
-409.340	105.808	-0.147	0.173
-408.325	-200.000	-0.017	0.242
-407.311	-200.000	-0.078	0.368
-406.296	305.295	-0.069	0.128
-405.282	-15.895	-0.244	0.155
-404.267	800.000	0.144	0.441
-403.252	18.531	0.164	-0.130
-402.238	-116.163	-0.224	0.041
-401.223	382.932	0.108	-0.222
-400.209	-200.000	0.013	-0.064
-399.194	-152.776	0.089	-0.006
-398.179	-61.467	-0.144	0.060
-397.165	132.097	-0.234	0.300
-396.150	-197.588	-0.104	0.001
-395.136	277.508	0.097	0.172
-394.121	800.000	-0.068	-0.262
-393.106	-133.409	-0.222	-0.028
-392.092	88.089	0.180	0.198
-391.077	165.646	-0.044	0.062
-390.063	122.318	0.257	0.319
-389.048	-200.000	0.019	0.374
-388.033	-54.935	-0.218	0.098
-387.019	-37.863	0.274	0.145
-386.004	110.072	0.048	-0.057
-384.990	-200.000	0.003	0.026
-383.975	-114.875	0.022	-0.004
-382.960	800.000	0.094	0.288
-381.946	800.000	0.026	-0.113
-380.931	-111.141	0.107	-0.022
-379.917	-103.897	0.325	0.075
-378.902	-118.558	0.350	0.061
-377.888	198.399	-0.077	-0.118
-376.873	105.005	-0.093	0.109
-375.858	-7.036	0.252	-0.170
-374.844	800.000	-0.036	-0.157
-373.829	493.412	0.133	0.303
-372.815	-84.285	-0.172	0.054
-371.800	114.324	0.226	0.274
-370.785	414.571	-0.105	-0.222
-369.771	734.397	0.152	-0.405
-368.756	178.862	-0.094	0.136
-367.742	-106.532	-0.100	-0.022
-366.727	-118.970	-0.259	-0.045
-365.712	-137.694	-0.091	-0.010
-364.698	-7.848	0.130	0.087
-363.683	-18.235	-0.064	0.040
-362.669	-200.000	0.013	-0.480
-361.654	-55.570	-0.396	0.176
-360.639	-30.648	-0.248	0.140
-359.625	-200.000	0.005	0.103
-358.610	800.000	-0.030	0.091
-357.596	40.093	0.089	0.080
-356.581	98.277	-0.140	-0.160
-355.566	0.974	0.293	-0.209
-354.552	-45.398	-0.107	0.052
-353.537	-186.429	-0.091	-0.001
-352.523	-26.239	-0.164	-0.096
-351.508	-28.488	0.078	0.044
-350.493	649.145	-0.131	-0.333
-349.479	800.000	0.068	0.242
-348.464	-81.633	-0.201	0.065
-347.450	-19.712	-0.091	0.056
-346.435	28.368	0.302	0.253
-345.420	-43.838	-0.213	0.106
-344.406	104.578	-0.125	0.146
-343.391	-128.033	0.258	-0.037
-342.377	193.192	-0.157	-0.235
-341.362	139.785	0.217	0.284
-340.348	-158.641	0.261	-0.015
-339.333	617.904	-0.140	-0.348
-338.318	-200.000	0.009	0.381
-337.304	-147.614	0.399	-0.033
-336.289	89.483	-0.170	0.188
-335.275	-44.953	0.116	0.057
-334.260	-1.829	-0.295	-0.206
-333.245	146.254	0.115	0.153
-332.231	501.545	-0.053	-0.121
-331.216	-127.658	0.106	0.015
-330.202	-161.950	-0.126	0.006
-329.187	-160.614	-0.327	0.017
-328.172	-200.000	-0.006	-0.056
-327.158	-69.221	-0.126	-0.048
-326.143	31.255	-0.255	0.217
-325.129	444.452	0.004	0.009
-324.114	-12.464	0.093	-0.060
-323.099	-110.031	0.416	0.086
-322.085	-122.752	-0.279	-0.045
-321.070	-113.421	-0.032	0.006
-320.056	-109.729	-0.230	0.048
-319.041	128.779	-0.042	-0.053
-318.026	800.000	-0.049	0.194
-317.012	392.011	-0.139	-0.286
-315.997	-164.554	0.248	-0.011
-314.983	131.259	-0.176	0.224
-313.968	800.000	-0.112	-0.312
-312.953	-200.000	-0.021	-0.429
-311.939	800.000	0.026	-0.108
-310.924	800.000	-0.047	0.130
-309.910	75.935	0.182	0.190
-308.895	42.643	0.178	0.160
-307.880	469.609	0.101	-0.225
-306.866	-200.000	-0.018	0.096
-305.851	28.278	-0.166	0.139
-304.837	-46.313	-0.243	0.118
-303.822	92.831	0.202	0.226
-302.807	-200.000	-0.024	-0.192
-301.793	166.671	0.104	0.145
-300.778	246.138	0.069	-0.115
-299.764	800.000	-0.036	-0.138
-298.749	-56.376	0.134	0.059
-297.735	-200.000	-0.073	-0.323
-296.720	-175.677	-0.218	0.006
-295.705	48.911	-0.281	0.261
-294.691	-86.948	-0.393	-0.119
-293.676	329.092	0.045	0.085
-292.662	-200.000	0.009	0.153
-291.647	-16.037	0.154	0.097
-290.632	244.366	-0.044	0.074
-289.618	-104.331	-0.234	0.054
-288.603	19.184	0.127	0.101
-287.589	-170.787	0.129	0.004
-286.574	-163.367	0.189	0.009
-285.559	68.921	-0.034	-0.035
-284.545	-186.637	0.226	0.003
-283.530	-59.451	0.132	0.056
-282.516	-68.727	0.291	0.111
-281.501	405.819	-0.040	0.083
-280.486	-200.000	-0.016	-0.130
-279.472	-200.000	0.040	-0.237
-278.457	175.431	-0.142	0.204
-277.443	380.201	0.129	-0.262
-276.428	-10.314	-0.102	0.067
-275.413	800.000	-0.054	-0.151
-274.399	314.399	-0.106	-0.197
-273.384	-200.000	0.006	0.130
-272.370	271.555	0.062	-0.108
-271.355	-8.929	-0.097	-0.064
-270.340	275.053	-0.081	0.142
-269.326	800.000	-0.107	-0.456
-268.311	-200.000	0.064	0.298
-267.297	54.998	0.211	0.201
-266.282	100.689	0.267	0.307
-265.267	-44.419	0.231	-0.114
-264.253	-148.783	0.239	0.019
-263.238	230.120	0.111	0.179
-262.224	-21.779	0.133	-0.080
-261.209	-200.000	-0.001	-0.320
-260.195	-117.294	-0.239	-0.043
-259.180	140.934	0.102	0.133
-258.165	206.129	0.081	-0.124
-257.151	711.808	-0.051	0.133
-256.136	-32.450	0.263	-0.145
-255.122	-189.305	0.301	0.004
-254.107	44.013	0.210	0.190
-253.092	120.964	-0.126	-0.155
-252.078	93.082	0.223	0.249
-251.063	-123.556	-0.238	0.037
-250.049	-105.027	-0.329	0.074
-249.034	249.922	-0.025	-0.042
-248.019	-101.755	-0.283	-0.068
-247.005	-31.573	0.161	0.090
-245.990	154.238	-0.190	-0.257
-244.976	-59.574	-0.112	-0.048
-243.961	-130.450	0.105	0.014
-242.946	7.703	-0.217	0.161
-241.932	462.508	-0.196	-0.433
-240.917	-200.000	-0.049	0.269
-239.903	-122.722	-0.383	-0.061
-238.888	-3.288	0.323	0.223
-237.873	-131.245	0.510	0.067
-236.859	240.104	0.145	-0.238
-235.844	78.716	0.016	0.017
-234.830	471.415	0.113	0.250
-233.815	800.000	-0.088	0.279
-232.800	189.088	-0.243	0.359
-231.786	-200.000	-0.053	0.391
-230.771	-59.517	0.376	-0.160
-229.757	-200.000	0.015	0.125
-228.742	-18.441	0.247	-0.152
-227.727	173.038	0.136	0.194
-226.713	-116.017	0.189	-0.035
-225.698	128.536	-0.137	0.173
-224.684	155.939	0.070	0.096
-223.669	45.133	-0.308	0.280
-222.655	660.413	-0.126	-0.321
-221.640	8.282	0.225	-0.167
-220.625	387.962	-0.051	0.104
-219.611	800.000	-0.049	-0.163
-218.596	116.041	0.139	0.168
-217.582	150.735	0.067	0.090
-216.567	-8.121	0.143	0.095
-215.552	-116.274	-0.368	-0.067
-214.538	-200.000	0.004	0.118
-213.523	20.342	0.244	0.194
-212.509	198.551	-0.169	-0.256
-211.494	777.984	0.062	0.168
-210.479	-131.068	-0.248	0.033
-209.465	-141.789	0.073	-0.007
-208.450	-111.173	-0.276	0.056
-207.436	-121.713	-0.125	-0.020
-206.421	-104.853	-0.125	-0.028
-205.406	178.248	-0.028	0.040
-204.392	545.033	0.088	0.208
-203.377	797.135	0.020	0.054
-202.363	-27.825	0.274	0.156
-201.348	139.899	0.182	-0.237
-200.333	-168.226	-0.033	-0.001
-199.319	73.119	-0.234	-0.241
-198.304	202.448	-0.051	0.078
-197.290	-34.723	0.112	-0.060
-196.275	282.416	0.116	0.204
-195.260	-78.380	0.029	-0.010
-194.246	-200.000	-0.006	0.311
-193.231	-56.681	0.249	-0.109
-192.217	-200.000	0.010	-0.349
-191.202	-200.000	0.061	-0.478
-190.187	-102.130	0.260	0.062
-189.173	-5.367	0.040	-0.027
-188.158	800.000	0.035	-0.120
-187.144	98.727	-0.213	0.243
-186.129	-36.639	0.344	0.182
-185.114	-111.884	0.286	0.057
-184.100	316.316	0.111	0.207
-183.085	568.350	0.038	0.091
-182.071	-200.000	-0.001	-0.113
-181.056	800.000	0.122	-0.366
-180.042	800.000	-0.059	0.186
-179.027	-200.000	0.010	-0.157
-178.012	0.231	0.222	0.156
-176.998	676.007	-0.035	0.089
-175.983	104.600	0.084	0.098
-174.969	57.971	-0.170	0.164
-173.954	-40.691	-0.282	0.144
-172.939	229.817	-0.064	0.103
-171.925	105.033	-0.136	-0.158
-170.910	800.000	0.075	-0.231
-169.896	-200.000	-0.045	-0.308
-168.881	-54.755	-0.116	0.052
-167.866	-102.257	0.124	0.029
-166.852	-61.405	-0.259	-0.107
-165.837	-200.000	-0.005	0.039
-164.823	64.213	-0.035	-0.035
-163.808	21.199	-0.268	0.214
-162.793	604.701	0.026	0.063
-161.779	800.000	-0.125	-0.356
-160.764	-130.957	0.146	0.019
-159.750	800.000	-0.037	-0.115
-158.735	103.775	0.142	-0.165
-157.720	-51.395	0.131	0.060
-156.706	-35.385	0.190	-0.102
-155.691	-200.000	-0.007	0.409
-154.677	95.382	0.158	0.177
-153.662	-18.404	0.041	-0.025
-152.647	460.062	-0.068	0.150
-151.633	-200.000	-0.048	-0.231
-150.618	3.441	0.269	-0.193
-149.604	345.752	0.068	0.132
-148.589	205.776	0.166	0.253
-147.574	133.443	-0.149	-0.190
-146.560	167.007	-0.116	0.162
-145.545	-151.859	0.171	-0.012
-144.531	-79.693	-0.381	-0.126
-143.516	-200.000	-0.002	-0.186
-142.502	-50.355	-0.187	-0.087
-141.487	-51.096	-0.104	-0.048
-140.472	-200.000	-0.035	0.401
-139.458	-107.974	0.057	-0.012
-138.443	-175.108	-0.295	0.008
-137.429	800.000	0.122	-0.345
-136.414	307.735	0.003	-0.006
-135.399	672.253	0.103	0.264
-134.385	800.000	-0.031	-0.113
-133.370	122.418	0.423	-0.520
-132.356	585.804	0.043	-0.104
-131.341	537.979	0.026	-0.061
-130.326	400.758	-0.313	0.646
-129.312	-77.815	-0.066	-0.022
-128.297	-139.306	0.373	-0.039
-127.283	-18.358	0.462	-0.284
-126.268	-200.000	-0.012	0.218
-125.253	404.730	-0.091	-0.188
-124.239	-138.286	0.091	-0.010
-123.224	95.479	-0.102	-0.115
-122.210	800.000	-0.063	-0.219
-121.195	116.068	0.199	0.239
-120.180	-90.877	0.346	0.098
-119.166	800.000	-0.059	-0.247
-118.151	46.947	-0.260	0.237
-117.137	483.647	-0.079	-0.177
-116.122	190.777	0.187	-0.277
-115.107	346.663	-0.195	0.378
-114.093	-148.532	-0.132	0.011
-113.078	800.000	-0.030	0.089
-112.064	-158.375	-0.559	0.032
-111.049	227.456	0.022	-0.036
-110.034	54.047	-0.152	0.144
-109.020	11.172	0.303	0.228
-108.005	-200.000	-0.040	-0.187
-106.991	-200.000	-0.056	0.328
-105.976	-182.689	-0.393	0.007
-104.962	-200.000	-0.065	0.300
-103.947	-141.561	-0.431	0.043
-102.932	-75.309	0.198	-0.069
-101.918	233.144	0.081	0.130
-100.903	199.326	-0.067	0.100
-99.889	800.000	0.156	0.425
-98.874	12.091	0.187	0.141
-97.859	-143.133	-0.468	-0.044
-96.845	76.206	-0.082	0.085
-95.830	64.983	-0.157	0.156
-94.816	800.000	-0.141	0.386
-93.801	-61.522	0.214	0.088
-92.786	539.657	0.069	-0.161
-91.772	-25.616	0.177	0.103
-90.757	-70.278	-0.213	0.079
-89.743	-200.000	0.026	-0.208
-88.728	83.732	0.300	0.321
-87.713	-117.256	-0.235	-0.042
-86.699	501.241	0.088	-0.198
-85.684	-196.448	0.407	0.003
-84.670	-44.390	-0.030	0.015
-83.655	-22.727	0.104	0.062
-82.640	800.000	-0.064	-0.271
-81.626	800.000	-0.073	0.289
-80.611	-200.000	0.062	-0.268
-79.597	-200.000	0.031	0.326
-78.582	-109.647	0.073	0.015
-77.567	1.013	-0.257	-0.181
-76.553	-32.964	0.242	-0.132
-75.538	252.842	0.082	0.137
-74.524	-40.973	-0.067	0.034
-73.509	344.242	0.089	-0.171
-72.494	147.056	-0.107	0.141
-71.480	-200.000	0.046	0.210
-70.465	-17.134	0.379	0.235
-69.451	-136.055	0.155	0.018
-68.436	-16.203	0.044	0.028
-67.422	274.898	0.176	0.306
-66.407	-8.288	0.255	0.168
-65.392	713.497	-0.134	0.350
-64.378	268.808	0.045	0.077
-63.363	-200.000	-0.041	-0.284
-62.349	-68.918	0.130	0.049
-61.334	78.549	-1.084	-1.136
-60.319	88.162	0.461	0.502
-59.305	800.000	-0.235	-0.942
-58.290	181.620	0.710	1.025
-57.276	286.695	0.867	1.536
-56.261	-200.000	105.984	611.976
-55.246	501.358	1508.257	3415.188
-54.232	174.526	2710.319	3844.177
-53.217	104.810	2301.673	2660.820
-52.203	38.643	1905.746	1667.325
-51.188	32.605	1691.415	1433.967
-50.173	30.109	1647.629	1378.251
-49.159	49.096	1701.570	1567.379
-48.144	49.360	1716.864	1583.400
-47.130	32.358	1674.138	1417.231
-46.115	29.620	1659.699	1384.468
-45.100	29.423	1654.982	1379.007
-44.086	29.510	1652.239	1377.314
-43.071	29.488	1649.345	1374.683
-42.057	29.396	1647.356	1372.283
-41.042	29.474	1645.229	1371.038
-40.027	29.429	1643.364	1369.094
-39.013	29.494	1640.866	1367.443
-37.998	29.444	1639.383	1365.782
-36.984	29.385	1638.592	1364.634
-35.969	29.645	1636.530	1364.784
-34.954	29.660	1635.158	1363.692
-33.940	29.571	1633.435	1361.544
-32.925	29.494	1631.662	1359.450
-31.911	29.558	1629.950	1358.437
-30.896	29.473	1628.193	1356.298
-29.881	29.452	1626.451	1354.640
-28.867	29.519	1624.706	1353.620
-27.852	29.496	1623.597	1352.476
-26.838	29.539	1622.203	1351.576
-25.823	29.548	1620.857	1350.465
-24.809	29.585	1619.730	1349.743
-23.794	29.657	1618.187	1348.932
-22.779	29.607	1616.599	1347.185
-21.765	29.590	1614.387	1345.170
-20.750	29.532	1613.187	1343.695
-19.736	29.633	1611.637	1343.081
-18.721	29.651	1610.500	1342.214
-17.706	29.569	1609.387	1340.636
-16.692	29.645	1607.611	1339.653
-15.677	29.647	1605.830	1338.133
-14.663	29.639	1604.789	1337.150
-13.648	29.583	1603.095	1335.280
-12.633	29.653	1601.788	1334.646
-11.619	29.532	1600.999	1333.061
-10.604	29.599	1599.039	1331.861
-9.590	29.611	1597.894	1330.945
-8.575	29.600	1596.379	1329.551
-7.560	29.583	1595.709	1328.817
-6.546	29.566	1594.337	1327.499
-5.531	29.597	1593.709	1327.147
-4.517	29.624	1591.976	1325.842
-3.502	29.591	1591.310	1324.995
-2.487	29.660	1589.614	1324.029
-1.473	29.353	1577.603	1311.788
-0.458	26.637	1558.483	1276.722
0.556	20.775	1560.938	1246.526
1.571	18.707	1585.487	1250.966
2.586	18.473	1598.950	1259.756
3.600	16.711	1546.681	1205.933
4.615	8.855	1436.532	1067.789
5.629	1.264	1372.623	971.726
6.644	-0.159	1364.072	956.532
7.659	-0.311	1363.217	954.880
8.673	-0.358	1362.141	953.741
9.688	-0.362	1360.112	952.210
10.702	-0.566	1357.341	948.896
11.717	3.042	1364.391	976.692
12.731	12.480	1381.749	1049.521
13.746	19.762	1394.040	1105.492
14.761	21.637	1396.852	1119.623
15.775	21.983	1396.341	1121.329
16.790	21.977	1395.741	1120.710
17.804	22.032	1395.240	1120.559
18.819	22.240	1395.292	1121.824
19.834	22.396	1394.158	1121.808
20.848	22.422	1393.881	1121.654
21.863	22.440	1392.792	1120.790
22.877	22.525	1391.368	1120.090
23.892	22.286	1391.508	1118.581
24.907	22.458	1390.340	1118.633
25.921	22.509	1389.097	1117.863
26.936	22.442	1388.548	1116.898
27.950	22.462	1387.278	1115.901
28.965	22.381	1386.190	1114.415
29.980	22.350	1385.210	1113.334
30.994	22.431	1383.736	1112.558
32.009	22.385	1382.933	1111.523
33.023	22.376	1381.681	1110.362
34.038	22.498	1380.396	1110.006
35.053	22.520	1379.468	1109.294
36.067	22.409	1378.713	1107.892
37.082	22.418	1377.677	1107.021
38.096	22.506	1376.548	1106.567
39.111	22.301	1376.399	1105.063
40.126	22.483	1375.281	1105.211
41.140	22.485	1374.972	1104.876
42.155	22.416	1374.490	1103.959
43.169	22.340	1374.457	1103.358
44.184	22.503	1373.809	1103.761
45.199	22.466	1373.537	1103.212
46.213	22.512	1372.846	1102.848
47.228	22.413	1372.138	1101.561
48.242	22.435	1371.149	1100.809
49.257	22.429	1369.315	1099.201
50.271	22.402	1367.931	1097.822
51.286	22.503	1366.415	1097.142
52.301	22.421	1365.899	1096.115
53.315	22.394	1364.960	1095.097
54.330	22.370	1364.133	1094.190
55.344	22.292	1362.652	1092.419
56.359	22.393	1361.869	1092.323
57.374	22.454	1360.909	1091.836
58.388	22.493	1360.011	1091.257
59.403	22.479	1359.646	1090.784
60.417	22.353	1359.252	1089.588
61.432	22.465	1357.942	1089.136
62.447	22.416	1357.199	1088.143
63.461	22.306	1356.274	1086.621
64.476	22.480	1355.394	1086.896
65.490	22.519	1353.938	1085.871
66.505	22.477	1352.309	1084.209
67.520	22.383	1351.666	1083.025
68.534	22.541	1350.375	1082.864
69.549	22.472	1349.376	1081.543
70.563	22.503	1348.570	1080.993
71.578	22.410	1347.888	1079.778
72.593	22.553	1346.405	1079.373
73.607	22.436	1346.349	1078.512
74.622	22.387	1345.677	1077.578
75.636	22.510	1344.764	1077.507
76.651	22.484	1343.710	1076.410
77.666	22.456	1343.647	1076.089
78.680	22.393	1342.815	1074.941
79.695	22.487	1341.612	1074.459
80.709	22.475	1341.286	1074.028
81.724	22.473	1339.921	1072.831
82.739	22.507	1339.079	1072.267
83.753	22.435	1338.498	1071.271
84.768	22.411	1337.110	1069.917
85.782	22.440	1336.114	1069.205
86.797	22.557	1334.740	1068.721
87.812	22.472	1333.964	1067.484
88.826	22.459	1332.845	1066.417
89.841	22.506	1331.539	1065.564
90.855	22.496	1330.968	1064.952
91.870	22.462	1329.715	1063.650
92.884	22.473	1329.237	1063.238
93.899	22.511	1328.769	1062.997
94.914	22.558	1327.427	1062.116
95.928	22.512	1326.885	1061.308
96.943	22.515	1325.740	1060.321
97.957	22.513	1325.439	1059.972
98.972	22.582	1324.513	1059.551
99.987	22.560	1322.924	1058.056
101.001	22.596	1322.195	1057.595
102.016	22.421	1321.390	1055.809
103.030	22.485	1320.881	1055.695
104.045	22.440	1319.621	1054.323
105.060	22.593	1318.536	1054.280
106.074	22.519	1317.824	1053.170
107.089	22.646	1316.714	1052.950
108.103	22.517	1315.754	1051.322
109.118	22.600	1314.382	1050.624
110.133	22.646	1313.129	1049.805
111.147	22.635	1311.588	1048.415
112.162	22.666	1310.859	1047.922
113.176	22.505	1310.216	1046.361
114.191	22.612	1308.983	1045.916
115.206	22.606	1307.863	1044.894
116.220	22.541	1306.677	1043.470
117.235	22.618	1305.816	1043.148
118.249	22.462	1305.541	1041.909
119.264	22.471	1304.657	1041.166
120.279	22.595	1303.565	1040.937
121.293	22.705	1302.334	1040.511
122.308	22.613	1301.812	1039.455
123.322	22.733	1300.532	1039.052
124.337	22.641	1299.949	1037.953
125.352	22.588	1299.310	1037.034
126.366	22.712	1298.306	1036.872
127.381	22.605	1297.524	1035.528
128.395	22.650	1296.234	1034.670
129.410	22.631	1295.739	1034.074
130.424	22.624	1294.861	1033.240
131.439	22.703	1293.308	1032.372
132.454	22.569	1293.293	1031.486
133.468	22.561	1292.689	1030.865
134.483	22.625	1291.760	1030.403
135.497	22.601	1290.424	1029.112
136.512	22.680	1289.598	1028.818
137.527	22.664	1288.338	1027.632
138.541	22.606	1287.422	1026.469
139.556	22.576	1285.704	1024.836
140.570	22.645	1285.225	1024.764
141.585	22.551	1283.809	1023.002
142.600	22.596	1282.912	1022.458
143.614	22.614	1282.256	1021.946
144.629	22.593	1280.804	1020.577
145.643	22.516	1279.794	1019.239
146.658	22.466	1278.971	1018.203
147.673	22.535	1278.098	1017.816
148.687	22.630	1276.602	1017.083
149.702	22.501	1275.569	1015.428
150.716	22.563	1274.401	1014.764
151.731	22.636	1273.493	1014.371
152.746	22.574	1272.358	1013.023
153.760	22.721	1271.493	1013.085
154.775	22.522	1270.877	1011.364
155.789	22.546	1270.025	1010.735
156.804	22.715	1268.816	1010.648
157.819	22.695	1267.949	1009.753
158.833	22.634	1267.286	1008.791
159.848	22.688	1266.306	1008.229
160.862	22.653	1265.763	1007.504
161.877	22.753	1264.359	1006.869
162.892	22.706	1263.892	1006.141
163.906	22.757	1263.267	1005.848
164.921	22.727	1262.356	1004.860
165.935	22.796	1261.578	1004.548
166.950	22.713	1261.134	1003.633
167.964	22.784	1260.254	1003.244
168.979	22.738	1259.811	1002.542
169.994	22.729	1259.296	1001.991
171.008	22.798	1258.099	1001.342
172.023	22.860	1257.357	1001.013
173.037	22.804	1256.831	1000.190
174.052	22.725	1256.655	999.515
175.067	22.742	1255.482	998.587
176.081	22.806	1254.317	997.939
177.096	22.814	1253.669	997.376
178.110	22.824	1252.933	996.762
179.125	22.875	1251.804	996.060
180.140	23.002	1250.256	995.458
181.154	22.711	1249.478	993.112
182.169	22.769	1248.335	992.439
183.183	22.799	1247.416	991.792
184.198	22.875	1246.478	991.386
185.213	22.817	1245.866	990.483
186.227	22.944	1244.922	990.358
187.242	22.818	1244.065	988.886
188.256	22.857	1243.079	988.230
189.271	22.840	1242.474	987.566
190.286	22.894	1241.745	987.200
191.300	22.737	1241.385	985.954
192.315	22.814	1240.765	985.801
193.329	22.744	1240.402	985.037
194.344	22.928	1239.556	985.303
195.359	22.913	1239.187	984.836
196.373	22.879	1238.384	983.922
197.388	22.846	1238.143	983.463
198.402	22.747	1238.274	982.924
199.417	22.867	1237.342	982.768
200.432	22.895	1236.661	982.295
201.446	22.874	1236.314	981.815
202.461	22.904	1234.905	980.780
203.475	22.818	1234.754	980.096
204.490	22.865	1233.318	979.126
205.504	22.912	1232.529	978.675
206.519	23.022	1231.355	978.265
207.534	22.986	1230.731	977.481
208.548	22.877	1230.126	976.314
209.563	22.967	1229.121	975.930
210.577	22.971	1228.211	975.140
211.592	22.918	1227.270	974.016
212.607	22.971	1226.680	973.751
213.621	23.022	1225.642	973.120
214.636	22.987	1225.165	972.465
215.650	22.951	1224.301	971.495
216.665	22.946	1223.352	970.627
217.680	22.975	1222.229	969.810
218.694	23.041	1221.337	969.381
219.709	22.917	1221.016	968.358
220.723	23.072	1220.464	968.685
221.738	22.991	1219.698	967.546
222.753	22.849	1218.794	965.971
223.767	22.892	1218.393	965.803
224.782	23.068	1217.822	966.223
225.796	23.064	1217.377	965.764
226.811	23.103	1216.194	964.953
227.826	23.088	1216.263	964.840
228.840	23.040	1215.551	963.926
229.855	23.199	1214.446	963.831
230.869	23.097	1214.035	962.866
231.884	23.045	1213.318	961.931
232.899	23.067	1212.437	961.264
233.913	22.996	1212.045	960.482
234.928	23.163	1211.681	961.015
235.942	23.185	1211.114	960.600
236.957	23.042	1210.656	959.376
237.972	22.970	1209.962	958.351
238.986	23.110	1208.823	958.124
240.001	23.227	1208.012	958.030
241.015	23.234	1207.332	957.443
242.030	23.188	1207.213	957.013
243.045	23.211	1206.151	956.212
244.059	23.352	1204.896	955.896
245.074	23.231	1204.559	954.887
246.088	23.299	1203.844	954.607
247.103	23.238	1202.743	953.321
248.117	23.309	1201.639	952.740
249.132	23.175	1201.544	951.862
250.147	23.328	1200.903	952.094
251.161	23.325	1199.773	951.097
252.176	23.248	1199.407	950.308
253.190	23.315	1198.704	950.026
254.205	23.309	1198.197	949.509
255.220	23.341	1197.386	948.954
256.234	23.365	1197.109	948.780
257.249	23.248	1196.380	947.488
258.263	23.296	1195.774	947.184
259.278	23.438	1194.916	947.177
260.293	23.245	1194.814	945.981
261.307	23.354	1194.144	945.949
262.322	23.291	1193.673	945.155
263.336	23.437	1192.530	944.946
264.351	23.369	1192.525	944.497
265.366	23.398	1191.698	943.912
266.380	23.350	1190.942	942.973
267.395	23.445	1189.876	942.552
268.409	23.332	1189.543	941.604
269.424	23.419	1188.866	941.446
270.439	23.306	1188.716	940.647
271.453	23.412	1187.922	940.496
272.468	23.402	1186.745	939.427
273.482	23.352	1186.494	938.880
274.497	23.398	1186.163	938.780
275.512	23.519	1185.416	938.745
276.526	23.516	1184.571	937.977
277.541	23.485	1183.936	937.229
278.555	23.404	1183.559	936.419
279.570	23.491	1182.936	936.304
280.585	23.593	1181.755	935.821
281.599	23.447	1180.694	934.133
282.614	23.505	1180.164	933.932
283.628	23.431	1179.339	932.811
284.643	23.457	1178.493	932.197
285.657	23.542	1177.428	931.716
286.672	23.378	1177.106	930.518
287.687	23.506	1175.868	930.128
288.701	23.627	1174.999	929.993
289.716	23.598	1174.518	929.375
290.730	23.532	1174.330	928.802
291.745	23.615	1173.533	928.521
292.760	23.621	1172.770	927.869
293.774	23.645	1172.419	927.634
294.789	23.704	1171.665	927.263
295.803	23.698	1170.894	926.541
296.818	23.699	1170.280	925.979
297.833	23.604	1170.038	925.206
298.847	23.595	1169.163	924.388
299.862	23.707	1168.140	924.082
300.876	23.669	1167.730	923.477
301.891	23.744	1167.059	923.255
302.906	23.844	1166.193	923.004
303.920	23.897	1165.476	922.632
304.935	23.707	1165.042	921.219
305.949	23.800	1164.293	921.028
306.964	23.755	1163.974	920.464
307.979	23.887	1162.818	920.151
308.993	23.823	1162.239	919.280
310.008	23.828	1161.828	918.898
311.022	23.833	1161.034	918.213
312.037	23.905	1160.042	917.723
313.052	23.922	1159.230	917.086
314.066	23.859	1158.431	916.045
315.081	23.793	1157.886	915.195
316.095	23.785	1157.376	914.668
317.110	23.844	1156.718	914.371
318.125	23.904	1156.173	914.170
319.139	23.759	1155.747	913.007
320.154	23.900	1154.838	912.930
321.168	23.959	1153.939	912.440
322.183	23.944	1153.376	911.841
323.197	23.906	1152.982	911.255
324.212	23.958	1152.494	911.051
325.227	23.916	1152.155	910.490
326.241	23.945	1151.484	910.029
327.256	23.947	1150.794	909.410
328.270	23.979	1149.965	908.841
329.285	23.804	1149.436	907.445
330.300	23.949	1147.863	906.864
331.314	23.958	1147.402	906.463
332.329	23.901	1146.956	905.742
333.343	24.037	1145.927	905.540
334.358	24.066	1144.834	904.747
335.373	24.007	1144.541	904.132
336.387	24.089	1143.997	904.039
337.402	24.086	1143.319	903.409
338.416	24.064	1142.752	902.768
339.431	24.042	1141.932	901.931
340.446	24.219	1141.410	902.335
341.460	24.236	1140.706	901.787
342.475	24.207	1139.915	900.932
343.489	24.046	1139.168	899.451
344.504	24.157	1138.189	899.159
345.519	24.092	1137.068	897.864
346.533	24.236	1136.215	897.837
347.548	24.353	1135.481	897.766
348.562	24.200	1135.422	896.870
349.577	24.130	1134.807	895.951
350.592	24.157	1133.441	894.933
351.606	24.142	1132.988	894.420
352.621	24.121	1132.678	893.989
353.635	24.203	1131.987	893.775
354.650	24.251	1131.273	893.374
355.665	24.263	1130.997	893.139
356.679	24.223	1130.071	892.126
357.694	24.306	1129.305	891.859
358.708	24.349	1128.529	891.379
359.723	24.145	1128.030	889.891
360.738	24.121	1127.417	889.207
361.752	24.343	1126.580	889.574
362.767	24.373	1126.376	889.483
363.781	24.381	1125.699	888.914
364.796	24.477	1125.052	888.799
365.810	24.320	1124.750	887.701
366.825	24.339	1124.203	887.288
367.840	24.375	1123.617	886.926
368.854	24.500	1122.738	886.771
369.869	24.443	1121.993	885.823
370.883	24.471	1121.434	885.442
371.898	24.458	1120.591	884.633
372.913	24.488	1119.942	884.189
373.927	24.502	1119.648	883.952
374.942	24.590	1118.806	883.642
375.956	24.471	1118.859	883.019
376.971	24.509	1118.489	882.835
377.986	24.410	1118.092	881.956
379.000	24.599	1116.983	881.934
380.015	24.515	1116.771	881.277
381.029	24.587	1115.747	880.743
382.044	24.524	1115.109	879.854
383.059	24.555	1114.435	879.396
384.073	24.541	1113.663	878.640
385.088	24.642	1112.894	878.453
386.102	24.616	1112.209	877.703
387.117	24.584	1111.414	876.844
388.132	24.530	1110.641	875.890
389.146	24.624	1109.885	875.678
390.161	24.617	1109.345	875.139
391.175	24.635	1108.146	874.202
392.190	24.697	1107.750	874.120
393.205	24.790	1107.012	873.910
394.219	24.669	1106.381	872.744
395.234	24.735	1105.404	872.222
396.248	24.768	1104.722	871.765
397.263	24.900	1104.002	871.765
398.278	24.824	1103.469	870.898
399.292	24.838	1103.049	870.557
400.307	24.879	1101.815	869.703
401.321	24.734	1101.777	868.891
402.336	24.690	1101.131	868.093
403.350	24.789	1100.342	867.873
404.365	24.743	1100.067	867.357
405.380	24.853	1099.118	867.066
406.394	24.838	1098.497	866.423
407.409	25.008	1097.187	866.138
408.423	24.977	1096.500	865.367
409.438	24.883	1095.733	864.231
410.453	24.953	1095.419	864.248
411.467	25.034	1094.472	863.811
412.482	24.902	1093.820	862.587
413.496	25.010	1093.035	862.410
414.511	25.081	1092.276	862.076
415.526	24.967	1092.216	861.406
416.540	25.027	1091.558	861.098
417.555	25.034	1091.108	860.701
418.569	25.027	1090.852	860.389
419.584	25.025	1090.682	860.169
420.599	25.188	1089.539	859.974
421.613	147.848	1402.881	1797.571
422.628	136.756	1448.546	1797.657
