DTS Sentinel unit serial number:	SN413079Multiplexer serial number:	ORYXHardware model number:	OX4-SRSoftware version number:	ORYX F/W v4.00 Oryx Data Collector v3.7.2.0data status	okinstallation	princeton_trtdifferential loss correction	single-endedforward channel	channel 2reverse channel	N/Adate	2019/09/19time	08:51:35forward acquisition time	60.00reverse acquisition time	0.00gamma	496.2192k internal	0.2353k external	0.2353temperature offset calibration	1.0006default loss term (dB/km)	0.3790temperature slope calibration	1.0000multiplexer offset coefficient	1.0000multiplexer slope coefficient	1.0000fibre end	0.00T internal ref (°C)	21.22T ext. ref 1 (°C)	0.58T ext. ref 2 (°C)	16.92length (m)	temperature (°C)	Stokes	anti-Stokes-747.200	479.452	-0.029	0.066
-746.185	147.521	-0.137	0.184
-745.171	23.197	0.137	0.112
-744.156	-181.614	-0.136	0.003
-743.142	-200.000	-0.077	0.663
-742.127	-60.364	-0.390	-0.165
-741.112	-96.817	-0.311	0.082
-740.098	69.777	-0.028	-0.029
-739.083	24.257	0.117	0.097
-738.069	-200.000	0.068	0.367
-737.054	13.710	-0.009	-0.007
-736.039	280.193	-0.110	-0.197
-735.025	87.781	0.118	-0.130
-734.010	800.000	-0.098	-0.408
-732.996	-107.096	-0.387	-0.085
-731.981	52.959	-0.022	-0.021
-730.966	-83.077	-0.102	-0.033
-729.952	-75.769	-0.223	-0.079
-728.937	800.000	-0.060	-0.172
-727.923	800.000	0.048	0.191
-726.908	5.001	-0.193	-0.142
-725.894	146.928	0.111	-0.149
-724.879	-200.000	0.013	0.109
-723.864	-200.000	-0.021	0.243
-722.850	-135.830	-0.387	-0.046
-721.835	-48.052	0.387	-0.187
-720.821	116.075	-0.324	-0.395
-719.806	264.024	-0.065	0.113
-718.791	77.645	-0.081	0.086
-717.777	-102.757	0.473	0.112
-716.762	516.839	0.080	-0.187
-715.748	800.000	0.047	0.187
-714.733	800.000	0.077	0.328
-713.718	-200.000	-0.040	-0.265
-712.704	-18.589	0.055	0.034
-711.689	381.860	-0.084	0.171
-710.675	-200.000	0.016	0.000
-709.660	196.610	-0.183	-0.278
-708.645	47.196	-0.174	0.162
-707.631	-15.865	-0.139	0.088
-706.616	-3.839	0.066	0.045
-705.602	800.000	-0.038	0.132
-704.587	-200.000	-0.057	0.306
-703.572	547.080	-0.078	-0.185
-702.558	-3.634	-0.189	0.131
-701.543	-177.932	0.410	0.010
-700.529	-80.903	-0.472	-0.156
-699.514	179.857	0.194	-0.283
-698.499	216.215	0.086	-0.137
-697.485	114.837	0.256	0.310
-696.470	61.570	0.152	-0.151
-695.456	122.352	-0.057	0.071
-694.441	659.507	-0.131	0.335
-693.426	800.000	-0.084	-0.318
-692.412	564.153	-0.091	0.220
-691.397	-148.612	-0.298	0.024
-690.383	-122.564	-0.140	-0.023
-689.368	800.000	-0.062	0.214
-688.354	42.750	0.231	-0.209
-687.339	221.617	-0.182	0.292
-686.324	-11.278	0.047	-0.031
-685.310	-57.212	-0.482	0.211
-684.295	-1.869	-0.252	-0.176
-683.281	-177.075	0.579	-0.014
-682.266	-124.503	0.212	-0.033
-681.251	-81.674	-0.412	-0.134
-680.237	372.312	-0.051	-0.103
-679.222	800.000	-0.048	-0.174
-678.208	-164.231	0.111	-0.005
-677.193	-132.435	-0.104	-0.013
-676.178	-1.655	-0.088	-0.062
-675.164	139.839	-0.068	0.089
-674.149	-119.233	0.193	-0.033
-673.135	-196.457	-0.225	-0.002
-672.120	-200.000	-0.020	-0.355
-671.105	-71.536	-0.124	0.046
-670.091	-200.000	-0.057	-0.249
-669.076	-93.562	-0.294	-0.081
-668.062	1.239	0.108	-0.077
-667.047	219.478	-0.125	-0.199
-666.032	150.924	-0.195	-0.263
-665.018	490.453	0.026	0.060
-664.003	-102.058	0.258	0.062
-662.989	-108.078	-0.093	0.020
-661.974	-200.000	0.027	0.184
-660.959	-78.560	-0.079	-0.027
-659.945	77.425	0.199	-0.210
-658.930	-50.129	-0.206	-0.097
-657.916	-200.000	-0.009	-0.066
-656.901	-16.164	-0.132	-0.084
-655.886	98.976	-0.267	-0.306
-654.872	90.320	0.200	-0.222
-653.857	-137.595	0.213	0.024
-652.843	-200.000	0.052	0.295
-651.828	42.697	-0.133	-0.120
-650.814	-101.975	0.145	-0.035
-649.799	-104.764	0.158	0.036
-648.784	-46.564	0.078	0.038
-647.770	-200.000	0.090	0.515
-646.755	241.226	0.140	0.232
-645.741	78.132	-0.135	-0.144
-644.726	-34.819	0.316	0.172
-643.711	650.648	0.116	0.295
-642.697	-174.006	0.062	-0.002
-641.682	-3.181	-0.186	0.129
-640.668	244.967	0.165	-0.276
-639.653	-118.066	0.222	-0.039
-638.638	-10.163	-0.371	0.245
-637.624	-20.570	-0.244	0.149
-636.609	-146.522	0.023	-0.002
-635.595	-118.790	0.082	0.014
-634.580	-200.000	0.031	0.305
-633.565	-32.245	0.154	0.085
-632.551	-57.053	0.061	-0.027
-631.536	-200.000	-0.006	-0.073
-630.522	-200.000	0.043	-0.318
-629.507	800.000	0.039	0.111
-628.492	41.062	-0.097	-0.087
-627.478	-200.000	0.089	0.498
-626.463	225.591	0.108	0.173
-625.449	345.243	0.114	0.222
-624.434	-200.000	-0.011	-0.149
-623.419	-200.000	-0.259	-0.001
-622.405	800.000	0.075	-0.282
-621.390	-50.802	0.154	0.072
-620.376	740.900	0.125	-0.333
-619.361	-200.000	0.059	-0.457
-618.346	-75.907	0.183	0.064
-617.332	-97.515	0.255	0.066
-616.317	61.058	0.051	0.050
-615.303	188.245	0.010	-0.015
-614.288	61.341	0.045	0.044
-613.273	-200.000	-0.022	-0.426
-612.259	-109.339	0.190	-0.040
-611.244	183.912	-0.060	-0.089
-610.230	256.262	0.137	-0.233
-609.215	307.728	0.029	-0.054
-608.201	-200.000	-0.004	-0.106
-607.186	-85.869	-0.180	0.055
-606.171	800.000	-0.025	-0.098
-605.157	69.538	-0.234	-0.239
-604.142	-37.768	-0.092	-0.049
-603.128	88.418	-0.122	-0.135
-602.113	14.510	-0.220	0.170
-601.098	-200.000	-0.030	-0.196
-600.084	69.451	-0.084	0.086
-599.069	-144.249	-0.189	0.017
-598.055	-117.788	0.277	0.049
-597.040	-163.440	0.306	-0.014
-596.025	8.910	-0.159	-0.119
-595.011	800.000	-0.039	-0.166
-593.996	800.000	-0.027	0.085
-592.982	-200.000	-0.055	-0.421
-591.967	133.937	-0.103	-0.132
-590.952	-3.920	-0.200	0.138
-589.938	120.591	0.142	-0.175
-588.923	-200.000	-0.023	0.104
-587.909	-105.622	0.204	0.046
-586.894	213.838	-0.127	-0.199
-585.879	800.000	0.044	-0.135
-584.865	-1.799	0.276	0.192
-583.850	-55.298	0.265	-0.118
-582.836	71.053	-0.099	0.102
-581.821	38.035	-0.241	0.213
-580.806	-113.632	0.168	0.032
-579.792	13.475	-0.169	0.130
-578.777	-31.856	-0.186	0.103
-577.763	-102.693	-0.191	-0.045
-576.748	255.766	-0.097	-0.165
-575.733	399.126	0.107	0.222
-574.719	192.015	0.062	-0.092
-573.704	278.458	-0.095	-0.167
-572.690	267.981	0.086	0.149
-571.675	-70.043	-0.376	-0.142
-570.661	800.000	-0.123	-0.447
-569.646	-103.852	-0.100	0.023
-568.631	-100.221	0.323	0.079
-567.617	770.205	-0.033	0.090
-566.602	178.715	0.127	0.183
-565.588	146.174	0.140	-0.187
-564.573	466.357	0.015	-0.033
-563.558	-200.000	0.005	-0.093
-562.544	-93.615	-0.359	-0.098
-561.529	-33.521	0.176	-0.096
-560.515	301.380	0.103	-0.187
-559.500	-4.278	-0.176	-0.121
-558.485	101.545	-0.059	-0.068
-557.471	-5.261	0.135	0.092
-556.456	7.533	0.263	-0.194
-555.442	148.414	0.208	0.278
-554.427	-32.602	-0.205	0.113
-553.412	611.645	0.084	0.208
-552.398	33.204	-0.242	0.208
-551.383	99.223	0.181	0.207
-550.369	-12.095	-0.228	0.148
-549.354	-200.000	0.017	-0.136
-548.339	4.728	-0.333	0.242
-547.325	-67.541	0.079	-0.031
-546.310	-16.449	0.284	-0.178
-545.296	-115.739	-0.267	-0.049
-544.281	-200.000	-0.039	0.304
-543.266	-47.742	0.133	0.064
-542.252	-41.850	0.235	0.119
-541.237	-200.000	0.016	0.192
-540.223	-200.000	-0.020	0.228
-539.208	-63.103	-0.079	0.032
-538.193	-200.000	-0.035	-0.304
-537.179	-42.082	0.176	-0.089
-536.164	61.535	0.368	-0.362
-535.150	800.000	-0.017	0.057
-534.135	800.000	0.072	-0.259
-533.121	-200.000	-0.386	-0.000
-532.106	23.599	-0.186	0.151
-531.091	70.507	-0.064	0.066
-530.077	-143.368	-0.147	0.014
-529.062	-200.000	-0.027	0.279
-528.048	-200.000	-0.015	-0.179
-527.033	86.335	0.097	-0.105
-526.018	-117.338	0.182	0.033
-525.004	52.675	0.238	-0.224
-523.989	363.306	0.065	0.128
-522.975	-95.030	-0.076	0.020
-521.960	800.000	0.006	-0.019
-520.945	-57.818	0.077	-0.033
-519.931	47.896	-0.301	0.278
-518.916	79.663	-0.124	-0.132
-517.902	-135.122	-0.079	0.009
-516.887	75.632	0.075	-0.078
-515.872	100.504	-0.136	-0.156
-514.858	-200.000	-0.032	-0.254
-513.843	695.698	-0.095	-0.247
-512.829	-81.039	0.193	-0.063
-511.814	-28.468	0.128	-0.073
-510.799	70.872	-0.167	-0.171
-509.785	104.148	0.236	0.274
-508.770	-52.714	-0.081	-0.037
-507.756	-71.412	-0.104	-0.039
-506.741	0.139	0.225	0.158
-505.726	-49.688	-0.256	0.120
-504.712	489.729	-0.025	-0.057
-503.697	78.600	-0.021	0.022
-502.683	-195.238	0.195	0.001
-501.668	31.857	-0.199	-0.169
-500.653	62.949	0.277	0.274
-499.639	93.224	-0.191	-0.213
-498.624	607.730	-0.038	-0.093
-497.610	-160.011	0.122	-0.007
-496.595	163.654	-0.089	0.124
-495.581	-200.000	-0.047	-0.232
-494.566	-200.000	0.009	0.070
-493.551	170.634	-0.144	-0.203
-492.537	-38.450	0.225	-0.117
-491.522	-101.905	-0.211	0.050
-490.508	35.714	-0.088	0.076
-489.493	-174.385	-0.150	0.004
-488.478	-71.394	0.163	-0.060
-487.464	250.458	0.111	0.186
-486.449	-143.007	-0.484	0.046
-485.435	800.000	0.077	-0.248
-484.420	-106.975	0.173	-0.038
-483.405	-97.973	0.069	0.018
-482.391	648.529	0.143	0.361
-481.376	73.065	0.176	0.182
-480.362	-200.000	-0.062	-0.436
-479.347	-11.080	0.150	-0.098
-478.332	235.155	0.223	-0.363
-477.318	-200.000	-0.042	-0.402
-476.303	468.479	-0.115	0.255
-475.289	475.659	-0.087	0.193
-474.274	-200.000	-0.052	0.347
-473.259	800.000	0.043	0.144
-472.245	105.376	-0.061	0.071
-471.230	135.992	0.275	-0.354
-470.216	190.686	0.145	-0.216
-469.201	542.662	0.084	-0.197
-468.186	86.881	0.123	0.134
-467.172	-167.160	-0.310	0.012
-466.157	-200.000	-0.046	0.221
-465.143	800.000	-0.094	-0.307
-464.128	-2.781	0.159	0.109
-463.113	298.795	0.164	0.298
-462.099	-145.116	-0.131	-0.012
-461.084	800.000	-0.033	0.119
-460.070	69.415	0.245	0.249
-459.055	64.215	0.172	0.170
-458.040	28.961	0.022	-0.019
-457.026	-200.000	-0.034	-0.200
-456.011	800.000	-0.133	-0.386
-454.997	-200.000	0.032	0.225
-453.982	21.114	-0.234	-0.187
-452.968	-159.432	-0.150	0.008
-451.953	800.000	-0.034	-0.131
-450.938	355.870	-0.111	-0.217
-449.924	-200.000	-0.007	0.110
-448.909	800.000	-0.058	-0.233
-447.895	220.796	0.075	0.119
-446.880	-200.000	-0.007	0.116
-445.865	104.719	0.144	-0.168
-444.851	68.136	-0.284	0.287
-443.836	-17.365	0.127	0.079
-442.822	800.000	-0.050	0.205
-441.807	-200.000	-0.009	-0.365
-440.792	469.797	0.046	0.103
-439.778	-108.588	-0.084	-0.018
-438.763	800.000	0.035	-0.122
-437.749	-200.000	0.021	0.171
-436.734	-41.035	0.289	0.147
-435.719	-149.244	0.344	0.027
-434.705	-200.000	-0.017	0.112
-433.690	-0.347	-0.165	0.115
-432.676	-101.357	-0.136	0.033
-431.661	422.404	-0.102	0.215
-430.646	-200.000	0.025	0.327
-429.632	742.791	-0.105	0.278
-428.617	63.975	-0.244	0.242
-427.603	-200.000	0.028	-0.264
-426.588	-57.289	-0.046	0.020
-425.573	-145.347	-0.307	0.027
-424.559	-85.480	-0.246	0.075
-423.544	2.272	-0.163	0.116
-422.530	-0.299	0.340	0.238
-421.515	800.000	-0.016	0.060
-420.500	75.939	-0.137	0.142
-419.486	-65.083	0.561	0.223
-418.471	-12.624	-0.081	0.052
-417.457	57.345	0.256	0.246
-416.442	188.694	-0.138	-0.204
-415.428	-87.777	0.156	0.046
-414.413	-76.797	-0.120	-0.041
-413.398	106.802	-0.187	0.218
-412.384	-94.659	0.380	0.102
-411.369	211.018	-0.116	-0.180
-410.355	689.226	-0.078	-0.202
-409.340	-96.249	-0.208	0.054
-408.325	63.249	-0.058	-0.058
-407.311	442.430	-0.131	0.282
-406.296	-72.283	0.327	0.119
-405.282	-32.942	0.054	-0.029
-404.267	-5.901	0.084	-0.056
-403.252	-100.687	-0.065	0.016
-402.238	175.200	-0.055	-0.078
-401.223	88.797	0.074	0.080
-400.209	-60.508	-0.224	-0.094
-399.194	-59.304	-0.133	-0.056
-398.179	315.567	-0.083	0.153
-397.165	101.425	0.171	-0.196
-396.150	19.340	0.053	0.042
-395.136	-200.000	-0.019	-0.174
-394.121	120.520	-0.162	0.199
-393.106	108.915	0.074	-0.086
-392.092	-152.704	0.157	-0.011
-391.077	1.353	0.237	0.167
-390.063	800.000	0.055	-0.149
-389.048	-200.000	-0.029	0.330
-388.033	11.699	0.275	0.207
-387.019	800.000	0.061	-0.203
-386.004	-121.802	-0.310	0.050
-384.990	-102.470	-0.344	-0.081
-383.975	196.231	-0.143	-0.214
-382.960	-200.000	-0.011	-0.272
-381.946	-200.000	0.030	0.234
-380.931	531.458	-0.199	0.463
-379.917	-21.010	-0.217	0.130
-378.902	176.413	-0.179	0.256
-377.888	86.446	0.206	0.224
-376.873	310.210	-0.125	0.230
-375.858	-138.939	-0.269	-0.029
-374.844	-26.891	-0.178	0.102
-373.829	60.188	-0.210	0.204
-372.815	-122.892	0.224	-0.035
-371.800	-200.000	-0.066	0.379
-370.785	-74.341	-0.240	-0.085
-369.771	149.447	0.207	0.276
-368.756	78.699	0.180	0.190
-367.742	-131.906	0.293	-0.038
-366.727	-99.383	-0.293	0.073
-365.712	-143.146	0.118	-0.011
-364.698	11.009	0.324	0.243
-363.683	-150.165	0.020	-0.002
-362.669	-200.000	-0.066	0.425
-361.654	271.287	0.031	0.053
-360.639	-87.317	0.248	-0.074
-359.625	-8.901	0.119	0.078
-358.610	4.630	-0.212	-0.153
-357.596	-36.593	0.313	0.165
-356.581	83.590	-0.213	0.228
-355.566	-200.000	-0.014	-0.256
-354.552	800.000	-0.041	0.147
-353.537	-15.503	0.170	0.107
-352.523	209.707	0.139	-0.215
-351.508	-16.098	-0.233	-0.146
-350.493	20.103	-0.204	-0.162
-349.479	73.270	0.084	0.087
-348.464	-99.824	-0.195	0.048
-347.450	800.000	0.115	0.335
-346.435	-85.294	0.335	0.103
-345.420	-200.000	0.013	-0.133
-344.406	800.000	-0.030	-0.089
-343.391	32.100	0.201	-0.170
-342.377	154.614	-0.202	-0.272
-341.362	-100.094	0.145	0.035
-340.348	800.000	0.060	0.163
-339.333	371.265	-0.067	-0.132
-338.318	100.719	0.152	0.173
-337.304	221.623	-0.065	-0.102
-336.289	45.836	0.243	-0.221
-335.275	-200.000	0.043	-0.510
-334.260	9.143	-0.141	-0.105
-333.245	800.000	0.080	0.273
-332.231	158.188	-0.053	0.072
-331.216	-200.000	-0.038	0.174
-330.202	-29.116	0.028	0.016
-329.187	-63.807	0.278	-0.112
-328.172	-200.000	-0.083	-0.405
-327.158	-200.000	-0.072	0.526
-326.143	800.000	0.158	-0.475
-325.129	332.138	0.125	0.237
-324.114	-134.769	-0.175	0.021
-323.099	-200.000	-0.006	0.554
-322.085	585.448	0.056	0.136
-321.070	655.126	-0.151	-0.379
-320.056	-0.171	0.161	0.112
-319.041	88.563	0.068	0.074
-318.026	126.406	-0.137	-0.170
-317.012	-200.000	-0.022	0.234
-315.997	192.708	0.157	-0.232
-314.983	-28.904	-0.179	-0.101
-313.968	-126.158	0.082	-0.012
-312.953	-136.333	0.148	-0.017
-311.939	763.572	0.036	0.096
-310.924	-88.928	-0.301	0.087
-309.910	225.628	-0.076	-0.121
-308.895	800.000	0.028	-0.090
-307.880	-104.750	-0.416	-0.094
-306.866	-178.771	-0.095	-0.002
-305.851	66.042	-0.353	0.351
-304.837	-113.980	0.332	0.063
-303.822	-20.734	-0.311	-0.187
-302.807	798.010	-0.146	0.396
-301.793	-154.386	-0.189	0.012
-300.778	-200.000	0.043	-0.185
-299.764	-200.000	0.413	-0.001
-298.749	-59.372	0.187	-0.079
-297.735	-81.231	-0.215	0.070
-296.720	25.490	-0.298	-0.243
-295.705	800.000	0.065	0.208
-294.691	-200.000	0.018	0.089
-293.676	-122.744	-0.094	0.015
-292.662	800.000	0.049	-0.176
-291.647	499.621	0.123	0.278
-290.632	800.000	0.046	0.144
-289.618	-27.686	-0.119	0.067
-288.603	-133.445	0.036	0.004
-287.589	-96.228	-0.194	-0.050
-286.574	-200.000	0.022	0.141
-285.559	17.310	-0.302	-0.234
-284.545	-200.000	0.017	-0.244
-283.530	249.266	0.201	-0.334
-282.516	-43.442	-0.397	0.197
-281.501	-50.641	-0.196	0.091
-280.486	-200.000	0.017	-0.074
-279.472	141.855	0.187	0.243
-278.457	-101.691	0.176	0.042
-277.443	8.859	-0.268	-0.198
-276.428	-63.457	-0.196	0.079
-275.413	-102.373	0.186	0.044
-274.399	-112.844	0.155	-0.030
-273.384	-95.962	-0.433	-0.113
-272.370	763.666	0.076	-0.202
-271.355	-200.000	0.047	-0.345
-270.340	511.709	-0.062	-0.140
-269.326	-200.000	0.040	-0.407
-268.311	569.013	-0.050	-0.119
-267.297	-112.501	-0.388	-0.076
-266.282	19.083	-0.169	-0.133
-265.267	102.604	-0.238	0.273
-264.253	0.322	0.216	-0.151
-263.238	-178.118	-0.328	-0.008
-262.224	-200.000	-0.009	-0.079
-261.209	-131.834	0.138	0.018
-260.195	-200.000	0.029	0.194
-259.180	-133.594	-0.298	-0.037
-258.165	-28.517	-0.268	-0.151
-257.151	-200.000	-0.052	-0.324
-256.136	-120.870	0.359	-0.059
-255.122	-123.283	-0.145	-0.023
-254.107	53.481	0.055	-0.052
-253.092	-192.010	0.341	0.003
-252.078	56.761	-0.340	-0.324
-251.063	-200.000	-0.020	0.104
-250.049	-107.462	0.152	-0.033
-249.034	652.585	-0.026	0.066
-248.019	-200.000	-0.018	-0.130
-247.005	-11.602	-0.145	-0.093
-245.990	89.756	-0.375	-0.409
-244.976	-200.000	-0.008	-0.229
-243.961	66.017	-0.110	0.109
-242.946	405.342	0.016	0.034
-241.932	285.402	0.101	-0.178
-240.917	-200.000	-0.004	-0.182
-239.903	182.621	-0.169	-0.244
-238.888	-38.220	-0.161	-0.083
-237.873	-115.197	-0.402	-0.074
-236.859	-105.005	-0.048	0.011
-235.844	-93.485	-0.170	0.046
-234.830	266.090	0.251	0.428
-233.815	103.457	-0.247	0.283
-232.800	-200.000	0.047	0.255
-231.786	-89.345	0.318	-0.092
-230.771	-200.000	0.014	-0.250
-229.757	23.249	0.089	-0.072
-228.742	240.453	-0.121	-0.197
-227.727	-200.000	-0.012	0.178
-226.713	800.000	-0.064	0.211
-225.698	69.114	0.166	-0.167
-224.684	-135.313	-0.126	0.015
-223.669	16.989	0.084	0.065
-222.655	134.866	0.153	-0.194
-221.640	-200.000	-0.060	-0.376
-220.625	-94.016	0.245	0.066
-219.611	707.224	0.054	-0.138
-218.596	-200.000	0.003	0.077
-217.582	-145.932	-0.041	0.004
-216.567	-52.894	-0.328	0.148
-215.552	587.737	-0.123	-0.295
-214.538	-123.300	0.354	0.055
-213.523	129.529	-0.045	0.056
-212.509	-136.764	-0.468	-0.053
-211.494	-200.000	0.014	-0.188
-210.479	12.612	0.103	0.078
-209.465	-21.739	0.174	0.103
-208.450	383.320	-0.110	0.222
-207.436	-200.000	-0.003	0.061
-206.421	-39.939	0.207	0.105
-205.406	177.719	0.145	-0.206
-204.392	-200.000	-0.046	-0.344
-203.377	-161.611	0.419	-0.021
-202.363	-83.058	0.192	0.060
-201.348	57.492	0.323	-0.308
-200.333	43.228	-0.242	-0.216
-199.319	-64.336	-0.214	-0.085
-198.304	800.000	0.047	-0.146
-197.290	42.478	0.140	0.124
-196.275	295.129	0.109	-0.194
-195.260	800.000	-0.099	0.393
-194.246	38.092	0.120	0.104
-193.231	-200.000	0.004	0.166
-192.217	-101.333	0.361	0.086
-191.202	800.000	0.066	0.260
-190.187	-18.522	0.217	0.132
-189.173	112.271	-0.168	-0.198
-188.158	-200.000	0.025	-0.195
-187.144	-173.237	0.367	0.011
-186.129	800.000	-0.049	0.137
-185.114	-83.336	0.193	-0.060
-184.100	628.874	-0.032	-0.078
-183.085	-116.934	0.031	0.006
-182.071	-200.000	0.021	0.249
-181.056	314.773	-0.172	0.317
-180.042	289.274	0.186	-0.328
-179.027	800.000	-0.072	-0.271
-178.012	800.000	0.168	-0.473
-176.998	-57.608	0.253	0.108
-175.983	-139.024	-0.061	-0.006
-174.969	-87.418	-0.232	-0.068
-173.954	-112.472	0.288	0.056
-172.939	-72.746	-0.179	0.064
-171.925	145.359	-0.006	-0.008
-170.910	0.716	0.232	-0.162
-169.896	800.000	-0.056	0.234
-168.881	-200.000	0.015	0.074
-167.866	-71.635	0.182	0.066
-166.852	-127.649	-0.164	0.023
-165.837	128.265	-0.064	0.079
-164.823	45.318	0.053	-0.048
-163.808	14.697	0.290	0.221
-162.793	-149.239	-0.138	-0.011
-161.779	-119.697	0.261	-0.044
-160.764	-168.548	0.400	-0.015
-159.750	-111.624	0.178	0.035
-158.735	21.096	-0.119	0.094
-157.720	-54.414	-0.282	-0.125
-156.706	216.071	-0.096	-0.148
-155.691	800.000	0.054	-0.158
-154.677	-138.205	0.291	0.031
-153.662	347.980	-0.110	0.212
-152.647	-112.018	0.158	0.031
-151.633	-64.715	-0.184	0.072
-150.618	800.000	0.109	0.302
-149.604	-56.532	0.350	0.151
-148.589	770.835	-0.035	0.092
-147.574	-90.823	-0.185	0.052
-146.560	800.000	0.072	0.236
-145.545	-137.463	0.102	0.011
-144.531	-146.085	-0.355	0.031
-143.516	179.087	-0.080	0.114
-142.502	-40.559	0.290	0.147
-141.487	-50.074	-0.076	0.035
-140.472	-200.000	-0.010	-0.128
-139.458	-200.000	-0.060	0.364
-138.443	800.000	-0.018	0.063
-137.429	79.249	0.195	-0.203
-136.414	-200.000	0.023	0.394
-135.399	9.105	0.071	0.052
-134.385	-200.000	0.006	0.277
-133.370	-133.080	-0.192	-0.024
-132.356	-53.900	0.066	0.029
-131.341	182.513	0.157	-0.225
-130.326	-106.105	-0.250	-0.055
-129.312	-119.910	0.342	-0.057
-128.297	-24.417	0.346	-0.201
-127.283	800.000	-0.012	0.052
-126.268	574.265	-0.041	-0.098
-125.253	195.751	-0.087	0.129
-124.239	410.051	-0.135	-0.279
-123.224	-200.000	0.007	0.046
-122.210	-148.271	0.310	0.025
-121.195	-79.469	-0.229	-0.075
-120.180	-4.682	0.094	-0.063
-119.166	168.380	0.242	-0.336
-118.151	-93.498	0.111	-0.030
-117.137	434.664	0.241	0.511
-116.122	110.957	0.051	-0.060
-115.107	-60.830	0.214	-0.088
-114.093	-186.598	0.143	-0.002
-113.078	71.606	0.059	-0.060
-112.064	-100.054	-0.115	-0.028
-111.049	14.941	0.203	0.155
-110.034	800.000	-0.057	-0.207
-109.020	-200.000	0.070	-0.342
-108.005	492.821	-0.078	-0.173
-106.991	-23.436	-0.092	0.054
-105.976	334.342	0.071	0.133
-104.962	-99.913	-0.268	0.065
-103.947	140.967	0.147	-0.190
-102.932	19.697	-0.178	-0.139
-101.918	-61.085	0.318	0.130
-100.903	396.138	-0.056	-0.113
-99.889	-37.318	-0.091	-0.047
-98.874	-74.312	-0.250	-0.088
-97.859	-130.514	-0.226	-0.030
-96.845	574.763	-0.121	0.288
-95.830	-108.782	-0.201	-0.042
-94.816	-84.487	0.139	-0.043
-93.801	-160.049	0.300	-0.016
-92.786	-122.833	-0.361	-0.057
-91.772	128.519	0.123	-0.153
-90.757	-46.848	0.341	-0.162
-89.743	-25.114	0.091	0.052
-88.728	-16.965	-0.254	-0.156
-87.713	-200.000	-0.038	0.270
-86.699	-37.389	0.233	0.121
-85.684	-200.000	0.002	0.234
-84.670	-87.174	-0.115	-0.034
-83.655	800.000	-0.075	-0.261
-82.640	177.509	-0.135	0.191
-81.626	800.000	0.090	0.376
-80.611	-64.522	-0.116	0.046
-79.597	-14.830	0.040	-0.025
-78.582	-29.756	0.322	-0.179
-77.567	-200.000	-0.042	0.418
-76.553	-89.311	-0.248	-0.071
-75.538	463.986	0.020	-0.043
-74.524	-101.235	-0.229	-0.054
-73.509	52.040	0.083	0.076
-72.494	800.000	-0.068	0.203
-71.480	30.112	0.122	0.101
-70.465	-200.000	-0.003	-0.036
-69.451	-191.484	0.117	0.001
-68.436	-200.000	-0.007	-0.107
-67.422	800.000	0.070	-0.200
-66.407	544.515	-0.105	-0.243
-65.392	197.965	-0.150	0.223
-64.378	-200.000	0.033	0.433
-63.363	104.554	0.143	-0.163
-62.349	163.266	-0.291	-0.397
-61.334	40.239	-1.359	-1.187
-60.319	-12.123	1.004	0.638
-59.305	562.386	-0.667	-1.565
-58.290	345.332	0.669	1.276
-57.276	300.416	0.889	1.592
-56.261	-200.000	133.279	661.866
-55.246	334.720	1675.092	3149.083
-54.232	131.322	2836.031	3536.368
-53.217	83.121	2331.960	2463.010
-52.203	30.399	1921.086	1592.989
-51.188	24.243	1712.022	1372.342
-50.173	22.212	1672.961	1325.677
-49.159	43.945	1747.360	1553.551
-48.144	41.335	1756.442	1541.414
-47.130	23.851	1705.912	1364.218
-46.115	21.333	1690.532	1332.691
-45.100	21.129	1685.312	1326.972
-44.086	21.163	1682.867	1325.255
-43.071	21.178	1679.879	1322.963
-42.057	21.065	1678.150	1320.693
-41.042	21.090	1676.007	1319.139
-40.027	21.069	1674.533	1317.767
-39.013	21.005	1672.831	1315.898
-37.998	21.019	1670.865	1314.405
-36.984	21.124	1669.444	1314.022
-35.969	21.194	1668.108	1313.446
-34.954	21.191	1666.567	1312.156
-33.940	21.151	1664.529	1310.202
-32.925	21.218	1662.615	1309.142
-31.911	21.085	1661.566	1307.274
-30.896	21.265	1659.422	1306.879
-29.881	21.254	1657.775	1305.446
-28.867	21.214	1656.013	1303.711
-27.852	21.177	1655.335	1302.846
-26.838	21.164	1653.728	1301.437
-25.823	21.270	1651.862	1300.703
-24.809	21.242	1651.232	1299.945
-23.794	21.267	1649.677	1298.860
-22.779	21.175	1648.431	1297.143
-21.765	21.209	1646.445	1295.780
-20.750	21.205	1644.577	1294.226
-19.736	21.239	1643.282	1293.410
-18.721	21.289	1642.212	1292.886
-17.706	21.277	1640.414	1291.332
-16.692	21.240	1638.860	1289.786
-15.677	21.183	1637.841	1288.507
-14.663	21.289	1636.282	1288.011
-13.648	21.365	1634.537	1287.150
-12.633	21.257	1633.118	1285.184
-11.619	21.326	1631.398	1284.289
-10.604	21.385	1630.103	1283.647
-9.590	21.267	1628.796	1281.706
-8.575	21.246	1627.931	1280.818
-7.560	21.272	1626.288	1279.666
-6.546	21.381	1625.306	1279.639
-5.531	21.228	1624.479	1277.820
-4.517	21.186	1623.541	1276.725
-3.502	21.229	1622.153	1275.895
-2.487	21.245	1620.767	1274.868
-1.473	21.053	1608.508	1263.788
-0.458	18.538	1589.732	1230.955
0.556	14.224	1592.811	1203.377
1.571	12.192	1617.737	1207.164
2.586	12.086	1629.466	1215.024
3.600	11.339	1574.480	1168.565
4.615	6.494	1467.104	1056.367
5.629	1.579	1409.658	983.201
6.644	0.633	1403.542	972.759
7.659	0.614	1401.756	971.313
8.673	0.568	1400.746	970.230
9.688	0.515	1398.524	968.264
10.702	0.492	1395.013	965.602
11.717	2.941	1397.667	983.039
12.731	9.054	1407.535	1029.194
13.746	14.774	1415.949	1072.055
14.761	17.028	1418.486	1088.355
15.775	16.602	1416.474	1083.984
16.790	15.572	1414.002	1075.409
17.804	14.845	1412.402	1069.445
18.819	14.506	1410.841	1066.004
19.834	14.141	1409.722	1062.733
20.848	14.040	1408.147	1060.803
21.863	13.795	1406.782	1058.123
22.877	13.588	1404.896	1055.289
23.892	13.490	1404.594	1054.348
24.907	13.492	1403.756	1053.634
25.921	13.487	1403.089	1053.012
26.936	13.552	1401.954	1052.479
27.950	13.588	1400.811	1051.757
28.965	13.577	1400.053	1051.021
29.980	13.676	1398.866	1050.667
30.994	13.736	1397.905	1050.230
32.009	13.726	1396.638	1049.121
33.023	13.702	1395.981	1048.387
34.038	13.643	1394.368	1046.710
35.053	13.752	1393.125	1046.374
36.067	13.651	1392.342	1045.053
37.082	13.685	1391.486	1044.531
38.096	13.648	1390.736	1043.644
39.111	13.753	1389.780	1043.498
40.126	13.699	1388.867	1042.378
41.140	13.626	1388.017	1041.191
42.155	13.562	1387.722	1040.475
43.169	13.471	1387.698	1039.794
44.184	13.562	1387.205	1039.900
45.199	13.511	1387.172	1039.468
46.213	13.516	1386.307	1038.758
47.228	13.554	1385.540	1038.327
48.242	13.517	1384.129	1036.944
49.257	13.587	1382.542	1036.105
50.271	13.581	1380.947	1034.781
51.286	13.626	1379.855	1034.150
52.301	13.670	1378.005	1032.950
53.315	13.610	1377.100	1031.804
54.330	13.630	1376.390	1031.307
55.344	13.505	1375.087	1029.462
56.359	13.527	1373.852	1028.582
57.374	13.523	1373.440	1028.154
58.388	13.501	1372.344	1027.111
59.403	13.528	1372.122	1027.017
60.417	13.527	1371.148	1026.191
61.432	13.484	1370.047	1025.015
62.447	13.493	1369.024	1024.214
63.461	13.405	1368.192	1022.954
64.476	13.411	1367.274	1022.217
65.490	13.480	1365.668	1021.353
66.505	13.451	1364.216	1019.997
67.520	13.465	1363.190	1019.226
68.534	13.554	1361.878	1018.698
69.549	13.490	1360.856	1017.455
70.563	13.393	1360.154	1016.240
71.578	13.412	1359.106	1015.482
72.593	13.477	1357.275	1014.427
73.607	13.470	1357.214	1014.250
74.622	13.264	1356.875	1012.640
75.636	13.430	1355.217	1012.332
76.651	13.471	1354.562	1012.000
77.666	13.462	1354.137	1011.539
78.680	13.497	1353.349	1011.077
79.695	13.446	1352.849	1010.302
80.709	13.480	1351.976	1009.768
81.724	13.484	1350.963	1008.945
82.739	13.581	1349.692	1008.499
83.753	13.604	1348.905	1007.961
84.768	13.722	1347.429	1007.483
85.782	13.583	1346.707	1006.014
86.797	13.638	1345.608	1005.437
87.812	13.583	1343.712	1003.599
88.826	13.589	1342.753	1002.826
89.841	13.520	1341.935	1001.712
90.855	13.637	1340.783	1001.468
91.870	13.574	1340.270	1000.618
92.884	13.609	1338.984	999.781
93.899	13.758	1337.835	999.735
94.914	13.701	1337.368	998.952
95.928	13.644	1336.406	997.803
96.943	13.691	1335.306	997.174
97.957	13.728	1334.070	996.386
98.972	13.672	1333.691	995.678
99.987	13.634	1332.769	994.674
101.001	13.651	1331.539	993.770
102.016	13.660	1330.566	993.007
103.030	13.769	1329.855	993.043
104.045	13.755	1328.999	992.235
105.060	13.637	1327.728	990.493
106.074	13.574	1326.601	989.187
107.089	13.529	1325.207	987.791
108.103	13.514	1324.076	986.774
109.118	13.517	1322.507	985.532
110.133	13.555	1320.941	984.503
111.147	13.573	1319.840	983.700
112.162	13.514	1318.613	982.350
113.176	13.706	1316.834	982.075
114.191	13.573	1316.491	980.949
115.206	13.623	1315.516	980.427
116.220	13.483	1314.297	978.609
117.235	13.690	1312.339	978.283
118.249	13.617	1311.555	977.181
119.264	13.551	1310.458	975.891
120.279	13.607	1309.476	975.402
121.293	13.593	1308.734	974.682
122.308	13.577	1307.473	973.559
123.322	13.506	1306.469	972.307
124.337	13.582	1305.352	971.841
125.352	13.615	1303.919	970.879
126.366	13.577	1302.514	969.525
127.381	13.564	1301.900	968.904
128.395	13.486	1300.743	967.501
129.410	13.557	1299.552	966.945
130.424	13.622	1298.808	966.686
131.439	13.598	1297.864	965.760
132.454	13.652	1296.549	965.007
133.468	13.574	1295.935	964.014
134.483	13.684	1294.887	963.788
135.497	13.606	1293.767	962.417
136.512	13.597	1292.166	961.088
137.527	13.562	1291.324	960.171
138.541	13.516	1290.146	958.944
139.556	13.696	1288.124	958.397
140.570	13.717	1287.493	957.964
141.585	13.798	1285.720	957.027
142.600	13.804	1284.442	956.029
143.614	13.717	1284.496	955.480
144.629	13.872	1283.427	955.494
145.643	13.868	1281.935	954.279
146.658	13.809	1280.605	952.865
147.673	13.658	1279.332	950.967
148.687	13.763	1277.984	950.482
149.702	13.624	1277.000	948.869
150.716	13.759	1275.505	948.446
151.731	13.681	1274.282	947.004
152.746	13.715	1273.480	946.523
153.760	13.800	1271.584	945.511
154.775	13.811	1271.198	945.207
155.789	13.940	1269.853	944.852
156.804	13.773	1268.762	943.010
157.819	13.881	1267.617	942.691
158.833	13.946	1266.563	942.192
159.848	14.037	1265.307	941.687
160.862	13.876	1264.899	940.387
161.877	13.996	1262.950	939.534
162.892	13.953	1262.090	938.572
163.906	13.776	1261.721	937.213
164.921	13.976	1260.696	937.499
165.935	13.969	1259.573	936.540
166.950	13.949	1258.783	935.758
167.964	13.946	1258.357	935.340
168.979	13.960	1257.115	934.416
169.994	14.082	1256.265	934.382
171.008	13.998	1255.666	933.387
172.023	14.063	1254.710	932.956
173.037	14.148	1253.588	932.516
174.052	14.012	1253.186	931.374
175.067	13.887	1252.222	929.871
176.081	13.999	1251.099	929.586
177.096	14.027	1249.696	928.613
178.110	13.832	1249.363	927.194
179.125	13.982	1248.233	927.111
180.140	14.059	1246.704	926.325
181.154	14.076	1245.105	925.150
182.169	14.110	1244.008	924.439
183.183	14.037	1243.051	923.240
184.198	14.290	1241.016	923.051
185.213	14.158	1240.573	921.909
186.227	14.276	1239.191	921.453
187.242	14.290	1238.204	920.717
188.256	14.287	1237.560	920.139
189.271	14.263	1236.475	919.122
190.286	14.207	1235.374	917.911
191.300	14.122	1234.778	916.917
192.315	14.129	1233.987	916.289
193.329	14.174	1233.126	915.815
194.344	14.191	1232.652	915.476
195.359	14.216	1231.729	914.846
196.373	14.224	1231.157	914.382
197.388	14.361	1230.451	914.531
198.402	14.294	1230.528	914.142
199.417	14.470	1229.079	913.947
200.432	14.554	1228.391	913.817
201.446	14.430	1227.758	912.586
202.461	14.439	1226.939	911.946
203.475	14.460	1225.694	911.054
204.490	14.547	1224.370	910.465
205.504	14.473	1223.319	909.197
206.519	14.433	1222.199	908.066
207.534	14.522	1220.929	907.529
208.548	14.485	1220.210	906.709
209.563	14.397	1219.572	905.678
210.577	14.526	1218.170	905.260
211.592	14.492	1217.821	904.736
212.607	14.620	1216.809	904.597
213.621	14.591	1215.988	903.749
214.636	14.639	1214.641	902.927
215.650	14.583	1213.771	901.897
216.665	14.623	1212.874	901.365
217.680	14.673	1212.091	900.974
218.694	14.719	1211.302	900.557
219.709	14.709	1210.346	899.715
220.723	14.680	1210.084	899.281
221.738	14.663	1209.328	898.552
222.753	14.720	1208.193	897.935
223.767	14.663	1207.645	897.138
224.782	14.828	1206.817	897.332
225.796	14.736	1206.573	896.575
226.811	14.782	1205.680	896.082
227.826	14.755	1204.655	895.095
228.840	14.749	1204.293	894.714
229.855	14.780	1203.506	894.217
230.869	14.786	1202.681	893.554
231.884	14.887	1201.315	893.001
232.899	14.771	1201.051	892.108
233.913	14.790	1200.278	891.554
234.928	14.789	1199.228	890.691
235.942	14.879	1198.455	890.517
236.957	14.888	1197.548	889.815
237.972	14.835	1197.154	889.157
238.986	14.821	1196.418	888.458
240.001	14.919	1195.507	888.226
241.015	14.865	1194.898	887.410
242.030	14.885	1193.991	886.764
243.045	15.027	1192.873	886.605
244.059	14.975	1192.689	886.115
245.074	14.932	1192.128	885.391
246.088	14.931	1191.059	884.513
247.103	15.026	1189.990	884.146
248.117	14.967	1189.673	883.519
249.132	15.141	1188.455	883.454
250.147	15.024	1188.158	882.537
251.161	15.138	1186.739	882.007
252.176	15.106	1186.200	881.358
253.190	15.255	1185.532	881.569
254.205	15.121	1185.933	881.085
255.220	15.331	1184.161	880.791
256.234	15.230	1183.828	879.937
257.249	15.204	1183.053	879.146
258.263	15.260	1182.547	878.984
259.278	15.365	1181.542	878.709
260.293	15.297	1181.479	878.229
261.307	15.363	1180.787	877.986
262.322	15.430	1180.035	877.700
263.336	15.463	1179.045	877.055
264.351	15.477	1178.862	876.916
265.366	15.468	1178.022	876.166
266.380	15.484	1177.249	875.597
267.395	15.436	1176.481	874.696
268.409	15.389	1176.032	874.041
269.424	15.424	1175.773	873.955
270.439	15.363	1174.916	872.922
271.453	15.509	1173.748	872.738
272.468	15.453	1173.065	871.860
273.482	15.535	1171.938	871.372
274.497	15.496	1171.584	870.830
275.512	15.513	1171.080	870.464
276.526	15.566	1169.894	869.781
277.541	15.499	1169.223	868.858
278.555	15.678	1168.216	868.959
279.570	15.674	1167.621	868.417
280.585	15.595	1167.039	867.501
281.599	15.673	1165.840	866.937
282.614	15.700	1164.671	866.128
283.628	15.694	1164.224	865.685
284.643	15.596	1163.178	864.331
285.657	15.655	1162.380	863.962
286.672	15.685	1161.548	863.422
287.687	15.732	1160.202	862.586
288.701	15.843	1159.359	862.451
289.716	15.781	1158.342	861.302
290.730	15.776	1157.713	860.733
291.745	15.811	1157.280	860.512
292.760	15.708	1156.605	859.407
293.774	15.795	1156.133	859.425
294.789	15.868	1155.212	859.038
295.803	15.849	1154.987	858.699
296.818	15.791	1154.405	857.895
297.833	15.962	1153.234	857.819
298.847	15.894	1152.131	856.576
299.862	15.962	1151.853	856.643
300.876	15.921	1150.920	855.661
301.891	15.933	1150.177	855.096
302.906	16.022	1149.521	854.985
303.920	16.085	1148.800	854.692
304.935	16.075	1148.074	854.022
305.949	16.064	1147.608	853.547
306.964	16.075	1146.790	852.919
307.979	16.092	1146.099	852.415
308.993	16.116	1145.261	851.837
310.008	16.012	1144.619	850.761
311.022	16.202	1143.837	851.062
312.037	16.221	1142.500	850.087
313.052	16.148	1141.756	849.091
314.066	16.196	1141.039	848.724
315.081	16.103	1140.310	847.639
316.095	16.037	1139.668	846.752
317.110	16.101	1139.036	846.534
318.125	16.182	1137.837	845.973
319.139	16.147	1137.039	845.126
320.154	16.128	1136.610	844.638
321.168	16.154	1136.110	844.321
322.183	16.153	1135.827	844.035
323.197	16.155	1135.072	843.407
324.212	16.299	1134.098	843.326
325.227	16.227	1133.770	842.652
326.241	16.165	1132.957	841.664
327.256	16.311	1132.064	841.651
328.270	16.310	1131.031	840.805
329.285	16.252	1130.227	839.843
330.300	16.277	1129.188	839.123
331.314	16.196	1128.452	838.096
332.329	16.258	1127.454	837.589
333.343	16.271	1126.551	836.908
334.358	16.283	1125.824	836.357
335.373	16.384	1124.732	835.973
336.387	16.300	1124.153	835.052
337.402	16.418	1123.264	834.901
338.416	16.487	1122.812	834.832
339.431	16.448	1121.746	833.773
340.446	16.501	1121.138	833.507
341.460	16.524	1120.552	833.111
342.475	16.645	1119.491	832.842
343.489	16.561	1118.826	831.862
344.504	16.555	1118.095	831.217
345.519	16.551	1117.167	830.434
346.533	16.521	1116.644	829.825
347.548	16.700	1115.801	830.001
348.562	16.691	1115.249	829.472
349.577	16.716	1114.361	828.860
350.592	16.779	1113.013	828.094
351.606	16.660	1112.518	827.070
352.621	16.643	1112.160	826.648
353.635	16.691	1111.233	826.122
354.650	16.810	1110.060	825.754
355.665	16.793	1109.516	825.193
356.679	16.855	1108.851	824.927
357.694	16.746	1108.326	823.933
358.708	16.774	1107.874	823.663
359.723	16.795	1107.371	823.318
360.738	16.866	1106.483	822.930
361.752	16.776	1106.092	822.129
362.767	16.889	1105.188	821.930
363.781	16.870	1104.447	821.214
364.796	16.860	1104.266	820.961
365.810	16.925	1103.334	820.508
366.825	16.954	1102.706	820.110
367.840	16.995	1102.047	819.746
368.854	17.130	1101.582	819.980
369.869	17.063	1100.726	818.946
370.883	17.016	1100.141	818.210
371.898	16.957	1098.980	816.990
372.913	17.164	1098.266	817.384
373.927	17.064	1098.377	816.913
374.942	17.068	1097.864	816.477
375.956	17.145	1097.077	816.191
376.971	17.042	1096.347	815.080
377.986	17.204	1095.674	815.288
379.000	17.208	1095.416	815.044
380.015	17.076	1094.886	813.944
381.029	17.133	1094.241	813.666
382.044	17.173	1093.736	813.409
383.059	17.193	1092.672	812.642
384.073	17.390	1091.767	812.834
385.088	17.419	1090.409	811.891
386.102	17.277	1090.154	810.952
387.117	17.202	1088.995	809.662
388.132	17.321	1088.117	809.505
389.146	17.279	1087.660	808.894
390.161	17.261	1086.665	807.994
391.175	17.318	1085.955	807.666
392.190	17.503	1085.395	808.055
393.205	17.381	1084.800	806.963
394.219	17.338	1084.115	806.180
395.234	17.316	1082.853	805.063
396.248	17.296	1081.975	804.246
397.263	17.423	1080.866	803.952
398.278	17.429	1080.073	803.318
399.292	17.356	1079.166	802.228
400.307	17.358	1078.513	801.680
401.321	17.321	1078.183	801.192
402.336	17.400	1077.545	801.018
403.350	17.401	1076.510	800.182
404.365	17.408	1075.818	799.627
405.380	17.567	1074.937	799.650
406.394	17.393	1074.708	798.592
407.409	17.545	1073.786	798.550
408.423	17.646	1072.755	798.184
409.438	17.733	1072.025	797.979
410.453	17.640	1071.524	797.101
411.467	17.740	1070.633	796.836
412.482	17.676	1070.336	796.242
413.496	17.700	1069.422	795.608
414.511	17.702	1068.750	795.043
415.526	17.884	1068.343	795.518
416.540	17.810	1068.132	794.947
417.555	17.840	1067.609	794.629
418.569	17.753	1066.719	793.492
419.584	17.825	1066.296	793.439
420.599	17.800	1065.973	793.012
421.613	109.221	1332.078	1489.769
422.628	101.001	1370.772	1489.820
