DTS Sentinel unit serial number:	SN413079Multiplexer serial number:	ORYXHardware model number:	OX4-SRSoftware version number:	ORYX F/W v4.00 Oryx Data Collector v3.7.2.0data status	okinstallation	princeton_trtdifferential loss correction	single-endedforward channel	channel 2reverse channel	N/Adate	2019/09/11time	18:37:11forward acquisition time	60.00reverse acquisition time	0.00gamma	496.2192k internal	0.2288k external	0.2288temperature offset calibration	1.0027default loss term (dB/km)	0.3790temperature slope calibration	1.0000multiplexer offset coefficient	1.0000multiplexer slope coefficient	1.0000fibre end	0.00T internal ref (°C)	43.62T ext. ref 1 (°C)	1.19T ext. ref 2 (°C)	36.29length (m)	temperature (°C)	Stokes	anti-Stokes-747.200	800.000	-0.076	0.277
-746.185	-0.386	-0.194	0.141
-745.171	-63.848	0.012	0.005
-744.156	-200.000	-0.068	0.337
-743.142	-153.607	0.189	0.013
-742.127	-46.961	0.202	-0.101
-741.112	158.101	0.056	0.080
-740.098	550.802	-0.167	0.411
-739.083	-200.000	-0.018	0.094
-738.069	508.335	-0.111	0.265
-737.054	800.000	0.040	0.162
-736.039	800.000	0.047	0.159
-735.025	631.124	-0.039	0.102
-734.010	310.694	0.068	-0.131
-732.996	108.838	-0.055	-0.067
-731.981	-172.569	-0.056	0.002
-730.966	-148.172	-0.337	-0.029
-729.952	-28.981	-0.073	-0.043
-728.937	-200.000	-0.012	0.094
-727.923	-100.187	-0.137	0.035
-726.908	-17.195	0.187	0.121
-725.894	171.491	0.133	-0.195
-724.879	-70.359	-0.032	0.012
-723.864	396.723	-0.010	0.022
-722.850	-100.964	-0.072	-0.018
-721.835	-102.583	-0.282	-0.069
-720.821	117.478	0.213	-0.268
-719.806	-109.929	0.242	-0.052
-718.791	177.086	-0.108	-0.161
-717.777	800.000	-0.146	-0.427
-716.762	-200.000	0.041	0.356
-715.748	1.127	0.108	-0.080
-714.733	283.310	-0.052	-0.095
-713.718	-142.766	0.296	0.030
-712.704	340.043	0.095	-0.189
-711.689	-200.000	-0.042	-0.247
-710.675	66.849	0.013	-0.013
-709.660	-200.000	-0.002	-0.276
-708.645	800.000	0.078	-0.330
-707.631	137.153	-0.131	-0.176
-706.616	54.763	-0.355	-0.351
-705.602	82.392	-0.114	-0.126
-704.587	-200.000	0.093	-0.502
-703.572	-200.000	0.069	-0.502
-702.558	75.739	0.144	0.155
-701.543	-200.000	0.006	-0.068
-700.529	268.961	-0.136	-0.245
-699.514	-118.215	-0.195	-0.036
-698.499	-48.356	-0.071	-0.035
-697.485	-81.390	-0.202	0.068
-696.470	800.000	-0.024	0.090
-695.456	429.375	-0.043	-0.095
-694.441	224.028	-0.109	0.180
-693.426	379.649	-0.073	0.154
-692.412	-77.848	-0.124	-0.044
-691.397	131.133	-0.114	0.150
-690.383	432.932	-0.109	0.243
-689.368	-124.929	-0.373	-0.059
-688.354	527.256	0.080	0.192
-687.339	203.862	0.141	-0.223
-686.324	116.642	-0.105	-0.132
-685.310	164.699	0.068	-0.099
-684.295	-146.576	-0.474	0.042
-683.281	-53.859	0.098	-0.046
-682.266	-48.718	-0.238	0.117
-681.251	391.124	0.153	-0.324
-680.237	44.524	-0.292	0.274
-679.222	800.000	0.069	-0.240
-678.208	-129.319	-0.209	-0.030
-677.193	28.385	0.126	0.109
-676.178	-200.000	0.009	0.323
-675.164	-37.338	-0.137	0.075
-674.149	19.255	-0.141	0.116
-673.135	-200.000	-0.012	0.095
-672.120	-85.887	0.268	-0.085
-671.105	102.920	0.169	-0.202
-670.091	82.606	0.202	-0.224
-669.076	-200.000	-0.063	-0.319
-668.062	67.948	0.086	-0.090
-667.047	-168.302	0.093	-0.004
-666.032	6.110	-0.258	0.195
-665.018	302.766	0.110	-0.208
-664.003	-200.000	0.009	-0.236
-662.989	-23.189	-0.195	0.120
-661.974	-200.000	0.036	-0.310
-660.959	-170.341	0.269	0.010
-659.945	68.728	0.337	0.354
-658.930	-106.796	-0.291	-0.066
-657.916	-15.645	0.094	0.062
-656.901	63.265	-0.113	0.116
-655.886	-77.336	0.456	0.162
-654.872	617.695	-0.037	0.094
-653.857	-200.000	0.003	0.163
-652.843	277.368	-0.091	0.166
-651.828	-136.087	-0.353	-0.042
-650.814	-96.134	-0.175	0.048
-649.799	-130.652	0.261	-0.036
-648.784	134.999	-0.149	-0.197
-647.770	16.192	0.222	0.178
-646.755	128.115	0.045	-0.059
-645.741	800.000	-0.080	-0.317
-644.726	78.742	-0.156	-0.170
-643.711	800.000	-0.109	0.472
-642.697	531.457	-0.102	0.246
-641.682	800.000	-0.086	0.274
-640.668	14.754	-0.107	0.085
-639.653	610.500	0.144	0.369
-638.638	-200.000	-0.023	0.294
-637.624	800.000	0.014	0.048
-636.609	24.743	-0.111	-0.094
-635.595	-200.000	0.003	0.072
-634.580	211.011	0.267	-0.429
-633.565	258.888	0.109	-0.192
-632.551	115.122	0.100	0.124
-631.536	-200.000	-0.003	-0.424
-630.522	-130.557	0.228	-0.031
-629.507	561.565	0.065	-0.161
-628.492	800.000	-0.029	-0.114
-627.478	95.181	0.202	0.234
-626.463	-41.852	-0.273	-0.143
-625.449	-150.106	-0.053	0.004
-624.434	-200.000	0.082	0.432
-623.419	800.000	-0.022	0.093
-622.405	-200.000	-0.013	-0.236
-621.390	800.000	-0.039	0.119
-620.376	-107.181	-0.081	0.018
-619.361	-200.000	0.032	-0.352
-618.346	-10.013	0.187	-0.127
-617.332	800.000	-0.061	-0.197
-616.317	-73.219	0.221	-0.083
-615.303	-162.720	0.128	0.006
-614.288	-200.000	0.033	-0.251
-613.273	104.346	-0.141	0.170
-612.259	669.892	-0.049	-0.129
-611.244	42.273	-0.200	0.185
-610.230	-68.049	-0.063	-0.025
-609.215	217.218	0.038	0.062
-608.201	-200.000	0.044	-0.280
-607.186	488.130	0.068	-0.159
-606.171	-144.759	-0.082	0.008
-605.157	-88.471	-0.270	-0.082
-604.142	-92.051	-0.249	0.072
-603.128	-0.106	-0.323	0.234
-602.113	800.000	-0.052	0.197
-601.098	432.044	-0.098	-0.216
-600.084	-159.639	-0.423	0.024
-599.069	39.861	-0.343	-0.314
-598.055	-200.000	-0.009	0.242
-597.040	16.655	0.030	-0.024
-596.025	15.589	-0.083	-0.067
-595.011	-79.401	-0.266	-0.092
-593.996	164.318	-0.042	0.060
-592.982	319.222	-0.214	-0.413
-591.967	-4.038	0.068	0.048
-590.952	127.642	0.063	-0.082
-589.938	457.478	0.086	0.195
-588.923	128.419	-0.395	0.512
-587.909	340.481	0.080	-0.160
-586.894	-141.524	0.120	0.012
-585.879	359.331	0.103	-0.210
-584.865	47.408	-0.171	-0.162
-583.850	-26.285	0.046	-0.028
-582.836	276.803	0.096	0.174
-581.821	-135.335	0.073	0.009
-580.806	598.694	0.045	0.113
-579.792	101.067	-0.325	0.385
-578.777	-21.659	-0.306	0.190
-577.763	18.637	-0.174	-0.142
-576.748	111.285	0.110	0.135
-575.733	339.373	0.069	-0.138
-574.719	800.000	0.057	0.248
-573.704	-78.534	0.318	0.111
-572.690	-200.000	-0.010	0.050
-571.675	-200.000	-0.005	-0.352
-570.661	-56.456	-0.183	-0.082
-569.646	-119.547	-0.060	-0.010
-568.631	26.167	0.133	0.113
-567.617	263.140	-0.081	0.144
-566.602	-200.000	0.059	0.358
-565.588	800.000	0.076	-0.243
-564.573	13.091	-0.369	-0.291
-563.558	800.000	-0.079	-0.253
-562.544	-70.282	0.157	-0.061
-561.529	465.543	-0.107	-0.244
-560.515	-10.310	-0.134	-0.090
-559.500	396.399	-0.066	0.140
-558.485	292.461	-0.077	0.143
-557.471	-147.168	0.022	0.002
-556.456	-116.920	0.046	0.009
-555.442	-96.972	0.237	0.063
-554.427	-115.651	0.206	0.039
-553.412	-38.690	-0.199	0.107
-552.398	-61.608	0.475	-0.203
-551.383	-69.389	-0.109	-0.043
-550.369	25.461	0.134	0.113
-549.354	75.981	0.139	0.150
-548.339	-200.000	0.007	-0.167
-547.325	-102.397	-0.301	-0.073
-546.310	-130.659	-0.083	-0.011
-545.296	-81.946	0.148	0.049
-544.281	-102.679	-0.049	0.012
-543.266	800.000	-0.027	0.084
-542.252	-53.735	0.386	0.179
-541.237	800.000	-0.185	0.617
-540.223	182.098	0.136	0.204
-539.208	457.883	0.150	-0.338
-538.193	29.421	-0.229	-0.198
-537.179	33.273	0.058	0.051
-536.164	69.180	-0.008	0.008
-535.150	-200.000	0.072	-0.373
-534.135	-79.561	-0.123	0.042
-533.121	800.000	-0.059	0.261
-532.106	-80.066	-0.090	0.031
-531.091	-200.000	-0.048	-0.244
-530.077	800.000	-0.078	-0.293
-529.062	148.563	0.262	0.360
-528.048	-81.175	0.317	0.107
-527.033	-104.295	-0.188	-0.044
-526.018	387.458	0.036	-0.075
-525.004	-99.329	-0.224	0.058
-523.989	-200.000	0.024	0.271
-522.975	463.953	-0.063	0.142
-521.960	-134.197	-0.171	0.021
-520.945	800.000	0.070	0.220
-519.931	-60.224	-0.025	0.011
-518.916	-108.596	-0.356	0.078
-517.902	-57.246	0.214	-0.096
-516.887	107.002	0.220	-0.266
-515.872	312.547	-0.159	-0.303
-514.858	-200.000	0.039	0.223
-513.843	-70.005	-0.314	-0.121
-512.829	38.062	-0.191	-0.172
-511.814	153.434	0.064	-0.089
-510.799	255.573	-0.074	0.129
-509.785	-93.151	-0.082	0.023
-508.770	-44.595	-0.203	-0.103
-507.756	-81.424	-0.079	0.026
-506.741	331.043	0.228	0.445
-505.726	-69.357	-0.074	-0.029
-504.712	317.568	0.071	-0.137
-503.697	-16.202	0.081	0.052
-502.683	-149.609	-0.247	-0.020
-501.668	800.000	-0.034	0.096
-500.653	-200.000	-0.013	0.375
-499.639	-135.927	0.117	0.014
-498.624	-2.909	0.112	0.079
-497.610	542.250	0.021	0.052
-496.595	-46.632	0.399	-0.199
-495.581	94.113	-0.036	-0.041
-494.566	548.972	-0.093	-0.227
-493.551	-111.236	-0.127	0.026
-492.537	288.844	-0.097	-0.178
-491.522	6.213	0.167	-0.126
-490.508	-200.000	0.022	-0.349
-489.493	-90.206	0.166	-0.049
-488.478	-49.276	-0.462	-0.224
-487.464	-64.466	0.242	-0.100
-486.449	-57.992	0.225	0.100
-485.435	-116.471	0.290	0.054
-484.420	30.603	0.147	-0.127
-483.405	-94.932	0.239	0.066
-482.391	-40.663	0.213	-0.112
-481.376	800.000	0.033	-0.124
-480.362	-200.000	0.022	0.101
-479.347	800.000	-0.079	0.295
-478.332	-28.825	0.306	0.178
-477.318	-118.750	0.172	-0.031
-476.303	83.598	0.170	0.188
-475.289	800.000	-0.073	-0.245
-474.274	-200.000	-0.009	0.238
-473.259	-200.000	0.042	0.510
-472.245	-156.744	0.120	-0.008
-471.230	-200.000	0.010	-0.075
-470.216	602.682	0.061	0.154
-469.201	231.181	-0.151	-0.250
-468.186	-200.000	0.019	0.147
-467.172	494.921	-0.089	-0.206
-466.157	-28.378	-0.293	-0.171
-465.143	103.437	0.027	0.032
-464.128	-59.295	0.244	-0.106
-463.113	-150.309	0.389	0.030
-462.099	246.901	0.167	0.285
-461.084	-149.823	-0.206	-0.016
-460.070	-82.847	-0.367	0.120
-459.055	800.000	0.037	-0.139
-458.040	800.000	-0.015	-0.061
-457.026	-200.000	0.008	-0.172
-456.011	-36.762	0.277	0.151
-454.997	-171.538	0.237	-0.008
-453.982	793.087	0.067	0.186
-452.968	-39.206	-0.402	0.214
-451.953	-65.982	0.052	-0.021
-450.938	76.832	0.044	-0.048
-449.924	-44.053	0.343	-0.175
-448.909	-200.000	0.229	0.001
-447.895	-200.000	-0.017	-0.134
-446.880	68.600	0.106	0.110
-445.865	-20.819	-0.172	-0.107
-444.851	256.965	0.115	-0.201
-443.836	67.833	-0.169	-0.175
-442.822	-25.581	0.169	0.101
-441.807	-111.970	0.153	0.031
-440.792	94.920	-0.234	0.269
-439.778	-179.601	0.182	0.004
-438.763	185.763	-0.154	-0.231
-437.749	-73.701	0.063	0.023
-436.734	100.823	0.203	-0.239
-435.719	-127.505	-0.201	-0.030
-434.705	-200.000	0.031	0.137
-433.690	-200.000	0.040	-0.274
-432.676	-182.121	0.262	-0.005
-431.661	-29.181	-0.248	-0.144
-430.646	-165.952	0.255	-0.011
-429.632	-53.697	-0.128	-0.059
-428.617	152.299	-0.146	-0.201
-427.603	19.846	-0.140	-0.114
-426.588	-61.440	0.207	-0.088
-425.573	800.000	0.098	0.281
-424.559	-97.621	0.261	0.069
-423.544	-200.000	-0.020	-0.463
-422.530	-14.786	0.330	-0.214
-421.515	223.952	0.021	0.034
-420.500	800.000	-0.089	0.271
-419.486	-61.603	-0.385	0.164
-418.471	129.797	0.197	-0.255
-417.457	-18.388	-0.149	0.094
-416.442	-200.000	-0.025	0.117
-415.428	-200.000	0.040	0.360
-414.413	-95.419	0.293	-0.080
-413.398	-200.000	-0.004	-0.208
-412.384	-50.450	-0.141	-0.068
-411.369	49.590	-0.194	0.185
-410.355	-200.000	0.053	0.327
-409.340	491.615	0.001	0.002
-408.325	-104.609	-0.330	0.077
-407.311	108.549	-0.183	-0.221
-406.296	17.831	0.068	0.055
-405.282	-112.988	-0.234	-0.047
-404.267	-93.635	-0.305	0.085
-403.252	36.626	-0.094	-0.084
-402.238	-122.701	-0.293	0.048
-401.223	-200.000	-0.013	0.275
-400.209	339.810	-0.077	-0.152
-399.194	42.848	-0.013	-0.012
-398.179	-191.980	0.337	0.003
-397.165	559.967	0.049	0.120
-396.150	-200.000	0.042	0.252
-395.136	-98.973	-0.061	0.016
-394.121	315.727	-0.128	-0.243
-393.106	208.485	-0.173	0.273
-392.092	45.257	0.091	-0.085
-391.077	-73.769	0.280	-0.103
-390.063	-200.000	-0.095	-0.491
-389.048	800.000	0.022	-0.083
-388.033	-23.316	0.214	-0.130
-387.019	-160.301	-0.198	-0.011
-386.004	-119.315	-0.088	-0.016
-384.990	23.409	-0.223	-0.185
-383.975	-30.225	-0.337	-0.193
-382.960	-76.304	0.254	0.090
-381.946	82.507	-0.126	-0.138
-380.931	800.000	-0.067	0.242
-379.917	291.817	-0.173	-0.318
-378.902	800.000	0.049	0.147
-377.888	800.000	0.084	0.332
-376.873	94.477	0.167	0.191
-375.858	13.958	-0.016	0.012
-374.844	-200.000	0.000	-0.293
-373.829	259.317	0.134	0.233
-372.815	155.618	-0.227	0.316
-371.800	-114.562	-0.226	0.044
-370.785	-20.532	0.175	-0.109
-369.771	-200.000	-0.407	0.001
-368.756	-151.057	0.107	-0.008
-367.742	-110.287	0.185	-0.039
-366.727	228.058	0.118	-0.195
-365.712	94.906	-0.212	-0.243
-364.698	306.920	0.125	-0.235
-363.683	-43.744	-0.196	-0.100
-362.669	-147.420	0.312	-0.027
-361.654	147.688	-0.075	0.102
-360.639	-61.953	0.152	0.064
-359.625	-25.096	0.217	-0.130
-358.610	657.718	0.058	0.152
-357.596	-94.269	-0.257	-0.071
-356.581	-200.000	-0.013	0.076
-355.566	-139.188	-0.262	-0.029
-354.552	358.622	0.089	0.179
-353.537	-141.946	-0.214	-0.022
-352.523	-200.000	-0.077	-0.347
-351.508	-141.005	0.101	-0.010
-350.493	2.061	-0.056	-0.041
-349.479	-113.230	-0.399	-0.079
-348.464	157.480	-0.036	-0.051
-347.450	-188.214	0.043	-0.001
-346.435	-200.000	0.057	0.306
-345.420	-200.000	0.024	0.258
-344.406	608.535	-0.018	-0.044
-343.391	221.864	0.087	0.141
-342.377	800.000	0.094	0.295
-341.362	-144.497	0.333	-0.031
-340.348	-200.000	-0.020	-0.189
-339.333	-114.843	-0.320	0.062
-338.318	-72.080	0.201	0.075
-337.304	85.011	0.160	0.178
-336.289	0.506	0.204	-0.147
-335.275	-31.744	-0.369	-0.209
-334.260	800.000	-0.084	-0.267
-333.245	-25.213	-0.193	0.115
-332.231	800.000	-0.073	0.204
-331.216	-115.234	0.211	0.040
-330.202	111.124	-0.027	0.033
-329.187	-27.746	-0.274	-0.161
-328.172	-17.022	0.020	-0.013
-327.158	342.136	0.071	0.141
-326.143	800.000	0.031	0.122
-325.129	800.000	-0.012	-0.042
-324.114	-62.285	-0.122	-0.051
-323.099	96.111	-0.132	-0.152
-322.085	90.963	-0.124	-0.140
-321.070	143.305	0.269	-0.361
-320.056	216.834	-0.040	0.064
-319.041	-20.976	0.440	0.272
-318.026	292.566	0.091	-0.168
-317.012	28.032	0.179	0.153
-315.997	-22.255	0.181	-0.110
-314.983	87.560	-0.084	-0.094
-313.968	187.513	-0.156	0.235
-312.953	-200.000	0.001	-0.102
-311.939	-29.572	0.322	-0.186
-310.924	112.379	-0.145	0.177
-309.910	800.000	0.075	0.217
-308.895	-103.357	-0.264	-0.063
-307.880	159.859	0.073	0.102
-306.866	-200.000	0.047	0.221
-305.851	-174.653	-0.135	0.004
-304.837	405.851	-0.086	0.183
-303.822	-31.974	0.134	-0.076
-302.807	-163.766	0.154	0.007
-301.793	-12.991	-0.066	0.043
-300.778	139.960	0.210	-0.279
-299.764	-82.048	-0.048	0.016
-298.749	-16.707	0.121	0.077
-297.735	800.000	-0.165	-0.501
-296.720	-112.901	0.312	-0.062
-295.705	544.872	-0.088	0.212
-294.691	-20.819	-0.255	-0.158
-293.676	-200.000	0.019	-0.086
-292.662	-125.572	0.235	0.036
-291.647	21.319	0.112	-0.092
-290.632	-117.197	-0.266	0.049
-289.618	11.604	-0.099	0.077
-288.603	253.542	-0.198	-0.340
-287.589	132.888	0.054	-0.070
-286.574	-51.245	-0.059	-0.028
-285.559	-21.396	-0.110	0.068
-284.545	800.000	0.098	0.279
-283.530	83.751	0.106	0.117
-282.516	-200.000	-0.003	-0.212
-281.501	-72.421	-0.077	0.029
-280.486	-3.311	0.098	-0.069
-279.472	335.455	0.117	-0.229
-278.457	552.239	0.077	0.186
-277.443	554.291	0.169	0.410
-276.428	-42.735	-0.282	0.144
-275.413	356.649	-0.039	-0.078
-274.399	-127.622	0.435	-0.063
-273.384	33.341	-0.350	0.306
-272.370	-200.000	0.005	0.190
-271.355	-200.000	0.032	-0.382
-270.340	-68.501	0.204	-0.080
-269.326	-114.395	-0.348	0.067
-268.311	-152.045	0.494	0.036
-267.297	-16.406	0.208	0.133
-266.282	-200.000	0.004	0.149
-265.267	252.449	0.167	-0.287
-264.253	800.000	-0.038	0.165
-263.238	144.064	0.011	-0.015
-262.224	-200.000	-0.017	0.134
-261.209	-22.105	0.059	0.036
-260.195	540.231	0.035	0.083
-259.180	-200.000	0.030	0.240
-258.165	211.825	-0.088	0.139
-257.151	-102.078	-0.395	-0.096
-256.136	800.000	-0.073	-0.220
-255.122	-159.202	0.134	0.008
-254.107	10.068	-0.431	0.329
-253.092	741.563	-0.134	0.362
-252.078	-46.766	-0.319	0.157
-251.063	-100.473	0.104	-0.026
-250.049	800.000	-0.033	0.097
-249.034	-53.687	0.291	-0.134
-248.019	647.716	-0.041	0.105
-247.005	800.000	-0.092	-0.361
-245.990	298.925	-0.275	0.510
-244.976	-3.669	0.287	0.201
-243.961	427.131	0.172	0.373
-242.946	-30.693	-0.201	-0.114
-241.932	290.833	0.169	-0.308
-240.917	-100.918	0.183	0.045
-239.903	62.540	0.118	-0.119
-238.888	246.411	-0.073	-0.123
-237.873	-152.083	-0.338	-0.025
-236.859	104.502	-0.166	-0.197
-235.844	-67.423	-0.274	0.108
-234.830	800.000	0.061	0.193
-233.815	-168.173	-0.136	-0.005
-232.800	-200.000	-0.010	0.214
-231.786	29.869	-0.083	0.071
-230.771	800.000	-0.040	-0.114
-229.757	-200.000	-0.021	0.123
-228.742	-200.000	0.006	-0.099
-227.727	686.237	-0.057	-0.149
-226.713	-96.218	0.348	-0.093
-225.698	-200.000	-0.026	-0.169
-224.684	-200.000	0.001	0.368
-223.669	149.065	-0.112	-0.152
-222.655	-200.000	-0.007	0.194
-221.640	120.745	-0.144	0.180
-220.625	-135.449	0.210	-0.025
-219.611	-182.270	-0.417	-0.008
-218.596	239.183	-0.099	-0.166
-217.582	-100.322	0.046	0.011
-216.567	16.365	-0.020	0.016
-215.552	-200.000	-0.048	0.228
-214.538	-59.866	-0.182	-0.078
-213.523	-200.000	0.013	0.084
-212.509	416.532	0.129	0.276
-211.494	489.057	-0.070	0.160
-210.479	83.189	0.251	0.274
-209.465	-23.184	0.213	0.129
-208.450	163.697	-0.153	0.217
-207.436	438.524	-0.119	-0.260
-206.421	-27.653	0.205	-0.120
-205.406	251.107	0.048	0.082
-204.392	-200.000	0.023	-0.131
-203.377	-47.342	0.264	-0.129
-202.363	-149.824	0.023	0.002
-201.348	-200.000	0.101	-0.457
-200.333	-80.871	-0.345	0.115
-199.319	38.054	-0.089	0.080
-198.304	-200.000	-0.046	-0.204
-197.290	330.284	0.100	-0.192
-196.275	531.196	0.099	-0.234
-195.260	-10.276	0.124	-0.083
-194.246	-64.760	0.140	-0.057
-193.231	444.320	0.204	0.450
-192.217	-77.947	-0.186	0.064
-191.202	-101.025	0.189	0.046
-190.187	108.836	-0.104	-0.124
-189.173	158.423	-0.107	0.150
-188.158	-200.000	-0.021	0.426
-187.144	-91.205	0.456	-0.131
-186.129	-89.947	-0.232	-0.068
-185.114	-55.985	0.165	0.074
-184.100	-134.808	0.399	-0.049
-183.085	-200.000	-0.083	-0.482
-182.071	198.437	0.123	-0.190
-181.056	349.582	0.011	-0.023
-180.042	-142.606	-0.190	0.019
-179.027	-162.238	0.261	0.013
-178.012	308.439	0.162	-0.304
-176.998	64.028	0.107	0.107
-175.983	289.589	-0.012	-0.021
-174.969	800.000	-0.053	-0.182
-173.954	-77.126	-0.079	0.028
-172.939	76.629	0.150	0.160
-171.925	-81.238	0.105	0.035
-170.910	106.993	0.139	-0.166
-169.896	-200.000	0.395	-0.001
-168.881	94.537	-0.078	0.089
-167.866	167.815	-0.052	-0.074
-166.852	451.092	0.083	0.183
-165.837	-0.502	-0.322	-0.229
-164.823	-80.114	0.058	-0.019
-163.808	585.576	0.063	-0.154
-162.793	29.198	0.127	-0.108
-161.779	-200.000	-0.004	0.412
-160.764	-200.000	-0.031	0.206
-159.750	364.111	-0.053	-0.107
-158.735	-200.000	-0.050	-0.244
-157.720	247.286	0.030	-0.051
-156.706	216.348	0.140	-0.223
-155.691	-89.313	0.109	-0.032
-154.677	-126.381	-0.229	-0.034
-153.662	-115.931	0.025	-0.005
-152.647	-200.000	0.017	-0.234
-151.633	592.807	-0.115	0.285
-150.618	575.714	-0.100	0.244
-149.604	-76.081	0.262	-0.093
-148.589	741.743	0.044	-0.119
-147.574	-39.558	-0.290	-0.152
-146.560	800.000	-0.011	-0.037
-145.545	4.511	0.243	0.179
-144.531	-146.820	-0.229	-0.020
-143.516	-43.324	0.298	-0.151
-142.502	9.366	0.314	0.238
-141.487	-115.632	-0.146	-0.028
-140.472	-151.826	0.388	0.028
-139.458	171.756	-0.024	0.034
-138.443	-200.000	0.052	0.258
-137.429	-200.000	-0.015	0.142
-136.414	158.784	-0.080	-0.111
-135.399	178.693	0.191	-0.279
-134.385	800.000	0.051	-0.155
-133.370	12.604	0.138	0.107
-132.356	-104.357	0.230	0.053
-131.341	-84.348	0.267	0.085
-130.326	8.969	-0.192	-0.145
-129.312	800.000	-0.092	-0.318
-128.297	142.258	0.118	-0.156
-127.283	-200.000	-0.001	-0.014
-126.268	197.131	0.245	0.374
-125.253	16.558	0.214	0.169
-124.239	214.779	0.161	0.256
-123.224	-86.976	-0.186	0.057
-122.210	-200.000	0.000	-0.149
-121.195	14.786	0.275	0.215
-120.180	274.869	-0.069	0.123
-119.166	46.859	0.202	-0.188
-118.151	-200.000	-0.047	0.293
-117.137	-200.000	0.010	-0.555
-116.122	-51.817	0.200	0.093
-115.107	800.000	0.022	-0.072
-114.093	101.864	0.099	0.115
-113.078	-156.416	0.216	-0.013
-112.064	-71.456	0.132	-0.050
-111.049	-200.000	-0.001	-0.015
-110.034	-200.000	-0.036	0.325
-109.020	-200.000	-0.033	-0.177
-108.005	-200.000	-0.011	0.141
-106.991	800.000	0.072	0.210
-105.976	336.697	0.043	0.084
-104.962	273.545	-0.044	-0.077
-103.947	-200.000	0.044	-0.442
-102.932	-128.226	0.074	0.011
-101.918	-200.000	0.017	-0.147
-100.903	800.000	-0.062	-0.266
-99.889	737.044	0.058	-0.156
-98.874	-97.363	-0.406	-0.106
-97.859	507.041	-0.119	0.276
-96.845	225.576	-0.066	-0.106
-95.830	133.976	-0.127	-0.165
-94.816	1.894	-0.201	0.145
-93.801	800.000	-0.070	-0.216
-92.786	-151.464	0.338	0.025
-91.772	424.060	-0.152	0.327
-90.757	206.180	0.118	0.184
-89.743	314.506	0.047	-0.089
-88.728	800.000	-0.114	-0.400
-87.713	359.770	-0.101	0.202
-86.699	200.016	-0.199	-0.305
-85.684	65.405	0.330	-0.334
-84.670	310.863	-0.056	0.104
-83.655	-161.293	-0.152	0.008
-82.640	-55.741	0.188	0.084
-81.626	-200.000	-0.010	-0.335
-80.611	-98.303	0.231	-0.059
-79.597	-48.747	0.376	-0.180
-78.582	91.553	-0.173	-0.194
-77.567	-0.087	0.077	0.055
-76.553	-200.000	-0.034	0.229
-75.538	-200.000	-0.005	0.075
-74.524	69.203	-0.339	-0.349
-73.509	110.858	-0.088	0.105
-72.494	-78.831	0.355	-0.121
-71.480	-200.000	0.048	0.215
-70.465	-124.528	-0.315	-0.049
-69.451	307.830	-0.181	0.336
-68.436	114.937	0.117	-0.143
-67.422	800.000	0.057	0.175
-66.407	800.000	-0.015	-0.063
-65.392	-106.133	0.143	-0.032
-64.378	160.310	0.102	0.142
-63.363	159.294	0.089	-0.124
-62.349	-131.418	-0.036	0.005
-61.334	28.751	-0.673	-0.569
-60.319	320.675	0.130	0.246
-59.305	-200.000	-0.072	-0.435
-58.290	350.551	0.299	0.590
-57.276	761.192	0.660	1.788
-56.261	-200.000	74.509	560.994
-55.246	599.925	1293.877	3205.238
-54.232	145.294	2519.136	3365.273
-53.217	115.293	2340.530	2852.921
-52.203	53.615	1957.467	1874.706
-51.188	47.244	1746.754	1623.078
-50.173	44.222	1699.766	1556.229
-49.159	57.968	1732.869	1692.866
-48.144	64.559	1750.793	1761.074
-47.130	47.057	1714.694	1591.596
-46.115	43.702	1701.529	1553.607
-45.100	43.468	1696.941	1547.563
-44.086	43.526	1694.008	1545.272
-43.071	43.478	1691.682	1542.719
-42.057	43.476	1688.955	1540.161
-41.042	43.413	1687.169	1537.990
-40.027	43.505	1685.388	1537.005
-39.013	43.492	1683.249	1534.892
-37.998	43.465	1681.584	1533.108
-36.984	43.421	1680.498	1531.727
-35.969	43.632	1678.621	1531.556
-34.954	43.622	1677.403	1530.301
-33.940	43.629	1675.135	1528.224
-32.925	43.684	1672.680	1526.339
-31.911	43.605	1671.812	1524.892
-30.896	43.687	1669.593	1523.426
-29.881	43.547	1668.353	1521.182
-28.867	43.484	1666.651	1519.094
-27.852	43.657	1665.254	1519.058
-26.838	43.671	1663.344	1517.367
-25.823	43.657	1661.903	1515.885
-24.809	43.739	1660.307	1514.983
-23.794	43.622	1659.409	1513.230
-22.779	43.665	1657.517	1511.762
-21.765	43.655	1656.253	1510.475
-20.750	43.582	1654.304	1508.092
-19.736	43.713	1652.588	1507.444
-18.721	43.672	1651.291	1505.898
-17.706	43.661	1649.767	1504.363
-16.692	43.664	1648.067	1502.776
-15.677	43.623	1647.229	1501.649
-14.663	43.661	1645.557	1500.350
-13.648	43.684	1643.786	1498.843
-12.633	43.694	1642.341	1497.541
-11.619	43.637	1640.858	1495.705
-10.604	43.744	1639.194	1494.920
-9.590	43.689	1638.229	1493.575
-8.575	43.697	1636.717	1492.196
-7.560	43.658	1635.463	1490.710
-6.546	43.574	1634.326	1488.995
-5.531	43.642	1633.022	1488.247
-4.517	43.559	1631.972	1486.623
-3.502	43.566	1631.045	1485.767
-2.487	43.740	1629.091	1485.210
-1.473	43.242	1617.465	1470.919
-0.458	40.086	1595.180	1427.855
0.556	34.525	1592.031	1383.130
1.571	31.194	1615.020	1378.431
2.586	30.249	1629.236	1383.397
3.600	26.656	1576.538	1312.549
4.615	14.751	1457.649	1133.187
5.629	3.571	1381.404	1001.587
6.644	1.378	1371.123	979.911
7.659	1.201	1369.169	977.286
8.673	1.178	1368.059	976.261
9.688	1.013	1366.692	974.133
10.702	0.858	1363.814	971.007
11.717	4.595	1371.795	1000.687
12.731	15.366	1393.100	1086.222
13.746	23.500	1406.618	1149.627
14.761	24.850	1407.591	1159.066
15.775	24.981	1407.563	1159.791
16.790	25.168	1406.652	1160.144
17.804	25.171	1406.425	1159.876
18.819	25.352	1405.873	1160.491
19.834	25.442	1405.058	1160.291
20.848	25.436	1403.923	1159.218
21.863	25.428	1403.243	1158.499
22.877	25.460	1402.310	1157.831
23.892	25.380	1401.858	1156.841
24.907	25.351	1401.171	1155.986
25.921	25.352	1400.168	1155.062
26.936	25.301	1399.040	1153.704
27.950	25.385	1398.134	1153.392
28.965	25.382	1396.459	1151.888
29.980	25.425	1395.349	1151.145
30.994	25.519	1393.565	1150.174
32.009	25.440	1392.791	1148.930
33.023	25.425	1392.056	1148.124
34.038	25.424	1390.655	1146.861
35.053	25.430	1389.801	1146.095
36.067	25.393	1388.723	1144.870
37.082	25.426	1387.483	1143.957
38.096	25.452	1386.562	1143.261
39.111	25.396	1386.170	1142.481
40.126	25.351	1385.604	1141.623
41.140	25.387	1385.006	1141.260
42.155	25.391	1384.800	1141.018
43.169	25.491	1384.495	1141.297
44.184	25.487	1383.781	1140.581
45.199	25.392	1383.652	1139.775
46.213	25.400	1383.393	1139.511
47.228	25.419	1382.478	1138.778
48.242	25.460	1381.103	1137.800
49.257	25.394	1379.766	1136.185
50.271	25.418	1378.382	1135.093
51.286	25.374	1376.892	1133.489
52.301	25.423	1375.472	1132.526
53.315	25.253	1374.830	1130.827
54.330	25.383	1373.521	1130.468
55.344	25.422	1372.297	1129.607
56.359	25.365	1371.715	1128.671
57.374	25.404	1370.606	1127.905
58.388	25.415	1370.045	1127.411
59.403	25.418	1369.337	1126.750
60.417	25.418	1368.701	1126.123
61.432	25.429	1368.366	1125.818
62.447	25.433	1367.460	1125.001
63.461	25.375	1366.098	1123.417
64.476	25.488	1364.921	1123.055
65.490	25.357	1364.098	1121.462
66.505	25.446	1362.505	1120.608
67.520	25.389	1361.337	1119.189
68.534	25.441	1360.414	1118.660
69.549	25.478	1359.297	1117.870
70.563	25.467	1358.430	1116.991
71.578	25.517	1357.201	1116.189
72.593	25.528	1356.603	1115.667
73.607	25.467	1356.228	1114.885
74.622	25.552	1354.887	1114.205
75.636	25.512	1354.677	1113.686
76.651	25.535	1353.490	1112.757
77.666	25.464	1353.659	1112.355
78.680	25.396	1353.339	1111.578
79.695	25.418	1352.246	1110.715
80.709	25.437	1351.368	1110.014
81.724	25.381	1350.266	1108.665
82.739	25.390	1349.445	1107.948
83.753	25.455	1348.451	1107.433
84.768	25.493	1346.959	1106.342
85.782	25.498	1346.226	1105.677
86.797	25.457	1345.096	1104.397
87.812	25.543	1344.066	1103.981
88.826	25.556	1342.985	1103.079
89.841	25.533	1341.692	1101.777
90.855	25.489	1341.261	1101.056
91.870	25.497	1340.282	1100.205
92.884	25.498	1339.413	1099.396
93.899	25.442	1338.473	1098.185
94.914	25.491	1337.953	1097.963
95.928	25.554	1336.818	1097.320
96.943	25.454	1336.137	1096.053
97.957	25.468	1335.229	1095.295
98.972	25.521	1334.785	1095.161
99.987	25.561	1333.578	1094.312
101.001	25.441	1332.634	1092.713
102.016	25.454	1331.755	1091.977
103.030	25.512	1330.715	1091.375
104.045	25.526	1329.655	1090.494
105.060	25.489	1328.801	1089.477
106.074	25.562	1327.488	1088.744
107.089	25.558	1327.113	1088.315
108.103	25.474	1326.192	1086.956
109.118	25.626	1324.682	1086.543
110.133	25.541	1323.401	1084.883
111.147	25.637	1322.030	1084.242
112.162	25.491	1321.369	1082.725
113.176	25.514	1320.311	1081.899
114.191	25.592	1319.436	1081.553
115.206	25.553	1318.457	1080.421
116.220	25.608	1317.370	1079.768
117.235	25.460	1316.470	1078.044
118.249	25.520	1315.164	1077.242
119.264	25.455	1315.173	1076.760
120.279	25.561	1313.456	1075.897
121.293	25.566	1312.847	1075.332
122.308	25.589	1312.176	1074.827
123.322	25.655	1311.479	1074.551
124.337	25.624	1310.399	1073.389
125.352	25.696	1309.649	1073.107
126.366	25.579	1308.953	1071.747
127.381	25.721	1307.645	1071.426
128.395	25.658	1307.223	1070.606
129.410	25.647	1306.548	1069.898
130.424	25.593	1305.730	1068.813
131.439	25.678	1304.478	1068.195
132.454	25.620	1303.860	1067.248
133.468	25.627	1303.061	1066.544
134.483	25.631	1302.655	1066.143
135.497	25.714	1301.334	1065.457
136.512	25.660	1300.937	1064.716
137.527	25.689	1299.682	1063.770
138.541	25.706	1297.969	1062.373
139.556	25.567	1297.074	1060.728
140.570	25.632	1296.124	1060.236
141.585	25.650	1295.252	1059.536
142.600	25.632	1294.130	1058.423
143.614	25.649	1293.481	1057.896
144.629	25.605	1292.297	1056.573
145.643	25.520	1291.190	1055.076
146.658	25.656	1290.297	1055.050
147.673	25.554	1289.386	1053.613
148.687	25.502	1288.425	1052.436
149.702	25.474	1287.281	1051.240
150.716	25.601	1285.635	1050.545
151.731	25.567	1284.797	1049.571
152.746	25.583	1284.083	1048.989
153.760	25.602	1282.844	1047.996
154.775	25.600	1281.818	1047.053
155.789	25.767	1280.811	1047.106
156.804	25.645	1279.791	1045.470
157.819	25.634	1279.139	1044.781
158.833	25.602	1278.259	1043.786
159.848	25.619	1277.817	1043.432
160.862	25.527	1277.438	1042.497
161.877	25.577	1276.598	1042.006
162.892	25.639	1275.532	1041.406
163.906	25.655	1274.956	1040.937
164.921	25.682	1274.179	1040.361
165.935	25.709	1273.450	1039.830
166.950	25.688	1272.565	1038.893
167.964	25.756	1271.852	1038.612
168.979	25.729	1271.373	1037.977
169.994	25.707	1270.972	1037.429
171.008	25.631	1270.215	1036.281
172.023	25.652	1269.411	1035.656
173.037	25.714	1268.696	1035.336
174.052	25.713	1268.108	1034.758
175.067	25.679	1267.047	1033.610
176.081	25.765	1266.048	1033.197
177.096	25.712	1265.609	1032.444
178.110	25.782	1264.098	1031.520
179.125	25.760	1263.466	1030.785
180.140	25.782	1262.191	1029.782
181.154	25.765	1261.107	1028.708
182.169	25.646	1260.578	1027.506
183.183	25.716	1259.453	1026.897
184.198	25.721	1258.503	1026.057
185.213	25.833	1256.781	1025.204
186.227	25.815	1256.592	1024.857
187.242	25.813	1255.327	1023.723
188.256	25.771	1254.383	1022.621
189.271	25.823	1253.723	1022.287
190.286	25.833	1253.349	1021.948
191.300	25.772	1252.778	1021.050
192.315	25.740	1252.224	1020.324
193.329	25.851	1251.817	1020.532
194.344	25.711	1251.920	1019.731
195.359	25.807	1250.795	1019.267
196.373	25.791	1250.111	1018.530
197.388	25.803	1249.708	1018.181
198.402	25.746	1249.488	1017.589
199.417	25.778	1248.895	1017.198
200.432	25.848	1248.280	1017.003
201.446	25.709	1248.003	1015.901
202.461	25.904	1246.818	1015.945
203.475	25.840	1246.039	1014.857
204.490	25.787	1245.282	1013.854
205.504	25.879	1243.834	1013.102
206.519	25.916	1243.245	1012.745
207.534	25.906	1242.120	1011.681
208.548	25.782	1241.756	1010.599
209.563	25.855	1240.783	1010.126
210.577	25.872	1239.783	1009.321
211.592	25.822	1239.170	1008.450
212.607	25.955	1238.448	1008.517
213.621	25.863	1237.689	1007.296
214.636	25.834	1237.161	1006.612
215.650	25.948	1235.932	1006.160
216.665	25.914	1234.689	1004.872
217.680	25.827	1234.111	1003.828
218.694	25.927	1233.573	1003.860
219.709	25.988	1232.479	1003.218
220.723	26.086	1231.492	1002.873
221.738	25.962	1231.525	1002.118
222.753	25.815	1230.569	1000.437
223.767	25.902	1230.052	1000.410
224.782	26.049	1229.593	1000.764
225.796	25.893	1229.286	999.558
226.811	26.081	1227.981	999.454
227.826	26.053	1227.809	999.068
228.840	26.046	1227.096	998.365
229.855	26.066	1226.195	997.649
230.869	26.082	1225.692	997.244
231.884	25.955	1225.434	996.242
232.899	25.908	1224.351	995.016
233.913	25.967	1223.432	994.506
234.928	26.113	1223.288	995.104
235.942	26.057	1222.651	994.187
236.957	26.125	1221.779	993.766
237.972	26.067	1221.095	992.805
238.986	26.049	1220.354	992.014
240.001	26.069	1219.800	991.584
241.015	26.259	1218.711	991.656
242.030	26.181	1218.292	990.797
243.045	26.141	1217.490	989.842
244.059	26.197	1216.359	989.140
245.074	26.329	1215.859	989.367
246.088	26.318	1214.731	988.306
247.103	26.211	1214.218	987.213
248.117	26.224	1213.529	986.635
249.132	26.302	1212.463	986.106
250.147	26.152	1212.474	985.212
251.161	26.256	1211.546	984.939
252.176	26.279	1210.438	984.075
253.190	26.234	1210.239	983.583
254.205	26.218	1209.673	982.948
255.220	26.400	1208.412	982.824
256.234	26.256	1208.255	981.825
257.249	26.387	1207.532	981.863
258.263	26.315	1207.192	981.111
259.278	26.310	1206.455	980.398
260.293	26.216	1206.274	979.653
261.307	26.272	1205.788	979.476
262.322	26.412	1204.733	979.292
263.336	26.325	1204.210	978.310
264.351	26.263	1203.756	977.518
265.366	26.376	1203.163	977.562
266.380	26.276	1202.021	976.008
267.395	26.399	1201.563	976.213
268.409	26.283	1200.902	974.962
269.424	26.378	1200.523	975.077
270.439	26.443	1199.921	974.857
271.453	26.349	1199.614	974.011
272.468	26.321	1198.346	972.748
273.482	26.392	1197.600	972.434
274.497	26.390	1197.536	972.291
275.512	26.453	1196.986	972.095
276.526	26.371	1196.329	971.031
277.541	26.440	1194.972	970.219
278.555	26.559	1194.578	970.451
279.570	26.541	1193.887	969.706
280.585	26.378	1193.136	968.134
281.599	26.410	1192.276	967.525
282.614	26.407	1191.659	966.922
283.628	26.380	1190.904	966.078
284.643	26.541	1189.487	965.703
285.657	26.491	1189.246	965.156
286.672	26.425	1187.934	963.651
287.687	26.474	1187.103	963.158
288.701	26.504	1186.553	962.785
289.716	26.568	1186.058	962.639
290.730	26.560	1185.045	961.687
291.745	26.557	1184.776	961.367
292.760	26.635	1183.885	960.972
293.774	26.514	1183.566	959.991
294.789	26.612	1183.126	960.064
295.803	26.664	1182.577	959.810
296.818	26.645	1181.664	958.883
297.833	26.640	1181.268	958.450
298.847	26.743	1180.184	958.031
299.862	26.609	1179.701	956.847
300.876	26.619	1179.037	956.275
301.891	26.653	1178.262	955.745
302.906	26.721	1177.708	955.570
303.920	26.821	1176.684	955.179
304.935	26.679	1176.510	954.204
305.949	26.749	1175.580	953.737
306.964	26.662	1175.219	952.898
307.979	26.670	1174.679	952.417
308.993	26.794	1173.751	952.236
310.008	26.772	1173.044	951.459
311.022	26.768	1172.569	950.970
312.037	26.751	1171.795	950.171
313.052	26.743	1170.626	949.094
314.066	26.735	1169.764	948.270
315.081	26.816	1168.980	947.977
316.095	26.740	1168.847	947.384
317.110	26.746	1168.405	946.978
318.125	26.805	1167.776	946.690
319.139	26.830	1166.637	945.814
320.154	26.822	1166.410	945.502
321.168	26.751	1165.712	944.487
322.183	26.831	1165.410	944.572
323.197	26.712	1164.821	943.394
324.212	26.798	1163.912	943.018
325.227	26.945	1163.186	943.114
326.241	27.062	1162.432	943.025
327.256	26.950	1161.911	941.938
328.270	26.987	1161.102	941.391
329.285	26.914	1160.090	940.107
330.300	26.967	1159.455	939.787
331.314	26.936	1158.628	938.871
332.329	27.023	1157.984	938.718
333.343	26.903	1157.662	937.754
334.358	27.033	1156.447	937.357
335.373	26.962	1156.042	936.578
336.387	27.153	1154.893	936.550
337.402	26.933	1154.718	935.191
338.416	27.032	1153.880	934.939
339.431	27.036	1152.877	934.062
340.446	27.129	1152.626	934.254
341.460	27.146	1151.981	933.738
342.475	27.194	1151.028	933.130
343.489	27.144	1149.960	931.922
344.504	27.205	1149.291	931.614
345.519	27.214	1148.664	931.068
346.533	27.295	1147.361	930.345
347.548	27.185	1147.192	929.564
348.562	27.184	1146.566	928.966
349.577	27.120	1146.014	928.113
350.592	27.192	1144.800	927.411
351.606	27.127	1144.302	926.596
352.621	27.263	1143.466	926.528
353.635	27.219	1143.381	926.154
354.650	27.209	1142.766	925.523
355.665	27.242	1142.085	925.059
356.679	27.226	1141.399	924.341
357.694	27.258	1140.608	923.780
358.708	27.360	1139.888	923.635
359.723	27.326	1139.175	922.803
360.738	27.126	1138.816	921.411
361.752	27.323	1138.012	921.681
362.767	27.316	1137.715	921.324
363.781	27.240	1137.329	920.543
364.796	27.406	1136.114	920.317
365.810	27.456	1135.611	920.082
366.825	27.284	1135.491	919.034
367.840	27.334	1135.628	919.317
368.854	27.447	1134.296	918.727
369.869	27.438	1133.472	917.935
370.883	27.510	1132.429	917.369
371.898	27.471	1131.925	916.683
372.913	27.572	1131.456	916.728
373.927	27.461	1130.938	915.670
374.942	27.417	1130.501	915.015
375.956	27.500	1129.866	914.839
376.971	27.583	1129.158	914.601
377.986	27.442	1128.859	913.571
379.000	27.607	1128.233	913.810
380.015	27.551	1127.787	913.088
381.029	27.527	1127.246	912.446
382.044	27.477	1126.737	911.704
383.059	27.602	1125.888	911.563
384.073	27.547	1125.022	910.504
385.088	27.701	1123.920	910.302
386.102	27.602	1123.477	909.371
387.117	27.641	1122.574	908.751
388.132	27.626	1121.587	907.797
389.146	27.625	1121.052	907.277
390.161	27.539	1120.711	906.495
391.175	27.610	1119.943	906.149
392.190	27.732	1119.116	906.006
393.205	27.638	1118.635	905.067
394.219	27.672	1117.879	904.544
395.234	27.710	1117.044	903.975
396.248	27.765	1115.863	903.214
397.263	27.744	1115.090	902.403
398.278	27.782	1114.582	902.099
399.292	27.840	1113.949	901.794
400.307	27.781	1113.480	901.043
401.321	27.955	1112.641	901.146
402.336	27.721	1111.996	899.387
403.350	27.725	1111.720	899.107
404.365	27.833	1110.704	898.735
405.380	27.875	1109.898	898.212
406.394	27.799	1109.212	897.200
407.409	27.927	1108.742	897.374
408.423	27.904	1107.808	896.422
409.438	27.903	1107.019	895.703
410.453	28.021	1106.569	895.835
411.467	27.935	1106.051	894.918
412.482	27.964	1105.320	894.389
413.496	27.904	1104.254	893.155
414.511	28.046	1103.519	893.173
415.526	27.963	1103.547	892.709
416.540	27.997	1102.817	892.206
417.555	27.891	1102.563	891.403
418.569	27.923	1102.078	891.089
419.584	27.996	1101.961	891.271
420.599	28.058	1101.115	890.813
421.613	78.915	1283.477	1317.207
422.628	73.910	1310.045	1317.307
