DTS Sentinel unit serial number:	SN413079Multiplexer serial number:	ORYXHardware model number:	OX4-SRSoftware version number:	ORYX F/W v4.00 Oryx Data Collector v3.7.2.0data status	okinstallation	princeton_trtdifferential loss correction	single-endedforward channel	channel 2reverse channel	N/Adate	2019/09/18time	01:19:35forward acquisition time	60.00reverse acquisition time	0.00gamma	496.2192k internal	0.2350k external	0.2350temperature offset calibration	0.9983default loss term (dB/km)	0.3790temperature slope calibration	1.0000multiplexer offset coefficient	1.0000multiplexer slope coefficient	1.0000fibre end	0.00T internal ref (°C)	23.14T ext. ref 1 (°C)	0.17T ext. ref 2 (°C)	16.91length (m)	temperature (°C)	Stokes	anti-Stokes-747.200	-200.000	-0.028	-0.217
-746.185	-200.000	0.036	0.345
-745.171	-18.445	-0.153	-0.095
-744.156	-163.708	-0.369	0.017
-743.142	-200.000	0.033	0.419
-742.127	375.771	-0.080	0.163
-741.112	-143.429	0.244	0.023
-740.098	-118.308	-0.314	0.056
-739.083	284.786	0.050	0.090
-738.069	18.199	0.102	0.081
-737.054	502.158	0.068	-0.158
-736.039	40.271	0.106	-0.095
-735.025	78.496	-0.323	0.345
-734.010	-93.850	-0.257	0.070
-732.996	-172.635	-0.146	0.005
-731.981	-200.000	0.025	0.278
-730.966	166.834	0.025	-0.035
-729.952	-86.709	0.110	-0.034
-728.937	88.065	-0.233	0.258
-727.923	-200.000	0.026	0.122
-726.908	36.927	-0.268	0.236
-725.894	800.000	-0.108	-0.382
-724.879	-200.000	-0.022	-0.134
-723.864	196.150	-0.185	-0.281
-722.850	-200.000	0.051	-0.232
-721.835	-200.000	-0.010	-0.270
-720.821	-200.000	0.067	0.414
-719.806	-129.661	-0.272	-0.037
-718.791	85.779	0.120	-0.131
-717.777	-200.000	0.025	-0.130
-716.762	-122.292	0.353	0.058
-715.748	-156.301	0.271	-0.017
-714.733	420.038	-0.072	-0.153
-713.718	-168.031	0.087	0.003
-712.704	-48.728	-0.145	0.069
-711.689	467.049	0.110	-0.245
-710.675	-46.659	0.219	-0.107
-709.660	188.908	-0.213	-0.318
-708.645	-4.241	-0.121	0.084
-707.631	4.524	-0.117	0.086
-706.616	7.776	-0.262	0.196
-705.602	65.581	0.075	0.076
-704.587	28.537	-0.274	-0.231
-703.572	-200.000	-0.025	-0.117
-702.558	-47.100	0.161	0.078
-701.543	-123.950	-0.191	0.030
-700.529	59.468	0.033	-0.033
-699.514	209.431	0.103	-0.161
-698.499	-64.766	-0.148	-0.060
-697.485	-27.772	-0.157	0.091
-696.470	-200.000	0.058	0.306
-695.456	-103.684	-0.460	0.107
-694.441	-66.595	-0.122	0.048
-693.426	172.230	-0.044	0.063
-692.412	-105.818	-0.172	-0.039
-691.397	-150.569	0.198	0.015
-690.383	-113.026	-0.151	0.030
-689.368	157.799	-0.102	-0.140
-688.354	104.807	-0.033	-0.038
-687.339	-46.234	0.168	-0.082
-686.324	98.789	0.137	-0.157
-685.310	800.000	0.128	-0.371
-684.295	-141.163	-0.356	0.036
-683.281	557.349	-0.208	0.499
-682.266	-22.340	0.266	-0.161
-681.251	-7.937	-0.094	0.063
-680.237	-37.453	-0.133	-0.071
-679.222	-16.306	0.242	0.153
-678.208	158.750	-0.140	0.193
-677.193	204.231	-0.033	-0.051
-676.178	267.522	-0.021	-0.037
-675.164	800.000	-0.037	0.133
-674.149	-14.931	-0.259	-0.165
-673.135	680.874	-0.016	0.041
-672.120	-79.170	-0.320	0.108
-671.105	-55.039	0.235	-0.105
-670.091	1.505	-0.247	0.177
-669.076	-200.000	-0.011	0.177
-668.062	-200.000	-0.048	-0.244
-667.047	-200.000	0.031	-0.676
-666.032	-105.071	0.204	-0.047
-665.018	-200.000	0.013	0.081
-664.003	-63.195	-0.192	0.079
-662.989	-37.599	-0.186	-0.099
-661.974	800.000	-0.084	0.293
-660.959	42.254	-0.017	-0.015
-659.945	120.244	-0.137	-0.169
-658.930	137.561	-0.074	0.097
-657.916	-22.218	-0.147	-0.089
-656.901	47.201	0.116	-0.108
-655.886	119.428	0.173	-0.213
-654.872	271.420	0.062	-0.109
-653.857	13.657	-0.263	0.204
-652.843	-123.191	0.282	-0.045
-651.828	-69.269	0.291	-0.111
-650.814	-200.000	0.048	0.287
-649.799	-48.502	-0.224	0.107
-648.784	-122.552	-0.182	-0.029
-647.770	800.000	-0.140	-0.387
-646.755	310.068	-0.162	-0.301
-645.741	0.218	-0.182	0.129
-644.726	185.161	0.053	-0.078
-643.711	791.351	-0.027	-0.074
-642.697	-200.000	0.004	0.105
-641.682	-11.038	0.170	0.112
-640.668	170.101	0.150	-0.213
-639.653	237.315	-0.118	0.195
-638.638	16.282	0.123	0.096
-637.624	-21.816	0.237	-0.143
-636.609	-39.682	-0.012	0.006
-635.595	88.183	0.186	0.205
-634.580	-200.000	-0.059	0.325
-633.565	33.394	0.087	-0.075
-632.551	-1.681	0.351	-0.246
-631.536	15.234	-0.168	-0.131
-630.522	73.182	-0.189	-0.196
-629.507	800.000	0.145	-0.540
-628.492	-87.015	0.316	0.096
-627.478	-51.626	-0.146	-0.068
-626.463	23.091	-0.091	-0.074
-625.449	111.536	-0.205	0.246
-624.434	-83.341	-0.088	0.028
-623.419	470.549	0.106	-0.236
-622.405	-71.018	0.115	0.043
-621.390	-30.566	-0.214	0.121
-620.376	-200.000	-0.006	-0.276
-619.361	-130.027	0.248	0.034
-618.346	-200.000	0.004	-0.074
-617.332	550.136	0.103	0.245
-616.317	800.000	-0.068	-0.217
-615.303	-146.876	-0.093	0.008
-614.288	0.742	-0.159	-0.113
-613.273	-200.000	0.046	0.224
-612.259	-200.000	-0.024	-0.123
-611.244	-200.000	-0.027	-0.380
-610.230	-37.933	-0.164	-0.086
-609.215	-18.013	-0.136	-0.085
-608.201	-200.000	0.003	-0.095
-607.186	-139.631	-0.431	-0.046
-606.171	-200.000	0.010	-0.110
-605.157	-160.429	-0.187	-0.010
-604.142	352.104	-0.085	0.166
-603.128	169.459	-0.145	-0.206
-602.113	-12.613	0.220	-0.142
-601.098	-200.000	-0.043	-0.339
-600.084	-56.100	-0.185	0.082
-599.069	-200.000	-0.013	0.176
-598.055	800.000	0.039	0.127
-597.040	371.481	-0.026	-0.052
-596.025	185.147	0.169	-0.249
-595.011	-103.752	-0.272	-0.063
-593.996	-21.357	-0.260	0.158
-592.982	438.371	-0.025	0.055
-591.967	-62.821	-0.066	-0.027
-590.952	800.000	0.027	0.094
-589.938	-137.269	0.162	0.018
-588.923	25.885	-0.204	0.169
-587.909	-200.000	0.016	-0.109
-586.894	-44.620	0.258	0.128
-585.879	225.896	-0.140	-0.225
-584.865	82.343	-0.172	0.186
-583.850	-162.415	-0.502	-0.025
-582.836	-60.152	0.331	0.140
-581.821	-200.000	-0.010	0.053
-580.806	-85.359	-0.162	-0.050
-579.792	-133.208	0.291	0.036
-578.777	-200.000	0.005	0.045
-577.763	-200.000	0.033	-0.161
-576.748	10.769	-0.152	0.115
-575.733	-184.747	-0.166	0.003
-574.719	-116.447	0.030	-0.006
-573.704	-137.265	-0.246	0.028
-572.690	-136.918	-0.080	-0.009
-571.675	-83.997	0.040	0.013
-570.661	-200.000	0.004	0.265
-569.646	57.291	-0.092	-0.089
-568.631	800.000	-0.088	-0.337
-567.617	-200.000	-0.026	0.142
-566.602	188.747	-0.203	-0.302
-565.588	75.572	-0.116	0.121
-564.573	434.546	-0.109	0.236
-563.558	610.218	-0.042	0.105
-562.544	625.034	-0.104	-0.260
-561.529	91.170	0.082	0.091
-560.515	-0.309	0.319	-0.225
-559.500	569.772	-0.164	-0.396
-558.485	391.904	-0.107	0.221
-557.471	-200.000	0.009	-0.175
-556.456	1.160	0.085	0.061
-555.442	-200.000	0.049	-0.257
-554.427	231.691	-0.047	0.077
-553.412	188.583	-0.178	-0.263
-552.398	-200.000	0.050	-0.310
-551.383	-111.518	0.167	0.034
-550.369	-200.000	0.005	0.270
-549.354	648.355	-0.096	0.244
-548.339	-30.535	0.404	-0.227
-547.325	-14.564	-0.160	-0.102
-546.310	-57.503	0.331	-0.144
-545.296	800.000	0.035	0.106
-544.281	-49.288	0.167	0.079
-543.266	534.694	-0.106	0.249
-542.252	-14.290	0.302	0.193
-541.237	-200.000	-0.019	-0.096
-540.223	-139.078	-0.192	0.021
-539.208	602.297	-0.075	0.184
-538.193	-135.017	0.238	-0.028
-537.179	-47.013	-0.107	-0.052
-536.164	800.000	-0.063	-0.230
-535.150	-61.091	-0.127	-0.053
-534.135	-200.000	-0.016	0.156
-533.121	44.216	-0.147	0.133
-532.106	-66.396	-0.040	-0.016
-531.091	-176.577	0.255	0.006
-530.077	-97.823	-0.220	0.056
-529.062	85.811	-0.132	-0.144
-528.048	666.244	-0.139	0.355
-527.033	800.000	-0.095	-0.298
-526.018	-32.444	0.239	-0.132
-525.004	-87.628	0.381	-0.114
-523.989	-90.650	0.083	-0.024
-522.975	-200.000	0.064	-0.314
-521.960	-168.838	-0.368	-0.014
-520.945	800.000	-0.047	-0.188
-519.931	56.192	-0.102	-0.098
-518.916	-60.293	0.166	-0.070
-517.902	275.137	0.098	0.171
-516.887	800.000	0.068	-0.277
-515.872	-136.515	-0.190	0.022
-514.858	800.000	0.066	0.194
-513.843	250.954	0.191	-0.321
-512.829	800.000	-0.078	-0.227
-511.814	800.000	0.037	-0.157
-510.799	800.000	0.066	0.254
-509.785	256.978	0.060	-0.103
-508.770	-61.116	0.240	0.100
-507.756	-200.000	-0.003	-0.189
-506.741	-121.395	0.173	-0.029
-505.726	-200.000	0.008	-0.111
-504.712	-162.234	0.331	-0.016
-503.697	9.557	0.217	-0.162
-502.683	-200.000	0.061	-0.428
-501.668	-122.041	-0.100	0.016
-500.653	-144.495	-0.465	0.043
-499.639	1.864	-0.288	-0.206
-498.624	202.109	0.208	-0.317
-497.610	800.000	0.105	-0.287
-496.595	-200.000	0.074	-0.490
-495.581	-175.577	0.209	0.006
-494.566	588.857	0.046	0.111
-493.551	-195.031	0.476	-0.004
-492.537	186.993	0.295	-0.435
-491.522	659.720	-0.131	0.334
-490.508	-10.041	0.402	-0.264
-489.493	-200.000	0.026	0.178
-488.478	-200.000	0.011	0.301
-487.464	-127.035	0.079	0.011
-486.449	-163.081	-0.390	-0.019
-485.435	-73.866	-0.201	-0.072
-484.420	-12.816	-0.071	0.046
-483.405	-200.000	-0.005	0.247
-482.391	-83.460	0.201	-0.064
-481.376	-1.942	-0.185	0.129
-480.362	800.000	-0.011	-0.037
-479.347	42.602	0.325	0.293
-478.332	-80.867	0.046	-0.015
-477.318	215.807	-0.107	0.168
-476.303	325.154	0.113	-0.214
-475.289	-68.846	0.441	-0.168
-474.274	142.369	-0.037	0.048
-473.259	800.000	-0.019	0.081
-472.245	800.000	-0.064	-0.204
-471.230	-6.538	0.133	0.089
-470.216	40.243	-0.144	0.128
-469.201	-132.466	0.128	0.016
-468.186	-54.575	-0.179	-0.080
-467.172	49.747	-0.071	0.066
-466.157	-59.448	-0.067	0.029
-465.143	97.029	0.278	0.315
-464.128	-200.000	-0.001	-0.265
-463.113	-4.759	0.141	-0.096
-462.099	97.714	-0.074	0.084
-461.084	-93.289	0.273	-0.075
-460.070	28.278	-0.298	0.249
-459.055	-93.679	0.181	-0.049
-458.040	-200.000	-0.016	-0.368
-457.026	800.000	-0.029	-0.088
-456.011	-116.620	0.174	0.032
-454.997	159.117	0.097	-0.134
-453.982	800.000	0.043	0.155
-452.968	600.969	0.082	0.201
-451.953	-31.751	-0.240	0.133
-450.938	-200.000	0.029	-0.154
-449.924	-61.367	-0.068	-0.028
-448.909	-12.738	-0.301	-0.194
-447.895	-39.662	0.130	-0.067
-446.880	-58.611	-0.147	-0.063
-445.865	-42.610	0.108	-0.054
-444.851	60.624	-0.198	-0.194
-443.836	35.544	-0.165	0.143
-442.822	800.000	-0.091	0.286
-441.807	-96.549	0.140	-0.037
-440.792	-1.037	0.133	-0.093
-439.778	344.702	0.099	-0.193
-438.763	-24.814	-0.219	-0.129
-437.749	263.505	-0.048	0.083
-436.734	-98.541	-0.362	0.091
-435.719	-200.000	-0.016	0.348
-434.705	-200.000	-0.037	0.212
-433.690	239.478	0.094	0.155
-432.676	-170.386	-0.409	-0.014
-431.661	-46.054	-0.078	-0.038
-430.646	336.777	-0.190	0.364
-429.632	800.000	-0.078	0.277
-428.617	-181.270	0.082	0.002
-427.603	56.677	-0.118	-0.113
-426.588	-108.839	0.169	-0.036
-425.573	-114.327	0.224	-0.043
-424.559	143.789	0.130	0.171
-423.544	-66.491	0.329	0.129
-422.530	800.000	-0.048	0.169
-421.515	-175.499	-0.342	0.009
-420.500	800.000	-0.068	-0.217
-419.486	377.097	0.052	0.106
-418.471	-52.088	-0.052	-0.024
-417.457	-200.000	-0.013	-0.391
-416.442	-200.000	0.097	-0.429
-415.428	44.949	0.180	-0.163
-414.413	-200.000	-0.007	0.292
-413.398	-21.734	0.305	-0.183
-412.384	-112.498	0.367	0.072
-411.369	-200.000	0.004	0.235
-410.355	-140.715	0.164	0.017
-409.340	-200.000	0.002	-0.047
-408.325	111.301	-0.087	-0.104
-407.311	76.138	-0.128	-0.134
-406.296	-200.000	0.058	-0.386
-405.282	-16.296	0.212	0.133
-404.267	-25.972	-0.138	0.080
-403.252	-159.223	-0.245	-0.014
-402.238	-62.290	-0.412	-0.169
-401.223	-150.513	0.051	0.004
-400.209	412.880	0.058	-0.122
-399.194	-158.173	-0.198	0.011
-398.179	333.153	0.139	-0.265
-397.165	-150.551	-0.331	-0.025
-396.150	800.000	0.022	-0.070
-395.136	-34.454	-0.227	0.122
-394.121	800.000	-0.133	-0.384
-393.106	593.573	-0.064	-0.157
-392.092	800.000	-0.047	0.184
-391.077	386.475	-0.060	0.122
-390.063	-200.000	0.171	-0.000
-389.048	103.702	-0.056	0.064
-388.033	-75.304	0.262	0.092
-387.019	-200.000	0.019	0.104
-386.004	-145.549	0.347	-0.031
-384.990	-58.518	-0.180	0.077
-383.975	-75.880	0.218	-0.076
-382.960	-31.275	-0.211	-0.117
-381.946	108.165	0.097	0.114
-380.931	138.419	0.182	0.235
-379.917	-200.000	0.036	0.301
-378.902	-200.000	-0.007	0.385
-377.888	66.612	0.417	-0.417
-376.873	-70.553	0.358	0.133
-375.858	133.401	-0.059	0.076
-374.844	-77.645	0.169	0.058
-373.829	800.000	0.059	-0.166
-372.815	-12.453	0.114	-0.073
-371.800	-103.167	-0.477	0.111
-370.785	-1.824	-0.077	0.053
-369.771	-29.199	0.326	-0.184
-368.756	402.353	0.053	-0.110
-367.742	-8.946	0.296	-0.195
-366.727	114.414	-0.230	-0.276
-365.712	399.162	-0.099	-0.204
-364.698	-200.000	0.041	0.317
-363.683	-90.446	0.266	0.076
-362.669	30.547	-0.258	0.217
-361.654	398.860	-0.060	0.124
-360.639	-200.000	0.045	0.228
-359.625	-1.074	-0.264	0.184
-358.610	85.314	0.196	0.211
-357.596	-200.000	0.019	0.239
-356.581	-75.205	-0.203	-0.071
-355.566	-95.579	-0.212	-0.056
-354.552	19.894	-0.177	-0.140
-353.537	-49.407	-0.176	-0.082
-352.523	25.285	-0.086	0.070
-351.508	-46.272	0.467	0.226
-350.493	40.547	-0.163	0.144
-349.479	138.297	-0.142	-0.183
-348.464	-200.000	0.035	0.267
-347.450	-200.000	-0.004	-0.067
-346.435	-86.434	0.218	0.066
-345.420	-200.000	0.102	-0.514
-344.406	-195.553	0.315	-0.002
-343.391	295.484	-0.056	0.101
-342.377	-20.705	0.282	-0.170
-341.362	-90.089	-0.193	0.055
-340.348	-200.000	0.011	-0.439
-339.333	236.882	-0.189	0.308
-338.318	202.568	0.175	0.265
-337.304	-53.440	0.123	-0.055
-336.289	-200.000	0.009	0.071
-335.275	-200.000	0.013	0.196
-334.260	-49.325	-0.323	0.151
-333.245	141.430	-0.205	0.267
-332.231	-71.475	-0.212	0.078
-331.216	277.929	-0.122	0.214
-330.202	-56.720	0.022	0.010
-329.187	-200.000	-0.049	-0.248
-328.172	-200.000	0.004	-0.173
-327.158	800.000	0.067	0.214
-326.143	-131.565	0.142	-0.018
-325.129	-200.000	-0.055	0.376
-324.114	68.912	0.266	0.268
-323.099	519.375	-0.089	-0.205
-322.085	-170.345	0.333	-0.011
-321.070	-108.540	0.079	0.017
-320.056	-123.698	0.290	-0.045
-319.041	800.000	-0.050	-0.201
-318.026	53.682	-0.123	0.116
-317.012	800.000	0.019	0.063
-315.997	575.965	0.057	0.137
-314.983	-22.427	-0.165	-0.098
-313.968	-150.402	-0.199	-0.015
-312.953	-53.165	0.226	0.102
-311.939	-200.000	-0.009	-0.073
-310.924	189.016	0.114	0.167
-309.910	800.000	0.037	-0.113
-308.895	-80.269	-0.268	-0.088
-307.880	-33.697	-0.269	0.146
-306.866	278.970	0.039	-0.068
-305.851	86.627	0.037	-0.040
-304.837	26.264	-0.297	-0.243
-303.822	-159.568	-0.629	0.034
-302.807	181.558	-0.060	0.086
-301.793	-62.073	0.379	0.155
-300.778	90.811	0.285	0.313
-299.764	-109.663	-0.425	-0.088
-298.749	-200.000	0.016	0.279
-297.735	-123.169	-0.096	0.015
-296.720	249.217	-0.096	-0.159
-295.705	158.731	-0.172	0.235
-294.691	-79.173	0.188	-0.063
-293.676	800.000	0.079	-0.312
-292.662	73.043	-0.182	0.187
-291.647	-24.365	-0.222	-0.130
-290.632	275.343	-0.093	0.161
-289.618	117.792	0.064	-0.077
-288.603	241.432	-0.028	0.046
-287.589	313.210	0.118	0.217
-286.574	11.085	0.128	0.096
-285.559	-200.000	0.008	-0.179
-284.545	712.163	0.124	0.322
-283.530	141.582	-0.129	0.168
-282.516	754.251	0.039	-0.104
-281.501	-83.733	-0.222	0.070
-280.486	-200.000	-0.036	0.354
-279.472	481.777	0.024	-0.053
-278.457	662.632	-0.133	-0.337
-277.443	367.987	0.040	0.079
-276.428	800.000	-0.007	0.021
-275.413	-32.341	-0.284	-0.156
-274.399	-81.685	-0.253	0.081
-273.384	800.000	-0.111	0.377
-272.370	-43.786	-0.247	0.122
-271.355	-137.686	0.287	0.032
-270.340	-200.000	0.028	0.143
-269.326	-174.962	-0.307	0.008
-268.311	-2.045	-0.108	-0.074
-267.297	176.001	-0.091	0.129
-266.282	800.000	-0.042	0.132
-265.267	133.726	0.148	0.187
-264.253	65.814	0.108	-0.108
-263.238	135.092	-0.045	0.058
-262.224	-200.000	0.063	-0.286
-261.209	34.239	-0.082	0.070
-260.195	-73.610	-0.039	-0.014
-259.180	245.254	0.057	0.095
-258.165	-113.723	0.168	-0.032
-257.151	-174.492	-0.282	-0.008
-256.136	58.180	0.100	-0.096
-255.122	-131.934	0.276	0.035
-254.107	-105.008	-0.355	-0.080
-253.092	-69.338	0.076	-0.029
-252.078	9.976	0.219	-0.163
-251.063	-34.289	-0.120	0.064
-250.049	800.000	-0.027	0.105
-249.034	-119.951	0.155	-0.026
-248.019	278.020	0.113	-0.197
-247.005	35.225	0.062	0.053
-245.990	-21.178	0.177	0.106
-244.976	28.455	0.214	0.177
-243.961	-20.781	-0.235	0.141
-242.946	179.148	-0.055	0.078
-241.932	-75.169	0.187	-0.065
-240.917	-200.000	-0.048	0.272
-239.903	-200.000	-0.016	-0.267
-238.888	800.000	-0.043	0.129
-237.873	-117.579	-0.466	0.082
-236.859	111.741	0.373	0.441
-235.844	-94.313	-0.178	-0.048
-234.830	800.000	0.032	0.119
-233.815	592.936	-0.099	0.241
-232.800	800.000	-0.087	0.259
-231.786	-40.804	-0.207	0.105
-230.771	800.000	0.104	0.336
-229.757	23.491	-0.372	0.299
-228.742	-73.709	0.342	-0.122
-227.727	80.861	-0.334	0.353
-226.713	23.879	0.072	0.058
-225.698	272.064	0.034	-0.058
-224.684	79.140	-0.033	0.034
-223.669	-59.440	0.338	0.142
-222.655	-200.000	-0.055	-0.429
-221.640	119.248	-0.095	-0.115
-220.625	-40.036	0.285	-0.145
-219.611	-132.869	0.267	-0.033
-218.596	-20.393	0.161	-0.097
-217.582	-200.000	-0.040	0.201
-216.567	113.550	0.213	0.253
-215.552	16.534	-0.192	0.148
-214.538	419.537	-0.089	-0.187
-213.523	103.700	-0.197	0.226
-212.509	261.927	0.039	-0.066
-211.494	179.902	0.162	-0.232
-210.479	800.000	0.029	0.097
-209.465	-98.747	0.037	0.009
-208.450	-68.647	0.292	0.110
-207.436	26.806	0.095	0.078
-206.421	-1.836	-0.193	0.133
-205.406	800.000	-0.051	0.138
-204.392	800.000	-0.045	0.155
-203.377	533.224	0.042	0.098
-202.363	309.385	-0.101	-0.185
-201.348	-8.234	0.368	0.242
-200.333	19.207	-0.354	0.278
-199.319	10.079	-0.477	0.355
-198.304	-200.000	0.031	-0.194
-197.290	-167.218	-0.288	0.011
-196.275	-105.505	0.184	-0.041
-195.260	-117.576	0.253	-0.045
-194.246	-129.497	0.192	-0.026
-193.231	111.659	0.245	-0.289
-192.217	106.760	0.060	0.070
-191.202	800.000	-0.088	-0.335
-190.187	800.000	-0.083	-0.235
-189.173	-93.386	0.044	-0.012
-188.158	-200.000	0.022	0.154
-187.144	463.123	-0.095	-0.208
-186.129	-138.760	0.075	0.008
-185.114	800.000	-0.113	0.385
-184.100	-44.772	-0.168	0.082
-183.085	-9.784	0.188	0.122
-182.071	58.377	0.101	-0.097
-181.056	77.450	-0.032	-0.033
-180.042	-200.000	-0.019	0.426
-179.027	-42.604	0.240	-0.119
-178.012	119.963	0.200	0.242
-176.998	-100.525	-0.271	-0.066
-175.983	-72.170	0.097	-0.035
-174.969	-129.123	0.347	-0.047
-173.954	-200.000	0.047	-0.487
-172.939	228.572	0.065	-0.104
-171.925	14.890	0.242	0.185
-170.910	150.701	0.180	-0.239
-169.896	189.147	0.099	0.145
-168.881	28.900	0.111	-0.092
-167.866	-4.163	0.236	-0.160
-166.852	-200.000	0.012	0.340
-165.837	114.352	-0.189	0.224
-164.823	791.699	0.114	-0.305
-163.808	280.250	0.127	0.221
-162.793	-33.989	0.253	-0.136
-161.779	800.000	0.095	-0.261
-160.764	-139.932	-0.310	-0.032
-159.750	522.129	0.067	-0.152
-158.735	-15.072	0.339	-0.212
-157.720	203.042	-0.074	0.112
-156.706	345.451	-0.109	0.209
-155.691	28.609	-0.187	-0.155
-154.677	-200.000	0.017	-0.515
-153.662	116.555	-0.095	0.114
-152.647	-21.610	0.177	0.105
-151.633	45.598	-0.237	-0.214
-150.618	130.573	0.075	-0.093
-149.604	-37.015	-0.034	-0.018
-148.589	-18.142	-0.158	-0.097
-147.574	666.054	-0.075	-0.189
-146.560	13.115	0.136	0.103
-145.545	315.726	0.122	0.224
-144.531	-200.000	0.019	-0.424
-143.516	-200.000	0.002	0.246
-142.502	-56.951	-0.331	0.143
-141.487	216.775	0.068	0.106
-140.472	138.903	0.246	0.315
-139.458	473.114	0.122	0.268
-138.443	98.275	0.092	-0.103
-137.429	582.734	0.015	-0.035
-136.414	-200.000	-0.048	0.207
-135.399	-200.000	-0.071	0.566
-134.385	-199.216	0.177	-0.001
-133.370	296.649	0.079	0.140
-132.356	-71.515	-0.104	0.038
-131.341	-200.000	0.048	-0.204
-130.326	158.830	-0.050	-0.068
-129.312	-72.195	-0.301	0.109
-128.297	61.682	-0.085	0.083
-127.283	-22.561	0.341	-0.201
-126.268	-200.000	-0.051	0.390
-125.253	-96.136	0.185	0.048
-124.239	-157.769	-0.212	0.012
-123.224	-200.000	0.076	0.328
-122.210	-32.215	-0.100	0.054
-121.195	-200.000	0.037	0.166
-120.180	-45.202	-0.235	0.114
-119.166	262.106	-0.081	-0.137
-118.151	-122.649	-0.197	-0.031
-117.137	-129.104	-0.051	0.007
-116.122	-105.387	0.315	-0.070
-115.107	-200.000	-0.053	0.240
-114.093	169.240	-0.154	0.215
-113.078	-37.316	0.204	0.106
-112.064	59.189	-0.067	-0.065
-111.049	450.897	0.080	0.171
-110.034	-107.009	-0.518	0.111
-109.020	-87.217	0.211	0.062
-108.005	-99.155	-0.151	0.037
-106.991	-146.026	0.162	0.014
-105.976	-200.000	0.034	0.178
-104.962	-91.989	-0.056	-0.015
-103.947	552.581	0.108	0.252
-102.932	-92.109	0.372	0.102
-101.918	-93.628	0.121	-0.033
-100.903	-93.807	-0.083	0.022
-99.889	800.000	-0.097	0.336
-98.874	7.540	0.171	-0.125
-97.859	162.201	0.198	-0.271
-96.845	65.621	0.266	0.262
-95.830	136.247	0.124	0.157
-94.816	352.519	-0.082	-0.159
-93.801	-200.000	-0.001	0.007
-92.786	-134.690	-0.226	-0.027
-91.772	800.000	-0.044	0.135
-90.757	-200.000	0.046	0.466
-89.743	85.400	0.035	-0.037
-88.728	-161.308	-0.202	0.010
-87.713	-141.091	0.197	0.020
-86.699	203.911	0.052	-0.078
-85.684	-186.649	0.121	-0.002
-84.670	-200.000	-0.010	-0.066
-83.655	428.092	-0.143	0.300
-82.640	31.077	-0.164	0.136
-81.626	-200.000	-0.000	0.284
-80.611	-200.000	0.042	0.210
-79.597	-200.000	0.019	0.169
-78.582	-102.033	-0.106	0.025
-77.567	-146.798	0.266	-0.022
-76.553	237.608	0.105	-0.170
-75.538	-33.719	-0.093	-0.050
-74.524	769.996	-0.102	0.271
-73.509	700.897	-0.078	0.199
-72.494	-200.000	0.001	0.051
-71.480	-200.000	0.024	0.290
-70.465	-89.260	-0.096	0.027
-69.451	800.000	0.103	0.341
-68.436	313.589	0.132	-0.242
-67.422	239.746	0.102	0.165
-66.407	-89.838	-0.217	0.062
-65.392	132.632	-0.097	0.122
-64.378	-200.000	-0.047	0.357
-63.363	-200.000	-0.010	0.058
-62.349	-119.569	-0.049	0.008
-61.334	93.170	-1.194	-1.312
-60.319	190.177	0.715	1.044
-59.305	572.689	-0.503	-1.190
-58.290	418.265	0.707	1.468
-57.276	800.000	0.493	1.381
-56.261	-200.000	125.977	671.004
-55.246	426.850	1580.569	3312.996
-54.232	141.945	2743.688	3535.242
-53.217	90.240	2291.971	2491.184
-52.203	32.148	1900.255	1592.751
-51.188	26.233	1696.534	1377.000
-50.173	24.083	1657.911	1329.566
-49.159	46.203	1727.760	1555.370
-48.144	43.463	1739.323	1544.800
-47.130	25.797	1690.547	1368.609
-46.115	23.294	1674.939	1337.050
-45.100	23.127	1670.128	1331.902
-44.086	23.059	1667.699	1329.396
-43.071	22.959	1665.874	1327.140
-42.057	22.971	1662.965	1324.864
-41.042	22.995	1660.880	1323.328
-40.027	23.064	1659.137	1322.399
-39.013	22.960	1657.348	1320.147
-37.998	23.092	1655.781	1319.827
-36.984	23.020	1654.672	1318.355
-35.969	23.173	1652.766	1317.926
-34.954	23.228	1651.162	1317.002
-33.940	23.178	1649.529	1315.275
-32.925	23.054	1648.675	1313.620
-31.911	23.030	1646.741	1311.850
-30.896	23.067	1644.883	1310.596
-29.881	23.115	1643.501	1309.793
-28.867	23.154	1642.180	1308.980
-27.852	23.069	1640.137	1306.670
-26.838	23.085	1638.942	1305.789
-25.823	23.100	1638.280	1305.314
-24.809	23.237	1636.272	1304.674
-23.794	23.220	1634.925	1303.426
-22.779	23.143	1633.265	1301.486
-21.765	23.108	1632.113	1300.253
-20.750	23.145	1630.468	1299.165
-19.736	23.169	1629.429	1298.462
-18.721	23.318	1627.637	1298.072
-17.706	23.273	1625.573	1296.051
-16.692	23.206	1624.689	1294.798
-15.677	23.114	1623.585	1293.200
-14.663	23.236	1621.880	1292.681
-13.648	23.255	1620.293	1291.504
-12.633	23.152	1619.366	1289.962
-11.619	23.124	1617.798	1288.457
-10.604	23.158	1616.020	1287.238
-9.590	23.207	1615.055	1286.770
-8.575	23.137	1613.388	1284.886
-7.560	23.207	1612.412	1284.565
-6.546	23.146	1611.320	1283.203
-5.531	23.137	1610.232	1282.220
-4.517	23.166	1608.948	1281.356
-3.502	23.206	1607.614	1280.533
-2.487	23.250	1605.969	1279.485
-1.473	22.795	1593.897	1266.558
-0.458	19.915	1574.240	1230.446
0.556	14.820	1576.326	1199.600
1.571	12.676	1599.829	1201.740
2.586	12.451	1612.176	1209.252
3.600	11.445	1558.174	1161.492
4.615	6.310	1451.448	1047.727
5.629	1.154	1393.918	973.086
6.644	0.190	1386.870	961.922
7.659	0.216	1385.811	961.267
8.673	0.141	1385.609	960.567
9.688	0.143	1382.328	958.222
10.702	-0.003	1379.151	955.002
11.717	2.580	1382.504	973.671
12.731	9.349	1393.180	1024.334
13.746	15.184	1401.626	1067.743
14.761	16.784	1403.129	1078.991
15.775	16.134	1401.295	1073.351
16.790	15.308	1397.962	1065.456
17.804	14.465	1396.214	1058.677
18.819	14.075	1394.978	1055.172
19.834	13.810	1393.992	1052.657
20.848	13.622	1392.427	1050.185
21.863	13.421	1391.162	1047.866
22.877	13.180	1390.287	1045.590
23.892	13.067	1389.398	1044.114
24.907	13.124	1388.488	1043.701
25.921	13.112	1387.064	1042.463
26.936	13.195	1386.763	1042.668
27.950	13.171	1385.664	1041.596
28.965	13.257	1384.483	1041.158
29.980	13.378	1383.672	1041.218
30.994	13.330	1383.007	1040.325
32.009	13.425	1381.545	1039.728
33.023	13.439	1380.627	1039.036
34.038	13.327	1379.667	1037.519
35.053	13.347	1377.964	1036.272
36.067	13.266	1376.857	1034.838
37.082	13.383	1376.136	1034.936
38.096	13.377	1375.136	1034.053
39.111	13.335	1374.144	1032.953
40.126	13.214	1373.179	1031.386
41.140	13.217	1372.643	1030.909
42.155	13.245	1372.121	1030.599
43.169	13.162	1372.033	1029.926
44.184	13.218	1371.906	1030.088
45.199	13.203	1371.344	1029.480
46.213	13.179	1370.981	1028.969
47.228	13.216	1369.698	1028.147
48.242	13.268	1368.839	1027.730
49.257	13.207	1367.529	1026.282
50.271	13.253	1365.444	1024.909
51.286	13.223	1364.616	1024.013
52.301	13.278	1362.998	1023.045
53.315	13.189	1362.256	1021.849
54.330	13.073	1361.259	1020.291
55.344	13.184	1359.904	1019.875
56.359	13.139	1358.488	1018.441
57.374	13.159	1357.292	1017.579
58.388	13.038	1357.089	1016.593
59.403	13.063	1356.436	1016.167
60.417	13.152	1355.641	1016.030
61.432	13.147	1354.722	1015.221
62.447	13.112	1353.820	1014.241
63.461	13.042	1352.624	1012.820
64.476	13.083	1351.579	1012.201
65.490	13.052	1350.657	1011.234
66.505	13.087	1348.273	1009.570
67.520	13.160	1347.188	1009.115
68.534	13.171	1345.883	1008.119
69.549	13.141	1345.148	1007.297
70.563	13.102	1344.310	1006.340
71.578	13.030	1342.748	1004.646
72.593	13.061	1342.113	1004.265
73.607	12.983	1341.746	1003.431
74.622	13.054	1340.620	1002.932
75.636	13.066	1339.384	1001.988
76.651	13.033	1339.222	1001.582
77.666	12.968	1338.787	1000.771
78.680	13.032	1338.282	1000.691
79.695	13.114	1336.854	1000.036
80.709	13.058	1336.162	999.088
81.724	13.124	1335.361	998.802
82.739	13.189	1333.999	998.088
83.753	13.160	1333.517	997.464
84.768	13.257	1332.066	996.873
85.782	13.331	1331.077	996.489
86.797	13.252	1329.441	994.701
87.812	13.247	1328.229	993.678
88.826	13.292	1327.110	993.022
89.841	13.244	1326.283	992.027
90.855	13.329	1325.203	991.644
91.870	13.346	1324.139	990.858
92.884	13.350	1323.314	990.180
93.899	13.333	1322.590	989.446
94.914	13.431	1321.953	989.471
95.928	13.314	1320.856	987.860
96.943	13.370	1319.899	987.396
97.957	13.375	1318.615	986.375
98.972	13.324	1318.268	985.726
99.987	13.368	1316.797	984.799
101.001	13.367	1315.454	983.703
102.016	13.407	1315.044	983.546
103.030	13.325	1314.454	982.532
104.045	13.279	1313.581	981.519
105.060	13.314	1312.370	980.737
106.074	13.249	1310.685	979.004
107.089	13.209	1309.449	977.759
108.103	13.116	1308.490	976.404
109.118	13.174	1307.246	975.735
110.133	13.110	1306.199	974.486
111.147	13.211	1304.708	973.884
112.162	13.291	1303.066	973.044
113.176	13.145	1302.587	971.737
114.191	13.283	1301.460	971.623
115.206	13.303	1300.290	970.781
116.220	13.214	1298.820	969.078
117.235	13.253	1297.709	968.390
118.249	13.263	1296.989	967.826
119.264	13.169	1296.018	966.465
120.279	13.250	1294.533	965.746
121.293	13.284	1293.361	964.983
122.308	13.242	1291.934	963.593
123.322	13.168	1290.895	962.300
124.337	13.246	1289.808	961.856
125.352	13.216	1288.483	960.608
126.366	13.208	1287.509	959.753
127.381	13.125	1286.901	958.730
128.395	13.279	1285.489	958.489
129.410	13.262	1284.564	957.618
130.424	13.172	1283.858	956.483
131.439	13.215	1283.041	956.036
132.454	13.285	1281.714	955.370
133.468	13.230	1281.263	954.631
134.483	13.195	1280.715	953.937
135.497	13.257	1279.106	953.011
136.512	13.190	1277.820	951.583
137.527	13.340	1276.555	951.422
138.541	13.338	1274.851	950.055
139.556	13.332	1273.746	949.114
140.570	13.308	1272.729	948.133
141.585	13.321	1271.533	947.231
142.600	13.391	1270.154	946.522
143.614	13.381	1269.433	945.841
144.629	13.470	1268.105	945.281
145.643	13.509	1267.147	944.704
146.658	13.352	1265.739	942.677
147.673	13.263	1264.596	941.233
148.687	13.350	1263.984	941.193
149.702	13.362	1262.059	939.741
150.716	13.338	1260.732	938.533
151.731	13.369	1259.560	937.755
152.746	13.321	1258.611	936.693
153.760	13.426	1256.857	935.900
154.775	13.436	1256.458	935.577
155.789	13.504	1255.125	934.885
156.804	13.509	1254.580	934.423
157.819	13.543	1253.209	933.513
158.833	13.520	1252.323	932.639
159.848	13.559	1251.054	931.832
160.862	13.542	1250.298	931.092
161.877	13.442	1249.725	930.022
162.892	13.586	1247.907	929.391
163.906	13.516	1246.742	928.049
164.921	13.461	1246.503	927.482
165.935	13.501	1245.126	926.597
166.950	13.543	1244.650	926.398
167.964	13.637	1243.859	926.254
168.979	13.609	1243.238	925.554
169.994	13.558	1242.459	924.602
171.008	13.672	1241.130	924.168
172.023	13.712	1240.481	923.825
173.037	13.636	1240.208	923.119
174.052	13.625	1239.445	922.409
175.067	13.675	1238.010	921.537
176.081	13.693	1236.983	920.792
177.096	13.640	1236.123	919.774
178.110	13.609	1235.110	918.766
179.125	13.667	1233.491	917.803
180.140	13.695	1232.544	917.170
181.154	13.619	1231.393	915.817
182.169	13.923	1230.092	916.441
183.183	13.798	1229.137	914.964
184.198	13.840	1227.512	913.904
185.213	13.718	1226.743	912.577
186.227	13.833	1225.569	912.256
187.242	13.766	1224.583	911.075
188.256	13.932	1223.290	910.941
189.271	13.820	1222.703	909.812
190.286	13.739	1221.488	908.382
191.300	13.712	1220.433	907.367
192.315	13.722	1219.748	906.836
193.329	13.666	1219.702	906.414
194.344	13.721	1218.923	906.055
195.359	13.803	1217.830	905.608
196.373	13.819	1217.930	905.694
197.388	13.737	1217.289	904.686
198.402	14.040	1216.400	905.598
199.417	13.957	1215.914	904.705
200.432	14.037	1214.756	904.197
201.446	14.011	1213.996	903.408
202.461	14.185	1212.773	903.364
203.475	14.051	1211.874	901.887
204.490	14.175	1210.458	901.426
205.504	14.081	1209.398	900.047
206.519	14.154	1207.611	899.034
207.534	14.063	1207.066	898.056
208.548	14.031	1206.358	897.276
209.563	14.162	1205.374	897.176
210.577	14.173	1204.275	896.338
211.592	14.149	1203.784	895.759
212.607	14.246	1202.621	895.337
213.621	14.205	1201.899	894.499
214.636	14.136	1200.926	893.329
215.650	14.252	1199.851	893.070
216.665	14.152	1199.299	892.048
217.680	14.247	1198.058	891.555
218.694	14.282	1197.532	891.270
219.709	14.370	1196.454	890.859
220.723	14.257	1196.059	889.880
221.738	14.309	1195.158	889.409
222.753	14.351	1194.409	888.999
223.767	14.340	1193.817	888.419
224.782	14.479	1193.197	888.620
225.796	14.358	1192.570	887.429
226.811	14.493	1191.281	887.111
227.826	14.402	1191.172	886.470
228.840	14.421	1190.376	885.897
229.855	14.428	1188.914	884.767
230.869	14.485	1188.356	884.576
231.884	14.420	1187.718	883.680
232.899	14.391	1187.388	883.200
233.913	14.432	1186.364	882.578
234.928	14.330	1185.705	881.472
235.942	14.388	1184.099	880.508
236.957	14.357	1184.132	880.288
237.972	14.332	1183.643	879.716
238.986	14.443	1182.666	879.496
240.001	14.420	1181.968	878.780
241.015	14.431	1180.600	877.744
242.030	14.503	1179.957	877.567
243.045	14.476	1179.464	876.978
244.059	14.441	1178.525	876.020
245.074	14.632	1177.237	875.985
246.088	14.520	1176.576	874.828
247.103	14.515	1176.183	874.433
248.117	14.574	1175.357	874.052
249.132	14.690	1174.221	873.737
250.147	14.922	1173.321	874.200
251.161	14.775	1173.505	873.494
252.176	14.856	1172.566	873.142
253.190	14.814	1172.126	872.515
254.205	14.857	1171.139	871.926
255.220	14.876	1170.817	871.711
256.234	14.781	1170.458	870.873
257.249	14.985	1169.091	870.838
258.263	14.888	1169.001	870.189
259.278	14.930	1168.242	869.769
260.293	14.927	1167.806	869.350
261.307	15.007	1166.905	869.018
262.322	15.001	1166.305	868.463
263.336	15.035	1165.561	868.007
264.351	15.057	1164.808	867.483
265.366	14.968	1164.410	866.649
266.380	15.134	1163.174	866.513
267.395	15.085	1162.506	865.685
268.409	15.033	1161.811	864.825
269.424	15.128	1161.578	865.062
270.439	15.140	1160.738	864.421
271.453	15.132	1159.624	863.475
272.468	15.137	1158.617	862.677
273.482	15.014	1158.351	861.766
274.497	14.961	1158.184	861.293
275.512	15.149	1157.417	861.617
276.526	15.022	1156.783	860.411
277.541	15.125	1155.431	859.861
278.555	15.282	1154.886	860.186
279.570	15.110	1154.467	858.912
280.585	15.219	1153.712	858.834
281.599	15.236	1152.553	857.981
282.614	15.193	1151.568	856.954
283.628	15.219	1150.265	856.039
284.643	15.357	1149.206	855.879
285.657	15.291	1148.505	854.946
286.672	15.271	1147.569	854.073
287.687	15.392	1146.604	853.894
288.701	15.220	1146.146	852.601
289.716	15.496	1145.104	853.156
290.730	15.417	1144.813	852.465
291.745	15.474	1143.463	851.670
292.760	15.412	1143.356	851.202
293.774	15.352	1142.995	850.553
294.789	15.440	1142.125	850.275
295.803	15.501	1141.146	849.780
296.818	15.525	1140.375	849.252
297.833	15.417	1139.930	848.298
298.847	15.444	1139.171	847.797
299.862	15.567	1137.748	847.286
300.876	15.594	1137.207	846.940
301.891	15.541	1136.897	846.368
302.906	15.664	1136.364	846.518
303.920	15.699	1135.504	845.975
304.935	15.646	1135.018	845.272
305.949	15.774	1134.079	845.139
306.964	15.607	1133.663	843.918
307.979	15.534	1133.296	843.202
308.993	15.691	1132.350	843.211
310.008	15.704	1131.222	842.364
311.022	15.771	1130.725	842.255
312.037	15.761	1129.333	841.094
313.052	15.733	1128.618	840.347
314.066	15.688	1128.054	839.628
315.081	15.719	1127.166	839.048
316.095	15.684	1126.425	838.246
317.110	15.704	1125.578	837.644
318.125	15.764	1124.816	837.298
319.139	15.760	1124.007	836.601
320.154	15.756	1123.600	836.205
321.168	15.754	1122.881	835.589
322.183	15.809	1122.424	835.445
323.197	15.661	1121.996	834.318
324.212	15.835	1121.282	834.576
325.227	15.787	1120.666	833.807
326.241	15.805	1119.817	833.192
327.256	15.814	1118.839	832.435
328.270	15.784	1117.895	831.509
329.285	15.833	1117.147	831.124
330.300	15.790	1116.128	830.077
331.314	16.034	1114.768	830.194
332.329	15.924	1114.130	829.108
333.343	15.944	1113.217	828.448
334.358	15.949	1112.263	827.694
335.373	15.985	1111.831	827.475
336.387	15.874	1111.390	826.528
337.402	16.031	1110.403	826.493
338.416	15.985	1109.770	825.719
339.431	16.108	1109.372	825.953
340.446	16.128	1108.294	825.176
341.460	16.157	1107.894	824.948
342.475	16.196	1106.379	823.939
343.489	16.139	1105.940	823.257
344.504	16.194	1104.867	822.656
345.519	16.255	1104.280	822.444
346.533	16.264	1103.595	821.902
347.548	16.298	1102.981	821.541
348.562	16.215	1102.279	820.540
349.577	16.275	1101.434	820.131
350.592	16.226	1100.760	819.318
351.606	16.218	1100.149	818.753
352.621	16.260	1098.929	817.975
353.635	16.284	1098.360	817.595
354.650	16.217	1097.786	816.770
355.665	16.297	1097.233	816.675
356.679	16.268	1096.560	815.960
357.694	16.320	1096.154	815.838
358.708	16.442	1094.632	815.223
359.723	16.460	1094.213	814.922
360.738	16.389	1093.821	814.219
361.752	16.456	1092.982	813.846
362.767	16.433	1092.656	813.418
363.781	16.437	1092.348	813.136
364.796	16.482	1091.719	812.814
365.810	16.584	1091.072	812.750
366.825	16.504	1090.290	811.712
367.840	16.573	1089.849	811.641
368.854	16.606	1089.596	811.540
369.869	16.508	1088.432	810.131
370.883	16.640	1087.645	810.105
371.898	16.539	1087.127	809.165
372.913	16.696	1086.481	809.364
373.927	16.663	1085.864	808.676
374.942	16.743	1085.415	808.651
375.956	16.613	1085.005	807.653
376.971	16.714	1084.261	807.507
377.986	16.770	1083.797	807.359
379.000	16.857	1082.974	807.088
380.015	16.691	1083.187	806.383
381.029	16.803	1081.890	805.881
382.044	16.928	1080.804	805.595
383.059	16.792	1080.169	804.405
384.073	16.942	1079.455	804.513
385.088	16.857	1078.888	803.618
386.102	16.972	1077.678	803.191
387.117	16.932	1076.497	802.048
388.132	16.847	1075.855	801.100
389.146	16.847	1075.116	800.476
390.161	16.878	1074.265	799.917
391.175	16.907	1073.743	799.597
392.190	17.105	1072.833	799.778
393.205	16.962	1072.064	798.463
394.219	16.928	1071.621	797.904
395.234	16.935	1070.668	797.155
396.248	16.996	1069.851	796.765
397.263	17.066	1068.678	796.147
398.278	17.022	1067.628	795.089
399.292	16.908	1067.379	794.299
400.307	17.024	1066.461	794.089
401.321	17.009	1065.635	793.334
402.336	16.944	1065.557	792.898
403.350	16.893	1064.989	792.167
404.365	17.110	1063.562	792.048
405.380	16.987	1063.301	791.214
406.394	17.093	1062.177	790.800
407.409	17.123	1061.484	790.352
408.423	17.125	1060.962	789.902
409.438	17.158	1060.548	789.677
410.453	17.196	1059.541	789.034
411.467	17.323	1058.392	788.700
412.482	17.386	1058.017	788.644
413.496	17.223	1057.535	787.456
414.511	17.184	1056.948	786.770
415.526	17.268	1056.688	786.895
416.540	17.407	1055.894	786.876
417.555	17.447	1055.457	786.668
418.569	17.378	1054.963	785.909
419.584	17.326	1054.639	785.362
420.599	17.520	1053.638	785.439
421.613	107.994	1331.172	1488.020
422.628	99.473	1371.577	1488.085
