DTS Sentinel unit serial number:	SN413079Multiplexer serial number:	ORYXHardware model number:	OX4-SRSoftware version number:	ORYX F/W v4.00 Oryx Data Collector v3.7.2.0data status	okinstallation	princeton_trtdifferential loss correction	single-endedforward channel	channel 2reverse channel	N/Adate	2019/09/12time	23:23:34forward acquisition time	60.00reverse acquisition time	0.00gamma	496.2192k internal	0.2332k external	0.2332temperature offset calibration	1.0172default loss term (dB/km)	0.3790temperature slope calibration	1.0000multiplexer offset coefficient	1.0000multiplexer slope coefficient	1.0000fibre end	0.00T internal ref (°C)	29.05T ext. ref 1 (°C)	3.74T ext. ref 2 (°C)	23.73length (m)	temperature (°C)	Stokes	anti-Stokes-747.200	-184.387	0.068	0.001
-746.185	800.000	-0.067	0.223
-745.171	215.653	-0.158	0.253
-744.156	37.664	0.251	0.224
-743.142	79.709	-0.077	-0.083
-742.127	120.959	-0.147	-0.183
-741.112	120.659	0.173	0.216
-740.098	-200.000	0.009	0.135
-739.083	303.036	-0.076	-0.141
-738.069	102.417	-0.330	0.388
-737.054	399.034	-0.116	-0.244
-736.039	-101.571	-0.089	-0.022
-735.025	512.922	-0.094	0.219
-734.010	192.520	-0.103	0.156
-732.996	-39.901	0.178	0.094
-731.981	-200.000	0.021	0.369
-730.966	800.000	-0.104	0.427
-729.952	-6.076	-0.182	0.125
-728.937	-123.192	-0.309	0.050
-727.923	-66.953	-0.042	0.017
-726.908	0.828	-0.253	0.182
-725.894	-80.328	-0.192	-0.064
-724.879	-200.000	-0.421	-0.001
-723.864	-153.776	0.384	0.026
-722.850	106.929	-0.327	-0.390
-721.835	99.313	0.351	0.408
-720.821	1.652	0.258	-0.187
-719.806	-166.214	-0.246	-0.010
-718.791	-120.927	-0.157	0.027
-717.777	-87.441	-0.181	0.055
-716.762	2.692	-0.224	0.163
-715.748	-200.000	-0.031	0.154
-714.733	-200.000	0.023	0.413
-713.718	-200.000	0.003	-0.056
-712.704	126.838	-0.081	0.103
-711.689	15.788	-0.081	0.064
-710.675	800.000	-0.094	-0.284
-709.660	-40.300	0.204	-0.106
-708.645	47.596	0.190	-0.178
-707.631	-117.750	-0.271	0.049
-706.616	194.405	-0.238	-0.363
-705.602	-163.123	-0.246	-0.012
-704.587	-95.052	0.142	0.039
-703.572	-200.000	-0.013	0.121
-702.558	-79.985	-0.226	-0.076
-701.543	-144.543	-0.141	-0.013
-700.529	422.990	0.056	-0.120
-699.514	22.864	-0.176	-0.145
-698.499	182.006	-0.355	-0.525
-697.485	-81.006	-0.019	0.006
-696.470	-108.118	0.364	-0.079
-695.456	-8.226	-0.147	0.099
-694.441	27.012	-0.137	0.115
-693.426	-200.000	-0.033	0.224
-692.412	-200.000	-0.006	-0.035
-691.397	-119.171	0.153	-0.027
-690.383	333.946	-0.055	-0.106
-689.368	-66.265	0.279	-0.112
-688.354	-71.430	-0.111	0.042
-687.339	40.993	0.197	0.178
-686.324	800.000	-0.126	-0.387
-685.310	415.260	-0.133	-0.284
-684.295	-200.000	-0.076	-0.342
-683.281	483.360	0.113	-0.258
-682.266	411.799	0.061	-0.131
-681.251	-200.000	0.042	-0.206
-680.237	755.997	-0.153	-0.415
-679.222	800.000	-0.014	0.060
-678.208	-111.645	-0.271	0.055
-677.193	-29.870	0.141	0.080
-676.178	35.316	0.139	-0.122
-675.164	-141.459	0.175	0.018
-674.149	800.000	-0.129	-0.422
-673.135	67.919	-0.332	-0.341
-672.120	-200.000	-0.021	-0.095
-671.105	494.952	0.102	0.236
-670.091	-200.000	-0.008	-0.485
-669.076	-58.520	-0.227	0.099
-668.062	-25.869	-0.078	-0.046
-667.047	-51.611	0.149	0.070
-666.032	44.977	0.044	0.041
-665.018	-21.907	0.160	0.097
-664.003	-188.498	-0.042	0.001
-662.989	-75.065	0.211	0.076
-661.974	588.503	0.081	-0.201
-660.959	-71.788	-0.315	0.118
-659.945	-200.000	-0.004	0.112
-658.930	89.728	0.322	0.360
-657.916	-200.000	-0.016	-0.185
-656.901	-14.928	-0.302	-0.194
-655.886	-43.242	0.319	0.162
-654.872	-200.000	0.006	0.261
-653.857	-22.792	-0.182	-0.110
-652.843	-136.168	0.193	-0.023
-651.828	383.143	0.101	0.208
-650.814	-79.181	-0.312	0.106
-649.799	192.938	-0.136	-0.206
-648.784	-200.000	-0.032	0.237
-647.770	-41.463	-0.062	0.032
-646.755	-94.059	0.047	-0.013
-645.741	-185.774	-0.272	0.004
-644.726	800.000	0.095	0.265
-643.711	-94.859	-0.019	0.005
-642.697	77.994	-0.101	0.108
-641.682	16.838	-0.275	-0.218
-640.668	-19.166	-0.052	0.032
-639.653	286.824	-0.061	-0.110
-638.638	-183.487	0.183	-0.003
-637.624	-200.000	-0.064	0.328
-636.609	197.304	0.216	0.330
-635.595	100.611	0.129	-0.150
-634.580	15.703	0.061	-0.048
-633.565	-200.000	0.116	-0.664
-632.551	93.962	-0.115	0.131
-631.536	-24.739	0.069	0.041
-630.522	105.482	-0.195	-0.231
-629.507	-82.993	-0.242	-0.078
-628.492	800.000	-0.051	0.183
-627.478	-41.162	-0.266	0.138
-626.463	116.494	-0.095	0.117
-625.449	396.197	-0.074	0.154
-624.434	423.357	0.172	0.370
-623.419	-2.736	-0.141	-0.099
-622.405	366.664	0.161	-0.325
-621.390	509.847	0.066	-0.153
-620.376	-200.000	-0.015	-0.314
-619.361	-200.000	0.017	0.697
-618.346	-111.530	0.110	-0.022
-617.332	176.717	-0.059	0.086
-616.317	351.593	0.018	0.036
-615.303	-148.008	0.181	-0.015
-614.288	800.000	0.023	-0.077
-613.273	-200.000	0.107	-0.528
-612.259	376.924	0.080	0.164
-611.244	800.000	0.069	0.217
-610.230	800.000	0.012	0.041
-609.215	-83.698	-0.204	-0.065
-608.201	258.765	0.112	-0.193
-607.186	81.872	0.102	0.110
-606.171	205.835	0.107	0.166
-605.157	198.515	0.097	0.149
-604.142	-106.082	-0.188	0.042
-603.128	287.708	-0.245	0.443
-602.113	177.032	-0.154	0.225
-601.098	-85.837	-0.060	-0.019
-600.084	-119.868	-0.229	0.039
-599.069	800.000	0.076	-0.220
-598.055	-16.228	-0.385	-0.245
-597.040	-20.236	0.266	-0.164
-596.025	104.437	-0.123	0.145
-595.011	-109.239	-0.012	0.002
-593.996	245.714	0.128	-0.215
-592.982	-200.000	0.030	-0.350
-591.967	-42.616	-0.347	-0.177
-590.952	-14.793	-0.126	0.081
-589.938	-200.000	-0.020	-0.164
-588.923	435.692	-0.037	0.081
-587.909	-139.451	-0.526	0.056
-586.894	-158.746	0.152	0.009
-585.879	-8.417	0.341	0.229
-584.865	130.684	0.133	0.170
-583.850	-97.852	0.209	-0.054
-582.836	-158.599	-0.269	-0.015
-581.821	90.988	-0.217	0.244
-580.806	652.445	-0.027	-0.069
-579.792	-47.116	-0.166	0.081
-578.777	388.777	0.030	-0.063
-577.763	106.332	0.029	0.035
-576.748	800.000	-0.048	-0.135
-575.733	-33.877	-0.269	0.148
-574.719	-100.940	-0.055	0.013
-573.704	-17.896	0.157	0.098
-572.690	-200.000	0.045	-0.410
-571.675	546.964	-0.051	-0.121
-570.661	-117.889	-0.076	0.014
-569.646	-186.331	0.086	-0.001
-568.631	-59.517	0.201	0.086
-567.617	-128.427	-0.355	-0.050
-566.602	800.000	-0.080	0.313
-565.588	9.194	0.215	0.162
-564.573	-72.380	0.154	-0.057
-563.558	-200.000	0.050	-0.257
-562.544	-200.000	0.051	-0.375
-561.529	-67.110	0.084	0.033
-560.515	-75.848	-0.216	0.076
-559.500	-200.000	-0.039	-0.218
-558.485	-200.000	0.009	0.490
-557.471	161.465	0.103	0.143
-556.456	15.822	0.131	-0.103
-555.442	800.000	0.062	0.195
-554.427	198.518	-0.132	0.201
-553.412	517.410	-0.050	0.117
-552.398	-138.302	0.341	0.038
-551.383	42.581	-0.124	-0.113
-550.369	42.452	-0.113	-0.103
-549.354	52.305	-0.235	-0.224
-548.339	-50.479	0.316	-0.149
-547.325	37.372	0.198	-0.175
-546.310	684.495	-0.104	0.270
-545.296	150.998	0.148	-0.201
-544.281	-57.074	0.105	-0.046
-543.266	91.346	-0.119	-0.134
-542.252	-75.796	-0.310	-0.110
-541.237	-129.444	-0.201	-0.028
-540.223	-200.000	0.024	0.217
-539.208	800.000	-0.117	-0.348
-538.193	-200.000	-0.017	-0.099
-537.179	241.186	0.070	0.116
-536.164	-200.000	-0.006	-0.074
-535.150	-19.153	-0.136	0.084
-534.135	-44.035	0.113	0.056
-533.121	-56.673	-0.395	0.175
-532.106	19.660	-0.147	-0.118
-531.091	-200.000	-0.032	-0.258
-530.077	-200.000	0.022	0.274
-529.062	800.000	0.097	0.275
-528.048	-65.090	-0.139	-0.056
-527.033	551.722	0.023	0.055
-526.018	-106.870	0.204	0.045
-525.004	-138.468	0.148	-0.016
-523.989	-76.305	0.413	-0.145
-522.975	22.554	0.248	-0.202
-521.960	-83.177	-0.208	-0.067
-520.945	-31.908	-0.320	-0.179
-519.931	-131.224	-0.442	-0.058
-518.916	-200.000	0.058	-0.556
-517.902	5.018	-0.273	-0.201
-516.887	-68.924	-0.243	-0.093
-515.872	-71.714	0.050	0.019
-514.858	211.391	0.150	0.236
-513.843	-9.858	-0.341	-0.226
-512.829	63.710	0.178	-0.178
-511.814	307.958	0.150	-0.279
-510.799	10.474	0.159	-0.120
-509.785	3.252	-0.253	0.184
-508.770	79.779	-0.171	-0.183
-507.756	-200.000	-0.029	-0.230
-506.741	-33.139	-0.089	-0.049
-505.726	800.000	-0.020	-0.081
-504.712	-147.259	-0.239	0.020
-503.697	800.000	0.045	0.124
-502.683	-9.259	0.150	0.100
-501.668	-200.000	0.004	0.061
-500.653	-129.530	0.067	0.009
-499.639	-200.000	0.009	0.097
-498.624	73.846	-0.157	-0.164
-497.610	17.175	0.179	0.141
-496.595	-200.000	-0.012	-0.189
-495.581	73.625	-0.189	-0.197
-494.566	-82.470	-0.049	-0.016
-493.551	51.401	-0.089	0.084
-492.537	303.582	0.147	-0.271
-491.522	-200.000	0.028	0.174
-490.508	-111.422	0.333	-0.068
-489.493	-73.061	0.496	0.181
-488.478	-200.000	0.131	-0.709
-487.464	-10.035	0.280	-0.185
-486.449	130.902	0.086	0.110
-485.435	-163.616	-0.320	-0.015
-484.420	-200.000	-0.004	0.120
-483.405	159.073	0.144	-0.199
-482.391	-200.000	-0.015	-0.166
-481.376	-200.000	-0.086	0.510
-480.362	800.000	-0.042	-0.155
-479.347	216.339	-0.047	0.074
-478.332	-81.700	-0.235	-0.077
-477.318	-135.241	-0.186	-0.022
-476.303	-200.000	0.084	0.440
-475.289	-200.000	-0.021	0.120
-474.274	47.529	0.083	0.077
-473.259	-2.554	0.279	-0.195
-472.245	-200.000	-0.028	0.176
-471.230	-72.362	0.166	0.061
-470.216	800.000	0.085	-0.363
-469.201	-200.000	-0.030	0.254
-468.186	-51.533	0.317	-0.147
-467.172	-68.840	-0.057	0.022
-466.157	-108.802	0.260	0.055
-465.143	158.562	0.171	-0.236
-464.128	236.565	0.172	0.283
-463.113	800.000	0.070	-0.209
-462.099	330.874	0.122	0.234
-461.084	-200.000	0.072	-0.492
-460.070	-200.000	0.010	-0.170
-459.055	800.000	-0.128	0.410
-458.040	378.727	0.081	-0.165
-457.026	-200.000	-0.049	0.288
-456.011	-200.000	0.085	0.484
-454.997	5.128	-0.240	0.176
-453.982	-200.000	-0.019	-0.240
-452.968	150.289	0.273	-0.368
-451.953	-14.591	0.179	-0.114
-450.938	134.618	-0.167	0.215
-449.924	-18.908	-0.089	0.055
-448.909	-49.645	-0.253	0.120
-447.895	-6.495	0.198	0.134
-446.880	-97.660	0.407	-0.105
-445.865	-28.295	-0.288	0.165
-444.851	-131.714	0.240	-0.031
-443.836	800.000	0.032	0.134
-442.822	192.420	0.086	-0.129
-441.807	-107.700	0.223	-0.048
-440.792	-82.753	-0.214	0.069
-439.778	46.009	-0.120	-0.110
-438.763	-46.039	-0.109	0.053
-437.749	263.080	-0.156	-0.270
-436.734	-200.000	0.012	0.125
-435.719	-70.409	0.340	-0.128
-434.705	-200.000	0.047	0.236
-433.690	-200.000	0.010	0.154
-432.676	25.558	0.123	-0.102
-431.661	3.255	0.311	-0.225
-430.646	-200.000	0.019	-0.120
-429.632	-18.778	0.122	0.076
-428.617	721.389	0.199	0.527
-427.603	147.230	0.104	0.139
-426.588	130.595	0.130	-0.166
-425.573	49.501	0.245	0.230
-424.559	-200.000	-0.004	0.378
-423.544	-55.120	0.121	-0.054
-422.530	284.861	-0.071	0.127
-421.515	-11.892	0.136	0.089
-420.500	71.050	-0.119	0.123
-419.486	-200.000	0.032	-0.184
-418.471	47.801	0.171	-0.158
-417.457	571.815	-0.136	0.330
-416.442	3.985	0.175	0.127
-415.428	271.355	0.086	-0.150
-414.413	379.227	-0.039	0.079
-413.398	-7.891	-0.279	0.187
-412.384	-152.112	-0.281	0.020
-411.369	219.531	0.188	0.299
-410.355	557.993	-0.205	0.491
-409.340	-78.008	0.539	0.185
-408.325	4.266	-0.218	-0.158
-407.311	59.617	0.039	-0.038
-406.296	-20.006	0.134	-0.082
-405.282	800.000	0.042	-0.163
-404.267	8.257	-0.218	-0.162
-403.252	193.043	-0.305	0.458
-402.238	272.314	-0.171	0.299
-401.223	-200.000	0.015	-0.201
-400.209	-39.977	0.254	-0.131
-399.194	-100.161	0.067	0.017
-398.179	-35.196	0.163	-0.088
-397.165	29.901	-0.289	0.244
-396.150	148.090	0.100	0.133
-395.136	174.334	0.099	-0.143
-394.121	169.221	-0.109	-0.155
-393.106	-12.920	-0.071	-0.046
-392.092	354.359	0.072	-0.142
-391.077	278.461	0.086	-0.152
-390.063	43.637	0.101	0.091
-389.048	246.319	-0.134	0.224
-388.033	800.000	-0.024	0.101
-387.019	-110.877	0.148	0.030
-386.004	70.912	0.093	-0.096
-384.990	-114.487	-0.181	0.034
-383.975	-176.447	-0.263	0.007
-382.960	13.721	0.037	0.029
-381.946	503.029	0.067	0.153
-380.931	-146.652	-0.308	0.026
-379.917	800.000	-0.042	-0.150
-378.902	800.000	0.057	-0.161
-377.888	39.442	0.106	0.094
-376.873	-48.665	-0.119	0.057
-375.858	-163.386	-0.281	0.013
-374.844	-88.429	-0.086	-0.025
-373.829	-200.000	-0.042	-0.264
-372.815	-4.610	-0.252	-0.172
-371.800	800.000	-0.117	-0.363
-370.785	-72.585	0.117	-0.043
-369.771	192.620	-0.174	0.260
-368.756	800.000	-0.021	-0.078
-367.742	-3.240	-0.324	-0.224
-366.727	250.111	0.193	-0.324
-365.712	-69.373	0.104	-0.040
-364.698	800.000	0.055	-0.174
-363.683	124.221	-0.166	0.207
-362.669	26.796	0.083	-0.069
-361.654	-200.000	-0.037	0.246
-360.639	500.745	0.120	-0.275
-359.625	55.886	-0.028	-0.027
-358.610	800.000	-0.016	0.058
-357.596	-200.000	0.025	0.162
-356.581	-137.647	-0.289	-0.032
-355.566	-158.178	-0.214	0.012
-354.552	326.639	-0.130	0.247
-353.537	521.130	0.078	0.181
-352.523	-200.000	-0.014	0.451
-351.508	-70.818	0.225	-0.084
-350.493	-200.000	-0.009	-0.191
-349.479	-200.000	-0.011	-0.078
-348.464	-67.489	-0.150	-0.058
-347.450	182.389	-0.129	-0.189
-346.435	-27.555	-0.157	-0.090
-345.420	283.981	0.090	-0.160
-344.406	-191.709	-0.266	0.003
-343.391	-144.750	-0.061	-0.006
-342.377	143.831	-0.145	-0.191
-341.362	617.141	0.147	-0.364
-340.348	484.862	0.061	-0.137
-339.333	-200.000	0.000	0.223
-338.318	-83.382	0.097	0.031
-337.304	-30.985	-0.113	0.063
-336.289	-175.105	0.223	-0.006
-335.275	502.690	-0.143	-0.327
-334.260	-123.164	0.094	-0.015
-333.245	-73.068	0.183	0.066
-332.231	-110.123	-0.354	0.073
-331.216	-200.000	-0.052	0.250
-330.202	800.000	-0.065	0.188
-329.187	-200.000	-0.001	0.115
-328.172	-200.000	-0.006	-0.031
-327.158	-200.000	0.002	-0.212
-326.143	316.811	-0.053	0.099
-325.129	-54.240	-0.165	-0.074
-324.114	-74.845	0.363	0.129
-323.099	224.233	-0.145	0.232
-322.085	-67.341	-0.095	0.037
-321.070	38.860	-0.078	-0.069
-320.056	132.860	-0.134	0.171
-319.041	-39.519	-0.135	0.070
-318.026	-127.320	-0.220	-0.032
-317.012	435.681	-0.059	-0.127
-315.997	800.000	0.128	0.371
-314.983	305.518	-0.035	-0.065
-313.968	-12.645	0.100	-0.065
-312.953	800.000	-0.061	-0.234
-311.939	15.254	0.111	-0.086
-310.924	743.082	0.081	-0.215
-309.910	-33.509	0.203	0.111
-308.895	58.569	0.283	0.275
-307.880	-57.961	-0.161	0.069
-306.866	-200.000	-0.026	-0.367
-305.851	-200.000	0.020	0.183
-304.837	-77.633	0.439	0.150
-303.822	378.158	0.064	-0.129
-302.807	-49.243	-0.107	0.050
-301.793	-200.000	0.002	0.043
-300.778	252.931	0.066	-0.111
-299.764	800.000	-0.089	-0.263
-298.749	671.959	0.075	-0.193
-297.735	-4.337	-0.114	0.078
-296.720	-103.328	-0.151	0.035
-295.705	-118.622	-0.254	0.044
-294.691	4.516	0.235	0.170
-293.676	633.451	0.060	-0.150
-292.662	136.635	0.092	0.118
-291.647	-2.039	-0.395	-0.275
-290.632	28.196	0.197	0.164
-289.618	-96.073	0.162	0.043
-288.603	7.411	0.018	-0.013
-287.589	74.744	-0.079	-0.082
-286.574	-200.000	-0.011	0.101
-285.559	-131.188	0.207	0.027
-284.545	800.000	0.085	-0.362
-283.530	-200.000	-0.000	0.305
-282.516	158.605	-0.052	-0.071
-281.501	-162.978	-0.243	-0.012
-280.486	694.875	0.080	0.208
-279.472	-75.952	-0.390	0.136
-278.457	105.545	-0.130	-0.152
-277.443	800.000	0.051	-0.180
-276.428	-52.390	0.196	0.090
-275.413	-49.135	0.129	-0.061
-274.399	-169.480	0.113	-0.004
-273.384	191.557	0.146	0.217
-272.370	-200.000	0.011	0.239
-271.355	-51.919	0.320	0.147
-270.340	800.000	0.026	0.074
-269.326	562.644	0.048	0.114
-268.311	170.966	-0.217	0.307
-267.297	-49.483	-0.159	-0.075
-266.282	-180.399	-0.293	0.006
-265.267	-200.000	-0.027	0.177
-264.253	-88.401	0.258	-0.076
-263.238	-167.720	-0.400	-0.016
-262.224	453.185	-0.030	0.065
-261.209	-200.000	0.084	-0.472
-260.195	136.196	-0.114	0.146
-259.180	61.558	0.209	0.205
-258.165	800.000	-0.056	0.183
-257.151	324.378	0.087	0.163
-256.136	800.000	0.064	0.245
-255.122	-200.000	-0.036	0.239
-254.107	800.000	-0.080	-0.241
-253.092	180.980	-0.031	0.045
-252.078	351.764	-0.053	-0.103
-251.063	3.741	0.240	0.173
-250.049	15.204	-0.081	0.063
-249.034	288.741	0.158	-0.283
-248.019	-35.702	0.172	0.092
-247.005	-112.881	-0.217	-0.042
-245.990	136.721	0.116	0.149
-244.976	800.000	0.097	-0.385
-243.961	85.313	-0.087	-0.094
-242.946	521.117	-0.020	0.046
-241.932	184.339	-0.157	-0.229
-240.917	-37.769	-0.085	-0.045
-239.903	587.471	0.148	-0.359
-238.888	89.194	0.159	-0.174
-237.873	235.601	0.101	-0.165
-236.859	-182.298	-0.304	0.006
-235.844	-200.000	0.003	-0.128
-234.830	-151.246	-0.204	-0.015
-233.815	287.519	0.102	-0.181
-232.800	140.918	0.137	0.178
-231.786	237.286	-0.109	0.178
-230.771	-104.325	-0.209	0.048
-229.757	-64.952	0.152	-0.061
-228.742	800.000	-0.109	0.392
-227.727	-46.069	0.313	0.152
-226.713	44.296	-0.196	-0.177
-225.698	16.976	0.171	0.134
-224.684	-47.054	0.126	-0.061
-223.669	-191.363	0.214	-0.002
-222.655	-26.950	0.170	0.098
-221.640	156.293	-0.101	0.137
-220.625	800.000	-0.098	0.344
-219.611	-126.840	0.335	-0.049
-218.596	800.000	0.065	0.209
-217.582	-56.203	0.270	-0.118
-216.567	-200.000	-0.022	0.220
-215.552	800.000	0.047	0.196
-214.538	-49.708	0.098	0.046
-213.523	-54.790	-0.175	-0.078
-212.509	-27.458	0.111	0.064
-211.494	444.050	0.102	0.221
-210.479	-97.845	-0.377	-0.096
-209.465	42.095	0.523	-0.468
-208.450	-74.593	-0.285	0.101
-207.436	135.894	-0.185	-0.237
-206.421	533.889	-0.085	-0.197
-205.406	-200.000	-0.137	-0.001
-204.392	136.147	0.141	-0.181
-203.377	-200.000	-0.061	0.324
-202.363	800.000	-0.071	-0.258
-201.348	-6.198	-0.328	0.221
-200.333	101.759	0.210	-0.241
-199.319	-83.094	-0.246	-0.078
-198.304	-77.777	0.016	-0.006
-197.290	-109.460	-0.162	-0.034
-196.275	312.110	-0.037	0.068
-195.260	-105.969	-0.148	-0.033
-194.246	76.173	-0.167	0.174
-193.231	-140.380	-0.027	-0.003
-192.217	142.441	0.066	0.086
-191.202	-32.741	0.295	-0.161
-190.187	27.210	0.177	-0.147
-189.173	-27.295	-0.063	-0.036
-188.158	-114.052	0.203	0.039
-187.144	18.590	-0.133	0.105
-186.129	11.000	0.199	0.150
-185.114	416.182	-0.033	0.068
-184.100	-41.062	0.150	-0.076
-183.085	139.503	-0.091	0.118
-182.071	-40.554	0.117	-0.060
-181.056	170.382	0.110	0.155
-180.042	-200.000	-0.002	-0.274
-179.027	-58.241	-0.254	-0.109
-178.012	26.179	-0.119	0.098
-176.998	-12.066	0.202	-0.130
-175.983	35.694	-0.199	-0.172
-174.969	-189.342	0.468	-0.005
-173.954	-126.360	0.281	-0.041
-172.939	800.000	-0.071	-0.205
-171.925	-48.733	-0.136	0.064
-170.910	291.172	-0.091	-0.164
-169.896	-67.543	-0.113	0.044
-168.881	-200.000	-0.026	0.123
-167.866	-114.572	-0.143	0.027
-166.852	-8.097	-0.114	0.076
-165.837	-14.745	0.056	-0.035
-164.823	800.000	-0.144	-0.459
-163.808	-58.207	0.216	-0.093
-162.793	-22.002	0.194	-0.116
-161.779	-200.000	-0.001	0.106
-160.764	-156.768	0.170	-0.010
-159.750	-113.886	0.132	0.025
-158.735	-200.000	-0.011	0.196
-157.720	-24.102	0.284	-0.167
-156.706	-14.268	-0.193	0.122
-155.691	26.474	-0.341	0.280
-154.677	-134.312	0.186	-0.022
-153.662	-96.523	0.351	0.091
-152.647	-179.740	0.276	0.006
-151.633	-161.589	0.111	0.006
-150.618	800.000	0.123	-0.335
-149.604	37.775	0.161	0.141
-148.589	-2.573	-0.101	0.070
-147.574	-30.075	-0.326	-0.182
-146.560	-200.000	-0.017	-0.081
-145.545	382.500	-0.048	0.096
-144.531	-24.203	-0.277	-0.163
-143.516	582.727	-0.069	0.167
-142.502	-16.872	-0.254	0.158
-141.487	-102.292	-0.073	0.017
-140.472	110.790	-0.107	-0.127
-139.458	415.805	0.165	0.347
-138.443	-200.000	-0.072	0.389
-137.429	-55.309	0.159	0.070
-136.414	233.887	0.129	0.209
-135.399	-157.391	0.174	0.010
-134.385	-200.000	0.053	-0.256
-133.370	800.000	0.051	0.195
-132.356	-39.124	-0.127	-0.066
-131.341	79.260	-0.009	-0.010
-130.326	-92.614	0.205	-0.056
-129.312	249.804	0.132	0.220
-128.297	158.869	0.135	-0.185
-127.283	-113.109	-0.222	0.043
-126.268	797.635	-0.061	-0.166
-125.253	800.000	-0.038	0.102
-124.239	-200.000	0.020	0.186
-123.224	-200.000	-0.029	0.162
-122.210	800.000	0.084	-0.358
-121.195	-19.914	-0.176	-0.107
-120.180	-151.543	-0.391	0.028
-119.166	180.189	0.039	0.056
-118.151	201.612	-0.189	0.286
-117.137	800.000	0.038	0.105
-116.122	439.449	0.078	0.167
-115.107	-176.811	-0.253	0.006
-114.093	-55.309	0.455	0.200
-113.078	-177.900	-0.179	-0.004
-112.064	-38.445	0.143	0.074
-111.049	326.090	-0.091	0.171
-110.034	395.929	0.127	0.260
-109.020	-94.024	-0.183	-0.049
-108.005	-44.691	-0.138	0.068
-106.991	98.646	-0.241	0.273
-105.976	-74.028	0.215	-0.076
-104.962	229.739	0.112	-0.180
-103.947	-200.000	0.026	0.130
-102.932	705.642	-0.149	-0.387
-101.918	-23.837	0.047	0.027
-100.903	-30.416	-0.051	0.029
-99.889	-200.000	0.038	-0.292
-98.874	-90.138	-0.185	-0.053
-97.859	309.254	-0.017	0.031
-96.845	-51.680	0.135	0.062
-95.830	-200.000	0.004	-0.042
-94.816	82.035	-0.141	0.149
-93.801	-200.000	0.009	-0.224
-92.786	150.772	0.149	-0.199
-91.772	74.245	-0.266	-0.274
-90.757	214.303	0.128	0.199
-89.743	145.550	0.315	0.414
-88.728	41.613	-0.394	-0.350
-87.713	3.788	-0.107	0.077
-86.699	800.000	0.053	-0.156
-85.684	-200.000	-0.008	0.185
-84.670	-99.757	0.438	0.107
-83.655	-200.000	0.007	0.290
-82.640	33.244	-0.112	-0.095
-81.626	767.349	0.113	-0.302
-80.611	4.973	-0.164	0.118
-79.597	-107.079	0.317	-0.069
-78.582	-200.000	-0.033	0.222
-77.567	107.805	-0.151	-0.177
-76.553	74.050	-0.174	-0.179
-75.538	-89.830	0.128	0.037
-74.524	-44.787	0.153	-0.075
-73.509	-58.218	-0.060	-0.025
-72.494	-16.501	-0.094	-0.058
-71.480	173.009	-0.239	0.337
-70.465	-70.879	0.105	-0.039
-69.451	390.339	0.130	0.265
-68.436	800.000	0.014	0.053
-67.422	300.672	0.045	-0.082
-66.407	-200.000	-0.075	0.350
-65.392	-200.000	-0.060	-0.281
-64.378	-200.000	0.000	0.062
-63.363	-79.267	-0.413	0.137
-62.349	299.891	-0.090	0.163
-61.334	218.471	-0.770	-1.205
-60.319	3.988	0.597	0.427
-59.305	-200.000	-0.266	-1.148
-58.290	800.000	0.312	0.941
-57.276	309.836	0.845	1.547
-56.261	-200.000	110.301	613.460
-55.246	514.055	1511.798	3453.346
-54.232	176.819	2699.555	3844.573
-53.217	104.443	2282.805	2631.519
-52.203	38.117	1891.194	1647.568
-51.188	32.375	1679.593	1419.977
-50.173	29.749	1637.211	1364.742
-49.159	48.807	1692.408	1554.347
-48.144	48.674	1707.803	1567.421
-47.130	31.779	1664.390	1402.442
-46.115	29.115	1649.733	1370.245
-45.100	29.005	1644.656	1365.154
-44.086	28.989	1641.830	1362.636
-43.071	28.881	1639.705	1360.022
-42.057	28.850	1637.191	1357.655
-41.042	28.889	1635.228	1356.257
-40.027	28.929	1633.188	1354.804
-39.013	28.949	1630.706	1352.843
-37.998	28.962	1629.543	1351.920
-36.984	28.830	1628.431	1349.975
-35.969	28.984	1626.966	1349.833
-34.954	29.087	1625.252	1349.114
-33.940	29.034	1623.636	1347.328
-32.925	29.030	1621.756	1345.687
-31.911	29.050	1619.683	1344.058
-30.896	29.018	1618.446	1342.748
-29.881	29.077	1616.544	1341.544
-28.867	28.981	1615.491	1339.918
-27.852	28.972	1614.284	1338.796
-26.838	28.990	1612.893	1337.726
-25.823	29.054	1611.114	1336.660
-24.809	29.077	1610.169	1335.992
-23.794	29.051	1608.401	1334.284
-22.779	29.064	1606.669	1332.882
-21.765	29.033	1605.372	1331.533
-20.750	29.085	1603.453	1330.264
-19.736	29.144	1602.211	1329.609
-18.721	29.085	1601.031	1328.149
-17.706	29.091	1599.371	1326.759
-16.692	29.084	1597.670	1325.249
-15.677	29.091	1596.355	1324.158
-14.663	29.185	1594.927	1323.590
-13.648	29.062	1593.872	1321.779
-12.633	29.033	1591.947	1319.924
-11.619	29.060	1590.847	1319.157
-10.604	29.038	1589.554	1317.871
-9.590	29.140	1587.910	1317.190
-8.575	29.213	1586.565	1316.541
-7.560	29.078	1585.954	1315.014
-6.546	29.077	1584.725	1313.935
-5.531	29.123	1583.274	1313.008
-4.517	29.118	1582.377	1312.178
-3.502	29.036	1581.101	1310.487
-2.487	29.095	1579.806	1309.777
-1.473	28.669	1568.282	1297.161
-0.458	25.781	1548.577	1260.634
0.556	23.852	1549.486	1228.614
1.571	21.452	1573.176	1230.427
2.586	20.832	1586.215	1236.114
3.600	18.792	1533.119	1180.626
4.615	11.553	1426.316	1051.827
5.629	4.998	1365.147	966.119
6.644	3.720	1356.940	952.349
7.659	3.750	1356.120	951.876
8.673	3.776	1354.847	951.060
9.688	3.704	1353.419	949.532
10.702	3.765	1349.680	947.197
11.717	6.754	1355.812	969.799
12.731	14.952	1370.977	1031.290
13.746	21.926	1382.547	1083.107
14.761	23.668	1384.223	1095.077
15.775	23.217	1382.386	1090.750
16.790	22.402	1380.490	1084.140
17.804	21.854	1378.225	1078.897
18.819	21.622	1377.603	1076.886
19.834	21.670	1376.094	1075.907
20.848	21.553	1375.904	1074.943
21.863	21.496	1374.791	1073.633
22.877	21.301	1373.971	1071.697
23.892	21.375	1372.575	1070.970
24.907	21.312	1371.905	1069.966
25.921	21.253	1371.137	1068.910
26.936	21.307	1370.307	1068.497
27.950	21.287	1369.112	1067.352
28.965	21.464	1368.072	1067.528
29.980	21.553	1367.393	1067.445
30.994	21.773	1365.742	1067.403
32.009	21.778	1365.188	1066.905
33.023	21.780	1364.156	1066.016
34.038	21.501	1363.480	1063.698
35.053	21.456	1361.955	1062.142
36.067	21.470	1360.345	1060.874
37.082	21.478	1359.943	1060.515
38.096	21.489	1359.350	1060.028
39.111	21.575	1358.460	1059.763
40.126	21.385	1357.643	1057.880
41.140	21.101	1356.162	1054.916
42.155	20.860	1355.712	1053.016
43.169	20.782	1355.503	1052.287
44.184	20.880	1355.353	1052.668
45.199	21.007	1355.315	1053.312
46.213	21.224	1354.897	1054.209
47.228	21.378	1354.395	1054.652
48.242	21.314	1352.919	1053.027
49.257	21.403	1351.776	1052.580
50.271	21.343	1350.130	1050.841
51.286	21.332	1348.846	1049.684
52.301	21.283	1347.720	1048.420
53.315	21.184	1346.341	1046.659
54.330	21.033	1345.593	1045.085
55.344	21.017	1343.621	1043.360
56.359	21.038	1342.861	1042.803
57.374	20.893	1342.259	1041.378
58.388	20.850	1341.703	1040.597
59.403	20.751	1341.057	1039.414
60.417	20.670	1339.925	1037.960
61.432	20.684	1339.171	1037.371
62.447	20.510	1338.233	1035.515
63.461	20.443	1337.026	1034.088
64.476	20.554	1336.028	1033.889
65.490	20.557	1334.829	1032.887
66.505	20.581	1332.856	1031.408
67.520	20.611	1332.309	1031.071
68.534	20.605	1331.161	1030.058
69.549	20.386	1330.834	1028.418
70.563	20.444	1329.034	1027.279
71.578	20.234	1328.252	1025.342
72.593	20.239	1327.171	1024.443
73.607	20.119	1326.787	1023.348
74.622	20.306	1325.906	1023.681
75.636	20.395	1325.280	1023.632
76.651	20.480	1324.347	1023.326
77.666	20.568	1323.724	1023.267
78.680	20.526	1323.665	1022.883
79.695	20.509	1323.138	1022.291
80.709	20.859	1322.531	1023.784
81.724	20.813	1322.138	1023.123
82.739	20.932	1321.466	1023.212
83.753	21.155	1320.930	1024.012
84.768	21.491	1319.436	1024.730
85.782	21.434	1319.484	1024.346
86.797	21.576	1318.180	1024.070
87.812	21.454	1316.456	1021.928
88.826	21.373	1315.514	1020.638
89.841	21.458	1314.679	1020.392
90.855	21.517	1313.698	1019.884
91.870	21.634	1313.142	1020.042
92.884	21.644	1312.375	1019.417
93.899	21.770	1311.252	1019.188
94.914	21.766	1310.648	1018.603
95.928	21.686	1309.651	1017.276
96.943	21.715	1308.741	1016.645
97.957	21.508	1308.114	1014.868
98.972	21.548	1307.073	1014.203
99.987	21.592	1306.208	1013.698
101.001	21.591	1304.995	1012.660
102.016	21.669	1303.815	1012.106
103.030	21.508	1303.723	1011.016
104.045	21.522	1302.425	1009.996
105.060	21.368	1300.703	1007.684
106.074	21.002	1299.200	1004.324
107.089	20.692	1297.247	1000.945
108.103	20.540	1296.506	999.407
109.118	20.524	1294.772	997.893
110.133	20.496	1294.169	997.181
111.147	20.704	1292.397	996.914
112.162	20.691	1291.561	996.110
113.176	20.713	1290.423	995.269
114.191	20.731	1289.607	994.656
115.206	20.757	1288.739	994.047
116.220	20.808	1287.407	993.222
117.235	20.714	1285.889	991.427
118.249	20.596	1285.110	990.069
119.264	20.571	1283.929	988.929
120.279	20.463	1282.908	987.441
121.293	20.223	1281.702	985.058
122.308	20.324	1280.278	984.451
123.322	20.144	1279.645	982.861
124.337	20.057	1278.847	981.667
125.352	20.183	1276.977	980.854
126.366	20.167	1276.320	980.172
127.381	20.050	1275.193	978.560
128.395	20.072	1274.025	977.702
129.410	20.164	1272.977	977.333
130.424	20.183	1273.130	977.467
131.439	20.421	1272.483	978.224
132.454	20.471	1271.562	977.713
133.468	20.597	1270.858	977.792
134.483	20.677	1269.569	977.167
135.497	20.629	1269.181	976.508
136.512	20.568	1268.077	975.232
137.527	20.693	1266.557	974.678
138.541	20.662	1265.894	973.909
139.556	20.942	1264.055	973.968
140.570	20.995	1263.303	973.600
141.585	21.126	1262.716	973.793
142.600	21.283	1261.658	973.767
143.614	21.458	1260.958	974.112
144.629	21.478	1259.898	973.320
145.643	21.460	1258.968	972.416
146.658	21.199	1257.722	969.921
147.673	21.136	1255.825	968.021
148.687	20.892	1254.389	965.476
149.702	20.830	1253.297	964.208
150.716	20.724	1251.662	962.281
151.731	20.593	1250.887	960.873
152.746	20.718	1249.582	960.475
153.760	20.744	1248.777	959.915
154.775	20.990	1247.668	960.333
155.789	21.056	1247.209	960.258
156.804	21.070	1246.044	959.353
157.819	21.110	1245.165	958.809
158.833	21.228	1244.500	958.860
159.848	21.386	1244.429	959.591
160.862	21.378	1242.962	958.328
161.877	21.023	1241.218	954.958
162.892	20.685	1240.039	952.118
163.906	20.589	1239.197	950.858
164.921	20.581	1238.463	950.169
165.935	20.668	1238.025	950.222
166.950	20.823	1237.208	950.358
167.964	20.873	1236.217	949.786
168.979	20.914	1235.374	949.279
169.994	20.885	1234.793	948.588
171.008	20.804	1234.413	947.775
172.023	20.954	1233.773	948.017
173.037	21.183	1233.196	948.730
174.052	21.248	1231.907	948.008
175.067	20.820	1230.326	944.388
176.081	20.625	1229.092	942.302
177.096	20.583	1228.605	941.614
178.110	20.661	1227.559	941.155
179.125	20.728	1226.241	940.422
180.140	21.058	1225.765	941.754
181.154	21.055	1225.299	941.296
182.169	21.118	1224.166	940.685
183.183	21.273	1222.570	940.206
184.198	21.355	1221.875	940.030
185.213	21.240	1220.794	938.501
186.227	21.386	1219.831	938.457
187.242	21.406	1218.937	937.798
188.256	21.523	1218.216	937.785
189.271	21.618	1217.296	937.502
190.286	21.413	1215.549	934.976
191.300	20.930	1214.411	931.439
192.315	20.729	1214.296	930.193
193.329	20.802	1213.710	930.054
194.344	20.886	1212.384	929.403
195.359	20.840	1212.405	929.093
196.373	20.761	1211.930	928.221
197.388	21.030	1211.603	929.326
198.402	21.395	1211.807	931.343
199.417	21.624	1211.295	932.086
200.432	21.718	1210.564	931.941
201.446	21.710	1210.509	931.777
202.461	21.918	1209.500	932.021
203.475	21.848	1208.336	930.670
204.490	21.518	1206.965	927.782
205.504	21.159	1205.627	924.768
206.519	21.220	1203.898	923.684
207.534	21.040	1203.233	922.143
208.548	21.095	1201.430	920.968
209.563	21.110	1201.072	920.691
210.577	21.104	1200.258	919.955
211.592	21.204	1199.848	920.087
212.607	21.557	1199.240	921.399
213.621	21.561	1198.625	920.865
214.636	21.510	1197.336	919.526
215.650	21.546	1196.322	918.852
216.665	21.643	1195.859	918.927
217.680	21.901	1195.494	919.918
218.694	21.847	1194.605	918.866
219.709	21.692	1193.877	917.415
220.723	21.683	1193.340	916.872
221.738	21.709	1192.252	916.091
222.753	21.694	1191.328	915.222
223.767	21.663	1190.731	914.520
224.782	21.911	1189.887	915.088
225.796	21.920	1190.328	915.392
226.811	21.977	1188.667	914.329
227.826	21.732	1188.125	912.558
228.840	21.499	1187.520	910.799
229.855	21.399	1187.019	909.816
230.869	21.518	1185.504	909.191
231.884	21.285	1184.851	907.398
232.899	21.167	1183.637	905.778
233.913	21.210	1182.491	905.042
234.928	21.167	1182.117	904.455
235.942	21.034	1181.392	903.127
236.957	20.928	1181.039	902.233
237.972	20.962	1180.205	901.691
238.986	21.088	1179.365	901.617
240.001	21.042	1178.643	900.752
241.015	21.138	1177.856	900.563
242.030	21.117	1177.694	900.254
243.045	21.384	1176.629	900.733
244.059	21.399	1176.494	900.628
245.074	21.588	1175.115	900.467
246.088	21.665	1174.705	900.468
247.103	21.761	1174.182	900.480
248.117	21.966	1173.371	900.833
249.132	22.202	1172.878	901.582
250.147	22.398	1173.043	902.637
251.161	22.597	1172.634	903.259
252.176	22.570	1172.170	902.683
253.190	22.644	1171.482	902.456
254.205	22.736	1170.732	902.267
255.220	22.806	1170.514	902.380
256.234	22.842	1169.635	901.804
257.249	22.779	1168.614	900.613
258.263	22.638	1168.049	899.382
259.278	22.544	1167.347	898.283
260.293	22.712	1166.887	898.706
261.307	22.744	1166.438	898.441
262.322	22.751	1165.728	897.854
263.336	22.845	1164.763	897.508
264.351	22.822	1164.567	897.160
265.366	22.913	1163.553	896.762
266.380	22.728	1163.375	895.603
267.395	22.613	1162.346	894.148
268.409	22.516	1161.373	892.833
269.424	22.459	1160.973	892.156
270.439	22.483	1160.038	891.482
271.453	22.426	1159.039	890.343
272.468	22.325	1157.862	888.854
273.482	22.223	1156.829	887.466
274.497	22.113	1156.530	886.603
275.512	22.199	1155.799	886.395
276.526	22.074	1155.239	885.261
277.541	22.221	1154.174	885.103
278.555	22.358	1154.287	885.805
279.570	22.652	1153.563	886.647
280.585	22.818	1153.167	887.100
281.599	22.737	1151.977	885.701
282.614	22.504	1150.906	883.626
283.628	22.260	1150.070	881.685
284.643	22.400	1148.826	881.355
285.657	22.319	1148.302	880.467
286.672	22.318	1147.089	879.457
287.687	22.410	1146.379	879.292
288.701	22.428	1145.847	878.896
289.716	22.380	1144.724	877.718
290.730	22.287	1144.500	877.006
291.745	22.377	1143.988	876.985
292.760	22.406	1143.397	876.597
293.774	22.664	1142.352	877.003
294.789	22.813	1142.154	877.512
295.803	22.800	1141.441	876.823
296.818	22.453	1140.529	874.324
297.833	22.459	1139.319	873.349
298.847	22.349	1138.739	872.281
299.862	22.453	1138.257	872.348
300.876	22.428	1137.436	871.519
301.891	22.635	1136.684	871.889
302.906	22.681	1136.932	872.232
303.920	23.014	1135.957	873.048
304.935	23.093	1135.846	873.276
305.949	23.100	1135.469	872.944
306.964	23.126	1134.417	872.189
307.979	22.938	1133.631	870.578
308.993	22.847	1132.920	869.508
310.008	23.021	1131.765	869.402
311.022	23.107	1131.236	869.338
312.037	22.999	1130.025	867.800
313.052	22.790	1129.031	865.939
314.066	22.483	1128.221	863.735
315.081	22.321	1126.732	861.724
316.095	22.245	1125.933	860.664
317.110	22.190	1125.674	860.120
318.125	22.308	1124.787	859.945
319.139	22.194	1123.902	858.635
320.154	22.321	1123.369	858.774
321.168	22.299	1122.721	858.092
322.183	22.290	1122.318	857.666
323.197	22.310	1121.579	857.123
324.212	22.390	1121.562	857.425
325.227	22.464	1120.884	857.188
326.241	22.580	1119.916	856.936
327.256	22.550	1118.971	855.992
328.270	22.420	1118.093	854.611
329.285	22.377	1117.339	853.753
330.300	22.361	1116.262	852.779
331.314	22.374	1115.794	852.406
332.329	22.467	1114.622	851.885
333.343	22.450	1114.293	851.479
334.358	22.656	1113.137	851.512
335.373	22.715	1112.833	851.492
336.387	22.857	1112.349	851.728
337.402	22.887	1111.694	851.296
338.416	23.039	1111.304	851.655
339.431	23.061	1111.024	851.474
340.446	23.285	1109.857	851.578
341.460	23.446	1109.649	852.118
342.475	23.571	1108.689	851.908
343.489	23.533	1108.150	851.233
344.504	23.613	1107.041	850.691
345.519	23.699	1106.221	850.395
346.533	23.776	1105.583	850.202
347.548	23.675	1105.229	849.367
348.562	23.538	1104.338	847.955
349.577	23.287	1103.074	845.708
350.592	22.992	1101.822	843.270
351.606	22.797	1100.731	841.429
352.621	22.919	1099.712	841.158
353.635	22.723	1099.219	839.770
354.650	22.711	1098.990	839.467
355.665	22.817	1098.171	839.269
356.679	22.968	1097.296	839.244
357.694	22.994	1097.157	839.189
358.708	23.089	1096.739	839.242
359.723	23.235	1095.814	839.152
360.738	23.112	1095.608	838.340
361.752	23.207	1094.937	838.200
362.767	23.161	1094.343	837.457
363.781	23.108	1093.678	836.619
364.796	23.520	1093.471	838.338
365.810	23.566	1093.275	838.329
366.825	23.781	1092.280	838.509
367.840	23.923	1092.450	839.232
368.854	24.068	1092.012	839.507
369.869	24.006	1090.901	838.286
370.883	23.844	1089.518	836.389
371.898	23.659	1088.767	834.868
372.913	23.560	1088.445	834.082
373.927	23.635	1088.218	834.187
374.942	23.904	1087.447	834.785
375.956	23.796	1087.171	833.990
376.971	23.681	1086.129	832.577
377.986	23.702	1086.017	832.519
379.000	23.875	1085.512	832.867
380.015	24.068	1085.110	833.389
381.029	24.135	1084.294	833.004
382.044	24.044	1083.899	832.199
383.059	24.017	1082.893	831.226
384.073	23.862	1082.366	830.027
385.088	23.980	1081.271	829.663
386.102	24.052	1080.169	829.079
387.117	23.715	1078.477	826.139
388.132	23.465	1077.643	824.266
389.146	23.484	1076.968	823.766
390.161	23.300	1076.563	822.526
391.175	23.458	1075.761	822.576
392.190	23.605	1075.310	822.839
393.205	23.916	1074.812	823.825
394.219	23.859	1073.988	822.857
395.234	23.604	1073.095	820.918
396.248	23.616	1071.505	819.686
397.263	23.459	1070.944	818.460
398.278	23.429	1069.700	817.299
399.292	23.272	1069.579	816.411
400.307	23.240	1068.787	815.585
401.321	23.228	1067.959	814.825
402.336	23.174	1066.896	813.697
403.350	23.213	1066.268	813.326
404.365	23.390	1065.950	813.824
405.380	23.561	1065.055	813.852
406.394	23.606	1064.694	813.708
407.409	23.772	1064.042	813.900
408.423	24.036	1063.479	814.605
409.438	24.043	1063.146	814.309
410.453	24.094	1062.850	814.246
411.467	24.151	1062.060	813.830
412.482	24.203	1061.540	813.598
413.496	24.440	1060.798	814.035
414.511	24.438	1060.463	813.699
415.526	24.680	1059.921	814.314
416.540	24.502	1059.815	813.350
417.555	24.664	1058.836	813.264
418.569	24.299	1058.308	811.126
419.584	24.304	1057.537	810.484
420.599	24.317	1056.825	809.925
421.613	156.736	1403.630	1798.110
422.628	144.008	1454.152	1798.206
