DTS Sentinel unit serial number:	SN413079Multiplexer serial number:	ORYXHardware model number:	OX4-SRSoftware version number:	ORYX F/W v4.00 Oryx Data Collector v3.7.2.0data status	okinstallation	princeton_trtdifferential loss correction	single-endedforward channel	channel 2reverse channel	N/Adate	2019/09/17time	11:15:35forward acquisition time	60.00reverse acquisition time	0.00gamma	496.2192k internal	0.2323k external	0.2323temperature offset calibration	0.9981default loss term (dB/km)	0.3790temperature slope calibration	1.0000multiplexer offset coefficient	1.0000multiplexer slope coefficient	1.0000fibre end	0.00T internal ref (°C)	30.50T ext. ref 1 (°C)	0.28T ext. ref 2 (°C)	26.25length (m)	temperature (°C)	Stokes	anti-Stokes-747.200	-140.325	0.502	0.053
-746.185	271.330	-0.024	-0.043
-745.171	-54.371	0.039	-0.018
-744.156	-200.000	0.015	-0.168
-743.142	344.973	0.128	-0.255
-742.127	-200.000	-0.049	0.245
-741.112	13.391	-0.147	0.115
-740.098	-9.790	-0.210	0.141
-739.083	517.561	-0.040	0.094
-738.069	-29.596	-0.124	0.072
-737.054	-184.906	-0.509	-0.008
-736.039	-4.391	-0.367	-0.256
-735.025	-85.386	0.469	0.148
-734.010	-75.518	-0.062	-0.022
-732.996	233.428	-0.163	-0.270
-731.981	54.276	-0.079	0.076
-730.966	-46.727	-0.218	-0.108
-729.952	-45.691	0.046	-0.023
-728.937	-181.817	0.132	0.003
-727.923	74.674	0.186	0.198
-726.908	51.301	-0.311	-0.298
-725.894	-89.026	0.292	-0.087
-724.879	-89.972	-0.545	0.160
-723.864	-200.000	-0.008	-0.133
-722.850	800.000	0.006	0.020
-721.835	-147.888	-0.244	-0.021
-720.821	-16.562	-0.223	0.143
-719.806	-51.228	-0.302	-0.143
-718.791	-78.292	0.024	0.008
-717.777	-200.000	-0.054	-0.324
-716.762	181.862	-0.130	-0.193
-715.748	44.193	-0.128	-0.118
-714.733	158.925	-0.134	-0.188
-713.718	-48.032	-0.146	0.071
-712.704	-45.993	-0.263	0.131
-711.689	156.512	-0.281	0.391
-710.675	-26.814	-0.191	0.113
-709.660	107.661	0.137	0.165
-708.645	-106.651	-0.136	0.031
-707.631	-60.807	0.196	-0.084
-706.616	-0.973	-0.285	-0.204
-705.602	70.948	-0.293	0.306
-704.587	-200.000	0.003	-0.066
-703.572	4.674	-0.294	-0.218
-702.558	-98.728	-0.363	0.093
-701.543	-200.000	0.035	-0.259
-700.529	-200.000	-0.012	0.125
-699.514	-126.378	0.330	-0.050
-698.499	-200.000	0.008	-0.201
-697.485	-82.571	-0.142	-0.046
-696.470	-129.293	-0.230	-0.032
-695.456	-127.150	0.077	-0.011
-694.441	-200.000	-0.046	-0.221
-693.426	537.663	0.038	0.090
-692.412	-200.000	0.042	-0.227
-691.397	800.000	0.045	0.156
-690.383	-45.708	-0.011	-0.005
-689.368	77.982	-0.105	0.113
-688.354	-43.829	-0.056	0.028
-687.339	26.391	-0.089	-0.075
-686.324	-147.815	-0.447	-0.038
-685.310	800.000	-0.054	0.192
-684.295	-200.000	-0.068	0.623
-683.281	-172.625	0.349	0.011
-682.266	115.485	-0.071	-0.088
-681.251	1.629	-0.166	0.120
-680.237	497.643	-0.063	-0.146
-679.222	268.666	0.106	-0.187
-678.208	11.932	-0.117	0.090
-677.193	-200.000	-0.020	-0.212
-676.178	-74.144	-0.330	0.120
-675.164	-159.818	-0.288	-0.016
-674.149	-47.791	0.107	-0.052
-673.135	-200.000	-0.006	-0.049
-672.120	-200.000	-0.024	-0.113
-671.105	208.178	-0.122	0.192
-670.091	-200.000	-0.003	0.170
-669.076	734.066	-0.146	-0.394
-668.062	-87.053	0.186	-0.057
-667.047	-200.000	0.009	0.139
-666.032	-157.253	-0.099	-0.006
-665.018	-145.634	0.261	0.024
-664.003	-71.327	0.242	0.091
-662.989	-3.066	-0.192	0.135
-661.974	-200.000	-0.002	-0.055
-660.959	102.217	-0.077	-0.091
-659.945	-78.742	0.280	0.096
-658.930	-108.514	-0.189	-0.041
-657.916	-148.337	0.062	-0.005
-656.901	246.384	0.033	0.056
-655.886	-96.789	0.075	-0.020
-654.872	800.000	-0.102	0.327
-653.857	800.000	-0.046	0.151
-652.843	84.320	-0.072	-0.079
-651.828	-147.574	0.236	-0.020
-650.814	-81.670	0.226	-0.074
-649.799	-93.716	0.118	0.033
-648.784	-19.665	-0.045	-0.028
-647.770	63.916	0.116	-0.117
-646.755	-28.631	0.242	0.140
-645.741	43.972	0.091	-0.084
-644.726	155.906	0.085	0.118
-643.711	-200.000	-0.006	-0.066
-642.697	85.108	-0.211	0.233
-641.682	71.428	0.203	0.212
-640.668	-200.000	0.039	-0.210
-639.653	319.133	0.173	0.329
-638.638	-128.267	0.021	0.003
-637.624	-200.000	0.070	-0.356
-636.609	-41.012	0.278	-0.144
-635.595	35.238	-0.100	0.088
-634.580	-141.100	-0.182	-0.019
-633.565	-176.030	-0.161	-0.004
-632.551	-36.287	0.558	-0.303
-631.536	-73.858	0.143	-0.052
-630.522	363.812	-0.047	-0.096
-629.507	119.310	0.182	-0.226
-628.492	-57.883	-0.135	0.059
-627.478	108.104	0.228	-0.273
-626.463	-200.000	0.020	0.271
-625.449	-50.072	-0.176	0.084
-624.434	45.529	-0.096	-0.089
-623.419	-200.000	-0.042	-0.192
-622.405	-75.565	-0.248	0.088
-621.390	82.180	0.200	-0.218
-620.376	800.000	-0.048	0.153
-619.361	-20.176	0.216	-0.134
-618.346	33.855	-0.286	0.250
-617.332	33.545	0.188	0.164
-616.317	102.901	-0.147	0.173
-615.303	-133.911	-0.239	0.030
-614.288	-200.000	0.021	0.223
-613.273	800.000	0.017	-0.047
-612.259	63.749	0.132	-0.133
-611.244	-200.000	-0.086	0.521
-610.230	-115.733	0.212	-0.040
-609.215	403.121	0.086	-0.182
-608.201	-106.327	-0.212	0.048
-607.186	-79.399	-0.256	-0.087
-606.171	64.199	0.102	0.103
-605.157	-181.106	-0.171	0.003
-604.142	268.944	0.066	-0.116
-603.128	239.788	0.108	-0.180
-602.113	15.044	0.077	-0.061
-601.098	800.000	-0.032	0.137
-600.084	216.526	-0.086	-0.137
-599.069	-200.000	-0.004	0.118
-598.055	225.081	-0.117	-0.190
-597.040	25.688	0.099	0.083
-596.025	-95.728	-0.187	-0.050
-595.011	-93.887	0.058	0.016
-593.996	-200.000	0.032	-0.338
-592.982	800.000	0.051	0.145
-591.967	5.466	-0.082	-0.061
-590.952	-8.097	-0.334	0.226
-589.938	-96.848	0.140	-0.037
-588.923	-38.332	-0.246	0.131
-587.909	-200.000	-0.006	-0.031
-586.894	-90.854	-0.052	0.015
-585.879	162.752	-0.066	0.092
-584.865	-200.000	-0.058	-0.254
-583.850	-76.285	0.327	0.116
-582.836	-64.954	0.122	0.050
-581.821	800.000	-0.089	-0.248
-580.806	206.051	0.043	-0.068
-579.792	-157.482	0.124	-0.007
-578.777	800.000	-0.060	-0.196
-577.763	-12.909	-0.227	-0.148
-576.748	-137.992	-0.223	-0.025
-575.733	252.423	0.101	-0.172
-574.719	-200.000	0.010	-0.074
-573.704	-117.826	-0.133	0.024
-572.690	800.000	-0.073	-0.254
-571.675	-117.108	0.321	0.059
-570.661	61.378	-0.088	0.088
-569.646	167.710	-0.066	-0.094
-568.631	150.907	-0.058	0.080
-567.617	82.339	-0.060	-0.065
-566.602	-200.000	-0.012	0.128
-565.588	-64.177	0.239	-0.098
-564.573	-98.611	-0.103	-0.026
-563.558	-200.000	-0.014	-0.186
-562.544	-57.968	0.071	0.031
-561.529	446.646	-0.088	-0.194
-560.515	154.456	-0.083	-0.115
-559.500	72.255	0.151	-0.158
-558.485	37.640	-0.205	-0.182
-557.471	-148.635	-0.409	-0.033
-556.456	-18.126	-0.041	0.026
-555.442	222.982	0.137	-0.221
-554.427	213.321	0.122	0.193
-553.412	-151.304	-0.128	-0.010
-552.398	-114.033	0.103	0.020
-551.383	-38.927	0.166	0.087
-550.369	-200.000	-0.008	0.156
-549.354	-15.638	-0.098	-0.063
-548.339	37.291	0.214	-0.190
-547.325	-11.764	0.085	-0.056
-546.310	-107.191	0.167	0.037
-545.296	-111.152	0.161	0.033
-544.281	254.514	-0.141	0.243
-543.266	-77.937	-0.094	0.033
-542.252	800.000	0.066	-0.285
-541.237	-200.000	-0.095	0.420
-540.223	-21.018	0.196	0.120
-539.208	-200.000	0.035	-0.227
-538.193	800.000	0.020	-0.078
-537.179	-73.450	-0.308	-0.113
-536.164	-200.000	0.030	-0.279
-535.150	800.000	-0.123	0.373
-534.135	-200.000	0.024	0.335
-533.121	22.041	-0.230	-0.188
-532.106	-16.435	0.376	-0.238
-531.091	41.650	0.045	-0.040
-530.077	80.609	0.133	-0.143
-529.062	-138.869	0.041	-0.004
-528.048	223.162	-0.145	-0.235
-527.033	588.905	0.076	0.187
-526.018	-125.961	-0.157	-0.024
-525.004	-200.000	0.010	-0.179
-523.989	-200.000	0.007	-0.090
-522.975	-106.748	-0.240	0.053
-521.960	142.203	0.072	-0.096
-520.945	48.984	-0.079	0.074
-519.931	-200.000	0.105	-0.468
-518.916	-200.000	0.020	0.129
-517.902	253.502	0.086	0.147
-516.887	800.000	-0.053	0.150
-515.872	-200.000	0.004	-0.116
-514.858	-80.357	-0.216	0.072
-513.843	-200.000	0.009	-0.431
-512.829	-20.183	0.070	-0.043
-511.814	-38.702	-0.149	0.079
-510.799	93.920	-0.221	0.250
-509.785	495.000	-0.123	0.282
-508.770	-200.000	-0.057	-0.251
-507.756	1.465	0.208	0.150
-506.741	65.120	0.155	0.157
-505.726	-200.000	0.076	0.345
-504.712	-122.040	0.158	0.026
-503.697	1.826	0.249	0.179
-502.683	800.000	0.078	0.229
-501.668	-88.931	-0.034	0.010
-500.653	58.989	-0.305	-0.300
-499.639	8.379	-0.090	0.067
-498.624	800.000	0.031	-0.111
-497.610	-6.533	-0.080	-0.054
-496.595	-200.000	0.037	-0.394
-495.581	323.792	-0.058	0.110
-494.566	400.441	-0.047	-0.098
-493.551	800.000	-0.083	-0.338
-492.537	115.636	-0.059	-0.072
-491.522	333.209	0.122	-0.235
-490.508	15.555	-0.103	-0.081
-489.493	370.049	-0.090	0.182
-488.478	-130.554	-0.141	-0.019
-487.464	10.077	-0.123	0.093
-486.449	29.267	-0.254	0.216
-485.435	95.637	0.074	0.084
-484.420	65.740	0.075	0.076
-483.405	-177.590	-0.159	0.004
-482.391	56.789	-0.197	-0.192
-481.376	451.577	0.081	0.179
-480.362	165.867	0.173	-0.244
-479.347	800.000	-0.038	-0.148
-478.332	214.245	0.053	-0.083
-477.318	-80.061	-0.235	-0.079
-476.303	202.296	-0.073	-0.113
-475.289	53.672	-0.080	-0.077
-474.274	338.468	-0.094	0.183
-473.259	375.542	0.140	0.285
-472.245	138.822	0.242	0.318
-471.230	268.167	0.161	-0.282
-470.216	-137.710	-0.390	-0.044
-469.201	-94.514	-0.172	-0.047
-468.186	-117.211	0.200	0.036
-467.172	50.705	0.201	0.190
-466.157	65.898	-0.255	0.258
-465.143	-200.000	0.010	-0.057
-464.128	-113.558	-0.520	-0.102
-463.113	-172.944	-0.162	-0.005
-462.099	85.837	0.210	0.231
-461.084	88.450	0.075	0.083
-460.070	-200.000	0.011	-0.145
-459.055	25.638	-0.140	0.117
-458.040	286.189	-0.092	-0.166
-457.026	-85.348	-0.399	-0.124
-456.011	50.916	-0.039	0.037
-454.997	77.928	0.186	-0.198
-453.982	-200.000	-0.002	0.047
-452.968	800.000	0.051	0.175
-451.953	-169.066	-0.284	-0.011
-450.938	17.336	-0.213	0.169
-449.924	-80.410	0.114	-0.038
-448.909	-33.620	0.165	0.091
-447.895	292.079	0.091	-0.166
-446.880	-26.643	0.225	-0.132
-445.865	-200.000	0.043	-0.205
-444.851	60.383	-0.170	-0.168
-443.836	-4.023	-0.142	0.099
-442.822	68.120	-0.041	-0.042
-441.807	409.215	0.071	-0.150
-440.792	50.839	-0.127	0.120
-439.778	-160.829	0.483	0.025
-438.763	137.380	0.133	-0.174
-437.749	-200.000	-0.005	0.133
-436.734	-45.614	-0.133	-0.066
-435.719	-200.000	-0.019	0.129
-434.705	101.617	0.068	-0.079
-433.690	-10.664	0.197	-0.130
-432.676	741.452	-0.040	-0.108
-431.661	742.545	-0.039	0.106
-430.646	-200.000	0.010	-0.056
-429.632	666.170	0.083	0.215
-428.617	-26.070	0.213	-0.125
-427.603	206.170	-0.212	-0.329
-426.588	-75.923	0.152	-0.054
-425.573	-84.945	-0.101	-0.032
-424.559	-200.000	0.007	0.078
-423.544	-200.000	0.073	-0.392
-422.530	800.000	-0.059	-0.182
-421.515	207.045	-0.122	-0.189
-420.500	-200.000	0.046	-0.395
-419.486	-62.752	0.274	-0.113
-418.471	225.422	0.193	-0.311
-417.457	41.051	-0.089	-0.080
-416.442	-90.931	-0.134	-0.039
-415.428	59.709	0.168	0.165
-414.413	-200.000	-0.027	0.126
-413.398	-132.064	0.260	0.034
-412.384	702.926	0.097	0.254
-411.369	800.000	-0.020	-0.059
-410.355	388.390	-0.155	0.319
-409.340	-105.795	0.347	-0.078
-408.325	81.475	0.040	-0.043
-407.311	110.548	0.194	0.232
-406.296	-26.229	-0.094	-0.055
-405.282	-122.487	0.287	-0.046
-404.267	467.975	0.209	-0.466
-403.252	-200.000	-0.021	-0.310
-402.238	-12.533	0.444	0.288
-401.223	-95.906	-0.186	0.049
-400.209	17.468	0.295	0.234
-399.194	154.093	-0.317	0.433
-398.179	800.000	0.131	-0.366
-397.165	102.042	0.130	-0.151
-396.150	410.031	-0.082	0.173
-395.136	800.000	-0.043	0.161
-394.121	346.238	-0.065	-0.127
-393.106	-200.000	0.033	0.182
-392.092	800.000	0.055	-0.195
-391.077	-75.026	-0.113	0.040
-390.063	-200.000	-0.004	-0.111
-389.048	-200.000	0.226	0.001
-388.033	-31.992	0.189	0.105
-387.019	102.972	-0.230	0.268
-386.004	-11.903	0.290	0.189
-384.990	26.334	-0.195	-0.162
-383.975	-33.966	-0.052	-0.029
-382.960	49.543	0.143	0.134
-381.946	221.102	-0.167	-0.266
-380.931	-52.949	-0.261	0.120
-379.917	-116.234	0.073	-0.013
-378.902	-41.715	0.271	-0.139
-377.888	-113.092	-0.355	-0.070
-376.873	353.240	0.046	0.091
-375.858	800.000	-0.015	-0.043
-374.844	-51.986	0.233	0.108
-373.829	-148.817	0.140	0.011
-372.815	16.391	0.181	-0.142
-371.800	720.106	0.087	-0.231
-370.785	800.000	-0.082	0.286
-369.771	211.695	-0.102	-0.160
-368.756	255.259	0.232	0.395
-367.742	328.241	-0.186	0.356
-366.727	82.455	-0.165	0.178
-365.712	-62.171	-0.237	-0.098
-364.698	-29.718	0.163	-0.092
-363.683	306.792	0.012	0.022
-362.669	20.383	0.096	0.078
-361.654	-122.455	-0.156	0.025
-360.639	300.771	-0.101	-0.186
-359.625	-16.961	0.216	-0.135
-358.610	-200.000	0.074	0.362
-357.596	132.618	-0.077	0.098
-356.581	800.000	0.062	0.187
-355.566	-118.387	-0.116	-0.020
-354.552	144.012	0.166	0.220
-353.537	-170.464	-0.098	-0.003
-352.523	-98.097	-0.219	0.056
-351.508	-200.000	0.027	0.169
-350.493	-78.730	-0.231	0.078
-349.479	95.540	-0.075	0.086
-348.464	312.565	-0.091	-0.169
-347.450	-200.000	0.053	0.496
-346.435	77.795	-0.195	0.206
-345.420	-100.672	0.323	0.079
-344.406	-93.344	0.169	0.047
-343.391	301.293	0.105	-0.193
-342.377	641.124	0.080	-0.203
-341.362	148.074	0.081	0.108
-340.348	-21.096	0.398	-0.242
-339.333	84.657	0.187	0.204
-338.318	-130.573	0.286	-0.038
-337.304	-200.000	-0.035	0.244
-336.289	-200.000	-0.007	0.257
-335.275	353.389	-0.085	-0.168
-334.260	800.000	0.081	-0.259
-333.245	737.771	0.196	-0.522
-332.231	-72.238	0.366	-0.135
-331.216	437.133	-0.137	-0.296
-330.202	-49.184	-0.181	0.086
-329.187	-142.972	0.214	0.021
-328.172	-200.000	-0.026	0.212
-327.158	-200.000	0.038	-0.506
-326.143	-200.000	0.007	0.187
-325.129	21.537	-0.144	0.117
-324.114	-140.697	0.183	0.019
-323.099	-16.178	0.169	0.107
-322.085	643.720	-0.098	0.247
-321.070	647.128	0.083	-0.210
-320.056	-200.000	-0.047	0.358
-319.041	491.706	0.127	0.288
-318.026	-1.380	0.080	-0.056
-317.012	20.669	0.039	-0.032
-315.997	-200.000	0.015	0.343
-314.983	7.925	0.125	-0.093
-313.968	-200.000	0.018	-0.233
-312.953	65.905	0.113	0.113
-311.939	-70.837	0.324	-0.121
-310.924	495.839	0.112	0.255
-309.910	-41.774	-0.178	0.091
-308.895	143.257	-0.194	0.256
-307.880	-143.665	0.136	-0.013
-306.866	-94.991	0.252	-0.068
-305.851	48.555	-0.123	0.115
-304.837	-52.302	-0.524	-0.241
-303.822	-9.030	-0.164	0.109
-302.807	-169.824	-0.188	0.007
-301.793	22.893	-0.248	0.202
-300.778	800.000	0.031	0.112
-299.764	-25.427	-0.376	0.221
-298.749	-200.000	-0.046	-0.208
-297.735	-200.000	-0.025	0.138
-296.720	-200.000	-0.024	0.196
-295.705	800.000	0.034	0.107
-294.691	800.000	-0.060	0.245
-293.676	-29.482	-0.361	0.205
-292.662	38.612	-0.223	0.197
-291.647	-200.000	0.013	-0.178
-290.632	-55.038	-0.317	-0.141
-289.618	103.619	0.141	0.164
-288.603	-93.590	0.294	-0.081
-287.589	313.348	-0.110	-0.205
-286.574	-44.496	-0.062	-0.031
-285.559	800.000	-0.089	-0.355
-284.545	-79.289	0.173	-0.058
-283.530	-139.699	0.244	-0.026
-282.516	145.755	-0.154	-0.205
-281.501	-200.000	-0.026	-0.168
-280.486	21.309	0.227	0.183
-279.472	800.000	0.055	0.177
-278.457	-143.116	-0.113	0.011
-277.443	275.865	0.218	-0.384
-276.428	-200.000	-0.016	-0.130
-275.413	800.000	0.022	-0.081
-274.399	384.786	-0.127	-0.259
-273.384	34.985	-0.216	-0.188
-272.370	345.895	-0.158	0.307
-271.355	-200.000	-0.001	0.167
-270.340	-200.000	-0.083	0.365
-269.326	203.937	0.117	-0.180
-268.311	135.570	0.025	0.032
-267.297	149.755	-0.054	-0.072
-266.282	589.035	0.113	0.275
-265.267	178.451	0.181	0.262
-264.253	-80.049	-0.129	-0.043
-263.238	-59.140	0.071	-0.030
-262.224	800.000	0.170	-0.469
-261.209	358.343	0.112	-0.222
-260.195	451.151	0.049	-0.106
-259.180	800.000	-0.084	0.246
-258.165	-43.859	0.140	0.070
-257.151	-67.900	-0.259	0.100
-256.136	-200.000	0.021	0.370
-255.122	-28.473	-0.187	0.107
-254.107	-200.000	-0.027	0.182
-253.092	800.000	-0.029	0.088
-252.078	138.431	0.085	0.111
-251.063	-200.000	-0.097	0.583
-250.049	-200.000	-0.026	-0.188
-249.034	-18.814	0.071	-0.044
-248.019	-44.732	-0.442	-0.218
-247.005	800.000	0.077	0.230
-245.990	-56.206	-0.184	0.081
-244.976	65.777	0.147	0.148
-243.961	-200.000	-0.007	-0.305
-242.946	448.939	0.063	0.137
-241.932	210.433	0.133	0.207
-240.917	-58.240	-0.462	-0.199
-239.903	-97.924	0.386	-0.099
-238.888	764.053	0.067	-0.180
-237.873	433.046	0.104	0.224
-236.859	45.517	-0.207	0.189
-235.844	-24.768	0.057	0.033
-234.830	18.513	-0.151	0.120
-233.815	44.771	-0.139	0.127
-232.800	276.474	0.133	0.234
-231.786	14.361	0.200	0.155
-230.771	75.988	0.135	0.141
-229.757	-122.911	0.543	0.087
-228.742	170.024	0.147	-0.208
-227.727	-73.355	0.025	0.009
-226.713	-100.365	0.215	-0.053
-225.698	80.858	-0.154	-0.164
-224.684	134.638	0.246	-0.316
-223.669	453.765	0.030	0.067
-222.655	32.633	-0.218	0.186
-221.640	39.332	-0.174	0.154
-220.625	-80.826	-0.017	0.006
-219.611	-102.620	-0.263	0.062
-218.596	738.336	0.060	-0.159
-217.582	-200.000	0.021	-0.149
-216.567	65.319	-0.198	-0.198
-215.552	800.000	0.126	0.357
-214.538	579.818	0.070	-0.169
-213.523	800.000	-0.067	0.277
-212.509	-200.000	0.006	-0.180
-211.494	-10.815	0.104	0.068
-210.479	-23.993	0.271	-0.160
-209.465	-200.000	-0.009	0.530
-208.450	29.909	-0.210	0.177
-207.436	497.130	0.073	0.167
-206.421	253.095	0.120	-0.202
-205.406	79.665	-0.353	0.375
-204.392	-142.468	-0.145	-0.014
-203.377	-117.305	-0.068	0.012
-202.363	-27.058	0.111	-0.064
-201.348	11.084	-0.105	-0.079
-200.333	-100.561	0.114	0.028
-199.319	297.910	0.081	-0.147
-198.304	-29.195	-0.133	-0.075
-197.290	-200.000	0.055	-0.269
-196.275	-2.572	0.064	0.044
-195.260	-200.000	0.009	0.450
-194.246	-105.140	-0.165	-0.037
-193.231	-137.315	-0.254	-0.028
-192.217	-86.669	0.240	-0.073
-191.202	-3.196	0.201	0.139
-190.187	800.000	0.052	-0.191
-189.173	20.550	-0.184	0.147
-188.158	151.358	-0.105	-0.141
-187.144	-20.001	-0.273	0.167
-186.129	800.000	-0.087	0.240
-185.114	381.488	-0.099	-0.201
-184.100	115.374	0.243	0.294
-183.085	-200.000	-0.016	0.279
-182.071	511.572	-0.089	-0.205
-181.056	555.169	-0.125	0.298
-180.042	-200.000	0.011	-0.058
-179.027	-93.563	-0.144	-0.039
-178.012	-136.801	-0.163	0.018
-176.998	224.311	-0.067	-0.107
-175.983	-145.474	-0.096	0.009
-174.969	21.043	-0.088	0.070
-173.954	98.984	0.038	-0.044
-172.939	-200.000	0.008	0.110
-171.925	-66.641	0.243	-0.095
-170.910	-33.022	0.076	0.042
-169.896	-120.569	0.094	-0.016
-168.881	-67.300	-0.270	-0.105
-167.866	-145.705	0.033	-0.003
-166.852	125.704	0.129	-0.161
-165.837	800.000	-0.040	-0.142
-164.823	14.410	-0.106	-0.082
-163.808	-103.546	-0.470	0.109
-162.793	423.447	0.043	0.091
-161.779	14.882	0.118	-0.091
-160.764	760.128	0.058	-0.156
-159.750	235.815	0.120	0.195
-158.735	-200.000	0.038	-0.169
-157.720	84.701	0.218	0.236
-156.706	-200.000	-0.034	-0.217
-155.691	84.902	-0.176	-0.190
-154.677	-117.082	-0.185	-0.033
-153.662	800.000	0.155	-0.576
-152.647	-16.845	-0.286	-0.178
-151.633	800.000	0.072	-0.295
-150.618	329.778	-0.257	0.488
-149.604	-200.000	0.003	-0.250
-148.589	390.385	0.135	0.276
-147.574	255.857	0.209	0.354
-146.560	-189.680	0.352	-0.004
-145.545	800.000	-0.073	0.297
-144.531	-200.000	-0.003	0.320
-143.516	-173.966	-0.075	0.002
-142.502	-200.000	0.011	0.206
-141.487	-200.000	0.016	0.080
-140.472	4.944	0.101	-0.073
-139.458	-200.000	-0.022	-0.106
-138.443	-172.630	-0.159	0.005
-137.429	-200.000	0.032	0.222
-136.414	-34.770	-0.241	0.130
-135.399	105.310	-0.186	-0.216
-134.385	800.000	-0.057	0.208
-133.370	-115.407	-0.449	0.083
-132.356	-20.301	-0.237	-0.144
-131.341	46.431	-0.118	0.108
-130.326	-200.000	0.033	0.296
-129.312	-78.396	0.406	0.137
-128.297	800.000	-0.051	-0.188
-127.283	-63.587	0.299	-0.121
-126.268	100.995	-0.037	-0.043
-125.253	482.172	0.212	0.475
-124.239	679.527	0.106	0.272
-123.224	-144.628	-0.178	-0.016
-122.210	-200.000	0.011	0.120
-121.195	80.458	-0.172	0.182
-120.180	7.637	0.297	0.219
-119.166	715.165	-0.108	0.283
-118.151	-200.000	-0.001	-0.069
-117.137	-65.909	0.182	-0.072
-116.122	194.471	-0.140	0.209
-115.107	-200.000	0.003	0.076
-114.093	412.662	0.151	0.315
-113.078	728.467	-0.114	0.299
-112.064	-144.934	-0.206	-0.019
-111.049	29.487	0.247	-0.207
-110.034	-45.898	-0.346	0.168
-109.020	-57.623	0.291	-0.126
-108.005	338.524	-0.140	-0.269
-106.991	423.430	-0.124	0.261
-105.976	800.000	-0.038	0.154
-104.962	-102.995	-0.249	0.058
-103.947	800.000	-0.013	-0.037
-102.932	71.363	0.220	0.225
-101.918	114.254	-0.090	-0.108
-100.903	227.838	0.062	-0.100
-99.889	-76.272	-0.017	-0.006
-98.874	-39.995	0.101	-0.052
-97.859	-200.000	-0.006	0.322
-96.845	-73.641	-0.088	-0.032
-95.830	-21.350	0.175	0.105
-94.816	454.408	0.108	0.235
-93.801	-24.963	-0.372	-0.217
-92.786	-33.352	0.138	0.075
-91.772	80.941	0.109	-0.116
-90.757	-126.482	0.267	-0.039
-89.743	91.520	-0.084	-0.093
-88.728	159.047	-0.114	0.156
-87.713	144.475	-0.210	-0.276
-86.699	287.637	0.030	0.054
-85.684	241.672	0.111	0.183
-84.670	800.000	-0.067	-0.225
-83.655	52.065	0.156	0.147
-82.640	142.111	0.152	0.198
-81.626	-200.000	-0.026	-0.129
-80.611	38.161	0.151	-0.132
-79.597	190.767	0.085	0.125
-78.582	-200.000	0.038	0.321
-77.567	25.482	-0.063	0.052
-76.553	167.977	0.060	0.084
-75.538	32.557	0.029	-0.025
-74.524	-200.000	-0.006	0.116
-73.509	-104.318	-0.157	0.036
-72.494	-67.520	-0.195	0.075
-71.480	-200.000	-0.031	0.215
-70.465	-200.000	-0.010	0.226
-69.451	-200.000	0.028	-0.210
-68.436	-200.000	0.020	-0.260
-67.422	380.373	0.073	0.147
-66.407	376.177	0.120	0.241
-65.392	-145.836	-0.188	-0.016
-64.378	440.102	-0.104	0.223
-63.363	60.342	-0.168	0.164
-62.349	-128.887	-0.077	0.011
-61.334	-35.028	-1.256	-0.673
-60.319	25.621	0.498	0.408
-59.305	800.000	-0.346	-1.033
-58.290	460.470	0.530	1.162
-57.276	443.534	0.531	1.144
-56.261	-200.000	101.434	578.081
-55.246	478.487	1441.717	3208.496
-54.232	149.952	2636.226	3513.629
-53.217	102.453	2300.257	2643.141
-52.203	39.580	1914.162	1686.373
-51.188	33.581	1702.358	1453.889
-50.173	31.038	1658.673	1397.492
-49.159	49.197	1708.280	1577.761
-48.144	50.053	1724.792	1599.456
-47.130	33.322	1684.051	1436.062
-46.115	30.616	1670.021	1403.643
-45.100	30.398	1665.063	1397.786
-44.086	30.350	1662.451	1395.177
-43.071	30.397	1659.699	1393.161
-42.057	30.440	1657.456	1391.543
-41.042	30.348	1655.737	1389.362
-40.027	30.405	1653.370	1387.742
-39.013	30.442	1651.255	1386.190
-37.998	30.416	1649.967	1384.860
-36.984	30.458	1648.460	1383.850
-35.969	30.581	1647.020	1383.504
-34.954	30.519	1645.718	1381.896
-33.940	30.563	1643.735	1380.498
-32.925	30.541	1641.649	1378.530
-31.911	30.558	1640.305	1377.472
-30.896	30.490	1638.667	1375.544
-29.881	30.509	1637.144	1374.345
-28.867	30.512	1635.217	1372.701
-27.852	30.487	1634.068	1371.497
-26.838	30.465	1632.467	1369.935
-25.823	30.577	1630.774	1369.286
-24.809	30.604	1629.737	1368.556
-23.794	30.505	1628.244	1366.524
-22.779	30.611	1626.093	1365.444
-21.765	30.531	1625.067	1363.941
-20.750	30.478	1623.446	1362.135
-19.736	30.465	1622.007	1360.779
-18.721	30.511	1620.611	1359.889
-17.706	30.541	1619.138	1358.819
-16.692	30.439	1617.946	1357.019
-15.677	30.430	1616.472	1355.663
-14.663	30.528	1614.992	1355.080
-13.648	30.503	1613.373	1353.485
-12.633	30.433	1612.018	1351.785
-11.619	30.498	1610.502	1350.940
-10.604	30.549	1608.952	1349.952
-9.590	30.499	1608.012	1348.749
-8.575	30.483	1606.536	1347.338
-7.560	30.499	1605.209	1346.289
-6.546	30.550	1604.531	1346.037
-5.531	30.469	1603.415	1344.461
-4.517	30.518	1601.994	1343.572
-3.502	30.505	1600.534	1342.197
-2.487	30.546	1599.333	1341.437
-1.473	30.425	1587.321	1330.439
-0.458	27.860	1568.218	1296.194
0.556	22.694	1569.761	1264.921
1.571	20.294	1593.353	1266.325
2.586	19.777	1607.277	1273.478
3.600	18.258	1554.559	1220.768
4.615	10.330	1443.177	1080.504
5.629	2.119	1377.154	978.527
6.644	0.435	1369.142	962.014
7.659	0.314	1367.426	959.955
8.673	0.222	1366.557	958.674
9.688	0.159	1365.094	957.163
10.702	0.051	1361.883	954.140
11.717	3.843	1367.760	982.295
12.731	12.654	1381.507	1048.415
13.746	17.488	1388.156	1084.228
14.761	17.300	1386.302	1081.486
15.775	16.384	1383.328	1073.258
16.790	15.301	1380.896	1064.406
17.804	14.580	1378.971	1058.255
18.819	14.246	1377.757	1055.114
19.834	13.891	1375.982	1051.410
20.848	13.632	1374.821	1048.796
21.863	13.390	1373.437	1046.112
22.877	13.237	1371.951	1043.925
23.892	13.141	1371.603	1042.957
24.907	13.220	1370.519	1042.542
25.921	13.176	1369.803	1041.628
26.936	13.233	1368.841	1041.166
27.950	13.372	1367.742	1041.109
28.965	13.416	1366.567	1040.398
29.980	13.491	1365.769	1040.172
30.994	13.552	1364.858	1039.770
32.009	13.509	1363.984	1038.740
33.023	13.531	1362.503	1037.660
34.038	13.390	1361.887	1036.218
35.053	13.434	1360.472	1035.324
36.067	13.524	1359.470	1035.029
37.082	13.519	1358.320	1034.033
38.096	13.543	1357.500	1033.467
39.111	13.420	1357.304	1032.459
40.126	13.390	1356.326	1031.439
41.140	13.389	1355.303	1030.561
42.155	13.289	1355.075	1029.674
43.169	13.295	1354.732	1029.361
44.184	13.265	1354.599	1028.979
45.199	13.209	1354.161	1028.211
46.213	13.288	1353.361	1028.000
47.228	13.287	1352.703	1027.405
48.242	13.333	1351.116	1026.394
49.257	13.386	1349.806	1025.633
50.271	13.361	1348.099	1024.091
51.286	13.355	1347.112	1023.217
52.301	13.465	1345.474	1022.563
53.315	13.318	1344.890	1021.117
54.330	13.271	1344.013	1020.072
55.344	13.241	1342.932	1018.977
56.359	13.209	1341.698	1017.756
57.374	13.321	1340.760	1017.639
58.388	13.278	1339.982	1016.696
59.403	13.274	1339.517	1016.230
60.417	13.125	1339.307	1015.064
61.432	13.086	1338.399	1014.049
62.447	13.329	1336.509	1014.014
63.461	13.126	1335.480	1011.902
64.476	13.087	1334.643	1010.938
65.490	13.137	1333.320	1010.152
66.505	13.131	1331.861	1008.923
67.520	13.186	1330.569	1008.188
68.534	13.087	1329.776	1006.893
69.549	13.197	1328.360	1006.405
70.563	13.287	1327.152	1005.948
71.578	13.125	1326.041	1004.031
72.593	13.109	1325.246	1003.240
73.607	13.129	1324.303	1002.563
74.622	13.050	1323.427	1001.328
75.636	13.219	1322.139	1001.294
76.651	13.206	1321.372	1000.541
77.666	13.164	1321.434	1000.247
78.680	13.128	1320.690	999.380
79.695	13.137	1320.237	998.998
80.709	13.065	1319.145	997.649
81.724	13.225	1317.952	997.626
82.739	13.313	1317.370	997.627
83.753	13.347	1316.411	997.020
84.768	13.304	1315.443	995.937
85.782	13.469	1313.924	995.694
86.797	13.323	1313.499	994.406
87.812	13.314	1312.012	993.139
88.826	13.391	1311.112	992.832
89.841	13.312	1310.045	991.458
90.855	13.320	1308.600	990.326
91.870	13.285	1308.172	989.706
92.884	13.391	1307.190	989.512
93.899	13.469	1306.502	989.367
94.914	13.488	1305.429	988.580
95.928	13.457	1304.974	987.964
96.943	13.419	1303.648	986.644
97.957	13.305	1303.337	985.643
98.972	13.466	1301.783	985.339
99.987	13.459	1300.713	984.403
101.001	13.461	1299.788	983.624
102.016	13.445	1298.914	982.782
103.030	13.439	1298.129	982.067
104.045	13.483	1297.130	981.486
105.060	13.412	1295.477	979.727
106.074	13.385	1294.508	978.745
107.089	13.292	1293.417	977.286
108.103	13.249	1291.696	975.647
109.118	13.313	1290.649	975.147
110.133	13.244	1289.353	973.675
111.147	13.129	1288.281	972.102
112.162	13.269	1286.834	971.746
113.176	13.324	1285.976	971.336
114.191	13.233	1285.514	970.366
115.206	13.393	1283.783	969.910
116.220	13.419	1282.593	969.081
117.235	13.231	1281.662	967.189
118.249	13.191	1280.843	966.253
119.264	13.295	1279.688	965.900
120.279	13.293	1278.776	965.118
121.293	13.317	1277.296	964.055
122.308	13.409	1276.167	963.654
123.322	13.325	1275.186	962.339
124.337	13.230	1274.777	961.394
125.352	13.229	1273.068	960.015
126.366	13.198	1272.597	959.391
127.381	13.274	1271.008	958.549
128.395	13.214	1270.242	957.541
129.410	13.290	1269.174	957.089
130.424	13.350	1268.108	956.547
131.439	13.334	1267.543	955.946
132.454	13.379	1266.380	955.246
133.468	13.353	1266.030	954.745
134.483	13.413	1265.007	954.235
135.497	13.451	1263.333	953.109
136.512	13.388	1262.278	951.866
137.527	13.330	1261.395	950.780
138.541	13.286	1260.098	949.466
139.556	13.335	1258.447	948.419
140.570	13.340	1257.764	947.848
141.585	13.433	1256.010	946.976
142.600	13.558	1254.842	946.725
143.614	13.534	1253.951	945.832
144.629	13.449	1253.467	944.899
145.643	13.433	1251.912	943.551
146.658	13.394	1250.613	942.267
147.673	13.465	1249.375	941.656
148.687	13.519	1248.115	940.930
149.702	13.308	1247.036	938.832
150.716	13.492	1244.818	938.125
151.731	13.408	1244.251	937.140
152.746	13.379	1243.387	936.242
153.760	13.474	1241.750	935.459
154.775	13.605	1240.470	935.152
155.789	13.603	1239.534	934.356
156.804	13.555	1238.679	933.359
157.819	13.548	1237.783	932.562
158.833	13.744	1236.565	932.664
159.848	13.629	1235.815	931.368
160.862	13.712	1234.800	930.988
161.877	13.545	1233.559	929.033
162.892	13.545	1232.630	928.248
163.906	13.566	1231.287	927.272
164.921	13.525	1231.088	926.811
165.935	13.574	1229.940	926.141
166.950	13.699	1229.304	926.279
167.964	13.664	1228.466	925.368
168.979	13.600	1227.703	924.354
169.994	13.623	1227.127	923.965
171.008	13.632	1226.175	923.222
172.023	13.758	1225.351	923.217
173.037	13.656	1224.731	922.101
174.052	13.745	1223.929	921.910
175.067	13.780	1222.520	920.960
176.081	13.688	1221.909	919.913
177.096	13.726	1220.897	919.278
178.110	13.638	1220.319	918.271
179.125	13.762	1218.452	917.476
180.140	13.826	1217.055	916.693
181.154	13.844	1216.111	916.001
182.169	13.819	1214.806	914.802
183.183	13.834	1213.560	913.865
184.198	13.851	1212.794	913.300
185.213	13.867	1211.592	912.402
186.227	13.892	1210.222	911.425
187.242	13.984	1209.441	911.261
188.256	13.983	1208.526	910.486
189.271	13.921	1207.903	909.597
190.286	13.850	1206.723	908.237
191.300	13.708	1206.354	907.104
192.315	13.593	1205.418	905.692
193.329	13.769	1204.468	905.861
194.344	13.841	1203.685	905.582
195.359	13.809	1203.247	905.000
196.373	13.946	1202.942	905.435
197.388	13.910	1202.551	904.865
198.402	14.096	1201.648	905.115
199.417	14.068	1200.590	904.091
200.432	14.172	1200.056	904.173
201.446	14.074	1199.624	903.234
202.461	14.249	1198.287	903.099
203.475	14.242	1197.255	902.200
204.490	14.232	1195.772	900.947
205.504	14.192	1194.456	899.664
206.519	14.138	1193.157	898.313
207.534	14.056	1192.492	897.292
208.548	14.121	1191.426	896.761
209.563	14.166	1190.340	896.102
210.577	14.100	1189.970	895.390
211.592	14.081	1189.332	894.731
212.607	14.257	1188.301	894.819
213.621	14.341	1186.814	894.075
214.636	14.338	1186.165	893.489
215.650	14.277	1185.760	892.778
216.665	14.250	1184.933	891.930
217.680	14.275	1183.988	891.275
218.694	14.364	1182.783	890.766
219.709	14.340	1182.219	890.131
220.723	14.260	1181.537	889.115
221.738	14.430	1180.563	889.209
222.753	14.371	1180.018	888.403
223.767	14.454	1179.174	888.132
224.782	14.364	1178.798	887.290
225.796	14.533	1177.632	887.235
226.811	14.497	1177.440	886.823
227.826	14.492	1176.313	885.867
228.840	14.547	1175.652	885.585
229.855	14.458	1175.029	884.562
230.869	14.407	1174.421	883.754
231.884	14.438	1173.280	882.983
232.899	14.518	1172.406	882.671
233.913	14.403	1171.895	881.601
234.928	14.373	1171.128	880.784
235.942	14.354	1170.693	880.280
236.957	14.328	1169.780	879.381
237.972	14.487	1168.949	879.515
238.986	14.494	1168.565	879.189
240.001	14.471	1167.822	878.427
241.015	14.582	1166.023	877.581
242.030	14.607	1165.974	877.599
243.045	14.526	1164.849	876.246
244.059	14.636	1164.287	876.327
245.074	14.574	1163.508	875.334
246.088	14.718	1162.642	875.362
247.103	14.685	1161.806	874.483
248.117	14.698	1161.332	874.118
249.132	14.767	1160.378	873.683
250.147	14.842	1160.101	873.786
251.161	14.793	1159.597	873.073
252.176	14.921	1158.694	872.985
253.190	14.977	1157.979	872.664
254.205	14.946	1157.263	871.886
255.220	14.992	1156.540	871.503
256.234	14.872	1156.488	870.758
257.249	15.047	1155.585	870.915
258.263	15.182	1154.518	870.734
259.278	15.135	1153.763	869.844
260.293	14.913	1153.805	868.648
261.307	14.935	1153.119	868.167
262.322	15.076	1152.408	868.283
263.336	15.146	1151.496	867.887
264.351	15.163	1150.972	867.499
265.366	15.131	1150.296	866.748
266.380	15.028	1149.766	865.742
267.395	15.180	1148.566	865.546
268.409	15.090	1148.128	864.674
269.424	15.068	1147.396	863.932
270.439	15.078	1146.899	863.533
271.453	15.191	1145.906	863.290
272.468	15.132	1145.166	862.353
273.482	15.275	1144.143	862.242
274.497	15.112	1144.147	861.333
275.512	15.131	1142.897	860.409
276.526	15.262	1142.301	860.557
277.541	15.213	1141.778	859.838
278.555	15.296	1140.952	859.566
279.570	15.211	1140.521	858.727
280.585	15.340	1139.257	858.360
281.599	15.463	1137.970	857.945
282.614	15.283	1137.512	856.605
283.628	15.417	1136.391	856.369
284.643	15.348	1135.518	855.281
285.657	15.363	1134.641	854.622
286.672	15.401	1133.962	854.227
287.687	15.372	1132.922	853.222
288.701	15.456	1131.823	852.744
289.716	15.400	1131.516	852.156
290.730	15.359	1130.762	851.302
291.745	15.391	1130.264	851.017
292.760	15.529	1129.648	851.174
293.774	15.447	1129.056	850.239
294.789	15.388	1128.612	849.533
295.803	15.543	1127.748	849.592
296.818	15.520	1127.074	848.892
297.833	15.503	1126.263	848.120
298.847	15.528	1125.509	847.602
299.862	15.644	1124.360	847.245
300.876	15.566	1124.124	846.598
301.891	15.674	1123.198	846.371
302.906	15.586	1122.488	845.318
303.920	15.686	1121.834	845.256
304.935	15.857	1120.479	845.020
305.949	15.764	1120.633	844.594
306.964	15.793	1119.718	843.975
307.979	15.780	1119.078	843.350
308.993	15.724	1118.440	842.517
310.008	15.839	1117.499	842.306
311.022	15.744	1116.878	841.287
312.037	15.715	1116.246	840.596
313.052	15.700	1115.320	839.747
314.066	15.712	1114.248	838.924
315.081	15.775	1113.297	838.448
316.095	15.811	1112.281	837.789
317.110	15.787	1112.031	837.406
318.125	15.819	1111.334	836.965
319.139	15.728	1110.435	835.764
320.154	15.833	1109.556	835.550
321.168	15.812	1109.217	835.115
322.183	15.842	1108.751	834.838
323.197	15.949	1107.559	834.399
324.212	15.928	1107.285	834.016
325.227	15.830	1106.909	833.173
326.241	15.909	1106.040	832.835
327.256	15.982	1104.758	832.156
328.270	15.920	1104.054	831.246
329.285	15.961	1103.064	830.628
330.300	16.039	1102.183	830.280
331.314	15.942	1101.661	829.332
332.329	15.845	1100.661	828.032
333.343	15.895	1099.810	827.562
334.358	15.995	1099.201	827.524
335.373	16.000	1098.502	826.949
336.387	15.975	1097.656	826.116
337.402	16.107	1096.903	826.121
338.416	16.080	1096.281	825.450
339.431	16.188	1095.246	825.126
340.446	16.200	1094.608	824.629
341.460	16.245	1094.155	824.435
342.475	16.295	1093.010	823.741
343.489	16.238	1092.347	822.893
344.504	16.218	1091.173	821.839
345.519	16.236	1091.086	821.786
346.533	16.241	1090.022	820.939
347.548	16.454	1089.123	821.223
348.562	16.347	1088.419	820.099
349.577	16.316	1087.732	819.359
350.592	16.261	1087.090	818.536
351.606	16.248	1086.293	817.801
352.621	16.259	1085.537	817.210
353.635	16.243	1085.123	816.749
354.650	16.260	1084.664	816.417
355.665	16.233	1083.618	815.428
356.679	16.336	1083.048	815.423
357.694	16.367	1082.219	814.876
358.708	16.384	1081.762	814.539
359.723	16.536	1080.887	814.540
360.738	16.476	1080.319	813.755
361.752	16.477	1080.014	813.458
362.767	16.450	1079.210	812.651
363.781	16.557	1078.382	812.469
364.796	16.514	1078.391	812.197
365.810	16.513	1077.940	811.778
366.825	16.621	1076.857	811.412
367.840	16.732	1076.470	811.580
368.854	16.607	1075.990	810.544
369.869	16.672	1075.027	810.062
370.883	16.613	1074.255	809.122
371.898	16.658	1073.636	808.803
372.913	16.605	1073.262	808.194
373.927	16.737	1072.771	808.386
374.942	16.777	1071.855	807.815
375.956	16.767	1071.719	807.590
376.971	16.760	1071.078	807.004
377.986	16.896	1070.025	806.787
379.000	16.788	1070.137	806.283
380.015	16.843	1069.075	805.673
381.029	16.916	1068.255	805.333
382.044	16.987	1067.833	805.278
383.059	16.921	1066.927	804.212
384.073	16.961	1066.121	803.721
385.088	16.790	1065.282	802.209
386.102	17.062	1064.090	802.528
387.117	16.950	1063.440	801.437
388.132	16.877	1062.534	800.340
389.146	16.879	1061.781	799.709
390.161	16.858	1060.991	798.946
391.175	16.901	1060.469	798.685
392.190	16.943	1059.746	798.268
393.205	16.994	1058.844	797.755
394.219	17.049	1058.526	797.705
395.234	17.094	1057.392	796.991
396.248	16.896	1056.090	795.013
397.263	17.011	1055.236	794.835
398.278	17.023	1054.602	794.343
399.292	16.945	1054.334	793.707
400.307	16.881	1053.986	793.076
401.321	17.028	1052.786	792.792
402.336	17.119	1051.787	792.393
403.350	17.059	1051.016	791.463
404.365	17.091	1050.995	791.525
405.380	17.225	1049.665	791.077
406.394	17.147	1048.979	790.125
407.409	17.151	1048.720	789.881
408.423	17.252	1047.972	789.718
409.438	17.253	1047.123	789.014
410.453	17.409	1046.173	788.947
411.467	17.258	1045.670	787.803
412.482	17.266	1045.387	787.554
413.496	17.318	1044.448	787.017
414.511	17.289	1044.153	786.593
415.526	17.388	1043.512	786.497
416.540	17.390	1042.989	786.041
417.555	17.515	1042.398	786.105
418.569	17.495	1041.921	785.582
419.584	17.511	1041.561	785.316
420.599	17.472	1040.900	784.567
421.613	102.519	1321.180	1465.614
422.628	94.103	1362.011	1465.730
