DTS Sentinel unit serial number:	SN413079Multiplexer serial number:	ORYXHardware model number:	OX4-SRSoftware version number:	ORYX F/W v4.00 Oryx Data Collector v3.7.2.0data status	okinstallation	princeton_trtdifferential loss correction	single-endedforward channel	channel 2reverse channel	N/Adate	2019/09/13time	16:55:35forward acquisition time	60.00reverse acquisition time	0.00gamma	496.2192k internal	0.2315k external	0.2315temperature offset calibration	1.0206default loss term (dB/km)	0.3790temperature slope calibration	1.0000multiplexer offset coefficient	1.0000multiplexer slope coefficient	1.0000fibre end	0.00T internal ref (°C)	34.87T ext. ref 1 (°C)	4.82T ext. ref 2 (°C)	30.55length (m)	temperature (°C)	Stokes	anti-Stokes-747.200	97.807	-0.147	0.171
-746.185	-200.000	-0.036	0.342
-745.171	103.521	-0.253	-0.301
-744.156	800.000	0.076	0.263
-743.142	237.586	0.102	0.171
-742.127	171.735	0.076	0.111
-741.112	117.078	-0.085	0.105
-740.098	-64.995	0.059	-0.024
-739.083	293.279	-0.020	0.036
-738.069	-200.000	-0.009	0.441
-737.054	-200.000	-0.006	0.095
-736.039	-145.371	-0.340	-0.031
-735.025	132.998	-0.345	0.451
-734.010	-200.000	-0.014	0.170
-732.996	-117.963	-0.051	-0.009
-731.981	-180.850	-0.204	-0.004
-730.966	-82.476	0.452	0.148
-729.952	-27.410	-0.325	-0.191
-728.937	47.417	-0.080	-0.075
-727.923	84.440	0.264	-0.292
-726.908	240.019	0.061	0.103
-725.894	800.000	-0.015	-0.056
-724.879	-32.848	-0.134	0.075
-723.864	-72.954	0.092	-0.034
-722.850	-19.304	-0.155	-0.098
-721.835	-200.000	0.002	-0.120
-720.821	107.239	-0.145	-0.175
-719.806	800.000	0.072	-0.235
-718.791	-4.202	0.024	-0.017
-717.777	366.646	0.081	-0.165
-716.762	-124.092	-0.031	-0.005
-715.748	-113.179	-0.253	0.050
-714.733	77.304	0.212	0.229
-713.718	-118.126	-0.291	0.053
-712.704	110.805	-0.144	-0.175
-711.689	550.372	-0.083	0.202
-710.675	679.144	-0.153	0.403
-709.660	381.907	0.072	-0.149
-708.645	171.889	0.265	0.385
-707.631	519.612	0.052	-0.122
-706.616	-200.000	0.016	-0.269
-705.602	-119.220	0.283	-0.050
-704.587	36.097	-0.191	0.171
-703.572	-16.301	-0.099	0.064
-702.558	-200.000	0.020	-0.197
-701.543	-200.000	-0.037	-0.376
-700.529	-167.288	-0.337	0.014
-699.514	190.633	0.095	0.144
-698.499	800.000	-0.113	-0.399
-697.485	31.271	-0.243	-0.211
-696.470	312.834	0.085	-0.161
-695.456	800.000	0.058	0.243
-694.441	-171.513	0.140	0.005
-693.426	-32.831	-0.212	-0.119
-692.412	47.721	-0.220	-0.207
-691.397	-68.230	0.218	-0.086
-690.383	514.732	0.123	-0.290
-689.368	9.291	0.050	-0.038
-688.354	-76.773	-0.155	0.055
-687.339	157.867	0.100	0.140
-686.324	172.468	0.163	0.237
-685.310	-126.012	0.169	0.026
-684.295	-176.098	-0.288	0.008
-683.281	19.216	-0.187	0.152
-682.266	-200.000	0.012	-0.266
-681.251	-43.901	0.124	0.063
-680.237	-130.611	0.125	-0.017
-679.222	800.000	-0.081	-0.265
-678.208	115.607	-0.163	-0.202
-677.193	58.899	-0.099	-0.099
-676.178	-42.502	-0.099	0.051
-675.164	239.579	0.167	0.281
-674.149	-41.491	0.179	-0.093
-673.135	25.031	-0.132	-0.110
-672.120	-200.000	-0.001	-0.217
-671.105	-106.910	-0.369	-0.083
-670.091	224.283	-0.112	0.182
-669.076	434.973	-0.018	0.040
-668.062	-14.454	-0.135	-0.088
-667.047	800.000	0.031	0.125
-666.032	119.691	-0.165	-0.207
-665.018	151.653	-0.329	-0.453
-664.003	800.000	-0.121	0.345
-662.989	-200.000	-0.019	0.261
-661.974	-173.426	-0.067	0.002
-660.959	81.345	-0.163	-0.178
-659.945	-139.350	0.106	0.012
-658.930	-136.796	-0.120	0.014
-657.916	-200.000	-0.027	-0.127
-656.901	461.363	-0.067	-0.152
-655.886	17.244	-0.163	-0.131
-654.872	44.098	0.103	-0.096
-653.857	690.548	-0.029	-0.076
-652.843	-26.229	-0.097	0.057
-651.828	12.447	0.054	-0.042
-650.814	-19.116	0.081	0.051
-649.799	-1.132	0.229	-0.163
-648.784	90.386	-0.121	-0.137
-647.770	-127.868	0.158	0.023
-646.755	48.936	0.056	0.053
-645.741	-81.924	0.351	0.116
-644.726	-140.229	0.203	0.022
-643.711	34.451	-0.168	0.148
-642.697	-63.796	0.168	0.069
-641.682	-200.000	-0.033	0.236
-640.668	90.442	0.129	0.145
-639.653	203.991	0.282	-0.440
-638.638	589.134	0.047	0.117
-637.624	-120.604	-0.319	0.054
-636.609	-200.000	0.006	-0.236
-635.595	-39.082	0.075	0.040
-634.580	613.818	0.086	0.216
-633.565	-69.793	0.044	-0.017
-632.551	-10.194	-0.172	0.115
-631.536	11.521	-0.051	-0.039
-630.522	436.032	0.084	0.184
-629.507	-200.000	0.037	-0.416
-628.492	20.295	0.168	-0.137
-627.478	106.825	0.265	-0.318
-626.463	-79.684	-0.201	-0.068
-625.449	32.292	-0.339	0.295
-624.434	218.725	-0.081	0.131
-623.419	211.671	-0.122	-0.194
-622.405	-4.543	0.242	-0.168
-621.390	35.183	-0.112	0.099
-620.376	-16.471	0.271	-0.173
-619.361	139.114	-0.145	-0.193
-618.346	-30.091	0.292	0.167
-617.332	-200.000	-0.011	0.089
-616.317	-200.000	0.006	-0.294
-615.303	274.192	0.111	-0.199
-614.288	-146.811	-0.415	0.036
-613.273	-200.000	0.040	0.237
-612.259	-200.000	-0.039	-0.295
-611.244	13.970	0.118	0.092
-610.230	32.206	0.140	-0.121
-609.215	126.603	-0.131	0.167
-608.201	-58.138	0.163	0.071
-607.186	45.112	0.112	0.104
-606.171	-29.417	-0.183	-0.106
-605.157	-56.976	0.281	-0.125
-604.142	242.128	0.116	0.196
-603.128	177.285	0.035	0.051
-602.113	30.222	0.163	0.140
-601.098	-65.756	-0.220	0.089
-600.084	800.000	0.081	-0.237
-599.069	-147.628	-0.003	0.000
-598.055	-177.384	-0.107	0.003
-597.040	-71.725	0.068	0.026
-596.025	125.994	-0.158	0.202
-595.011	-107.156	-0.182	0.040
-593.996	-2.786	0.220	-0.155
-592.982	-200.000	-0.001	0.052
-591.967	138.704	-0.095	0.126
-590.952	84.084	-0.295	0.325
-589.938	-63.601	0.159	-0.066
-588.923	-200.000	-0.026	-0.155
-587.909	-170.262	-0.331	-0.012
-586.894	800.000	-0.040	-0.151
-585.879	-200.000	0.054	-0.246
-584.865	-76.331	0.196	-0.070
-583.850	357.247	0.126	-0.254
-582.836	241.656	0.221	-0.372
-581.821	199.599	-0.184	-0.284
-580.806	178.171	-0.093	-0.137
-579.792	-200.000	-0.008	-0.128
-578.777	-200.000	-0.019	-0.444
-577.763	-53.406	0.067	0.031
-576.748	-44.761	-0.263	0.132
-575.733	-68.084	-0.212	-0.083
-574.719	-200.000	0.018	-0.235
-573.704	52.950	0.170	-0.164
-572.690	-59.605	0.309	-0.134
-571.675	318.227	-0.015	-0.029
-570.661	-101.052	0.325	0.080
-569.646	-127.687	-0.092	-0.013
-568.631	800.000	-0.080	-0.234
-567.617	-200.000	-0.041	-0.192
-566.602	413.105	-0.077	-0.165
-565.588	-38.389	0.212	0.113
-564.573	580.862	-0.058	-0.142
-563.558	-175.064	0.068	0.002
-562.544	90.877	0.261	0.295
-561.529	-108.913	-0.230	0.049
-560.515	20.375	-0.323	-0.263
-559.500	124.018	-0.153	0.194
-558.485	-22.804	-0.266	-0.161
-557.471	-108.842	0.151	0.033
-556.456	-144.201	0.042	-0.004
-555.442	-11.014	0.342	0.227
-554.427	-115.023	-0.124	-0.024
-553.412	575.231	0.005	0.013
-552.398	800.000	-0.021	0.064
-551.383	-129.958	-0.222	-0.031
-550.369	-125.119	-0.236	0.036
-549.354	-75.811	-0.049	-0.018
-548.339	-200.000	0.036	-0.212
-547.325	98.156	-0.179	-0.207
-546.310	-91.930	0.154	-0.044
-545.296	24.426	-0.053	-0.044
-544.281	800.000	-0.051	-0.152
-543.266	25.327	0.204	-0.170
-542.252	-35.798	0.148	-0.081
-541.237	690.778	0.013	0.035
-540.223	151.189	0.082	-0.112
-539.208	-200.000	-0.005	-0.047
-538.193	-200.000	-0.001	0.092
-537.179	-21.179	0.073	-0.045
-536.164	449.324	0.080	0.178
-535.150	72.911	0.208	-0.218
-534.135	-164.493	0.256	0.012
-533.121	279.016	0.145	-0.259
-532.106	-132.981	0.181	-0.023
-531.091	-91.218	-0.384	0.111
-530.077	71.709	0.071	0.074
-529.062	-84.529	0.299	0.095
-528.048	295.219	-0.101	-0.186
-527.033	102.997	0.187	-0.220
-526.018	-73.420	-0.178	0.065
-525.004	-200.000	-0.063	0.388
-523.989	141.694	-0.171	0.228
-522.975	-43.304	0.151	-0.077
-521.960	356.808	-0.132	0.265
-520.945	-96.751	-0.150	-0.040
-519.931	258.734	-0.107	0.186
-518.916	-200.000	-0.007	-0.111
-517.902	-175.278	-0.068	0.002
-516.887	-94.979	0.213	-0.058
-515.872	800.000	-0.077	-0.254
-514.858	185.036	0.062	-0.093
-513.843	686.171	0.075	-0.197
-512.829	-200.000	-0.042	0.236
-511.814	8.693	-0.302	0.229
-510.799	800.000	-0.062	0.252
-509.785	-108.064	0.413	0.090
-508.770	800.000	0.061	0.212
-507.756	800.000	-0.048	0.186
-506.741	-116.407	-0.177	0.033
-505.726	-52.789	-0.048	0.022
-504.712	-59.014	-0.261	-0.113
-503.697	-74.295	0.137	0.050
-502.683	45.159	-0.080	-0.074
-501.668	795.818	-0.110	-0.305
-500.653	-60.486	-0.294	-0.125
-499.639	-123.529	-0.070	0.011
-498.624	95.012	-0.072	-0.082
-497.610	773.078	-0.012	0.033
-496.595	-200.000	0.302	0.000
-495.581	-200.000	0.049	-0.313
-494.566	-200.000	0.010	0.281
-493.551	664.028	-0.095	-0.247
-492.537	48.798	0.098	0.092
-491.522	132.929	-0.213	0.276
-490.508	-137.100	0.245	0.028
-489.493	-80.456	0.224	-0.075
-488.478	-57.425	-0.195	-0.086
-487.464	4.806	-0.112	-0.083
-486.449	127.805	-0.112	0.143
-485.435	-200.000	-0.003	0.064
-484.420	236.283	0.200	-0.331
-483.405	-190.559	-0.059	-0.001
-482.391	-13.203	-0.290	0.189
-481.376	299.540	-0.185	-0.341
-480.362	-72.850	-0.256	-0.094
-479.347	-122.307	-0.279	-0.046
-478.332	-28.324	0.308	0.178
-477.318	-200.000	0.024	0.117
-476.303	9.734	0.153	-0.117
-475.289	291.591	0.147	-0.269
-474.274	-113.069	0.207	0.041
-473.259	800.000	-0.074	-0.245
-472.245	-64.623	-0.157	0.064
-471.230	143.021	-0.194	0.259
-470.216	-123.949	0.148	0.023
-469.201	-154.144	-0.166	0.011
-468.186	-110.356	-0.199	-0.041
-467.172	45.916	0.249	0.231
-466.157	-108.752	-0.385	0.083
-465.143	800.000	0.035	-0.134
-464.128	-158.827	0.182	-0.010
-463.113	-200.000	0.039	0.209
-462.099	-122.244	-0.041	-0.007
-461.084	628.328	-0.036	0.090
-460.070	-28.278	0.182	0.105
-459.055	800.000	0.054	-0.201
-458.040	-200.000	0.000	-0.028
-457.026	-200.000	0.017	0.156
-456.011	-101.044	-0.153	0.038
-454.997	506.978	-0.166	0.385
-453.982	-20.734	-0.168	0.103
-452.968	98.841	0.106	0.122
-451.953	419.370	0.020	0.043
-450.938	-200.000	0.028	-0.145
-449.924	126.301	0.059	0.075
-448.909	143.239	0.261	0.348
-447.895	37.180	0.170	0.151
-446.880	-143.403	0.203	0.019
-445.865	800.000	-0.088	-0.348
-444.851	601.603	0.055	0.137
-443.836	-200.000	-0.002	0.163
-442.822	396.729	-0.040	0.084
-441.807	-145.295	0.440	0.040
-440.792	-3.621	0.252	-0.175
-439.778	260.906	0.140	0.242
-438.763	-60.661	0.128	-0.054
-437.749	800.000	-0.078	0.219
-436.734	69.562	-0.083	0.085
-435.719	339.640	0.127	-0.247
-434.705	-200.000	0.037	-0.316
-433.690	-125.972	-0.127	-0.019
-432.676	15.274	-0.249	-0.195
-431.661	-200.000	0.028	-0.143
-430.646	549.962	0.014	-0.033
-429.632	-145.554	0.269	0.024
-428.617	140.878	-0.145	-0.192
-427.603	113.044	-0.043	-0.052
-426.588	-140.972	0.149	-0.015
-425.573	195.587	-0.147	-0.224
-424.559	-1.798	0.185	-0.130
-423.544	-178.243	-0.233	0.005
-422.530	-77.868	0.136	-0.047
-421.515	-28.534	0.027	0.016
-420.500	-200.000	0.042	0.236
-419.486	-200.000	-0.013	0.196
-418.471	1.567	0.099	0.071
-417.457	-200.000	0.022	0.213
-416.442	800.000	0.042	-0.165
-415.428	160.052	-0.133	-0.186
-414.413	171.218	0.020	-0.028
-413.398	51.188	-0.065	-0.062
-412.384	-155.628	0.147	0.009
-411.369	-72.728	0.106	0.039
-410.355	-141.996	0.417	0.042
-409.340	727.395	0.014	-0.038
-408.325	112.484	-0.276	-0.333
-407.311	37.462	-0.080	-0.071
-406.296	-12.128	0.282	-0.184
-405.282	-154.236	-0.374	0.025
-404.267	110.038	-0.205	0.246
-403.252	-107.663	0.154	0.034
-402.238	57.602	-0.210	-0.205
-401.223	85.095	-0.082	0.090
-400.209	3.426	-0.036	-0.026
-399.194	463.224	-0.054	0.121
-398.179	-117.668	-0.076	0.014
-397.165	564.629	0.087	-0.210
-396.150	-75.888	-0.110	0.039
-395.136	197.780	-0.011	-0.017
-394.121	-182.198	-0.101	0.002
-393.106	215.595	-0.124	0.197
-392.092	-141.367	-0.172	-0.017
-391.077	153.936	-0.186	-0.255
-390.063	19.729	-0.202	-0.163
-389.048	127.149	-0.079	-0.100
-388.033	-172.583	0.102	0.003
-387.019	-160.573	-0.245	-0.013
-386.004	-68.134	-0.135	0.052
-384.990	490.480	-0.168	-0.385
-383.975	24.438	-0.144	0.119
-382.960	41.325	0.184	-0.166
-381.946	-88.520	-0.144	0.043
-380.931	800.000	-0.123	-0.380
-379.917	43.503	-0.154	-0.141
-378.902	-36.485	-0.161	-0.087
-377.888	16.049	0.253	0.199
-376.873	-21.505	0.406	0.247
-375.858	-200.000	0.010	-0.239
-374.844	-99.451	0.257	0.065
-373.829	379.672	0.037	0.076
-372.815	-63.014	-0.207	-0.086
-371.800	-0.138	0.212	0.151
-370.785	-120.166	-0.385	-0.066
-369.771	-38.360	0.143	-0.075
-368.756	-4.808	-0.279	0.192
-367.742	-200.000	-0.015	0.151
-366.727	-117.687	-0.069	-0.012
-365.712	-200.000	0.018	-0.084
-364.698	543.734	0.149	-0.355
-363.683	301.918	0.129	0.239
-362.669	-112.470	-0.194	0.039
-361.654	-8.363	0.156	0.105
-360.639	88.991	-0.100	-0.111
-359.625	-81.258	-0.122	-0.040
-358.610	800.000	-0.053	-0.151
-357.596	100.959	-0.161	-0.186
-356.581	44.362	-0.107	-0.098
-355.566	76.626	0.173	0.183
-354.552	-200.000	-0.000	-0.005
-353.537	-200.000	0.007	-0.151
-352.523	-200.000	-0.028	0.232
-351.508	-65.749	-0.031	-0.012
-350.493	391.271	0.153	-0.317
-349.479	800.000	0.100	-0.298
-348.464	589.888	0.089	-0.218
-347.450	14.581	0.257	-0.200
-346.435	247.925	-0.125	0.211
-345.420	-122.051	-0.148	0.024
-344.406	-200.000	-0.037	0.268
-343.391	-200.000	0.052	0.247
-342.377	103.948	-0.078	-0.092
-341.362	-47.594	-0.189	0.091
-340.348	-107.245	0.161	-0.035
-339.333	-200.000	-0.051	-0.339
-338.318	459.933	0.094	0.209
-337.304	-20.954	-0.113	-0.069
-336.289	108.718	0.029	0.034
-335.275	-24.285	-0.261	0.155
-334.260	134.319	-0.314	-0.406
-333.245	-200.000	0.008	0.131
-332.231	484.793	0.100	0.227
-331.216	-9.442	0.128	0.085
-330.202	-200.000	0.003	-0.379
-329.187	322.403	-0.154	0.293
-328.172	-133.265	0.216	-0.027
-327.158	-200.000	-0.065	-0.416
-326.143	800.000	0.028	0.116
-325.129	586.942	0.047	0.115
-324.114	260.778	0.036	0.062
-323.099	35.198	-0.065	0.057
-322.085	-83.066	-0.184	-0.059
-321.070	255.398	-0.046	-0.078
-320.056	-52.671	-0.233	0.107
-319.041	3.940	0.399	-0.291
-318.026	32.311	-0.148	0.128
-317.012	800.000	0.074	-0.243
-315.997	-146.112	0.181	0.016
-314.983	-200.000	0.055	0.271
-313.968	59.772	0.132	0.130
-312.953	-10.513	-0.191	-0.126
-311.939	-200.000	0.031	-0.211
-310.924	729.722	-0.047	0.125
-309.910	25.493	-0.179	0.148
-308.895	-107.696	0.244	-0.053
-307.880	-200.000	0.007	-0.186
-306.866	-109.070	0.044	-0.009
-305.851	-139.500	-0.134	-0.014
-304.837	-52.273	-0.112	-0.052
-303.822	800.000	0.007	0.021
-302.807	-200.000	0.008	0.078
-301.793	48.736	0.290	0.271
-300.778	167.011	0.011	-0.016
-299.764	-200.000	0.001	-0.128
-298.749	176.194	0.360	0.521
-297.735	246.795	-0.032	0.054
-296.720	348.927	-0.068	0.133
-295.705	-131.856	0.044	0.006
-294.691	-154.046	0.323	-0.022
-293.676	-28.935	0.128	-0.073
-292.662	-135.026	0.177	0.021
-291.647	41.432	0.201	-0.181
-290.632	-3.928	-0.110	-0.076
-289.618	11.988	0.123	0.094
-288.603	-200.000	-0.012	0.116
-287.589	-200.000	0.023	-0.101
-286.574	36.270	0.121	0.106
-285.559	-31.232	0.140	0.078
-284.545	800.000	0.115	-0.319
-283.530	800.000	0.096	0.348
-282.516	-148.265	-0.222	0.018
-281.501	-200.000	0.022	0.125
-280.486	-200.000	0.004	-0.091
-279.472	-71.377	0.172	0.064
-278.457	-74.969	0.409	-0.146
-277.443	-13.469	0.344	-0.222
-276.428	-138.175	-0.215	0.024
-275.413	-200.000	-0.005	-0.082
-274.399	69.807	-0.141	0.144
-273.384	800.000	-0.116	0.398
-272.370	-200.000	-0.063	-0.000
-271.355	-145.437	0.060	-0.005
-270.340	-200.000	0.002	0.283
-269.326	-40.050	0.221	0.114
-268.311	3.155	-0.216	-0.156
-267.297	-200.000	-0.034	0.365
-266.282	-71.393	-0.118	-0.044
-265.267	63.095	-0.241	-0.240
-264.253	52.520	0.232	0.220
-263.238	165.688	-0.032	-0.045
-262.224	27.983	-0.182	0.152
-261.209	800.000	-0.129	-0.373
-260.195	-200.000	0.008	-0.134
-259.180	-181.806	0.147	0.003
-258.165	-134.197	0.357	0.044
-257.151	-64.829	0.182	-0.073
-256.136	127.887	-0.051	-0.065
-255.122	67.765	-0.256	-0.260
-254.107	229.993	-0.049	0.080
-253.092	8.309	0.181	-0.135
-252.078	-118.868	-0.215	-0.037
-251.063	328.226	-0.032	-0.061
-250.049	-200.000	0.017	0.082
-249.034	-165.412	0.064	0.003
-248.019	-106.759	-0.271	-0.060
-247.005	-146.249	-0.165	0.014
-245.990	-200.000	0.042	0.334
-244.976	2.485	-0.377	-0.271
-243.961	46.963	-0.113	0.104
-242.946	-200.000	-0.008	-0.228
-241.932	-66.987	-0.115	0.045
-240.917	-138.749	-0.230	0.025
-239.903	84.540	-0.065	-0.070
-238.888	39.356	0.072	0.064
-237.873	-200.000	-0.040	-0.282
-236.859	-157.007	0.200	0.012
-235.844	-46.253	-0.162	0.079
-234.830	232.559	-0.106	0.173
-233.815	-69.571	0.184	-0.070
-232.800	134.031	0.065	-0.083
-231.786	309.779	0.235	-0.436
-230.771	-150.834	0.105	-0.008
-229.757	-200.000	0.029	0.188
-228.742	91.114	0.165	0.184
-227.727	-51.540	0.082	0.038
-226.713	-104.068	-0.114	-0.026
-225.698	-200.000	-0.042	-0.186
-224.684	-129.074	-0.218	-0.030
-223.669	468.597	0.092	-0.204
-222.655	307.179	-0.021	-0.040
-221.640	-20.019	0.134	-0.082
-220.625	-178.249	-0.128	-0.003
-219.611	800.000	-0.067	0.227
-218.596	-200.000	0.020	0.386
-217.582	81.701	0.133	-0.143
-216.567	707.141	0.130	0.341
-215.552	365.424	0.133	0.266
-214.538	-200.000	0.022	0.400
-213.523	566.188	0.140	0.338
-212.509	16.200	0.218	-0.171
-211.494	98.996	0.279	-0.320
-210.479	-20.213	-0.351	0.215
-209.465	-146.363	0.189	0.016
-208.450	53.723	-0.054	-0.052
-207.436	187.729	-0.130	-0.192
-206.421	-200.000	0.011	0.124
-205.406	673.678	0.141	0.363
-204.392	-29.825	-0.076	-0.043
-203.377	328.479	-0.175	-0.333
-202.363	-200.000	-0.010	0.086
-201.348	-10.358	-0.089	-0.059
-200.333	-200.000	-0.039	-0.340
-199.319	-200.000	-0.013	0.250
-198.304	-89.826	-0.035	0.010
-197.290	-153.697	0.293	0.020
-196.275	-58.641	-0.291	0.125
-195.260	136.314	-0.244	-0.315
-194.246	-101.912	0.462	0.111
-193.231	-200.000	-0.013	0.321
-192.217	-98.825	0.116	-0.029
-191.202	695.044	-0.137	0.357
-190.187	-199.693	0.239	-0.001
-189.173	178.976	-0.085	-0.123
-188.158	-43.205	-0.400	-0.201
-187.144	506.460	0.122	0.279
-186.129	-126.332	-0.103	-0.015
-185.114	230.870	0.109	0.176
-184.100	207.013	0.139	0.215
-183.085	184.019	-0.008	0.012
-182.071	-10.236	-0.457	0.301
-181.056	-150.188	-0.069	0.005
-180.042	66.497	0.049	-0.050
-179.027	287.238	-0.150	-0.269
-178.012	-51.494	-0.398	0.184
-176.998	800.000	0.134	0.420
-175.983	-20.625	0.242	-0.147
-174.969	463.080	-0.053	-0.116
-173.954	-200.000	-0.029	0.163
-172.939	800.000	-0.051	0.183
-171.925	223.805	0.161	0.258
-170.910	-200.000	0.013	0.377
-169.896	-200.000	-0.040	0.237
-168.881	-50.784	-0.129	0.060
-167.866	107.976	0.254	0.300
-166.852	111.288	0.162	0.194
-165.837	-142.951	-0.204	0.020
-164.823	-188.117	-0.172	0.002
-163.808	-23.340	-0.192	-0.114
-162.793	75.441	-0.181	0.189
-161.779	29.827	0.182	0.154
-160.764	442.160	-0.156	0.338
-159.750	691.551	0.033	-0.086
-158.735	-103.855	-0.239	-0.055
-157.720	-54.800	0.250	-0.112
-156.706	264.034	-0.117	0.201
-155.691	800.000	0.115	0.448
-154.677	-16.987	-0.124	0.077
-153.662	-200.000	0.005	-0.108
-152.647	-184.954	-0.155	-0.002
-151.633	-200.000	0.023	0.115
-150.618	-57.778	0.249	-0.108
-149.604	718.373	-0.076	0.200
-148.589	271.881	-0.193	0.337
-147.574	107.835	0.273	0.322
-146.560	90.220	0.122	0.135
-145.545	800.000	0.039	0.129
-144.531	-188.563	0.173	-0.002
-143.516	-200.000	-0.012	-0.168
-142.502	189.049	-0.040	-0.059
-141.487	25.318	0.245	-0.202
-140.472	366.444	-0.057	-0.113
-139.458	-36.964	0.172	-0.091
-138.443	-19.102	-0.150	-0.092
-137.429	439.542	-0.163	-0.351
-136.414	800.000	0.048	-0.196
-135.399	82.498	0.215	-0.231
-134.385	-178.192	-0.276	-0.006
-133.370	-200.000	0.002	0.128
-132.356	419.214	0.160	-0.339
-131.341	-171.246	0.340	-0.011
-130.326	-35.398	-0.061	0.033
-129.312	-140.945	-0.237	0.024
-128.297	-55.299	0.109	-0.049
-127.283	-35.127	0.232	-0.125
-126.268	171.431	-0.114	0.162
-125.253	381.574	-0.048	0.098
-124.239	42.322	0.044	0.039
-123.224	800.000	0.057	0.204
-122.210	-200.000	-0.003	-0.141
-121.195	-16.222	0.235	0.148
-120.180	77.100	-0.142	0.149
-119.166	-44.074	0.181	-0.090
-118.151	214.986	0.139	-0.218
-117.137	330.015	0.110	-0.210
-116.122	-72.358	0.114	-0.042
-115.107	65.148	-0.099	0.098
-114.093	-101.370	-0.280	0.068
-113.078	-144.514	0.305	0.028
-112.064	35.815	-0.172	-0.149
-111.049	-80.159	-0.239	0.079
-110.034	99.621	-0.129	-0.147
-109.020	800.000	0.078	0.301
-108.005	800.000	0.025	0.080
-106.991	-132.963	0.229	-0.029
-105.976	-58.893	-0.200	-0.085
-104.962	216.859	-0.108	0.171
-103.947	631.393	-0.148	0.371
-102.932	-200.000	-0.013	-0.162
-101.918	800.000	0.076	0.239
-100.903	245.834	0.052	-0.086
-99.889	-13.456	-0.106	-0.068
-98.874	800.000	0.078	0.303
-97.859	94.929	0.191	0.215
-96.845	-200.000	0.017	-0.184
-95.830	-179.571	0.053	0.001
-94.816	-113.706	-0.186	0.036
-93.801	-200.000	-0.012	0.262
-92.786	-20.843	0.398	0.241
-91.772	-200.000	0.004	-0.043
-90.757	143.033	0.192	0.253
-89.743	-94.513	-0.130	-0.035
-88.728	-4.449	-0.145	0.099
-87.713	34.932	0.031	0.026
-86.699	47.423	-0.115	0.106
-85.684	51.492	-0.073	-0.068
-84.670	135.842	-0.232	-0.299
-83.655	175.074	0.159	0.227
-82.640	240.532	-0.134	0.221
-81.626	-200.000	-0.027	-0.206
-80.611	-63.600	0.178	0.072
-79.597	-200.000	0.056	-0.309
-78.582	113.875	0.340	0.408
-77.567	800.000	0.068	-0.215
-76.553	-66.397	-0.239	0.094
-75.538	-200.000	-0.025	-0.428
-74.524	419.662	-0.034	0.072
-73.509	-62.592	-0.298	-0.122
-72.494	25.893	0.245	0.201
-71.480	-179.634	-0.393	0.008
-70.465	-12.685	0.268	0.173
-69.451	171.364	0.024	-0.034
-68.436	-138.736	-0.222	0.024
-67.422	389.202	-0.059	-0.120
-66.407	515.270	-0.080	0.185
-65.392	-145.689	0.042	0.004
-64.378	-102.966	0.352	0.082
-63.363	-200.000	0.060	0.483
-62.349	-91.430	-0.095	0.027
-61.334	89.165	-0.669	-0.736
-60.319	160.908	0.253	0.348
-59.305	-200.000	-0.174	-0.974
-58.290	800.000	0.289	1.242
-57.276	350.305	0.706	1.376
-56.261	-200.000	96.579	574.325
-55.246	656.699	1383.246	3505.905
-54.232	187.494	2606.862	3836.461
-53.217	117.513	2304.741	2796.482
-52.203	44.740	1918.200	1740.131
-51.188	38.191	1705.300	1496.971
-50.173	35.385	1659.763	1435.973
-49.159	52.463	1708.924	1608.569
-48.144	56.156	1726.583	1653.138
-47.130	37.917	1682.392	1474.549
-46.115	34.904	1667.711	1439.001
-45.100	34.685	1662.916	1433.158
-44.086	34.746	1659.904	1430.966
-43.071	34.778	1657.043	1428.685
-42.057	34.743	1654.846	1426.472
-41.042	34.777	1653.197	1425.246
-40.027	34.772	1650.534	1422.856
-39.013	34.784	1648.850	1421.437
-37.998	34.712	1647.534	1419.708
-36.984	34.801	1646.045	1419.032
-35.969	34.797	1644.480	1417.598
-34.954	34.871	1642.725	1416.572
-33.940	34.765	1641.440	1414.623
-32.925	34.892	1639.092	1413.486
-31.911	34.883	1636.904	1411.478
-30.896	34.859	1636.194	1410.628
-29.881	34.809	1634.469	1408.722
-28.867	34.843	1632.324	1407.068
-27.852	34.868	1630.662	1405.763
-26.838	34.856	1629.729	1404.814
-25.823	34.890	1627.694	1403.251
-24.809	34.886	1626.831	1402.425
-23.794	34.912	1625.200	1401.150
-22.779	34.944	1623.397	1399.778
-21.765	34.888	1621.996	1398.105
-20.750	34.918	1619.858	1396.422
-19.736	34.921	1619.265	1395.878
-18.721	35.046	1617.168	1394.930
-17.706	34.870	1616.118	1392.682
-16.692	34.850	1614.529	1391.111
-15.677	34.884	1612.695	1389.723
-14.663	35.033	1610.841	1389.155
-13.648	34.943	1610.276	1387.959
-12.633	34.975	1608.305	1386.436
-11.619	34.877	1607.056	1384.598
-10.604	34.959	1605.571	1383.856
-9.590	34.917	1604.328	1382.426
-8.575	34.970	1602.653	1381.305
-7.560	34.864	1601.696	1379.667
-6.546	34.881	1600.712	1378.885
-5.531	34.842	1599.633	1377.618
-4.517	34.924	1598.188	1376.907
-3.502	34.981	1596.889	1376.148
-2.487	35.011	1595.609	1375.202
-1.473	34.753	1584.142	1363.426
-0.458	31.945	1563.996	1326.215
0.556	30.124	1563.074	1288.040
1.571	27.111	1586.149	1285.654
2.586	25.807	1599.345	1286.924
3.600	22.604	1545.510	1221.343
4.615	14.037	1435.374	1078.837
5.629	6.361	1369.649	981.644
6.644	4.673	1361.493	965.248
7.659	4.754	1359.734	964.415
8.673	4.859	1358.707	964.249
9.688	4.994	1357.466	964.123
10.702	4.918	1355.323	962.046
11.717	8.637	1362.382	990.013
12.731	17.064	1377.960	1053.777
13.746	22.294	1385.400	1091.924
14.761	22.471	1384.560	1092.265
15.775	21.559	1382.059	1084.546
16.790	20.644	1379.522	1076.797
17.804	19.787	1377.227	1069.611
18.819	19.526	1375.768	1066.770
19.834	19.312	1375.228	1064.935
20.848	19.159	1374.173	1063.082
21.863	19.057	1372.341	1060.940
22.877	18.757	1371.848	1058.620
23.892	18.678	1371.060	1057.431
24.907	18.786	1369.692	1056.947
25.921	18.762	1368.685	1055.929
26.936	18.775	1368.260	1055.589
27.950	18.885	1366.538	1054.837
28.965	18.899	1366.244	1054.605
29.980	19.119	1364.676	1054.648
30.994	19.152	1363.675	1053.986
32.009	19.206	1362.749	1053.506
33.023	19.191	1361.635	1052.461
34.038	19.140	1359.712	1050.566
35.053	18.978	1358.641	1048.658
36.067	18.863	1357.739	1047.171
37.082	18.976	1357.027	1047.219
38.096	19.032	1355.560	1046.336
39.111	19.084	1354.561	1045.786
40.126	18.880	1354.316	1044.265
41.140	18.697	1353.151	1042.165
42.155	18.486	1352.953	1040.637
43.169	18.518	1352.590	1040.458
44.184	18.579	1352.090	1040.354
45.199	18.583	1351.903	1040.141
46.213	18.675	1351.194	1040.061
47.228	18.856	1350.678	1040.665
48.242	18.869	1349.647	1039.859
49.257	18.880	1348.082	1038.626
50.271	18.984	1346.104	1037.638
51.286	18.904	1345.136	1036.323
52.301	18.859	1343.847	1034.965
53.315	18.715	1342.779	1033.183
54.330	18.658	1342.192	1032.296
55.344	18.679	1340.135	1030.750
56.359	18.530	1339.783	1029.496
57.374	18.600	1338.939	1029.175
58.388	18.521	1337.921	1027.826
59.403	18.464	1337.265	1026.888
60.417	18.501	1336.694	1026.582
61.432	18.438	1335.620	1025.289
62.447	18.333	1334.474	1023.690
63.461	18.332	1333.092	1022.534
64.476	18.300	1332.060	1021.465
65.490	18.231	1331.453	1020.496
66.505	18.404	1329.377	1019.846
67.520	18.465	1328.260	1019.260
68.534	18.322	1327.422	1017.679
69.549	18.346	1326.629	1017.119
70.563	18.345	1325.735	1016.337
71.578	18.121	1325.232	1014.538
72.593	18.068	1323.705	1012.961
73.607	18.100	1322.813	1012.379
74.622	18.127	1321.963	1011.801
75.636	18.160	1321.858	1011.827
76.651	18.125	1320.916	1010.806
77.666	18.305	1320.185	1011.219
78.680	18.332	1320.230	1011.324
79.695	18.425	1319.058	1010.890
80.709	18.518	1318.765	1011.124
81.724	18.524	1317.749	1010.289
82.739	18.664	1316.699	1010.222
83.753	18.699	1316.452	1010.149
84.768	18.915	1315.226	1010.386
85.782	19.006	1314.640	1010.379
86.797	19.055	1313.469	1009.681
87.812	18.821	1311.798	1006.931
88.826	18.811	1310.855	1006.061
89.841	18.808	1310.275	1005.511
90.855	19.010	1308.879	1005.534
91.870	19.051	1308.225	1005.180
92.884	19.036	1307.365	1004.344
93.899	19.057	1306.661	1003.834
94.914	19.175	1305.763	1003.741
95.928	19.127	1305.149	1002.901
96.943	19.038	1304.049	1001.449
97.957	19.026	1302.871	1000.387
98.972	18.948	1302.066	999.228
99.987	19.057	1301.105	999.037
101.001	19.030	1300.209	998.102
102.016	18.973	1298.968	996.733
103.030	19.070	1297.809	996.314
104.045	19.007	1297.235	995.421
105.060	18.933	1296.066	994.011
106.074	18.674	1294.447	991.184
107.089	18.277	1293.426	988.023
108.103	18.293	1291.965	986.914
109.118	18.371	1290.324	986.021
110.133	18.356	1289.665	985.345
111.147	18.406	1287.908	984.202
112.162	18.441	1287.170	983.751
113.176	18.519	1286.058	983.262
114.191	18.586	1284.953	982.711
115.206	18.456	1284.076	981.212
116.220	18.513	1282.602	980.323
117.235	18.526	1281.408	979.397
118.249	18.543	1280.412	978.649
119.264	18.404	1279.059	976.733
120.279	18.316	1278.407	975.648
121.293	18.437	1276.564	974.842
122.308	18.276	1276.026	973.430
123.322	18.275	1274.662	972.300
124.337	18.217	1274.183	971.519
125.352	18.154	1272.770	969.999
126.366	18.225	1271.396	969.267
127.381	18.177	1270.836	968.485
128.395	18.157	1269.783	967.482
129.410	18.234	1269.129	967.332
130.424	18.351	1268.196	967.196
131.439	18.387	1267.241	966.584
132.454	18.504	1266.456	966.560
133.468	18.533	1265.430	965.858
134.483	18.586	1264.621	965.450
135.497	18.687	1263.743	965.267
136.512	18.592	1262.681	963.836
137.527	18.564	1261.615	962.778
138.541	18.599	1260.135	961.760
139.556	18.697	1258.877	961.265
140.570	18.724	1257.862	960.552
141.585	18.891	1256.703	960.518
142.600	19.037	1255.577	960.389
143.614	18.946	1255.292	959.578
144.629	18.998	1254.212	958.955
145.643	18.963	1252.861	957.643
146.658	18.885	1251.203	955.859
147.673	18.862	1249.497	954.342
148.687	18.717	1248.095	952.381
149.702	18.559	1247.075	950.646
150.716	18.579	1246.067	949.904
151.731	18.592	1244.622	948.791
152.746	18.642	1243.486	948.112
153.760	18.663	1242.353	947.286
154.775	18.793	1241.335	947.141
155.789	18.761	1240.091	945.929
156.804	18.876	1239.539	946.060
157.819	18.894	1238.616	945.368
158.833	18.987	1237.493	944.941
159.848	19.121	1236.766	945.039
160.862	19.042	1236.049	943.974
161.877	18.811	1234.521	941.455
162.892	18.720	1232.849	939.600
163.906	18.694	1232.115	938.814
164.921	18.691	1231.230	938.043
165.935	18.601	1230.509	936.920
166.950	18.805	1230.084	937.626
167.964	18.742	1229.733	936.930
168.979	18.731	1228.311	935.702
169.994	18.728	1227.684	935.127
171.008	18.823	1226.992	935.032
172.023	18.917	1226.879	935.377
173.037	19.075	1225.585	935.167
174.052	19.020	1224.785	934.173
175.067	18.895	1223.419	932.370
176.081	18.742	1222.383	930.668
177.096	18.675	1221.660	929.677
178.110	18.753	1220.391	929.046
179.125	18.795	1219.048	928.172
180.140	18.799	1218.015	927.322
181.154	18.963	1217.021	927.370
182.169	18.949	1215.664	926.178
183.183	19.120	1215.034	926.537
184.198	19.150	1213.619	925.535
185.213	19.098	1212.985	924.692
186.227	19.115	1211.922	923.891
187.242	19.229	1210.709	923.495
188.256	19.236	1210.153	923.030
189.271	19.246	1209.194	922.269
190.286	19.048	1207.973	920.196
191.300	18.806	1206.225	917.491
192.315	18.586	1205.896	915.985
193.329	18.629	1205.473	915.814
194.344	18.645	1205.236	915.638
195.359	18.780	1204.444	915.672
196.373	18.900	1203.933	915.846
197.388	19.129	1203.517	916.667
198.402	19.244	1203.591	917.252
199.417	19.369	1203.186	917.528
200.432	19.424	1201.919	916.771
201.446	19.586	1201.210	917.013
202.461	19.678	1200.113	916.580
203.475	19.626	1199.450	915.716
204.490	19.442	1197.980	913.543
205.504	19.190	1196.894	911.298
206.519	19.223	1195.392	910.248
207.534	19.109	1194.523	908.903
208.548	19.215	1193.443	908.560
209.563	19.193	1193.157	908.148
210.577	19.223	1191.883	907.257
211.592	19.352	1191.037	907.212
212.607	19.529	1190.102	907.350
213.621	19.441	1189.619	906.436
214.636	19.452	1188.504	905.567
215.650	19.413	1187.991	904.889
216.665	19.464	1186.965	904.295
217.680	19.666	1185.970	904.514
218.694	19.752	1185.194	904.294
219.709	19.619	1184.321	902.850
220.723	19.652	1183.525	902.336
221.738	19.555	1183.096	901.423
222.753	19.512	1182.229	900.458
223.767	19.626	1181.676	900.553
224.782	19.678	1181.319	900.473
225.796	19.741	1180.592	900.168
226.811	19.780	1179.571	899.509
227.826	19.569	1179.095	897.973
228.840	19.654	1178.221	897.669
229.855	19.556	1177.726	896.702
230.869	19.484	1176.681	895.453
231.884	19.462	1175.807	894.593
232.899	19.448	1174.861	893.722
233.913	19.486	1173.962	893.159
234.928	19.340	1173.597	892.044
235.942	19.355	1172.246	891.019
236.957	19.340	1171.516	890.305
237.972	19.388	1171.054	890.124
238.986	19.354	1170.465	889.422
240.001	19.363	1170.130	889.135
241.015	19.425	1168.963	888.488
242.030	19.527	1168.263	888.405
243.045	19.506	1167.612	887.722
244.059	19.590	1166.636	887.331
245.074	19.761	1165.521	887.285
246.088	19.745	1164.924	886.667
247.103	19.807	1164.410	886.517
248.117	19.911	1163.776	886.490
249.132	20.056	1163.291	886.780
250.147	20.191	1163.035	887.198
251.161	20.319	1162.190	887.129
252.176	20.253	1161.823	886.434
253.190	20.459	1160.787	886.617
254.205	20.459	1160.719	886.489
255.220	20.505	1159.967	886.070
256.234	20.474	1158.980	885.077
257.249	20.380	1158.580	884.218
258.263	20.401	1157.567	883.473
259.278	20.364	1157.149	882.884
260.293	20.516	1155.885	882.618
261.307	20.525	1156.070	882.727
262.322	20.636	1155.330	882.644
263.336	20.540	1154.837	881.703
264.351	20.621	1154.071	881.453
265.366	20.637	1153.549	881.055
266.380	20.628	1152.907	880.440
267.395	20.551	1151.545	878.935
268.409	20.441	1150.997	877.883
269.424	20.435	1150.308	877.250
270.439	20.419	1149.689	876.618
271.453	20.262	1149.407	875.531
272.468	20.266	1147.745	874.210
273.482	20.259	1147.228	873.703
274.497	20.190	1147.183	873.244
275.512	20.324	1146.239	873.124
276.526	20.351	1145.173	872.372
277.541	20.294	1144.482	871.478
278.555	20.404	1143.957	871.557
279.570	20.538	1143.452	871.766
280.585	20.645	1142.813	871.739
281.599	20.664	1142.232	871.313
282.614	20.489	1140.350	868.924
283.628	20.537	1139.028	868.082
284.643	20.468	1138.554	867.298
285.657	20.461	1137.433	866.334
286.672	20.544	1136.894	866.257
287.687	20.505	1136.092	865.375
288.701	20.532	1134.954	864.566
289.716	20.504	1134.477	863.988
290.730	20.598	1133.788	863.855
291.745	20.693	1133.276	863.858
292.760	20.615	1132.686	862.946
293.774	20.720	1132.254	863.059
294.789	20.857	1131.734	863.266
295.803	20.802	1131.037	862.387
296.818	20.470	1130.285	860.094
297.833	20.567	1129.337	859.779
298.847	20.592	1128.276	859.015
299.862	20.500	1128.094	858.348
300.876	20.657	1127.241	858.398
301.891	20.834	1126.286	858.466
302.906	20.792	1125.991	857.957
303.920	20.900	1125.135	857.759
304.935	21.074	1124.293	857.901
305.949	21.158	1124.267	858.218
306.964	21.021	1123.578	856.940
307.979	20.965	1122.289	855.606
308.993	20.964	1121.813	855.164
310.008	21.076	1120.909	854.949
311.022	20.985	1120.530	854.140
312.037	21.091	1119.290	853.637
313.052	20.890	1118.525	851.996
314.066	20.734	1117.488	850.366
315.081	20.698	1116.027	849.006
316.095	20.610	1115.878	848.387
317.110	20.681	1114.956	847.954
318.125	20.657	1114.179	847.175
319.139	20.690	1113.235	846.543
320.154	20.662	1112.885	846.064
321.168	20.810	1112.167	846.164
322.183	20.725	1111.581	845.228
323.197	20.780	1111.065	845.030
324.212	20.833	1110.440	844.736
325.227	20.875	1109.993	844.525
326.241	20.907	1109.013	843.859
327.256	20.724	1108.490	842.501
328.270	20.750	1107.530	841.824
329.285	20.850	1106.692	841.595
330.300	20.877	1105.906	841.055
331.314	20.713	1105.024	839.515
332.329	20.847	1103.806	839.162
333.343	20.884	1103.184	838.791
334.358	20.984	1102.317	838.539
335.373	20.919	1101.965	837.887
336.387	21.109	1101.153	838.108
337.402	21.104	1100.414	837.449
338.416	21.048	1099.813	836.647
339.431	21.196	1099.314	836.903
340.446	21.300	1098.741	836.891
341.460	21.424	1097.704	836.619
342.475	21.506	1096.936	836.354
343.489	21.400	1096.533	835.465
344.504	21.575	1095.097	835.132
345.519	21.610	1094.543	834.802
346.533	21.658	1093.783	834.376
347.548	21.754	1093.212	834.323
348.562	21.638	1092.576	833.216
349.577	21.425	1091.672	831.440
350.592	21.430	1090.068	830.167
351.606	21.288	1089.706	829.144
352.621	21.272	1088.910	828.388
353.635	21.078	1088.680	827.219
354.650	21.045	1087.815	826.333
355.665	21.201	1087.090	826.446
356.679	21.401	1085.720	826.282
357.694	21.387	1085.993	826.349
358.708	21.432	1085.370	826.014
359.723	21.528	1084.675	825.864
360.738	21.417	1084.234	824.931
361.752	21.523	1083.352	824.688
362.767	21.444	1082.872	823.875
363.781	21.441	1082.520	823.523
364.796	21.638	1081.780	823.813
365.810	21.789	1081.455	824.202
366.825	21.853	1080.889	823.998
367.840	21.899	1080.319	823.708
368.854	22.069	1080.073	824.245
369.869	21.993	1078.825	822.863
370.883	21.819	1077.953	821.309
371.898	21.840	1077.053	820.649
372.913	21.778	1076.829	820.115
373.927	21.791	1076.608	819.938
374.942	21.959	1075.822	820.049
375.956	21.926	1075.240	819.381
376.971	22.003	1074.520	819.120
377.986	22.030	1073.920	818.713
379.000	22.088	1073.489	818.582
380.015	22.213	1072.958	818.687
381.029	22.142	1072.665	818.064
382.044	22.175	1071.739	817.435
383.059	22.151	1070.667	816.433
384.073	22.112	1070.319	815.916
385.088	22.106	1068.821	814.674
386.102	22.141	1068.000	814.141
387.117	21.920	1067.315	812.522
388.132	21.855	1066.197	811.296
389.146	21.830	1065.300	810.429
390.161	21.840	1064.508	809.801
391.175	21.779	1064.083	809.124
392.190	21.914	1063.308	809.083
393.205	22.162	1062.621	809.635
394.219	22.109	1061.879	808.751
395.234	22.054	1060.832	807.629
396.248	21.975	1059.824	806.429
397.263	21.879	1058.784	805.123
398.278	21.908	1057.977	804.574
399.292	21.735	1057.246	803.153
400.307	21.710	1056.687	802.545
401.321	21.766	1055.744	802.013
402.336	21.840	1055.112	801.798
403.350	21.877	1054.342	801.312
404.365	21.932	1053.963	801.203
405.380	22.004	1052.808	800.585
406.394	22.009	1052.479	800.287
407.409	22.045	1052.365	800.292
408.423	22.293	1051.276	800.524
409.438	22.310	1050.766	800.138
410.453	22.401	1049.831	799.771
411.467	22.501	1049.173	799.651
412.482	22.530	1048.572	799.255
413.496	22.463	1048.155	798.564
414.511	22.530	1047.749	798.485
415.526	22.712	1047.504	799.057
416.540	22.689	1046.887	798.407
417.555	22.727	1046.113	797.920
418.569	22.671	1045.387	797.043
419.584	22.559	1045.060	796.215
420.599	22.524	1044.775	795.770
421.613	154.263	1400.148	1788.762
422.628	141.352	1451.924	1788.875
