DTS Sentinel unit serial number:	SN413079Multiplexer serial number:	ORYXHardware model number:	OX4-SRSoftware version number:	ORYX F/W v4.00 Oryx Data Collector v3.7.2.0data status	okinstallation	princeton_trtdifferential loss correction	single-endedforward channel	channel 2reverse channel	N/Adate	2019/09/14time	05:19:34forward acquisition time	60.00reverse acquisition time	0.00gamma	496.2192k internal	0.2335k external	0.2335temperature offset calibration	1.0130default loss term (dB/km)	0.3790temperature slope calibration	1.0000multiplexer offset coefficient	1.0000multiplexer slope coefficient	1.0000fibre end	0.00T internal ref (°C)	26.92T ext. ref 1 (°C)	3.39T ext. ref 2 (°C)	21.95length (m)	temperature (°C)	Stokes	anti-Stokes-747.200	-200.000	-0.025	0.112
-746.185	-49.640	-0.127	-0.061
-745.171	189.031	-0.105	-0.158
-744.156	117.391	0.097	-0.119
-743.142	-40.712	-0.237	0.123
-742.127	419.348	0.090	0.194
-741.112	646.877	0.087	-0.224
-740.098	39.156	0.080	0.071
-739.083	22.639	-0.140	0.115
-738.069	368.036	0.020	0.041
-737.054	-27.629	0.124	-0.072
-736.039	225.649	0.081	0.131
-735.025	15.226	0.249	0.196
-734.010	-143.512	-0.274	0.026
-732.996	132.077	0.289	-0.373
-731.981	-134.477	0.215	0.026
-730.966	-60.531	-0.233	0.099
-729.952	-200.000	-0.016	-0.074
-728.937	566.931	0.090	0.219
-727.923	84.483	0.076	0.084
-726.908	12.284	0.300	0.232
-725.894	-200.000	0.030	-0.173
-724.879	78.055	0.145	0.156
-723.864	4.980	-0.092	0.068
-722.850	-200.000	0.034	0.288
-721.835	87.605	0.021	0.023
-720.821	177.254	-0.158	0.231
-719.806	10.604	-0.100	0.077
-718.791	800.000	-0.087	-0.248
-717.777	-200.000	-0.007	-0.215
-716.762	-129.469	-0.266	-0.037
-715.748	-200.000	-0.036	0.206
-714.733	467.311	0.103	-0.231
-713.718	-200.000	-0.045	-0.212
-712.704	12.791	-0.065	0.050
-711.689	800.000	-0.102	-0.319
-710.675	2.441	0.249	-0.181
-709.660	800.000	-0.080	-0.292
-708.645	778.482	-0.122	-0.335
-707.631	-76.775	-0.067	-0.024
-706.616	-69.953	0.187	0.071
-705.602	-200.000	0.005	-0.103
-704.587	-157.191	0.386	-0.024
-703.572	-28.829	-0.251	0.145
-702.558	800.000	-0.055	-0.217
-701.543	-200.000	0.014	0.418
-700.529	-33.728	0.053	0.029
-699.514	728.451	-0.092	-0.246
-698.499	42.352	0.168	-0.153
-697.485	315.877	0.130	-0.245
-696.470	-47.104	0.160	0.078
-695.456	800.000	0.087	0.298
-694.441	-80.529	-0.057	-0.019
-693.426	800.000	-0.046	-0.198
-692.412	-21.246	0.130	0.080
-691.397	-23.706	0.059	0.036
-690.383	-200.000	0.017	0.084
-689.368	-121.213	0.127	0.021
-688.354	-200.000	-0.020	0.192
-687.339	44.114	0.177	-0.163
-686.324	-200.000	-0.005	0.053
-685.310	784.609	0.088	0.241
-684.295	800.000	0.040	0.167
-683.281	-200.000	0.050	-0.289
-682.266	800.000	-0.031	-0.086
-681.251	353.707	-0.173	-0.344
-680.237	635.110	-0.055	0.140
-679.222	95.939	-0.118	-0.136
-678.208	-113.463	0.094	-0.018
-677.193	-137.062	0.285	0.033
-676.178	725.176	-0.048	-0.129
-675.164	-120.990	0.311	0.052
-674.149	37.372	0.137	-0.122
-673.135	10.553	0.088	-0.067
-672.120	-106.438	-0.195	-0.044
-671.105	-200.000	-0.068	0.347
-670.091	-41.038	-0.066	0.034
-669.076	-42.895	0.151	0.077
-668.062	-200.000	-0.023	-0.131
-667.047	13.628	-0.047	-0.037
-666.032	-151.757	-0.358	-0.026
-665.018	81.639	0.146	-0.158
-664.003	118.832	0.206	-0.255
-662.989	40.946	0.195	0.176
-661.974	420.501	0.126	0.270
-660.959	-121.364	-0.122	-0.020
-659.945	-65.258	-0.179	0.072
-658.930	-200.000	0.006	-0.129
-657.916	-200.000	0.050	-0.386
-656.901	800.000	0.040	-0.171
-655.886	101.683	0.040	0.047
-654.872	-200.000	-0.048	-0.000
-653.857	-200.000	-0.010	0.092
-652.843	-35.712	-0.204	-0.111
-651.828	319.875	-0.064	-0.122
-650.814	98.869	0.175	-0.202
-649.799	318.167	-0.008	-0.014
-648.784	-200.000	0.017	0.236
-647.770	27.657	0.226	-0.191
-646.755	-97.309	-0.153	0.040
-645.741	-79.975	-0.276	0.093
-644.726	84.945	0.180	-0.197
-643.711	-131.692	-0.186	0.024
-642.697	19.908	-0.096	-0.078
-641.682	127.386	0.257	0.326
-640.668	59.560	0.105	0.103
-639.653	-200.000	0.009	0.173
-638.638	-128.878	0.172	0.024
-637.624	-13.444	-0.041	0.027
-636.609	-108.268	-0.116	-0.025
-635.595	-23.475	0.274	-0.165
-634.580	-0.060	0.221	-0.157
-633.565	116.199	-0.163	-0.200
-632.551	-200.000	-0.046	-0.258
-631.536	524.548	-0.130	0.306
-630.522	86.777	0.215	-0.237
-629.507	-158.341	0.364	-0.021
-628.492	165.719	-0.090	0.127
-627.478	-200.000	0.023	-0.407
-626.463	800.000	0.079	0.296
-625.449	-200.000	-0.002	0.118
-624.434	-200.000	-0.050	-0.279
-623.419	-72.161	-0.087	-0.032
-622.405	-9.943	-0.225	0.150
-621.390	800.000	0.094	-0.272
-620.376	403.915	-0.089	0.188
-619.361	104.754	-0.132	0.155
-618.346	-154.532	-0.298	0.020
-617.332	11.714	-0.093	0.071
-616.317	240.745	-0.119	-0.199
-615.303	800.000	-0.087	-0.246
-614.288	-106.446	-0.130	0.029
-613.273	-124.528	-0.079	-0.012
-612.259	-105.666	-0.157	0.035
-611.244	-70.460	-0.229	-0.087
-610.230	31.978	0.276	-0.238
-609.215	-200.000	0.018	-0.100
-608.201	260.461	0.138	-0.238
-607.186	-200.000	0.076	0.414
-606.171	573.018	-0.031	0.076
-605.157	48.462	-0.264	-0.247
-604.142	-200.000	-0.030	0.255
-603.128	197.123	0.159	-0.242
-602.113	-91.690	-0.340	-0.097
-601.098	25.239	-0.120	-0.099
-600.084	168.043	0.085	0.121
-599.069	-58.962	0.267	0.115
-598.055	569.545	-0.131	0.318
-597.040	173.950	0.077	0.110
-596.025	380.061	0.066	0.135
-595.011	-14.344	-0.470	0.302
-593.996	37.081	0.112	0.099
-592.982	-5.178	0.118	-0.081
-591.967	17.898	-0.177	-0.141
-590.952	201.731	0.090	-0.139
-589.938	-40.962	-0.230	-0.119
-588.923	124.959	-0.131	0.165
-587.909	800.000	-0.080	0.297
-586.894	59.954	0.122	-0.121
-585.879	800.000	0.085	0.287
-584.865	422.651	0.097	-0.207
-583.850	713.822	-0.083	-0.220
-582.836	-80.965	-0.292	0.096
-581.821	190.064	-0.299	0.447
-580.806	-66.321	0.099	-0.039
-579.792	-157.310	0.182	-0.011
-578.777	-10.678	0.258	-0.170
-577.763	-200.000	-0.001	0.048
-576.748	-81.662	0.130	-0.043
-575.733	800.000	0.108	-0.355
-574.719	-135.182	0.021	-0.002
-573.704	-200.000	-0.034	0.154
-572.690	47.264	-0.200	-0.186
-571.675	-169.282	0.177	-0.007
-570.661	800.000	-0.082	0.353
-569.646	122.871	-0.207	-0.259
-568.631	88.689	-0.170	-0.189
-567.617	-60.288	0.154	-0.065
-566.602	395.077	0.236	-0.491
-565.588	17.417	0.260	0.206
-564.573	-106.110	-0.403	-0.090
-563.558	273.662	-0.055	-0.096
-562.544	344.533	-0.130	-0.254
-561.529	265.931	0.091	0.158
-560.515	-135.410	-0.414	-0.049
-559.500	55.364	-0.188	-0.182
-558.485	800.000	-0.069	-0.232
-557.471	-5.141	-0.145	-0.099
-556.456	-200.000	0.037	-0.380
-555.442	-200.000	-0.049	-0.261
-554.427	-56.384	0.386	-0.171
-553.412	621.227	-0.144	0.361
-552.398	45.301	0.127	0.117
-551.383	-142.687	-0.103	-0.010
-550.369	800.000	0.055	-0.157
-549.354	-200.000	0.082	0.421
-548.339	20.876	-0.014	0.011
-547.325	-61.245	-0.221	0.093
-546.310	-200.000	-0.022	0.222
-545.296	415.027	0.111	-0.236
-544.281	-200.000	-0.008	-0.093
-543.266	-200.000	0.046	0.202
-542.252	-96.557	0.228	-0.060
-541.237	381.258	0.080	-0.165
-540.223	12.121	0.138	-0.106
-539.208	44.093	0.132	-0.120
-538.193	-36.071	-0.211	-0.114
-537.179	-154.797	-0.131	0.009
-536.164	-100.279	0.106	-0.026
-535.150	-120.423	-0.249	0.042
-534.135	800.000	-0.038	0.137
-533.121	419.552	0.171	-0.364
-532.106	86.664	0.069	0.076
-531.091	221.874	0.104	0.167
-530.077	-185.798	-0.153	0.002
-529.062	-200.000	-0.012	-0.163
-528.048	-121.236	0.270	-0.045
-527.033	236.405	0.138	0.227
-526.018	202.878	0.022	-0.033
-525.004	41.670	0.060	-0.054
-523.989	-163.535	-0.413	0.019
-522.975	-29.095	0.255	-0.146
-521.960	-200.000	-0.006	-0.205
-520.945	-88.770	-0.079	-0.023
-519.931	-188.550	0.088	0.001
-518.916	23.862	-0.132	0.108
-517.902	126.374	-0.087	-0.110
-516.887	126.434	-0.005	-0.006
-515.872	1.991	0.321	-0.230
-514.858	49.619	-0.173	-0.162
-513.843	485.525	-0.119	0.270
-512.829	-112.596	0.250	-0.050
-511.814	800.000	0.062	0.235
-510.799	-89.311	-0.253	-0.074
-509.785	800.000	0.083	-0.291
-508.770	267.963	0.024	0.042
-507.756	800.000	-0.056	-0.219
-506.741	800.000	0.075	0.306
-505.726	-93.694	0.189	-0.052
-504.712	-85.587	0.083	0.026
-503.697	-200.000	-0.092	0.419
-502.683	390.013	0.134	0.276
-501.668	800.000	0.045	-0.186
-500.653	178.795	-0.048	0.069
-499.639	66.202	0.121	0.122
-498.624	-65.404	0.192	0.077
-497.610	-200.000	-0.012	-0.068
-496.595	115.290	0.134	-0.163
-495.581	38.647	0.198	-0.176
-494.566	-40.310	0.237	0.123
-493.551	-58.075	-0.161	0.070
-492.537	77.996	-0.084	-0.089
-491.522	109.845	-0.164	0.196
-490.508	800.000	-0.065	-0.233
-489.493	540.968	0.052	-0.124
-488.478	-200.000	0.055	0.293
-487.464	-200.000	0.004	-0.149
-486.449	201.430	-0.070	0.107
-485.435	345.063	0.105	-0.204
-484.420	240.708	0.080	0.132
-483.405	24.059	-0.290	-0.238
-482.391	343.942	-0.115	0.223
-481.376	36.403	0.242	0.212
-480.362	7.388	0.117	0.087
-479.347	-193.694	-0.269	0.002
-478.332	401.121	0.102	0.214
-477.318	800.000	0.033	0.129
-476.303	800.000	0.109	-0.362
-475.289	41.895	0.089	-0.081
-474.274	-148.677	-0.376	-0.030
-473.259	69.118	0.131	0.134
-472.245	-158.219	-0.112	-0.007
-471.230	-92.989	-0.148	-0.041
-470.216	-200.000	-0.021	-0.099
-469.201	-200.000	0.004	-0.171
-468.186	800.000	-0.076	-0.228
-467.172	365.472	-0.239	0.479
-466.157	-38.693	-0.280	-0.147
-465.143	-200.000	-0.005	0.112
-464.128	5.680	-0.100	-0.073
-463.113	9.078	0.140	0.105
-462.099	87.112	-0.246	-0.270
-461.084	-200.000	0.035	0.204
-460.070	-200.000	-0.029	-0.135
-459.055	15.892	0.176	-0.137
-458.040	-152.331	-0.081	-0.006
-457.026	-200.000	-0.001	-0.146
-456.011	-147.394	0.190	-0.016
-454.997	800.000	-0.052	-0.195
-453.982	800.000	0.048	-0.163
-452.968	-93.887	-0.454	0.124
-451.953	800.000	0.086	-0.330
-450.938	800.000	-0.016	0.044
-449.924	-88.882	0.133	-0.039
-448.909	648.650	0.075	-0.190
-447.895	800.000	-0.027	-0.076
-446.880	23.246	-0.084	-0.068
-445.865	-114.990	0.040	0.008
-444.851	-200.000	0.016	-0.190
-443.836	-200.000	0.027	-0.207
-442.822	190.200	0.051	0.075
-441.807	-123.741	0.116	0.018
-440.792	-72.992	-0.236	0.086
-439.778	17.333	-0.270	0.213
-438.763	-127.995	-0.138	-0.020
-437.749	766.489	-0.044	0.119
-436.734	380.341	0.069	0.140
-435.719	98.971	0.109	-0.125
-434.705	-5.712	0.044	0.030
-433.690	81.245	-0.196	-0.210
-432.676	38.572	0.262	-0.232
-431.661	-71.703	-0.184	0.068
-430.646	-200.000	-0.067	-0.313
-429.632	3.709	0.197	-0.143
-428.617	800.000	-0.007	0.031
-427.603	261.539	0.158	0.272
-426.588	800.000	-0.034	-0.112
-425.573	-84.092	0.381	0.120
-424.559	0.606	-0.271	-0.192
-423.544	65.826	0.041	0.041
-422.530	800.000	0.080	0.237
-421.515	800.000	-0.104	0.290
-420.500	-155.696	-0.305	-0.019
-419.486	-200.000	0.063	0.351
-418.471	-22.881	0.156	0.093
-417.457	-2.099	-0.226	-0.157
-416.442	70.698	-0.110	-0.113
-415.428	-1.696	-0.177	-0.124
-414.413	60.599	-0.209	0.205
-413.398	47.481	-0.250	0.231
-412.384	-123.662	0.351	0.055
-411.369	11.765	0.355	0.270
-410.355	800.000	-0.057	0.203
-409.340	-24.118	-0.325	-0.192
-408.325	265.800	-0.019	-0.034
-407.311	132.882	0.138	0.176
-406.296	-19.201	0.211	0.130
-405.282	65.190	0.107	0.108
-404.267	-146.272	0.221	-0.019
-403.252	55.172	0.211	0.202
-402.238	128.002	0.144	0.181
-401.223	-61.012	0.181	0.076
-400.209	-148.521	0.311	-0.025
-399.194	-182.385	0.412	-0.008
-398.179	-23.172	-0.193	0.115
-397.165	800.000	0.067	-0.268
-396.150	39.630	-0.133	0.118
-395.136	150.221	0.149	-0.200
-394.121	15.614	-0.085	-0.066
-393.106	-200.000	-0.028	0.152
-392.092	93.529	0.218	0.245
-391.077	800.000	-0.052	0.189
-390.063	-200.000	0.037	-0.230
-389.048	30.503	0.162	-0.138
-388.033	-178.724	0.044	-0.001
-387.019	-200.000	-0.052	-0.404
-386.004	-92.909	-0.065	0.018
-384.990	-200.000	0.014	-0.106
-383.975	246.037	0.134	0.223
-382.960	8.917	-0.105	-0.078
-381.946	92.803	-0.206	0.230
-380.931	228.821	-0.095	0.153
-379.917	-200.000	-0.012	0.122
-378.902	99.844	0.185	0.212
-377.888	86.004	-0.128	-0.140
-376.873	192.777	0.205	-0.307
-375.858	-5.913	0.236	0.160
-374.844	180.415	0.149	0.216
-373.829	168.219	0.117	0.166
-372.815	-129.609	-0.167	-0.023
-371.800	-73.477	0.136	0.049
-370.785	125.859	0.261	0.327
-369.771	-17.805	0.283	-0.176
-368.756	-200.000	-0.005	-0.109
-367.742	-101.873	-0.068	0.016
-366.727	-200.000	-0.003	-0.208
-365.712	-43.529	-0.372	-0.186
-364.698	-200.000	0.020	-0.139
-363.683	755.529	0.062	-0.165
-362.669	4.530	-0.096	-0.070
-361.654	390.072	-0.101	-0.208
-360.639	-146.864	-0.355	-0.030
-359.625	-200.000	-0.024	-0.326
-358.610	-170.015	0.105	-0.004
-357.596	-136.618	0.276	-0.032
-356.581	55.837	0.239	0.229
-355.566	344.313	-0.162	-0.314
-354.552	97.741	-0.113	0.128
-353.537	-200.000	0.033	-0.206
-352.523	-200.000	0.005	0.127
-351.508	-75.870	0.104	0.037
-350.493	800.000	0.066	0.183
-349.479	-192.957	0.172	0.002
-348.464	276.223	0.084	0.148
-347.450	3.596	0.200	0.145
-346.435	259.018	0.034	-0.059
-345.420	-41.538	0.200	-0.102
-344.406	-88.702	-0.359	-0.105
-343.391	-6.382	-0.309	-0.208
-342.377	15.011	-0.220	0.171
-341.362	16.306	0.227	-0.177
-340.348	-187.851	0.300	0.004
-339.333	-29.082	0.042	-0.024
-338.318	-39.573	0.403	-0.208
-337.304	205.675	0.119	-0.183
-336.289	179.314	-0.129	0.186
-335.275	-153.592	0.255	0.017
-334.260	-166.403	0.190	0.008
-333.245	-200.000	0.000	0.026
-332.231	355.509	0.045	0.089
-331.216	-73.115	0.049	0.018
-330.202	-9.422	0.125	-0.083
-329.187	-117.018	-0.129	0.023
-328.172	-41.582	0.223	-0.113
-327.158	-41.800	-0.140	-0.071
-326.143	-6.022	0.094	0.063
-325.129	-22.598	0.175	0.104
-324.114	800.000	0.037	-0.106
-323.099	19.729	0.048	0.038
-322.085	-72.564	0.348	0.127
-321.070	152.994	0.036	0.049
-320.056	41.643	0.073	-0.065
-319.041	153.037	-0.173	0.234
-318.026	-67.251	-0.070	-0.027
-317.012	-146.085	0.390	0.034
-315.997	-71.221	0.286	0.106
-314.983	-125.228	0.062	0.009
-313.968	-200.000	0.004	0.254
-312.953	-90.757	-0.101	0.029
-311.939	238.534	-0.105	-0.173
-310.924	-16.162	-0.292	-0.184
-309.910	50.301	0.132	-0.124
-308.895	800.000	0.134	0.505
-307.880	-108.847	-0.059	-0.012
-306.866	-134.542	0.196	0.024
-305.851	-91.678	-0.176	0.049
-304.837	-200.000	-0.039	-0.292
-303.822	30.947	-0.140	0.119
-302.807	3.129	0.211	-0.152
-301.793	-159.337	-0.279	0.015
-300.778	162.128	0.125	0.173
-299.764	94.723	0.180	0.202
-298.749	-48.548	-0.261	0.124
-297.735	148.097	0.232	0.309
-296.720	800.000	-0.052	0.203
-295.705	-200.000	0.020	-0.332
-294.691	800.000	-0.044	0.175
-293.676	124.673	-0.181	0.225
-292.662	-110.052	-0.202	-0.042
-291.647	-200.000	0.045	0.259
-290.632	-144.298	0.350	-0.032
-289.618	87.325	0.224	-0.245
-288.603	34.169	-0.062	0.054
-287.589	147.854	-0.053	-0.071
-286.574	800.000	-0.054	0.158
-285.559	-200.000	0.029	-0.253
-284.545	67.557	-0.123	0.124
-283.530	-139.016	-0.147	-0.016
-282.516	131.313	0.058	0.073
-281.501	800.000	-0.043	-0.150
-280.486	37.792	0.079	0.069
-279.472	96.248	-0.362	0.408
-278.457	-200.000	0.026	0.249
-277.443	-61.507	0.214	0.089
-276.428	313.840	0.143	0.265
-275.413	-67.329	-0.363	-0.141
-274.399	800.000	-0.027	-0.094
-273.384	-200.000	0.030	-0.237
-272.370	244.622	0.184	-0.306
-271.355	377.029	-0.115	0.231
-270.340	44.711	-0.047	0.043
-269.326	-149.729	0.140	0.011
-268.311	6.936	-0.220	0.162
-267.297	800.000	0.078	-0.330
-266.282	-55.710	-0.404	-0.178
-265.267	3.946	-0.234	-0.169
-264.253	369.939	-0.115	-0.230
-263.238	69.310	0.035	-0.036
-262.224	-200.000	-0.042	0.397
-261.209	-163.058	-0.426	-0.020
-260.195	-94.029	-0.321	0.087
-259.180	-110.490	-0.169	-0.035
-258.165	-11.393	-0.050	0.032
-257.151	-200.000	0.260	0.000
-256.136	-114.697	-0.163	0.031
-255.122	275.114	-0.118	0.207
-254.107	-200.000	0.000	-0.300
-253.092	-200.000	0.028	-0.237
-252.078	800.000	-0.102	0.413
-251.063	-104.976	0.370	-0.083
-250.049	-101.761	-0.238	0.057
-249.034	-127.618	0.132	0.019
-248.019	47.249	0.204	0.187
-247.005	-66.865	-0.337	-0.131
-245.990	-77.419	-0.102	0.035
-244.976	800.000	0.091	0.303
-243.961	-29.472	0.109	0.061
-242.946	33.668	0.088	-0.076
-241.932	-200.000	-0.231	-0.001
-240.917	505.965	0.029	0.066
-239.903	-151.311	-0.239	0.018
-238.888	-13.152	0.191	-0.122
-237.873	800.000	0.026	0.110
-236.859	426.488	0.036	-0.076
-235.844	86.030	0.125	-0.135
-234.830	-100.865	-0.077	0.019
-233.815	-200.000	-0.012	-0.055
-232.800	-140.612	0.208	0.021
-231.786	377.271	-0.092	0.184
-230.771	63.800	0.092	-0.091
-229.757	250.648	-0.023	-0.039
-228.742	31.684	0.115	0.097
-227.727	-190.918	-0.225	-0.002
-226.713	-12.056	-0.106	0.068
-225.698	-200.000	0.055	-0.244
-224.684	-71.477	-0.432	0.159
-223.669	226.572	0.211	0.337
-222.655	-200.000	-0.004	-0.305
-221.640	-200.000	-0.022	0.266
-220.625	-82.973	-0.222	-0.070
-219.611	48.066	-0.028	-0.026
-218.596	-200.000	-0.059	-0.305
-217.582	396.311	0.155	0.319
-216.567	200.954	-0.089	0.134
-215.552	-102.829	0.088	0.021
-214.538	52.246	-0.122	-0.114
-213.523	-200.000	-0.026	-0.117
-212.509	59.063	-0.170	-0.164
-211.494	557.166	-0.138	0.328
-210.479	-83.696	0.114	0.036
-209.465	800.000	-0.105	0.341
-208.450	-200.000	0.041	0.311
-207.436	219.894	0.139	-0.219
-206.421	10.134	-0.243	-0.181
-205.406	-50.192	0.175	-0.082
-204.392	-45.257	-0.171	-0.083
-203.377	-163.176	0.112	-0.005
-202.363	-127.491	-0.231	-0.033
-201.348	-61.381	0.021	0.009
-200.333	-28.881	0.308	0.174
-199.319	-125.226	0.141	-0.021
-198.304	201.388	0.065	0.098
-197.290	-93.956	-0.396	-0.107
-196.275	62.738	0.300	-0.295
-195.260	429.161	-0.019	0.041
-194.246	-191.464	-0.300	0.003
-193.231	-18.064	-0.042	-0.026
-192.217	-124.213	-0.169	-0.026
-191.202	-101.397	0.472	-0.113
-190.187	-94.763	-0.093	-0.025
-189.173	191.311	0.072	-0.107
-188.158	126.654	0.058	-0.073
-187.144	-200.000	0.002	-0.032
-186.129	-50.279	0.039	0.018
-185.114	187.693	-0.149	-0.218
-184.100	268.630	0.036	-0.062
-183.085	-200.000	-0.011	-0.097
-182.071	0.505	-0.058	0.041
-181.056	179.455	0.122	0.176
-180.042	-16.567	-0.156	-0.097
-179.027	-200.000	0.043	0.216
-178.012	48.693	0.048	0.044
-176.998	114.818	-0.170	0.204
-175.983	-39.845	0.069	-0.036
-174.969	-88.216	0.270	0.080
-173.954	-130.583	0.086	0.011
-172.939	800.000	-0.022	-0.082
-171.925	142.544	0.067	0.087
-170.910	734.093	0.101	-0.265
-169.896	-86.665	0.316	-0.095
-168.881	105.391	0.158	0.183
-167.866	497.179	0.152	0.344
-166.852	206.283	-0.131	0.200
-165.837	-89.030	0.179	0.052
-164.823	182.770	-0.133	0.193
-163.808	-200.000	-0.002	0.150
-162.793	58.228	0.169	0.163
-161.779	-200.000	0.045	-0.507
-160.764	42.445	-0.219	0.195
-159.750	-135.551	-0.240	0.028
-158.735	17.638	0.091	-0.071
-157.720	-111.245	-0.291	-0.058
-156.706	493.867	-0.050	-0.113
-155.691	-70.690	-0.218	0.081
-154.677	166.399	0.051	-0.072
-153.662	-63.474	-0.038	0.015
-152.647	-116.226	-0.165	-0.030
-151.633	319.062	0.016	-0.030
-150.618	502.053	-0.088	-0.199
-149.604	-4.246	-0.065	-0.044
-148.589	-200.000	-0.042	-0.256
-147.574	129.404	0.229	-0.287
-146.560	-83.423	-0.165	-0.052
-145.545	-200.000	-0.005	-0.103
-144.531	71.571	0.190	-0.194
-143.516	87.161	-0.178	-0.193
-142.502	-40.530	0.204	0.104
-141.487	565.863	0.119	0.283
-140.472	-124.894	-0.132	0.020
-139.458	142.101	-0.057	-0.075
-138.443	105.645	0.124	0.143
-137.429	-200.000	0.035	0.318
-136.414	277.619	-0.059	-0.102
-135.399	-200.000	0.041	0.209
-134.385	-200.000	-0.015	-0.305
-133.370	800.000	-0.117	-0.348
-132.356	-81.477	-0.206	-0.067
-131.341	800.000	0.039	0.130
-130.326	-29.382	0.099	0.056
-129.312	199.871	0.090	-0.135
-128.297	-120.401	-0.137	0.023
-127.283	-82.668	0.145	0.046
-126.268	-200.000	-0.003	0.027
-125.253	-200.000	0.001	0.330
-124.239	134.977	-0.091	0.116
-123.224	304.004	-0.042	-0.077
-122.210	-66.227	0.016	0.006
-121.195	-145.216	-0.140	0.012
-120.180	616.781	-0.077	-0.189
-119.166	23.108	-0.133	-0.107
-118.151	800.000	-0.006	-0.023
-117.137	78.882	0.131	-0.138
-116.122	-21.809	0.192	0.115
-115.107	8.504	-0.212	0.156
-114.093	453.448	-0.072	0.156
-113.078	50.244	-0.093	0.086
-112.064	149.176	-0.236	-0.313
-111.049	9.058	0.101	0.075
-110.034	13.167	-0.106	0.080
-109.020	-187.361	0.360	0.005
-108.005	-151.152	-0.118	-0.009
-106.991	6.224	-0.222	-0.161
-105.976	-41.853	-0.224	-0.113
-104.962	-200.000	0.104	0.586
-103.947	116.003	0.064	0.077
-102.932	-164.020	-0.306	-0.014
-101.918	649.494	0.093	0.233
-100.903	-142.357	0.141	-0.014
-99.889	6.173	0.197	0.143
-98.874	-84.172	-0.411	0.128
-97.859	403.735	-0.061	-0.127
-96.845	-157.616	0.197	-0.012
-95.830	-46.862	-0.065	0.031
-94.816	130.695	0.076	-0.095
-93.801	-91.710	-0.181	0.050
-92.786	-82.190	-0.259	0.083
-91.772	-108.175	-0.307	0.065
-90.757	366.460	0.065	0.129
-89.743	-200.000	-0.055	0.305
-88.728	-197.326	-0.142	-0.001
-87.713	-2.779	0.224	-0.153
-86.699	748.224	0.038	-0.102
-85.684	-200.000	0.041	-0.535
-84.670	-11.105	0.243	-0.157
-83.655	7.818	0.192	0.141
-82.640	312.743	0.170	0.313
-81.626	659.503	-0.048	0.121
-80.611	-200.000	0.042	0.257
-79.597	685.634	0.173	0.442
-78.582	-54.970	-0.228	-0.100
-77.567	-61.845	-0.498	-0.204
-76.553	-200.000	0.003	-0.098
-75.538	-107.770	-0.004	0.001
-74.524	362.709	0.038	0.074
-73.509	55.304	0.073	-0.069
-72.494	-126.897	-0.253	-0.036
-71.480	-200.000	-0.002	0.197
-70.465	129.810	0.085	-0.106
-69.451	-200.000	0.043	0.239
-68.436	800.000	0.087	0.304
-67.422	213.129	0.140	-0.217
-66.407	-200.000	0.053	-0.517
-65.392	41.138	-0.169	-0.149
-64.378	-135.595	0.318	0.037
-63.363	5.171	0.282	0.203
-62.349	29.683	-0.094	0.078
-61.334	63.450	-0.905	-0.889
-60.319	41.141	0.668	0.590
-59.305	729.768	-0.471	-1.229
-58.290	196.577	0.812	1.211
-57.276	413.040	0.738	1.535
-56.261	-200.000	115.837	662.058
-55.246	531.685	1532.833	3545.345
-54.232	174.760	2716.550	3844.071
-53.217	102.292	2302.548	2630.859
-52.203	36.384	1906.557	1643.991
-51.188	30.006	1696.209	1414.047
-50.173	27.646	1653.768	1361.025
-49.159	49.819	1711.051	1576.972
-48.144	47.832	1724.733	1574.467
-47.130	29.676	1682.070	1399.539
-46.115	27.028	1667.268	1367.265
-45.100	26.821	1663.199	1362.321
-44.086	26.762	1660.245	1359.400
-43.071	26.865	1657.410	1357.793
-42.057	26.789	1655.274	1355.428
-41.042	26.854	1652.998	1353.995
-40.027	26.875	1650.791	1352.289
-39.013	26.769	1649.443	1350.340
-37.998	26.741	1648.057	1348.945
-36.984	26.788	1646.237	1347.750
-35.969	26.896	1644.796	1347.321
-34.954	26.927	1643.275	1346.246
-33.940	27.012	1641.111	1345.053
-32.925	26.913	1639.511	1342.956
-31.911	26.896	1638.050	1341.579
-30.896	26.842	1636.131	1339.558
-29.881	26.966	1634.311	1338.928
-28.867	27.013	1632.343	1337.610
-27.852	26.975	1631.605	1336.669
-26.838	26.820	1630.368	1334.467
-25.823	26.928	1628.630	1333.780
-24.809	26.928	1627.814	1333.057
-23.794	26.914	1626.060	1331.467
-22.779	26.925	1624.709	1330.390
-21.765	26.940	1622.855	1328.930
-20.750	26.868	1621.448	1327.199
-19.736	27.011	1619.766	1326.815
-18.721	27.002	1618.295	1325.488
-17.706	26.947	1617.212	1324.147
-16.692	26.982	1615.666	1323.086
-15.677	26.926	1614.376	1321.570
-14.663	27.034	1612.697	1320.926
-13.648	26.993	1611.140	1319.305
-12.633	27.021	1609.676	1318.257
-11.619	26.959	1608.253	1316.585
-10.604	26.961	1607.170	1315.662
-9.590	26.976	1605.501	1314.355
-8.575	26.935	1604.357	1313.065
-7.560	26.960	1603.192	1312.243
-6.546	26.930	1602.246	1311.203
-5.531	26.878	1601.332	1310.023
-4.517	27.012	1599.989	1309.842
-3.502	26.941	1598.429	1307.999
-2.487	26.977	1597.130	1307.142
-1.473	26.756	1585.116	1295.678
-0.458	23.886	1566.176	1259.844
0.556	21.477	1568.027	1230.075
1.571	19.275	1591.774	1232.859
2.586	18.715	1603.823	1238.045
3.600	16.520	1548.703	1180.085
4.615	9.665	1440.738	1053.076
5.629	4.149	1381.877	975.325
6.644	3.475	1374.396	965.737
7.659	3.299	1373.242	963.739
8.673	3.374	1372.146	963.354
9.688	3.412	1370.685	962.480
10.702	3.436	1367.341	960.196
11.717	5.961	1372.659	979.619
12.731	13.087	1385.426	1033.383
13.746	19.128	1394.318	1077.857
14.761	20.390	1395.925	1086.909
15.775	19.645	1394.521	1081.063
16.790	18.630	1391.631	1072.384
17.804	17.920	1388.770	1065.655
18.819	17.553	1387.599	1062.371
19.834	17.403	1386.700	1060.657
20.848	17.234	1385.597	1058.668
21.863	16.910	1384.623	1055.812
22.877	16.887	1383.565	1054.767
23.892	16.805	1382.162	1053.095
24.907	16.756	1381.492	1052.189
25.921	16.750	1380.679	1051.435
26.936	16.838	1379.882	1051.285
27.950	16.901	1378.673	1050.660
28.965	16.917	1378.184	1050.293
29.980	17.057	1376.439	1049.736
30.994	17.190	1375.249	1049.556
32.009	17.194	1374.752	1049.109
33.023	17.268	1373.184	1048.275
34.038	17.107	1371.646	1046.016
35.053	17.015	1370.436	1044.435
36.067	17.038	1369.260	1043.591
37.082	17.040	1368.567	1042.979
38.096	17.083	1367.217	1042.127
39.111	17.048	1366.853	1041.537
40.126	16.960	1366.010	1040.264
41.140	16.755	1364.998	1038.147
42.155	16.702	1364.225	1037.143
43.169	16.595	1364.668	1036.728
44.184	16.739	1363.784	1036.849
45.199	16.814	1363.154	1036.737
46.213	16.834	1362.566	1036.321
47.228	16.892	1362.449	1036.496
48.242	17.025	1360.597	1035.806
49.257	16.894	1359.405	1034.007
50.271	16.923	1358.011	1033.031
51.286	16.877	1356.508	1031.520
52.301	16.877	1355.229	1030.455
53.315	16.785	1354.080	1028.928
54.330	16.635	1353.497	1027.483
55.344	16.686	1352.302	1026.799
56.359	16.777	1350.756	1026.082
57.374	16.729	1350.183	1025.267
58.388	16.621	1349.719	1024.171
59.403	16.552	1349.755	1023.692
60.417	16.626	1348.161	1022.836
61.432	16.580	1347.504	1021.968
62.447	16.527	1346.351	1020.687
63.461	16.474	1345.517	1019.642
64.476	16.468	1344.369	1018.645
65.490	16.502	1342.525	1017.365
66.505	16.506	1341.203	1016.296
67.520	16.628	1339.630	1015.749
68.534	16.621	1339.124	1015.231
69.549	16.557	1338.033	1013.932
70.563	16.503	1336.984	1012.723
71.578	16.383	1335.644	1010.902
72.593	16.412	1334.738	1010.298
73.607	16.374	1334.315	1009.663
74.622	16.340	1333.309	1008.606
75.636	16.295	1333.031	1008.043
76.651	16.465	1331.762	1008.005
77.666	16.577	1331.252	1008.199
78.680	16.581	1330.664	1007.684
79.695	16.563	1330.354	1007.258
80.709	16.669	1329.521	1007.166
81.724	16.662	1328.916	1006.576
82.739	16.774	1328.218	1006.627
83.753	16.806	1327.433	1006.134
84.768	16.820	1326.486	1005.409
85.782	16.957	1325.131	1005.103
86.797	16.943	1323.732	1003.869
87.812	16.896	1322.404	1002.499
88.826	16.846	1321.669	1001.553
89.841	16.950	1320.366	1001.096
90.855	17.015	1319.831	1000.985
91.870	17.008	1318.563	999.893
92.884	17.069	1317.491	999.350
93.899	16.994	1317.336	998.700
94.914	17.177	1316.391	998.972
95.928	17.066	1315.650	997.672
96.943	17.077	1314.598	996.851
97.957	17.014	1313.806	995.791
98.972	16.943	1312.953	994.636
99.987	16.993	1311.644	993.854
101.001	16.996	1310.724	993.084
102.016	17.069	1309.156	992.238
103.030	17.037	1308.756	991.660
104.045	17.024	1308.095	990.994
105.060	16.927	1306.245	988.938
106.074	16.792	1304.509	986.750
107.089	16.612	1303.356	984.741
108.103	16.482	1302.620	983.343
109.118	16.596	1300.644	982.426
110.133	16.577	1299.440	981.318
111.147	16.653	1298.128	980.683
112.162	16.687	1296.994	979.936
113.176	16.635	1296.420	979.118
114.191	16.650	1295.389	978.334
115.206	16.716	1293.714	977.365
116.220	16.694	1292.641	976.346
117.235	16.664	1291.291	975.062
118.249	16.701	1290.604	974.673
119.264	16.584	1289.265	972.899
120.279	16.536	1287.777	971.419
121.293	16.515	1287.359	970.893
122.308	16.531	1285.840	969.757
123.322	16.389	1285.142	968.328
124.337	16.518	1283.354	967.634
125.352	16.449	1282.508	966.518
126.366	16.461	1281.584	965.802
127.381	16.503	1280.489	965.132
128.395	16.530	1279.276	964.286
129.410	16.483	1278.535	963.374
130.424	16.579	1277.771	963.263
131.439	16.635	1276.720	962.700
132.454	16.686	1275.734	962.161
133.468	16.707	1274.876	961.549
134.483	16.692	1274.185	960.860
135.497	16.610	1273.237	959.595
136.512	16.648	1272.022	958.807
137.527	16.740	1270.523	958.115
138.541	16.725	1268.970	956.773
139.556	16.742	1268.083	956.114
140.570	16.798	1266.794	955.374
141.585	16.951	1265.619	955.264
142.600	16.930	1264.745	954.402
143.614	17.072	1263.843	954.440
144.629	17.082	1263.009	953.782
145.643	17.014	1261.882	952.460
146.658	16.931	1260.253	950.686
147.673	16.972	1258.491	949.499
148.687	16.675	1257.922	947.326
149.702	16.698	1256.478	946.284
150.716	16.772	1255.293	945.721
151.731	16.700	1254.517	944.651
152.746	16.889	1252.650	944.212
153.760	16.713	1252.320	942.901
154.775	16.925	1250.727	942.796
155.789	17.006	1249.694	942.383
156.804	17.042	1248.218	941.385
157.819	17.038	1247.522	940.760
158.833	17.135	1247.004	940.823
159.848	17.276	1246.006	940.767
160.862	17.117	1245.224	939.214
161.877	16.963	1243.827	937.223
162.892	16.924	1242.766	936.126
163.906	16.865	1241.708	934.922
164.921	16.807	1241.140	934.089
165.935	16.922	1239.793	933.631
166.950	16.941	1239.468	933.407
167.964	17.006	1238.350	932.836
168.979	16.921	1238.190	932.170
169.994	16.959	1237.167	931.524
171.008	16.927	1236.172	930.519
172.023	17.035	1235.391	930.439
173.037	17.162	1234.755	930.571
174.052	17.127	1233.846	929.617
175.067	17.027	1231.997	927.592
176.081	16.995	1231.274	926.792
177.096	16.835	1230.690	925.394
178.110	16.990	1229.708	925.422
179.125	16.969	1228.278	924.147
180.140	16.965	1227.253	923.271
181.154	17.046	1225.887	922.605
182.169	17.177	1224.793	922.410
183.183	17.229	1223.594	921.708
184.198	17.302	1222.329	921.071
185.213	17.272	1221.222	919.993
186.227	17.359	1220.213	919.619
187.242	17.320	1219.586	918.854
188.256	17.319	1218.585	918.017
189.271	17.323	1217.809	917.374
190.286	17.280	1216.209	915.852
191.300	16.964	1215.177	913.296
192.315	16.779	1214.973	912.064
193.329	16.825	1214.360	911.767
194.344	16.932	1213.670	911.745
195.359	17.156	1212.905	912.297
196.373	17.301	1212.005	912.316
197.388	17.332	1212.022	912.415
198.402	17.392	1211.877	912.547
199.417	17.464	1211.570	912.622
200.432	17.608	1210.236	912.305
201.446	17.672	1209.398	911.938
202.461	17.727	1208.721	911.638
203.475	17.696	1207.800	910.696
204.490	17.557	1206.503	908.896
205.504	17.463	1204.970	907.158
206.519	17.285	1204.151	905.516
207.534	17.329	1203.095	904.875
208.548	17.489	1201.639	904.552
209.563	17.512	1201.076	904.171
210.577	17.414	1199.758	902.576
211.592	17.568	1199.505	903.123
212.607	17.619	1198.732	902.733
213.621	17.680	1198.155	902.538
214.636	17.555	1196.525	900.571
215.650	17.602	1195.832	900.221
216.665	17.595	1195.256	899.670
217.680	17.699	1194.025	899.212
218.694	17.813	1193.374	899.240
219.709	17.810	1192.346	898.373
220.723	17.874	1191.602	898.067
221.738	17.685	1191.068	896.594
222.753	17.772	1189.947	896.127
223.767	17.751	1189.800	895.829
224.782	17.912	1188.777	895.821
225.796	18.000	1188.336	895.872
226.811	17.894	1187.779	894.820
227.826	17.781	1187.105	893.638
228.840	17.778	1185.986	892.702
229.855	17.849	1185.427	892.572
230.869	17.819	1184.441	891.598
231.884	17.849	1183.258	890.780
232.899	17.733	1182.808	889.757
233.913	17.679	1182.236	888.966
234.928	17.540	1181.075	887.292
235.942	17.639	1180.352	887.184
236.957	17.625	1179.555	886.436
237.972	17.535	1179.051	885.513
238.986	17.737	1178.288	885.910
240.001	17.659	1177.315	884.694
241.015	17.710	1176.782	884.481
242.030	17.803	1175.790	884.137
243.045	17.743	1175.518	883.547
244.059	17.833	1174.389	883.085
245.074	17.874	1173.987	882.915
246.088	17.917	1172.795	882.165
247.103	18.052	1171.828	882.052
248.117	18.038	1171.683	881.796
249.132	18.279	1170.974	882.426
250.147	18.303	1170.633	882.213
251.161	18.448	1169.364	881.924
252.176	18.331	1169.437	881.300
253.190	18.482	1168.399	881.218
254.205	18.410	1168.165	880.594
255.220	18.541	1167.365	880.584
256.234	18.518	1166.524	879.755
257.249	18.449	1166.180	879.063
258.263	18.457	1165.315	878.374
259.278	18.462	1164.624	877.801
260.293	18.586	1164.070	877.939
261.307	18.685	1163.262	877.761
262.322	18.706	1162.846	877.477
263.336	18.657	1162.168	876.638
264.351	18.687	1161.198	875.978
265.366	18.622	1160.857	875.312
266.380	18.643	1160.048	874.732
267.395	18.601	1159.274	873.859
268.409	18.481	1158.391	872.503
269.424	18.440	1157.820	871.789
270.439	18.592	1156.972	871.848
271.453	18.472	1156.692	870.947
272.468	18.348	1155.223	869.136
273.482	18.440	1154.536	869.009
274.497	18.448	1154.138	868.672
275.512	18.477	1153.189	868.030
276.526	18.452	1152.861	867.579
277.541	18.457	1152.040	866.910
278.555	18.412	1151.213	865.982
279.570	18.679	1150.684	866.856
280.585	18.854	1149.815	867.005
281.599	18.846	1148.653	866.016
282.614	18.678	1147.646	864.332
283.628	18.645	1146.412	863.160
284.643	18.567	1145.690	862.147
285.657	18.596	1144.821	861.566
286.672	18.684	1143.785	861.148
287.687	18.706	1142.892	860.510
288.701	18.765	1142.583	860.498
289.716	18.711	1141.090	859.030
290.730	18.765	1140.587	858.845
291.745	18.744	1140.337	858.473
292.760	18.822	1139.536	858.187
293.774	18.829	1139.032	857.763
294.789	18.888	1138.493	857.577
295.803	18.961	1137.660	857.235
296.818	18.805	1136.873	855.792
297.833	18.732	1136.081	854.757
298.847	18.886	1134.927	854.577
299.862	18.789	1134.359	853.593
300.876	18.857	1133.610	853.289
301.891	18.983	1133.075	853.439
302.906	19.022	1132.504	853.124
303.920	19.070	1132.131	853.008
304.935	19.109	1131.309	852.506
305.949	19.212	1130.657	852.450
306.964	19.220	1129.958	851.888
307.979	19.172	1129.302	851.078
308.993	19.094	1128.133	849.737
310.008	19.185	1127.823	849.880
311.022	19.040	1127.087	848.532
312.037	19.265	1125.891	848.667
313.052	19.111	1125.156	847.278
314.066	19.039	1123.837	845.856
315.081	19.097	1123.022	845.451
316.095	18.893	1122.204	843.761
317.110	18.871	1121.705	843.204
318.125	18.934	1121.166	843.032
319.139	18.884	1120.540	842.242
320.154	18.984	1119.839	842.128
321.168	18.849	1119.162	840.884
322.183	19.019	1118.641	841.251
323.197	19.027	1117.817	840.597
324.212	19.040	1117.331	840.222
325.227	19.030	1117.071	839.904
326.241	19.148	1116.203	839.750
327.256	18.985	1115.601	838.427
328.270	19.132	1114.062	837.912
329.285	19.080	1113.085	836.852
330.300	19.048	1112.365	836.080
331.314	19.003	1111.648	835.249
332.329	19.135	1110.604	835.034
333.343	19.135	1109.617	834.215
334.358	19.193	1109.026	833.980
335.373	19.244	1108.518	833.771
336.387	19.334	1107.546	833.397
337.402	19.283	1106.923	832.612
338.416	19.326	1105.858	831.945
339.431	19.458	1105.219	832.027
340.446	19.432	1105.164	831.785
341.460	19.553	1104.206	831.571
342.475	19.533	1103.902	831.175
343.489	19.692	1102.621	830.903
344.504	19.726	1101.383	830.057
345.519	19.802	1100.848	829.944
346.533	19.721	1100.640	829.329
347.548	19.811	1099.696	828.973
348.562	19.787	1098.518	827.899
349.577	19.674	1097.876	826.799
350.592	19.541	1097.144	825.539
351.606	19.497	1096.242	824.575
352.621	19.395	1095.515	823.471
353.635	19.429	1095.037	823.201
354.650	19.427	1094.504	822.719
355.665	19.446	1093.417	821.919
356.679	19.442	1093.016	821.523
357.694	19.633	1092.660	822.093
358.708	19.577	1091.757	821.074
359.723	19.591	1091.595	820.946
360.738	19.713	1090.625	820.725
361.752	19.703	1089.566	819.809
362.767	19.754	1088.912	819.482
363.781	19.811	1088.298	819.218
364.796	19.778	1088.744	819.329
365.810	19.818	1087.872	818.787
366.825	19.960	1087.221	818.897
367.840	20.151	1086.276	819.016
368.854	20.269	1085.677	819.049
369.869	19.998	1085.397	817.485
370.883	20.021	1084.040	816.498
371.898	19.878	1083.723	815.516
372.913	19.928	1083.256	815.325
373.927	19.981	1082.771	815.139
374.942	20.050	1082.247	814.995
375.956	20.099	1081.594	814.661
376.971	20.047	1080.729	813.696
377.986	20.073	1080.246	813.379
379.000	20.204	1079.926	813.682
380.015	20.242	1079.287	813.309
381.029	20.347	1078.424	813.078
382.044	20.256	1078.338	812.513
383.059	20.296	1077.252	811.812
384.073	20.350	1076.227	811.218
385.088	20.282	1075.110	809.986
386.102	20.284	1074.459	809.434
387.117	20.172	1073.336	807.997
388.132	20.111	1072.397	806.932
389.146	20.041	1071.743	806.043
390.161	20.073	1070.966	805.538
391.175	20.106	1070.225	805.063
392.190	20.196	1069.494	804.859
393.205	20.358	1069.030	805.192
394.219	20.236	1068.246	803.961
395.234	20.230	1067.167	803.054
396.248	20.220	1065.770	801.884
397.263	20.209	1065.194	801.327
398.278	20.048	1064.745	800.178
399.292	20.023	1064.264	799.627
400.307	19.913	1063.312	798.335
401.321	20.173	1062.163	798.601
402.336	20.003	1061.867	797.524
403.350	20.103	1061.041	797.294
404.365	20.034	1060.543	796.529
405.380	20.147	1059.761	796.391
406.394	20.128	1059.448	796.000
407.409	20.447	1057.954	796.268
408.423	20.447	1057.438	795.810
409.438	20.527	1056.819	795.641
410.453	20.587	1056.415	795.541
411.467	20.606	1055.759	795.062
412.482	20.524	1054.969	794.022
413.496	20.693	1054.362	794.268
414.511	20.751	1054.069	794.240
415.526	20.837	1053.387	794.049
416.540	20.819	1053.256	793.795
417.555	20.794	1052.510	793.050
418.569	20.855	1051.869	792.777
419.584	20.774	1051.316	791.918
420.599	20.675	1050.940	791.117
421.613	155.338	1404.692	1797.666
422.628	142.466	1456.198	1797.766
