DTS Sentinel unit serial number:	SN413079Multiplexer serial number:	ORYXHardware model number:	OX4-SRSoftware version number:	ORYX F/W v4.00 Oryx Data Collector v3.7.2.0data status	okinstallation	princeton_trtdifferential loss correction	single-endedforward channel	channel 2reverse channel	N/Adate	2019/09/17time	00:59:35forward acquisition time	60.00reverse acquisition time	0.00gamma	496.2192k internal	0.2328k external	0.2328temperature offset calibration	0.9978default loss term (dB/km)	0.3790temperature slope calibration	1.0000multiplexer offset coefficient	1.0000multiplexer slope coefficient	1.0000fibre end	0.00T internal ref (°C)	29.44T ext. ref 1 (°C)	0.11T ext. ref 2 (°C)	24.11length (m)	temperature (°C)	Stokes	anti-Stokes-747.200	-93.607	-0.321	0.089
-746.185	-50.935	0.090	-0.043
-745.171	-125.911	-0.324	0.049
-744.156	345.414	0.062	0.122
-743.142	310.885	0.196	-0.370
-742.127	-61.888	-0.233	0.098
-741.112	-200.000	-0.011	0.132
-740.098	46.849	0.200	0.187
-739.083	-164.159	-0.185	-0.009
-738.069	-200.000	-0.029	0.233
-737.054	-58.636	0.253	-0.110
-736.039	-135.950	-0.087	0.010
-735.025	76.653	0.222	-0.238
-734.010	-200.000	0.019	-0.148
-732.996	800.000	-0.019	-0.082
-731.981	-49.253	-0.212	-0.102
-730.966	-12.431	-0.278	0.183
-729.952	-146.585	-0.275	0.024
-728.937	-102.985	-0.275	0.066
-727.923	297.390	0.058	-0.108
-726.908	15.502	-0.382	-0.302
-725.894	-200.000	-0.033	-0.215
-724.879	-139.270	0.378	0.041
-723.864	-137.175	-0.095	-0.011
-722.850	8.878	0.055	0.042
-721.835	-31.383	-0.341	0.193
-720.821	-200.000	-0.020	-0.166
-719.806	250.877	-0.147	-0.252
-718.791	-106.702	-0.468	0.105
-717.777	-123.166	-0.256	-0.041
-716.762	-57.238	0.227	-0.101
-715.748	-100.320	0.190	-0.047
-714.733	763.993	0.055	0.149
-713.718	-15.164	0.134	0.087
-712.704	-69.435	0.132	0.051
-711.689	76.840	-0.215	0.230
-710.675	800.000	-0.159	-0.496
-709.660	-45.466	-0.115	-0.057
-708.645	800.000	-0.059	-0.173
-707.631	-200.000	0.038	-0.213
-706.616	-94.529	0.142	0.039
-705.602	-47.668	-0.272	0.133
-704.587	-200.000	0.038	0.184
-703.572	-200.000	-0.045	0.426
-702.558	90.328	-0.106	0.120
-701.543	-173.335	0.340	0.010
-700.529	155.447	0.107	-0.148
-699.514	122.678	-0.064	-0.081
-698.499	-163.701	-0.160	0.008
-697.485	-148.844	-0.522	-0.042
-696.470	79.248	-0.190	0.205
-695.456	-107.742	-0.342	0.075
-694.441	-108.042	-0.129	-0.028
-693.426	-5.197	-0.072	0.050
-692.412	121.137	0.282	0.353
-691.397	14.729	-0.116	0.091
-690.383	217.374	-0.172	0.275
-689.368	88.851	0.251	-0.281
-688.354	800.000	-0.075	0.234
-687.339	140.593	0.247	0.327
-686.324	-58.800	-0.083	-0.036
-685.310	-60.764	0.150	-0.064
-684.295	-133.964	0.235	0.029
-683.281	-31.153	-0.096	-0.054
-682.266	-200.000	-0.024	-0.273
-681.251	-200.000	-0.033	0.194
-680.237	-200.000	0.144	0.671
-679.222	-39.586	0.172	-0.090
-678.208	-124.310	-0.451	-0.071
-677.193	-73.452	-0.335	0.123
-676.178	409.969	0.075	0.160
-675.164	265.049	-0.049	0.086
-674.149	-141.085	-0.303	-0.031
-673.135	-46.728	0.198	-0.098
-672.120	67.946	0.151	0.155
-671.105	259.508	0.029	0.051
-670.091	48.033	0.121	-0.114
-669.076	-80.285	-0.058	-0.020
-668.062	184.401	0.014	0.020
-667.047	-42.664	-0.324	-0.166
-666.032	-200.000	0.003	0.139
-665.018	-67.981	-0.353	0.139
-664.003	46.463	0.167	-0.155
-662.989	800.000	-0.105	0.368
-661.974	-64.268	-0.322	-0.132
-660.959	-160.637	0.205	0.011
-659.945	-104.621	0.159	0.037
-658.930	31.809	-0.397	-0.343
-657.916	-156.586	0.338	-0.021
-656.901	204.409	0.157	0.244
-655.886	104.212	-0.150	-0.177
-654.872	1.500	0.111	-0.080
-653.857	234.188	-0.078	0.128
-652.843	-68.744	0.133	-0.052
-651.828	-53.181	-0.301	0.139
-650.814	-31.287	-0.106	-0.060
-649.799	30.738	0.250	-0.215
-648.784	84.318	0.178	0.196
-647.770	-200.000	0.005	-0.098
-646.755	-200.000	0.013	-0.087
-645.741	800.000	0.016	0.054
-644.726	-56.112	0.008	-0.003
-643.711	-42.143	0.136	0.070
-642.697	-97.467	-0.429	-0.112
-641.682	23.066	-0.004	0.003
-640.668	-94.332	-0.420	-0.115
-639.653	17.743	-0.103	-0.083
-638.638	-135.054	0.333	-0.040
-637.624	506.974	0.067	-0.156
-636.609	-88.410	-0.155	0.046
-635.595	-10.517	0.196	-0.130
-634.580	14.396	-0.329	-0.257
-633.565	33.902	-0.110	-0.097
-632.551	647.920	-0.058	-0.149
-631.536	-40.227	-0.251	0.131
-630.522	193.842	-0.128	-0.194
-629.507	131.319	-0.068	-0.087
-628.492	-60.275	0.197	0.084
-627.478	-200.000	0.034	-0.178
-626.463	-200.000	0.022	0.271
-625.449	-75.727	-0.111	-0.040
-624.434	161.352	0.099	0.139
-623.419	584.173	-0.118	0.290
-622.405	-56.862	-0.218	0.097
-621.390	567.110	0.208	0.507
-620.376	184.527	0.039	0.057
-619.361	-35.189	0.230	-0.125
-618.346	458.493	-0.137	-0.305
-617.332	-180.853	-0.256	-0.005
-616.317	-157.967	0.211	-0.012
-615.303	-200.000	-0.014	0.081
-614.288	107.559	-0.201	-0.239
-613.273	-101.620	-0.125	-0.030
-612.259	-200.000	-0.010	-0.129
-611.244	-200.000	-0.033	0.336
-610.230	68.236	0.174	0.179
-609.215	-102.490	0.199	0.048
-608.201	22.498	0.204	-0.167
-607.186	662.596	0.144	-0.371
-606.171	-80.055	0.258	-0.087
-605.157	-31.903	0.272	0.153
-604.142	-97.071	0.231	-0.060
-603.128	-153.563	-0.231	0.016
-602.113	73.036	-0.318	-0.333
-601.098	-61.910	0.177	-0.074
-600.084	-99.060	0.422	-0.107
-599.069	800.000	-0.113	-0.361
-598.055	800.000	-0.140	-0.522
-597.040	-200.000	-0.003	-0.083
-596.025	343.985	-0.043	-0.085
-595.011	267.160	0.111	-0.194
-593.996	557.524	0.067	-0.161
-592.982	-81.543	0.194	-0.064
-591.967	219.054	0.227	0.364
-590.952	757.800	0.081	0.220
-589.938	-33.031	0.243	-0.135
-588.923	-39.501	0.259	0.136
-587.909	40.830	0.167	-0.151
-586.894	800.000	0.051	-0.221
-585.879	-47.460	0.208	0.101
-584.865	-200.000	0.022	-0.101
-583.850	296.688	0.110	0.201
-582.836	268.490	-0.066	-0.117
-581.821	-30.032	0.027	-0.015
-580.806	-200.000	0.039	0.270
-579.792	115.690	0.179	0.220
-578.777	-24.915	-0.040	-0.024
-577.763	-94.303	-0.376	-0.103
-576.748	83.533	0.193	-0.210
-575.733	-69.857	-0.153	-0.058
-574.719	625.675	0.075	-0.190
-573.704	-76.685	0.217	0.076
-572.690	-200.000	0.033	0.205
-571.675	-47.989	-0.300	0.145
-570.661	800.000	-0.038	0.156
-569.646	184.802	0.137	-0.203
-568.631	141.544	0.144	-0.191
-567.617	800.000	-0.051	0.151
-566.602	-200.000	0.043	-0.195
-565.588	130.645	0.095	-0.121
-564.573	228.462	-0.041	-0.067
-563.558	-130.076	0.173	0.024
-562.544	-117.028	-0.251	0.046
-561.529	-6.979	-0.243	-0.165
-560.515	216.523	-0.141	0.224
-559.500	4.869	-0.073	-0.054
-558.485	800.000	-0.090	-0.326
-557.471	651.229	0.043	0.111
-556.456	140.867	0.121	-0.160
-555.442	-48.984	0.348	-0.167
-554.427	-41.640	-0.272	-0.140
-553.412	-83.414	-0.393	0.126
-552.398	-200.000	-0.078	0.489
-551.383	-23.423	0.260	-0.156
-550.369	-200.000	0.035	0.157
-549.354	238.420	0.191	-0.318
-548.339	-170.926	-0.196	0.007
-547.325	-133.942	-0.213	0.026
-546.310	285.915	-0.076	-0.137
-545.296	-26.357	0.017	-0.010
-544.281	-200.000	-0.002	0.121
-543.266	98.303	-0.158	0.182
-542.252	-102.986	0.311	-0.074
-541.237	-24.495	-0.156	-0.093
-540.223	-121.626	-0.131	0.022
-539.208	800.000	0.027	0.094
-538.193	-59.509	-0.099	0.042
-537.179	-148.849	-0.158	0.013
-536.164	121.847	0.043	0.053
-535.150	498.847	-0.134	0.309
-534.135	-200.000	-0.065	0.457
-533.121	87.695	-0.199	0.221
-532.106	-158.826	0.096	-0.005
-531.091	-154.538	-0.194	-0.013
-530.077	81.949	-0.158	0.171
-529.062	-156.338	0.285	-0.018
-528.048	131.736	-0.062	-0.079
-527.033	758.531	0.158	-0.427
-526.018	-73.299	-0.392	-0.143
-525.004	-94.689	0.301	0.082
-523.989	81.188	-0.094	-0.101
-522.975	800.000	-0.027	-0.109
-521.960	800.000	-0.041	-0.175
-520.945	-65.187	-0.115	-0.046
-519.931	800.000	0.022	-0.078
-518.916	-149.592	-0.341	-0.027
-517.902	70.806	-0.173	-0.179
-516.887	-130.008	0.111	0.015
-515.872	53.686	-0.199	-0.190
-514.858	-123.058	0.403	-0.065
-513.843	-200.000	-0.068	0.321
-512.829	-200.000	0.052	-0.229
-511.814	306.968	-0.074	-0.137
-510.799	140.821	-0.258	-0.341
-509.785	-200.000	-0.015	-0.250
-508.770	-115.151	0.271	0.051
-507.756	800.000	-0.081	-0.257
-506.741	-2.932	-0.107	0.075
-505.726	-196.934	0.320	-0.002
-504.712	-26.128	-0.184	0.108
-503.697	241.895	-0.106	-0.178
-502.683	-200.000	0.014	0.289
-501.668	-28.450	0.343	-0.197
-500.653	-155.151	0.100	0.007
-499.639	523.943	0.125	0.292
-498.624	62.706	-0.170	0.170
-497.610	-161.347	0.121	0.006
-496.595	378.374	-0.080	0.163
-495.581	109.378	-0.074	0.088
-494.566	-78.602	0.082	0.028
-493.551	-115.002	-0.446	0.085
-492.537	-200.000	-0.050	-0.256
-491.522	20.237	0.102	0.082
-490.508	52.580	-0.183	-0.174
-489.493	-200.000	-0.047	-0.288
-488.478	-33.068	-0.408	-0.226
-487.464	102.578	0.176	0.205
-486.449	-91.638	-0.154	-0.044
-485.435	-84.058	0.155	-0.049
-484.420	36.198	0.288	0.253
-483.405	-99.759	0.343	0.086
-482.391	800.000	-0.041	-0.143
-481.376	721.815	0.106	-0.282
-480.362	-110.551	0.045	-0.009
-479.347	-200.000	0.027	0.210
-478.332	-122.565	-0.378	-0.061
-477.318	-112.203	0.231	-0.046
-476.303	800.000	-0.036	0.109
-475.289	147.701	-0.173	-0.232
-474.274	171.266	-0.201	-0.287
-473.259	226.237	0.126	0.204
-472.245	800.000	0.013	0.037
-471.230	-90.661	0.221	-0.064
-470.216	2.057	0.184	0.132
-469.201	-144.801	0.078	0.007
-468.186	32.611	-0.032	-0.028
-467.172	-158.982	0.244	0.014
-466.157	409.774	0.094	-0.198
-465.143	-28.359	-0.252	0.145
-464.128	29.290	0.058	0.049
-463.113	-200.000	-0.052	0.365
-462.099	10.528	0.033	0.025
-461.084	-200.000	-0.009	0.077
-460.070	109.647	-0.147	-0.175
-459.055	-99.209	-0.117	-0.029
-458.040	-200.000	-0.035	-0.242
-457.026	-58.005	0.205	-0.089
-456.011	800.000	-0.062	0.184
-454.997	42.692	0.094	0.085
-453.982	40.871	0.126	-0.113
-452.968	-87.636	-0.218	0.066
-451.953	800.000	-0.037	0.116
-450.938	563.362	0.047	-0.113
-449.924	211.175	-0.145	0.227
-448.909	-65.534	-0.303	-0.121
-447.895	142.917	0.196	-0.260
-446.880	-119.047	-0.122	-0.021
-445.865	99.133	-0.072	0.083
-444.851	-113.088	-0.226	0.044
-443.836	-200.000	-0.095	0.000
-442.822	-50.485	0.019	-0.009
-441.807	17.007	-0.164	0.129
-440.792	-200.000	-0.012	-0.058
-439.778	-200.000	0.346	-0.001
-438.763	-19.367	0.150	-0.093
-437.749	-200.000	0.057	0.271
-436.734	-161.570	-0.253	-0.013
-435.719	554.579	0.067	-0.160
-434.705	-107.629	-0.263	-0.057
-433.690	12.107	-0.128	0.098
-432.676	-195.217	0.040	-0.000
-431.661	-15.351	0.178	-0.113
-430.646	33.848	0.344	-0.298
-429.632	436.106	-0.073	-0.158
-428.617	-133.974	-0.240	0.030
-427.603	-103.308	0.242	0.057
-426.588	204.360	-0.088	-0.135
-425.573	-26.246	0.138	-0.080
-424.559	800.000	0.059	-0.196
-423.544	-15.353	0.236	-0.150
-422.530	606.328	0.072	0.179
-421.515	800.000	0.050	0.161
-420.500	237.235	0.063	-0.103
-419.486	286.814	-0.100	0.180
-418.471	769.846	0.064	-0.173
-417.457	-131.111	-0.183	-0.024
-416.442	28.786	0.127	-0.107
-415.428	4.910	-0.205	0.150
-414.413	800.000	0.041	0.129
-413.398	-22.300	-0.174	0.105
-412.384	-133.658	-0.211	0.026
-411.369	-114.928	0.181	-0.034
-410.355	-200.000	-0.030	-0.375
-409.340	-5.637	0.190	-0.129
-408.325	-15.573	0.313	0.199
-407.311	162.196	0.183	0.254
-406.296	-9.264	0.149	-0.099
-405.282	322.473	-0.074	0.140
-404.267	-200.000	0.005	0.212
-403.252	139.428	0.164	0.215
-402.238	42.710	-0.024	-0.022
-401.223	-46.192	0.228	0.112
-400.209	-50.485	-0.257	-0.121
-399.194	-200.000	-0.001	0.419
-398.179	219.892	-0.090	-0.143
-397.165	43.519	0.208	-0.189
-396.150	-200.000	-0.003	-0.256
-395.136	-200.000	-0.009	-0.422
-394.121	590.306	-0.017	-0.042
-393.106	-200.000	0.005	0.046
-392.092	674.944	0.056	0.144
-391.077	-143.192	0.315	-0.030
-390.063	205.490	0.167	0.257
-389.048	-200.000	0.001	-0.025
-388.033	-151.731	0.343	-0.025
-387.019	-135.677	-0.070	0.008
-386.004	-119.473	-0.349	0.060
-384.990	122.458	0.082	0.102
-383.975	250.262	0.133	0.225
-382.960	-44.160	-0.323	0.161
-381.946	-200.000	0.001	0.078
-380.931	625.582	0.046	-0.115
-379.917	-137.777	-0.225	0.025
-378.902	-150.670	-0.036	-0.003
-377.888	800.000	-0.059	-0.233
-376.873	-157.263	-0.119	-0.007
-375.858	-74.944	0.202	0.072
-374.844	-71.491	0.342	0.127
-373.829	-126.439	0.266	0.039
-372.815	565.020	0.145	0.350
-371.800	22.520	0.179	0.145
-370.785	800.000	-0.088	-0.286
-369.771	14.034	-0.173	-0.134
-368.756	23.206	0.083	-0.067
-367.742	642.984	-0.184	0.465
-366.727	166.567	-0.184	-0.259
-365.712	800.000	0.069	0.196
-364.698	-200.000	0.025	0.180
-363.683	65.188	0.183	0.183
-362.669	800.000	-0.080	-0.311
-361.654	800.000	-0.090	-0.379
-360.639	-189.432	0.130	-0.002
-359.625	122.956	0.268	-0.333
-358.610	-124.491	-0.238	-0.037
-357.596	521.011	-0.009	0.020
-356.581	800.000	0.087	-0.261
-355.566	-28.004	0.122	-0.070
-354.552	476.311	0.150	0.337
-353.537	-200.000	-0.064	0.311
-352.523	-104.051	-0.184	0.043
-351.508	443.350	0.069	0.150
-350.493	-88.256	-0.188	-0.056
-349.479	-4.682	-0.152	0.104
-348.464	-76.643	0.135	0.047
-347.450	-86.784	-0.374	-0.113
-346.435	209.642	-0.135	-0.210
-345.420	-84.293	-0.379	0.119
-344.406	-200.000	-0.046	0.642
-343.391	-200.000	0.020	0.147
-342.377	-9.864	-0.263	-0.174
-341.362	-66.016	-0.033	-0.013
-340.348	800.000	-0.082	0.244
-339.333	83.261	-0.172	0.186
-338.318	-200.000	-0.015	0.201
-337.304	128.297	0.115	0.145
-336.289	43.370	-0.120	-0.109
-335.275	115.231	-0.036	0.044
-334.260	-7.808	0.188	-0.126
-333.245	94.822	0.034	0.038
-332.231	310.306	0.079	-0.146
-331.216	53.312	0.148	-0.141
-330.202	-127.007	0.176	-0.026
-329.187	-168.121	-0.069	-0.003
-328.172	31.089	0.144	0.122
-327.158	-200.000	0.019	0.168
-326.143	-71.386	-0.354	0.131
-325.129	-34.494	-0.186	0.101
-324.114	0.970	0.254	0.180
-323.099	-148.357	0.170	0.014
-322.085	49.851	-0.277	-0.258
-321.070	800.000	0.056	-0.170
-320.056	39.201	-0.211	0.187
-319.041	55.447	0.195	0.187
-318.026	542.112	-0.068	0.160
-317.012	-16.646	-0.149	-0.094
-315.997	-36.338	-0.281	-0.150
-314.983	625.358	-0.027	-0.067
-313.968	-200.000	-0.011	-0.150
-312.953	800.000	0.016	-0.064
-311.939	73.792	0.043	0.045
-310.924	-200.000	-0.016	0.304
-309.910	-200.000	0.051	0.313
-308.895	-200.000	0.026	0.160
-307.880	-180.155	0.235	-0.005
-306.866	171.286	-0.276	-0.392
-305.851	178.336	0.152	-0.220
-304.837	-23.472	0.446	-0.265
-303.822	47.589	-0.437	0.403
-302.807	-75.767	0.073	-0.026
-301.793	-13.469	0.206	0.132
-300.778	-73.126	-0.171	0.062
-299.764	-93.324	-0.209	-0.057
-298.749	-200.000	0.030	-0.198
-297.735	800.000	0.098	0.311
-296.720	242.086	-0.062	0.103
-295.705	115.569	0.162	-0.196
-294.691	52.656	0.189	0.178
-293.676	49.831	-0.277	0.258
-292.662	37.479	0.157	-0.137
-291.647	-140.592	-0.108	0.011
-290.632	-200.000	0.021	0.120
-289.618	34.140	0.208	0.179
-288.603	712.587	-0.083	-0.219
-287.589	-30.058	-0.170	-0.096
-286.574	-80.061	-0.185	-0.061
-285.559	-200.000	0.033	-0.207
-284.545	-200.000	-0.038	-0.405
-283.530	-46.593	-0.432	0.210
-282.516	12.360	-0.225	0.172
-281.501	199.490	0.133	-0.201
-280.486	-69.320	0.186	-0.071
-279.472	-121.369	0.048	0.008
-278.457	-173.704	-0.231	-0.007
-277.443	85.959	-0.177	-0.193
-276.428	-200.000	-0.001	0.117
-275.413	44.242	-0.086	-0.078
-274.399	-18.450	-0.181	0.112
-273.384	-200.000	-0.036	-0.167
-272.370	54.728	-0.082	-0.078
-271.355	27.025	-0.271	0.225
-270.340	-58.426	-0.358	0.154
-269.326	296.041	-0.149	0.270
-268.311	-200.000	-0.012	-0.128
-267.297	-200.000	-0.004	0.156
-266.282	-127.961	0.258	-0.037
-265.267	800.000	0.024	0.069
-264.253	-200.000	0.058	-0.328
-263.238	800.000	-0.018	0.053
-262.224	-65.124	0.337	-0.135
-261.209	595.195	0.052	-0.127
-260.195	-35.879	-0.406	-0.217
-259.180	-96.968	-0.294	0.076
-258.165	592.777	0.083	0.203
-257.151	-75.535	-0.255	0.090
-256.136	-200.000	-0.003	0.405
-255.122	-79.791	0.269	-0.090
-254.107	-81.626	0.226	0.073
-253.092	-200.000	-0.026	-0.292
-252.078	78.546	-0.168	0.177
-251.063	-1.553	0.274	0.191
-250.049	-200.000	-0.022	0.113
-249.034	232.783	-0.075	0.122
-248.019	-9.386	0.243	0.161
-247.005	-200.000	-0.032	-0.218
-245.990	105.825	0.140	-0.164
-244.976	-200.000	0.028	-0.229
-243.961	800.000	0.063	0.176
-242.946	-9.956	0.268	-0.176
-241.932	-111.512	0.222	0.045
-240.917	240.024	0.081	0.134
-239.903	116.796	0.165	-0.200
-238.888	-130.837	0.375	-0.050
-237.873	-200.000	-0.018	0.219
-236.859	800.000	-0.067	0.249
-235.844	-200.000	-0.062	0.267
-234.830	-200.000	0.069	-0.351
-233.815	-132.920	0.237	-0.030
-232.800	-200.000	0.027	0.178
-231.786	-69.551	-0.197	0.075
-230.771	463.730	-0.055	0.121
-229.757	-200.000	-0.059	-0.262
-228.742	-200.000	0.003	0.046
-227.727	800.000	-0.011	0.030
-226.713	786.471	0.054	0.147
-225.698	800.000	-0.032	0.136
-224.684	312.389	0.193	0.359
-223.669	-200.000	-0.012	0.299
-222.655	-128.899	0.110	0.015
-221.640	188.794	-0.112	0.165
-220.625	-104.134	-0.111	0.025
-219.611	104.319	0.169	0.197
-218.596	394.599	0.137	-0.282
-217.582	81.733	-0.258	-0.276
-216.567	-200.000	0.005	-0.102
-215.552	1.289	0.270	0.192
-214.538	-85.935	0.149	0.045
-213.523	-88.122	-0.221	-0.065
-212.509	-151.727	0.210	0.015
-211.494	-99.450	-0.264	-0.066
-210.479	-200.000	-0.006	0.203
-209.465	-200.000	-0.001	0.109
-208.450	80.262	-0.059	0.063
-207.436	268.137	0.071	-0.122
-206.421	55.082	0.104	0.099
-205.406	753.452	-0.137	-0.365
-204.392	-86.022	0.066	0.020
-203.377	47.145	0.016	0.015
-202.363	9.870	-0.279	-0.209
-201.348	-126.756	-0.417	-0.061
-200.333	208.956	0.342	-0.528
-199.319	-43.551	0.191	-0.095
-198.304	84.615	0.057	-0.061
-197.290	-124.764	-0.200	-0.030
-196.275	471.919	-0.043	0.096
-195.260	197.376	-0.060	0.090
-194.246	-102.126	-0.306	0.073
-193.231	-200.000	0.001	-0.049
-192.217	-31.334	-0.083	0.046
-191.202	133.959	0.272	0.347
-190.187	173.415	0.037	-0.053
-189.173	358.941	-0.033	0.065
-188.158	-200.000	-0.030	-0.224
-187.144	-200.000	0.002	0.150
-186.129	166.859	0.068	-0.095
-185.114	-133.094	-0.121	0.015
-184.100	61.892	0.123	0.121
-183.085	219.821	0.124	0.195
-182.071	60.848	0.171	0.167
-181.056	258.779	-0.262	-0.446
-180.042	614.674	-0.051	-0.127
-179.027	-84.423	-0.250	0.078
-178.012	40.476	-0.109	0.096
-176.998	800.000	0.107	0.364
-175.983	-89.929	0.199	-0.057
-174.969	-200.000	0.007	0.227
-173.954	-100.957	0.061	0.015
-172.939	153.872	-0.131	0.177
-171.925	85.183	0.096	-0.104
-170.910	239.933	0.143	-0.235
-169.896	800.000	0.029	0.106
-168.881	142.255	-0.150	0.196
-167.866	24.041	0.298	0.242
-166.852	121.061	-0.160	-0.196
-165.837	331.858	-0.264	0.502
-164.823	-125.454	0.318	-0.048
-163.808	-115.868	-0.115	-0.021
-162.793	244.861	0.186	0.307
-161.779	62.086	0.130	-0.127
-160.764	-53.567	-0.164	0.074
-159.750	-21.945	-0.128	-0.077
-158.735	-138.253	0.287	0.031
-157.720	-20.488	0.196	-0.119
-156.706	800.000	0.081	-0.329
-155.691	-200.000	-0.033	-0.168
-154.677	-103.593	0.019	0.004
-153.662	59.493	-0.259	0.252
-152.647	800.000	0.126	-0.372
-151.633	128.202	-0.184	0.230
-150.618	-101.280	-0.171	-0.041
-149.604	219.840	0.063	-0.100
-148.589	-42.013	0.190	0.096
-147.574	-200.000	0.004	0.056
-146.560	-101.333	-0.065	-0.016
-145.545	-150.988	-0.118	-0.009
-144.531	-101.734	0.420	0.100
-143.516	-200.000	-0.026	0.246
-142.502	-200.000	0.001	0.231
-141.487	800.000	0.044	-0.134
-140.472	-200.000	-0.017	-0.097
-139.458	231.718	-0.154	0.248
-138.443	-130.909	0.239	0.031
-137.429	93.102	0.054	0.061
-136.414	-200.000	-0.010	0.181
-135.399	197.084	-0.045	-0.068
-134.385	-158.868	0.283	0.016
-133.370	25.139	-0.296	-0.242
-132.356	-13.750	0.212	0.135
-131.341	-37.144	0.241	0.127
-130.326	-126.312	0.044	-0.007
-129.312	-200.000	-0.007	0.172
-128.297	-87.809	0.176	-0.052
-127.283	-200.000	-0.007	-0.103
-126.268	87.919	-0.123	-0.134
-125.253	218.669	0.166	-0.261
-124.239	24.497	0.209	0.170
-123.224	-93.531	0.072	-0.020
-122.210	-57.783	0.152	-0.065
-121.195	-151.865	-0.410	0.030
-120.180	1.397	-0.084	-0.060
-119.166	84.547	0.157	-0.169
-118.151	-52.967	0.257	0.116
-117.137	800.000	-0.066	0.216
-116.122	8.676	0.229	0.170
-115.107	-30.456	0.196	0.109
-114.093	6.870	-0.212	0.155
-113.078	89.540	0.123	0.135
-112.064	191.025	-0.349	0.516
-111.049	-161.708	-0.279	-0.014
-110.034	342.159	-0.101	-0.194
-109.020	52.241	0.027	-0.026
-108.005	99.475	0.043	-0.048
-106.991	295.947	0.058	-0.104
-105.976	-167.849	0.077	0.003
-104.962	-200.000	0.012	-0.131
-103.947	52.140	0.294	-0.276
-102.932	-186.415	0.093	0.001
-101.918	734.689	0.067	-0.176
-100.903	71.290	0.255	0.260
-99.889	105.636	0.203	0.236
-98.874	89.757	0.082	-0.090
-97.859	303.826	-0.067	0.122
-96.845	-48.283	-0.259	0.123
-95.830	-88.623	-0.225	0.066
-94.816	800.000	0.051	-0.219
-93.801	-59.209	-0.118	0.050
-92.786	57.217	-0.093	-0.089
-91.772	-1.563	-0.101	0.070
-90.757	-200.000	-0.032	0.157
-89.743	27.734	0.220	-0.182
-88.728	43.715	0.065	-0.059
-87.713	67.678	0.100	-0.101
-86.699	7.956	0.103	-0.076
-85.684	-135.501	-0.325	0.038
-84.670	-188.226	-0.213	0.003
-83.655	117.364	-0.150	0.181
-82.640	-3.774	0.095	-0.064
-81.626	800.000	-0.013	0.035
-80.611	107.041	-0.150	-0.175
-79.597	-31.816	-0.169	-0.093
-78.582	-200.000	-0.003	0.115
-77.567	159.001	0.203	0.277
-76.553	171.075	0.219	0.309
-75.538	-3.517	-0.164	-0.112
-74.524	87.289	-0.157	0.171
-73.509	-16.177	-0.241	0.150
-72.494	125.768	-0.157	-0.194
-71.480	-111.427	-0.139	-0.028
-70.465	-130.577	0.211	-0.028
-69.451	800.000	0.029	-0.082
-68.436	-2.557	-0.050	-0.035
-67.422	-125.823	0.190	-0.028
-66.407	-55.922	-0.208	-0.091
-65.392	308.791	0.068	0.124
-64.378	-35.987	0.124	0.066
-63.363	-41.512	0.324	-0.163
-62.349	-86.023	0.233	0.071
-61.334	68.623	-0.901	-0.907
-60.319	344.076	0.406	0.781
-59.305	-200.000	0.033	-1.236
-58.290	800.000	0.476	1.334
-57.276	425.468	0.796	1.682
-56.261	-200.000	108.856	592.995
-55.246	444.871	1487.051	3201.834
-54.232	145.595	2677.274	3517.552
-53.217	99.624	2288.402	2597.741
-52.203	38.437	1898.357	1659.205
-51.188	32.639	1687.668	1431.124
-50.173	30.052	1644.356	1375.164
-49.159	49.485	1698.127	1567.195
-48.144	49.484	1713.283	1581.115
-47.130	32.160	1671.030	1413.187
-46.115	29.536	1656.490	1381.233
-45.100	29.394	1651.232	1375.741
-44.086	29.323	1649.173	1373.436
-43.071	29.301	1646.289	1370.818
-42.057	29.320	1643.514	1368.594
-41.042	29.318	1641.321	1366.697
-40.027	29.264	1639.980	1365.129
-39.013	29.236	1638.014	1363.230
-37.998	29.307	1636.196	1362.187
-36.984	29.278	1634.897	1360.842
-35.969	29.324	1633.805	1360.213
-34.954	29.480	1631.687	1359.548
-33.940	29.400	1630.633	1358.029
-32.925	29.490	1628.162	1356.575
-31.911	29.434	1627.029	1355.165
-30.896	29.487	1625.021	1353.831
-29.881	29.469	1623.378	1352.275
-28.867	29.400	1621.730	1350.347
-27.852	29.431	1620.655	1349.621
-26.838	29.353	1619.238	1347.821
-25.823	29.414	1617.566	1346.821
-24.809	29.491	1616.171	1346.166
-23.794	29.515	1614.878	1345.210
-22.779	29.486	1613.302	1343.636
-21.765	29.342	1611.574	1341.090
-20.750	29.413	1610.081	1340.313
-19.736	29.434	1609.163	1339.649
-18.721	29.588	1606.902	1338.832
-17.706	29.557	1605.387	1337.287
-16.692	29.533	1604.031	1335.930
-15.677	29.464	1602.639	1334.221
-14.663	29.495	1601.309	1333.283
-13.648	29.556	1599.856	1332.462
-12.633	29.457	1598.364	1330.457
-11.619	29.430	1596.870	1328.960
-10.604	29.493	1595.225	1327.997
-9.590	29.534	1594.519	1327.647
-8.575	29.475	1593.425	1326.259
-7.560	29.433	1592.109	1324.808
-6.546	29.480	1590.814	1324.017
-5.531	29.433	1589.645	1322.653
-4.517	29.445	1588.220	1321.502
-3.502	29.475	1587.119	1320.753
-2.487	29.585	1585.204	1319.889
-1.473	29.302	1573.716	1308.268
-0.458	26.485	1555.393	1273.191
0.556	21.446	1556.739	1243.357
1.571	19.286	1580.217	1246.391
2.586	18.959	1593.061	1254.027
3.600	17.369	1539.927	1200.877
4.615	9.605	1430.486	1064.327
5.629	1.787	1366.148	966.891
6.644	0.200	1357.565	950.722
7.659	0.076	1356.616	949.191
8.673	0.074	1355.209	948.105
9.688	0.090	1353.162	946.689
10.702	-0.025	1350.267	943.860
11.717	3.588	1356.637	970.990
12.731	12.246	1369.136	1034.624
13.746	17.386	1376.315	1072.449
14.761	17.248	1375.238	1070.642
15.775	16.143	1372.477	1061.450
16.790	15.323	1369.416	1053.838
17.804	14.489	1367.437	1046.983
18.819	14.055	1366.626	1043.548
19.834	13.877	1365.041	1041.128
20.848	13.539	1363.847	1038.010
21.863	13.334	1362.404	1035.535
22.877	13.200	1360.943	1033.492
23.892	13.140	1360.323	1032.558
24.907	13.196	1359.211	1031.969
25.921	13.251	1358.047	1031.341
26.936	13.235	1357.284	1030.567
27.950	13.238	1356.599	1029.976
28.965	13.336	1355.865	1029.939
29.980	13.401	1354.496	1029.214
30.994	13.382	1353.650	1028.358
32.009	13.493	1353.004	1028.466
33.023	13.476	1351.782	1027.344
34.038	13.416	1350.850	1026.173
35.053	13.396	1349.280	1024.763
36.067	13.367	1348.360	1023.793
37.082	13.401	1347.663	1023.388
38.096	13.345	1346.810	1022.299
39.111	13.368	1346.177	1021.869
40.126	13.280	1344.818	1020.205
41.140	13.261	1344.215	1019.541
42.155	13.113	1343.624	1018.089
43.169	13.151	1343.731	1018.316
44.184	13.234	1343.211	1018.344
45.199	13.156	1343.061	1017.657
46.213	13.175	1342.629	1017.359
47.228	13.270	1341.747	1017.185
48.242	13.247	1340.577	1016.068
49.257	13.288	1338.813	1014.889
50.271	13.354	1337.168	1013.962
51.286	13.261	1336.140	1012.522
52.301	13.293	1334.959	1011.732
53.315	13.286	1333.503	1010.493
54.330	13.250	1332.762	1009.623
55.344	13.220	1331.668	1008.523
56.359	13.226	1330.660	1007.708
57.374	13.235	1329.780	1007.009
58.388	13.144	1328.976	1005.753
59.403	13.124	1328.705	1005.340
60.417	13.169	1327.726	1004.781
61.432	13.096	1326.633	1003.425
62.447	12.969	1326.179	1002.217
63.461	13.061	1324.754	1001.612
64.476	13.039	1323.552	1000.482
65.490	13.088	1322.460	999.867
66.505	13.140	1320.575	998.665
67.520	13.168	1319.802	998.165
68.534	13.223	1318.237	997.221
69.549	13.086	1318.060	996.173
70.563	13.148	1316.836	995.536
71.578	13.121	1315.518	994.285
72.593	13.073	1314.493	993.138
73.607	12.976	1313.756	991.904
74.622	12.959	1313.421	991.464
75.636	12.997	1312.333	990.784
76.651	12.982	1311.914	990.287
77.666	13.073	1310.889	989.976
78.680	13.141	1310.189	989.764
79.695	13.128	1309.852	989.345
80.709	13.141	1308.981	988.678
81.724	13.064	1308.235	987.567
82.739	13.245	1307.035	987.656
83.753	13.189	1306.192	986.596
84.768	13.260	1304.997	986.026
85.782	13.328	1303.895	985.516
86.797	13.249	1302.725	984.070
87.812	13.199	1301.755	982.958
88.826	13.284	1300.379	982.336
89.841	13.282	1299.402	981.498
90.855	13.228	1298.363	980.308
91.870	13.332	1297.567	980.235
92.884	13.373	1296.405	979.513
93.899	13.414	1295.936	979.317
94.914	13.413	1294.877	978.424
95.928	13.502	1293.913	978.131
96.943	13.480	1292.793	977.072
97.957	13.430	1292.304	976.319
98.972	13.369	1291.061	974.934
99.987	13.246	1290.327	973.567
101.001	13.400	1289.372	973.668
102.016	13.373	1287.947	972.349
103.030	13.392	1287.427	971.977
104.045	13.358	1286.625	971.088
105.060	13.253	1285.175	969.294
106.074	13.195	1284.087	968.045
107.089	13.170	1282.889	966.911
108.103	13.182	1281.344	965.732
109.118	13.159	1280.288	964.717
110.133	13.066	1279.101	963.197
111.147	13.174	1277.288	962.373
112.162	13.239	1275.844	961.577
113.176	13.155	1275.262	960.568
114.191	13.248	1274.138	960.172
115.206	13.258	1273.034	959.313
116.220	13.199	1271.842	957.989
117.235	13.232	1270.700	957.235
118.249	13.275	1269.654	956.611
119.264	13.221	1268.443	955.306
120.279	13.209	1267.367	954.338
121.293	13.213	1266.313	953.485
122.308	13.171	1265.325	952.413
123.322	13.079	1264.706	951.334
124.337	13.106	1263.310	950.353
125.352	13.107	1261.963	949.265
126.366	13.142	1261.355	948.924
127.381	13.194	1259.704	947.893
128.395	13.223	1258.848	947.331
129.410	13.225	1257.632	946.347
130.424	13.191	1257.218	945.754
131.439	13.198	1256.203	944.950
132.454	13.243	1255.114	944.303
133.468	13.298	1254.312	943.929
134.483	13.286	1253.874	943.451
135.497	13.258	1252.461	942.142
136.512	13.197	1251.638	941.090
137.527	13.266	1250.155	940.289
138.541	13.248	1248.789	939.073
139.556	13.270	1247.240	937.954
140.570	13.323	1246.478	937.598
141.585	13.337	1245.101	936.557
142.600	13.338	1244.012	935.660
143.614	13.375	1243.243	935.205
144.629	13.516	1241.914	934.920
145.643	13.298	1241.272	933.127
146.658	13.426	1239.294	932.275
147.673	13.435	1238.134	931.371
148.687	13.423	1236.857	930.261
149.702	13.314	1235.727	928.720
150.716	13.234	1234.658	927.383
151.731	13.331	1233.462	926.947
152.746	13.336	1232.353	926.058
153.760	13.467	1230.818	925.556
154.775	13.459	1229.702	924.588
155.789	13.497	1228.699	923.968
156.804	13.516	1227.884	923.377
157.819	13.466	1227.243	922.537
158.833	13.600	1226.040	922.294
159.848	13.538	1225.255	921.278
160.862	13.683	1223.530	920.704
161.877	13.466	1222.987	919.013
162.892	13.498	1221.886	918.278
163.906	13.412	1220.974	917.038
164.921	13.503	1219.987	916.716
165.935	13.393	1219.724	915.828
166.950	13.490	1219.206	915.897
167.964	13.593	1217.980	915.465
168.979	13.533	1217.227	914.486
169.994	13.580	1216.249	913.931
171.008	13.556	1215.500	913.152
172.023	13.679	1214.924	913.316
173.037	13.662	1214.269	912.648
174.052	13.682	1213.153	911.838
175.067	13.629	1212.295	910.821
176.081	13.561	1211.354	909.664
177.096	13.483	1210.851	908.777
178.110	13.663	1209.130	908.393
179.125	13.652	1208.077	907.458
180.140	13.615	1206.865	906.265
181.154	13.692	1205.540	905.610
182.169	13.701	1204.551	904.840
183.183	13.779	1203.299	904.241
184.198	13.836	1201.961	903.468
185.213	13.807	1201.257	902.702
186.227	13.811	1199.826	901.567
187.242	13.803	1198.714	900.608
188.256	13.905	1197.747	900.354
189.271	13.856	1196.823	899.314
190.286	13.794	1195.884	898.192
191.300	13.601	1195.261	896.602
192.315	13.589	1194.513	895.900
193.329	13.587	1194.219	895.585
194.344	13.600	1193.487	895.027
195.359	13.750	1192.642	895.128
196.373	13.863	1191.714	894.961
197.388	13.898	1191.548	894.943
198.402	13.991	1191.275	895.161
199.417	13.936	1190.355	894.094
200.432	14.056	1189.358	893.913
201.446	14.042	1188.640	893.218
202.461	13.991	1187.731	892.181
203.475	14.079	1186.435	891.602
204.490	14.065	1185.158	890.489
205.504	14.004	1184.024	889.230
206.519	14.019	1182.835	888.339
207.534	14.038	1181.619	887.446
208.548	14.020	1180.408	886.362
209.563	14.020	1180.172	886.109
210.577	14.086	1178.898	885.425
211.592	14.093	1178.222	884.874
212.607	14.134	1177.212	884.257
213.621	14.217	1176.057	883.755
214.636	14.176	1175.320	882.903
215.650	14.218	1174.629	882.528
216.665	14.198	1173.480	881.480
217.680	14.169	1173.190	881.031
218.694	14.160	1172.078	880.070
219.709	14.230	1171.470	879.908
220.723	14.295	1170.810	879.679
221.738	14.185	1169.956	878.375
222.753	14.278	1169.114	878.158
223.767	14.268	1168.761	877.764
224.782	14.326	1168.110	877.503
225.796	14.448	1167.023	877.250
226.811	14.412	1166.671	876.720
227.826	14.397	1165.946	876.018
228.840	14.296	1165.416	875.008
229.855	14.267	1164.521	874.110
230.869	14.252	1163.798	873.407
231.884	14.421	1162.244	873.050
232.899	14.279	1161.981	872.035
233.913	14.264	1161.499	871.514
234.928	14.300	1160.713	871.036
235.942	14.357	1159.354	870.237
236.957	14.411	1158.417	869.738
237.972	14.387	1158.048	869.260
238.986	14.366	1157.568	868.713
240.001	14.419	1156.433	868.059
241.015	14.516	1155.560	867.833
242.030	14.450	1155.106	867.074
243.045	14.532	1154.307	866.823
244.059	14.449	1154.029	866.103
245.074	14.524	1153.047	865.680
246.088	14.602	1152.035	865.251
247.103	14.562	1151.290	864.407
248.117	14.594	1151.011	864.285
249.132	14.699	1149.858	863.887
250.147	14.818	1149.101	863.858
251.161	14.849	1148.416	863.425
252.176	14.790	1147.878	862.641
253.190	14.835	1147.436	862.462
254.205	14.856	1146.785	862.004
255.220	14.824	1146.151	861.288
256.234	14.895	1145.206	860.868
257.249	14.874	1144.624	860.248
258.263	14.921	1144.107	860.021
259.278	14.916	1143.366	859.364
260.293	14.979	1142.830	859.211
261.307	14.950	1142.457	858.701
262.322	14.980	1141.900	858.360
263.336	14.948	1140.958	857.413
264.351	15.035	1140.245	857.251
265.366	15.059	1139.565	856.785
266.380	15.041	1138.730	855.987
267.395	15.081	1137.998	855.569
268.409	15.079	1137.435	855.057
269.424	15.004	1136.609	853.978
270.439	15.052	1136.107	853.770
271.453	15.038	1135.409	853.100
272.468	14.993	1134.575	852.169
273.482	14.943	1133.989	851.400
274.497	15.134	1133.013	851.559
275.512	15.078	1132.917	851.126
276.526	15.104	1131.796	850.343
277.541	15.189	1131.009	850.109
278.555	15.109	1130.576	849.303
279.570	15.205	1130.141	849.387
280.585	15.296	1128.593	848.609
281.599	15.165	1128.116	847.510
282.614	15.328	1126.766	847.246
283.628	15.356	1125.280	846.193
284.643	15.294	1124.884	845.508
285.657	15.335	1123.944	844.935
286.672	15.278	1123.572	844.292
287.687	15.268	1122.378	843.271
288.701	15.184	1122.243	842.673
289.716	15.277	1121.159	842.253
290.730	15.434	1119.752	841.908
291.745	15.395	1119.581	841.506
292.760	15.326	1118.945	840.610
293.774	15.385	1118.284	840.337
294.789	15.448	1118.027	840.385
295.803	15.514	1117.013	839.877
296.818	15.496	1115.780	838.784
297.833	15.397	1115.818	838.244
298.847	15.373	1115.070	837.488
299.862	15.386	1114.017	836.688
300.876	15.406	1113.431	836.273
301.891	15.577	1112.637	836.454
302.906	15.661	1111.763	836.142
303.920	15.612	1111.084	835.315
304.935	15.621	1110.759	835.041
305.949	15.778	1109.888	835.094
306.964	15.708	1109.574	834.435
307.979	15.616	1108.683	833.232
308.993	15.724	1107.878	833.089
310.008	15.715	1107.352	832.577
311.022	15.728	1106.307	831.784
312.037	15.795	1105.350	831.320
313.052	15.701	1104.904	830.448
314.066	15.662	1103.753	829.317
315.081	15.563	1103.208	828.343
316.095	15.751	1101.998	828.290
317.110	15.624	1101.778	827.426
318.125	15.736	1100.586	827.006
319.139	15.765	1100.053	826.674
320.154	15.805	1099.533	826.406
321.168	15.745	1098.753	825.453
322.183	15.768	1098.235	825.105
323.197	15.778	1097.461	824.502
324.212	15.729	1097.258	824.031
325.227	15.815	1095.975	823.420
326.241	15.912	1095.330	823.335
327.256	15.752	1094.864	822.128
328.270	15.779	1093.822	821.408
329.285	15.809	1092.979	820.848
330.300	15.808	1091.966	820.009
331.314	15.848	1091.371	819.684
332.329	15.809	1090.187	818.535
333.343	15.912	1089.477	818.426
334.358	15.904	1088.686	817.724
335.373	16.002	1087.802	817.463
336.387	15.990	1087.184	816.865
337.402	16.011	1086.568	816.432
338.416	16.001	1086.251	816.076
339.431	15.986	1085.198	815.136
340.446	16.081	1084.728	815.175
341.460	16.132	1083.647	814.532
342.475	16.168	1082.862	814.044
343.489	16.178	1081.763	813.195
344.504	16.223	1080.835	812.645
345.519	16.141	1080.759	812.119
346.533	16.126	1079.991	811.399
347.548	16.255	1078.879	811.111
348.562	16.362	1077.841	810.775
349.577	16.236	1077.340	809.722
350.592	16.286	1076.615	809.343
351.606	16.168	1076.125	808.335
352.621	16.154	1075.684	807.866
353.635	16.216	1074.785	807.418
354.650	16.086	1074.380	806.422
355.665	16.208	1073.521	806.287
356.679	16.252	1072.862	805.932
357.694	16.279	1072.256	805.530
358.708	16.279	1071.817	805.129
359.723	16.347	1070.900	804.694
360.738	16.316	1070.162	803.924
361.752	16.254	1069.630	803.155
362.767	16.298	1069.076	802.878
363.781	16.353	1068.506	802.642
364.796	16.488	1067.913	802.764
365.810	16.525	1067.317	802.420
366.825	16.561	1066.679	802.043
367.840	16.648	1066.329	802.122
368.854	16.657	1065.849	801.730
369.869	16.586	1064.753	800.502
370.883	16.529	1063.860	799.489
371.898	16.577	1063.056	799.041
372.913	16.639	1062.620	798.936
373.927	16.584	1062.117	798.226
374.942	16.656	1061.531	798.053
375.956	16.670	1061.303	797.880
376.971	16.684	1060.212	797.055
377.986	16.838	1059.783	797.383
379.000	16.783	1059.308	796.700
380.015	16.816	1058.919	796.492
381.029	16.806	1058.168	795.810
382.044	16.735	1057.691	795.046
383.059	16.841	1056.816	794.813
384.073	16.885	1056.165	794.462
385.088	16.848	1055.119	793.431
386.102	16.907	1054.003	792.797
387.117	16.848	1053.249	791.886
388.132	16.909	1052.084	791.221
389.146	16.835	1051.732	790.543
390.161	16.816	1051.216	789.997
391.175	16.721	1050.553	788.988
392.190	16.917	1049.727	789.208
393.205	16.907	1049.046	788.579
394.219	16.957	1048.356	788.224
395.234	16.898	1047.738	787.415
396.248	16.697	1046.445	785.440
397.263	16.975	1045.009	785.583
398.278	16.892	1044.636	784.847
399.292	16.717	1044.285	783.705
400.307	16.806	1043.500	783.457
401.321	16.852	1042.836	783.103
402.336	16.971	1042.073	783.012
403.350	16.866	1041.534	782.051
404.365	16.854	1040.974	781.504
405.380	16.996	1039.840	781.241
406.394	17.075	1039.159	781.021
407.409	16.971	1038.488	779.971
408.423	17.085	1038.018	780.073
409.438	17.044	1037.487	779.415
410.453	17.213	1036.330	779.251
411.467	17.319	1035.645	779.154
412.482	17.236	1035.413	778.530
413.496	17.299	1034.593	778.133
414.511	17.367	1033.897	777.854
415.526	17.230	1033.726	777.028
416.540	17.358	1032.912	776.931
417.555	17.257	1032.572	776.147
418.569	17.391	1032.209	776.415
419.584	17.254	1031.747	775.374
420.599	17.357	1031.041	775.244
421.613	103.723	1321.568	1469.652
422.628	94.956	1363.876	1469.750
