DTS Sentinel unit serial number:	SN413079Multiplexer serial number:	ORYXHardware model number:	OX4-SRSoftware version number:	ORYX F/W v4.00 Oryx Data Collector v3.7.2.0data status	okinstallation	princeton_trtdifferential loss correction	single-endedforward channel	channel 2reverse channel	N/Adate	2019/09/16time	22:07:35forward acquisition time	60.00reverse acquisition time	0.00gamma	496.2192k internal	0.2328k external	0.2328temperature offset calibration	0.9966default loss term (dB/km)	0.3790temperature slope calibration	1.0000multiplexer offset coefficient	1.0000multiplexer slope coefficient	1.0000fibre end	0.00T internal ref (°C)	31.12T ext. ref 1 (°C)	0.08T ext. ref 2 (°C)	24.91length (m)	temperature (°C)	Stokes	anti-Stokes-747.200	-154.538	-0.261	0.018
-746.185	-112.489	-0.101	-0.020
-745.171	-77.698	-0.215	-0.075
-744.156	-109.405	-0.188	-0.040
-743.142	185.078	0.210	-0.315
-742.127	284.052	-0.137	0.248
-741.112	582.060	-0.083	0.204
-740.098	-200.000	-0.315	0.000
-739.083	-32.656	0.171	-0.096
-738.069	155.256	-0.274	0.380
-737.054	35.923	-0.043	0.038
-736.039	17.984	0.164	-0.132
-735.025	-124.276	-0.235	-0.037
-734.010	-16.837	-0.281	-0.179
-732.996	-133.383	-0.494	-0.063
-731.981	-94.829	0.421	0.115
-730.966	-120.041	0.322	-0.056
-729.952	646.863	0.110	-0.283
-728.937	38.249	-0.115	0.103
-727.923	164.491	0.092	-0.131
-726.908	-6.248	-0.193	-0.132
-725.894	31.087	-0.036	-0.031
-724.879	398.857	-0.133	-0.281
-723.864	-176.890	-0.602	0.015
-722.850	-200.000	-0.030	-0.200
-721.835	800.000	-0.079	0.240
-720.821	49.576	-0.099	0.094
-719.806	-96.234	-0.128	0.034
-718.791	20.471	-0.265	0.215
-717.777	-99.712	0.286	0.072
-716.762	569.996	-0.076	0.187
-715.748	-129.094	0.334	0.047
-714.733	43.384	0.037	0.034
-713.718	151.191	0.173	-0.238
-712.704	-181.371	-0.408	-0.008
-711.689	-109.481	-0.437	-0.093
-710.675	-200.000	0.019	-0.405
-709.660	306.833	-0.066	-0.124
-708.645	170.927	0.113	-0.163
-707.631	-80.388	0.030	-0.010
-706.616	-95.893	0.307	0.082
-705.602	9.690	-0.345	-0.263
-704.587	-200.000	-0.014	0.073
-703.572	-176.237	-0.229	-0.006
-702.558	53.364	0.039	-0.037
-701.543	-126.946	-0.090	0.013
-700.529	-25.140	0.179	0.107
-699.514	102.571	-0.019	-0.022
-698.499	94.859	0.040	-0.045
-697.485	-200.000	-0.019	-0.417
-696.470	1.492	0.258	0.186
-695.456	-54.720	0.117	0.053
-694.441	-24.187	-0.242	-0.145
-693.426	-137.233	0.125	-0.014
-692.412	-200.000	-0.030	-0.149
-691.397	-200.000	-0.041	-0.401
-690.383	-113.100	-0.256	0.051
-689.368	20.089	-0.130	-0.105
-688.354	520.013	0.028	-0.066
-687.339	548.215	-0.160	0.385
-686.324	-175.616	-0.249	0.007
-685.310	-132.385	0.128	0.017
-684.295	-71.766	0.247	0.093
-683.281	-87.693	-0.452	0.137
-682.266	-200.000	-0.011	0.126
-681.251	194.572	-0.062	-0.094
-680.237	-34.885	0.131	-0.072
-679.222	283.723	0.074	-0.134
-678.208	444.476	-0.084	0.186
-677.193	-157.497	-0.201	-0.012
-676.178	34.128	0.173	-0.151
-675.164	-200.000	0.062	0.410
-674.149	196.732	-0.066	0.100
-673.135	39.234	-0.099	0.089
-672.120	107.732	0.187	-0.223
-671.105	60.223	-0.184	0.182
-670.091	32.388	-0.231	0.200
-669.076	-76.169	-0.223	-0.079
-668.062	-28.240	0.166	0.096
-667.047	800.000	0.064	-0.248
-666.032	-49.093	-0.125	-0.060
-665.018	-200.000	0.037	-0.394
-664.003	149.679	0.125	0.170
-662.989	114.766	-0.163	0.199
-661.974	0.234	-0.124	0.089
-660.959	64.975	-0.140	-0.142
-659.945	-84.764	0.165	0.052
-658.930	-136.886	-0.142	-0.016
-657.916	107.509	0.137	-0.164
-656.901	-137.942	0.167	0.019
-655.886	507.123	0.098	-0.229
-654.872	-200.000	-0.167	-0.001
-653.857	-200.000	-0.061	-0.296
-652.843	-150.202	0.260	0.020
-651.828	-108.385	0.119	0.026
-650.814	-30.187	0.168	0.096
-649.799	-187.388	0.268	-0.004
-648.784	-200.000	-0.035	0.182
-647.770	-145.933	0.101	-0.009
-646.755	106.132	-0.136	-0.161
-645.741	-200.000	-0.032	0.247
-644.726	-89.321	-0.088	0.026
-643.711	-97.750	0.165	0.043
-642.697	-124.719	0.166	0.026
-641.682	602.262	-0.126	-0.314
-640.668	-200.000	-0.005	-0.107
-639.653	800.000	-0.064	0.231
-638.638	-19.890	0.215	-0.133
-637.624	-76.067	0.160	0.057
-636.609	-200.000	-0.010	0.049
-635.595	3.944	-0.210	0.154
-634.580	8.058	-0.181	0.136
-633.565	142.399	0.243	-0.324
-632.551	101.410	-0.058	0.068
-631.536	-31.792	0.127	0.072
-630.522	185.598	0.242	0.361
-629.507	-124.093	-0.189	-0.030
-628.492	-164.918	-0.431	0.019
-627.478	-200.000	0.016	-0.093
-626.463	88.928	0.176	0.196
-625.449	-60.898	-0.284	0.121
-624.434	-200.000	0.011	0.048
-623.419	-29.827	-0.331	-0.190
-622.405	71.155	0.127	-0.133
-621.390	204.222	-0.063	-0.097
-620.376	-49.778	-0.422	0.201
-619.361	800.000	-0.079	-0.224
-618.346	-113.818	-0.275	0.054
-617.332	-144.850	-0.282	0.026
-616.317	1.356	-0.122	0.088
-615.303	-101.471	-0.176	0.043
-614.288	650.973	0.121	-0.310
-613.273	258.450	0.065	-0.112
-612.259	-61.106	0.253	0.107
-611.244	-60.024	-0.211	0.090
-610.230	-70.043	-0.115	0.044
-609.215	15.678	0.278	0.219
-608.201	-200.000	0.069	-0.328
-607.186	-20.897	-0.151	0.093
-606.171	137.997	-0.031	0.041
-605.157	-200.000	-0.026	0.231
-604.142	10.065	-0.146	0.112
-603.128	364.893	0.216	-0.435
-602.113	-4.720	-0.168	0.116
-601.098	-200.000	-0.008	0.059
-600.084	47.713	0.306	-0.286
-599.069	-23.930	0.308	-0.184
-598.055	-43.107	0.076	-0.039
-597.040	-200.000	0.043	0.326
-596.025	379.477	0.023	-0.048
-595.011	-200.000	0.004	0.180
-593.996	-162.106	-0.293	0.015
-592.982	-118.211	0.173	-0.031
-591.967	20.809	0.064	0.052
-590.952	42.185	0.190	-0.173
-589.938	-200.000	0.030	0.211
-588.923	297.501	0.012	0.022
-587.909	3.502	-0.219	-0.160
-586.894	-60.167	-0.263	-0.112
-585.879	281.632	0.219	-0.393
-584.865	229.994	0.171	0.279
-583.850	-200.000	-0.019	0.174
-582.836	-120.536	-0.413	0.070
-581.821	27.545	-0.214	0.181
-580.806	18.611	0.268	0.214
-579.792	-130.940	-0.395	-0.053
-578.777	-22.831	0.262	0.159
-577.763	22.212	-0.235	0.193
-576.748	119.684	-0.072	0.089
-575.733	-200.000	0.004	0.212
-574.719	-11.015	0.148	0.098
-573.704	203.048	-0.073	-0.113
-572.690	-19.176	0.146	0.091
-571.675	-200.000	0.052	0.532
-570.661	-200.000	0.030	-0.367
-569.646	-200.000	-0.012	-0.121
-568.631	-48.895	-0.217	0.104
-567.617	-200.000	-0.025	0.150
-566.602	-28.241	-0.230	0.133
-565.588	-45.444	-0.319	-0.158
-564.573	-114.511	0.333	-0.064
-563.558	-44.604	0.056	-0.028
-562.544	-8.860	-0.213	-0.143
-561.529	800.000	-0.097	-0.356
-560.515	800.000	-0.083	-0.312
-559.500	76.160	-0.107	-0.114
-558.485	705.002	0.045	0.120
-557.471	-59.103	0.132	-0.057
-556.456	139.233	-0.087	0.115
-555.442	20.306	-0.163	0.131
-554.427	-48.435	-0.311	-0.150
-553.412	-102.317	-0.348	-0.084
-552.398	67.159	0.096	0.098
-551.383	29.355	0.137	-0.116
-550.369	800.000	0.039	0.126
-549.354	-200.000	-0.012	0.133
-548.339	225.647	0.142	-0.230
-547.325	800.000	0.046	0.144
-546.310	-200.000	0.269	0.001
-545.296	148.548	0.159	0.214
-544.281	256.814	0.147	-0.253
-543.266	-44.692	-0.265	-0.133
-542.252	-51.291	0.185	-0.087
-541.237	37.853	0.271	0.241
-540.223	800.000	0.045	-0.170
-539.208	-53.480	-0.363	-0.166
-538.193	-90.933	0.180	-0.052
-537.179	335.937	-0.160	-0.310
-536.164	-153.541	0.109	0.008
-535.150	-23.257	0.076	0.046
-534.135	369.219	0.085	0.172
-533.121	165.116	0.093	-0.132
-532.106	-132.621	-0.144	-0.018
-531.091	-123.065	0.358	0.057
-530.077	-200.000	-0.013	0.103
-529.062	203.452	-0.195	0.302
-528.048	-200.000	-0.003	-0.144
-527.033	-200.000	0.027	0.140
-526.018	-160.437	0.181	-0.010
-525.004	-200.000	0.016	-0.123
-523.989	-143.086	0.070	-0.007
-522.975	-200.000	0.026	0.260
-521.960	3.193	-0.279	-0.203
-520.945	-18.123	0.223	-0.139
-519.931	-60.643	-0.049	-0.021
-518.916	1.517	-0.301	0.216
-517.902	-200.000	-0.014	0.134
-516.887	176.657	0.100	-0.145
-515.872	-57.229	-0.178	0.078
-514.858	513.495	-0.059	-0.138
-513.843	-4.642	0.309	-0.213
-512.829	-45.913	0.182	0.089
-511.814	-150.548	-0.277	0.021
-510.799	19.214	-0.047	0.037
-509.785	551.815	0.061	0.147
-508.770	112.808	-0.118	0.143
-507.756	800.000	0.047	0.187
-506.741	639.795	0.170	-0.431
-505.726	67.680	-0.103	-0.105
-504.712	-31.166	-0.059	-0.033
-503.697	309.454	0.051	-0.095
-502.683	-141.236	-0.536	0.054
-501.668	-22.334	-0.174	-0.105
-500.653	-21.766	-0.328	0.199
-499.639	800.000	0.087	0.272
-498.624	-99.877	0.302	-0.075
-497.610	249.341	0.051	0.087
-496.595	523.428	-0.134	-0.314
-495.581	542.723	0.031	-0.073
-494.566	-200.000	0.018	0.155
-493.551	800.000	0.114	-0.389
-492.537	-200.000	0.004	-0.085
-491.522	-93.429	-0.261	-0.072
-490.508	-154.557	0.081	0.005
-489.493	140.069	-0.122	-0.160
-488.478	47.719	-0.132	-0.123
-487.464	-24.679	-0.203	0.121
-486.449	-200.000	0.003	0.245
-485.435	-155.053	0.255	-0.017
-484.420	800.000	0.092	0.364
-483.405	-200.000	0.003	0.112
-482.391	739.090	0.105	0.282
-481.376	20.600	-0.077	0.063
-480.362	-125.628	-0.175	-0.026
-479.347	193.088	0.055	-0.083
-478.332	-200.000	-0.019	0.299
-477.318	800.000	0.080	-0.250
-476.303	-200.000	0.006	-0.146
-475.289	96.373	0.339	-0.387
-474.274	634.385	-0.044	0.112
-473.259	-16.529	-0.249	0.157
-472.245	-4.905	0.231	-0.158
-471.230	86.802	0.282	0.311
-470.216	5.061	0.285	0.210
-469.201	32.650	-0.202	0.174
-468.186	67.438	0.171	-0.174
-467.172	178.087	0.185	-0.269
-466.157	-200.000	-0.059	-0.323
-465.143	69.519	-0.262	-0.269
-464.128	622.827	0.126	0.316
-463.113	117.470	-0.196	0.240
-462.099	16.917	0.041	0.033
-461.084	12.730	-0.081	0.062
-460.070	-2.627	-0.204	0.142
-459.055	512.431	0.110	0.256
-458.040	71.601	-0.087	-0.090
-457.026	-81.417	-0.370	-0.121
-456.011	-149.594	0.172	0.014
-454.997	-53.676	0.417	-0.190
-453.982	76.197	-0.183	-0.193
-452.968	-200.000	-0.008	0.279
-451.953	577.738	-0.008	-0.020
-450.938	-82.457	-0.431	-0.139
-449.924	483.156	-0.107	0.243
-448.909	438.188	0.037	-0.080
-447.895	197.297	0.187	0.284
-446.880	60.225	-0.039	-0.039
-445.865	-200.000	0.014	0.142
-444.851	800.000	-0.096	-0.268
-443.836	-79.237	-0.361	0.122
-442.822	-200.000	0.003	0.422
-441.807	95.516	-0.141	0.161
-440.792	-10.640	0.171	-0.113
-439.778	-134.262	0.242	-0.030
-438.763	800.000	0.010	-0.035
-437.749	80.958	-0.208	-0.224
-436.734	-75.117	-0.263	0.094
-435.719	-159.041	-0.030	0.002
-434.705	-153.508	0.214	-0.015
-433.690	22.433	0.209	-0.170
-432.676	-200.000	0.054	-0.282
-431.661	515.807	0.102	-0.237
-430.646	45.933	0.158	0.146
-429.632	72.469	0.252	-0.261
-428.617	-147.022	0.177	0.015
-427.603	800.000	-0.061	0.230
-426.588	40.948	0.239	-0.214
-425.573	252.036	0.108	-0.183
-424.559	-193.799	-0.184	-0.002
-423.544	362.509	-0.075	-0.150
-422.530	-50.377	-0.371	-0.174
-421.515	-200.000	0.010	0.301
-420.500	-60.252	0.059	0.025
-419.486	180.044	0.141	-0.206
-418.471	800.000	-0.054	-0.184
-417.457	800.000	0.031	-0.111
-416.442	90.844	-0.050	0.056
-415.428	800.000	-0.049	0.203
-414.413	-41.221	0.346	0.178
-413.398	-112.526	-0.094	-0.019
-412.384	207.830	-0.187	0.290
-411.369	800.000	0.032	0.106
-410.355	314.331	-0.111	-0.208
-409.340	-200.000	-0.014	0.075
-408.325	-2.217	-0.348	-0.243
-407.311	308.194	-0.050	0.092
-406.296	-40.869	-0.494	0.254
-405.282	-18.677	0.097	-0.060
-404.267	-200.000	-0.007	0.032
-403.252	800.000	-0.025	0.077
-402.238	328.088	-0.049	-0.094
-401.223	-57.993	0.228	-0.099
-400.209	-200.000	0.043	0.333
-399.194	51.942	-0.135	0.128
-398.179	-121.961	0.179	-0.029
-397.165	103.972	0.151	-0.176
-396.150	-50.733	-0.135	-0.063
-395.136	636.072	0.081	-0.205
-394.121	-107.333	-0.116	0.025
-393.106	119.076	-0.033	0.041
-392.092	242.614	-0.102	0.169
-391.077	-200.000	-0.028	0.259
-390.063	93.175	0.264	-0.297
-389.048	738.474	-0.063	-0.168
-388.033	-200.000	0.030	-0.164
-387.019	800.000	-0.079	0.246
-386.004	164.364	0.377	0.528
-384.990	-200.000	-0.003	0.083
-383.975	98.913	0.096	0.111
-382.960	5.729	0.105	-0.077
-381.946	-83.333	-0.162	0.052
-380.931	-175.456	-0.113	-0.003
-379.917	-43.517	-0.130	0.065
-378.902	50.875	-0.188	0.177
-377.888	-200.000	-0.014	0.078
-376.873	-168.441	0.449	0.017
-375.858	-35.547	-0.114	-0.062
-374.844	800.000	-0.101	0.332
-373.829	-200.000	-0.029	-0.358
-372.815	-46.696	-0.176	0.086
-371.800	123.864	0.062	-0.077
-370.785	-200.000	0.010	-0.158
-369.771	-28.926	0.204	0.117
-368.756	-39.783	-0.159	0.083
-367.742	800.000	0.035	-0.122
-366.727	800.000	-0.109	0.318
-365.712	-109.552	-0.160	-0.034
-364.698	-64.503	0.425	-0.172
-363.683	170.032	-0.103	0.146
-362.669	553.067	-0.072	0.172
-361.654	-128.748	0.644	0.090
-360.639	800.000	-0.074	-0.212
-359.625	-200.000	0.030	0.192
-358.610	800.000	0.057	0.162
-357.596	365.354	-0.129	-0.257
-356.581	-5.431	0.155	0.106
-355.566	-75.900	-0.150	-0.053
-354.552	-164.450	-0.129	0.006
-353.537	206.963	0.038	0.059
-352.523	-112.365	0.154	-0.031
-351.508	-41.331	0.140	0.072
-350.493	-59.750	0.130	-0.055
-349.479	-161.501	0.286	0.015
-348.464	-80.494	0.171	-0.056
-347.450	67.033	0.185	0.187
-346.435	-38.038	-0.246	0.129
-345.420	110.027	0.137	-0.163
-344.406	-200.000	-0.005	-0.246
-343.391	-64.248	-0.198	0.080
-342.377	-200.000	0.001	0.198
-341.362	-127.457	-0.303	-0.044
-340.348	-52.469	-0.126	0.058
-339.333	-200.000	-0.060	0.317
-338.318	-103.154	0.127	-0.030
-337.304	-200.000	0.052	-0.253
-336.289	-39.668	0.082	-0.043
-335.275	800.000	0.082	0.251
-334.260	-6.263	-0.222	0.150
-333.245	800.000	-0.041	0.144
-332.231	-200.000	-0.033	-0.199
-331.216	-31.015	-0.151	0.085
-330.202	-36.891	-0.465	-0.247
-329.187	-63.622	0.240	-0.097
-328.172	800.000	-0.125	-0.359
-327.158	-200.000	0.014	0.085
-326.143	-200.000	0.029	-0.328
-325.129	194.533	0.077	-0.116
-324.114	-128.816	0.277	-0.039
-323.099	-86.373	-0.129	-0.039
-322.085	-135.652	-0.183	0.022
-321.070	45.992	-0.204	0.188
-320.056	398.004	-0.245	0.508
-319.041	-104.832	0.161	0.037
-318.026	-200.000	-0.015	0.119
-317.012	-165.434	0.224	0.010
-315.997	127.254	0.178	-0.223
-314.983	-154.403	0.237	-0.016
-313.968	500.170	-0.112	0.257
-312.953	226.504	-0.271	-0.435
-311.939	-106.059	-0.381	-0.085
-310.924	129.500	-0.167	0.212
-309.910	800.000	-0.055	0.234
-308.895	-46.106	0.235	-0.115
-307.880	216.010	0.103	0.162
-306.866	-35.083	0.174	-0.094
-305.851	309.430	-0.166	-0.307
-304.837	-200.000	0.040	-0.330
-303.822	365.293	-0.034	-0.067
-302.807	120.568	0.087	-0.107
-301.793	-74.476	0.266	0.095
-300.778	800.000	-0.159	0.480
-299.764	257.954	-0.059	-0.100
-298.749	800.000	0.070	0.208
-297.735	-90.197	-0.337	0.097
-296.720	-86.297	0.095	-0.029
-295.705	-200.000	-0.067	0.330
-294.691	-41.946	-0.015	-0.008
-293.676	800.000	-0.009	0.029
-292.662	-89.207	-0.282	0.083
-291.647	40.588	-0.103	-0.092
-290.632	-88.091	-0.120	-0.036
-289.618	800.000	0.063	0.184
-288.603	-200.000	-0.001	-0.023
-287.589	538.609	0.014	0.034
-286.574	-73.758	-0.084	0.030
-285.559	19.113	-0.134	0.106
-284.545	4.382	-0.144	-0.104
-283.530	-99.585	0.100	0.025
-282.516	120.301	-0.170	0.209
-281.501	-200.000	-0.155	0.000
-280.486	634.654	-0.018	0.045
-279.472	-200.000	0.007	-0.053
-278.457	37.535	0.161	0.141
-277.443	-171.818	0.244	0.008
-276.428	-12.367	-0.148	0.096
-275.413	-109.243	-0.175	0.037
-274.399	223.678	0.054	0.087
-273.384	-131.012	0.164	0.022
-272.370	-118.383	-0.083	-0.015
-271.355	-171.987	0.214	0.007
-270.340	48.821	-0.225	-0.209
-269.326	140.827	0.159	0.208
-268.311	800.000	0.198	0.583
-267.297	-10.652	0.328	0.215
-266.282	423.912	-0.035	-0.074
-265.267	50.445	-0.056	0.052
-264.253	65.194	0.429	-0.429
-263.238	-74.156	-0.114	-0.041
-262.224	126.638	-0.139	0.174
-261.209	800.000	-0.039	0.110
-260.195	-19.336	0.252	-0.154
-259.180	78.220	-0.274	-0.290
-258.165	787.354	-0.111	-0.300
-257.151	28.456	0.106	-0.089
-256.136	14.771	-0.206	-0.159
-255.122	190.917	-0.111	-0.166
-254.107	-200.000	-0.041	-0.199
-253.092	127.679	-0.145	-0.182
-252.078	178.840	0.112	0.162
-251.063	-29.174	-0.207	-0.117
-250.049	17.562	-0.112	0.088
-249.034	-53.053	0.108	0.049
-248.019	-32.507	-0.278	0.153
-247.005	149.235	0.116	0.155
-245.990	-200.000	0.044	0.252
-244.976	573.860	-0.111	-0.268
-243.961	58.558	0.205	0.199
-242.946	-200.000	-0.016	-0.142
-241.932	397.909	-0.156	-0.323
-240.917	-74.904	-0.040	-0.014
-239.903	12.733	-0.234	-0.179
-238.888	-102.819	-0.217	0.051
-237.873	-148.836	0.251	0.020
-236.859	-167.848	0.261	0.010
-235.844	-105.767	0.140	-0.031
-234.830	76.941	-0.204	0.214
-233.815	800.000	0.024	0.104
-232.800	-82.036	0.413	-0.133
-231.786	79.403	-0.142	-0.151
-230.771	-75.772	0.227	0.079
-229.757	61.666	-0.070	-0.069
-228.742	-54.122	-0.475	-0.213
-227.727	800.000	-0.046	-0.177
-226.713	225.071	-0.133	0.213
-225.698	-13.076	-0.094	0.061
-224.684	762.352	0.104	0.279
-223.669	11.277	0.183	-0.138
-222.655	-174.127	0.235	-0.007
-221.640	800.000	-0.024	-0.103
-220.625	-107.657	-0.143	0.031
-219.611	-13.658	0.183	0.117
-218.596	4.759	0.373	-0.271
-217.582	-132.207	0.207	0.026
-216.567	-85.664	0.466	-0.143
-215.552	-105.210	-0.317	-0.071
-214.538	-24.620	0.159	-0.093
-213.523	-94.254	0.396	-0.107
-212.509	17.783	0.274	-0.215
-211.494	-76.075	-0.072	0.025
-210.479	229.358	0.146	0.235
-209.465	-152.112	0.239	-0.017
-208.450	119.009	-0.173	0.212
-207.436	-200.000	0.008	0.232
-206.421	-16.361	-0.142	0.089
-205.406	752.541	0.055	-0.147
-204.392	-86.802	-0.081	-0.024
-203.377	-33.880	0.168	0.091
-202.363	-200.000	-0.008	-0.161
-201.348	800.000	0.061	0.214
-200.333	-149.860	-0.396	0.031
-199.319	16.217	0.375	-0.292
-198.304	368.285	0.177	-0.353
-197.290	-110.238	0.194	0.040
-196.275	-81.188	0.075	-0.025
-195.260	54.856	-0.093	-0.088
-194.246	-200.000	0.023	-0.173
-193.231	-44.009	-0.112	-0.055
-192.217	244.965	0.098	-0.162
-191.202	-125.897	-0.558	-0.083
-190.187	361.134	0.019	0.037
-189.173	800.000	-0.057	0.167
-188.158	-136.035	0.164	0.019
-187.144	-200.000	-0.025	0.184
-186.129	-200.000	0.014	-0.090
-185.114	-73.915	-0.246	-0.088
-184.100	179.987	0.205	-0.296
-183.085	18.791	0.197	0.155
-182.071	-47.819	0.186	-0.089
-181.056	-96.662	-0.105	-0.027
-180.042	20.898	0.144	-0.115
-179.027	-16.193	-0.270	-0.169
-178.012	800.000	0.074	-0.217
-176.998	-192.973	-0.077	0.001
-175.983	73.007	0.324	-0.333
-174.969	800.000	0.048	-0.164
-173.954	-19.573	0.245	-0.149
-172.939	-200.000	0.045	0.435
-171.925	-200.000	-0.011	-0.272
-170.910	-61.668	-0.257	0.106
-169.896	345.697	-0.056	-0.109
-168.881	91.324	-0.106	0.117
-167.866	-97.873	0.322	0.082
-166.852	-157.534	-0.172	-0.010
-165.837	-200.000	-0.008	-0.240
-164.823	-76.446	0.349	-0.121
-163.808	26.765	0.240	0.198
-162.793	-71.777	-0.256	-0.094
-161.779	481.337	0.081	0.181
-160.764	-200.000	-0.027	-0.212
-159.750	33.922	-0.028	0.024
-158.735	-200.000	-0.004	0.053
-157.720	-58.529	0.289	-0.124
-156.706	-119.204	0.184	-0.032
-155.691	-70.978	0.274	-0.102
-154.677	4.659	0.202	0.146
-153.662	85.835	-0.360	-0.390
-152.647	373.319	0.065	0.129
-151.633	-104.449	0.213	0.049
-150.618	-113.102	0.170	-0.033
-149.604	75.956	0.122	0.127
-148.589	200.419	0.038	-0.058
-147.574	673.090	0.083	0.211
-146.560	6.324	-0.150	0.109
-145.545	444.482	-0.041	-0.090
-144.531	-76.462	-0.242	0.084
-143.516	186.954	-0.141	0.208
-142.502	-45.259	0.332	-0.162
-141.487	800.000	-0.074	0.235
-140.472	-200.000	0.016	-0.241
-139.458	-53.221	-0.154	0.069
-138.443	-200.000	-0.002	0.021
-137.429	642.414	-0.190	-0.477
-136.414	800.000	-0.024	0.087
-135.399	-200.000	-0.047	0.246
-134.385	9.884	0.271	-0.202
-133.370	236.805	0.225	-0.367
-132.356	-97.726	-0.248	0.063
-131.341	715.203	-0.073	0.192
-130.326	800.000	0.063	-0.255
-129.312	-145.822	0.276	-0.024
-128.297	613.309	0.078	-0.191
-127.283	-125.317	-0.424	0.064
-126.268	800.000	-0.029	0.097
-125.253	-200.000	-0.026	-0.238
-124.239	800.000	0.033	0.102
-123.224	800.000	0.069	0.231
-122.210	157.082	0.126	0.171
-121.195	89.919	0.227	0.249
-120.180	76.849	0.295	-0.308
-119.166	-67.982	-0.450	-0.173
-118.151	673.016	0.064	-0.162
-117.137	132.428	0.195	-0.247
-116.122	-200.000	0.010	-0.057
-115.107	102.633	-0.083	0.096
-114.093	217.132	-0.104	-0.163
-113.078	-70.141	-0.093	0.035
-112.064	-16.284	0.429	-0.268
-111.049	-200.000	0.016	-0.241
-110.034	-114.020	0.181	-0.034
-109.020	75.745	0.181	-0.188
-108.005	-3.954	-0.043	0.029
-106.991	-104.601	0.116	-0.026
-105.976	321.363	0.105	0.197
-104.962	399.383	-0.059	0.122
-103.947	-39.704	0.243	-0.125
-102.932	214.509	0.185	-0.288
-101.918	325.653	0.035	-0.065
-100.903	-109.377	-0.261	-0.054
-99.889	-51.280	0.170	0.078
-98.874	49.635	-0.062	-0.058
-97.859	-168.803	-0.295	0.011
-96.845	-5.254	-0.165	0.112
-95.830	-200.000	-0.061	-0.475
-94.816	800.000	0.024	-0.074
-93.801	24.692	-0.177	-0.144
-92.786	-106.125	0.135	-0.030
-91.772	-124.513	-0.155	-0.024
-90.757	-200.000	-0.025	0.139
-89.743	137.826	0.168	-0.216
-88.728	-105.705	-0.224	0.050
-87.713	63.340	0.161	-0.159
-86.699	-200.000	-0.017	0.188
-85.684	-18.418	0.195	-0.119
-84.670	-45.761	0.231	0.112
-83.655	-200.000	-0.077	0.352
-82.640	143.966	0.076	0.100
-81.626	-123.483	0.274	0.043
-80.611	-122.633	0.421	0.067
-79.597	-17.313	-0.167	0.104
-78.582	-200.000	0.014	-0.100
-77.567	800.000	0.136	0.452
-76.553	-102.675	0.245	-0.057
-75.538	-114.113	0.070	0.013
-74.524	-200.000	0.022	0.170
-73.509	-193.840	-0.352	0.003
-72.494	-200.000	0.014	-0.092
-71.480	191.922	0.174	-0.258
-70.465	96.679	-0.176	0.198
-69.451	132.482	0.046	-0.058
-68.436	-200.000	-0.019	0.163
-67.422	136.630	-0.186	0.238
-66.407	-41.973	0.084	-0.042
-65.392	-200.000	-0.021	0.179
-64.378	157.467	-0.103	-0.140
-63.363	202.833	-0.098	0.148
-62.349	-70.766	-0.062	0.023
-61.334	32.755	-1.109	-0.941
-60.319	92.094	0.584	0.646
-59.305	-200.000	-0.099	-1.062
-58.290	207.211	0.645	0.987
-57.276	800.000	0.394	1.521
-56.261	-200.000	99.954	582.928
-55.246	511.554	1409.658	3219.793
-54.232	156.878	2589.976	3511.423
-53.217	104.636	2270.014	2623.609
-52.203	40.216	1893.589	1670.591
-51.188	34.241	1684.168	1440.740
-50.173	31.669	1640.621	1384.441
-49.159	49.484	1689.714	1559.913
-48.144	51.126	1706.882	1588.022
-47.130	33.943	1666.780	1423.408
-46.115	31.280	1652.248	1391.133
-45.100	31.124	1647.314	1385.765
-44.086	31.102	1644.787	1383.426
-43.071	31.017	1642.024	1380.415
-42.057	31.029	1639.650	1378.450
-41.042	31.087	1637.278	1376.835
-40.027	31.030	1635.966	1375.254
-39.013	31.061	1634.116	1373.873
-37.998	30.937	1632.312	1371.393
-36.984	31.022	1631.823	1371.553
-35.969	31.147	1629.770	1370.688
-34.954	31.131	1628.311	1369.290
-33.940	31.150	1626.705	1368.022
-32.925	31.141	1624.642	1366.167
-31.911	31.126	1623.291	1364.869
-30.896	31.051	1621.999	1363.183
-29.881	31.043	1620.150	1361.514
-28.867	31.126	1618.518	1360.691
-27.852	31.032	1617.193	1358.842
-26.838	31.018	1615.880	1357.581
-25.823	31.225	1613.662	1357.172
-24.809	31.128	1612.894	1355.767
-23.794	31.078	1612.073	1354.657
-22.779	31.158	1609.685	1353.176
-21.765	31.148	1608.178	1351.786
-20.750	31.120	1606.983	1350.525
-19.736	31.193	1605.366	1349.638
-18.721	31.136	1603.846	1347.897
-17.706	31.189	1602.302	1346.924
-16.692	31.137	1600.808	1345.242
-15.677	31.146	1599.836	1344.439
-14.663	31.170	1597.921	1342.948
-13.648	31.218	1596.860	1342.348
-12.633	31.254	1594.731	1340.761
-11.619	31.121	1593.817	1338.984
-10.604	31.117	1592.336	1337.662
-9.590	31.256	1590.468	1337.033
-8.575	31.219	1589.505	1335.909
-7.560	31.125	1588.724	1334.526
-6.546	31.238	1587.374	1334.142
-5.531	31.141	1586.723	1332.848
-4.517	31.065	1585.511	1331.240
-3.502	31.135	1584.258	1330.630
-2.487	31.220	1582.335	1329.571
-1.473	30.897	1570.921	1317.644
-0.458	27.963	1551.611	1280.866
0.556	22.367	1552.533	1248.330
1.571	19.993	1575.601	1249.660
2.586	19.443	1588.921	1256.109
3.600	17.790	1536.268	1202.729
4.615	9.856	1427.235	1065.108
5.629	1.795	1361.985	965.396
6.644	0.197	1353.396	949.158
7.659	0.082	1352.155	947.480
8.673	0.017	1351.000	946.176
9.688	0.003	1349.190	944.738
10.702	-0.189	1346.305	941.427
11.717	3.578	1352.390	969.289
12.731	12.172	1365.978	1033.271
13.746	17.392	1372.935	1071.403
14.761	17.290	1370.923	1069.095
15.775	16.194	1368.108	1059.926
16.790	15.184	1365.796	1051.702
17.804	14.431	1363.138	1044.844
18.819	14.047	1362.113	1041.561
19.834	13.716	1360.602	1038.239
20.848	13.496	1359.498	1035.928
21.863	13.288	1358.491	1033.773
22.877	13.119	1357.181	1031.630
23.892	13.040	1356.174	1030.275
24.907	13.026	1355.817	1029.825
25.921	13.027	1354.448	1028.704
26.936	13.066	1353.496	1028.131
27.950	13.109	1352.578	1027.613
28.965	13.177	1351.786	1027.340
29.980	13.377	1350.810	1027.750
30.994	13.316	1349.808	1026.517
32.009	13.452	1348.719	1026.444
33.023	13.250	1347.872	1024.458
34.038	13.283	1346.808	1023.760
35.053	13.270	1345.739	1022.778
36.067	13.301	1344.497	1021.932
37.082	13.265	1343.456	1020.829
38.096	13.244	1343.083	1020.324
39.111	13.368	1342.087	1020.243
40.126	13.192	1341.559	1018.670
41.140	13.131	1340.612	1017.483
42.155	13.148	1339.871	1016.938
43.169	13.010	1340.501	1016.476
44.184	13.004	1340.155	1016.084
45.199	13.081	1339.104	1015.671
46.213	13.174	1337.998	1015.312
47.228	13.245	1337.572	1015.340
48.242	13.194	1336.967	1014.476
49.257	13.135	1335.211	1012.691
50.271	13.188	1333.687	1011.771
51.286	13.236	1332.359	1010.967
52.301	13.208	1331.055	1009.717
53.315	13.203	1330.235	1008.973
54.330	13.094	1329.418	1007.602
55.344	12.996	1328.225	1006.013
56.359	13.075	1327.062	1005.524
57.374	13.136	1325.954	1004.968
58.388	13.073	1325.296	1003.995
59.403	12.963	1325.017	1003.025
60.417	13.071	1324.189	1002.963
61.432	12.952	1323.309	1001.490
62.447	13.008	1322.320	1000.989
63.461	12.917	1321.417	999.665
64.476	12.902	1320.310	998.649
65.490	12.942	1319.056	997.856
66.505	12.887	1317.572	996.313
67.520	12.937	1316.221	995.506
68.534	13.089	1315.015	995.418
69.549	13.036	1314.247	994.434
70.563	12.904	1313.242	992.787
71.578	13.038	1311.419	992.129
72.593	12.966	1310.679	991.046
73.607	12.898	1309.955	990.005
74.622	12.899	1309.357	989.471
75.636	12.860	1308.754	988.694
76.651	12.919	1307.859	988.281
77.666	12.845	1307.393	987.399
78.680	12.877	1306.956	987.176
79.695	12.887	1305.802	986.273
80.709	13.007	1305.052	986.340
81.724	13.041	1304.132	985.758
82.739	13.084	1303.083	985.133
83.753	13.113	1302.521	984.799
84.768	13.171	1301.180	984.043
85.782	13.216	1299.841	983.211
86.797	13.156	1298.939	982.085
87.812	13.226	1297.116	981.035
88.826	13.139	1296.485	979.951
89.841	13.191	1295.324	979.296
90.855	13.192	1294.400	978.520
91.870	13.113	1293.643	977.393
92.884	13.272	1292.399	977.308
93.899	13.257	1292.191	976.975
94.914	13.328	1290.787	976.247
95.928	13.178	1290.644	975.164
96.943	13.234	1289.234	974.346
97.957	13.250	1288.443	973.753
98.972	13.312	1287.454	973.286
99.987	13.197	1286.253	971.617
101.001	13.119	1285.322	970.366
102.016	13.174	1284.455	969.951
103.030	13.283	1283.595	969.856
104.045	13.278	1282.337	968.785
105.060	13.214	1281.440	967.650
106.074	13.127	1280.355	966.234
107.089	13.155	1278.803	965.142
108.103	13.041	1277.650	963.520
109.118	13.066	1276.461	962.688
110.133	13.062	1275.093	961.548
111.147	13.093	1273.592	960.507
112.162	13.091	1272.664	959.711
113.176	13.150	1271.864	959.368
114.191	13.202	1270.645	958.662
115.206	13.194	1269.614	957.755
116.220	13.099	1268.457	956.250
117.235	13.137	1267.385	955.574
118.249	13.089	1266.109	954.248
119.264	13.068	1265.639	953.692
120.279	13.130	1264.216	952.892
121.293	13.055	1262.996	951.455
122.308	13.118	1262.054	951.027
123.322	13.043	1261.207	949.868
124.337	13.134	1260.160	949.519
125.352	13.094	1259.008	948.342
126.366	13.053	1257.729	947.057
127.381	13.056	1257.005	946.446
128.395	13.119	1255.813	945.824
129.410	13.035	1255.049	944.684
130.424	13.012	1254.247	943.865
131.439	13.067	1253.331	943.408
132.454	13.101	1252.230	942.692
133.468	13.203	1251.242	942.447
134.483	13.274	1250.658	942.324
135.497	13.268	1249.524	941.352
136.512	13.206	1248.238	939.947
137.527	13.189	1247.074	938.891
138.541	13.195	1245.816	937.897
139.556	13.221	1244.372	936.872
140.570	13.197	1243.402	935.923
141.585	13.194	1242.603	935.223
142.600	13.247	1240.767	934.058
143.614	13.335	1240.123	933.991
144.629	13.337	1239.086	933.137
145.643	13.376	1237.678	932.211
146.658	13.288	1236.447	930.707
147.673	13.346	1234.871	929.764
148.687	13.259	1233.872	928.441
149.702	13.237	1232.589	927.270
150.716	13.292	1230.909	926.232
151.731	13.175	1230.602	925.263
152.746	13.296	1229.077	924.710
153.760	13.311	1227.820	923.768
154.775	13.316	1226.908	923.030
155.789	13.373	1225.673	922.335
156.804	13.416	1224.852	921.875
157.819	13.410	1223.952	921.085
158.833	13.440	1222.637	920.182
159.848	13.449	1222.027	919.690
160.862	13.462	1220.953	918.871
161.877	13.374	1219.936	917.537
162.892	13.423	1218.489	916.642
163.906	13.302	1217.585	915.209
164.921	13.369	1216.902	914.984
165.935	13.312	1216.535	914.311
166.950	13.469	1215.166	914.068
167.964	13.344	1214.743	912.980
168.979	13.380	1214.072	912.592
169.994	13.435	1212.947	911.972
171.008	13.547	1212.235	911.971
172.023	13.443	1211.685	910.904
173.037	13.505	1210.712	910.432
174.052	13.438	1210.151	909.563
175.067	13.589	1208.745	909.253
176.081	13.325	1208.021	907.179
177.096	13.385	1207.547	907.073
178.110	13.507	1205.702	906.277
179.125	13.400	1204.952	905.048
180.140	13.546	1203.522	904.689
181.154	13.631	1202.045	903.961
182.169	13.675	1200.903	903.265
183.183	13.690	1199.571	902.263
184.198	13.639	1198.774	901.309
185.213	13.608	1197.736	900.281
186.227	13.594	1196.648	899.303
187.242	13.718	1195.669	899.165
188.256	13.747	1194.884	898.650
189.271	13.847	1193.371	897.975
190.286	13.671	1192.506	896.295
191.300	13.551	1191.929	895.131
192.315	13.555	1190.961	894.346
193.329	13.537	1190.642	893.932
194.344	13.586	1189.998	893.630
195.359	13.666	1189.154	893.350
196.373	13.641	1189.069	893.071
197.388	13.730	1188.568	893.095
198.402	13.721	1188.118	892.630
199.417	13.858	1187.242	892.631
200.432	13.921	1186.126	892.051
201.446	13.891	1185.420	891.278
202.461	13.999	1184.339	890.966
203.475	14.056	1183.133	890.285
204.490	13.971	1182.129	888.999
205.504	14.066	1180.712	888.363
206.519	13.968	1179.498	886.844
207.534	13.942	1178.667	886.006
208.548	13.977	1177.641	885.343
209.563	13.869	1177.025	884.224
210.577	14.044	1176.231	884.480
211.592	14.062	1175.133	883.671
212.607	14.002	1174.443	882.759
213.621	14.102	1173.569	882.554
214.636	14.057	1172.853	881.696
215.650	14.068	1171.874	880.939
216.665	14.103	1171.001	880.394
217.680	14.246	1169.933	880.266
218.694	14.130	1169.515	879.260
219.709	14.182	1168.453	878.662
220.723	14.258	1167.516	878.278
221.738	14.116	1167.078	877.121
222.753	14.220	1166.300	877.010
223.767	14.178	1165.438	876.060
224.782	14.273	1164.459	875.752
225.796	14.275	1164.705	875.868
226.811	14.348	1163.604	875.343
227.826	14.351	1162.470	874.430
228.840	14.201	1162.151	873.323
229.855	14.234	1161.363	872.829
230.869	14.234	1160.680	872.239
231.884	14.155	1159.901	871.160
232.899	14.271	1159.110	871.098
233.913	14.342	1158.353	870.822
234.928	14.201	1157.666	869.495
235.942	14.250	1156.572	868.852
236.957	14.271	1155.878	868.364
237.972	14.306	1155.238	867.987
238.986	14.217	1154.929	867.212
240.001	14.274	1154.183	866.876
241.015	14.351	1153.138	866.411
242.030	14.314	1152.302	865.513
243.045	14.347	1151.562	865.054
244.059	14.432	1150.897	864.921
245.074	14.455	1149.827	864.159
246.088	14.438	1149.367	863.647
247.103	14.542	1148.237	863.262
248.117	14.433	1147.839	862.322
249.132	14.534	1147.133	862.236
250.147	14.552	1146.393	861.699
251.161	14.691	1145.508	861.675
252.176	14.753	1144.858	861.429
253.190	14.724	1144.198	860.706
254.205	14.757	1143.789	860.492
255.220	14.726	1143.069	859.714
256.234	14.745	1142.340	859.189
257.249	14.791	1141.929	859.038
258.263	14.797	1141.321	858.536
259.278	14.784	1140.556	857.817
260.293	14.890	1140.192	858.013
261.307	14.906	1139.425	857.439
262.322	14.831	1138.928	856.607
263.336	15.000	1137.811	856.555
264.351	14.987	1137.577	856.238
265.366	14.932	1136.834	855.320
266.380	14.960	1136.086	854.824
267.395	15.033	1135.416	854.620
268.409	14.942	1134.267	853.215
269.424	14.883	1134.055	852.680
270.439	15.009	1133.491	852.820
271.453	14.958	1132.691	851.887
272.468	14.951	1131.416	850.814
273.482	14.818	1130.983	849.735
274.497	14.987	1130.219	849.944
275.512	15.011	1129.817	849.690
276.526	14.947	1129.010	848.683
277.541	14.875	1128.531	847.884
278.555	14.969	1127.811	847.745
279.570	15.156	1126.867	847.909
280.585	15.172	1126.072	847.314
281.599	15.073	1125.049	845.968
282.614	15.235	1123.895	845.846
283.628	15.198	1122.913	844.843
284.643	15.227	1121.900	844.154
285.657	15.227	1121.402	843.704
286.672	15.159	1120.425	842.553
287.687	15.081	1119.617	841.480
288.701	15.091	1119.291	841.208
289.716	15.104	1118.315	840.464
290.730	15.162	1117.885	840.360
291.745	15.279	1116.761	840.027
292.760	15.243	1116.154	839.313
293.774	15.289	1115.488	838.970
294.789	15.299	1115.301	838.803
295.803	15.416	1114.098	838.411
296.818	15.433	1113.606	838.050
297.833	15.358	1112.773	836.977
298.847	15.302	1112.348	836.304
299.862	15.432	1111.380	836.150
300.876	15.238	1110.992	834.816
301.891	15.369	1110.390	834.944
302.906	15.430	1109.686	834.643
303.920	15.521	1108.597	834.202
304.935	15.539	1108.054	833.809
305.949	15.586	1107.264	833.376
306.964	15.488	1107.040	832.647
307.979	15.499	1106.181	831.979
308.993	15.647	1105.157	831.868
310.008	15.617	1104.512	831.162
311.022	15.633	1103.406	830.334
312.037	15.609	1103.064	829.884
313.052	15.562	1102.149	828.894
314.066	15.582	1100.787	827.894
315.081	15.473	1100.081	826.751
316.095	15.546	1099.898	826.899
317.110	15.632	1098.814	826.435
318.125	15.590	1098.407	825.850
319.139	15.563	1097.337	824.840
320.154	15.574	1097.054	824.605
321.168	15.556	1096.297	823.878
322.183	15.668	1095.303	823.606
323.197	15.539	1095.288	822.891
324.212	15.615	1094.743	822.778
325.227	15.664	1094.200	822.538
326.241	15.570	1093.694	821.626
327.256	15.643	1092.456	820.981
328.270	15.601	1091.484	819.973
329.285	15.628	1090.739	819.470
330.300	15.636	1089.629	818.605
331.314	15.699	1089.045	818.398
332.329	15.592	1088.308	817.250
333.343	15.752	1087.445	817.308
334.358	15.786	1086.529	816.715
335.373	15.749	1085.786	815.906
336.387	15.792	1084.884	815.363
337.402	15.773	1084.475	814.888
338.416	15.702	1083.776	813.948
339.431	15.916	1082.753	814.146
340.446	15.893	1082.714	813.933
341.460	16.047	1081.818	813.932
342.475	16.055	1080.557	812.946
343.489	16.133	1079.700	812.608
344.504	16.091	1079.064	811.855
345.519	16.191	1077.761	811.283
346.533	16.109	1077.269	810.445
347.548	16.148	1077.003	810.363
348.562	16.204	1075.665	809.555
349.577	16.137	1075.349	808.919
350.592	16.020	1074.646	807.759
351.606	16.018	1074.149	807.304
352.621	15.995	1073.466	806.611
353.635	16.004	1072.367	805.756
354.650	16.140	1071.610	805.765
355.665	16.193	1070.890	805.406
356.679	16.206	1070.260	804.923
357.694	16.249	1069.995	804.856
358.708	16.266	1069.150	804.234
359.723	16.131	1068.510	803.034
360.738	16.177	1067.918	802.738
361.752	16.228	1067.519	802.612
362.767	16.318	1066.684	802.341
363.781	16.258	1066.576	801.902
364.796	16.339	1065.704	801.561
365.810	16.381	1065.137	801.264
366.825	16.365	1064.572	800.691
367.840	16.441	1064.221	800.717
368.854	16.426	1063.632	800.131
369.869	16.464	1062.559	799.433
370.883	16.357	1061.869	798.337
371.898	16.386	1061.439	798.082
372.913	16.448	1060.512	797.606
373.927	16.538	1059.890	797.492
374.942	16.593	1059.506	797.391
375.956	16.573	1058.844	796.726
376.971	16.492	1058.306	795.871
377.986	16.659	1057.561	796.026
379.000	16.615	1057.216	795.488
380.015	16.683	1056.668	795.327
381.029	16.798	1055.782	795.129
382.044	16.757	1055.051	794.315
383.059	16.801	1054.605	794.117
384.073	16.694	1053.864	792.986
385.088	16.835	1052.570	792.604
386.102	16.801	1051.826	791.813
387.117	16.738	1051.230	791.000
388.132	16.680	1050.428	790.054
389.146	16.544	1049.561	788.700
390.161	16.833	1048.907	789.483
391.175	16.753	1048.125	788.452
392.190	16.685	1047.925	787.918
393.205	16.750	1047.073	787.511
394.219	16.658	1046.357	786.472
395.234	16.826	1045.071	786.219
396.248	16.848	1044.014	785.453
397.263	16.690	1043.083	783.950
398.278	16.807	1042.287	783.825
399.292	16.739	1042.007	783.232
400.307	16.797	1040.980	782.656
401.321	16.752	1040.623	782.114
402.336	16.757	1039.782	781.434
403.350	16.840	1038.911	781.095
404.365	16.860	1038.254	780.622
405.380	16.852	1037.753	780.139
406.394	16.882	1036.927	779.589
407.409	16.924	1036.273	779.221
408.423	17.089	1035.994	779.701
409.438	16.922	1035.392	778.409
410.453	16.924	1034.579	777.739
411.467	17.010	1033.663	777.375
412.482	17.250	1032.646	777.640
413.496	17.131	1032.372	776.821
414.511	17.061	1032.094	776.222
415.526	17.238	1031.165	776.263
416.540	17.362	1030.455	776.228
417.555	17.285	1030.179	775.599
418.569	17.373	1029.599	775.495
419.584	17.261	1029.345	774.723
420.599	17.304	1028.803	774.444
421.613	102.405	1320.131	1463.408
422.628	93.677	1362.531	1463.535
