DTS Sentinel unit serial number:	SN413079Multiplexer serial number:	ORYXHardware model number:	OX4-SRSoftware version number:	ORYX F/W v4.00 Oryx Data Collector v3.7.2.0data status	okinstallation	princeton_trtdifferential loss correction	single-endedforward channel	channel 2reverse channel	N/Adate	2019/09/14time	02:19:35forward acquisition time	60.00reverse acquisition time	0.00gamma	496.2192k internal	0.2337k external	0.2337temperature offset calibration	1.0126default loss term (dB/km)	0.3790temperature slope calibration	1.0000multiplexer offset coefficient	1.0000multiplexer slope coefficient	1.0000fibre end	0.00T internal ref (°C)	26.50T ext. ref 1 (°C)	3.23T ext. ref 2 (°C)	21.50length (m)	temperature (°C)	Stokes	anti-Stokes-747.200	362.468	-0.073	0.147
-746.185	-142.927	-0.187	0.018
-745.171	-47.052	-0.320	0.157
-744.156	-47.786	-0.108	-0.053
-743.142	532.746	-0.050	-0.120
-742.127	800.000	0.065	-0.180
-741.112	-94.723	-0.045	-0.012
-740.098	-200.000	-0.031	-0.235
-739.083	-200.000	0.031	-0.345
-738.069	148.669	-0.164	0.222
-737.054	44.684	-0.077	-0.071
-736.039	44.612	-0.181	-0.167
-735.025	94.457	0.126	0.144
-734.010	433.351	-0.085	-0.186
-732.996	-200.000	0.006	-0.164
-731.981	-11.878	-0.087	0.058
-730.966	342.834	-0.081	-0.158
-729.952	-176.830	0.274	-0.007
-728.937	-106.443	-0.444	-0.099
-727.923	-200.000	0.022	-0.288
-726.908	-41.563	0.033	0.017
-725.894	-142.547	0.226	0.022
-724.879	266.631	0.202	-0.353
-723.864	-20.034	0.221	-0.137
-722.850	220.308	0.097	-0.155
-721.835	-200.000	-0.011	-0.105
-720.821	61.684	-0.101	-0.101
-719.806	21.585	-0.116	0.094
-718.791	96.480	0.317	0.363
-717.777	9.451	0.161	-0.122
-716.762	633.028	0.013	0.033
-715.748	89.696	-0.185	0.207
-714.733	-133.424	-0.399	0.050
-713.718	366.102	0.128	-0.259
-712.704	-65.382	0.215	0.087
-711.689	3.518	0.090	0.066
-710.675	-200.000	-0.022	-0.115
-709.660	-183.565	-0.086	-0.001
-708.645	-200.000	0.051	-0.302
-707.631	227.792	0.121	0.197
-706.616	-177.505	-0.146	-0.004
-705.602	46.233	0.109	-0.101
-704.587	-174.747	0.162	0.005
-703.572	800.000	0.109	-0.424
-702.558	-67.959	-0.354	0.138
-701.543	800.000	0.113	-0.398
-700.529	378.859	-0.062	-0.128
-699.514	800.000	-0.071	-0.214
-698.499	800.000	0.050	-0.178
-697.485	-122.258	-0.111	-0.018
-696.470	-127.943	-0.345	-0.050
-695.456	-86.629	0.068	0.021
-694.441	344.819	-0.224	0.441
-693.426	-200.000	-0.046	0.280
-692.412	20.726	-0.170	-0.138
-691.397	-111.297	0.116	0.024
-690.383	-31.212	-0.163	0.092
-689.368	-200.000	0.010	0.180
-688.354	139.792	-0.113	0.149
-687.339	-200.000	-0.042	0.275
-686.324	-117.715	-0.108	0.019
-685.310	-200.000	-0.034	0.168
-684.295	192.167	-0.144	-0.218
-683.281	-20.756	0.114	-0.070
-682.266	-200.000	-0.013	-0.229
-681.251	-200.000	0.018	-0.203
-680.237	534.034	-0.022	0.053
-679.222	-107.876	-0.224	-0.049
-678.208	89.788	0.058	-0.065
-677.193	-79.177	0.136	-0.046
-676.178	-77.595	-0.437	-0.151
-675.164	101.326	-0.038	-0.044
-674.149	-18.559	-0.117	-0.073
-673.135	-9.599	-0.263	0.175
-672.120	104.076	0.051	0.060
-671.105	-200.000	-0.003	0.314
-670.091	-200.000	-0.004	-0.068
-669.076	-66.546	-0.233	-0.092
-668.062	-111.110	-0.152	-0.031
-667.047	102.721	-0.180	-0.211
-666.032	-26.328	-0.140	-0.082
-665.018	-25.251	0.210	-0.124
-664.003	20.164	0.136	0.109
-662.989	800.000	-0.041	0.161
-661.974	566.957	0.054	0.131
-660.959	-200.000	-0.008	0.248
-659.945	3.274	-0.201	-0.146
-658.930	63.058	-0.250	-0.251
-657.916	-200.000	0.016	-0.146
-656.901	-118.295	-0.390	-0.069
-655.886	-200.000	0.001	-0.213
-654.872	-119.977	0.088	0.015
-653.857	-200.000	0.046	-0.315
-652.843	510.506	-0.148	-0.344
-651.828	-83.035	-0.240	-0.077
-650.814	73.368	-0.160	-0.167
-649.799	-123.148	-0.210	0.034
-648.784	146.587	0.088	0.119
-647.770	327.138	-0.049	0.095
-646.755	-2.984	-0.376	-0.263
-645.741	134.985	-0.060	-0.078
-644.726	338.218	-0.075	-0.146
-643.711	-153.083	-0.251	0.018
-642.697	800.000	0.054	-0.226
-641.682	-200.000	0.039	-0.176
-640.668	-200.000	0.020	-0.090
-639.653	-95.424	0.216	-0.058
-638.638	5.811	-0.111	-0.082
-637.624	469.621	-0.100	-0.225
-636.609	258.604	0.149	0.257
-635.595	-97.849	0.022	0.006
-634.580	800.000	-0.045	-0.148
-633.565	360.404	-0.088	-0.175
-632.551	239.681	-0.051	-0.085
-631.536	653.581	0.087	-0.224
-630.522	-120.088	-0.182	-0.031
-629.507	404.287	-0.151	0.317
-628.492	-155.731	-0.183	0.012
-627.478	-200.000	0.018	0.175
-626.463	-32.185	-0.052	-0.029
-625.449	-84.092	0.096	-0.031
-624.434	65.000	-0.102	-0.103
-623.419	-200.000	-0.011	-0.073
-622.405	-200.000	-0.030	-0.141
-621.390	-93.902	0.153	0.042
-620.376	123.377	0.092	-0.115
-619.361	341.707	0.048	-0.094
-618.346	285.676	-0.187	0.337
-617.332	800.000	0.028	0.104
-616.317	-84.330	-0.130	0.041
-615.303	426.454	-0.108	-0.233
-614.288	-74.095	-0.139	-0.050
-613.273	195.668	0.105	-0.160
-612.259	124.934	-0.054	0.067
-611.244	-67.025	0.148	0.058
-610.230	193.509	-0.117	0.177
-609.215	-200.000	0.016	-0.360
-608.201	636.877	0.111	0.281
-607.186	30.896	0.043	-0.037
-606.171	-200.000	0.016	0.173
-605.157	23.413	0.185	-0.152
-604.142	-55.137	-0.093	0.042
-603.128	800.000	-0.057	-0.232
-602.113	800.000	-0.097	-0.347
-601.098	-30.419	0.052	0.029
-600.084	-200.000	-0.022	-0.327
-599.069	27.124	0.096	-0.080
-598.055	207.999	0.128	-0.200
-597.040	-181.917	-0.118	-0.002
-596.025	-113.638	0.274	-0.053
-595.011	800.000	-0.040	-0.151
-593.996	58.061	-0.136	-0.133
-592.982	-48.343	0.064	-0.031
-591.967	800.000	0.128	-0.464
-590.952	92.672	-0.146	-0.164
-589.938	-200.000	0.007	0.090
-588.923	-158.415	-0.100	0.006
-587.909	-139.740	0.273	0.029
-586.894	383.029	0.107	0.219
-585.879	800.000	0.038	-0.163
-584.865	800.000	0.082	0.357
-583.850	0.346	-0.099	-0.071
-582.836	-37.155	0.249	-0.133
-581.821	-38.031	-0.414	-0.219
-580.806	24.250	-0.345	0.284
-579.792	-200.000	0.025	0.148
-578.777	32.607	-0.235	0.203
-577.763	-20.444	-0.152	0.093
-576.748	-200.000	0.028	0.142
-575.733	-100.461	-0.243	0.060
-574.719	-71.104	-0.305	0.114
-573.704	-200.000	-0.021	0.179
-572.690	-159.017	0.544	-0.031
-571.675	231.135	0.085	0.140
-570.661	-40.456	-0.164	0.085
-569.646	-200.000	0.053	0.241
-568.631	13.530	-0.401	0.310
-567.617	100.454	0.102	0.118
-566.602	156.504	0.083	0.114
-565.588	-20.094	0.177	0.109
-564.573	-44.087	-0.139	-0.070
-563.558	-200.000	0.006	0.039
-562.544	28.069	0.373	-0.314
-561.529	-128.393	-0.306	0.043
-560.515	166.362	0.324	-0.458
-559.500	133.629	-0.162	-0.208
-558.485	-55.719	-0.223	0.099
-557.471	-105.702	-0.025	0.006
-556.456	-200.000	-0.005	0.117
-555.442	-63.084	-0.083	0.034
-554.427	-114.891	0.187	-0.035
-553.412	800.000	-0.129	-0.423
-552.398	-200.000	0.024	-0.210
-551.383	-50.555	-0.112	0.053
-550.369	-163.381	-0.150	0.007
-549.354	-129.041	0.035	-0.005
-548.339	327.658	0.254	0.485
-547.325	-48.135	-0.183	-0.088
-546.310	347.231	-0.106	0.207
-545.296	-11.789	-0.150	-0.098
-544.281	-100.766	-0.259	0.063
-543.266	-117.494	0.076	0.014
-542.252	86.650	-0.272	-0.299
-541.237	17.533	-0.168	-0.133
-540.223	240.057	0.131	0.217
-539.208	-103.243	0.188	0.044
-538.193	-63.947	-0.227	-0.093
-537.179	800.000	0.049	-0.204
-536.164	-200.000	-0.016	0.301
-535.150	-6.757	0.260	0.176
-534.135	120.472	-0.209	0.258
-533.121	333.833	-0.077	-0.148
-532.106	128.210	-0.130	-0.165
-531.091	-181.903	0.430	-0.008
-530.077	800.000	0.063	-0.226
-529.062	124.509	0.115	0.144
-528.048	54.140	-0.036	0.035
-527.033	-124.665	0.196	-0.030
-526.018	175.298	-0.033	-0.047
-525.004	-35.193	0.357	-0.194
-523.989	60.659	0.071	-0.070
-522.975	-82.985	0.290	-0.093
-521.960	70.787	0.099	0.102
-520.945	-114.165	-0.308	-0.059
-519.931	-128.481	0.375	0.053
-518.916	17.374	0.280	0.221
-517.902	140.360	0.156	0.205
-516.887	-129.632	-0.212	-0.029
-515.872	-200.000	-0.007	-0.236
-514.858	-43.622	-0.188	0.094
-513.843	-200.000	0.016	0.287
-512.829	800.000	0.051	-0.151
-511.814	800.000	-0.101	0.318
-510.799	222.013	0.071	-0.114
-509.785	-184.355	-0.347	-0.006
-508.770	-74.600	0.166	0.059
-507.756	-200.000	0.028	-0.204
-506.741	0.245	-0.225	0.159
-505.726	-92.640	-0.246	-0.069
-504.712	-77.801	0.525	-0.180
-503.697	-200.000	-0.002	0.041
-502.683	-138.272	-0.328	-0.036
-501.668	97.075	-0.158	-0.181
-500.653	126.074	-0.078	0.097
-499.639	139.047	0.138	-0.181
-498.624	-129.998	-0.213	0.029
-497.610	-36.400	-0.178	0.096
-496.595	800.000	0.043	0.177
-495.581	-104.753	-0.390	0.089
-494.566	606.519	-0.111	0.276
-493.551	55.872	-0.070	-0.068
-492.537	-200.000	-0.071	0.340
-491.522	-200.000	-0.005	0.072
-490.508	-200.000	-0.045	0.334
-489.493	-76.011	0.076	-0.027
-488.478	-162.817	-0.067	-0.003
-487.464	-200.000	0.047	0.326
-486.449	800.000	-0.067	0.238
-485.435	408.918	-0.089	0.188
-484.420	434.015	0.060	0.128
-483.405	800.000	-0.030	0.104
-482.391	-76.492	-0.314	-0.109
-481.376	-19.483	0.157	0.097
-480.362	382.575	-0.128	-0.261
-479.347	32.092	0.287	0.246
-478.332	-200.000	-0.026	0.112
-477.318	195.217	-0.148	-0.223
-476.303	-34.262	0.139	-0.076
-475.289	800.000	0.070	-0.284
-474.274	-107.783	-0.173	0.038
-473.259	-200.000	0.032	-0.201
-472.245	-200.000	-0.005	0.099
-471.230	-49.290	-0.320	0.152
-470.216	-200.000	0.021	0.308
-469.201	800.000	0.036	-0.100
-468.186	-122.977	0.444	-0.071
-467.172	345.618	0.114	0.222
-466.157	-84.806	-0.172	0.054
-465.143	-101.053	0.097	-0.024
-464.128	15.402	0.121	0.094
-463.113	-40.120	-0.318	-0.165
-462.099	-136.110	0.376	-0.044
-461.084	135.311	0.214	-0.277
-460.070	-166.553	0.068	0.003
-459.055	-104.790	0.040	-0.009
-458.040	28.338	0.238	-0.199
-457.026	-153.153	0.339	0.024
-456.011	299.968	0.148	0.271
-454.997	-124.585	0.138	-0.021
-453.982	-166.360	0.228	0.009
-452.968	-107.063	-0.284	-0.062
-451.953	-101.053	0.066	0.016
-450.938	744.065	0.016	0.042
-449.924	-63.921	-0.076	0.031
-448.909	56.257	-0.071	0.069
-447.895	227.738	0.158	0.255
-446.880	-26.804	-0.252	-0.146
-445.865	800.000	-0.019	-0.072
-444.851	292.446	-0.034	-0.062
-443.836	-94.241	-0.200	0.054
-442.822	102.065	0.168	-0.195
-441.807	-58.316	0.183	0.079
-440.792	192.296	-0.023	0.034
-439.778	620.963	-0.070	-0.175
-438.763	800.000	0.127	-0.349
-437.749	-72.956	0.096	-0.035
-436.734	-75.089	0.198	0.070
-435.719	-200.000	-0.002	0.270
-434.705	-200.000	0.084	-0.380
-433.690	800.000	-0.052	0.180
-432.676	433.922	-0.088	0.190
-431.661	-1.961	-0.379	-0.264
-430.646	-104.003	-0.173	-0.040
-429.632	800.000	0.070	0.193
-428.617	-14.854	-0.141	0.090
-427.603	8.322	-0.176	0.131
-426.588	76.135	-0.066	-0.069
-425.573	-96.264	-0.326	-0.086
-424.559	-92.477	0.369	0.103
-423.544	-89.891	0.363	-0.105
-422.530	-200.000	-0.039	0.246
-421.515	102.289	-0.144	-0.166
-420.500	-157.988	0.186	-0.011
-419.486	-163.916	0.042	-0.002
-418.471	611.113	0.051	-0.126
-417.457	191.429	-0.039	0.059
-416.442	88.360	-0.262	0.289
-415.428	800.000	-0.095	0.312
-414.413	-67.945	0.204	-0.079
-413.398	-200.000	0.029	-0.236
-412.384	276.483	-0.090	-0.158
-411.369	10.098	0.188	-0.142
-410.355	118.366	-0.014	0.018
-409.340	123.825	0.103	-0.128
-408.325	199.479	0.014	0.021
-407.311	-89.877	-0.250	0.072
-406.296	-16.273	0.244	-0.153
-405.282	732.460	0.115	-0.304
-404.267	-200.000	-0.008	0.089
-403.252	-200.000	0.026	-0.127
-402.238	-160.257	-0.349	0.019
-401.223	-200.000	-0.052	0.298
-400.209	-9.648	-0.352	-0.232
-399.194	145.864	0.174	0.231
-398.179	22.978	-0.079	-0.064
-397.165	203.231	0.103	-0.158
-396.150	-200.000	-0.069	-0.457
-395.136	-200.000	-0.097	-0.493
-394.121	-55.242	-0.304	0.135
-393.106	283.131	-0.164	0.291
-392.092	-200.000	0.065	-0.288
-391.077	800.000	0.058	-0.196
-390.063	175.083	0.091	0.131
-389.048	744.962	-0.073	0.194
-388.033	-200.000	0.023	0.173
-387.019	-35.015	0.134	-0.072
-386.004	-106.929	0.284	0.062
-384.990	-200.000	-0.021	-0.318
-383.975	-127.718	0.393	0.056
-382.960	-74.011	-0.114	-0.041
-381.946	-99.769	0.022	-0.006
-380.931	115.450	0.193	-0.233
-379.917	-148.803	-0.222	-0.018
-378.902	-200.000	0.038	-0.176
-377.888	-58.998	0.032	0.013
-376.873	-75.148	-0.114	-0.040
-375.858	800.000	0.042	-0.160
-374.844	-47.237	-0.184	0.089
-373.829	342.868	0.216	0.418
-372.815	-144.247	-0.381	0.035
-371.800	-19.009	-0.209	-0.129
-370.785	-71.445	0.188	-0.070
-369.771	593.937	0.066	0.162
-368.756	-95.854	0.340	0.090
-367.742	16.024	0.154	-0.120
-366.727	-200.000	0.028	0.578
-365.712	-93.340	0.091	-0.025
-364.698	-139.229	0.134	0.014
-363.683	-132.573	0.106	0.013
-362.669	81.447	-0.239	-0.255
-361.654	85.520	-0.153	-0.166
-360.639	-142.021	0.231	0.023
-359.625	21.851	-0.167	0.134
-358.610	322.804	-0.123	0.232
-357.596	-78.423	0.251	0.085
-356.581	800.000	0.065	-0.212
-355.566	-200.000	0.004	-0.035
-354.552	-158.235	-0.059	-0.003
-353.537	249.967	-0.054	-0.091
-352.523	-200.000	-0.058	-0.255
-351.508	149.058	-0.029	-0.039
-350.493	560.304	-0.021	0.050
-349.479	91.032	-0.167	0.186
-348.464	-68.513	-0.195	0.075
-347.450	203.096	-0.186	-0.285
-346.435	204.451	-0.043	-0.066
-345.420	-160.076	0.165	0.009
-344.406	-115.281	-0.225	-0.042
-343.391	73.205	-0.158	0.164
-342.377	19.560	-0.121	0.096
-341.362	-146.726	0.220	0.019
-340.348	800.000	0.016	0.047
-339.333	800.000	0.021	0.084
-338.318	-3.798	-0.138	0.094
-337.304	575.209	-0.018	0.044
-336.289	119.519	0.072	0.088
-335.275	-114.555	-0.146	0.028
-334.260	-49.054	0.295	-0.139
-333.245	365.146	0.048	0.096
-332.231	-1.583	0.113	-0.079
-331.216	-113.188	0.240	-0.047
-330.202	125.297	-0.221	0.276
-329.187	-200.000	-0.021	-0.123
-328.172	87.135	0.175	0.191
-327.158	-200.000	0.016	0.380
-326.143	29.334	0.191	0.160
-325.129	-17.877	0.250	0.155
-324.114	494.857	0.106	0.241
-323.099	72.714	-0.262	-0.270
-322.085	800.000	-0.050	-0.208
-321.070	-53.568	-0.042	0.019
-320.056	-3.739	0.170	-0.116
-319.041	-200.000	-0.017	-0.201
-318.026	137.942	0.044	-0.057
-317.012	37.865	-0.179	0.157
-315.997	442.231	0.122	-0.263
-314.983	800.000	0.017	-0.060
-313.968	-52.116	0.247	-0.113
-312.953	61.106	-0.306	0.300
-311.939	640.793	-0.032	0.080
-310.924	348.069	-0.150	-0.293
-309.910	-71.541	0.075	0.028
-308.895	-114.584	-0.144	0.027
-307.880	-3.502	-0.022	0.015
-306.866	425.688	-0.135	0.287
-305.851	169.217	0.205	0.289
-304.837	-99.267	0.092	0.023
-303.822	-71.814	0.076	-0.028
-302.807	593.087	0.097	0.237
-301.793	-78.971	0.266	-0.089
-300.778	800.000	-0.057	-0.225
-299.764	154.665	-0.118	-0.160
-298.749	-132.384	0.167	0.021
-297.735	-73.676	0.213	-0.077
-296.720	-63.665	-0.164	0.066
-295.705	-22.866	0.168	0.100
-294.691	-108.652	0.209	-0.044
-293.676	-63.375	-0.304	-0.124
-292.662	800.000	0.053	0.190
-291.647	48.551	-0.056	-0.052
-290.632	223.545	-0.171	0.272
-289.618	261.360	-0.188	0.322
-288.603	261.065	-0.082	0.140
-287.589	56.551	-0.082	0.079
-286.574	800.000	-0.067	0.283
-285.559	247.731	-0.177	0.294
-284.545	-113.160	-0.103	0.020
-283.530	210.358	0.090	0.140
-282.516	800.000	0.022	0.092
-281.501	164.784	0.115	-0.160
-280.486	800.000	0.077	-0.251
-279.472	-4.663	0.182	-0.124
-278.457	-80.142	0.096	0.032
-277.443	-59.815	-0.248	-0.104
-276.428	-200.000	-0.025	0.115
-275.413	27.890	0.349	-0.290
-274.399	53.904	0.086	-0.081
-273.384	-200.000	0.001	-0.121
-272.370	800.000	-0.023	-0.100
-271.355	-5.764	-0.296	-0.199
-270.340	272.451	-0.172	0.299
-269.326	-13.382	-0.251	-0.160
-268.311	-82.589	-0.042	-0.014
-267.297	-200.000	-0.028	0.317
-266.282	-58.185	-0.350	-0.150
-265.267	-55.955	-0.344	-0.151
-264.253	337.602	-0.078	-0.149
-263.238	-13.920	0.104	-0.066
-262.224	-15.502	0.234	-0.147
-261.209	-89.730	0.365	0.105
-260.195	800.000	0.068	-0.231
-259.180	-28.032	-0.246	-0.140
-258.165	285.298	0.102	0.181
-257.151	302.287	-0.110	0.201
-256.136	-200.000	0.012	-0.262
-255.122	-200.000	-0.032	-0.325
-254.107	-200.000	-0.009	0.163
-253.092	800.000	0.110	0.392
-252.078	336.285	0.091	0.174
-251.063	117.444	-0.281	-0.341
-250.049	325.827	0.052	-0.097
-249.034	1.180	-0.319	-0.225
-248.019	43.110	-0.117	0.105
-247.005	172.174	-0.039	0.055
-245.990	-47.181	-0.075	0.036
-244.976	17.607	0.083	-0.065
-243.961	-12.830	0.174	0.111
-242.946	800.000	-0.018	-0.072
-241.932	-200.000	-0.032	-0.146
-240.917	-104.628	-0.136	0.031
-239.903	469.201	-0.203	0.449
-238.888	800.000	0.090	0.323
-237.873	-77.295	0.192	-0.066
-236.859	99.059	0.102	-0.116
-235.844	-200.000	-0.014	-0.187
-234.830	800.000	0.093	-0.323
-233.815	-116.098	-0.158	-0.029
-232.800	-135.279	0.205	-0.024
-231.786	-4.012	-0.170	0.116
-230.771	-118.290	-0.106	0.019
-229.757	800.000	0.038	0.136
-228.742	21.986	0.088	-0.071
-227.727	-40.373	-0.288	-0.147
-226.713	124.455	0.109	-0.135
-225.698	26.755	0.381	0.314
-224.684	-200.000	-0.093	-0.000
-223.669	772.044	0.149	0.399
-222.655	-76.502	-0.192	0.066
-221.640	-72.872	-0.265	-0.096
-220.625	-200.000	0.082	0.439
-219.611	369.340	-0.007	-0.014
-218.596	-145.055	-0.031	-0.003
-217.582	559.705	-0.036	0.085
-216.567	620.022	-0.107	0.264
-215.552	-57.999	-0.208	-0.089
-214.538	800.000	0.043	0.171
-213.523	-200.000	0.017	-0.233
-212.509	-137.279	-0.159	-0.018
-211.494	800.000	-0.079	-0.235
-210.479	86.211	0.154	-0.166
-209.465	-4.642	0.262	-0.178
-208.450	113.515	-0.265	0.316
-207.436	-200.000	0.272	-0.000
-206.421	-200.000	-0.005	0.458
-205.406	710.503	0.007	0.018
-204.392	18.736	0.120	-0.095
-203.377	687.602	0.098	-0.253
-202.363	-200.000	-0.026	0.465
-201.348	-77.920	0.259	-0.088
-200.333	212.803	0.157	0.243
-199.319	83.181	-0.136	0.145
-198.304	800.000	0.152	-0.542
-197.290	55.637	-0.106	0.101
-196.275	-2.302	0.103	0.071
-195.260	-13.249	0.165	0.105
-194.246	-62.017	-0.054	0.022
-193.231	-163.204	0.421	0.020
-192.217	-95.723	0.197	0.052
-191.202	7.741	-0.245	0.181
-190.187	-200.000	-0.031	-0.139
-189.173	-106.344	0.207	0.046
-188.158	-135.503	0.219	-0.026
-187.144	-141.955	0.012	-0.001
-186.129	65.210	0.089	-0.088
-185.114	283.865	0.175	-0.310
-184.100	-78.254	0.095	-0.032
-183.085	-101.516	0.307	-0.073
-182.071	34.746	-0.269	-0.231
-181.056	186.267	-0.234	-0.342
-180.042	800.000	0.013	0.045
-179.027	-150.461	-0.143	0.011
-178.012	800.000	0.033	-0.111
-176.998	68.282	0.162	0.163
-175.983	-11.264	-0.132	0.085
-174.969	242.540	0.086	0.142
-173.954	-200.000	0.037	-0.250
-172.939	73.687	0.131	0.135
-171.925	-200.000	0.011	0.193
-170.910	178.414	0.175	-0.251
-169.896	-200.000	0.008	0.079
-168.881	-74.884	-0.339	-0.119
-167.866	-200.000	0.043	0.215
-166.852	-54.133	0.233	0.104
-165.837	204.027	0.015	-0.023
-164.823	-32.114	0.211	-0.116
-163.808	336.288	0.080	-0.153
-162.793	51.955	0.191	-0.179
-161.779	-39.237	0.304	-0.156
-160.764	-49.306	0.257	-0.120
-159.750	558.199	-0.040	-0.094
-158.735	-200.000	0.012	-0.210
-157.720	617.228	0.193	0.475
-156.706	-200.000	0.050	0.268
-155.691	-200.000	-0.050	-0.321
-154.677	800.000	-0.043	0.137
-153.662	-200.000	0.001	0.151
-152.647	-61.327	-0.108	-0.045
-151.633	-28.519	-0.067	0.038
-150.618	-200.000	0.004	-0.120
-149.604	800.000	-0.044	0.174
-148.589	800.000	-0.043	-0.145
-147.574	-117.826	0.162	-0.028
-146.560	10.101	-0.157	0.117
-145.545	-200.000	0.019	0.352
-144.531	-200.000	-0.015	0.115
-143.516	126.568	-0.235	0.292
-142.502	-155.626	-0.318	0.020
-141.487	-200.000	0.010	0.140
-140.472	23.613	-0.015	-0.012
-139.458	800.000	-0.118	-0.355
-138.443	29.379	-0.116	-0.096
-137.429	-109.638	-0.070	0.015
-136.414	-72.910	0.056	-0.020
-135.399	-28.880	0.134	0.075
-134.385	463.279	-0.097	0.212
-133.370	218.013	0.147	0.230
-132.356	-128.102	-0.351	0.049
-131.341	21.261	0.281	0.224
-130.326	-176.230	-0.330	-0.008
-129.312	-200.000	-0.014	-0.063
-128.297	-200.000	-0.015	-0.078
-127.283	404.807	0.028	-0.059
-126.268	674.048	-0.030	0.077
-125.253	-200.000	-0.024	0.104
-124.239	-1.782	-0.108	0.075
-123.224	-145.797	0.276	0.024
-122.210	165.046	-0.103	-0.143
-121.195	310.312	0.058	-0.107
-120.180	-200.000	0.011	-0.210
-119.166	-18.375	-0.206	-0.126
-118.151	-79.499	-0.145	-0.048
-117.137	66.968	0.078	0.078
-116.122	-200.000	0.003	0.069
-115.107	-131.082	-0.227	0.030
-114.093	800.000	0.037	0.126
-113.078	110.196	-0.134	0.158
-112.064	-125.187	0.440	-0.066
-111.049	299.147	0.105	0.189
-110.034	-142.781	-0.264	0.025
-109.020	172.160	-0.169	0.238
-108.005	-71.943	0.066	0.024
-106.991	800.000	0.071	0.215
-105.976	367.096	0.128	0.253
-104.962	-31.019	0.228	-0.126
-103.947	12.922	-0.031	0.023
-102.932	-33.961	-0.416	-0.224
-101.918	-34.233	0.302	-0.162
-100.903	-25.259	0.265	-0.154
-99.889	-78.690	0.104	0.035
-98.874	86.282	-0.163	-0.176
-97.859	-200.000	-0.008	-0.144
-96.845	788.349	-0.059	-0.158
-95.830	402.595	-0.025	-0.051
-94.816	800.000	-0.075	-0.238
-93.801	275.937	-0.141	-0.245
-92.786	683.415	-0.180	0.459
-91.772	-200.000	0.020	0.272
-90.757	-124.281	0.076	0.012
-89.743	291.515	0.200	0.356
-88.728	-105.047	-0.068	-0.015
-87.713	800.000	-0.097	-0.336
-86.699	800.000	-0.044	-0.188
-85.684	237.768	-0.132	0.214
-84.670	-137.019	0.126	-0.014
-83.655	4.770	-0.151	-0.109
-82.640	-64.467	-0.168	0.067
-81.626	221.382	-0.200	-0.315
-80.611	129.440	0.147	-0.183
-79.597	33.010	0.119	0.101
-78.582	-200.000	0.006	-0.025
-77.567	-96.046	-0.254	-0.066
-76.553	-156.735	-0.273	0.016
-75.538	-136.873	-0.158	0.018
-74.524	800.000	-0.039	0.138
-73.509	90.901	-0.146	0.160
-72.494	136.501	0.083	-0.105
-71.480	-175.735	0.277	-0.007
-70.465	-27.520	0.217	0.124
-69.451	8.051	-0.262	0.192
-68.436	-145.494	0.056	0.005
-67.422	21.246	-0.500	0.397
-66.407	-200.000	0.005	0.189
-65.392	230.329	0.101	0.161
-64.378	800.000	-0.022	-0.078
-63.363	-43.882	0.340	0.167
-62.349	283.624	0.142	0.249
-61.334	36.292	-1.223	-1.053
-60.319	26.639	0.542	0.444
-59.305	197.346	-0.762	-1.136
-58.290	200.611	0.891	1.339
-57.276	-200.000	-0.039	1.598
-56.261	-200.000	116.261	646.970
-55.246	507.748	1539.810	3491.811
-54.232	174.323	2720.729	3842.535
-53.217	99.064	2298.438	2594.006
-52.203	35.493	1904.897	1633.581
-51.188	29.575	1696.822	1410.057
-50.173	27.248	1655.145	1358.019
-49.159	47.825	1712.484	1561.958
-48.144	46.500	1725.810	1563.994
-47.130	29.115	1683.333	1395.141
-46.115	26.646	1668.808	1364.475
-45.100	26.430	1664.308	1359.120
-44.086	26.445	1661.636	1356.998
-43.071	26.419	1659.088	1354.671
-42.057	26.485	1656.602	1353.079
-41.042	26.445	1654.067	1350.655
-40.027	26.350	1652.639	1348.728
-39.013	26.424	1650.264	1347.287
-37.998	26.353	1648.961	1345.640
-36.984	26.381	1647.707	1344.775
-35.969	26.527	1646.092	1344.484
-34.954	26.443	1645.041	1342.948
-33.940	26.467	1642.962	1341.376
-32.925	26.530	1641.222	1340.374
-31.911	26.509	1639.293	1338.585
-30.896	26.477	1637.905	1337.166
-29.881	26.519	1636.382	1336.179
-28.867	26.457	1635.093	1334.610
-27.852	26.515	1633.385	1333.594
-26.838	26.520	1632.047	1332.488
-25.823	26.474	1630.634	1330.937
-24.809	26.561	1629.419	1330.539
-23.794	26.501	1628.146	1329.001
-22.779	26.459	1626.433	1327.245
-21.765	26.516	1624.546	1326.069
-20.750	26.433	1622.865	1324.033
-19.736	26.514	1622.096	1323.947
-18.721	26.540	1620.323	1322.637
-17.706	26.528	1618.435	1320.957
-16.692	26.510	1617.037	1319.636
-15.677	26.552	1615.775	1318.856
-14.663	26.507	1614.837	1317.711
-13.648	26.651	1613.050	1317.251
-12.633	26.559	1611.616	1315.354
-11.619	26.563	1609.371	1313.503
-10.604	26.547	1608.643	1312.742
-9.590	26.555	1606.760	1311.209
-8.575	26.608	1605.291	1310.337
-7.560	26.523	1604.315	1308.880
-6.546	26.548	1603.178	1308.080
-5.531	26.473	1602.372	1306.826
-4.517	26.452	1601.374	1305.809
-3.502	26.567	1600.148	1305.586
-2.487	26.606	1598.202	1304.232
-1.473	26.294	1586.234	1292.181
-0.458	23.523	1567.571	1257.312
0.556	20.985	1569.435	1227.187
1.571	18.701	1593.851	1229.825
2.586	18.320	1606.038	1236.369
3.600	16.210	1550.626	1178.880
4.615	9.562	1442.008	1052.877
5.629	4.074	1383.265	975.410
6.644	3.272	1376.155	965.285
7.659	3.198	1374.737	963.742
8.673	3.204	1373.705	962.972
9.688	3.245	1371.530	961.619
10.702	3.187	1368.672	959.165
11.717	5.684	1373.075	977.763
12.731	12.817	1386.496	1032.046
13.746	18.955	1396.613	1078.085
14.761	20.245	1397.717	1086.929
15.775	19.673	1395.818	1081.775
16.790	18.749	1392.936	1073.673
17.804	17.894	1391.004	1066.745
18.819	17.510	1390.011	1063.496
19.834	17.424	1388.491	1061.699
20.848	17.244	1387.087	1059.410
21.863	17.001	1386.240	1057.157
22.877	16.939	1385.269	1055.934
23.892	16.866	1384.309	1054.658
24.907	16.859	1382.984	1053.511
25.921	16.895	1382.542	1053.304
26.936	16.963	1381.441	1052.794
27.950	16.927	1380.604	1051.842
28.965	16.920	1379.431	1050.806
29.980	17.162	1378.635	1051.611
30.994	17.207	1377.295	1050.770
32.009	17.250	1376.226	1050.127
33.023	17.238	1374.956	1048.992
34.038	17.175	1373.444	1047.355
35.053	17.034	1372.064	1045.342
36.067	17.121	1371.180	1045.111
37.082	17.033	1370.629	1044.063
38.096	17.085	1369.719	1043.595
39.111	17.133	1368.714	1043.030
40.126	16.997	1367.978	1041.542
41.140	16.880	1366.716	1039.772
42.155	16.734	1366.117	1038.327
43.169	16.688	1365.957	1037.835
44.184	16.622	1365.800	1037.216
45.199	16.662	1365.300	1036.990
46.213	16.868	1364.802	1037.785
47.228	17.058	1363.664	1037.986
48.242	17.036	1362.692	1037.020
49.257	16.947	1361.082	1035.161
50.271	16.959	1360.075	1034.380
51.286	16.926	1358.299	1032.736
52.301	17.019	1356.815	1032.082
53.315	16.907	1355.784	1030.526
54.330	16.819	1354.718	1029.089
55.344	16.788	1353.764	1028.087
56.359	16.771	1352.288	1026.771
57.374	16.753	1351.650	1026.087
58.388	16.762	1350.412	1025.111
59.403	16.635	1351.127	1024.792
60.417	16.625	1349.700	1023.559
61.432	16.605	1348.908	1022.747
62.447	16.495	1347.664	1021.047
63.461	16.542	1346.606	1020.443
64.476	16.500	1345.520	1019.276
65.490	16.443	1344.394	1017.988
66.505	16.576	1342.626	1017.358
67.520	16.557	1341.459	1016.272
68.534	16.616	1340.297	1015.653
69.549	16.553	1339.098	1014.280
70.563	16.497	1338.518	1013.411
71.578	16.313	1337.782	1011.666
72.593	16.384	1336.205	1010.805
73.607	16.371	1335.608	1010.188
74.622	16.362	1334.899	1009.511
75.636	16.420	1334.438	1009.415
76.651	16.354	1334.051	1008.638
77.666	16.476	1332.887	1008.402
78.680	16.536	1332.509	1008.380
79.695	16.558	1331.815	1007.897
80.709	16.568	1331.197	1007.400
81.724	16.573	1330.547	1006.848
82.739	16.730	1329.675	1007.033
83.753	16.877	1328.988	1007.298
84.768	17.029	1327.794	1007.209
85.782	17.212	1326.325	1007.089
86.797	17.061	1325.494	1005.472
87.812	16.979	1324.404	1004.070
88.826	17.032	1323.179	1003.371
89.841	17.024	1321.955	1002.303
90.855	17.062	1320.854	1001.602
91.870	17.106	1320.450	1001.471
92.884	17.131	1319.424	1000.750
93.899	17.155	1318.445	1000.061
94.914	17.143	1318.026	999.585
95.928	17.171	1316.910	998.816
96.943	17.206	1316.084	998.306
97.957	17.061	1315.212	996.705
98.972	17.012	1314.252	995.598
99.987	17.134	1313.010	995.285
101.001	17.090	1311.551	993.832
102.016	17.073	1310.805	993.080
103.030	17.211	1309.825	993.060
104.045	16.958	1309.576	991.303
105.060	16.918	1307.766	989.609
106.074	16.816	1306.260	987.791
107.089	16.639	1304.551	985.381
108.103	16.617	1303.671	984.500
109.118	16.576	1302.248	983.099
110.133	16.567	1300.946	981.976
111.147	16.637	1299.311	981.065
112.162	16.599	1298.330	980.016
113.176	16.685	1297.032	979.447
114.191	16.695	1296.355	978.906
115.206	16.707	1295.326	978.110
116.220	16.697	1294.192	977.109
117.235	16.622	1293.302	975.919
118.249	16.631	1291.700	974.677
119.264	16.504	1290.991	973.325
120.279	16.594	1289.639	972.736
121.293	16.577	1288.566	971.743
122.308	16.495	1287.424	970.324
123.322	16.501	1286.113	969.284
124.337	16.411	1285.439	968.180
125.352	16.440	1284.421	967.488
126.366	16.447	1283.362	966.646
127.381	16.467	1282.381	965.938
128.395	16.319	1281.390	964.260
129.410	16.435	1280.575	964.223
130.424	16.650	1279.476	964.535
131.439	16.702	1278.443	963.969
132.454	16.754	1277.809	963.702
133.468	16.670	1276.970	962.502
134.483	16.705	1275.999	961.886
135.497	16.679	1275.340	961.156
136.512	16.676	1273.860	959.941
137.527	16.751	1272.325	959.124
138.541	16.814	1270.796	958.240
139.556	16.804	1270.066	957.548
140.570	16.811	1269.612	957.163
141.585	16.982	1267.861	956.725
142.600	17.096	1266.644	956.362
143.614	17.047	1266.146	955.628
144.629	17.152	1264.721	955.055
145.643	17.086	1264.031	954.081
146.658	17.072	1262.353	952.651
147.673	16.882	1261.427	950.800
148.687	16.793	1260.055	949.183
149.702	16.783	1258.703	948.025
150.716	16.743	1257.675	946.945
151.731	16.736	1256.338	945.815
152.746	16.852	1255.360	945.644
153.760	16.952	1253.956	945.056
154.775	16.978	1252.967	944.372
155.789	16.966	1251.976	943.474
156.804	16.973	1250.910	942.627
157.819	17.053	1250.057	942.346
158.833	17.120	1249.027	941.857
159.848	17.293	1248.442	942.294
160.862	17.254	1247.312	941.141
161.877	17.101	1245.913	939.154
162.892	16.964	1244.832	937.497
163.906	16.875	1243.946	936.258
164.921	16.880	1243.193	935.639
165.935	16.903	1242.204	934.938
166.950	16.993	1241.695	934.969
167.964	16.868	1241.087	933.736
168.979	17.041	1239.817	933.650
169.994	17.076	1239.024	933.164
171.008	17.002	1238.397	932.200
172.023	17.006	1238.020	931.857
173.037	17.232	1237.054	932.291
174.052	17.237	1235.645	931.169
175.067	16.980	1234.576	928.877
176.081	16.913	1233.620	927.709
177.096	16.953	1233.288	927.598
178.110	16.965	1232.069	926.663
179.125	17.047	1230.653	925.964
180.140	17.030	1229.349	924.809
181.154	17.113	1228.478	924.521
182.169	17.204	1227.014	923.833
183.183	17.250	1226.017	923.251
184.198	17.285	1224.954	922.557
185.213	17.235	1223.948	921.451
186.227	17.410	1222.276	921.056
187.242	17.380	1222.020	920.620
188.256	17.444	1221.653	920.609
189.271	17.420	1220.234	919.328
190.286	17.219	1219.002	917.230
191.300	16.898	1217.738	914.471
192.315	16.904	1216.733	913.664
193.329	16.847	1216.525	913.122
194.344	17.064	1215.604	913.519
195.359	17.068	1215.620	913.471
196.373	17.225	1214.588	913.460
197.388	17.232	1214.706	913.506
198.402	17.361	1214.183	913.722
199.417	17.548	1213.840	914.387
200.432	17.512	1212.761	913.302
201.446	17.624	1212.213	913.409
202.461	17.639	1210.995	912.490
203.475	17.674	1209.735	911.645
204.490	17.478	1208.517	909.601
205.504	17.517	1206.672	908.341
206.519	17.518	1205.685	907.520
207.534	17.400	1204.791	906.138
208.548	17.358	1204.341	905.500
209.563	17.440	1203.517	905.236
210.577	17.403	1202.241	903.998
211.592	17.457	1201.487	903.637
212.607	17.634	1200.708	903.911
213.621	17.761	1199.871	903.872
214.636	17.637	1198.974	902.462
215.650	17.742	1197.863	902.100
216.665	17.663	1197.506	901.335
217.680	17.742	1196.884	901.206
218.694	17.950	1195.447	901.142
219.709	17.832	1195.091	900.167
220.723	17.734	1194.251	898.938
221.738	17.744	1193.487	898.341
222.753	17.718	1192.465	897.353
223.767	17.779	1192.061	897.291
224.782	17.796	1191.823	897.124
225.796	18.000	1190.779	897.327
226.811	17.947	1190.112	896.468
227.826	17.882	1188.669	894.959
228.840	17.866	1188.320	894.535
229.855	17.752	1187.918	893.554
230.869	17.848	1187.019	893.305
231.884	17.707	1186.396	892.017
232.899	17.654	1185.529	891.011
233.913	17.723	1184.577	890.577
234.928	17.676	1183.345	889.324
235.942	17.569	1182.742	888.234
236.957	17.671	1181.591	887.824
237.972	17.694	1181.073	887.475
238.986	17.779	1180.622	887.498
240.001	17.725	1179.417	886.238
241.015	17.773	1178.793	885.936
242.030	17.706	1178.471	885.269
243.045	17.820	1177.488	885.046
244.059	17.927	1176.376	884.684
245.074	17.970	1175.744	884.356
246.088	18.004	1175.035	883.919
247.103	17.917	1174.609	883.067
248.117	18.075	1173.752	883.163
249.132	18.172	1173.173	883.150
250.147	18.338	1172.853	883.686
251.161	18.422	1172.101	883.477
252.176	18.421	1171.748	883.127
253.190	18.407	1170.721	882.201
254.205	18.556	1170.488	882.715
255.220	18.550	1169.581	881.921
256.234	18.545	1169.000	881.379
257.249	18.558	1168.290	880.835
258.263	18.456	1167.870	879.916
259.278	18.584	1166.817	879.700
260.293	18.632	1166.548	879.669
261.307	18.623	1165.950	879.090
262.322	18.660	1165.356	878.756
263.336	18.702	1164.360	878.141
264.351	18.771	1163.672	877.899
265.366	18.688	1163.406	877.195
266.380	18.599	1162.720	876.148
267.395	18.797	1161.282	875.998
268.409	18.503	1160.839	874.083
269.424	18.593	1160.218	873.997
270.439	18.739	1159.682	874.258
271.453	18.463	1159.059	872.308
272.468	18.400	1157.971	871.090
273.482	18.570	1156.738	870.949
274.497	18.580	1156.392	870.663
275.512	18.690	1155.519	870.487
276.526	18.382	1155.472	868.815
277.541	18.523	1154.463	868.693
278.555	18.565	1153.768	868.307
279.570	18.761	1152.977	868.627
280.585	18.724	1152.463	867.976
281.599	18.764	1150.932	866.947
282.614	18.726	1150.196	866.123
283.628	18.613	1148.897	864.498
284.643	18.538	1148.549	863.780
285.657	18.681	1147.348	863.523
286.672	18.645	1146.383	862.538
287.687	18.713	1145.562	862.188
288.701	18.744	1144.632	861.566
289.716	18.872	1143.889	861.571
290.730	18.794	1143.137	860.541
291.745	18.680	1142.844	859.671
292.760	18.821	1142.144	859.772
293.774	18.803	1142.031	859.525
294.789	18.864	1141.558	859.396
295.803	18.915	1140.566	858.827
296.818	18.794	1139.832	857.594
297.833	18.759	1138.956	856.684
298.847	18.894	1137.819	856.426
299.862	18.829	1137.167	855.537
300.876	18.817	1136.709	855.059
301.891	18.930	1135.823	854.875
302.906	19.085	1134.985	854.938
303.920	19.170	1134.599	854.995
304.935	19.320	1133.705	854.989
305.949	19.305	1133.589	854.752
306.964	19.312	1132.763	854.089
307.979	19.134	1132.017	852.571
308.993	19.125	1131.073	851.737
310.008	19.145	1130.452	851.292
311.022	19.272	1129.714	851.292
312.037	19.220	1128.802	850.273
313.052	19.155	1127.469	848.872
314.066	19.073	1126.718	847.829
315.081	18.941	1125.660	846.306
316.095	18.917	1125.220	845.784
317.110	19.030	1124.424	845.665
318.125	19.005	1123.284	844.612
319.139	18.880	1122.924	843.651
320.154	19.009	1122.164	843.638
321.168	18.956	1121.597	842.876
322.183	19.037	1120.877	842.660
323.197	19.154	1120.503	842.876
324.212	19.097	1119.695	841.913
325.227	19.046	1119.162	841.188
326.241	19.111	1118.540	840.966
327.256	19.009	1117.957	839.955
328.270	19.096	1116.563	839.257
329.285	18.948	1116.115	838.127
330.300	19.070	1114.558	837.474
331.314	19.055	1114.122	837.001
332.329	19.177	1112.798	836.524
333.343	19.063	1112.169	835.424
334.358	19.198	1111.731	835.679
335.373	19.257	1111.149	835.450
336.387	19.303	1110.087	834.803
337.402	19.314	1109.262	834.158
338.416	19.357	1108.623	833.817
339.431	19.478	1108.081	833.915
340.446	19.471	1107.885	833.661
341.460	19.665	1107.019	833.875
342.475	19.675	1105.988	833.071
343.489	19.628	1105.633	832.504
344.504	19.729	1104.246	831.870
345.519	19.761	1103.524	831.409
346.533	19.879	1102.738	831.311
347.548	19.869	1102.009	830.636
348.562	19.792	1101.058	829.479
349.577	19.627	1100.411	828.124
350.592	19.465	1099.822	826.835
351.606	19.447	1099.174	826.185
352.621	19.483	1098.213	825.564
353.635	19.399	1097.207	824.334
354.650	19.507	1096.473	824.227
355.665	19.503	1095.671	823.532
356.679	19.566	1095.263	823.449
357.694	19.552	1094.959	823.084
358.708	19.789	1094.005	823.421
359.723	19.646	1093.395	822.210
360.738	19.568	1092.920	821.409
361.752	19.679	1092.464	821.519
362.767	19.737	1091.922	821.314
363.781	19.700	1091.171	820.502
364.796	19.827	1090.738	820.709
365.810	19.947	1090.088	820.715
366.825	20.032	1089.616	820.689
367.840	20.091	1089.313	820.669
368.854	20.190	1088.391	820.367
369.869	20.070	1087.932	819.383
370.883	20.005	1086.905	818.229
371.898	19.971	1086.123	817.410
372.913	19.989	1085.287	816.791
373.927	20.025	1085.031	816.698
374.942	20.062	1084.488	816.391
375.956	20.114	1083.866	816.096
376.971	20.021	1083.474	815.290
377.986	20.190	1082.778	815.487
379.000	20.233	1082.563	815.456
380.015	20.264	1081.785	814.943
381.029	20.201	1081.111	814.067
382.044	20.282	1080.413	813.849
383.059	20.327	1079.450	813.263
384.073	20.389	1078.680	812.902
385.088	20.377	1077.812	812.118
386.102	20.320	1076.834	811.045
387.117	20.220	1075.752	809.689
388.132	20.136	1074.615	808.371
389.146	20.171	1073.754	807.816
390.161	20.175	1073.111	807.277
391.175	19.993	1072.830	806.148
392.190	20.047	1072.008	805.709
393.205	20.300	1071.275	806.262
394.219	20.353	1070.794	806.076
395.234	20.215	1069.755	804.584
396.248	20.199	1068.443	803.450
397.263	20.123	1067.357	802.210
398.278	20.089	1066.874	801.621
399.292	20.107	1065.765	800.799
400.307	20.061	1065.172	800.073
401.321	20.114	1064.566	799.791
402.336	20.051	1064.009	799.007
403.350	20.117	1063.298	798.708
404.365	20.139	1062.637	798.244
405.380	20.112	1062.060	797.615
406.394	20.274	1061.021	797.510
407.409	20.469	1060.390	797.858
408.423	20.521	1059.865	797.633
409.438	20.557	1059.277	797.285
410.453	20.573	1058.832	796.955
411.467	20.606	1057.775	796.237
412.482	20.685	1057.242	796.126
413.496	20.755	1056.318	795.679
414.511	20.695	1056.387	795.386
415.526	20.962	1055.251	795.683
416.540	20.886	1055.118	795.163
417.555	20.871	1054.877	794.844
418.569	20.755	1054.148	793.694
419.584	20.753	1053.688	793.268
420.599	20.827	1053.144	793.125
421.613	155.523	1404.096	1797.028
422.628	142.728	1455.208	1797.124
