DTS Sentinel unit serial number:	SN413079Multiplexer serial number:	ORYXHardware model number:	OX4-SRSoftware version number:	ORYX F/W v4.00 Oryx Data Collector v3.7.2.0data status	okinstallation	princeton_trtdifferential loss correction	single-endedforward channel	channel 2reverse channel	N/Adate	2019/09/11time	14:25:10forward acquisition time	60.00reverse acquisition time	0.00gamma	496.2192k internal	0.2291k external	0.2291temperature offset calibration	1.0008default loss term (dB/km)	0.3790temperature slope calibration	1.0000multiplexer offset coefficient	1.0000multiplexer slope coefficient	1.0000fibre end	0.00T internal ref (°C)	42.09T ext. ref 1 (°C)	0.87T ext. ref 2 (°C)	37.08length (m)	temperature (°C)	Stokes	anti-Stokes-747.200	289.994	-0.141	0.262
-746.185	-107.577	0.091	0.020
-745.171	800.000	-0.041	-0.174
-744.156	-46.596	0.117	0.059
-743.142	800.000	-0.068	-0.222
-742.127	436.521	-0.256	0.570
-741.112	226.423	0.072	-0.119
-740.098	69.585	-0.282	0.297
-739.083	-200.000	0.016	-0.099
-738.069	13.994	0.443	0.353
-737.054	-200.000	0.007	0.276
-736.039	6.390	-0.156	-0.119
-735.025	-200.000	-0.009	0.079
-734.010	-200.000	0.012	-0.059
-732.996	-141.047	-0.400	-0.042
-731.981	-200.000	-0.017	0.207
-730.966	132.287	-0.094	-0.124
-729.952	-200.000	0.032	0.171
-728.937	14.114	0.182	-0.145
-727.923	-164.099	0.104	0.005
-726.908	-200.000	0.003	-0.153
-725.894	-123.963	-0.339	-0.055
-724.879	800.000	-0.045	-0.139
-723.864	9.376	-0.248	0.192
-722.850	800.000	-0.082	0.234
-721.835	58.178	-0.219	0.219
-720.821	800.000	-0.071	-0.266
-719.806	93.622	-0.124	-0.144
-718.791	-146.657	-0.149	-0.013
-717.777	-128.535	-0.077	-0.011
-716.762	-200.000	-0.029	-0.346
-715.748	-60.577	-0.219	-0.095
-714.733	4.748	-0.166	0.124
-713.718	197.228	0.080	-0.125
-712.704	-73.815	-0.161	-0.060
-711.689	-119.324	0.330	-0.059
-710.675	800.000	-0.090	-0.287
-709.660	528.716	-0.084	-0.204
-708.645	208.256	0.198	-0.316
-707.631	54.809	0.093	-0.091
-706.616	-16.332	-0.256	-0.166
-705.602	31.903	-0.026	0.023
-704.587	202.856	0.132	-0.208
-703.572	-90.486	0.196	-0.058
-702.558	-144.915	0.242	0.023
-701.543	-200.000	0.000	-0.118
-700.529	-40.741	0.028	0.015
-699.514	-82.839	0.332	0.110
-698.499	-49.146	0.118	0.058
-697.485	-116.331	-0.333	-0.063
-696.470	21.850	0.070	-0.058
-695.456	800.000	-0.048	-0.139
-694.441	800.000	0.084	-0.271
-693.426	800.000	-0.119	0.399
-692.412	-1.779	-0.084	0.061
-691.397	-116.623	-0.299	0.056
-690.383	-156.773	-0.278	-0.017
-689.368	737.962	-0.029	-0.079
-688.354	-26.669	0.269	-0.161
-687.339	-25.814	-0.189	-0.114
-686.324	-9.418	-0.294	-0.201
-685.310	-158.679	-0.156	-0.009
-684.295	-145.696	0.143	0.013
-683.281	-13.457	-0.170	-0.112
-682.266	-200.000	0.010	-0.212
-681.251	-200.000	0.020	-0.301
-680.237	-200.000	-0.013	-0.202
-679.222	-29.988	0.043	-0.025
-678.208	-95.753	0.011	0.003
-677.193	277.921	0.163	-0.296
-676.178	45.677	-0.075	-0.071
-675.164	-200.000	-0.002	0.133
-674.149	800.000	-0.044	-0.183
-673.135	-120.309	0.139	-0.024
-672.120	-40.058	-0.195	0.104
-671.105	38.609	0.190	-0.173
-670.091	28.425	-0.211	-0.182
-669.076	-20.245	-0.096	-0.061
-668.062	11.806	-0.081	0.063
-667.047	213.589	-0.118	0.191
-666.032	-200.000	-0.010	0.066
-665.018	12.020	-0.048	-0.037
-664.003	479.178	-0.110	0.254
-662.989	205.630	-0.088	-0.139
-661.974	-149.788	0.252	-0.020
-660.959	-66.354	0.304	-0.123
-659.945	-112.801	0.192	-0.039
-658.930	-104.661	0.150	-0.035
-657.916	-19.113	-0.098	-0.062
-656.901	-70.859	0.259	-0.100
-655.886	-89.109	-0.159	0.048
-654.872	-42.466	-0.079	-0.041
-653.857	192.904	0.132	0.204
-652.843	143.212	0.156	-0.211
-651.828	-73.909	0.152	0.056
-650.814	28.119	-0.217	-0.187
-649.799	-200.000	-0.081	0.625
-648.784	-200.000	-0.011	-0.213
-647.770	141.251	-0.138	-0.187
-646.755	-30.622	0.407	-0.235
-645.741	-200.000	0.005	-0.056
-644.726	31.539	-0.086	-0.075
-643.711	-69.260	-0.042	0.016
-642.697	116.125	0.216	-0.270
-641.682	272.032	-0.120	0.216
-640.668	-71.528	0.143	-0.055
-639.653	74.754	-0.251	-0.270
-638.638	800.000	0.110	-0.375
-637.624	-63.593	0.275	-0.115
-636.609	-12.443	0.244	0.163
-635.595	800.000	0.079	0.285
-634.580	-30.519	-0.330	0.191
-633.565	140.628	0.046	-0.062
-632.551	-57.688	-0.072	0.032
-631.536	8.327	0.125	-0.096
-630.522	-69.268	0.079	-0.031
-629.507	-200.000	-0.022	0.104
-628.492	-200.000	-0.008	0.102
-627.478	-95.886	0.058	0.016
-626.463	-60.339	-0.379	0.165
-625.449	-200.000	0.050	-0.385
-624.434	800.000	0.019	0.063
-623.419	-200.000	0.013	-0.072
-622.405	22.806	-0.330	0.275
-621.390	80.089	0.125	0.137
-620.376	10.061	-0.111	-0.086
-619.361	313.247	0.050	0.096
-618.346	800.000	0.058	0.247
-617.332	469.841	0.152	0.348
-616.317	-131.415	-0.111	0.015
-615.303	-102.132	-0.139	0.034
-614.288	64.034	-0.078	0.080
-613.273	-157.588	-0.144	-0.009
-612.259	-85.689	0.095	-0.030
-611.244	273.139	-0.196	-0.353
-610.230	-200.000	0.007	-0.063
-609.215	535.834	-0.131	-0.318
-608.201	150.788	-0.214	-0.296
-607.186	-200.000	0.038	-0.265
-606.171	-200.000	0.029	-0.274
-605.157	30.153	0.231	-0.200
-604.142	111.223	0.110	0.135
-603.128	-52.025	-0.092	-0.043
-602.113	118.530	-0.173	0.217
-601.098	-102.673	0.096	-0.023
-600.084	-94.778	0.151	-0.042
-599.069	355.670	0.059	-0.120
-598.055	-67.098	0.176	0.071
-597.040	-127.163	0.074	0.011
-596.025	-34.231	0.039	0.022
-595.011	156.895	0.181	0.254
-593.996	800.000	0.034	-0.105
-592.982	-67.187	0.190	0.076
-591.967	-47.925	-0.373	0.184
-590.952	171.883	-0.075	-0.110
-589.938	-200.000	0.045	-0.263
-588.923	-200.000	-0.028	-0.153
-587.909	800.000	-0.080	-0.311
-586.894	-90.971	-0.069	0.020
-585.879	-200.000	0.031	-0.354
-584.865	367.841	-0.153	0.314
-583.850	40.156	0.279	-0.256
-582.836	-200.000	0.035	-0.329
-581.821	-19.844	-0.153	0.096
-580.806	-145.969	-0.156	0.014
-579.792	-200.000	-0.010	0.177
-578.777	-155.995	0.101	0.007
-577.763	405.149	-0.076	-0.164
-576.748	-200.000	-0.017	-0.553
-575.733	-200.000	0.029	-0.218
-574.719	-54.610	0.208	-0.096
-573.704	-53.697	0.202	-0.094
-572.690	-91.073	-0.165	-0.048
-571.675	244.736	0.206	0.353
-570.661	-72.878	-0.073	-0.027
-569.646	800.000	0.036	0.112
-568.631	133.560	0.060	-0.079
-567.617	221.218	0.097	0.159
-566.602	-41.610	0.262	0.137
-565.588	40.587	0.043	-0.039
-564.573	-149.467	0.311	-0.025
-563.558	427.559	0.190	0.418
-562.544	14.233	0.192	0.152
-561.529	-81.684	-0.067	-0.022
-560.515	-200.000	-0.016	0.094
-559.500	-15.811	-0.308	0.199
-558.485	-2.811	-0.294	0.209
-557.471	64.626	-0.188	0.193
-556.456	800.000	-0.126	-0.386
-555.442	226.090	-0.153	0.252
-554.427	-180.323	0.266	-0.006
-553.412	-68.863	0.328	-0.129
-552.398	-104.441	0.228	-0.054
-551.383	-166.757	-0.077	-0.003
-550.369	46.362	0.218	0.206
-549.354	-102.255	-0.226	-0.055
-548.339	-162.240	0.240	-0.012
-547.325	-95.698	0.219	0.059
-546.310	119.140	0.318	0.400
-545.296	-35.930	-0.258	0.142
-544.281	-164.639	-0.113	0.005
-543.266	800.000	-0.025	0.074
-542.252	-102.568	-0.199	0.048
-541.237	800.000	0.039	-0.136
-540.223	-200.000	0.015	0.200
-539.208	-200.000	0.034	-0.216
-538.193	-10.826	-0.177	0.119
-537.179	-104.276	-0.289	0.068
-536.164	262.704	0.078	-0.137
-535.150	153.685	0.231	-0.322
-534.135	93.122	-0.186	0.214
-533.121	-154.028	0.174	0.012
-532.106	-200.000	-0.042	0.349
-531.091	-35.055	-0.264	0.146
-530.077	305.834	-0.050	-0.095
-529.062	72.808	-0.132	-0.140
-528.048	-76.043	-0.268	-0.096
-527.033	10.431	0.152	0.117
-526.018	-64.559	-0.243	-0.100
-525.004	-200.000	-0.042	-0.393
-523.989	-200.000	-0.019	-0.314
-522.975	-200.000	-0.029	0.171
-521.960	-182.929	0.382	0.007
-520.945	39.936	0.061	-0.055
-519.931	-200.000	0.000	-0.016
-518.916	-118.571	-0.129	0.023
-517.902	-99.267	-0.228	-0.058
-516.887	356.098	-0.070	0.141
-515.872	-200.000	0.012	0.457
-514.858	800.000	0.050	-0.161
-513.843	78.632	-0.210	0.228
-512.829	592.638	0.035	0.087
-511.814	-104.105	0.127	-0.030
-510.799	184.904	-0.163	0.245
-509.785	-200.000	-0.012	-0.137
-508.770	-119.046	-0.189	0.034
-507.756	800.000	0.125	0.449
-506.741	800.000	-0.036	0.129
-505.726	195.639	-0.111	0.171
-504.712	19.084	0.169	0.138
-503.697	-200.000	-0.013	0.124
-502.683	-15.745	0.565	-0.365
-501.668	-200.000	0.057	-0.365
-500.653	145.073	-0.113	0.154
-499.639	249.344	0.124	-0.214
-498.624	112.961	-0.140	-0.172
-497.610	-200.000	-0.005	-0.253
-496.595	241.355	0.067	-0.114
-495.581	-179.525	0.273	0.006
-494.566	800.000	0.067	-0.229
-493.551	20.407	0.135	-0.111
-492.537	-164.448	0.055	0.003
-491.522	-200.000	-0.002	0.075
-490.508	-200.000	0.028	-0.236
-489.493	-80.970	-0.481	-0.162
-488.478	-63.246	-0.063	0.026
-487.464	-84.283	-0.279	-0.090
-486.449	-102.589	0.079	-0.019
-485.435	800.000	0.049	0.186
-484.420	14.799	0.095	-0.075
-483.405	139.445	0.152	0.203
-482.391	-87.983	-0.295	0.090
-481.376	800.000	-0.067	0.194
-480.362	200.753	-0.078	-0.121
-479.347	-93.003	-0.265	0.075
-478.332	282.971	0.193	-0.352
-477.318	800.000	0.075	-0.219
-476.303	194.093	-0.065	0.100
-475.289	-146.785	-0.259	-0.023
-474.274	-200.000	0.005	-0.282
-473.259	-86.453	0.100	0.031
-472.245	-53.019	0.162	-0.076
-471.230	800.000	-0.067	0.284
-470.216	184.714	-0.117	0.176
-469.201	-94.162	0.201	-0.056
-468.186	-171.671	-0.302	0.010
-467.172	-38.003	0.162	-0.087
-466.157	800.000	-0.007	-0.030
-465.143	-162.833	-0.249	0.012
-464.128	-5.535	0.135	-0.094
-463.113	-129.596	-0.058	0.008
-462.099	-200.000	0.024	0.117
-461.084	-114.912	-0.462	0.089
-460.070	392.062	0.017	-0.035
-459.055	-75.845	-0.033	-0.012
-458.040	-98.180	0.257	0.067
-457.026	-4.659	-0.218	0.153
-456.011	-200.000	-0.025	0.216
-454.997	138.779	-0.020	-0.026
-453.982	32.857	0.118	-0.103
-452.968	800.000	-0.064	0.250
-451.953	201.846	0.136	0.212
-450.938	47.692	-0.028	-0.026
-449.924	-20.229	0.115	-0.072
-448.909	118.802	-0.119	-0.148
-447.895	92.563	-0.144	0.165
-446.880	-200.000	-0.004	0.085
-445.865	191.923	-0.038	0.058
-444.851	715.146	0.115	0.308
-443.836	-135.488	0.141	-0.017
-442.822	800.000	-0.035	-0.118
-441.807	-75.425	0.088	0.032
-440.792	-157.525	0.266	-0.016
-439.778	-200.000	0.004	-0.099
-438.763	-200.000	0.027	0.151
-437.749	-0.223	-0.241	-0.174
-436.734	178.876	0.054	0.080
-435.719	219.080	-0.109	-0.176
-434.705	278.865	-0.067	0.121
-433.690	-200.000	0.023	0.136
-432.676	-200.000	-0.000	0.077
-431.661	73.908	0.257	0.273
-430.646	-200.000	-0.034	0.230
-429.632	144.851	-0.200	0.271
-428.617	24.201	-0.079	0.066
-427.603	26.553	-0.089	0.075
-426.588	-0.588	-0.263	-0.188
-425.573	363.929	-0.069	-0.140
-424.559	-72.999	-0.122	-0.045
-423.544	-200.000	0.018	-0.153
-422.530	244.422	-0.014	0.023
-421.515	-199.421	-0.247	-0.001
-420.500	2.424	-0.071	-0.052
-419.486	800.000	-0.096	0.380
-418.471	800.000	-0.039	-0.115
-417.457	-200.000	-0.058	-0.310
-416.442	-105.981	-0.254	-0.058
-415.428	-60.038	0.261	-0.113
-414.413	-200.000	-0.025	-0.280
-413.398	109.604	-0.148	-0.180
-412.384	601.029	-0.062	-0.157
-411.369	51.048	-0.069	-0.066
-410.355	-132.277	0.204	0.027
-409.340	-200.000	-0.002	0.063
-408.325	19.652	0.031	-0.025
-407.311	-43.184	-0.151	0.078
-406.296	212.345	0.166	0.265
-405.282	19.572	-0.352	0.286
-404.267	3.798	-0.236	-0.174
-403.252	39.823	-0.182	-0.165
-402.238	71.258	-0.106	0.111
-401.223	749.833	0.044	0.119
-400.209	151.944	-0.227	-0.313
-399.194	149.573	-0.051	0.069
-398.179	66.980	0.164	-0.169
-397.165	-200.000	0.106	-0.486
-396.150	120.633	-0.043	-0.054
-395.136	193.792	-0.057	-0.087
-394.121	-106.836	-0.151	0.034
-393.106	-200.000	0.021	0.127
-392.092	-200.000	0.059	-0.432
-391.077	-74.933	-0.076	-0.028
-390.063	-200.000	0.001	-0.069
-389.048	800.000	-0.077	-0.255
-388.033	-39.038	-0.087	-0.046
-387.019	579.309	0.055	-0.136
-386.004	-200.000	0.002	0.050
-384.990	-55.006	0.141	0.064
-383.975	127.028	-0.040	0.051
-382.960	-111.815	-0.237	0.048
-381.946	-58.573	-0.068	0.030
-380.931	-200.000	0.013	0.306
-379.917	635.062	-0.016	0.040
-378.902	119.252	0.027	-0.034
-377.888	-53.266	0.144	-0.067
-376.873	-200.000	-0.016	0.100
-375.858	-200.000	0.068	-0.354
-374.844	-200.000	0.034	0.359
-373.829	334.116	-0.127	0.249
-372.815	800.000	-0.059	-0.183
-371.800	159.209	0.244	-0.342
-370.785	800.000	0.062	0.241
-369.771	-32.959	-0.166	-0.093
-368.756	-54.352	-0.135	0.062
-367.742	353.278	0.203	0.407
-366.727	800.000	0.048	0.208
-365.712	-200.000	0.014	0.284
-364.698	-200.000	-0.029	-0.338
-363.683	-5.133	-0.185	0.128
-362.669	64.546	0.365	0.371
-361.654	-200.000	0.057	-0.319
-360.639	-56.936	0.374	0.167
-359.625	-200.000	-0.001	0.384
-358.610	-200.000	0.044	-0.220
-357.596	284.153	-0.141	-0.256
-356.581	-200.000	0.009	0.160
-355.566	-111.896	0.407	-0.083
-354.552	800.000	0.122	0.387
-353.537	158.112	-0.081	0.113
-352.523	-197.170	0.372	0.002
-351.508	38.326	-0.167	0.150
-350.493	54.680	0.196	-0.191
-349.479	-83.533	0.531	-0.171
-348.464	240.763	-0.235	0.396
-347.450	-191.368	0.291	-0.003
-346.435	-162.579	0.053	-0.003
-345.420	-105.074	-0.381	0.088
-344.406	15.586	-0.115	0.091
-343.391	-130.835	-0.091	0.012
-342.377	-2.811	0.246	0.173
-341.362	-23.010	-0.309	0.188
-340.348	172.082	0.123	-0.178
-339.333	-200.000	0.031	0.236
-338.318	153.819	0.080	-0.111
-337.304	-12.311	-0.366	-0.241
-336.289	-200.000	-0.027	0.196
-335.275	12.533	-0.198	-0.154
-334.260	-5.600	0.120	-0.083
-333.245	248.948	0.279	-0.477
-332.231	30.144	-0.144	0.124
-331.216	2.367	0.079	0.057
-330.202	-200.000	0.043	0.251
-329.187	-43.832	0.125	0.063
-328.172	800.000	-0.049	0.171
-327.158	356.751	0.030	0.059
-326.143	-53.490	-0.402	0.185
-325.129	-89.604	0.224	0.066
-324.114	-200.000	-0.065	0.299
-323.099	-150.653	0.237	0.018
-322.085	-81.978	0.067	0.022
-321.070	11.565	-0.243	0.187
-320.056	182.853	0.124	-0.185
-319.041	-86.259	-0.262	0.081
-318.026	224.236	0.109	0.177
-317.012	-174.554	0.170	-0.005
-315.997	800.000	0.024	0.074
-314.983	382.045	-0.118	-0.245
-313.968	-200.000	-0.001	0.052
-312.953	800.000	-0.123	-0.372
-311.939	-200.000	0.044	-0.500
-310.924	-200.000	-0.011	0.319
-309.910	340.516	0.168	-0.330
-308.895	-17.842	-0.223	-0.141
-307.880	185.567	-0.039	-0.059
-306.866	435.085	0.138	-0.301
-305.851	-82.632	0.079	0.026
-304.837	800.000	0.058	-0.163
-303.822	23.898	-0.117	-0.097
-302.807	732.989	0.058	0.156
-301.793	-164.027	-0.108	0.005
-300.778	61.639	-0.127	0.128
-299.764	72.339	0.127	-0.133
-298.749	269.469	0.107	-0.189
-297.735	87.365	-0.194	0.215
-296.720	393.709	0.040	-0.084
-295.705	-120.024	-0.325	0.056
-294.691	-74.023	-0.158	-0.058
-293.676	-65.617	-0.245	0.099
-292.662	1.005	0.138	-0.099
-291.647	-106.517	0.260	0.058
-290.632	-87.154	0.286	-0.087
-289.618	23.246	0.097	-0.080
-288.603	258.705	0.063	0.109
-287.589	-75.238	0.192	-0.069
-286.574	38.709	0.243	-0.218
-285.559	28.733	0.200	-0.171
-284.545	118.020	0.137	0.170
-283.530	43.555	-0.114	0.105
-282.516	-200.000	-0.041	0.227
-281.501	-200.000	-0.014	0.384
-280.486	83.123	0.082	0.090
-279.472	450.318	0.080	-0.177
-278.457	-200.000	-0.000	0.136
-277.443	-87.932	0.256	-0.077
-276.428	-4.303	0.200	-0.139
-275.413	-69.440	-0.078	-0.030
-274.399	48.699	0.139	-0.131
-273.384	168.825	-0.218	-0.312
-272.370	-200.000	-0.019	0.176
-271.355	-56.546	0.174	0.078
-270.340	-41.332	0.138	-0.071
-269.326	22.369	0.189	-0.155
-268.311	-64.250	-0.114	0.047
-267.297	-23.932	0.161	0.097
-266.282	-200.000	0.019	0.219
-265.267	-143.377	0.163	-0.016
-264.253	-200.000	-0.012	0.209
-263.238	66.406	-0.165	-0.169
-262.224	-200.000	-0.016	0.104
-261.209	-200.000	-0.038	0.379
-260.195	-180.604	0.409	-0.008
-259.180	-100.771	0.159	-0.039
-258.165	-4.453	0.091	0.063
-257.151	-56.889	0.180	-0.080
-256.136	591.140	-0.120	0.297
-255.122	-123.937	0.483	-0.076
-254.107	-200.000	0.041	-0.224
-253.092	13.887	-0.070	-0.055
-252.078	800.000	0.021	0.073
-251.063	393.409	0.119	0.249
-250.049	588.354	-0.057	-0.141
-249.034	555.005	-0.076	-0.183
-248.019	800.000	-0.034	-0.097
-247.005	-200.000	-0.017	-0.170
-245.990	127.654	0.146	0.186
-244.976	716.498	0.104	-0.278
-243.961	-200.000	0.084	-0.372
-242.946	326.266	-0.052	-0.101
-241.932	-100.521	0.182	0.045
-240.917	-200.000	0.031	-0.341
-239.903	241.422	-0.101	0.169
-238.888	800.000	-0.052	0.146
-237.873	-137.388	0.251	0.029
-236.859	-182.302	-0.049	0.001
-235.844	-63.910	-0.251	0.103
-234.830	223.381	0.232	0.376
-233.815	238.110	-0.044	0.074
-232.800	442.741	-0.063	0.138
-231.786	-32.666	-0.198	-0.111
-230.771	14.011	-0.243	0.190
-229.757	24.954	0.019	0.016
-228.742	-3.690	-0.269	-0.188
-227.727	-200.000	0.002	-0.103
-226.713	-120.259	-0.343	0.059
-225.698	800.000	0.086	-0.247
-224.684	800.000	-0.075	-0.224
-223.669	183.958	0.153	0.228
-222.655	-200.000	0.001	0.227
-221.640	244.335	-0.053	0.089
-220.625	291.100	0.180	-0.329
-219.611	-182.256	-0.183	-0.003
-218.596	-200.000	0.023	0.182
-217.582	-200.000	-0.002	-0.279
-216.567	-104.030	-0.433	-0.101
-215.552	159.026	0.080	-0.111
-214.538	-200.000	-0.009	0.067
-213.523	288.068	0.070	0.127
-212.509	-16.060	-0.303	-0.193
-211.494	127.717	-0.085	-0.108
-210.479	98.377	0.057	-0.066
-209.465	-200.000	0.000	0.068
-208.450	-200.000	0.033	0.154
-207.436	2.270	-0.217	0.157
-206.421	-3.281	0.219	0.153
-205.406	555.557	0.036	-0.088
-204.392	51.518	0.152	-0.145
-203.377	-200.000	0.028	0.310
-202.363	0.417	-0.055	0.040
-201.348	-137.983	-0.285	0.032
-200.333	351.823	-0.135	0.268
-199.319	299.994	-0.127	0.234
-198.304	-76.027	-0.252	-0.089
-197.290	45.815	0.119	0.111
-196.275	-145.636	0.329	0.030
-195.260	800.000	0.049	0.146
-194.246	207.098	-0.199	0.311
-193.231	308.651	0.087	0.163
-192.217	-22.135	-0.390	-0.238
-191.202	-95.953	-0.304	-0.081
-190.187	311.426	0.024	0.046
-189.173	305.567	0.164	0.305
-188.158	-101.217	-0.197	-0.048
-187.144	64.406	0.255	-0.257
-186.129	-200.000	0.011	-0.052
-185.114	-104.090	-0.101	0.024
-184.100	39.431	-0.181	-0.163
-183.085	-30.060	0.147	0.084
-182.071	221.443	0.070	0.112
-181.056	4.813	-0.385	-0.284
-180.042	800.000	-0.088	-0.300
-179.027	145.525	-0.005	-0.006
-178.012	800.000	-0.071	0.246
-176.998	0.978	0.175	0.126
-175.983	-195.623	0.220	-0.002
-174.969	281.436	0.158	-0.284
-173.954	-51.789	0.224	-0.104
-172.939	-43.764	-0.163	-0.082
-171.925	-159.389	-0.278	0.016
-170.910	282.740	-0.213	-0.383
-169.896	5.200	0.112	0.083
-168.881	330.016	-0.048	-0.093
-167.866	-200.000	0.004	0.273
-166.852	-200.000	-0.046	0.382
-165.837	-200.000	-0.014	-0.463
-164.823	173.979	-0.158	-0.229
-163.808	86.429	-0.074	-0.082
-162.793	-139.588	0.051	0.005
-161.779	-200.000	0.030	0.139
-160.764	-200.000	0.040	0.257
-159.750	71.563	0.254	0.264
-158.735	34.887	0.224	-0.196
-157.720	-200.000	0.004	-0.251
-156.706	224.904	0.013	0.021
-155.691	241.154	0.173	0.290
-154.677	-118.823	0.248	-0.044
-153.662	800.000	-0.120	-0.462
-152.647	-166.379	0.124	-0.005
-151.633	285.044	0.058	0.104
-150.618	-71.606	-0.027	0.010
-149.604	-48.024	-0.236	0.114
-148.589	-200.000	-0.023	-0.195
-147.574	407.236	-0.188	0.398
-146.560	-128.641	-0.104	0.015
-145.545	12.096	0.183	0.141
-144.531	662.231	-0.116	-0.299
-143.516	-176.783	0.333	0.008
-142.502	-20.870	-0.050	-0.031
-141.487	360.729	-0.076	-0.152
-140.472	-200.000	0.021	-0.186
-139.458	51.694	-0.153	-0.145
-138.443	-58.932	-0.263	-0.114
-137.429	800.000	0.067	0.290
-136.414	-200.000	0.056	0.305
-135.399	-154.430	0.141	-0.009
-134.385	-52.894	0.085	-0.039
-133.370	-8.413	0.316	0.213
-132.356	-42.531	0.222	-0.113
-131.341	-30.418	0.087	-0.049
-130.326	66.287	0.365	0.370
-129.312	-91.888	-0.169	-0.048
-128.297	519.227	0.127	0.298
-127.283	489.726	0.039	0.089
-126.268	360.049	0.138	0.276
-125.253	-29.540	0.150	0.086
-124.239	-200.000	0.037	0.182
-123.224	-143.502	-0.255	0.024
-122.210	-36.509	0.153	-0.082
-121.195	-200.000	-0.018	0.219
-120.180	-32.551	0.157	0.087
-119.166	-200.000	-0.027	-0.221
-118.151	-57.641	-0.146	-0.064
-117.137	81.711	-0.289	0.313
-116.122	-53.125	0.148	0.068
-115.107	-186.634	0.250	-0.004
-114.093	-106.754	0.320	0.071
-113.078	800.000	0.030	0.104
-112.064	657.817	-0.039	0.099
-111.049	120.027	-0.132	0.164
-110.034	174.083	0.047	0.068
-109.020	800.000	0.085	0.279
-108.005	37.591	0.194	0.172
-106.991	-200.000	0.040	-0.224
-105.976	-84.157	0.126	0.040
-104.962	-120.473	-0.221	-0.037
-103.947	-41.768	-0.282	-0.144
-102.932	-157.252	0.218	0.013
-101.918	-145.392	0.188	0.017
-100.903	-200.000	0.011	0.273
-99.889	-43.030	-0.097	0.049
-98.874	800.000	-0.024	-0.101
-97.859	-78.031	0.216	-0.074
-96.845	80.919	-0.125	0.134
-95.830	-200.000	-0.007	-0.041
-94.816	800.000	0.106	0.312
-93.801	-94.132	0.108	0.030
-92.786	-63.120	0.187	0.077
-91.772	-125.447	0.219	-0.033
-90.757	800.000	-0.030	0.107
-89.743	185.344	0.120	0.178
-88.728	-5.592	0.205	-0.141
-87.713	7.409	0.311	-0.232
-86.699	-85.760	-0.213	-0.066
-85.684	-110.679	0.265	0.055
-84.670	218.566	0.108	0.172
-83.655	-16.533	0.128	0.081
-82.640	328.232	0.021	0.040
-81.626	118.514	-0.159	0.196
-80.611	800.000	0.087	0.260
-79.597	-183.742	-0.200	0.003
-78.582	95.412	-0.158	-0.180
-77.567	-14.393	0.337	-0.216
-76.553	-104.764	0.103	-0.024
-75.538	149.342	0.040	0.054
-74.524	-33.302	-0.142	0.079
-73.509	800.000	-0.034	0.117
-72.494	-200.000	-0.005	0.057
-71.480	195.770	0.086	0.131
-70.465	29.169	-0.181	-0.153
-69.451	800.000	0.122	0.414
-68.436	12.881	0.405	0.312
-67.422	155.942	-0.120	-0.164
-66.407	-21.678	0.072	-0.044
-65.392	800.000	0.027	-0.089
-64.378	92.134	0.140	0.157
-63.363	-14.801	-0.118	-0.076
-62.349	21.832	-0.151	-0.123
-61.334	-54.196	-0.907	-0.411
-60.319	-56.291	0.391	0.173
-59.305	469.742	-0.239	-0.535
-58.290	-200.000	0.085	0.675
-57.276	427.188	0.733	1.576
-56.261	-200.000	75.436	537.459
-55.246	561.557	1304.362	3144.366
-54.232	145.459	2546.359	3399.425
-53.217	113.784	2348.792	2845.568
-52.203	51.876	1963.555	1863.233
-51.188	45.650	1751.435	1613.068
-50.173	42.590	1704.803	1546.551
-49.159	57.221	1738.109	1690.351
-48.144	63.018	1756.709	1753.196
-47.130	45.395	1720.593	1582.437
-46.115	42.112	1706.770	1544.399
-45.100	42.055	1701.813	1539.419
-44.086	41.995	1699.428	1536.734
-43.071	41.952	1696.593	1533.784
-42.057	41.944	1694.043	1531.359
-41.042	41.982	1692.309	1530.022
-40.027	41.984	1690.147	1528.018
-39.013	41.963	1687.880	1525.750
-37.998	41.924	1686.776	1524.390
-36.984	41.935	1685.049	1522.851
-35.969	42.113	1683.390	1522.650
-34.954	42.250	1681.101	1521.555
-33.940	42.149	1679.493	1519.276
-32.925	42.201	1677.211	1517.548
-31.911	42.050	1676.574	1515.764
-30.896	42.071	1674.451	1513.944
-29.881	42.070	1673.139	1512.695
-28.867	42.062	1670.768	1510.429
-27.852	42.139	1669.390	1509.699
-26.838	42.060	1668.259	1508.023
-25.823	42.155	1666.088	1506.714
-24.809	42.149	1664.882	1505.519
-23.794	42.150	1663.476	1504.197
-22.779	42.146	1662.063	1502.829
-21.765	42.020	1660.485	1500.398
-20.750	42.167	1658.367	1499.529
-19.736	42.126	1657.056	1497.974
-18.721	42.143	1655.435	1496.574
-17.706	42.220	1653.845	1495.651
-16.692	42.134	1652.320	1493.577
-15.677	42.033	1651.073	1491.636
-14.663	42.095	1649.851	1490.938
-13.648	42.055	1648.775	1489.602
-12.633	42.177	1646.491	1488.392
-11.619	42.084	1645.241	1486.509
-10.604	42.127	1643.240	1484.958
-9.590	42.106	1641.973	1483.600
-8.575	42.094	1641.132	1482.694
-7.560	42.056	1639.972	1481.306
-6.546	42.118	1638.290	1480.184
-5.531	42.107	1637.364	1479.207
-4.517	42.022	1636.330	1477.589
-3.502	42.102	1635.174	1477.079
-2.487	42.177	1633.451	1476.015
-1.473	42.154	1623.161	1466.490
-0.458	40.058	1602.692	1432.772
0.556	35.294	1601.698	1398.178
1.571	32.737	1626.372	1400.627
2.586	31.916	1641.075	1407.010
3.600	27.909	1586.883	1331.286
4.615	15.177	1464.261	1142.084
5.629	3.381	1387.664	1005.641
6.644	1.007	1377.939	983.108
7.659	0.914	1376.200	981.178
8.673	0.838	1374.975	979.726
9.688	0.731	1373.406	977.824
10.702	0.544	1370.689	974.598
11.717	4.745	1379.492	1008.021
12.731	16.562	1402.383	1102.073
13.746	24.346	1414.841	1162.724
14.761	24.569	1414.272	1163.611
15.775	24.527	1413.457	1162.560
16.790	24.572	1412.871	1162.271
17.804	24.515	1412.492	1161.486
18.819	24.869	1411.803	1163.115
19.834	24.827	1411.579	1162.553
20.848	24.773	1410.721	1161.392
21.863	24.873	1409.803	1161.182
22.877	24.868	1408.857	1160.268
23.892	24.880	1407.718	1159.309
24.907	24.806	1407.122	1158.237
25.921	24.906	1405.810	1157.696
26.936	24.914	1405.280	1157.213
27.950	24.859	1403.992	1155.695
28.965	24.803	1403.268	1154.631
29.980	24.897	1401.293	1153.513
30.994	24.832	1400.185	1152.082
32.009	24.884	1398.660	1151.059
33.023	24.850	1398.167	1150.332
34.038	24.743	1397.377	1148.890
35.053	24.787	1396.076	1148.002
36.067	24.842	1395.034	1147.396
37.082	24.885	1393.760	1146.523
38.096	24.946	1392.580	1145.839
39.111	24.883	1391.855	1144.740
40.126	24.897	1391.166	1144.163
41.140	24.874	1390.629	1143.474
42.155	24.833	1390.221	1142.776
43.169	24.916	1390.455	1143.398
44.184	24.879	1390.159	1142.815
45.199	24.820	1389.409	1141.724
46.213	24.808	1388.725	1140.982
47.228	24.820	1388.341	1140.641
48.242	24.803	1386.984	1139.317
49.257	24.788	1385.152	1137.613
50.271	24.913	1383.491	1136.948
51.286	24.826	1382.920	1135.826
52.301	24.864	1381.528	1134.818
53.315	24.824	1380.301	1133.457
54.330	24.920	1379.247	1133.098
55.344	24.821	1378.661	1131.896
56.359	24.853	1377.585	1131.109
57.374	24.740	1376.996	1129.811
58.388	24.894	1375.920	1129.803
59.403	24.825	1375.867	1129.221
60.417	24.781	1374.965	1128.108
61.432	24.845	1374.260	1127.833
62.447	24.871	1373.331	1127.130
63.461	24.828	1372.200	1125.837
64.476	24.859	1371.042	1124.979
65.490	24.907	1369.937	1124.277
66.505	24.970	1368.164	1123.116
67.520	24.882	1366.916	1121.443
68.534	24.851	1366.082	1120.466
69.549	24.852	1365.421	1119.826
70.563	24.850	1364.440	1118.913
71.578	24.958	1363.252	1118.511
72.593	24.841	1362.743	1117.269
73.607	24.887	1361.842	1116.715
74.622	24.920	1360.977	1116.115
75.636	24.857	1360.486	1115.219
76.651	24.897	1359.472	1114.539
77.666	24.844	1359.107	1113.807
78.680	24.790	1358.874	1113.186
79.695	24.834	1357.906	1112.570
80.709	24.869	1356.943	1111.897
81.724	24.795	1356.121	1110.662
82.739	24.879	1355.246	1110.370
83.753	24.767	1354.770	1109.189
84.768	24.856	1352.805	1108.034
85.782	24.831	1351.953	1107.081
86.797	24.909	1350.654	1106.404
87.812	24.767	1350.113	1104.983
88.826	24.921	1348.244	1104.307
89.841	24.821	1347.721	1103.162
90.855	24.957	1346.688	1103.060
91.870	24.822	1345.976	1101.548
92.884	24.892	1345.077	1101.143
93.899	24.897	1344.212	1100.371
94.914	24.919	1343.308	1099.666
95.928	24.942	1342.954	1099.424
96.943	24.892	1342.093	1098.311
97.957	25.010	1340.797	1097.880
98.972	24.916	1340.209	1096.724
99.987	24.970	1339.123	1096.067
101.001	24.940	1338.015	1094.881
102.016	24.952	1337.291	1094.265
103.030	24.951	1336.463	1093.483
104.045	24.978	1335.673	1092.908
105.060	24.953	1334.648	1091.821
106.074	24.983	1333.664	1091.099
107.089	24.936	1332.867	1090.068
108.103	24.943	1331.301	1088.728
109.118	24.977	1330.353	1088.064
110.133	25.021	1329.260	1087.340
111.147	24.994	1327.941	1086.004
112.162	25.038	1326.499	1084.992
113.176	24.980	1326.151	1084.261
114.191	24.998	1325.059	1083.381
115.206	25.057	1324.009	1082.783
116.220	24.958	1322.909	1081.192
117.235	24.903	1322.146	1080.144
118.249	25.044	1320.985	1079.945
119.264	24.977	1320.435	1079.000
120.279	25.003	1319.641	1078.410
121.293	24.986	1318.806	1077.528
122.308	24.985	1318.092	1076.844
123.322	25.097	1317.157	1076.658
124.337	25.080	1315.993	1075.508
125.352	25.064	1315.177	1074.651
126.366	25.061	1314.287	1073.813
127.381	25.109	1313.308	1073.206
128.395	25.034	1312.899	1072.326
129.410	25.075	1312.079	1071.809
130.424	25.102	1311.145	1071.113
131.439	25.098	1310.367	1070.357
132.454	25.076	1309.806	1069.671
133.468	25.145	1308.533	1068.947
134.483	25.148	1308.082	1068.504
135.497	25.083	1307.487	1067.535
136.512	25.030	1306.479	1066.302
137.527	24.944	1305.685	1065.052
138.541	25.107	1303.807	1064.390
139.556	25.126	1302.379	1063.243
140.570	25.030	1301.935	1062.218
141.585	24.988	1301.132	1061.223
142.600	25.027	1300.243	1060.631
143.614	24.953	1299.039	1059.119
144.629	25.047	1297.542	1058.358
145.643	24.950	1296.926	1057.191
146.658	24.961	1296.052	1056.451
147.673	25.051	1294.322	1055.476
148.687	24.927	1293.987	1054.379
149.702	25.004	1292.348	1053.403
150.716	24.891	1291.729	1052.143
151.731	24.978	1290.627	1051.665
152.746	25.123	1289.227	1051.277
153.760	25.034	1288.268	1049.880
154.775	25.139	1287.452	1049.741
155.789	25.034	1286.941	1048.614
156.804	24.984	1285.592	1047.132
157.819	25.069	1284.781	1046.875
158.833	24.991	1284.143	1045.808
159.848	25.112	1282.999	1045.489
160.862	25.164	1281.780	1044.707
161.877	25.062	1281.372	1043.687
162.892	25.043	1280.550	1042.812
163.906	25.113	1280.010	1042.687
164.921	25.020	1279.378	1041.538
165.935	25.117	1278.129	1040.997
166.950	25.099	1277.646	1040.407
167.964	25.179	1276.906	1040.174
168.979	25.198	1276.299	1039.699
169.994	25.234	1275.588	1039.234
171.008	25.164	1275.299	1038.502
172.023	25.074	1274.618	1037.333
173.037	25.127	1273.736	1036.835
174.052	25.083	1273.441	1036.244
175.067	25.204	1272.293	1035.919
176.081	25.086	1271.584	1034.571
177.096	25.120	1270.683	1033.940
178.110	25.148	1269.541	1033.083
179.125	25.175	1268.390	1032.207
180.140	25.191	1267.454	1031.446
181.154	25.160	1266.396	1030.315
182.169	25.146	1265.545	1029.453
183.183	25.184	1264.352	1028.608
184.198	25.226	1263.265	1027.877
185.213	25.294	1261.966	1027.116
186.227	25.183	1261.650	1026.135
187.242	25.251	1261.062	1025.955
188.256	25.274	1259.672	1024.865
189.271	25.177	1259.178	1023.817
190.286	25.232	1258.413	1023.418
191.300	25.245	1257.802	1022.906
192.315	25.148	1257.865	1022.310
193.329	25.132	1257.267	1021.645
194.344	25.216	1256.379	1021.312
195.359	25.206	1256.104	1020.939
196.373	25.158	1255.543	1020.122
197.388	25.194	1255.250	1019.997
198.402	25.152	1254.785	1019.288
199.417	25.199	1254.195	1018.988
200.432	25.207	1253.494	1018.371
201.446	25.203	1252.966	1017.829
202.461	25.194	1252.516	1017.323
203.475	25.196	1251.513	1016.431
204.490	25.185	1250.473	1015.433
205.504	25.217	1249.307	1014.580
206.519	25.218	1248.525	1013.857
207.534	25.212	1247.610	1012.995
208.548	25.312	1246.379	1012.468
209.563	25.260	1245.841	1011.647
210.577	25.216	1244.878	1010.528
211.592	25.277	1244.124	1010.172
212.607	25.182	1243.709	1009.211
213.621	25.356	1242.123	1008.813
214.636	25.322	1241.826	1008.292
215.650	25.292	1241.020	1007.378
216.665	25.387	1239.658	1006.713
217.680	25.336	1239.087	1005.880
218.694	25.339	1238.391	1005.241
219.709	25.360	1237.757	1004.755
220.723	25.419	1236.734	1004.163
221.738	25.333	1235.844	1002.871
222.753	25.356	1235.355	1002.515
223.767	25.429	1234.631	1002.247
224.782	25.452	1234.438	1002.128
225.796	25.296	1233.725	1000.594
226.811	25.466	1233.032	1000.888
227.826	25.518	1232.633	1000.764
228.840	25.445	1232.161	999.889
229.855	25.427	1231.118	998.853
230.869	25.468	1230.635	998.601
231.884	25.410	1230.105	997.760
232.899	25.468	1228.745	996.892
233.913	25.393	1228.569	996.244
234.928	25.520	1228.257	996.605
235.942	25.643	1227.267	996.396
236.957	25.522	1226.693	995.173
237.972	25.450	1225.956	994.089
238.986	25.506	1225.129	993.639
240.001	25.601	1224.554	993.608
241.015	25.624	1223.610	992.881
242.030	25.557	1223.230	992.116
243.045	25.566	1222.547	991.521
244.059	25.604	1221.430	990.740
245.074	25.581	1220.653	989.893
246.088	25.590	1220.096	989.406
247.103	25.650	1219.312	989.009
248.117	25.626	1218.293	987.963
249.132	25.615	1217.776	987.399
250.147	25.665	1217.104	987.043
251.161	25.684	1216.307	986.411
252.176	25.624	1215.805	985.588
253.190	25.712	1214.982	985.314
254.205	25.604	1214.477	984.230
255.220	25.751	1213.509	984.163
256.234	25.797	1213.136	984.019
257.249	25.753	1212.383	983.084
258.263	25.740	1211.785	982.438
259.278	25.675	1211.393	981.682
260.293	25.691	1211.139	981.478
261.307	25.820	1210.112	981.257
262.322	25.789	1209.555	980.552
263.336	25.816	1208.721	979.934
264.351	25.728	1208.717	979.369
265.366	25.713	1208.125	978.719
266.380	25.831	1207.060	978.414
267.395	25.743	1206.444	977.349
268.409	25.641	1206.172	976.487
269.424	25.719	1205.500	976.280
270.439	25.644	1205.047	975.419
271.453	25.866	1204.005	975.694
272.468	25.783	1203.107	974.430
273.482	25.744	1202.471	973.615
274.497	25.897	1202.033	974.003
275.512	25.795	1201.532	972.960
276.526	25.819	1200.564	972.221
277.541	25.886	1199.926	971.978
278.555	25.808	1199.613	971.219
279.570	25.936	1198.402	970.841
280.585	25.850	1197.853	969.845
281.599	25.824	1197.127	969.032
282.614	25.742	1196.225	967.780
283.628	25.837	1195.222	967.393
284.643	25.916	1194.398	967.061
285.657	25.896	1193.500	966.143
286.672	25.868	1192.634	965.204
287.687	25.969	1191.850	965.027
288.701	25.983	1191.148	964.446
289.716	25.951	1190.504	963.669
290.730	26.055	1189.949	963.688
291.745	25.914	1189.759	962.699
292.760	26.032	1188.779	962.450
293.774	26.085	1187.912	961.946
294.789	26.055	1187.572	961.423
295.803	26.127	1186.688	961.006
296.818	25.974	1186.350	959.832
297.833	26.012	1185.774	959.487
298.847	25.985	1185.496	959.031
299.862	26.149	1183.876	958.508
300.876	26.098	1183.205	957.608
301.891	26.111	1182.840	957.300
302.906	26.147	1182.497	957.129
303.920	26.151	1181.876	956.559
304.935	26.223	1180.839	956.016
305.949	26.233	1179.934	955.256
306.964	26.132	1179.431	954.226
307.979	26.198	1179.109	954.232
308.993	26.267	1178.126	953.715
310.008	26.185	1177.626	952.794
311.022	26.219	1176.575	952.039
312.037	26.175	1175.921	951.191
313.052	26.260	1175.077	950.872
314.066	26.297	1174.366	950.409
315.081	26.123	1173.580	948.776
316.095	26.175	1173.209	948.662
317.110	26.242	1172.398	948.273
318.125	26.287	1171.618	947.799
319.139	26.291	1170.980	947.218
320.154	26.258	1170.736	946.766
321.168	26.278	1169.839	946.061
322.183	26.264	1169.522	945.644
323.197	26.235	1169.112	945.080
324.212	26.257	1168.196	944.370
325.227	26.250	1167.796	943.925
326.241	26.411	1167.131	944.148
327.256	26.381	1166.426	943.336
328.270	26.353	1165.292	942.190
329.285	26.405	1164.834	942.007
330.300	26.405	1163.886	941.155
331.314	26.373	1163.092	940.264
332.329	26.342	1162.594	939.616
333.343	26.353	1161.831	938.973
334.358	26.428	1160.725	938.388
335.373	26.336	1160.487	937.633
336.387	26.467	1159.669	937.570
337.402	26.486	1158.791	936.875
338.416	26.612	1158.189	936.958
339.431	26.457	1157.493	935.512
340.446	26.457	1156.877	934.931
341.460	26.567	1156.430	935.055
342.475	26.562	1155.440	934.144
343.489	26.501	1154.108	932.668
344.504	26.522	1153.458	932.171
345.519	26.607	1152.700	931.915
346.533	26.542	1152.302	931.177
347.548	26.568	1151.260	930.383
348.562	26.501	1150.743	929.537
349.577	26.546	1150.138	929.201
350.592	26.477	1149.351	928.130
351.606	26.428	1148.954	927.475
352.621	26.529	1147.945	927.093
353.635	26.599	1147.318	926.867
354.650	26.669	1146.515	926.492
355.665	26.684	1145.712	925.840
356.679	26.677	1145.081	925.210
357.694	26.743	1144.476	924.976
358.708	26.693	1144.177	924.396
359.723	26.629	1143.634	923.552
360.738	26.530	1142.879	922.355
361.752	26.612	1142.306	922.229
362.767	26.647	1141.911	922.006
363.781	26.799	1141.400	922.288
364.796	26.715	1140.600	921.131
365.810	26.611	1140.316	920.289
366.825	26.775	1139.548	920.420
367.840	26.882	1138.833	920.309
368.854	26.898	1138.459	920.002
369.869	26.909	1137.455	919.167
370.883	26.914	1136.521	918.356
371.898	26.841	1135.898	917.402
372.913	26.867	1135.677	917.274
373.927	26.859	1135.081	916.669
374.942	26.982	1134.005	916.339
375.956	26.939	1133.821	915.893
376.971	26.854	1133.265	914.935
377.986	26.908	1133.117	915.009
379.000	26.902	1132.460	914.365
380.015	27.086	1131.490	914.428
381.029	27.039	1131.007	913.722
382.044	26.849	1130.831	912.542
383.059	26.950	1129.904	912.221
384.073	26.914	1129.205	911.393
385.088	26.892	1128.249	910.434
386.102	27.129	1127.124	910.631
387.117	26.920	1126.534	909.025
388.132	26.912	1125.773	908.295
389.146	27.045	1125.080	908.320
390.161	27.125	1124.576	908.229
391.175	27.149	1123.455	907.366
392.190	27.149	1122.619	906.608
393.205	27.048	1122.640	906.045
394.219	27.218	1121.578	905.953
395.234	27.050	1121.158	904.696
396.248	27.043	1119.794	903.482
397.263	27.217	1119.060	903.672
398.278	27.300	1118.449	903.511
399.292	27.192	1117.858	902.420
400.307	27.358	1116.998	902.468
401.321	27.210	1116.906	901.580
402.336	27.195	1116.072	900.755
403.350	27.232	1115.434	900.341
404.365	27.228	1114.842	899.762
405.380	27.223	1114.535	899.410
406.394	27.199	1113.436	898.329
407.409	27.290	1112.382	897.845
408.423	27.271	1112.060	897.414
409.438	27.305	1111.122	896.744
410.453	27.399	1110.482	896.613
411.467	27.464	1109.711	896.229
412.482	27.295	1109.126	894.846
413.496	27.421	1108.102	894.559
414.511	27.377	1107.540	893.810
415.526	27.394	1107.256	893.587
416.540	27.424	1107.002	893.447
417.555	27.385	1106.234	892.559
418.569	27.305	1106.099	891.977
419.584	27.490	1105.636	892.434
420.599	27.488	1105.104	891.917
421.613	83.532	1291.949	1351.325
422.628	78.312	1319.179	1351.470
