DTS Sentinel unit serial number:	SN413079Multiplexer serial number:	ORYXHardware model number:	OX4-SRSoftware version number:	ORYX F/W v4.00 Oryx Data Collector v3.7.2.0data status	okinstallation	princeton_trtdifferential loss correction	single-endedforward channel	channel 2reverse channel	N/Adate	2019/09/12time	20:43:34forward acquisition time	60.00reverse acquisition time	0.00gamma	496.2192k internal	0.2327k external	0.2327temperature offset calibration	1.0167default loss term (dB/km)	0.3790temperature slope calibration	1.0000multiplexer offset coefficient	1.0000multiplexer slope coefficient	1.0000fibre end	0.00T internal ref (°C)	31.06T ext. ref 1 (°C)	3.57T ext. ref 2 (°C)	25.62length (m)	temperature (°C)	Stokes	anti-Stokes-747.200	18.204	0.239	-0.192
-746.185	735.086	-0.058	-0.156
-745.171	21.904	0.081	0.067
-744.156	37.394	0.243	0.217
-743.142	800.000	-0.042	0.130
-742.127	800.000	-0.115	0.389
-741.112	-35.984	-0.269	0.147
-740.098	-200.000	0.031	0.415
-739.083	-123.941	-0.243	0.039
-738.069	-200.000	0.000	0.303
-737.054	169.553	-0.217	-0.313
-736.039	-191.076	-0.449	-0.005
-735.025	-53.782	0.322	0.148
-734.010	800.000	-0.063	0.192
-732.996	-59.943	-0.390	0.168
-731.981	76.552	0.146	0.156
-730.966	654.752	0.061	0.157
-729.952	-0.163	-0.122	-0.088
-728.937	-76.521	-0.195	-0.069
-727.923	-101.244	-0.558	0.138
-726.908	102.081	0.146	-0.172
-725.894	-8.544	0.175	-0.119
-724.879	800.000	-0.051	0.205
-723.864	123.669	-0.092	-0.116
-722.850	247.850	0.055	0.094
-721.835	305.661	-0.038	-0.071
-720.821	-50.514	0.249	0.118
-719.806	-19.719	-0.057	-0.035
-718.791	18.098	-0.020	0.016
-717.777	429.165	-0.119	0.259
-716.762	-45.429	0.215	-0.108
-715.748	524.237	-0.054	-0.127
-714.733	-86.860	-0.229	-0.070
-713.718	-13.092	-0.447	-0.293
-712.704	800.000	0.059	-0.195
-711.689	-165.315	-0.366	0.016
-710.675	-200.000	0.057	0.281
-709.660	65.244	-0.152	-0.154
-708.645	-85.015	0.096	0.030
-707.631	366.177	0.115	0.234
-706.616	-111.870	0.173	0.035
-705.602	-111.408	0.412	-0.085
-704.587	439.926	0.077	0.169
-703.572	-111.747	-0.499	-0.102
-702.558	-150.311	0.090	-0.007
-701.543	9.741	0.094	-0.072
-700.529	165.181	0.193	0.274
-699.514	-142.089	0.169	0.017
-698.499	-141.752	-0.091	0.009
-697.485	-138.695	-0.490	-0.054
-696.470	49.619	-0.336	-0.319
-695.456	-200.000	-0.065	-0.354
-694.441	-200.000	0.008	0.113
-693.426	-98.518	0.224	-0.058
-692.412	-79.791	-0.528	0.179
-691.397	-109.857	-0.137	0.029
-690.383	-11.644	0.106	-0.070
-689.368	-33.490	-0.086	-0.048
-688.354	-54.599	0.471	0.214
-687.339	-57.410	-0.346	-0.153
-686.324	116.319	-0.207	-0.255
-685.310	-184.949	-0.165	-0.003
-684.295	-200.000	0.049	-0.221
-683.281	696.930	0.131	0.346
-682.266	-49.020	-0.205	-0.099
-681.251	-52.393	0.288	-0.134
-680.237	-44.237	-0.122	-0.061
-679.222	800.000	0.027	-0.076
-678.208	-109.653	-0.213	-0.045
-677.193	113.760	0.195	-0.239
-676.178	-122.087	0.305	-0.050
-675.164	34.358	-0.052	0.045
-674.149	-52.653	-0.254	-0.118
-673.135	0.379	0.101	-0.073
-672.120	3.311	-0.309	-0.226
-671.105	-20.712	0.368	-0.227
-670.091	-2.695	-0.225	-0.158
-669.076	224.085	-0.152	-0.247
-668.062	408.855	0.120	0.256
-667.047	38.302	-0.138	-0.124
-666.032	-46.706	-0.307	-0.151
-665.018	-89.427	0.321	-0.095
-664.003	-200.000	0.026	-0.252
-662.989	-83.372	0.260	0.084
-661.974	800.000	-0.096	-0.353
-660.959	-115.742	-0.211	0.040
-659.945	-67.551	-0.276	0.109
-658.930	800.000	0.075	-0.265
-657.916	-200.000	0.015	-0.287
-656.901	800.000	0.050	0.160
-655.886	-200.000	-0.017	-0.200
-654.872	-34.718	0.175	0.096
-653.857	469.999	-0.065	0.146
-652.843	-18.554	-0.202	0.127
-651.828	-61.030	-0.034	0.015
-650.814	-146.015	-0.148	-0.013
-649.799	-163.988	-0.153	-0.007
-648.784	-113.871	-0.393	-0.077
-647.770	-38.189	0.205	-0.109
-646.755	716.645	-0.132	0.352
-645.741	-156.941	-0.247	0.015
-644.726	218.716	0.112	-0.179
-643.711	800.000	-0.026	-0.096
-642.697	-200.000	-0.018	0.125
-641.682	-101.656	-0.276	0.067
-640.668	-152.960	-0.026	0.002
-639.653	-84.067	-0.284	-0.091
-638.638	-58.337	-0.052	0.023
-637.624	-149.743	-0.116	0.009
-636.609	682.636	0.095	-0.250
-635.595	-91.643	-0.250	-0.072
-634.580	-146.750	0.398	-0.035
-633.565	800.000	0.087	0.269
-632.551	-138.861	0.153	-0.017
-631.536	22.080	-0.104	0.085
-630.522	800.000	0.085	-0.346
-629.507	800.000	0.053	-0.198
-628.492	-180.477	-0.304	-0.006
-627.478	96.211	0.197	-0.226
-626.463	486.455	-0.015	0.034
-625.449	27.250	0.040	-0.034
-624.434	-200.000	0.053	-0.361
-623.419	-32.853	0.225	0.125
-622.405	800.000	-0.048	-0.198
-621.390	-69.475	-0.274	0.105
-620.376	-107.121	-0.221	-0.049
-619.361	282.894	0.059	-0.107
-618.346	-200.000	0.044	-0.372
-617.332	-200.000	0.019	-0.180
-616.317	800.000	-0.043	-0.132
-615.303	267.874	-0.158	0.277
-614.288	49.531	-0.314	-0.296
-613.273	-200.000	0.040	-0.299
-612.259	-83.148	0.250	-0.081
-611.244	298.735	-0.103	-0.189
-610.230	-43.073	-0.075	0.038
-609.215	530.999	0.032	0.076
-608.201	-200.000	-0.002	0.230
-607.186	-27.912	-0.083	-0.048
-606.171	-200.000	0.001	-0.052
-605.157	88.480	0.173	-0.192
-604.142	101.964	0.147	-0.172
-603.128	-73.550	-0.254	-0.093
-602.113	-81.211	0.181	-0.060
-601.098	119.667	-0.083	-0.103
-600.084	800.000	0.047	0.149
-599.069	100.474	0.185	-0.216
-598.055	-73.500	0.052	-0.019
-597.040	-138.069	-0.220	0.025
-596.025	800.000	-0.077	-0.223
-595.011	-200.000	0.010	-0.091
-593.996	499.410	0.193	0.446
-592.982	-59.785	0.065	-0.028
-591.967	0.894	-0.267	0.192
-590.952	800.000	0.096	0.369
-589.938	292.594	-0.191	-0.348
-588.923	37.600	0.285	0.254
-587.909	-33.189	-0.145	-0.081
-586.894	60.059	-0.137	0.136
-585.879	574.201	0.060	0.147
-584.865	213.053	0.348	-0.550
-583.850	429.343	-0.141	-0.306
-582.836	-34.445	-0.300	-0.165
-581.821	55.770	-0.153	0.149
-580.806	-200.000	-0.064	0.415
-579.792	-171.739	0.296	-0.010
-578.777	82.616	-0.078	0.084
-577.763	414.355	0.022	0.046
-576.748	-200.000	0.015	-0.348
-575.733	190.008	-0.195	-0.293
-574.719	-133.075	0.194	-0.025
-573.704	225.518	0.053	0.086
-572.690	-200.000	-0.289	-0.001
-571.675	800.000	-0.049	-0.165
-570.661	253.633	0.146	0.250
-569.646	-200.000	-0.025	0.200
-568.631	-106.765	-0.126	0.028
-567.617	-111.438	-0.389	-0.079
-566.602	195.205	-0.142	-0.216
-565.588	-177.153	-0.259	-0.006
-564.573	-35.055	-0.111	0.061
-563.558	-108.379	0.297	-0.064
-562.544	-200.000	-0.039	-0.262
-561.529	472.703	-0.069	-0.155
-560.515	24.399	-0.238	0.197
-559.500	-149.193	-0.156	0.013
-558.485	103.677	0.194	0.228
-557.471	-57.658	0.275	0.121
-556.456	50.843	-0.180	0.171
-555.442	209.478	0.118	0.185
-554.427	75.500	0.063	-0.066
-553.412	-96.710	0.035	-0.009
-552.398	1.404	-0.422	-0.303
-551.383	118.195	0.198	-0.245
-550.369	-126.857	-0.072	-0.011
-549.354	202.171	0.251	0.388
-548.339	54.057	-0.197	-0.190
-547.325	-200.000	0.030	-0.392
-546.310	136.164	0.143	0.186
-545.296	-200.000	-0.086	0.462
-544.281	-139.325	-0.287	-0.031
-543.266	-66.806	0.218	0.086
-542.252	-57.791	-0.270	-0.118
-541.237	-119.422	0.119	0.021
-540.223	-178.063	0.077	-0.002
-539.208	58.442	-0.142	0.139
-538.193	91.309	0.300	-0.337
-537.179	4.259	-0.318	0.233
-536.164	-94.401	0.436	-0.119
-535.150	36.900	-0.152	-0.134
-534.135	-200.000	-0.025	-0.234
-533.121	320.207	-0.083	-0.157
-532.106	-122.286	-0.169	0.028
-531.091	-103.277	0.088	-0.021
-530.077	-31.532	-0.195	0.110
-529.062	601.427	-0.108	-0.269
-528.048	-101.091	0.162	-0.040
-527.033	-163.055	0.234	0.011
-526.018	48.249	0.110	0.103
-525.004	100.361	0.125	-0.145
-523.989	-200.000	0.009	-0.054
-522.975	626.849	0.146	-0.369
-521.960	28.632	-0.138	0.116
-520.945	124.066	0.069	0.087
-519.931	-96.524	0.421	-0.111
-518.916	-200.000	0.012	0.116
-517.902	800.000	-0.050	-0.145
-516.887	464.358	-0.082	0.184
-515.872	-200.000	0.019	-0.170
-514.858	278.476	0.073	0.130
-513.843	-200.000	0.017	0.093
-512.829	-57.610	-0.144	0.063
-511.814	-30.816	0.305	0.172
-510.799	-83.943	-0.433	0.138
-509.785	48.530	-0.084	-0.079
-508.770	-111.010	-0.196	-0.040
-507.756	150.889	0.277	0.376
-506.741	-200.000	0.052	-0.378
-505.726	-200.000	-0.024	0.117
-504.712	247.166	0.088	0.149
-503.697	166.579	0.059	0.084
-502.683	7.374	-0.207	-0.155
-501.668	37.176	0.271	0.239
-500.653	774.697	-0.083	0.225
-499.639	146.565	0.131	-0.176
-498.624	-58.847	0.223	-0.096
-497.610	5.773	-0.144	-0.107
-496.595	48.869	0.107	-0.100
-495.581	-200.000	0.061	-0.677
-494.566	-43.797	0.047	0.024
-493.551	-110.597	0.273	-0.056
-492.537	800.000	-0.056	0.167
-491.522	771.880	0.051	-0.139
-490.508	-200.000	-0.304	0.001
-489.493	-38.617	-0.100	0.053
-488.478	-200.000	-0.028	0.140
-487.464	731.221	0.027	-0.073
-486.449	42.300	0.112	-0.102
-485.435	407.721	-0.095	0.200
-484.420	-200.000	-0.022	-0.149
-483.405	-200.000	-0.034	-0.193
-482.391	-200.000	-0.024	0.117
-481.376	51.938	0.251	-0.239
-480.362	-137.402	-0.272	-0.031
-479.347	-200.000	-0.048	-0.344
-478.332	22.471	0.087	0.071
-477.318	4.721	-0.223	0.164
-476.303	445.862	-0.143	0.313
-475.289	57.576	0.148	0.144
-474.274	-6.597	-0.146	0.099
-473.259	64.832	-0.513	0.517
-472.245	16.308	0.219	0.172
-471.230	-111.432	-0.065	-0.013
-470.216	34.793	-0.118	0.103
-469.201	207.010	-0.189	-0.293
-468.186	-105.042	-0.330	0.075
-467.172	90.473	-0.114	-0.128
-466.157	232.138	-0.042	-0.069
-465.143	-91.929	0.328	-0.093
-464.128	16.178	-0.207	-0.163
-463.113	-200.000	0.032	-0.300
-462.099	300.350	-0.097	-0.179
-461.084	183.322	0.190	0.280
-460.070	-65.972	-0.097	0.038
-459.055	101.367	-0.134	0.156
-458.040	-99.725	-0.238	0.060
-457.026	187.076	0.129	-0.191
-456.011	-25.539	0.232	0.136
-454.997	-174.503	-0.298	-0.009
-453.982	110.886	0.065	-0.078
-452.968	-38.972	0.045	-0.024
-451.953	677.966	-0.062	-0.160
-450.938	109.792	-0.086	-0.103
-449.924	-200.000	0.038	0.184
-448.909	419.781	0.072	0.153
-447.895	-83.440	-0.276	-0.088
-446.880	-200.000	-0.013	0.083
-445.865	-200.000	0.019	0.174
-444.851	-0.546	-0.194	0.138
-443.836	46.864	-0.194	-0.180
-442.822	-79.685	0.261	0.088
-441.807	800.000	0.042	0.131
-440.792	108.689	0.140	-0.167
-439.778	437.504	0.140	-0.303
-438.763	8.530	0.209	0.156
-437.749	472.528	0.074	0.166
-436.734	195.733	-0.162	0.246
-435.719	-177.659	-0.047	-0.001
-434.705	-200.000	-0.014	0.082
-433.690	180.495	-0.149	0.218
-432.676	256.402	0.165	-0.282
-431.661	800.000	0.082	0.251
-430.646	-72.444	0.257	0.095
-429.632	-200.000	-0.002	-0.074
-428.617	800.000	-0.115	0.329
-427.603	-134.629	-0.022	0.003
-426.588	-28.234	0.224	-0.129
-425.573	2.808	0.224	0.162
-424.559	426.245	-0.080	0.171
-423.544	-200.000	-0.008	0.055
-422.530	-105.139	-0.179	-0.041
-421.515	0.387	-0.060	0.043
-420.500	800.000	0.036	0.110
-419.486	-17.164	0.163	0.102
-418.471	432.390	0.066	-0.142
-417.457	-26.910	0.186	0.108
-416.442	-80.031	-0.107	-0.036
-415.428	253.534	0.119	-0.202
-414.413	556.939	0.146	-0.350
-413.398	800.000	-0.095	-0.274
-412.384	-200.000	-0.002	-0.303
-411.369	-200.000	-0.004	0.114
-410.355	-4.704	0.084	-0.058
-409.340	-92.834	-0.154	-0.043
-408.325	71.813	-0.132	-0.136
-407.311	195.321	0.125	0.189
-406.296	800.000	-0.041	-0.140
-405.282	800.000	-0.072	0.224
-404.267	29.598	0.157	-0.133
-403.252	-78.370	-0.225	0.077
-402.238	-133.819	-0.415	-0.051
-401.223	-32.640	0.178	-0.099
-400.209	7.874	-0.298	0.223
-399.194	-36.084	-0.193	0.104
-398.179	639.030	-0.097	-0.244
-397.165	62.623	-0.229	0.228
-396.150	-25.306	-0.034	-0.020
-395.136	-117.886	0.053	-0.009
-394.121	44.765	-0.185	0.169
-393.106	-70.249	-0.167	0.063
-392.092	-200.000	-0.062	0.297
-391.077	-68.805	-0.092	-0.035
-390.063	159.882	-0.219	0.304
-389.048	-21.556	0.118	0.072
-388.033	-163.842	0.068	-0.003
-387.019	-118.624	0.376	0.066
-386.004	-1.658	-0.348	-0.244
-384.990	170.721	0.063	-0.090
-383.975	-87.828	0.241	0.072
-382.960	-200.000	0.038	0.415
-381.946	-200.000	0.007	0.263
-380.931	537.550	0.074	0.175
-379.917	18.960	0.077	0.061
-378.902	-19.901	0.284	-0.174
-377.888	-19.798	0.066	0.041
-376.873	800.000	-0.059	0.194
-375.858	-200.000	0.064	0.295
-374.844	-200.000	0.058	-0.391
-373.829	-10.494	-0.203	-0.134
-372.815	22.775	-0.167	0.136
-371.800	-95.151	-0.178	-0.048
-370.785	72.091	0.084	0.087
-369.771	116.426	0.110	0.134
-368.756	-102.672	0.075	-0.018
-367.742	-94.953	0.411	-0.111
-366.727	151.886	-0.132	0.179
-365.712	-176.171	0.379	0.010
-364.698	800.000	-0.062	0.244
-363.683	-200.000	0.009	0.074
-362.669	-93.175	-0.315	-0.087
-361.654	-200.000	0.007	0.259
-360.639	-200.000	-0.043	0.247
-359.625	-179.994	-0.178	-0.004
-358.610	414.234	-0.093	-0.196
-357.596	-36.495	-0.329	0.176
-356.581	6.426	0.037	0.027
-355.566	-200.000	0.042	-0.202
-354.552	-20.653	-0.123	0.075
-353.537	14.731	0.102	0.079
-352.523	-132.948	0.263	0.033
-351.508	-38.461	0.280	-0.147
-350.493	355.479	0.074	-0.147
-349.479	-200.000	-0.003	0.087
-348.464	800.000	0.057	0.241
-347.450	-72.106	0.037	-0.014
-346.435	488.984	0.194	0.439
-345.420	-200.000	0.009	-0.333
-344.406	-200.000	0.010	-0.069
-343.391	0.769	0.148	-0.105
-342.377	-200.000	-0.011	-0.148
-341.362	-26.635	-0.341	-0.198
-340.348	602.365	0.114	-0.282
-339.333	-200.000	0.008	-0.042
-338.318	-200.000	-0.030	0.304
-337.304	-15.718	-0.202	-0.128
-336.289	52.372	0.333	-0.315
-335.275	-24.918	-0.235	-0.138
-334.260	-200.000	-0.032	0.263
-333.245	5.459	0.165	-0.121
-332.231	-68.636	-0.314	-0.121
-331.216	-34.422	0.217	-0.118
-330.202	-50.806	0.078	0.037
-329.187	-125.618	0.251	0.038
-328.172	-37.674	0.075	0.040
-327.158	57.583	0.189	0.183
-326.143	-72.226	-0.253	0.093
-325.129	-7.816	-0.031	0.021
-324.114	-113.558	0.289	-0.056
-323.099	-63.423	-0.333	-0.136
-322.085	-26.261	0.246	-0.143
-321.070	25.018	0.205	0.169
-320.056	800.000	0.098	0.281
-319.041	-200.000	-0.017	0.320
-318.026	800.000	0.048	-0.203
-317.012	-158.330	-0.276	-0.016
-315.997	-17.154	-0.212	0.133
-314.983	201.536	0.192	0.293
-313.968	-86.424	-0.435	-0.132
-312.953	116.732	0.140	-0.171
-311.939	31.127	0.129	-0.110
-310.924	172.428	-0.226	0.322
-309.910	800.000	-0.034	-0.142
-308.895	-200.000	0.007	-0.247
-307.880	-150.872	0.229	-0.017
-306.866	800.000	-0.111	0.328
-305.851	-70.604	0.043	-0.016
-304.837	54.977	-0.264	-0.253
-303.822	606.745	-0.038	0.093
-302.807	776.200	0.075	0.203
-301.793	-60.826	-0.193	-0.081
-300.778	0.215	0.192	0.135
-299.764	800.000	-0.065	-0.196
-298.749	-67.443	-0.227	0.088
-297.735	800.000	0.025	0.097
-296.720	224.060	0.135	0.216
-295.705	-14.003	-0.107	0.068
-294.691	588.749	0.103	0.252
-293.676	152.626	-0.080	0.109
-292.662	266.820	-0.081	0.140
-291.647	-104.168	0.146	0.034
-290.632	170.156	-0.114	0.161
-289.618	17.631	0.301	-0.237
-288.603	22.100	-0.179	0.144
-287.589	-143.577	0.241	0.023
-286.574	194.894	0.089	0.134
-285.559	215.659	0.217	0.341
-284.545	48.507	-0.247	-0.229
-283.530	-200.000	0.032	-0.257
-282.516	61.531	0.028	0.028
-281.501	-200.000	-0.076	0.339
-280.486	270.667	0.097	0.170
-279.472	-200.000	0.040	-0.177
-278.457	800.000	0.042	0.128
-277.443	256.346	-0.025	-0.042
-276.428	-165.854	0.315	-0.013
-275.413	-200.000	0.014	0.545
-274.399	-36.102	-0.316	0.169
-273.384	-200.000	-0.024	-0.244
-272.370	-21.082	0.063	-0.038
-271.355	270.662	-0.135	-0.235
-270.340	100.929	0.278	-0.320
-269.326	-200.000	0.031	-0.217
-268.311	111.386	-0.191	-0.228
-267.297	60.563	0.250	-0.245
-266.282	145.213	0.143	0.189
-265.267	-97.578	-0.153	0.039
-264.253	63.406	0.176	0.175
-263.238	-108.336	0.260	0.056
-262.224	-200.000	0.008	0.302
-261.209	-66.588	-0.125	-0.049
-260.195	612.959	0.166	0.412
-259.180	51.819	-0.030	0.028
-258.165	-200.000	0.009	0.050
-257.151	-65.921	-0.151	0.060
-256.136	-85.654	0.195	-0.060
-255.122	510.566	0.107	-0.246
-254.107	-200.000	-0.041	-0.286
-253.092	715.584	-0.106	-0.278
-252.078	800.000	-0.053	-0.174
-251.063	800.000	0.056	0.240
-250.049	-8.500	-0.262	-0.174
-249.034	-105.062	0.213	-0.048
-248.019	581.591	0.095	-0.231
-247.005	26.002	-0.154	0.127
-245.990	800.000	0.025	-0.077
-244.976	-20.975	-0.082	0.050
-243.961	-124.389	0.316	0.049
-242.946	-200.000	-0.037	-0.236
-241.932	-107.227	-0.077	0.017
-240.917	-74.663	0.289	-0.103
-239.903	-157.878	0.136	0.008
-238.888	187.096	-0.143	0.210
-237.873	-48.000	0.270	-0.129
-236.859	-71.906	-0.224	0.083
-235.844	-85.520	0.249	0.077
-234.830	-78.834	0.235	0.079
-233.815	-84.850	-0.248	0.077
-232.800	32.073	0.131	0.112
-231.786	470.863	0.116	0.259
-230.771	-200.000	0.000	0.185
-229.757	-111.710	0.131	-0.026
-228.742	252.726	0.086	0.145
-227.727	-179.173	0.123	-0.003
-226.713	-200.000	-0.017	0.273
-225.698	494.016	-0.099	-0.225
-224.684	71.674	0.087	-0.090
-223.669	115.073	0.084	0.101
-222.655	-200.000	0.044	-0.369
-221.640	-112.790	-0.131	0.026
-220.625	-99.245	-0.219	0.055
-219.611	-135.191	-0.137	-0.016
-218.596	-200.000	-0.022	0.352
-217.582	55.639	-0.329	0.315
-216.567	88.293	0.190	0.208
-215.552	66.200	-0.221	0.221
-214.538	327.448	0.064	0.121
-213.523	-178.834	0.062	-0.001
-212.509	-3.813	0.316	-0.217
-211.494	-200.000	-0.024	0.181
-210.479	-200.000	0.030	-0.158
-209.465	144.952	-0.066	-0.087
-208.450	-45.690	0.147	0.072
-207.436	12.528	0.214	0.163
-206.421	-66.127	-0.152	0.060
-205.406	-128.294	-0.217	0.031
-204.392	33.082	0.178	-0.152
-203.377	305.936	-0.011	-0.019
-202.363	-200.000	-0.079	-0.382
-201.348	-8.822	0.345	-0.228
-200.333	-25.205	0.176	-0.103
-199.319	-200.000	-0.004	0.136
-198.304	4.780	-0.122	0.088
-197.290	-118.088	0.197	-0.035
-196.275	-119.919	-0.124	-0.021
-195.260	800.000	-0.123	-0.428
-194.246	60.193	0.266	-0.260
-193.231	-117.176	0.099	0.018
-192.217	-120.953	0.097	-0.016
-191.202	18.042	-0.056	-0.044
-190.187	693.854	-0.100	0.260
-189.173	800.000	-0.064	0.226
-188.158	-200.000	-0.027	0.167
-187.144	265.757	-0.114	0.196
-186.129	103.062	0.042	0.049
-185.114	-60.908	0.256	-0.107
-184.100	-118.108	0.220	-0.039
-183.085	-37.079	-0.171	-0.090
-182.071	-81.799	-0.122	-0.040
-181.056	-101.266	0.261	0.063
-180.042	-44.209	0.134	-0.066
-179.027	294.958	0.070	0.126
-178.012	666.685	0.108	0.276
-176.998	-71.558	0.148	-0.054
-175.983	212.489	-0.113	-0.175
-174.969	-200.000	0.015	-0.066
-173.954	-183.786	0.440	-0.007
-172.939	800.000	0.086	0.331
-171.925	16.587	-0.131	-0.102
-170.910	-200.000	-0.011	-0.154
-169.896	-29.493	-0.068	0.038
-168.881	800.000	0.036	0.137
-167.866	-27.542	0.026	0.015
-166.852	-35.842	0.055	-0.030
-165.837	-200.000	0.046	-0.323
-164.823	-116.647	0.067	0.012
-163.808	800.000	0.103	-0.313
-162.793	481.924	0.100	-0.223
-161.779	-200.000	-0.021	-0.198
-160.764	-28.130	-0.052	-0.030
-159.750	-111.224	0.045	-0.009
-158.735	-13.208	-0.147	0.094
-157.720	-75.588	-0.134	-0.047
-156.706	-14.647	0.258	0.163
-155.691	-8.640	-0.230	-0.152
-154.677	-117.366	-0.283	0.051
-153.662	-200.000	-0.005	0.241
-152.647	-200.000	0.052	-0.347
-151.633	-143.353	-0.215	-0.020
-150.618	264.892	-0.134	0.229
-149.604	-121.287	-0.192	-0.032
-148.589	-65.432	0.163	-0.065
-147.574	82.140	-0.176	-0.188
-146.560	420.731	0.126	-0.266
-145.545	-200.000	0.015	0.189
-144.531	-200.000	0.032	-0.423
-143.516	0.604	-0.043	0.030
-142.502	-80.839	0.104	-0.034
-141.487	-22.741	-0.061	0.036
-140.472	-46.162	-0.157	0.076
-139.458	-200.000	0.042	0.220
-138.443	51.625	-0.181	0.170
-137.429	70.427	-0.135	0.137
-136.414	800.000	0.144	-0.521
-135.399	492.582	-0.066	-0.149
-134.385	451.664	-0.062	0.135
-133.370	-109.566	0.317	-0.066
-132.356	800.000	-0.081	0.287
-131.341	186.763	-0.143	0.209
-130.326	800.000	0.033	0.099
-129.312	108.759	0.068	0.081
-128.297	800.000	0.037	0.131
-127.283	-1.198	0.076	-0.053
-126.268	800.000	-0.031	0.097
-125.253	476.461	-0.066	-0.146
-124.239	-200.000	-0.019	0.086
-123.224	343.610	-0.252	0.485
-122.210	-114.975	-0.120	-0.022
-121.195	-155.053	-0.247	0.016
-120.180	194.607	0.176	-0.263
-119.166	-200.000	-0.057	0.270
-118.151	-46.065	0.226	0.109
-117.137	-200.000	-0.057	0.251
-116.122	234.264	-0.102	0.165
-115.107	-200.000	-0.057	-0.319
-114.093	259.961	0.034	0.058
-113.078	118.603	0.090	0.109
-112.064	756.026	-0.030	0.079
-111.049	-124.436	-0.015	0.002
-110.034	24.532	-0.151	-0.123
-109.020	-47.818	-0.187	0.089
-108.005	-155.827	-0.367	-0.023
-106.991	674.930	0.096	0.245
-105.976	800.000	-0.081	-0.292
-104.962	-83.460	-0.183	-0.058
-103.947	-200.000	0.009	0.283
-102.932	-76.050	-0.286	0.099
-101.918	-200.000	0.065	0.377
-100.903	800.000	0.017	0.058
-99.889	-200.000	-0.024	0.241
-98.874	57.594	-0.233	-0.224
-97.859	-10.426	0.088	0.058
-96.845	203.969	0.160	-0.244
-95.830	-157.829	0.126	-0.007
-94.816	-69.922	-0.275	-0.103
-93.801	-17.700	0.329	0.203
-92.786	800.000	-0.021	-0.091
-91.772	384.925	0.123	0.249
-90.757	-142.152	0.234	-0.023
-89.743	-200.000	-0.026	0.187
-88.728	-9.321	0.072	0.048
-87.713	161.607	0.008	0.012
-86.699	690.234	0.058	-0.149
-85.684	-67.196	-0.153	-0.059
-84.670	2.759	-0.139	-0.099
-83.655	110.075	-0.138	0.163
-82.640	-121.341	-0.315	0.052
-81.626	-51.171	-0.399	0.184
-80.611	-41.174	-0.177	0.090
-79.597	-55.967	-0.246	-0.108
-78.582	70.350	-0.100	0.101
-77.567	140.871	-0.201	0.261
-76.553	800.000	-0.130	0.463
-75.538	800.000	0.030	-0.123
-74.524	53.069	0.117	-0.110
-73.509	-47.637	-0.241	-0.115
-72.494	800.000	0.025	0.077
-71.480	81.204	0.108	0.114
-70.465	66.789	-0.175	-0.175
-69.451	78.664	0.236	-0.248
-68.436	800.000	0.081	-0.251
-67.422	-200.000	-0.025	0.155
-66.407	551.202	0.078	0.183
-65.392	34.402	-0.086	0.074
-64.378	-86.147	0.190	-0.057
-63.363	-200.000	-0.020	0.155
-62.349	162.447	0.215	0.295
-61.334	93.312	-0.974	-1.082
-60.319	300.024	0.291	0.527
-59.305	167.985	-0.414	-0.578
-58.290	718.052	0.520	1.357
-57.276	367.166	0.638	1.264
-56.261	-200.000	100.942	599.361
-55.246	593.298	1404.743	3407.302
-54.232	192.745	2592.565	3843.141
-53.217	111.374	2262.215	2676.633
-52.203	40.269	1886.495	1665.500
-51.188	34.230	1677.711	1435.758
-50.173	31.582	1633.760	1378.616
-49.159	49.888	1683.643	1557.980
-48.144	51.260	1700.769	1584.026
-47.130	33.947	1659.091	1417.489
-46.115	31.192	1645.143	1385.102
-45.100	31.058	1640.526	1380.167
-44.086	31.096	1637.537	1377.880
-43.071	31.021	1635.065	1375.195
-42.057	30.948	1632.769	1372.673
-41.042	31.049	1630.557	1371.503
-40.027	30.938	1629.175	1369.467
-39.013	30.966	1626.809	1367.633
-37.998	30.890	1625.527	1365.940
-36.984	30.963	1624.234	1365.331
-35.969	31.116	1622.714	1365.123
-34.954	31.066	1621.442	1363.628
-33.940	31.082	1619.816	1362.325
-32.925	30.982	1618.425	1360.371
-31.911	31.122	1616.092	1359.377
-30.896	30.998	1614.585	1357.156
-29.881	31.065	1613.135	1356.371
-28.867	31.080	1611.241	1354.829
-27.852	31.041	1609.966	1353.426
-26.838	31.120	1608.649	1352.834
-25.823	31.173	1606.452	1351.316
-24.809	31.160	1605.381	1350.267
-23.794	31.003	1604.899	1348.672
-22.779	31.045	1603.319	1347.598
-21.765	31.039	1601.406	1345.888
-20.750	31.167	1599.070	1344.795
-19.736	31.144	1598.296	1343.928
-18.721	31.164	1596.434	1342.454
-17.706	31.089	1595.187	1340.812
-16.692	31.030	1593.983	1339.325
-15.677	30.994	1592.578	1337.828
-14.663	31.213	1590.804	1337.854
-13.648	31.055	1590.269	1336.219
-12.633	31.180	1587.941	1335.105
-11.619	31.029	1586.778	1333.000
-10.604	31.054	1585.572	1332.108
-9.590	31.089	1584.279	1331.222
-8.575	31.113	1583.038	1330.298
-7.560	31.017	1581.855	1328.566
-6.546	31.064	1581.235	1328.322
-5.531	31.047	1579.729	1326.886
-4.517	31.143	1578.380	1326.386
-3.502	31.064	1577.676	1325.176
-2.487	31.092	1575.676	1323.646
-1.473	30.722	1564.692	1311.754
-0.458	27.967	1544.380	1275.479
0.556	25.863	1545.577	1242.943
1.571	23.354	1569.174	1244.214
2.586	22.689	1581.933	1249.508
3.600	20.368	1528.629	1191.394
4.615	12.169	1421.199	1055.046
5.629	4.935	1357.795	963.304
6.644	3.635	1349.935	949.652
7.659	3.599	1348.852	948.582
8.673	3.516	1348.073	947.444
9.688	3.530	1346.180	946.111
10.702	3.342	1343.164	942.759
11.717	6.768	1349.220	967.956
12.731	15.506	1365.633	1033.654
13.746	22.742	1377.613	1087.390
14.761	24.549	1378.665	1099.262
15.775	24.247	1377.682	1096.521
16.790	23.736	1375.769	1091.761
17.804	23.225	1375.069	1087.967
18.819	23.235	1373.810	1086.939
19.834	23.209	1372.837	1085.914
20.848	23.299	1372.213	1085.875
21.863	23.272	1371.022	1084.672
22.877	23.109	1370.509	1083.173
23.892	23.164	1369.129	1082.324
24.907	23.021	1368.495	1080.848
25.921	23.025	1367.664	1080.122
26.936	23.078	1366.736	1079.619
27.950	23.142	1365.412	1078.868
28.965	23.177	1364.710	1078.428
29.980	23.256	1363.790	1078.088
30.994	23.331	1363.031	1077.849
32.009	23.284	1362.099	1076.730
33.023	23.301	1361.006	1075.874
34.038	23.315	1359.304	1074.521
35.053	23.157	1358.576	1072.893
36.067	23.076	1357.467	1071.428
37.082	23.068	1356.435	1070.475
38.096	23.080	1355.596	1069.790
39.111	23.179	1355.196	1069.977
40.126	23.108	1353.902	1068.432
41.140	22.847	1352.938	1065.997
42.155	22.615	1352.430	1064.108
43.169	22.562	1352.726	1063.926
44.184	22.579	1352.097	1063.437
45.199	22.779	1351.572	1064.134
46.213	22.941	1351.469	1064.936
47.228	22.966	1351.135	1064.730
48.242	23.127	1349.642	1064.427
49.257	23.064	1348.355	1062.943
50.271	22.997	1347.114	1061.465
51.286	23.109	1345.539	1060.806
52.301	23.023	1344.199	1059.138
53.315	22.870	1343.402	1057.501
54.330	22.740	1343.163	1056.440
55.344	22.734	1341.373	1054.905
56.359	22.707	1340.344	1053.838
57.374	22.659	1339.532	1052.823
58.388	22.632	1338.755	1051.958
59.403	22.500	1338.212	1050.646
60.417	22.491	1337.389	1049.856
61.432	22.434	1336.311	1048.577
62.447	22.388	1335.627	1047.673
63.461	22.384	1334.311	1046.528
64.476	22.357	1333.565	1045.686
65.490	22.273	1332.837	1044.522
66.505	22.469	1330.593	1043.833
67.520	22.420	1329.823	1042.849
68.534	22.434	1328.968	1042.168
69.549	22.291	1327.720	1040.254
70.563	22.340	1326.717	1039.667
71.578	22.131	1325.475	1037.365
72.593	22.096	1324.594	1036.377
73.607	22.157	1324.065	1036.233
74.622	22.207	1323.291	1035.831
75.636	22.150	1322.703	1034.944
76.651	22.222	1321.954	1034.687
77.666	22.244	1322.046	1034.798
78.680	22.204	1321.374	1033.946
79.695	22.324	1320.346	1033.753
80.709	22.470	1319.758	1034.060
81.724	22.492	1319.531	1033.918
82.739	22.618	1318.916	1034.086
83.753	22.941	1318.067	1035.221
84.768	23.216	1317.369	1036.189
85.782	23.285	1316.678	1035.961
86.797	23.371	1314.809	1034.898
87.812	23.184	1314.132	1033.181
88.826	23.180	1312.833	1032.046
89.841	23.146	1312.418	1031.432
90.855	23.252	1311.347	1031.114
91.870	23.310	1310.835	1030.960
92.884	23.387	1310.152	1030.781
93.899	23.436	1309.247	1030.262
94.914	23.447	1308.376	1029.546
95.928	23.385	1307.688	1028.555
96.943	23.346	1306.543	1027.340
97.957	23.273	1306.015	1026.410
98.972	23.289	1304.923	1025.552
99.987	23.227	1304.251	1024.575
101.001	23.314	1303.273	1024.217
102.016	23.244	1301.942	1022.675
103.030	23.201	1301.523	1022.012
104.045	23.121	1300.471	1020.629
105.060	23.016	1298.747	1018.584
106.074	22.767	1297.365	1015.979
107.089	22.500	1296.512	1013.684
108.103	22.314	1294.557	1010.993
109.118	22.295	1293.324	1009.835
110.133	22.288	1291.838	1008.544
111.147	22.347	1290.931	1008.087
112.162	22.408	1290.110	1007.702
113.176	22.588	1288.835	1007.646
114.191	22.472	1288.230	1006.423
115.206	22.579	1287.220	1006.159
116.220	22.514	1286.393	1005.049
117.235	22.581	1285.073	1004.309
118.249	22.318	1284.248	1002.082
119.264	22.262	1283.226	1000.873
120.279	22.203	1282.316	999.743
121.293	22.188	1281.441	998.885
122.308	22.050	1280.104	996.969
123.322	22.010	1279.035	995.825
124.337	21.906	1278.243	994.528
125.352	22.002	1276.884	993.929
126.366	21.872	1276.087	992.484
127.381	22.054	1274.737	992.377
128.395	21.853	1274.070	990.634
129.410	21.898	1273.016	989.977
130.424	22.056	1272.312	990.238
131.439	22.128	1272.321	990.562
132.454	22.291	1271.521	990.765
133.468	22.500	1270.698	991.218
134.483	22.527	1269.932	990.685
135.497	22.480	1269.186	989.750
136.512	22.534	1268.042	989.072
137.527	22.512	1266.866	987.940
138.541	22.609	1265.328	987.198
139.556	22.744	1264.295	987.061
140.570	22.827	1263.339	986.692
141.585	22.967	1262.718	986.903
142.600	23.112	1262.310	987.306
143.614	23.190	1261.768	987.229
144.629	23.168	1260.742	986.218
145.643	23.193	1259.629	985.394
146.658	22.979	1258.115	982.934
147.673	22.849	1256.931	981.199
148.687	22.732	1255.897	979.657
149.702	22.606	1254.536	977.811
150.716	22.458	1252.368	975.213
151.731	22.357	1251.556	973.939
152.746	22.415	1251.080	973.800
153.760	22.664	1249.889	974.166
154.775	22.846	1249.213	974.554
155.789	22.935	1247.944	973.968
156.804	22.796	1247.765	972.977
157.819	22.853	1246.449	972.180
158.833	22.986	1246.293	972.703
159.848	23.039	1245.319	972.148
160.862	23.012	1244.542	971.309
161.877	22.662	1242.989	968.088
162.892	22.335	1241.700	965.206
163.906	22.374	1240.435	964.354
164.921	22.382	1239.123	963.289
165.935	22.465	1239.182	963.703
166.950	22.504	1238.742	963.488
167.964	22.694	1237.988	963.856
168.979	22.587	1237.145	962.533
169.994	22.572	1236.208	961.635
171.008	22.554	1235.245	960.701
172.023	22.654	1235.214	961.141
173.037	22.886	1234.605	961.842
174.052	22.937	1233.702	961.330
175.067	22.567	1232.519	958.312
176.081	22.464	1230.997	956.488
177.096	22.364	1230.065	955.135
178.110	22.414	1229.392	954.799
179.125	22.433	1228.502	954.128
180.140	22.646	1227.731	954.593
181.154	22.874	1226.784	955.009
182.169	23.037	1225.511	954.815
183.183	22.917	1224.651	953.413
184.198	23.131	1223.546	953.623
185.213	23.015	1222.354	951.982
186.227	23.000	1221.774	951.366
187.242	23.127	1220.930	951.308
188.256	23.129	1220.130	950.612
189.271	23.192	1219.358	950.263
190.286	23.091	1218.404	948.891
191.300	22.734	1216.555	945.455
192.315	22.660	1216.161	944.671
193.329	22.627	1215.637	944.004
194.344	22.559	1215.206	943.222
195.359	22.503	1214.388	942.204
196.373	22.373	1213.638	940.842
197.388	22.482	1213.376	941.142
198.402	22.833	1213.407	942.957
199.417	23.138	1213.486	944.559
200.432	23.422	1212.752	945.419
201.446	23.342	1212.374	944.618
202.461	23.419	1211.360	944.152
203.475	23.321	1210.447	942.837
204.490	23.047	1208.966	940.145
205.504	22.837	1207.847	938.076
206.519	22.736	1206.611	936.496
207.534	22.538	1205.343	934.379
208.548	22.564	1204.395	933.696
209.563	22.676	1203.397	933.434
210.577	22.602	1202.496	932.263
211.592	22.751	1202.051	932.623
212.607	23.118	1202.063	934.487
213.621	23.279	1201.010	934.438
214.636	23.019	1199.716	931.976
215.650	23.075	1198.950	931.596
216.665	23.206	1198.443	931.808
217.680	23.407	1197.809	932.287
218.694	23.560	1196.683	932.135
219.709	23.227	1196.279	929.988
220.723	23.306	1195.359	929.605
221.738	23.247	1194.624	928.640
222.753	23.073	1193.918	927.098
223.767	22.997	1193.734	926.477
224.782	23.227	1193.100	927.106
225.796	23.403	1192.923	927.809
226.811	23.423	1191.765	926.932
227.826	23.206	1190.796	924.960
228.840	23.106	1189.896	923.657
229.855	22.967	1189.325	922.408
230.869	22.963	1188.499	921.665
231.884	22.886	1187.669	920.538
232.899	22.731	1185.991	918.350
233.913	22.626	1185.414	917.272
234.928	22.731	1184.785	917.251
235.942	22.660	1183.774	916.021
236.957	22.486	1183.334	914.697
237.972	22.465	1182.321	913.719
238.986	22.567	1181.969	913.900
240.001	22.582	1181.376	913.434
241.015	22.554	1180.479	912.517
242.030	22.627	1179.965	912.414
243.045	22.877	1179.382	913.175
244.059	22.959	1178.742	913.028
245.074	23.114	1177.733	912.960
246.088	23.085	1177.419	912.489
247.103	23.306	1176.403	912.762
248.117	23.231	1176.496	912.367
249.132	23.633	1175.733	913.762
250.147	23.913	1175.960	915.302
251.161	24.141	1174.842	915.521
252.176	24.029	1174.780	914.818
253.190	24.172	1173.913	914.792
254.205	24.325	1173.266	914.993
255.220	24.445	1172.690	915.078
256.234	24.362	1171.929	913.979
257.249	24.256	1171.247	912.824
258.263	24.162	1170.784	911.899
259.278	24.026	1170.151	910.630
260.293	24.085	1170.129	910.835
261.307	24.201	1169.116	910.557
262.322	24.382	1168.211	910.695
263.336	24.329	1167.878	910.087
264.351	24.254	1167.051	908.979
265.366	24.239	1166.692	908.545
266.380	24.420	1165.547	908.492
267.395	24.187	1164.987	906.791
268.409	24.114	1163.862	905.464
269.424	23.975	1163.347	904.276
270.439	23.919	1162.971	903.620
271.453	23.891	1161.715	902.423
272.468	23.643	1160.902	900.449
273.482	23.543	1159.785	899.000
274.497	23.545	1159.945	899.051
275.512	23.588	1158.748	898.266
276.526	23.579	1157.950	897.519
277.541	23.624	1157.628	897.417
278.555	23.838	1156.658	897.666
279.570	24.036	1156.612	898.555
280.585	24.171	1155.845	898.558
281.599	24.208	1154.809	897.859
282.614	23.973	1153.592	895.651
283.628	23.766	1152.391	893.599
284.643	23.725	1151.457	892.588
285.657	23.710	1150.490	891.687
286.672	23.883	1149.825	891.958
287.687	23.739	1149.049	890.557
288.701	23.932	1148.208	890.792
289.716	23.850	1147.669	889.887
290.730	23.787	1147.185	889.117
291.745	23.809	1146.222	888.403
292.760	23.875	1146.017	888.491
293.774	23.923	1145.835	888.512
294.789	24.133	1145.214	889.000
295.803	24.069	1144.565	888.100
296.818	23.947	1143.438	886.537
297.833	23.871	1142.486	885.342
298.847	23.861	1141.553	884.492
299.862	23.789	1141.082	883.690
300.876	23.860	1140.485	883.504
301.891	23.952	1140.032	883.528
302.906	24.241	1139.497	884.473
303.920	24.431	1139.049	884.990
304.935	24.513	1138.771	885.102
305.949	24.584	1138.040	884.804
306.964	24.510	1137.470	883.921
307.979	24.370	1136.433	882.340
308.993	24.199	1135.847	880.965
310.008	24.296	1135.218	880.878
311.022	24.400	1134.165	880.493
312.037	24.489	1133.242	880.139
313.052	24.232	1131.968	877.806
314.066	24.002	1130.942	875.804
315.081	23.668	1129.911	873.281
316.095	23.560	1129.322	872.220
317.110	23.552	1128.899	871.776
318.125	23.524	1128.270	871.076
319.139	23.699	1127.067	870.930
320.154	23.600	1126.454	869.892
321.168	23.639	1125.885	869.568
322.183	23.559	1125.645	868.913
323.197	23.668	1125.192	869.021
324.212	23.773	1124.396	868.842
325.227	23.927	1123.932	869.161
326.241	23.916	1123.318	868.552
327.256	23.760	1122.346	866.963
328.270	23.663	1121.702	865.918
329.285	23.735	1120.851	865.532
330.300	23.806	1119.970	865.123
331.314	23.751	1118.867	863.927
332.329	23.608	1117.967	862.459
333.343	23.730	1117.464	862.590
334.358	23.869	1117.059	862.873
335.373	24.057	1116.742	863.465
336.387	24.142	1116.381	863.521
337.402	24.287	1115.226	863.254
338.416	24.341	1114.689	863.022
339.431	24.407	1114.276	862.945
340.446	24.558	1113.965	863.359
341.460	24.744	1113.568	863.873
342.475	24.962	1112.499	864.018
343.489	24.712	1112.176	862.488
344.504	25.034	1110.725	862.835
345.519	25.043	1110.014	862.249
346.533	25.133	1109.345	862.085
347.548	25.191	1108.930	861.969
348.562	24.977	1107.689	859.898
349.577	24.610	1106.401	857.061
350.592	24.367	1105.294	854.965
351.606	24.172	1104.690	853.491
352.621	24.107	1103.745	852.369
353.635	23.932	1103.280	851.101
354.650	24.121	1102.294	851.166
355.665	24.128	1101.808	850.749
356.679	24.338	1101.465	851.412
357.694	24.449	1100.981	851.492
358.708	24.428	1100.513	850.953
359.723	24.499	1099.279	850.263
360.738	24.389	1099.155	849.566
361.752	24.342	1098.956	849.114
362.767	24.492	1097.852	848.899
363.781	24.499	1097.612	848.675
364.796	24.706	1097.373	849.399
365.810	24.860	1097.134	849.870
366.825	25.045	1096.164	849.917
367.840	25.149	1096.241	850.398
368.854	25.357	1095.587	850.801
369.869	25.228	1095.019	849.673
370.883	25.143	1093.556	848.059
371.898	24.935	1092.728	846.359
372.913	24.808	1092.048	845.158
373.927	24.889	1091.989	845.423
374.942	25.027	1091.705	845.780
375.956	25.029	1091.238	845.351
376.971	24.968	1090.307	844.267
377.986	25.058	1089.891	844.294
379.000	25.236	1089.799	844.985
380.015	25.185	1089.111	844.136
381.029	25.414	1088.173	844.415
382.044	25.258	1087.853	843.357
383.059	25.218	1087.131	842.536
384.073	25.279	1086.003	841.874
385.088	25.308	1085.056	841.200
386.102	25.401	1084.143	840.854
387.117	25.107	1082.683	838.269
388.132	24.687	1081.919	835.641
389.146	24.677	1080.817	834.673
390.161	24.646	1080.379	834.116
391.175	24.549	1079.997	833.291
392.190	24.862	1079.433	834.245
393.205	25.174	1079.237	835.471
394.219	25.145	1078.385	834.601
395.234	24.862	1077.138	832.247
396.248	24.755	1075.708	830.573
397.263	24.618	1074.624	829.028
398.278	24.653	1074.368	828.917
399.292	24.663	1073.485	828.209
400.307	24.703	1073.089	828.018
401.321	24.554	1071.692	826.178
402.336	24.416	1070.849	824.815
403.350	24.372	1070.526	824.293
404.365	24.657	1070.451	825.476
405.380	24.739	1069.642	825.157
406.394	24.849	1069.009	825.102
407.409	24.955	1068.254	824.935
408.423	25.223	1068.057	825.943
409.438	25.537	1066.866	826.393
410.453	25.403	1066.724	825.598
411.467	25.473	1066.065	825.333
412.482	25.508	1065.576	825.045
413.496	25.559	1064.950	824.721
414.511	25.564	1064.856	824.594
415.526	25.789	1064.097	824.965
416.540	25.813	1063.747	824.731
417.555	25.815	1063.008	824.094
418.569	25.574	1062.343	822.407
419.584	25.549	1061.682	821.709
420.599	25.468	1061.529	821.146
421.613	154.982	1404.512	1795.928
422.628	142.500	1454.466	1796.025
