DTS Sentinel unit serial number:	SN413079Multiplexer serial number:	ORYXHardware model number:	OX4-SRSoftware version number:	ORYX F/W v4.00 Oryx Data Collector v3.7.2.0data status	okinstallation	princeton_trtdifferential loss correction	single-endedforward channel	channel 2reverse channel	N/Adate	2019/09/13time	02:03:35forward acquisition time	60.00reverse acquisition time	0.00gamma	496.2192k internal	0.2334k external	0.2334temperature offset calibration	1.0179default loss term (dB/km)	0.3790temperature slope calibration	1.0000multiplexer offset coefficient	1.0000multiplexer slope coefficient	1.0000fibre end	0.00T internal ref (°C)	27.62T ext. ref 1 (°C)	3.86T ext. ref 2 (°C)	22.25length (m)	temperature (°C)	Stokes	anti-Stokes-747.200	-103.557	-0.140	0.033
-746.185	366.587	-0.055	0.111
-745.171	638.913	-0.046	-0.116
-744.156	742.828	0.106	0.286
-743.142	-150.199	0.098	0.008
-742.127	66.595	0.118	0.121
-741.112	800.000	-0.052	0.207
-740.098	-200.000	0.053	0.346
-739.083	-200.000	0.032	-0.211
-738.069	702.061	-0.025	-0.066
-737.054	800.000	0.030	-0.101
-736.039	-83.539	0.161	-0.052
-735.025	-67.314	0.226	0.089
-734.010	800.000	-0.178	-0.659
-732.996	-71.161	-0.340	-0.128
-731.981	403.098	-0.045	-0.094
-730.966	-200.000	0.022	-0.102
-729.952	-62.022	-0.175	-0.073
-728.937	-149.185	0.183	0.015
-727.923	405.376	0.046	-0.097
-726.908	-200.000	0.043	-0.195
-725.894	53.706	-0.253	-0.244
-724.879	-73.010	-0.129	0.048
-723.864	-70.081	0.113	-0.043
-722.850	141.565	0.042	-0.055
-721.835	501.350	-0.058	0.135
-720.821	479.558	0.116	-0.263
-719.806	281.065	0.067	0.120
-718.791	-133.186	-0.025	0.003
-717.777	270.751	-0.200	0.354
-716.762	-200.000	-0.020	0.218
-715.748	-200.000	0.048	-0.221
-714.733	167.158	-0.075	-0.107
-713.718	310.316	-0.040	-0.076
-712.704	-61.807	-0.258	0.108
-711.689	-111.403	0.194	-0.040
-710.675	-101.240	-0.132	-0.032
-709.660	800.000	-0.047	-0.204
-708.645	124.220	-0.268	-0.339
-707.631	-47.879	0.210	0.102
-706.616	68.589	-0.063	0.065
-705.602	-92.994	0.058	0.016
-704.587	800.000	-0.077	-0.215
-703.572	202.659	-0.090	0.140
-702.558	-200.000	-0.006	0.253
-701.543	-50.985	-0.236	0.111
-700.529	-40.237	0.163	0.085
-699.514	-200.000	0.014	-0.085
-698.499	46.739	0.268	0.249
-697.485	-47.041	0.129	0.063
-696.470	148.593	0.197	-0.267
-695.456	36.787	-0.219	-0.194
-694.441	-51.651	0.214	-0.100
-693.426	-200.000	0.021	0.250
-692.412	171.167	-0.046	-0.065
-691.397	-36.267	-0.170	0.092
-690.383	72.372	-0.201	0.210
-689.368	626.195	-0.105	-0.266
-688.354	-184.516	0.223	0.004
-687.339	-9.021	-0.098	0.066
-686.324	-81.020	0.332	-0.110
-685.310	-24.693	-0.141	-0.084
-684.295	153.655	-0.106	-0.146
-683.281	251.650	0.085	-0.145
-682.266	414.500	0.085	-0.181
-681.251	-200.000	0.017	0.157
-680.237	187.866	-0.138	0.207
-679.222	-200.000	0.088	0.480
-678.208	-37.584	0.277	0.148
-677.193	549.700	0.140	-0.337
-676.178	384.330	-0.188	0.388
-675.164	127.305	0.094	-0.120
-674.149	359.383	-0.055	0.110
-673.135	147.797	0.083	0.113
-672.120	476.843	0.045	0.103
-671.105	-17.684	-0.185	0.116
-670.091	414.258	-0.086	0.184
-669.076	800.000	0.062	-0.216
-668.062	-200.000	-0.009	-0.180
-667.047	245.473	-0.137	-0.231
-666.032	-188.822	0.177	-0.002
-665.018	252.029	0.147	0.251
-664.003	-179.844	0.141	0.003
-662.989	428.370	-0.126	0.272
-661.974	201.787	-0.052	0.081
-660.959	-200.000	-0.019	-0.195
-659.945	59.165	-0.059	0.058
-658.930	-48.846	-0.326	0.157
-657.916	-162.881	-0.263	0.013
-656.901	-170.196	0.173	-0.006
-655.886	-16.796	-0.147	0.093
-654.872	46.503	0.062	0.057
-653.857	-200.000	-0.021	-0.123
-652.843	-200.000	0.052	-0.338
-651.828	-200.000	0.019	-0.329
-650.814	800.000	0.096	0.285
-649.799	-54.597	0.312	0.141
-648.784	-200.000	0.012	0.062
-647.770	5.893	-0.192	-0.142
-646.755	-94.114	0.398	-0.109
-645.741	251.124	0.063	-0.108
-644.726	-63.459	0.177	0.073
-643.711	253.457	0.137	0.235
-642.697	-127.011	0.207	-0.030
-641.682	11.005	-0.075	-0.057
-640.668	-135.290	-0.170	0.020
-639.653	-200.000	-0.007	-0.268
-638.638	-200.000	-0.035	0.224
-637.624	173.466	0.074	-0.107
-636.609	55.176	-0.117	0.113
-635.595	-108.911	-0.039	-0.008
-634.580	-200.000	-0.008	0.059
-633.565	-200.000	0.082	-0.513
-632.551	800.000	0.014	-0.062
-631.536	540.730	0.097	-0.231
-630.522	-200.000	-0.013	0.076
-629.507	14.364	0.098	0.076
-628.492	-100.302	-0.515	-0.128
-627.478	-144.799	0.148	0.014
-626.463	-74.405	-0.180	-0.065
-625.449	-160.208	0.179	-0.010
-624.434	-200.000	0.021	-0.291
-623.419	-130.738	0.106	-0.014
-622.405	117.194	0.057	-0.070
-621.390	-200.000	-0.032	-0.229
-620.376	-200.000	-0.031	-0.139
-619.361	-85.597	0.138	-0.043
-618.346	278.573	-0.190	-0.338
-617.332	-107.332	-0.109	-0.024
-616.317	-58.571	0.049	0.021
-615.303	-93.225	-0.073	-0.020
-614.288	222.118	0.080	-0.128
-613.273	200.815	0.111	-0.170
-612.259	46.011	0.136	-0.126
-611.244	-200.000	-0.012	0.210
-610.230	800.000	-0.024	-0.089
-609.215	265.441	0.085	-0.148
-608.201	-54.820	-0.261	-0.118
-607.186	-91.927	-0.152	0.043
-606.171	-200.000	0.005	0.325
-605.157	-200.000	0.026	-0.137
-604.142	-57.008	-0.224	-0.099
-603.128	218.138	-0.235	-0.375
-602.113	-66.767	-0.237	-0.094
-601.098	-13.878	-0.082	-0.053
-600.084	-74.310	0.320	0.116
-599.069	-110.484	0.483	-0.100
-598.055	473.439	-0.065	0.146
-597.040	-112.726	-0.425	0.084
-596.025	26.251	-0.202	-0.168
-595.011	-119.549	-0.266	-0.046
-593.996	-99.105	0.326	0.083
-592.982	-200.000	0.036	-0.263
-591.967	335.176	0.012	-0.024
-590.952	6.160	-0.233	-0.172
-589.938	10.407	0.214	-0.162
-588.923	158.832	-0.118	0.164
-587.909	800.000	-0.068	0.293
-586.894	402.179	-0.143	-0.300
-585.879	61.561	0.396	0.394
-584.865	800.000	-0.086	-0.273
-583.850	-101.360	-0.118	-0.029
-582.836	380.417	-0.045	-0.093
-581.821	-99.384	0.169	-0.042
-580.806	-145.720	0.084	0.007
-579.792	133.667	0.152	-0.196
-578.777	-162.889	-0.105	0.005
-577.763	6.584	-0.116	-0.086
-576.748	-200.000	-0.027	0.170
-575.733	-200.000	0.035	0.171
-574.719	800.000	-0.117	0.384
-573.704	-183.948	-0.120	0.002
-572.690	-98.745	-0.051	0.013
-571.675	-42.463	-0.172	0.088
-570.661	-55.578	-0.106	-0.048
-569.646	-114.900	-0.323	0.061
-568.631	173.285	-0.260	-0.374
-567.617	800.000	-0.058	0.213
-566.602	-7.666	-0.286	0.193
-565.588	-16.786	0.101	0.064
-564.573	800.000	0.170	-0.485
-563.558	-200.000	-0.020	0.180
-562.544	-200.000	-0.075	0.488
-561.529	752.695	0.021	0.058
-560.515	-173.473	0.067	-0.002
-559.500	83.136	0.140	-0.153
-558.485	-55.928	-0.186	0.083
-557.471	54.029	-0.170	0.164
-556.456	-34.982	-0.065	0.036
-555.442	-98.649	0.106	-0.027
-554.427	800.000	0.119	-0.364
-553.412	569.084	0.215	-0.521
-552.398	-71.218	0.059	0.022
-551.383	-147.923	0.211	-0.018
-550.369	58.011	0.157	-0.154
-549.354	-108.024	-0.165	0.036
-548.339	-130.100	-0.129	0.018
-547.325	-200.000	-0.164	0.000
-546.310	-200.000	0.005	-0.101
-545.296	139.639	-0.104	0.137
-544.281	645.506	0.020	0.051
-543.266	-200.000	0.006	0.116
-542.252	-197.668	0.351	0.002
-541.237	-184.406	0.078	0.001
-540.223	56.486	0.072	0.070
-539.208	81.094	0.228	-0.245
-538.193	637.192	-0.028	0.070
-537.179	-53.064	0.135	0.062
-536.164	318.298	-0.142	-0.268
-535.150	85.304	-0.051	0.056
-534.135	-62.685	-0.139	-0.058
-533.121	-200.000	-0.020	0.263
-532.106	-106.319	0.367	0.082
-531.091	111.212	0.123	0.148
-530.077	-93.755	-0.201	-0.055
-529.062	422.420	-0.072	-0.155
-528.048	7.662	0.306	0.229
-527.033	-171.491	0.275	-0.009
-526.018	169.652	0.097	-0.138
-525.004	214.465	-0.140	-0.220
-523.989	-200.000	-0.018	0.157
-522.975	650.190	-0.167	-0.426
-521.960	150.955	0.151	-0.204
-520.945	800.000	0.104	-0.301
-519.931	311.720	0.136	0.253
-518.916	239.136	0.105	-0.174
-517.902	94.362	-0.084	0.095
-516.887	-76.583	-0.218	-0.076
-515.872	-200.000	0.011	0.118
-514.858	-60.981	0.253	0.107
-513.843	172.863	-0.181	0.259
-512.829	-200.000	0.011	0.069
-511.814	800.000	0.070	-0.244
-510.799	800.000	0.041	-0.126
-509.785	346.188	-0.252	0.493
-508.770	-42.909	0.195	-0.099
-507.756	-95.256	-0.202	0.054
-506.741	-115.193	-0.140	-0.026
-505.726	53.297	0.076	-0.073
-504.712	-159.089	0.212	-0.012
-503.697	-10.134	-0.125	0.083
-502.683	-59.629	-0.202	-0.086
-501.668	-200.000	-0.012	-0.081
-500.653	-123.625	0.225	0.036
-499.639	23.632	0.222	0.182
-498.624	343.103	-0.038	0.073
-497.610	-200.000	0.038	-0.243
-496.595	-29.265	-0.097	0.055
-495.581	-45.771	0.176	0.087
-494.566	-74.537	-0.171	0.061
-493.551	-200.000	0.011	-0.211
-492.537	-58.649	0.143	-0.062
-491.522	223.975	-0.035	-0.056
-490.508	-100.268	0.364	0.090
-489.493	-200.000	-0.003	-0.283
-488.478	62.939	-0.099	0.098
-487.464	54.848	0.299	-0.287
-486.449	-148.028	-0.041	0.003
-485.435	800.000	0.064	-0.217
-484.420	-123.027	-0.351	-0.056
-483.405	-155.162	-0.111	-0.007
-482.391	800.000	-0.053	0.228
-481.376	110.528	0.088	-0.105
-480.362	800.000	-0.031	-0.126
-479.347	57.436	-0.154	0.150
-478.332	549.229	0.180	0.429
-477.318	800.000	-0.065	0.182
-476.303	55.108	0.162	0.155
-475.289	563.263	-0.081	-0.195
-474.274	-181.639	-0.089	0.002
-473.259	-200.000	-0.032	-0.281
-472.245	134.835	0.256	-0.330
-471.230	671.219	0.034	0.088
-470.216	-165.039	0.353	-0.016
-469.201	-139.896	-0.336	-0.035
-468.186	-184.985	-0.212	-0.003
-467.172	-76.436	0.194	0.068
-466.157	-200.000	0.021	-0.169
-465.143	-200.000	0.019	-0.187
-464.128	41.008	0.115	-0.103
-463.113	13.795	0.115	-0.089
-462.099	275.291	0.048	0.084
-461.084	-200.000	0.044	0.214
-460.070	245.416	0.129	0.216
-459.055	-36.534	-0.122	-0.065
-458.040	93.215	-0.135	-0.152
-457.026	101.964	0.121	0.140
-456.011	132.770	-0.251	0.322
-454.997	-96.546	-0.230	0.060
-453.982	111.511	-0.134	0.161
-452.968	-142.278	0.156	0.015
-451.953	178.693	-0.172	-0.250
-450.938	65.611	-0.083	0.083
-449.924	-90.500	0.201	-0.058
-448.909	800.000	0.025	0.090
-447.895	-134.901	-0.197	0.024
-446.880	-110.586	-0.235	-0.048
-445.865	-80.922	-0.345	0.114
-444.851	71.955	0.222	0.230
-443.836	-44.784	0.296	0.147
-442.822	184.952	-0.091	-0.134
-441.807	200.303	0.035	-0.053
-440.792	706.528	-0.093	0.245
-439.778	178.434	-0.084	0.122
-438.763	-37.724	0.138	0.073
-437.749	-169.464	-0.145	0.005
-436.734	-122.932	0.275	0.044
-435.719	448.683	0.173	0.379
-434.705	-107.322	-0.369	-0.081
-433.690	-32.031	0.087	0.048
-432.676	6.573	-0.138	0.102
-431.661	-95.740	0.228	0.060
-430.646	163.558	-0.027	0.038
-429.632	-200.000	0.039	0.293
-428.617	-125.589	0.430	-0.065
-427.603	17.182	-0.100	-0.079
-426.588	4.469	-0.089	-0.065
-425.573	499.322	-0.129	-0.295
-424.559	92.256	-0.031	0.034
-423.544	-31.960	-0.144	-0.080
-422.530	-58.973	-0.482	0.207
-421.515	191.643	-0.136	-0.203
-420.500	-75.229	0.169	0.060
-419.486	-200.000	-0.069	-0.354
-418.471	-200.000	0.007	0.265
-417.457	23.722	0.150	-0.122
-416.442	456.151	0.105	0.232
-415.428	16.732	0.159	-0.125
-414.413	104.205	0.115	0.134
-413.398	-119.985	-0.429	0.073
-412.384	-38.483	-0.070	-0.037
-411.369	-124.682	0.283	0.044
-410.355	-200.000	-0.018	0.181
-409.340	-83.117	0.164	-0.052
-408.325	324.872	0.027	0.051
-407.311	-134.244	0.245	0.030
-406.296	-198.783	0.417	0.002
-405.282	-200.000	-0.015	-0.212
-404.267	-200.000	-0.003	0.429
-403.252	191.142	0.107	-0.160
-402.238	-115.849	0.363	0.067
-401.223	-161.815	0.028	0.001
-400.209	800.000	-0.015	0.063
-399.194	18.653	0.177	-0.140
-398.179	614.585	0.011	-0.028
-397.165	159.333	0.083	-0.115
-396.150	33.337	-0.035	0.030
-395.136	733.985	0.135	0.358
-394.121	-25.148	-0.294	0.173
-393.106	23.402	-0.090	-0.073
-392.092	-200.000	0.014	-0.169
-391.077	180.733	-0.071	0.103
-390.063	-200.000	0.001	-0.047
-389.048	318.622	0.021	-0.040
-388.033	226.031	0.048	-0.077
-387.019	30.140	-0.085	-0.072
-386.004	-161.066	-0.204	0.011
-384.990	-66.187	0.011	0.004
-383.975	-162.520	0.283	-0.014
-382.960	-44.486	-0.246	0.122
-381.946	271.997	-0.061	-0.106
-380.931	0.714	-0.121	-0.086
-379.917	1.871	0.036	0.026
-378.902	31.873	-0.186	-0.159
-377.888	781.909	-0.054	0.146
-376.873	-162.129	0.138	-0.007
-375.858	-200.000	-0.063	-0.285
-374.844	-51.209	-0.044	-0.020
-373.829	93.298	0.115	-0.129
-372.815	-10.026	-0.233	0.153
-371.800	-24.581	-0.010	0.006
-370.785	715.089	-0.097	-0.255
-369.771	-200.000	0.003	0.137
-368.756	567.277	-0.022	-0.054
-367.742	-200.000	-0.041	-0.284
-366.727	685.092	0.137	-0.355
-365.712	-200.000	0.077	0.455
-364.698	800.000	-0.051	0.157
-363.683	-49.390	-0.150	-0.071
-362.669	-138.871	-0.301	0.032
-361.654	247.800	-0.236	-0.395
-360.639	-93.179	0.131	0.036
-359.625	-80.403	0.265	0.088
-358.610	-200.000	-0.009	-0.142
-357.596	-156.766	0.154	-0.009
-356.581	192.507	-0.206	0.308
-355.566	39.868	-0.247	-0.220
-354.552	21.013	0.048	-0.038
-353.537	-74.997	0.103	0.037
-352.523	-20.344	-0.310	0.189
-351.508	69.962	0.044	0.045
-350.493	548.517	-0.013	0.031
-349.479	47.977	0.155	0.144
-348.464	-55.360	-0.136	0.060
-347.450	-200.000	0.017	-0.162
-346.435	761.757	0.021	0.057
-345.420	-200.000	0.256	0.001
-344.406	-200.000	0.020	-0.128
-343.391	-200.000	0.006	-0.361
-342.377	-54.122	-0.251	-0.113
-341.362	182.768	-0.122	0.178
-340.348	-80.297	-0.289	-0.096
-339.333	399.282	-0.108	0.223
-338.318	-72.839	0.146	-0.053
-337.304	-117.557	-0.130	0.023
-336.289	-124.057	0.165	-0.026
-335.275	27.790	-0.182	0.152
-334.260	228.914	-0.094	0.152
-333.245	176.569	-0.042	0.060
-332.231	-200.000	0.036	-0.486
-331.216	800.000	-0.090	0.322
-330.202	-25.249	-0.114	0.067
-329.187	-20.926	-0.073	0.044
-328.172	-200.000	0.024	-0.121
-327.158	-50.295	-0.047	-0.022
-326.143	-47.229	-0.242	-0.116
-325.129	107.222	-0.114	0.134
-324.114	-200.000	-0.003	0.454
-323.099	-108.366	0.245	-0.052
-322.085	-65.013	0.168	0.067
-321.070	7.119	-0.206	-0.152
-320.056	-200.000	0.050	-0.473
-319.041	539.367	-0.033	-0.077
-318.026	-34.160	0.492	-0.267
-317.012	296.299	-0.116	0.209
-315.997	-62.713	0.047	-0.019
-314.983	158.168	0.068	-0.093
-313.968	800.000	0.183	-0.544
-312.953	-200.000	0.040	-0.177
-311.939	31.189	-0.137	0.116
-310.924	800.000	0.041	0.149
-309.910	18.907	-0.179	-0.141
-308.895	83.310	-0.042	-0.045
-307.880	-99.784	0.223	0.055
-306.866	210.489	-0.102	-0.158
-305.851	584.416	0.140	0.340
-304.837	317.103	0.033	-0.062
-303.822	99.428	-0.034	0.038
-302.807	-200.000	0.003	-0.430
-301.793	4.629	-0.209	0.152
-300.778	41.616	-0.292	0.262
-299.764	-200.000	-0.025	0.213
-298.749	261.072	-0.022	0.037
-297.735	147.538	-0.174	0.231
-296.720	31.123	-0.359	0.304
-295.705	-16.522	-0.101	0.063
-294.691	-45.841	0.213	0.104
-293.676	800.000	0.165	0.471
-292.662	-200.000	0.019	-0.292
-291.647	20.020	0.117	-0.093
-290.632	0.239	-0.249	-0.176
-289.618	-70.586	-0.244	-0.091
-288.603	-60.655	0.124	-0.052
-287.589	-148.617	0.102	-0.008
-286.574	-200.000	-0.009	-0.206
-285.559	47.419	-0.146	0.134
-284.545	78.934	0.108	0.114
-283.530	-154.067	0.360	0.024
-282.516	-71.092	-0.257	0.095
-281.501	-184.146	-0.221	-0.004
-280.486	800.000	0.081	-0.332
-279.472	387.128	-0.168	-0.343
-278.457	162.934	0.175	-0.242
-277.443	18.127	-0.054	-0.043
-276.428	-36.761	0.172	0.091
-275.413	-130.994	-0.322	0.042
-274.399	-200.000	-0.073	0.471
-273.384	64.713	0.212	-0.211
-272.370	-200.000	0.060	-0.283
-271.355	-200.000	-0.022	0.117
-270.340	516.891	-0.086	-0.198
-269.326	-157.648	-0.218	0.013
-268.311	580.215	-0.106	0.256
-267.297	91.748	0.101	-0.112
-266.282	-19.738	0.092	0.056
-265.267	-87.438	0.541	-0.162
-264.253	-200.000	-0.065	0.315
-263.238	-185.064	0.034	0.001
-262.224	-16.114	0.139	0.087
-261.209	-18.971	-0.131	-0.080
-260.195	-60.450	0.140	-0.059
-259.180	22.445	0.245	0.197
-258.165	-93.779	-0.217	-0.059
-257.151	-117.055	-0.150	-0.027
-256.136	128.649	0.202	-0.254
-255.122	-47.393	0.237	0.114
-254.107	-200.000	-0.024	-0.191
-253.092	-15.173	0.141	0.089
-252.078	-135.981	0.057	-0.007
-251.063	295.567	-0.257	0.463
-250.049	-189.211	0.286	-0.003
-249.034	-200.000	-0.015	0.411
-248.019	-200.000	0.004	0.029
-247.005	156.903	-0.145	0.197
-245.990	-130.575	0.059	-0.008
-244.976	510.414	0.137	0.314
-243.961	36.284	-0.126	-0.109
-242.946	77.637	0.067	-0.071
-241.932	-9.202	0.315	0.207
-240.917	-135.305	-0.166	-0.020
-239.903	-130.496	0.095	-0.013
-238.888	26.561	-0.287	0.237
-237.873	800.000	-0.111	-0.339
-236.859	-61.866	0.047	-0.019
-235.844	-43.746	-0.222	-0.110
-234.830	-80.215	0.064	-0.021
-233.815	-172.243	0.180	0.006
-232.800	-200.000	0.033	-0.229
-231.786	6.555	0.057	-0.042
-230.771	21.651	0.403	0.323
-229.757	-200.000	0.020	0.166
-228.742	-200.000	-0.004	0.229
-227.727	59.663	0.103	0.100
-226.713	59.509	-0.327	-0.317
-225.698	149.289	0.085	0.113
-224.684	-183.925	-0.398	0.007
-223.669	800.000	-0.068	-0.223
-222.655	87.888	0.167	-0.183
-221.640	-110.109	-0.312	-0.064
-220.625	800.000	-0.069	0.233
-219.611	627.269	-0.115	0.287
-218.596	43.912	0.132	0.119
-217.582	-200.000	0.006	0.222
-216.567	-45.498	0.096	0.047
-215.552	-115.422	0.149	-0.028
-214.538	-200.000	-0.000	0.037
-213.523	-71.007	0.056	0.021
-212.509	-119.382	0.324	-0.056
-211.494	28.891	-0.229	0.191
-210.479	112.934	-0.304	0.363
-209.465	800.000	-0.015	-0.042
-208.450	237.091	0.221	-0.361
-207.436	-68.506	-0.247	0.094
-206.421	-71.000	-0.052	-0.019
-205.406	-40.333	0.024	0.012
-204.392	-111.564	0.247	0.049
-203.377	-0.523	0.253	-0.177
-202.363	267.917	-0.120	-0.207
-201.348	227.373	0.218	0.349
-200.333	-74.570	0.163	-0.058
-199.319	169.338	0.147	0.207
-198.304	800.000	-0.084	-0.260
-197.290	50.459	-0.235	0.219
-196.275	7.313	-0.100	0.074
-195.260	50.839	0.108	-0.101
-194.246	13.200	-0.177	-0.135
-193.231	261.538	0.025	-0.043
-192.217	384.052	0.021	-0.043
-191.202	-79.996	0.185	0.061
-190.187	-174.766	0.338	-0.009
-189.173	-95.413	0.104	0.027
-188.158	-200.000	-0.001	0.256
-187.144	800.000	0.073	0.233
-186.129	-200.000	-0.034	0.220
-185.114	-101.349	0.071	0.017
-184.100	-200.000	0.007	0.046
-183.085	-154.407	-0.183	-0.012
-182.071	213.180	-0.142	-0.220
-181.056	-47.868	-0.235	-0.112
-180.042	185.354	0.148	0.216
-179.027	-200.000	0.020	0.336
-178.012	-18.609	0.119	0.073
-176.998	82.488	0.276	0.295
-175.983	-200.000	-0.008	-0.190
-174.969	800.000	-0.011	-0.047
-173.954	40.301	0.111	0.098
-172.939	-101.745	-0.099	-0.024
-171.925	298.273	0.192	0.347
-170.910	-106.313	-0.229	0.050
-169.896	-200.000	0.019	0.127
-168.881	-35.643	-0.155	-0.083
-167.866	116.989	-0.141	-0.171
-166.852	216.766	-0.080	0.126
-165.837	-82.785	0.144	-0.046
-164.823	0.777	0.177	-0.125
-163.808	188.428	-0.083	0.122
-162.793	-74.600	-0.120	0.042
-161.779	36.403	-0.333	-0.289
-160.764	126.130	0.148	0.184
-159.750	435.171	0.020	0.044
-158.735	-200.000	0.030	0.226
-157.720	800.000	0.100	-0.357
-156.706	137.140	0.101	-0.130
-155.691	-104.654	-0.329	-0.075
-154.677	189.148	0.146	0.215
-153.662	-200.000	0.017	0.478
-152.647	229.491	-0.113	-0.181
-151.633	210.649	0.156	-0.240
-150.618	-2.811	0.337	0.231
-149.604	126.104	-0.218	-0.271
-148.589	-39.902	-0.130	-0.067
-147.574	103.145	0.142	-0.163
-146.560	20.501	0.053	-0.042
-145.545	26.229	-0.064	0.052
-144.531	-200.000	-0.035	-0.240
-143.516	235.347	0.246	-0.400
-142.502	800.000	0.010	-0.038
-141.487	-200.000	-0.019	-0.174
-140.472	-47.584	-0.407	0.194
-139.458	-28.012	0.082	-0.046
-138.443	-120.604	-0.498	-0.083
-137.429	127.128	0.240	0.299
-136.414	76.895	0.128	-0.134
-135.399	-200.000	0.097	0.000
-134.385	-36.594	0.120	-0.063
-133.370	81.688	-0.149	-0.158
-132.356	-200.000	0.039	-0.276
-131.341	405.142	-0.093	-0.192
-130.326	-200.000	-0.026	0.280
-129.312	420.669	0.131	-0.275
-128.297	-200.000	-0.015	0.114
-127.283	551.282	0.060	0.142
-126.268	-102.793	0.089	0.021
-125.253	-187.299	0.185	0.002
-124.239	-20.281	0.152	0.092
-123.224	259.058	0.144	-0.244
-122.210	800.000	0.028	0.097
-121.195	-49.033	-0.313	-0.147
-120.180	-28.578	0.225	0.127
-119.166	-107.432	0.051	0.011
-118.151	37.854	-0.222	-0.194
-117.137	-200.000	-0.004	-0.039
-116.122	-200.000	-0.052	0.259
-115.107	-200.000	-0.007	0.161
-114.093	-75.821	0.491	-0.171
-113.078	-53.032	-0.123	-0.055
-112.064	-58.772	-0.249	-0.106
-111.049	609.546	0.094	-0.229
-110.034	138.802	0.129	-0.166
-109.020	19.266	-0.025	0.020
-108.005	180.443	0.101	0.145
-106.991	-147.029	-0.220	-0.018
-105.976	525.602	-0.077	-0.179
-104.962	15.993	0.073	0.056
-103.947	-75.104	-0.151	-0.053
-102.932	7.976	-0.138	0.102
-101.918	-82.791	-0.161	0.051
-100.903	800.000	-0.128	0.367
-99.889	271.257	0.109	0.188
-98.874	800.000	0.072	0.228
-97.859	-200.000	0.023	-0.118
-96.845	-68.683	0.131	0.050
-95.830	800.000	0.042	0.119
-94.816	21.831	0.165	-0.132
-93.801	583.783	0.022	-0.052
-92.786	128.150	-0.045	-0.056
-91.772	-28.361	0.119	0.067
-90.757	55.499	0.162	0.154
-89.743	800.000	0.076	-0.259
-88.728	87.763	0.277	-0.300
-87.713	-200.000	0.038	-0.276
-86.699	-200.000	0.011	0.091
-85.684	261.027	-0.127	0.216
-84.670	-101.207	0.453	-0.108
-83.655	800.000	0.116	0.352
-82.640	-149.017	0.082	0.006
-81.626	-127.496	0.287	-0.041
-80.611	250.712	-0.040	0.067
-79.597	-200.000	-0.030	0.134
-78.582	-31.115	-0.074	0.041
-77.567	220.912	0.232	-0.364
-76.553	-99.332	0.032	0.008
-75.538	-63.205	0.158	-0.064
-74.524	150.742	-0.171	0.227
-73.509	618.045	0.019	-0.046
-72.494	-200.000	-0.324	0.001
-71.480	4.405	0.032	-0.023
-70.465	-55.110	0.136	-0.060
-69.451	-129.526	-0.176	-0.024
-68.436	236.511	0.261	-0.422
-67.422	254.268	0.019	0.032
-66.407	176.958	-0.323	-0.461
-65.392	-158.132	-0.128	0.007
-64.378	396.344	-0.099	-0.202
-63.363	-200.000	0.055	-0.295
-62.349	-200.000	0.006	0.353
-61.334	6.751	-1.215	-0.885
-60.319	238.963	0.694	1.129
-59.305	-200.000	-0.212	-0.956
-58.290	248.581	0.519	0.860
-57.276	800.000	0.474	1.536
-56.261	-200.000	113.801	649.289
-55.246	540.588	1520.510	3542.681
-54.232	178.025	2694.411	3845.651
-53.217	102.827	2284.861	2617.063
-52.203	36.818	1892.496	1636.476
-51.188	30.802	1682.281	1409.276
-50.173	28.302	1639.884	1355.231
-49.159	49.856	1695.834	1564.116
-48.144	48.675	1709.928	1568.192
-47.130	30.397	1667.345	1393.503
-46.115	27.709	1653.366	1361.727
-45.100	27.497	1648.495	1356.083
-44.086	27.477	1645.882	1353.734
-43.071	27.416	1643.341	1351.133
-42.057	27.384	1640.597	1348.590
-41.042	27.507	1638.291	1347.550
-40.027	27.451	1636.542	1345.647
-39.013	27.448	1634.354	1343.773
-37.998	27.444	1633.193	1342.729
-36.984	27.576	1631.744	1342.462
-35.969	27.592	1630.590	1341.575
-34.954	27.627	1628.514	1340.071
-33.940	27.584	1627.051	1338.498
-32.925	27.574	1624.712	1336.449
-31.911	27.627	1622.782	1335.193
-30.896	27.592	1621.329	1333.689
-29.881	27.571	1619.881	1332.291
-28.867	27.685	1617.591	1331.189
-27.852	27.612	1616.586	1329.778
-26.838	27.581	1615.049	1328.236
-25.823	27.576	1614.112	1327.371
-24.809	27.584	1612.825	1326.324
-23.794	27.601	1611.319	1325.156
-22.779	27.615	1609.771	1323.928
-21.765	27.701	1607.542	1322.668
-20.750	27.488	1606.791	1320.453
-19.736	27.642	1605.421	1320.388
-18.721	27.648	1604.049	1319.250
-17.706	27.588	1602.574	1317.556
-16.692	27.684	1600.429	1316.428
-15.677	27.761	1599.154	1315.887
-14.663	27.755	1597.990	1314.833
-13.648	27.744	1596.141	1313.182
-12.633	27.690	1595.540	1312.246
-11.619	27.671	1593.420	1310.309
-10.604	27.705	1592.238	1309.534
-9.590	27.706	1590.662	1308.190
-8.575	27.717	1589.793	1307.504
-7.560	27.777	1588.264	1306.622
-6.546	27.615	1587.844	1305.067
-5.531	27.722	1586.317	1304.524
-4.517	27.639	1585.926	1303.558
-3.502	27.566	1584.895	1302.135
-2.487	27.717	1582.612	1301.287
-1.473	27.385	1569.983	1288.501
-0.458	24.437	1551.152	1252.346
0.556	22.778	1552.379	1221.671
1.571	20.368	1576.028	1223.211
2.586	19.870	1588.488	1229.233
3.600	18.024	1534.160	1174.411
4.615	11.133	1428.534	1049.207
5.629	5.049	1368.591	967.449
6.644	3.778	1361.347	954.401
7.659	3.819	1360.297	953.830
8.673	3.912	1359.004	953.416
9.688	3.910	1357.481	952.249
10.702	3.845	1354.480	949.660
11.717	6.735	1359.654	970.997
12.731	14.620	1373.987	1029.985
13.746	21.378	1384.833	1079.918
14.761	23.148	1387.281	1092.675
15.775	22.600	1385.489	1087.788
16.790	21.681	1383.158	1080.198
17.804	21.088	1380.551	1074.416
18.819	20.727	1379.798	1071.513
19.834	20.691	1378.746	1070.377
20.848	20.690	1378.717	1070.256
21.863	20.600	1377.103	1068.356
22.877	20.496	1376.170	1066.894
23.892	20.407	1375.121	1065.444
24.907	20.291	1374.640	1064.264
25.921	20.354	1373.229	1063.462
26.936	20.365	1372.502	1062.873
27.950	20.412	1371.675	1062.429
28.965	20.486	1370.625	1061.970
29.980	20.633	1369.782	1062.126
30.994	20.771	1368.935	1062.215
32.009	20.874	1367.729	1061.814
33.023	20.743	1366.530	1059.992
34.038	20.634	1364.884	1057.959
35.053	20.507	1363.540	1056.047
36.067	20.546	1362.459	1055.354
37.082	20.714	1361.182	1055.294
38.096	20.684	1360.925	1054.820
39.111	20.774	1359.878	1054.457
40.126	20.525	1359.223	1052.347
41.140	20.232	1357.599	1049.226
42.155	19.942	1357.514	1047.311
43.169	19.968	1356.557	1046.641
44.184	20.053	1356.476	1046.996
45.199	20.110	1356.596	1047.341
46.213	20.351	1356.129	1048.346
47.228	20.519	1355.734	1048.960
48.242	20.444	1354.595	1047.534
49.257	20.457	1352.911	1046.220
50.271	20.496	1351.279	1045.096
51.286	20.418	1350.508	1043.943
52.301	20.378	1349.022	1042.462
53.315	20.281	1347.470	1040.586
54.330	20.209	1346.712	1039.478
55.344	20.114	1345.576	1037.942
56.359	20.152	1344.127	1036.957
57.374	20.037	1343.429	1035.642
58.388	20.013	1342.736	1034.872
59.403	19.905	1342.496	1033.951
60.417	19.869	1341.374	1032.776
61.432	19.750	1340.763	1031.505
62.447	19.752	1339.457	1030.424
63.461	19.755	1337.746	1029.035
64.476	19.654	1337.082	1027.831
65.490	19.625	1336.148	1026.848
66.505	19.729	1334.457	1026.078
67.520	19.699	1333.151	1024.803
68.534	19.776	1332.180	1024.423
69.549	19.581	1331.450	1022.615
70.563	19.651	1329.979	1021.811
71.578	19.473	1328.901	1019.840
72.593	19.358	1328.205	1018.537
73.607	19.399	1327.917	1018.464
74.622	19.484	1326.872	1018.074
75.636	19.567	1326.037	1017.836
76.651	19.490	1326.061	1017.311
77.666	19.580	1325.629	1017.416
78.680	19.599	1325.277	1017.168
79.695	19.736	1324.060	1016.955
80.709	19.891	1323.576	1017.401
81.724	20.076	1322.831	1017.824
82.739	20.119	1322.215	1017.513
83.753	20.266	1321.983	1018.107
84.768	20.574	1320.806	1018.917
85.782	20.657	1320.055	1018.731
86.797	20.612	1318.831	1017.435
87.812	20.532	1317.443	1015.807
88.826	20.453	1316.096	1014.220
89.841	20.568	1314.885	1013.866
90.855	20.574	1314.338	1013.386
91.870	20.729	1313.748	1013.748
92.884	20.861	1312.707	1013.620
93.899	20.766	1312.067	1012.488
94.914	20.776	1311.718	1012.182
95.928	20.816	1310.588	1011.456
96.943	20.724	1309.599	1010.067
97.957	20.724	1308.376	1009.034
98.972	20.724	1307.521	1008.290
99.987	20.664	1306.766	1007.270
101.001	20.534	1306.097	1005.914
102.016	20.639	1305.140	1005.691
103.030	20.686	1304.141	1005.107
104.045	20.615	1303.328	1003.980
105.060	20.470	1301.541	1001.681
106.074	20.112	1299.714	998.125
107.089	19.740	1298.409	994.892
108.103	19.539	1297.487	992.942
109.118	19.640	1295.874	992.202
110.133	19.790	1294.413	991.852
111.147	19.748	1293.446	990.784
112.162	19.748	1292.269	989.794
113.176	19.882	1291.312	989.742
114.191	19.949	1289.687	988.791
115.206	19.944	1289.178	988.284
116.220	19.884	1288.189	987.094
117.235	19.907	1286.445	985.806
118.249	19.772	1285.470	984.203
119.264	19.697	1284.582	983.010
120.279	19.569	1283.483	981.351
121.293	19.636	1282.108	980.596
122.308	19.438	1281.091	978.605
123.322	19.372	1280.345	977.575
124.337	19.366	1279.499	976.809
125.352	19.308	1278.389	975.550
126.366	19.388	1276.757	974.666
127.381	19.237	1276.129	973.252
128.395	19.312	1274.939	972.679
129.410	19.218	1274.586	971.795
130.424	19.461	1273.744	972.433
131.439	19.574	1272.758	972.234
132.454	19.692	1271.906	972.159
133.468	19.860	1271.178	972.459
134.483	19.857	1270.250	971.648
135.497	19.868	1269.876	971.337
136.512	19.842	1268.300	969.899
137.527	19.899	1266.990	969.130
138.541	19.992	1265.520	968.440
139.556	20.088	1264.682	968.253
140.570	20.091	1264.427	967.990
141.585	20.294	1263.071	967.994
142.600	20.383	1262.099	967.661
143.614	20.593	1261.462	968.255
144.629	20.600	1260.459	967.442
145.643	20.560	1259.470	966.376
146.658	20.435	1257.632	964.186
147.673	20.191	1255.850	961.378
148.687	20.026	1255.124	959.826
149.702	19.961	1253.607	958.219
150.716	19.814	1252.530	956.502
151.731	19.779	1251.271	955.259
152.746	19.936	1250.052	955.114
153.760	19.930	1249.320	954.432
154.775	19.995	1248.388	953.995
155.789	20.154	1247.555	954.153
156.804	20.108	1246.773	953.216
157.819	20.314	1245.287	953.124
158.833	20.417	1245.297	953.612
159.848	20.596	1244.368	953.804
160.862	20.547	1243.374	952.688
161.877	20.169	1241.564	949.147
162.892	20.007	1239.580	946.662
163.906	19.879	1239.223	945.603
164.921	19.797	1238.816	944.762
165.935	19.865	1238.011	944.434
166.950	20.076	1237.702	945.269
167.964	20.060	1236.265	944.001
168.979	20.021	1235.629	943.217
169.994	19.973	1235.166	942.521
171.008	20.052	1234.223	942.148
172.023	20.120	1234.064	942.312
173.037	20.397	1233.170	943.052
174.052	20.287	1232.427	941.802
175.067	20.093	1230.911	939.510
176.081	19.899	1229.241	937.099
177.096	19.822	1228.769	936.239
178.110	19.845	1227.606	935.395
179.125	20.009	1226.600	935.434
180.140	20.037	1226.185	935.186
181.154	20.396	1225.024	936.153
182.169	20.377	1224.038	935.212
183.183	20.395	1222.986	934.425
184.198	20.545	1221.747	934.202
185.213	20.364	1220.776	932.402
186.227	20.580	1220.044	932.923
187.242	20.555	1219.128	932.004
188.256	20.728	1218.107	932.068
189.271	20.753	1217.053	931.314
190.286	20.497	1215.922	928.995
191.300	20.095	1214.561	925.728
192.315	19.881	1213.765	923.898
193.329	20.052	1213.424	924.468
194.344	19.969	1213.056	923.663
195.359	19.967	1212.747	923.335
196.373	20.175	1211.806	923.643
197.388	20.323	1212.196	924.648
198.402	20.665	1211.805	926.092
199.417	20.703	1211.793	926.202
200.432	20.929	1210.839	926.588
201.446	21.004	1210.372	926.552
202.461	21.075	1209.601	926.254
203.475	21.021	1208.650	925.157
204.490	20.740	1207.173	922.455
205.504	20.539	1205.016	919.663
206.519	20.501	1203.491	918.220
207.534	20.325	1202.660	916.572
208.548	20.350	1201.686	915.882
209.563	20.389	1201.330	915.738
210.577	20.351	1200.620	914.910
211.592	20.581	1199.867	915.467
212.607	20.866	1199.180	916.363
213.621	20.699	1198.435	914.836
214.636	20.694	1197.261	913.831
215.650	20.668	1196.014	912.662
216.665	20.853	1195.376	913.066
217.680	21.045	1194.688	913.466
218.694	21.137	1193.833	913.212
219.709	20.985	1193.401	912.003
220.723	20.939	1192.476	910.977
221.738	20.853	1192.073	910.138
222.753	20.845	1190.595	908.889
223.767	20.763	1190.360	908.200
224.782	21.118	1189.871	909.595
225.796	21.186	1189.165	909.331
226.811	21.085	1188.770	908.425
227.826	20.857	1187.698	906.336
228.840	20.750	1186.920	905.105
229.855	20.720	1185.958	904.137
230.869	20.699	1185.128	903.316
231.884	20.659	1184.470	902.526
232.899	20.490	1183.729	901.004
233.913	20.377	1182.599	899.482
234.928	20.423	1181.597	898.880
235.942	20.248	1181.440	897.773
236.957	20.291	1179.968	896.797
237.972	20.320	1179.291	896.353
238.986	20.339	1178.967	896.126
240.001	20.337	1178.311	895.538
241.015	20.479	1177.128	895.292
242.030	20.472	1176.985	895.068
243.045	20.679	1175.815	895.162
244.059	20.696	1175.665	895.058
245.074	20.718	1174.971	894.564
246.088	20.819	1174.151	894.378
247.103	21.034	1173.014	894.533
248.117	21.121	1173.222	895.062
249.132	21.331	1172.369	895.409
250.147	21.594	1172.305	896.628
251.161	21.847	1171.176	896.976
252.176	21.788	1170.833	896.336
253.190	21.802	1170.760	896.271
254.205	21.954	1169.850	896.268
255.220	22.052	1169.259	896.237
256.234	21.918	1169.046	895.313
257.249	21.912	1168.026	894.419
258.263	21.861	1166.959	893.265
259.278	21.916	1165.898	892.655
260.293	21.918	1165.742	892.464
261.307	21.886	1165.759	892.235
262.322	22.011	1164.583	891.895
263.336	21.981	1164.312	891.455
264.351	22.079	1163.492	891.243
265.366	22.096	1162.617	890.579
266.380	22.152	1161.918	890.252
267.395	21.937	1161.286	888.602
268.409	21.751	1160.275	886.807
269.424	21.692	1160.095	886.291
270.439	21.667	1159.539	885.663
271.453	21.719	1157.978	884.653
272.468	21.525	1157.115	882.935
273.482	21.419	1156.502	881.859
274.497	21.463	1156.316	881.857
275.512	21.515	1155.170	881.171
276.526	21.443	1154.378	880.123
277.541	21.571	1153.817	880.264
278.555	21.628	1153.401	880.155
279.570	21.850	1152.902	880.811
280.585	21.968	1152.461	880.990
281.599	21.963	1151.216	879.935
282.614	21.759	1149.863	877.799
283.628	21.550	1148.913	875.951
284.643	21.593	1148.091	875.461
285.657	21.600	1147.108	874.670
286.672	21.574	1146.174	873.750
287.687	21.629	1145.412	873.366
288.701	21.726	1144.682	873.215
289.716	21.685	1143.704	872.190
290.730	21.669	1143.343	871.758
291.745	21.761	1142.492	871.487
292.760	21.721	1141.957	870.802
293.774	21.880	1141.385	871.079
294.789	21.981	1141.084	871.274
295.803	22.021	1140.366	870.849
296.818	21.823	1138.929	868.694
297.833	21.647	1138.445	867.376
298.847	21.689	1137.688	866.931
299.862	21.776	1136.759	866.574
300.876	21.866	1135.825	866.231
301.891	21.899	1135.815	866.309
302.906	22.122	1135.414	867.028
303.920	22.178	1135.203	867.065
304.935	22.383	1134.410	867.395
305.949	22.415	1133.966	867.136
306.964	22.447	1133.114	866.567
307.979	22.281	1131.878	864.725
308.993	22.022	1131.490	863.080
310.008	22.209	1130.996	863.544
311.022	22.357	1130.257	863.632
312.037	22.194	1129.607	862.260
313.052	22.212	1127.758	860.858
314.066	21.809	1127.289	858.451
315.081	21.579	1125.768	856.093
316.095	21.559	1125.325	855.585
317.110	21.541	1124.441	854.747
318.125	21.649	1123.548	854.520
319.139	21.563	1122.933	853.558
320.154	21.595	1122.547	853.344
321.168	21.535	1122.055	852.604
322.183	21.624	1121.190	852.302
323.197	21.734	1120.999	852.620
324.212	21.911	1120.325	852.889
325.227	21.911	1119.765	852.390
326.241	21.844	1119.218	851.573
327.256	21.748	1117.744	849.909
328.270	21.718	1116.600	848.818
329.285	21.708	1115.884	848.149
330.300	21.826	1115.309	848.211
331.314	21.702	1114.188	846.685
332.329	21.787	1113.444	846.452
333.343	21.864	1112.664	846.158
334.358	22.063	1112.058	846.578
335.373	22.080	1111.587	846.230
336.387	22.188	1110.913	846.161
337.402	22.043	1110.463	845.048
338.416	22.240	1109.820	845.429
339.431	22.409	1109.286	845.760
340.446	22.456	1108.777	845.520
341.460	22.800	1107.556	846.166
342.475	22.791	1107.569	846.056
343.489	22.820	1106.780	845.521
344.504	22.867	1105.884	844.984
345.519	22.904	1105.148	844.524
346.533	22.908	1104.662	844.097
347.548	23.044	1103.888	844.080
348.562	22.874	1102.544	842.166
349.577	22.598	1101.433	839.931
350.592	22.317	1100.582	837.868
351.606	22.108	1099.661	836.098
352.621	22.178	1098.666	835.602
353.635	22.135	1097.708	834.595
354.650	22.130	1097.342	834.216
355.665	22.195	1096.950	834.152
356.679	22.405	1096.263	834.553
357.694	22.447	1095.898	834.401
358.708	22.342	1095.624	833.623
359.723	22.505	1094.639	833.568
360.738	22.627	1093.657	833.324
361.752	22.486	1093.631	832.566
362.767	22.491	1093.206	832.192
363.781	22.512	1092.680	831.817
364.796	22.743	1091.473	831.911
365.810	23.026	1091.509	833.200
366.825	23.111	1090.913	833.074
367.840	23.247	1090.749	833.512
368.854	23.189	1090.409	832.907
369.869	23.143	1089.684	832.061
370.883	23.092	1088.309	830.701
371.898	22.878	1087.697	829.157
372.913	22.903	1086.857	828.561
373.927	22.851	1087.036	828.376
374.942	23.207	1086.048	829.222
375.956	23.092	1085.693	828.335
376.971	22.949	1085.097	827.138
377.986	23.004	1084.848	827.134
379.000	23.194	1084.109	827.383
380.015	23.333	1083.845	827.760
381.029	23.354	1082.683	826.899
382.044	23.359	1082.159	826.448
383.059	23.243	1081.443	825.288
384.073	23.273	1080.565	824.686
385.088	23.353	1079.563	824.219
386.102	23.239	1078.830	823.056
387.117	23.187	1076.799	821.191
388.132	22.898	1075.899	819.094
389.146	22.787	1075.675	818.337
390.161	22.752	1074.579	817.267
391.175	22.837	1074.082	817.210
392.190	23.108	1073.498	817.945
393.205	23.222	1073.048	818.056
394.219	23.264	1072.067	817.431
395.234	23.031	1070.727	815.263
396.248	22.864	1070.105	813.946
397.263	22.845	1069.316	813.189
398.278	22.764	1068.236	811.921
399.292	22.657	1067.309	810.655
400.307	22.576	1067.039	810.006
401.321	22.506	1066.375	809.108
402.336	22.566	1065.593	808.721
403.350	22.504	1064.751	807.725
404.365	22.723	1063.966	808.058
405.380	22.943	1063.287	808.477
406.394	23.021	1062.712	808.326
407.409	23.076	1062.129	808.064
408.423	23.326	1061.820	808.900
409.438	23.413	1061.377	808.889
410.453	23.412	1061.188	808.665
411.467	23.550	1060.442	808.656
412.482	23.598	1059.673	808.215
413.496	23.605	1059.268	807.870
414.511	23.763	1058.811	808.167
415.526	23.955	1058.270	808.554
416.540	23.957	1057.737	808.083
417.555	23.781	1057.310	806.889
418.569	23.734	1056.500	805.987
419.584	23.632	1055.886	804.985
420.599	23.656	1055.161	804.468
421.613	157.498	1403.867	1799.445
422.628	144.665	1454.651	1799.543
