DTS Sentinel unit serial number:	SN413079Multiplexer serial number:	ORYXHardware model number:	OX4-SRSoftware version number:	ORYX F/W v4.00 Oryx Data Collector v3.7.2.0data status	okinstallation	princeton_trtdifferential loss correction	single-endedforward channel	channel 2reverse channel	N/Adate	2019/09/13time	01:15:35forward acquisition time	60.00reverse acquisition time	0.00gamma	496.2192k internal	0.2334k external	0.2334temperature offset calibration	1.0164default loss term (dB/km)	0.3790temperature slope calibration	1.0000multiplexer offset coefficient	1.0000multiplexer slope coefficient	1.0000fibre end	0.00T internal ref (°C)	27.94T ext. ref 1 (°C)	3.69T ext. ref 2 (°C)	22.54length (m)	temperature (°C)	Stokes	anti-Stokes-747.200	283.853	-0.273	-0.494
-746.185	-20.864	-0.122	-0.075
-745.171	6.366	0.182	0.136
-744.156	240.253	0.008	-0.014
-743.142	-200.000	-0.003	-0.087
-742.127	-200.000	0.034	0.203
-741.112	-19.715	-0.179	0.111
-740.098	-114.989	0.333	-0.064
-739.083	-200.000	-0.044	-0.214
-738.069	227.044	-0.083	0.135
-737.054	409.716	0.147	0.312
-736.039	80.455	-0.224	0.242
-735.025	39.729	0.114	0.103
-734.010	-126.175	-0.010	-0.001
-732.996	-1.274	-0.261	-0.185
-731.981	-38.110	-0.218	-0.116
-730.966	-49.777	-0.492	-0.235
-729.952	-17.640	-0.118	-0.075
-728.937	-4.024	-0.103	0.071
-727.923	93.628	-0.094	0.107
-726.908	47.751	-0.366	0.343
-725.894	162.882	0.055	-0.077
-724.879	-8.457	0.156	0.105
-723.864	-124.377	-0.223	0.035
-722.850	137.343	-0.165	-0.217
-721.835	499.741	0.115	-0.266
-720.821	263.673	0.084	-0.146
-719.806	-37.106	0.210	0.113
-718.791	-54.596	0.243	0.110
-717.777	181.216	-0.102	0.151
-716.762	-0.246	-0.228	-0.163
-715.748	101.738	-0.278	-0.326
-714.733	-97.843	-0.391	0.101
-713.718	-200.000	0.003	-0.182
-712.704	-112.962	0.118	0.024
-711.689	-200.000	-0.012	0.286
-710.675	-200.000	-0.070	0.405
-709.660	-80.405	0.437	-0.147
-708.645	-46.150	-0.133	0.066
-707.631	789.785	-0.071	-0.197
-706.616	15.809	0.069	-0.055
-705.602	-86.451	-0.102	-0.031
-704.587	28.897	-0.333	0.283
-703.572	-112.405	-0.145	-0.029
-702.558	164.769	0.119	-0.169
-701.543	77.603	0.106	-0.113
-700.529	-154.313	0.159	-0.011
-699.514	-200.000	0.033	-0.195
-698.499	73.066	-0.301	0.316
-697.485	-200.000	0.010	0.049
-696.470	-4.989	0.190	-0.131
-695.456	800.000	0.033	0.123
-694.441	-200.000	-0.035	-0.197
-693.426	-43.411	-0.329	0.167
-692.412	-200.000	-0.011	-0.175
-691.397	602.387	-0.054	0.133
-690.383	267.208	0.073	0.128
-689.368	431.083	0.146	-0.317
-688.354	-94.141	0.267	-0.073
-687.339	-24.711	-0.170	0.101
-686.324	50.917	-0.158	0.150
-685.310	-155.735	0.448	0.029
-684.295	492.974	-0.192	-0.442
-683.281	-25.146	0.233	0.138
-682.266	321.958	0.155	-0.296
-681.251	-41.828	0.202	-0.104
-680.237	132.305	-0.139	-0.180
-679.222	-38.069	0.105	0.056
-678.208	-29.488	0.038	0.022
-677.193	-5.862	-0.194	0.133
-676.178	23.684	-0.283	-0.234
-675.164	39.885	0.175	-0.158
-674.149	20.750	0.091	0.073
-673.135	-200.000	0.048	0.258
-672.120	652.007	-0.042	0.107
-671.105	107.012	-0.174	-0.208
-670.091	-184.555	-0.252	0.004
-669.076	176.599	0.110	0.160
-668.062	-37.347	-0.213	0.114
-667.047	-113.875	-0.285	0.056
-666.032	-200.000	-0.007	0.166
-665.018	-200.000	-0.017	-0.136
-664.003	-47.315	0.246	0.120
-662.989	79.923	0.202	-0.218
-661.974	-4.025	0.244	0.169
-660.959	102.022	0.160	0.187
-659.945	181.641	0.093	0.138
-658.930	43.994	-0.346	-0.318
-657.916	-31.723	-0.237	-0.133
-656.901	-14.050	0.302	-0.195
-655.886	-200.000	-0.048	0.246
-654.872	-142.938	0.127	-0.012
-653.857	246.898	-0.090	0.153
-652.843	-42.283	0.327	-0.167
-651.828	-35.890	0.119	0.065
-650.814	603.428	-0.083	0.207
-649.799	-106.502	-0.103	-0.023
-648.784	-200.000	0.077	0.369
-647.770	103.842	0.038	0.045
-646.755	63.480	0.335	0.337
-645.741	457.562	-0.093	0.208
-644.726	800.000	-0.108	0.399
-643.711	116.079	-0.131	0.160
-642.697	113.715	-0.157	0.191
-641.682	-200.000	0.006	0.147
-640.668	-28.025	0.090	0.052
-639.653	-185.680	0.016	0.000
-638.638	603.344	0.027	-0.068
-637.624	-30.286	0.257	-0.146
-636.609	-68.565	-0.288	-0.112
-635.595	328.762	0.073	-0.140
-634.580	-200.000	0.057	-0.264
-633.565	-85.302	0.032	-0.010
-632.551	75.762	0.159	-0.168
-631.536	-116.203	0.273	-0.051
-630.522	-151.110	0.061	-0.005
-629.507	-59.010	-0.103	-0.045
-628.492	-200.000	-0.009	-0.153
-627.478	-200.000	0.039	-0.366
-626.463	670.592	-0.035	-0.090
-625.449	145.086	-0.106	-0.142
-624.434	748.418	0.163	0.439
-623.419	-200.000	0.012	-0.134
-622.405	-98.437	0.123	-0.031
-621.390	77.626	0.175	-0.186
-620.376	9.727	0.262	0.199
-619.361	-44.253	-0.353	-0.177
-618.346	-200.000	0.373	0.000
-617.332	150.899	-0.121	-0.164
-616.317	115.588	-0.081	0.099
-615.303	-200.000	-0.002	0.178
-614.288	41.476	0.363	-0.329
-613.273	-200.000	0.023	-0.104
-612.259	-54.610	-0.076	0.035
-611.244	-200.000	-0.007	-0.105
-610.230	25.327	0.100	-0.083
-609.215	-2.692	0.262	-0.183
-608.201	-160.376	0.052	0.003
-607.186	143.562	0.130	0.173
-606.171	20.375	-0.316	0.255
-605.157	-69.903	-0.190	0.072
-604.142	293.719	0.110	-0.200
-603.128	-136.919	0.302	0.035
-602.113	146.240	0.168	0.225
-601.098	267.191	-0.094	-0.165
-600.084	-62.682	0.191	0.079
-599.069	119.967	0.098	-0.122
-598.055	-24.040	-0.333	-0.199
-597.040	-145.360	0.308	-0.028
-596.025	649.772	0.127	0.325
-595.011	-200.000	-0.016	-0.184
-593.996	-200.000	0.064	-0.299
-592.982	-180.974	-0.240	0.005
-591.967	-200.000	0.009	-0.059
-590.952	-95.884	-0.338	0.090
-589.938	56.709	0.369	-0.359
-588.923	-200.000	-0.027	-0.186
-587.909	324.481	-0.132	-0.252
-586.894	50.867	-0.247	0.233
-585.879	-200.000	0.126	-0.000
-584.865	377.084	0.090	0.183
-583.850	94.286	-0.135	-0.153
-582.836	-200.000	-0.013	0.197
-581.821	503.671	0.179	0.413
-580.806	800.000	0.117	0.376
-579.792	-28.891	-0.129	-0.074
-578.777	-200.000	0.005	-0.054
-577.763	-92.974	-0.075	0.021
-576.748	193.226	-0.049	0.075
-575.733	-52.214	-0.098	0.046
-574.719	-48.440	0.157	-0.076
-573.704	750.747	0.018	-0.048
-572.690	-29.837	0.165	-0.094
-571.675	261.831	0.138	-0.238
-570.661	-110.260	-0.065	-0.014
-569.646	-56.426	0.103	-0.046
-568.631	207.646	-0.120	0.187
-567.617	-200.000	-0.005	-0.095
-566.602	13.066	0.212	-0.164
-565.588	29.300	-0.054	-0.046
-564.573	800.000	0.103	0.323
-563.558	-5.962	-0.304	0.208
-562.544	-200.000	-0.013	0.127
-561.529	-200.000	-0.032	0.246
-560.515	178.675	-0.020	0.029
-559.500	-48.625	0.182	-0.088
-558.485	472.288	-0.190	-0.428
-557.471	119.501	-0.151	0.187
-556.456	-200.000	0.020	0.195
-555.442	-78.070	-0.229	-0.079
-554.427	374.061	0.093	-0.189
-553.412	2.496	-0.417	-0.301
-552.398	722.237	-0.081	0.215
-551.383	-200.000	0.002	-0.048
-550.369	-38.225	-0.318	-0.168
-549.354	329.751	0.028	0.054
-548.339	-103.109	0.054	0.013
-547.325	94.223	0.077	0.087
-546.310	-106.638	0.098	-0.022
-545.296	767.066	-0.045	-0.121
-544.281	219.558	-0.162	0.259
-543.266	-200.000	-0.002	0.373
-542.252	246.410	0.015	0.025
-541.237	-189.076	-0.361	-0.004
-540.223	800.000	0.037	0.114
-539.208	90.027	0.031	-0.035
-538.193	70.204	0.089	-0.092
-537.179	7.872	-0.138	0.103
-536.164	129.227	-0.118	0.150
-535.150	99.537	-0.081	0.094
-534.135	450.799	-0.109	0.239
-533.121	-200.000	-0.028	0.156
-532.106	253.117	-0.024	-0.040
-531.091	800.000	0.032	0.096
-530.077	89.054	0.128	-0.142
-529.062	167.271	-0.211	0.298
-528.048	-118.955	0.336	0.059
-527.033	-200.000	0.025	0.220
-526.018	277.408	-0.086	-0.153
-525.004	37.965	0.182	-0.162
-523.989	75.769	-0.206	0.217
-522.975	-150.939	0.227	-0.017
-521.960	-172.441	0.025	-0.001
-520.945	463.365	-0.121	-0.269
-519.931	37.751	0.297	-0.263
-518.916	-157.076	-0.178	0.011
-517.902	800.000	0.047	0.185
-516.887	800.000	0.141	-0.404
-515.872	-200.000	0.038	-0.261
-514.858	-57.639	0.205	0.089
-513.843	231.203	0.160	-0.261
-512.829	-47.395	0.592	-0.287
-511.814	-19.660	0.134	0.082
-510.799	41.080	0.218	-0.196
-509.785	660.530	0.068	-0.173
-508.770	-147.443	-0.484	-0.041
-507.756	288.763	0.115	0.207
-506.741	-200.000	0.006	-0.066
-505.726	-44.384	0.320	-0.159
-504.712	-200.000	0.021	0.176
-503.697	-200.000	0.002	-0.403
-502.683	-200.000	0.042	-0.221
-501.668	81.345	0.086	0.092
-500.653	-0.331	0.203	0.144
-499.639	800.000	-0.045	-0.155
-498.624	287.207	0.032	0.058
-497.610	-200.000	0.009	-0.159
-496.595	52.130	-0.203	0.192
-495.581	-200.000	-0.005	0.107
-494.566	-53.851	-0.246	-0.112
-493.551	-200.000	0.038	0.444
-492.537	628.036	0.098	-0.245
-491.522	-59.963	-0.097	-0.041
-490.508	71.265	0.073	-0.075
-489.493	162.432	0.131	-0.182
-488.478	-200.000	-0.026	-0.185
-487.464	-75.987	-0.121	-0.043
-486.449	-112.610	0.214	-0.042
-485.435	-7.531	0.279	-0.188
-484.420	-200.000	0.080	-0.362
-483.405	-93.492	-0.040	-0.011
-482.391	-125.404	0.416	0.063
-481.376	-39.197	0.021	-0.011
-480.362	-80.369	-0.324	-0.108
-479.347	-200.000	0.024	-0.231
-478.332	-19.820	-0.211	0.130
-477.318	1.094	0.232	-0.166
-476.303	-38.774	-0.284	-0.149
-475.289	-63.048	0.127	0.052
-474.274	-18.381	-0.110	-0.068
-473.259	-200.000	0.062	0.316
-472.245	43.032	-0.137	0.125
-471.230	26.246	-0.212	-0.176
-470.216	-72.844	-0.037	-0.014
-469.201	-74.794	0.378	-0.135
-468.186	95.093	-0.278	-0.315
-467.172	-131.038	-0.135	-0.018
-466.157	229.292	0.129	0.210
-465.143	39.731	0.191	-0.170
-464.128	-86.412	0.360	0.110
-463.113	269.193	0.188	-0.328
-462.099	12.148	0.358	0.274
-461.084	139.924	0.063	0.082
-460.070	160.733	0.190	-0.263
-459.055	-200.000	0.004	0.097
-458.040	-18.631	-0.160	0.099
-457.026	151.600	-0.169	-0.229
-456.011	-92.097	0.121	-0.034
-454.997	-7.114	-0.090	-0.061
-453.982	68.776	-0.140	0.143
-452.968	138.015	0.093	-0.121
-451.953	52.533	0.265	0.251
-450.938	72.922	0.149	0.154
-449.924	104.731	-0.153	0.179
-448.909	84.294	-0.166	-0.181
-447.895	74.608	0.203	0.212
-446.880	800.000	0.076	-0.245
-445.865	-42.173	0.100	0.051
-444.851	23.538	0.121	0.099
-443.836	-200.000	0.082	-0.401
-442.822	112.038	0.094	0.113
-441.807	-200.000	0.023	0.145
-440.792	-192.290	-0.337	-0.003
-439.778	39.168	-0.272	0.241
-438.763	-11.367	-0.092	-0.060
-437.749	-128.098	-0.285	-0.040
-436.734	60.218	0.041	0.040
-435.719	-64.573	0.562	0.227
-434.705	309.488	-0.126	-0.234
-433.690	82.574	-0.221	0.239
-432.676	-74.491	-0.132	-0.047
-431.661	37.004	-0.222	-0.195
-430.646	-200.000	-0.014	0.190
-429.632	231.998	-0.115	-0.187
-428.617	-130.955	0.100	-0.013
-427.603	110.519	-0.210	-0.251
-426.588	-134.391	-0.197	0.024
-425.573	720.923	0.033	0.087
-424.559	163.567	-0.096	-0.134
-423.544	-200.000	-0.011	-0.074
-422.530	28.461	0.368	0.309
-421.515	-200.000	-0.031	-0.198
-420.500	-37.484	-0.074	0.039
-419.486	-200.000	0.018	0.165
-418.471	30.788	-0.110	0.093
-417.457	747.803	0.124	-0.331
-416.442	-156.999	-0.221	0.013
-415.428	-146.314	-0.066	0.006
-414.413	486.504	0.083	-0.187
-413.398	180.465	0.181	-0.264
-412.384	-200.000	-0.004	-0.050
-411.369	210.662	-0.115	0.179
-410.355	38.592	-0.240	0.212
-409.340	800.000	-0.077	0.305
-408.325	-200.000	0.002	0.141
-407.311	-200.000	0.014	0.249
-406.296	-200.000	-0.027	0.162
-405.282	-144.723	0.392	0.036
-404.267	800.000	-0.019	0.071
-403.252	800.000	-0.050	-0.201
-402.238	-37.033	0.375	0.199
-401.223	-51.367	0.373	-0.173
-400.209	346.072	0.063	0.124
-399.194	128.222	0.076	0.096
-398.179	-152.823	-0.142	-0.010
-397.165	-200.000	0.008	-0.076
-396.150	-117.335	0.139	0.025
-395.136	-109.349	0.302	-0.063
-394.121	181.094	0.054	0.079
-393.106	260.351	0.261	-0.447
-392.092	-47.058	0.314	0.152
-391.077	-200.000	0.041	-0.281
-390.063	146.132	-0.097	0.129
-389.048	-168.922	-0.020	0.001
-388.033	-200.000	-0.009	0.182
-387.019	52.625	0.048	0.046
-386.004	135.610	-0.184	0.238
-384.990	52.421	-0.268	-0.254
-383.975	-120.620	-0.086	0.014
-382.960	-200.000	-0.027	-0.229
-381.946	-124.656	0.364	-0.056
-380.931	800.000	0.049	0.195
-379.917	-7.943	0.260	0.174
-378.902	310.212	-0.155	0.287
-377.888	-42.018	-0.290	0.147
-376.873	-200.000	0.053	0.281
-375.858	19.053	0.267	0.212
-374.844	-125.683	-0.441	0.066
-373.829	669.295	-0.020	0.052
-372.815	800.000	-0.036	0.104
-371.800	800.000	-0.087	-0.347
-370.785	80.552	-0.067	-0.071
-369.771	800.000	0.084	-0.249
-368.756	-136.784	0.247	-0.028
-367.742	-98.360	-0.145	-0.037
-366.727	573.027	-0.114	0.275
-365.712	800.000	-0.071	0.281
-364.698	169.642	0.117	-0.166
-363.683	-200.000	0.011	-0.196
-362.669	-28.674	-0.202	-0.115
-361.654	424.542	-0.141	-0.301
-360.639	-62.840	0.009	-0.004
-359.625	58.387	0.247	0.240
-358.610	-128.130	-0.257	0.036
-357.596	-200.000	0.045	-0.420
-356.581	-61.482	-0.099	-0.041
-355.566	519.479	0.069	-0.161
-354.552	98.329	0.411	0.469
-353.537	9.037	-0.201	-0.151
-352.523	-200.000	0.111	0.519
-351.508	72.815	0.092	-0.096
-350.493	145.414	-0.189	-0.250
-349.479	45.517	0.272	-0.249
-348.464	26.559	-0.134	-0.111
-347.450	3.394	-0.207	0.149
-346.435	-15.236	0.029	0.018
-345.420	-200.000	0.010	0.067
-344.406	800.000	0.050	-0.184
-343.391	-147.655	0.081	0.007
-342.377	800.000	-0.040	-0.146
-341.362	-118.854	0.061	-0.011
-340.348	-103.820	-0.260	-0.060
-339.333	-45.584	0.278	0.136
-338.318	42.594	-0.268	-0.241
-337.304	132.730	0.109	0.139
-336.289	800.000	0.031	-0.093
-335.275	-184.058	-0.122	0.002
-334.260	-168.766	-0.230	0.009
-333.245	174.435	-0.139	-0.199
-332.231	-200.000	0.024	-0.123
-331.216	-7.871	0.203	0.136
-330.202	-4.421	-0.237	0.162
-329.187	-44.485	0.067	-0.033
-328.172	275.106	-0.142	-0.249
-327.158	-200.000	-0.022	-0.227
-326.143	89.161	0.311	-0.343
-325.129	-200.000	0.061	-0.502
-324.114	306.147	0.158	-0.290
-323.099	365.369	-0.242	0.483
-322.085	-200.000	-0.041	-0.627
-321.070	23.862	-0.085	-0.069
-320.056	40.193	-0.059	-0.052
-319.041	-38.242	0.212	-0.111
-318.026	175.508	-0.090	0.129
-317.012	29.266	-0.311	0.261
-315.997	-40.065	0.053	-0.027
-314.983	24.273	0.121	0.099
-313.968	-187.271	0.410	-0.005
-312.953	70.380	-0.255	0.261
-311.939	25.123	0.062	-0.051
-310.924	63.101	-0.162	0.160
-309.910	27.637	0.204	0.170
-308.895	144.977	-0.229	0.302
-307.880	-32.868	-0.402	0.221
-306.866	-200.000	-0.049	0.344
-305.851	108.214	0.128	0.151
-304.837	29.931	-0.202	0.170
-303.822	-105.586	0.157	-0.035
-302.807	-200.000	-0.022	-0.221
-301.793	7.802	-0.473	-0.350
-300.778	-29.014	-0.333	-0.189
-299.764	-200.000	-0.009	0.222
-298.749	-25.116	0.052	0.030
-297.735	1.782	-0.274	0.195
-296.720	-148.892	-0.205	-0.016
-295.705	91.585	0.116	-0.128
-294.691	-174.375	0.075	-0.002
-293.676	11.440	-0.253	-0.191
-292.662	-200.000	0.040	0.239
-291.647	-45.394	-0.189	0.092
-290.632	300.938	0.092	-0.167
-289.618	-5.285	-0.080	-0.054
-288.603	800.000	-0.063	-0.208
-287.589	134.258	0.270	-0.345
-286.574	-30.448	0.134	-0.075
-285.559	-5.632	-0.116	0.079
-284.545	-17.852	-0.200	-0.124
-283.530	-132.167	-0.269	0.034
-282.516	-142.221	0.142	-0.014
-281.501	-97.265	0.104	-0.027
-280.486	274.038	-0.175	0.305
-279.472	-92.436	-0.200	-0.056
-278.457	800.000	0.021	-0.062
-277.443	144.477	-0.125	0.165
-276.428	800.000	0.065	0.215
-275.413	306.970	-0.105	-0.194
-274.399	-200.000	-0.014	0.065
-273.384	61.477	-0.263	-0.258
-272.370	-200.000	0.032	0.323
-271.355	800.000	-0.082	0.240
-270.340	800.000	0.103	0.284
-269.326	800.000	-0.029	-0.091
-268.311	-98.917	-0.058	0.015
-267.297	114.587	0.260	0.313
-266.282	-148.530	-0.001	0.000
-265.267	-200.000	0.008	0.140
-264.253	800.000	0.039	-0.114
-263.238	-177.864	-0.420	0.010
-262.224	257.207	0.079	0.133
-261.209	-57.241	-0.176	-0.077
-260.195	-143.934	0.184	-0.017
-259.180	5.893	-0.235	-0.172
-258.165	82.415	0.293	0.314
-257.151	217.647	-0.267	0.420
-256.136	135.392	0.123	-0.157
-255.122	-127.495	-0.153	0.022
-254.107	800.000	-0.088	0.360
-253.092	37.878	-0.129	0.113
-252.078	-2.964	0.110	0.076
-251.063	176.100	0.140	0.201
-250.049	-45.925	-0.243	0.118
-249.034	-37.989	-0.257	-0.135
-248.019	-200.000	-0.088	-0.397
-247.005	-170.042	0.198	0.007
-245.990	306.616	0.159	0.292
-244.976	-56.843	-0.165	0.072
-243.961	211.883	0.048	-0.075
-242.946	43.974	0.316	0.286
-241.932	150.056	-0.103	0.138
-240.917	-200.000	0.011	-0.097
-239.903	-193.421	0.197	-0.002
-238.888	-32.589	0.203	0.111
-237.873	168.593	-0.135	0.190
-236.859	-200.000	0.003	-0.080
-235.844	28.324	-0.073	-0.061
-234.830	111.793	-0.120	-0.143
-233.815	241.813	-0.058	0.095
-232.800	-55.703	-0.101	0.045
-231.786	-65.679	-0.215	0.085
-230.771	84.428	-0.248	0.268
-229.757	20.990	-0.030	-0.024
-228.742	148.386	-0.135	0.180
-227.727	114.856	0.082	-0.098
-226.713	-10.770	0.140	0.091
-225.698	-200.000	0.036	-0.284
-224.684	800.000	0.038	-0.160
-223.669	800.000	-0.142	-0.425
-222.655	159.074	-0.092	0.125
-221.640	76.548	0.088	0.092
-220.625	96.430	0.155	-0.175
-219.611	-71.210	-0.462	0.171
-218.596	160.570	-0.143	-0.197
-217.582	-118.515	0.130	0.023
-216.567	-109.796	0.093	0.019
-215.552	315.599	0.054	-0.100
-214.538	69.395	0.110	-0.111
-213.523	-200.000	0.055	0.274
-212.509	-200.000	0.068	-0.369
-211.494	-74.682	-0.379	0.134
-210.479	38.529	0.069	0.061
-209.465	-101.318	0.247	0.059
-208.450	-200.000	0.006	-0.062
-207.436	-165.731	0.130	-0.006
-206.421	-57.938	0.406	0.174
-205.406	-200.000	0.022	0.112
-204.392	800.000	-0.095	-0.278
-203.377	-18.331	0.095	-0.058
-202.363	800.000	0.157	0.455
-201.348	-85.680	-0.147	0.045
-200.333	-77.651	0.220	0.075
-199.319	-138.032	-0.300	-0.033
-198.304	800.000	0.063	0.227
-197.290	-141.540	-0.422	-0.042
-196.275	488.075	-0.026	-0.059
-195.260	363.195	0.192	0.380
-194.246	-115.716	-0.183	0.034
-193.231	-134.133	0.267	-0.032
-192.217	533.295	0.097	0.226
-191.202	-129.414	0.053	-0.007
-190.187	171.247	-0.061	0.086
-189.173	-12.195	0.124	-0.080
-188.158	-102.098	0.306	-0.072
-187.144	188.966	-0.155	0.229
-186.129	429.739	0.107	-0.227
-185.114	4.046	-0.271	-0.195
-184.100	105.487	0.143	-0.166
-183.085	1.474	0.223	-0.157
-182.071	88.951	-0.096	-0.105
-181.056	-53.792	-0.179	-0.080
-180.042	120.901	0.108	-0.132
-179.027	-165.219	-0.152	0.007
-178.012	-88.394	0.304	0.089
-176.998	-124.173	-0.308	0.047
-175.983	-57.387	-0.174	-0.075
-174.969	-200.000	0.009	-0.140
-173.954	-89.828	0.449	-0.129
-172.939	-14.332	-0.179	0.113
-171.925	800.000	-0.072	0.212
-170.910	643.166	-0.077	-0.193
-169.896	99.649	0.061	0.070
-168.881	329.441	-0.126	0.238
-167.866	-200.000	0.027	0.312
-166.852	-200.000	-0.026	-0.426
-165.837	48.873	0.203	0.187
-164.823	-182.497	-0.110	-0.002
-163.808	-200.000	-0.003	0.300
-162.793	-200.000	-0.006	-0.326
-161.779	65.562	0.121	0.120
-160.764	-200.000	0.011	0.213
-159.750	52.386	-0.164	0.153
-158.735	141.181	0.235	-0.305
-157.720	-53.188	-0.140	-0.063
-156.706	-68.408	-0.086	-0.033
-155.691	162.020	-0.092	-0.127
-154.677	149.689	-0.336	-0.448
-153.662	-45.811	0.010	-0.005
-152.647	111.088	0.150	0.177
-151.633	-4.654	-0.154	0.104
-150.618	-24.202	0.081	0.048
-149.604	9.711	0.207	-0.154
-148.589	-179.754	-0.248	-0.005
-147.574	137.837	-0.154	-0.199
-146.560	-200.000	0.006	0.197
-145.545	-19.019	-0.068	0.041
-144.531	-73.442	-0.312	0.112
-143.516	0.268	0.081	-0.057
-142.502	44.178	0.194	-0.175
-141.487	-148.253	0.020	0.002
-140.472	-28.726	-0.166	-0.094
-139.458	800.000	0.083	0.237
-138.443	-83.434	-0.285	-0.090
-137.429	-130.624	0.260	0.034
-136.414	-18.944	-0.226	-0.138
-135.399	216.789	-0.140	-0.219
-134.385	800.000	-0.115	-0.323
-133.370	-51.976	0.171	-0.078
-132.356	-200.000	0.033	0.199
-131.341	-24.652	0.209	-0.122
-130.326	169.882	-0.165	-0.231
-129.312	800.000	-0.044	0.144
-128.297	-92.035	0.145	0.040
-127.283	129.254	0.107	0.134
-126.268	205.530	0.163	-0.248
-125.253	-200.000	-0.001	0.219
-124.239	-146.427	-0.288	-0.025
-123.224	185.151	0.112	0.163
-122.210	-88.430	0.236	-0.069
-121.195	-85.431	0.426	0.130
-120.180	800.000	-0.113	-0.344
-119.166	15.592	-0.194	-0.149
-118.151	-44.402	-0.186	0.091
-117.137	-66.068	0.404	0.158
-116.122	-3.238	0.256	0.175
-115.107	413.906	0.063	-0.131
-114.093	-169.098	-0.266	-0.010
-113.078	-117.715	-0.178	0.031
-112.064	-83.317	0.047	0.015
-111.049	-109.753	0.147	0.030
-110.034	-151.380	0.168	0.012
-109.020	800.000	0.024	-0.068
-108.005	106.498	0.111	-0.129
-106.991	36.038	0.304	0.262
-105.976	-139.146	0.243	0.026
-104.962	129.691	0.193	-0.242
-103.947	-200.000	0.002	-0.237
-102.932	-200.000	-0.028	-0.368
-101.918	800.000	-0.136	-0.394
-100.903	472.815	0.096	0.212
-99.889	15.799	0.079	-0.061
-98.874	-151.816	-0.225	0.016
-97.859	103.879	0.064	-0.074
-96.845	-200.000	0.014	0.219
-95.830	-18.222	0.144	-0.088
-94.816	134.579	0.247	-0.315
-93.801	-77.891	-0.247	0.084
-92.786	-200.000	-0.006	0.129
-91.772	-200.000	-0.084	0.434
-90.757	39.023	-0.111	0.097
-89.743	-56.503	-0.215	0.093
-88.728	-53.243	0.258	0.116
-87.713	-117.623	-0.236	0.042
-86.699	131.418	0.215	-0.270
-85.684	-200.000	0.036	0.269
-84.670	-200.000	0.016	0.217
-83.655	-101.663	0.397	-0.094
-82.640	-38.001	-0.106	0.055
-81.626	-161.822	-0.266	-0.013
-80.611	247.315	0.031	0.051
-79.597	83.890	-0.092	0.099
-78.582	-44.563	0.379	0.186
-77.567	-37.215	0.113	-0.059
-76.553	44.834	0.110	0.099
-75.538	-200.000	-0.010	0.050
-74.524	158.142	-0.262	-0.355
-73.509	73.969	0.196	-0.201
-72.494	304.579	-0.069	-0.125
-71.480	3.844	0.127	0.091
-70.465	88.876	-0.262	-0.286
-69.451	-58.972	-0.145	-0.061
-68.436	70.408	0.271	0.274
-67.422	-54.899	-0.146	-0.064
-66.407	-129.999	0.125	0.017
-65.392	353.703	-0.103	0.201
-64.378	-53.750	0.133	0.059
-63.363	-200.000	-0.048	0.222
-62.349	-28.726	0.136	-0.077
-61.334	70.166	-0.949	-0.959
-60.319	158.500	0.462	0.628
-59.305	800.000	-0.321	-0.905
-58.290	752.040	0.410	1.084
-57.276	800.000	0.614	1.767
-56.261	-200.000	113.605	648.542
-55.246	544.767	1517.667	3547.270
-54.232	178.679	2689.795	3845.369
-53.217	104.766	2282.935	2632.755
-52.203	37.308	1890.673	1639.119
-51.188	31.269	1679.650	1410.669
-50.173	28.578	1638.057	1355.827
-49.159	50.633	1692.636	1567.012
-48.144	49.626	1706.849	1572.574
-47.130	30.821	1664.926	1394.728
-46.115	28.072	1650.272	1361.954
-45.100	27.887	1645.243	1356.376
-44.086	27.827	1643.105	1354.109
-43.071	27.786	1640.291	1351.435
-42.057	27.774	1637.527	1349.019
-41.042	27.820	1635.884	1347.951
-40.027	27.765	1633.874	1345.836
-39.013	27.799	1632.074	1344.547
-37.998	27.722	1630.854	1342.924
-36.984	27.838	1628.787	1342.021
-35.969	27.911	1628.063	1341.904
-34.954	27.963	1626.139	1340.647
-33.940	27.917	1624.346	1338.782
-32.925	27.901	1622.567	1337.141
-31.911	28.037	1620.652	1336.505
-30.896	27.974	1618.783	1334.456
-29.881	27.967	1617.115	1332.971
-28.867	27.812	1615.738	1330.657
-27.852	27.934	1613.894	1329.972
-26.838	27.906	1612.430	1328.511
-25.823	27.927	1611.340	1327.713
-24.809	27.975	1609.613	1326.585
-23.794	28.084	1608.362	1326.293
-22.779	27.977	1607.083	1324.410
-21.765	27.925	1605.728	1322.863
-20.750	27.936	1604.180	1321.617
-19.736	27.968	1602.896	1320.737
-18.721	27.959	1601.448	1319.425
-17.706	27.872	1599.969	1317.530
-16.692	27.913	1598.553	1316.603
-15.677	27.974	1597.016	1315.723
-14.663	28.036	1596.073	1315.343
-13.648	28.012	1594.756	1314.031
-12.633	27.982	1592.687	1312.059
-11.619	27.981	1591.519	1311.040
-10.604	27.913	1590.183	1309.401
-9.590	27.985	1588.386	1308.384
-8.575	27.952	1587.259	1307.163
-7.560	28.011	1586.394	1306.821
-6.546	28.124	1584.817	1306.279
-5.531	27.922	1584.672	1304.665
-4.517	27.956	1582.815	1303.325
-3.502	27.970	1581.854	1302.585
-2.487	28.052	1580.042	1301.622
-1.473	27.751	1567.830	1289.388
-0.458	24.806	1549.012	1253.267
0.556	22.728	1550.306	1221.513
1.571	20.276	1574.129	1222.918
2.586	19.772	1586.622	1228.936
3.600	17.741	1533.669	1173.848
4.615	10.898	1427.765	1048.697
5.629	4.755	1367.663	966.412
6.644	3.586	1360.163	953.806
7.659	3.661	1358.779	953.218
8.673	3.726	1357.938	952.945
9.688	3.807	1356.053	952.033
10.702	3.616	1353.161	948.745
11.717	6.561	1358.331	970.437
12.731	14.546	1372.708	1030.110
13.746	21.357	1383.940	1080.708
14.761	23.143	1385.743	1093.065
15.775	22.560	1384.050	1088.032
16.790	21.766	1381.960	1081.396
17.804	21.006	1379.944	1075.040
18.819	20.775	1379.024	1072.806
19.834	20.817	1377.938	1072.125
20.848	20.777	1377.380	1071.351
21.863	20.612	1376.200	1069.327
22.877	20.545	1374.988	1067.879
23.892	20.404	1374.333	1066.406
24.907	20.351	1373.441	1065.297
25.921	20.439	1372.181	1064.763
26.936	20.453	1371.291	1064.062
27.950	20.538	1370.143	1063.598
28.965	20.555	1369.974	1063.480
29.980	20.793	1368.555	1063.736
30.994	21.006	1367.437	1064.073
32.009	20.886	1366.328	1062.382
33.023	20.837	1365.346	1061.231
34.038	20.735	1364.591	1059.928
35.053	20.607	1362.966	1057.792
36.067	20.538	1361.916	1056.463
37.082	20.658	1360.730	1056.183
38.096	20.730	1360.074	1056.012
39.111	20.731	1359.859	1055.757
40.126	20.543	1358.922	1053.800
41.140	20.206	1357.786	1050.785
42.155	20.093	1356.751	1049.202
43.169	19.971	1356.641	1048.288
44.184	20.019	1355.865	1047.884
45.199	20.094	1356.021	1048.368
46.213	20.348	1355.905	1049.722
47.228	20.514	1354.965	1049.903
48.242	20.643	1353.918	1049.780
49.257	20.504	1352.628	1047.849
50.271	20.511	1351.011	1046.545
51.286	20.469	1349.831	1045.283
52.301	20.439	1348.704	1044.140
53.315	20.341	1347.365	1042.421
54.330	20.259	1345.887	1040.694
55.344	20.158	1344.488	1038.918
56.359	20.113	1344.039	1038.205
57.374	20.005	1343.097	1036.740
58.388	20.007	1342.122	1035.910
59.403	19.850	1342.207	1034.943
60.417	19.899	1340.659	1033.951
61.432	19.863	1339.864	1033.032
62.447	19.847	1338.930	1032.121
63.461	19.639	1337.982	1030.063
64.476	19.644	1337.067	1029.295
65.490	19.629	1336.116	1028.381
66.505	19.773	1334.047	1027.557
67.520	19.680	1333.333	1026.362
68.534	19.778	1332.042	1025.858
69.549	19.767	1331.119	1024.993
70.563	19.607	1329.688	1022.850
71.578	19.455	1328.981	1021.317
72.593	19.474	1327.675	1020.337
73.607	19.411	1327.349	1019.627
74.622	19.495	1327.025	1019.779
75.636	19.546	1326.024	1019.223
76.651	19.640	1325.418	1019.222
77.666	19.607	1325.649	1019.112
78.680	19.777	1324.377	1019.046
79.695	19.749	1323.694	1018.265
80.709	19.827	1323.433	1018.437
81.724	19.956	1323.297	1019.001
82.739	20.151	1321.926	1019.002
83.753	20.285	1321.761	1019.568
84.768	20.620	1320.413	1020.409
85.782	20.731	1319.875	1020.553
86.797	20.711	1318.776	1019.492
87.812	20.614	1317.470	1017.825
88.826	20.608	1315.775	1016.390
89.841	20.554	1315.153	1015.509
90.855	20.752	1314.093	1015.756
91.870	20.864	1313.680	1015.999
92.884	20.916	1312.767	1015.505
93.899	20.818	1312.097	1014.324
94.914	20.842	1311.543	1013.947
95.928	20.864	1310.897	1013.486
96.943	20.707	1310.061	1011.835
97.957	20.718	1308.707	1010.766
98.972	20.758	1307.653	1010.097
99.987	20.673	1307.467	1009.370
101.001	20.695	1306.341	1008.535
102.016	20.620	1305.026	1006.998
103.030	20.783	1304.360	1007.341
104.045	20.669	1303.175	1005.674
105.060	20.541	1301.628	1003.652
106.074	20.146	1300.044	1000.065
107.089	19.716	1298.954	996.660
108.103	19.780	1296.997	995.438
109.118	19.722	1295.718	994.036
110.133	19.643	1295.133	993.045
111.147	19.669	1293.713	992.019
112.162	19.788	1292.221	991.469
113.176	19.966	1291.086	991.527
114.191	19.962	1290.433	990.915
115.206	20.013	1289.077	990.079
116.220	19.858	1288.196	988.431
117.235	19.837	1286.777	987.133
118.249	19.836	1285.630	986.160
119.264	19.749	1284.348	984.597
120.279	19.552	1283.628	982.833
121.293	19.520	1282.166	981.443
122.308	19.422	1281.062	979.956
123.322	19.471	1279.953	979.298
124.337	19.241	1279.384	977.471
125.352	19.428	1277.632	977.106
126.366	19.375	1276.909	976.167
127.381	19.307	1275.416	974.555
128.395	19.174	1274.941	973.357
129.410	19.321	1273.950	973.345
130.424	19.452	1273.653	973.769
131.439	19.742	1272.481	974.421
132.454	19.700	1271.874	973.637
133.468	19.717	1271.354	973.245
134.483	19.788	1270.862	973.180
135.497	20.042	1269.644	973.593
136.512	19.937	1268.414	971.975
137.527	19.948	1267.208	971.024
138.541	19.960	1266.342	970.344
139.556	20.167	1264.531	970.029
140.570	20.238	1263.666	969.674
141.585	20.229	1263.348	969.292
142.600	20.462	1262.146	969.587
143.614	20.565	1261.754	969.775
144.629	20.675	1260.357	969.225
145.643	20.647	1259.315	968.185
146.658	20.441	1257.831	965.811
147.673	20.224	1256.258	963.315
148.687	19.997	1255.334	961.263
149.702	20.010	1253.449	959.805
150.716	19.881	1252.356	958.168
151.731	19.827	1251.072	956.802
152.746	19.819	1250.318	956.097
153.760	20.026	1248.976	956.130
154.775	20.110	1248.302	955.992
155.789	20.167	1247.519	955.621
156.804	20.182	1246.588	954.908
157.819	20.335	1245.408	954.760
158.833	20.432	1244.675	954.647
159.848	20.636	1243.959	955.131
160.862	20.490	1243.377	953.798
161.877	20.262	1241.250	950.835
162.892	19.925	1239.968	947.921
163.906	19.794	1239.796	946.992
164.921	19.816	1238.793	946.261
165.935	19.982	1237.826	946.346
166.950	20.027	1237.065	945.926
167.964	20.161	1235.987	945.748
168.979	19.967	1235.721	944.407
169.994	19.949	1235.018	943.685
171.008	20.059	1234.347	943.691
172.023	20.142	1233.643	943.520
173.037	20.394	1233.254	944.510
174.052	20.456	1231.829	943.671
175.067	20.156	1230.209	940.721
176.081	19.897	1229.283	938.524
177.096	19.792	1228.052	936.931
178.110	19.907	1227.602	937.130
179.125	19.889	1226.546	936.143
180.140	20.214	1225.523	937.035
181.154	20.273	1224.726	936.657
182.169	20.428	1223.574	936.530
183.183	20.379	1222.639	935.467
184.198	20.589	1221.481	935.631
185.213	20.478	1220.881	934.492
186.227	20.617	1219.524	934.117
187.242	20.753	1218.373	933.884
188.256	20.700	1217.812	933.085
189.271	20.797	1217.075	932.955
190.286	20.544	1216.211	930.856
191.300	20.036	1214.959	927.099
192.315	19.962	1213.667	925.638
193.329	19.918	1213.860	925.468
194.344	20.049	1212.335	924.922
195.359	19.965	1212.012	924.146
196.373	20.101	1211.607	924.478
197.388	20.228	1211.681	925.133
198.402	20.633	1211.328	926.940
199.417	20.815	1211.235	927.753
200.432	20.987	1210.364	927.920
201.446	21.039	1209.671	927.586
202.461	21.083	1209.261	927.424
203.475	21.079	1207.877	926.255
204.490	20.765	1206.096	923.145
205.504	20.535	1205.006	921.011
206.519	20.493	1203.254	919.365
207.534	20.341	1202.079	917.584
208.548	20.291	1201.716	916.965
209.563	20.470	1200.814	917.137
210.577	20.379	1199.969	915.932
211.592	20.570	1199.223	916.287
212.607	20.752	1198.769	916.818
213.621	20.833	1197.832	916.446
214.636	20.697	1196.952	914.980
215.650	20.672	1195.959	914.007
216.665	20.867	1195.517	914.610
217.680	21.012	1194.928	914.840
218.694	21.109	1193.733	914.354
219.709	21.072	1193.064	913.567
220.723	21.090	1192.404	913.076
221.738	20.963	1192.046	912.055
222.753	20.864	1190.594	910.348
223.767	20.820	1190.680	910.101
224.782	21.071	1189.842	910.689
225.796	21.115	1189.820	910.825
226.811	21.104	1189.099	910.131
227.826	21.046	1187.730	908.704
228.840	20.754	1186.861	906.437
229.855	20.725	1186.433	905.880
230.869	20.794	1185.766	905.649
231.884	20.732	1184.036	903.925
232.899	20.578	1183.105	902.334
233.913	20.422	1182.526	901.003
234.928	20.411	1182.021	900.481
235.942	20.362	1181.119	899.462
236.957	20.188	1180.495	898.007
237.972	20.252	1179.846	897.766
238.986	20.353	1179.095	897.637
240.001	20.368	1178.579	897.240
241.015	20.339	1177.768	896.392
242.030	20.453	1176.961	896.287
243.045	20.703	1175.930	896.711
244.059	20.640	1175.563	896.029
245.074	20.860	1174.690	896.416
246.088	20.884	1174.198	896.088
247.103	20.963	1173.935	896.211
248.117	21.193	1173.055	896.641
249.132	21.399	1172.534	897.220
250.147	21.648	1172.286	898.230
251.161	21.846	1171.437	898.512
252.176	21.932	1170.560	898.201
253.190	22.047	1170.281	898.495
254.205	21.949	1170.291	897.922
255.220	21.996	1169.531	897.500
256.234	22.024	1169.063	897.204
257.249	22.007	1167.705	895.998
258.263	21.885	1166.887	894.669
259.278	21.922	1166.156	894.218
260.293	21.944	1166.356	894.406
261.307	22.087	1165.327	894.265
262.322	22.102	1164.796	893.856
263.336	21.973	1164.552	892.931
264.351	22.002	1163.874	892.480
265.366	22.143	1162.651	892.177
266.380	22.158	1162.509	892.065
267.395	21.908	1161.639	890.052
268.409	21.709	1160.530	888.117
269.424	21.816	1159.756	887.988
270.439	21.715	1159.617	887.289
271.453	21.667	1158.076	885.789
272.468	21.390	1157.179	883.624
273.482	21.409	1156.678	883.258
274.497	21.276	1156.279	882.206
275.512	21.442	1155.341	882.250
276.526	21.387	1154.638	881.359
277.541	21.477	1153.740	881.049
278.555	21.658	1153.165	881.441
279.570	21.978	1152.482	882.450
280.585	22.088	1152.189	882.700
281.599	21.968	1151.047	881.146
282.614	21.763	1150.172	879.371
283.628	21.601	1149.060	877.630
284.643	21.587	1147.542	876.322
285.657	21.493	1146.978	875.343
286.672	21.622	1145.919	875.100
287.687	21.790	1145.218	875.329
288.701	21.696	1144.567	874.284
289.716	21.787	1143.513	873.858
290.730	21.642	1143.501	873.046
291.745	21.734	1142.699	872.814
292.760	21.687	1142.235	872.148
293.774	21.822	1141.621	872.274
294.789	21.986	1141.347	872.802
295.803	21.957	1140.380	871.842
296.818	21.811	1139.287	870.205
297.833	21.784	1138.169	869.139
298.847	21.697	1137.922	868.447
299.862	21.848	1137.045	868.446
300.876	21.789	1136.259	867.475
301.891	21.894	1135.849	867.608
302.906	22.024	1135.668	868.035
303.920	22.193	1135.207	868.439
304.935	22.410	1134.443	868.850
305.949	22.491	1133.619	868.540
306.964	22.369	1133.314	867.630
307.979	22.186	1132.022	865.663
308.993	22.040	1131.854	864.740
310.008	22.181	1130.597	864.396
311.022	22.245	1130.130	864.278
312.037	22.327	1129.183	863.880
313.052	22.017	1128.462	861.731
314.066	21.865	1126.831	859.661
315.081	21.702	1125.650	857.885
316.095	21.591	1124.840	856.651
317.110	21.619	1124.541	856.482
318.125	21.653	1123.271	855.607
319.139	21.524	1123.053	854.735
320.154	21.572	1122.367	854.374
321.168	21.481	1122.077	853.630
322.183	21.582	1121.227	853.402
323.197	21.815	1120.470	853.885
324.212	21.711	1120.418	853.264
325.227	21.845	1119.882	853.432
326.241	21.896	1118.720	852.719
327.256	21.773	1118.052	851.534
328.270	21.735	1116.632	850.196
329.285	21.639	1116.033	849.201
330.300	21.740	1115.359	849.102
331.314	21.586	1114.643	847.736
332.329	21.736	1113.442	847.473
333.343	21.833	1112.643	847.256
334.358	21.964	1112.032	847.348
335.373	22.068	1111.470	847.348
336.387	22.163	1111.121	847.466
337.402	22.148	1110.521	846.859
338.416	22.311	1109.653	846.910
339.431	22.435	1109.127	847.028
340.446	22.464	1108.962	846.967
341.460	22.707	1108.294	847.548
342.475	22.789	1107.623	847.353
343.489	22.788	1106.665	846.543
344.504	22.886	1105.519	846.058
345.519	22.896	1105.027	845.658
346.533	22.912	1104.587	845.323
347.548	23.151	1103.678	845.691
348.562	22.879	1102.916	843.734
349.577	22.696	1101.614	841.791
350.592	22.294	1100.515	838.959
351.606	22.210	1099.676	837.844
352.621	22.124	1099.038	836.875
353.635	22.068	1098.162	835.867
354.650	22.045	1097.524	835.200
355.665	22.168	1097.203	835.468
356.679	22.293	1096.495	835.445
357.694	22.289	1096.279	835.192
358.708	22.510	1095.463	835.542
359.723	22.541	1094.920	835.202
360.738	22.428	1094.406	834.197
361.752	22.399	1093.770	833.505
362.767	22.522	1092.982	833.409
363.781	22.464	1092.327	832.565
364.796	22.767	1091.949	833.635
365.810	23.050	1091.357	834.444
366.825	23.090	1091.250	834.478
367.840	23.387	1090.768	835.435
368.854	23.341	1090.405	834.868
369.869	23.336	1089.429	834.023
370.883	23.220	1088.074	832.364
371.898	22.955	1087.631	830.707
372.913	22.916	1087.265	830.171
373.927	22.996	1086.591	829.957
374.942	23.080	1086.486	830.197
375.956	22.986	1085.663	829.056
376.971	23.065	1084.683	828.606
377.986	23.105	1084.416	828.516
379.000	23.376	1083.790	829.233
380.015	23.327	1083.715	828.869
381.029	23.391	1083.161	828.674
382.044	23.395	1082.277	827.941
383.059	23.411	1081.212	827.128
384.073	23.342	1080.404	826.117
385.088	23.280	1079.718	825.230
386.102	23.285	1078.782	824.463
387.117	23.067	1077.191	822.163
388.132	22.765	1076.100	819.855
389.146	22.720	1075.856	819.387
390.161	22.616	1075.149	818.293
391.175	22.782	1074.323	818.360
392.190	22.892	1073.998	818.553
393.205	23.150	1073.593	819.366
394.219	23.221	1072.393	818.706
395.234	23.000	1071.289	816.767
396.248	22.813	1070.307	815.086
397.263	22.822	1069.252	814.251
398.278	22.708	1068.548	813.116
399.292	22.683	1067.725	812.302
400.307	22.640	1067.170	811.611
401.321	22.577	1066.234	810.536
402.336	22.445	1065.730	809.475
403.350	22.573	1064.974	809.419
404.365	22.815	1064.252	809.909
405.380	22.727	1064.079	809.300
406.394	22.870	1063.306	809.297
407.409	23.108	1062.779	809.915
408.423	23.169	1062.581	809.971
409.438	23.372	1061.661	810.127
410.453	23.356	1061.500	809.857
411.467	23.650	1060.057	810.028
412.482	23.537	1059.707	809.175
413.496	23.636	1059.338	809.274
414.511	23.794	1058.724	809.451
415.526	23.877	1058.423	809.527
416.540	23.876	1058.423	809.451
417.555	23.901	1057.642	808.896
418.569	23.655	1056.629	806.930
419.584	23.539	1056.279	806.067
420.599	23.643	1055.526	805.892
421.613	156.809	1403.696	1798.589
422.628	144.022	1454.435	1798.672
