DTS Sentinel unit serial number:	SN413079Multiplexer serial number:	ORYXHardware model number:	OX4-SRSoftware version number:	ORYX F/W v4.00 Oryx Data Collector v3.7.2.0data status	okinstallation	princeton_trtdifferential loss correction	single-endedforward channel	channel 2reverse channel	N/Adate	2019/09/11time	00:29:10forward acquisition time	60.00reverse acquisition time	0.00gamma	496.2192k internal	0.2332k external	0.2332temperature offset calibration	0.9944default loss term (dB/km)	0.3790temperature slope calibration	1.0000multiplexer offset coefficient	1.0000multiplexer slope coefficient	1.0000fibre end	0.00T internal ref (°C)	29.25T ext. ref 1 (°C)	-0.32T ext. ref 2 (°C)	22.95length (m)	temperature (°C)	Stokes	anti-Stokes-747.200	28.121	0.044	0.037
-746.185	-82.530	-0.140	0.046
-745.171	-70.892	0.369	0.140
-744.156	43.672	-0.041	0.037
-743.142	16.068	0.139	-0.110
-742.127	-176.376	-0.375	0.010
-741.112	50.279	-0.055	0.052
-740.098	66.968	-0.164	0.168
-739.083	-81.800	-0.122	-0.040
-738.069	163.982	-0.148	0.209
-737.054	38.687	0.191	0.171
-736.039	-32.580	-0.358	-0.201
-735.025	-66.801	0.176	0.070
-734.010	800.000	-0.093	0.383
-732.996	55.297	-0.311	-0.302
-731.981	217.561	0.102	-0.163
-730.966	0.165	0.206	-0.148
-729.952	-200.000	-0.011	-0.233
-728.937	-156.155	-0.281	-0.018
-727.923	-94.085	-0.137	-0.038
-726.908	56.662	-0.272	0.266
-725.894	-200.000	0.017	-0.527
-724.879	-67.308	-0.080	-0.032
-723.864	171.780	0.053	-0.076
-722.850	-29.421	-0.313	-0.180
-721.835	-108.493	0.284	0.061
-720.821	-112.796	-0.143	0.028
-719.806	119.048	0.111	0.138
-718.791	-200.000	-0.003	-0.063
-717.777	-46.260	-0.183	-0.091
-716.762	-200.000	-0.047	-0.383
-715.748	-89.499	-0.386	0.114
-714.733	-200.000	0.094	-0.463
-713.718	-200.000	-0.015	-0.207
-712.704	497.040	-0.096	-0.223
-711.689	-200.000	0.020	-0.093
-710.675	-112.683	-0.300	0.060
-709.660	-200.000	-0.012	-0.382
-708.645	-131.708	0.147	-0.019
-707.631	-56.722	-0.257	-0.114
-706.616	-73.605	0.092	-0.034
-705.602	112.821	-0.268	-0.326
-704.587	-81.382	-0.090	-0.030
-703.572	26.522	0.146	-0.123
-702.558	316.286	0.094	-0.178
-701.543	-159.653	0.275	-0.015
-700.529	216.925	-0.268	-0.428
-699.514	77.561	-0.185	0.198
-698.499	-200.000	0.009	-0.048
-697.485	-122.570	-0.508	0.083
-696.470	-81.752	0.311	-0.102
-695.456	-41.201	0.147	-0.076
-694.441	182.478	-0.096	0.141
-693.426	192.609	0.099	0.151
-692.412	-101.099	0.107	-0.026
-691.397	-200.000	-0.040	0.192
-690.383	281.113	0.250	0.448
-689.368	-200.000	-0.028	0.290
-688.354	800.000	0.054	-0.159
-687.339	81.768	-0.077	-0.084
-686.324	-105.407	0.114	0.026
-685.310	-200.000	0.023	-0.136
-684.295	-9.809	0.209	-0.139
-683.281	-184.280	0.170	-0.003
-682.266	-200.000	-0.023	-0.193
-681.251	-200.000	-0.118	0.556
-680.237	-102.034	-0.122	0.030
-679.222	-200.000	0.056	-0.291
-678.208	49.781	-0.124	-0.117
-677.193	-121.539	-0.173	-0.029
-676.178	800.000	0.051	-0.205
-675.164	-200.000	-0.026	-0.217
-674.149	-165.705	0.297	0.013
-673.135	-54.686	0.135	-0.061
-672.120	481.362	0.132	-0.300
-671.105	-200.000	-0.045	0.217
-670.091	-110.747	-0.348	0.072
-669.076	142.716	0.060	0.080
-668.062	-114.981	-0.225	-0.043
-667.047	-200.000	0.043	0.267
-666.032	180.479	-0.134	-0.198
-665.018	148.200	0.111	0.150
-664.003	800.000	0.011	-0.033
-662.989	-66.189	-0.080	-0.032
-661.974	-102.032	-0.201	0.049
-660.959	38.083	0.096	0.086
-659.945	-7.191	-0.167	-0.114
-658.930	407.437	-0.047	0.099
-657.916	800.000	-0.085	0.245
-656.901	10.315	-0.335	0.255
-655.886	-33.285	0.060	0.033
-654.872	-200.000	-0.010	-0.144
-653.857	-116.329	-0.192	-0.036
-652.843	-80.674	-0.130	0.043
-651.828	-11.655	0.119	0.078
-650.814	457.946	0.134	0.299
-649.799	-200.000	0.031	-0.284
-648.784	-132.378	0.249	0.032
-647.770	-112.380	-0.254	0.051
-646.755	10.385	0.172	0.131
-645.741	90.162	0.209	0.235
-644.726	283.563	-0.064	0.116
-643.711	-94.560	0.363	0.099
-642.697	128.186	-0.040	-0.052
-641.682	-86.006	-0.248	0.077
-640.668	-200.000	-0.025	-0.117
-639.653	800.000	-0.061	-0.264
-638.638	173.709	0.175	-0.253
-637.624	-23.682	0.087	-0.052
-636.609	363.353	-0.183	-0.368
-635.595	68.515	0.289	-0.297
-634.580	100.483	0.048	0.056
-633.565	-98.571	0.072	-0.018
-632.551	157.022	-0.128	0.178
-631.536	283.985	0.014	-0.026
-630.522	-11.284	-0.394	-0.260
-629.507	-200.000	-0.023	-0.229
-628.492	532.856	-0.068	-0.161
-627.478	23.330	-0.292	-0.240
-626.463	800.000	-0.092	0.338
-625.449	-65.897	0.132	-0.053
-624.434	-78.560	0.131	-0.045
-623.419	-200.000	-0.016	0.138
-622.405	800.000	-0.038	-0.135
-621.390	-70.408	0.125	0.048
-620.376	-3.542	-0.127	0.089
-619.361	-24.847	-0.176	-0.105
-618.346	-24.864	-0.223	0.133
-617.332	-200.000	0.037	0.173
-616.317	47.968	-0.404	0.378
-615.303	-200.000	0.019	0.261
-614.288	-200.000	0.009	-0.280
-613.273	22.796	-0.162	0.133
-612.259	-11.115	0.065	-0.043
-611.244	775.436	-0.065	-0.177
-610.230	-81.998	-0.122	0.040
-609.215	0.384	0.154	0.110
-608.201	-165.011	0.093	-0.004
-607.186	-200.000	0.064	0.437
-606.171	734.320	-0.142	0.381
-605.157	-157.672	0.234	-0.014
-604.142	44.027	0.206	0.189
-603.128	-99.720	0.343	0.086
-602.113	51.712	-0.239	0.227
-601.098	290.330	0.130	-0.237
-600.084	734.679	0.076	-0.203
-599.069	33.788	0.124	-0.108
-598.055	-81.230	0.113	0.037
-597.040	-200.000	-0.012	-0.142
-596.025	-128.562	-0.040	0.006
-595.011	84.499	-0.083	-0.091
-593.996	190.905	0.158	-0.238
-592.982	800.000	0.084	0.292
-591.967	-83.924	-0.127	0.040
-590.952	-160.302	-0.462	-0.025
-589.938	104.066	0.290	-0.341
-588.923	-76.614	0.097	-0.034
-587.909	57.504	-0.102	-0.100
-586.894	271.707	0.057	-0.101
-585.879	-200.000	-0.020	-0.356
-584.865	290.579	-0.075	0.136
-583.850	190.197	-0.156	0.235
-582.836	-18.731	0.091	0.057
-581.821	-90.888	-0.377	-0.109
-580.806	800.000	-0.018	-0.073
-579.792	-103.859	-0.255	0.059
-578.777	-33.418	0.152	0.084
-577.763	38.050	-0.112	-0.100
-576.748	-27.473	-0.168	0.098
-575.733	-60.443	-0.213	-0.091
-574.719	-200.000	0.015	0.146
-573.704	-46.685	0.307	-0.151
-572.690	-97.872	-0.340	-0.088
-571.675	56.841	0.140	0.136
-570.661	-200.000	0.006	-0.133
-569.646	-133.208	0.146	-0.018
-568.631	47.809	-0.184	-0.172
-567.617	260.241	0.162	0.280
-566.602	-200.000	0.006	-0.042
-565.588	464.458	-0.109	-0.242
-564.573	-69.722	-0.228	0.087
-563.558	-200.000	-0.017	-0.193
-562.544	-93.353	0.188	0.052
-561.529	-200.000	-0.001	-0.118
-560.515	515.703	-0.088	-0.206
-559.500	-200.000	-0.019	-0.142
-558.485	131.996	0.040	0.051
-557.471	-112.269	0.144	0.029
-556.456	94.351	-0.133	0.151
-555.442	800.000	-0.044	0.167
-554.427	800.000	0.031	-0.117
-553.412	-200.000	0.000	-0.026
-552.398	412.705	-0.096	-0.204
-551.383	190.126	-0.054	-0.080
-550.369	572.231	0.051	-0.125
-549.354	168.089	-0.163	0.231
-548.339	800.000	-0.082	-0.269
-547.325	126.953	-0.093	0.117
-546.310	-100.540	0.326	0.081
-545.296	-57.828	0.299	-0.130
-544.281	5.116	0.179	0.132
-543.266	-200.000	0.022	-0.131
-542.252	236.933	-0.043	0.070
-541.237	146.308	0.083	-0.111
-540.223	59.530	0.082	0.080
-539.208	-66.010	0.216	0.086
-538.193	-101.921	0.257	-0.062
-537.179	-91.486	-0.180	0.051
-536.164	-49.654	-0.424	-0.202
-535.150	-114.403	0.231	-0.044
-534.135	800.000	-0.091	-0.254
-533.121	-74.208	-0.198	0.071
-532.106	140.196	0.101	-0.132
-531.091	100.573	0.116	-0.135
-530.077	63.542	-0.186	0.186
-529.062	48.824	-0.069	-0.065
-528.048	133.742	-0.092	-0.118
-527.033	104.253	0.129	-0.152
-526.018	-152.040	0.455	0.033
-525.004	164.118	0.076	-0.107
-523.989	-109.130	-0.197	-0.042
-522.975	-54.212	-0.105	0.048
-521.960	771.139	-0.120	0.325
-520.945	800.000	-0.085	0.349
-519.931	-75.043	-0.367	-0.131
-518.916	-141.251	0.094	0.010
-517.902	419.161	0.117	-0.250
-516.887	-103.998	-0.217	0.050
-515.872	-32.303	-0.319	0.177
-514.858	800.000	0.070	-0.201
-513.843	-26.136	0.230	0.135
-512.829	51.809	0.194	0.184
-511.814	-134.252	0.270	-0.033
-510.799	-200.000	-0.000	-0.164
-509.785	90.109	0.317	-0.353
-508.770	59.851	-0.272	0.267
-507.756	139.592	-0.222	-0.292
-506.741	303.650	0.179	0.332
-505.726	-61.476	0.078	0.032
-504.712	6.829	0.023	-0.017
-503.697	-153.208	-0.351	-0.024
-502.683	-137.914	0.189	0.021
-501.668	226.490	-0.145	-0.235
-500.653	32.876	0.164	-0.141
-499.639	-152.567	-0.243	0.017
-498.624	-200.000	0.020	-0.116
-497.610	12.104	0.239	0.184
-496.595	54.564	-0.153	-0.147
-495.581	11.544	-0.117	-0.089
-494.566	-200.000	0.077	-0.505
-493.551	-200.000	0.010	-0.121
-492.537	433.472	0.019	0.041
-491.522	-77.409	0.087	0.030
-490.508	-200.000	0.034	0.241
-489.493	-89.736	0.125	0.036
-488.478	-200.000	0.013	-0.234
-487.464	-200.000	0.051	0.275
-486.449	-175.041	-0.129	0.004
-485.435	-130.904	0.353	0.047
-484.420	84.561	0.120	-0.131
-483.405	-102.326	0.258	0.062
-482.391	-49.404	0.012	0.006
-481.376	-5.984	0.139	-0.095
-480.362	-97.851	0.189	0.049
-479.347	-200.000	0.023	0.204
-478.332	-200.000	-0.005	0.159
-477.318	145.338	-0.134	0.178
-476.303	56.787	0.303	-0.294
-475.289	76.051	0.076	0.080
-474.274	-73.402	-0.376	0.137
-473.259	-14.094	-0.099	-0.063
-472.245	-17.521	0.235	0.147
-471.230	227.475	0.120	0.195
-470.216	-115.008	-0.289	0.055
-469.201	4.710	0.105	-0.077
-468.186	-21.285	-0.217	-0.132
-467.172	800.000	0.053	-0.229
-466.157	294.083	0.145	-0.263
-465.143	-67.006	-0.100	-0.039
-464.128	13.861	-0.122	0.095
-463.113	-54.140	0.137	0.062
-462.099	-16.027	-0.074	0.047
-461.084	49.512	-0.111	-0.104
-460.070	-16.953	0.052	0.033
-459.055	78.461	0.224	0.238
-458.040	93.999	0.091	-0.103
-457.026	-200.000	-0.000	0.064
-456.011	-94.211	0.271	0.074
-454.997	37.092	0.120	0.106
-453.982	11.229	-0.154	0.117
-452.968	-200.000	-0.036	-0.211
-451.953	-200.000	0.027	-0.138
-450.938	-200.000	-0.002	-0.085
-449.924	-2.212	-0.083	0.058
-448.909	73.270	0.163	0.169
-447.895	-110.554	0.462	-0.095
-446.880	53.730	-0.175	-0.167
-445.865	297.881	-0.093	0.170
-444.851	359.334	-0.007	0.015
-443.836	-69.005	-0.375	-0.144
-442.822	-77.966	0.419	-0.144
-441.807	281.513	0.140	0.249
-440.792	86.539	-0.093	0.102
-439.778	800.000	0.071	-0.296
-438.763	-158.527	0.191	0.011
-437.749	-61.425	0.135	0.056
-436.734	587.452	-0.078	0.190
-435.719	144.913	0.141	-0.187
-434.705	127.616	-0.121	0.153
-433.690	800.000	-0.079	0.235
-432.676	-112.143	0.226	0.045
-431.661	-200.000	-0.006	0.385
-430.646	-27.021	-0.052	0.030
-429.632	-200.000	-0.099	0.437
-428.617	-18.226	0.149	0.093
-427.603	265.701	0.152	-0.263
-426.588	-117.688	-0.165	-0.030
-425.573	44.535	-0.218	-0.199
-424.559	28.591	-0.012	-0.010
-423.544	-125.048	0.176	0.027
-422.530	624.102	-0.085	-0.212
-421.515	800.000	-0.039	0.137
-420.500	-0.403	0.350	-0.247
-419.486	242.010	0.071	0.117
-418.471	-17.809	-0.293	-0.183
-417.457	-200.000	-0.067	0.395
-416.442	331.051	-0.091	-0.174
-415.428	-25.926	0.191	-0.112
-414.413	449.601	0.092	0.202
-413.398	-34.911	-0.262	-0.142
-412.384	203.746	-0.084	-0.129
-411.369	-182.876	-0.167	0.003
-410.355	-200.000	-0.020	-0.162
-409.340	-80.354	-0.143	0.047
-408.325	343.912	-0.111	0.215
-407.311	800.000	0.026	0.078
-406.296	304.592	0.127	0.234
-405.282	-85.735	0.102	0.031
-404.267	-200.000	-0.008	0.187
-403.252	51.096	0.239	0.225
-402.238	-68.122	-0.133	0.051
-401.223	266.458	-0.059	0.103
-400.209	-138.808	-0.156	0.017
-399.194	-15.019	-0.372	0.236
-398.179	18.062	-0.107	-0.085
-397.165	-124.912	0.124	-0.019
-396.150	-24.036	-0.194	-0.115
-395.136	129.994	0.107	0.135
-394.121	44.375	-0.193	0.176
-393.106	383.234	-0.118	-0.241
-392.092	800.000	0.110	0.303
-391.077	73.022	-0.129	-0.134
-390.063	-14.982	-0.247	-0.157
-389.048	-138.631	0.139	0.015
-388.033	70.013	-0.216	-0.221
-387.019	-200.000	0.035	0.270
-386.004	170.968	0.094	-0.133
-384.990	-23.983	0.248	-0.147
-383.975	3.501	0.199	-0.144
-382.960	269.229	-0.067	-0.116
-381.946	800.000	-0.105	0.355
-380.931	-62.944	-0.049	0.020
-379.917	-105.114	-0.111	-0.025
-378.902	-152.829	-0.236	-0.017
-377.888	110.030	0.148	-0.176
-376.873	800.000	-0.029	-0.120
-375.858	40.896	-0.126	0.113
-374.844	-200.000	-0.037	0.270
-373.829	-138.964	-0.219	-0.024
-372.815	-97.786	0.174	-0.045
-371.800	-200.000	0.010	0.147
-370.785	-66.747	0.233	-0.091
-369.771	96.994	-0.168	0.191
-368.756	-76.870	-0.183	0.063
-367.742	-133.322	0.233	0.029
-366.727	64.617	0.115	-0.115
-365.712	-200.000	0.038	0.302
-364.698	-18.632	-0.197	0.122
-363.683	-200.000	-0.020	-0.163
-362.669	-143.194	0.156	0.015
-361.654	-61.957	-0.237	-0.098
-360.639	-25.795	-0.241	-0.141
-359.625	-200.000	-0.019	-0.201
-358.610	-28.310	0.073	-0.042
-357.596	10.887	-0.240	-0.182
-356.581	357.594	0.138	0.273
-355.566	-200.000	0.000	0.050
-354.552	488.799	-0.124	-0.282
-353.537	-87.647	0.185	0.055
-352.523	-200.000	-0.039	0.246
-351.508	170.837	0.182	0.259
-350.493	-64.573	-0.068	-0.027
-349.479	-74.452	-0.276	0.099
-348.464	-69.555	0.339	0.129
-347.450	-200.000	-0.029	0.479
-346.435	58.927	-0.136	0.132
-345.420	606.418	-0.158	-0.391
-344.406	-200.000	-0.060	0.269
-343.391	315.485	0.129	-0.240
-342.377	-200.000	-0.008	-0.126
-341.362	-173.938	-0.213	-0.006
-340.348	-200.000	0.060	0.266
-339.333	305.829	0.045	-0.083
-338.318	-68.306	-0.232	-0.089
-337.304	800.000	-0.073	-0.243
-336.289	-142.718	0.098	0.010
-335.275	-154.621	0.184	-0.012
-334.260	204.338	0.121	-0.185
-333.245	-168.407	0.129	-0.005
-332.231	-99.588	-0.069	0.017
-331.216	-172.996	-0.306	-0.009
-330.202	533.101	-0.189	-0.444
-329.187	-22.361	-0.172	-0.103
-328.172	-66.432	0.212	0.083
-327.158	800.000	-0.094	0.300
-326.143	122.337	-0.063	-0.078
-325.129	-200.000	0.064	-0.373
-324.114	443.537	0.038	0.083
-323.099	800.000	0.060	-0.193
-322.085	206.245	-0.070	0.107
-321.070	-200.000	-0.058	0.275
-320.056	571.450	0.051	0.122
-319.041	123.331	0.148	0.183
-318.026	118.302	-0.086	0.105
-317.012	798.166	0.121	0.329
-315.997	0.442	0.155	0.109
-314.983	-139.034	0.277	0.030
-313.968	365.578	-0.038	-0.077
-312.953	498.827	0.108	0.246
-311.939	503.940	0.004	0.010
-310.924	63.269	-0.146	-0.145
-309.910	550.319	-0.114	-0.269
-308.895	132.262	-0.116	0.148
-307.880	-49.489	0.217	0.102
-306.866	800.000	0.172	0.539
-305.851	356.364	0.156	-0.308
-304.837	-108.612	-0.462	0.098
-303.822	492.208	-0.113	-0.256
-302.807	-89.913	0.380	0.110
-301.793	397.895	-0.081	0.168
-300.778	23.018	0.053	0.043
-299.764	-12.141	-0.108	0.070
-298.749	-108.264	-0.232	-0.050
-297.735	-110.008	0.428	-0.089
-296.720	800.000	-0.032	0.137
-295.705	-43.074	-0.063	-0.032
-294.691	63.673	-0.067	0.067
-293.676	800.000	-0.085	-0.297
-292.662	-137.720	-0.180	-0.020
-291.647	-200.000	0.008	0.166
-290.632	-200.000	-0.026	0.145
-289.618	1.803	0.157	0.112
-288.603	44.003	0.083	-0.075
-287.589	4.488	0.126	-0.091
-286.574	34.819	-0.345	-0.298
-285.559	351.482	-0.112	-0.218
-284.545	333.652	0.101	0.193
-283.530	61.676	0.372	0.366
-282.516	57.954	0.144	-0.139
-281.501	23.546	-0.058	-0.047
-280.486	205.408	0.229	0.351
-279.472	-200.000	0.046	-0.218
-278.457	719.103	-0.148	0.387
-277.443	-57.110	0.128	-0.056
-276.428	40.902	0.289	-0.258
-275.413	-200.000	-0.020	-0.325
-274.399	36.181	-0.185	-0.161
-273.384	-17.951	-0.162	-0.101
-272.370	20.845	-0.178	0.143
-271.355	-81.809	-0.112	-0.036
-270.340	78.591	0.113	-0.119
-269.326	-160.992	-0.406	-0.021
-268.311	-148.804	-0.306	0.024
-267.297	-77.735	0.116	0.039
-266.282	-7.168	-0.368	0.247
-265.267	438.608	-0.117	0.253
-264.253	-200.000	0.026	-0.133
-263.238	-200.000	0.002	0.201
-262.224	-35.347	-0.134	-0.072
-261.209	-37.749	-0.258	-0.136
-260.195	231.409	-0.242	-0.391
-259.180	47.702	-0.239	-0.220
-258.165	707.087	-0.092	-0.239
-257.151	87.271	0.176	-0.192
-256.136	-60.712	0.077	-0.032
-255.122	144.622	-0.304	0.400
-254.107	403.719	-0.070	-0.145
-253.092	-200.000	-0.025	0.350
-252.078	-2.490	-0.167	0.115
-251.063	115.770	-0.125	-0.151
-250.049	-194.210	-0.221	-0.002
-249.034	-200.000	0.068	0.297
-248.019	260.159	-0.155	0.264
-247.005	-170.503	0.194	0.007
-245.990	149.543	0.154	0.206
-244.976	37.850	-0.049	-0.043
-243.961	-99.074	-0.156	0.039
-242.946	36.399	-0.168	0.146
-241.932	203.308	0.133	-0.202
-240.917	55.652	-0.223	0.213
-239.903	-200.000	0.033	0.238
-238.888	800.000	-0.043	0.123
-237.873	-117.655	0.170	0.030
-236.859	-139.329	0.396	-0.042
-235.844	234.844	0.084	-0.137
-234.830	-146.686	-0.078	0.007
-233.815	410.496	-0.019	0.039
-232.800	-62.648	-0.231	0.094
-231.786	-200.000	0.001	-0.254
-230.771	-18.157	0.117	0.072
-229.757	800.000	-0.050	0.196
-228.742	-200.000	-0.019	-0.379
-227.727	-200.000	0.056	-0.298
-226.713	-44.170	0.210	0.104
-225.698	-200.000	0.022	0.102
-224.684	-200.000	0.047	-0.208
-223.669	33.615	0.132	0.113
-222.655	-44.007	0.118	-0.059
-221.640	-200.000	0.101	0.436
-220.625	-64.282	0.352	0.141
-219.611	163.004	-0.055	-0.076
-218.596	-141.460	-0.098	-0.010
-217.582	-200.000	0.002	0.093
-216.567	800.000	-0.009	0.030
-215.552	537.534	-0.043	0.100
-214.538	75.317	-0.019	-0.020
-213.523	-12.759	0.174	-0.112
-212.509	-141.316	-0.114	0.011
-211.494	94.138	0.228	-0.254
-210.479	-200.000	0.006	0.031
-209.465	207.382	-0.150	-0.230
-208.450	-125.928	-0.191	0.028
-207.436	-119.824	0.395	0.067
-206.421	-30.851	0.272	-0.152
-205.406	-94.900	0.387	0.103
-204.392	-127.960	0.279	0.039
-203.377	137.496	0.195	-0.251
-202.363	-200.000	0.060	0.369
-201.348	3.536	-0.143	-0.102
-200.333	47.426	-0.236	0.217
-199.319	44.560	0.372	0.336
-198.304	800.000	-0.021	0.077
-197.290	144.809	0.107	-0.141
-196.275	383.076	0.039	0.078
-195.260	144.234	0.077	0.101
-194.246	-6.411	-0.037	0.025
-193.231	-112.815	-0.367	0.072
-192.217	-200.000	0.058	-0.276
-191.202	142.504	0.158	0.207
-190.187	-42.045	0.182	-0.091
-189.173	169.383	-0.079	-0.111
-188.158	-200.000	0.165	0.000
-187.144	-51.526	-0.057	-0.026
-186.129	-154.896	0.283	0.018
-185.114	125.237	0.108	-0.134
-184.100	331.694	-0.155	0.294
-183.085	150.836	0.065	-0.086
-182.071	-39.073	-0.281	-0.145
-181.056	-42.237	-0.070	0.035
-180.042	-37.913	-0.072	0.038
-179.027	-200.000	0.094	-0.438
-178.012	-149.589	-0.090	0.007
-176.998	-42.846	-0.272	-0.136
-175.983	271.533	-0.195	0.338
-174.969	800.000	-0.094	0.267
-173.954	73.363	0.204	-0.210
-172.939	-135.628	0.176	0.021
-171.925	-45.832	0.147	0.071
-170.910	-200.000	-0.019	0.134
-169.896	-19.519	-0.169	-0.103
-168.881	748.144	-0.073	-0.193
-167.866	-150.620	0.203	-0.015
-166.852	-21.486	-0.170	0.102
-165.837	-200.000	-0.020	-0.188
-164.823	-109.217	0.188	0.039
-163.808	-42.023	-0.316	-0.159
-162.793	800.000	-0.113	-0.461
-161.779	138.950	0.126	-0.163
-160.764	204.451	0.093	-0.142
-159.750	12.309	0.133	-0.101
-158.735	-23.894	-0.258	0.152
-157.720	-117.206	0.190	0.034
-156.706	34.759	0.234	0.201
-155.691	800.000	-0.044	-0.170
-154.677	-94.859	0.272	0.072
-153.662	-53.878	0.175	-0.078
-152.647	-5.946	0.157	-0.105
-151.633	-82.273	-0.110	0.035
-150.618	-30.185	0.212	0.119
-149.604	-200.000	-0.044	-0.277
-148.589	-49.402	0.297	0.139
-147.574	141.410	-0.154	-0.201
-146.560	-200.000	-0.061	-0.478
-145.545	-145.732	0.088	0.008
-144.531	196.539	-0.102	0.153
-143.516	-31.194	0.192	-0.106
-142.502	-146.956	0.047	0.004
-141.487	211.992	-0.131	-0.203
-140.472	-105.369	0.039	0.009
-139.458	-200.000	-0.022	-0.299
-138.443	-121.796	0.545	-0.088
-137.429	-159.919	0.204	0.011
-136.414	-1.828	0.202	-0.139
-135.399	740.321	0.138	-0.365
-134.385	-200.000	0.052	0.356
-133.370	-200.000	-0.030	-0.206
-132.356	126.820	-0.124	0.154
-131.341	34.384	0.046	-0.039
-130.326	427.830	0.057	-0.122
-129.312	-64.195	-0.216	-0.086
-128.297	57.257	-0.090	0.087
-127.283	90.997	0.143	0.158
-126.268	800.000	-0.162	-0.560
-125.253	405.464	0.018	-0.037
-124.239	-200.000	0.089	-0.456
-123.224	-200.000	0.039	-0.322
-122.210	22.572	-0.364	0.292
-121.195	-153.319	0.115	-0.008
-120.180	800.000	0.074	-0.215
-119.166	61.995	-0.082	0.080
-118.151	-200.000	-0.028	-0.197
-117.137	800.000	0.034	-0.130
-116.122	254.002	-0.081	-0.136
-115.107	8.753	-0.284	-0.210
-114.093	-200.000	0.029	-0.265
-113.078	-200.000	-0.036	0.192
-112.064	581.902	-0.048	-0.116
-111.049	34.041	-0.064	0.055
-110.034	117.751	-0.284	-0.343
-109.020	-165.474	-0.229	0.010
-108.005	-130.205	0.235	-0.031
-106.991	106.505	-0.084	-0.098
-105.976	-120.609	0.155	0.026
-104.962	539.232	0.076	-0.178
-103.947	-151.454	-0.330	-0.024
-102.932	-52.140	-0.231	-0.105
-101.918	-103.905	0.399	-0.091
-100.903	360.089	0.221	-0.435
-99.889	-200.000	-0.072	-0.342
-98.874	-87.902	-0.074	-0.022
-97.859	-55.617	0.018	-0.008
-96.845	213.694	-0.199	-0.309
-95.830	76.941	0.169	-0.176
-94.816	-53.256	0.122	0.055
-93.801	-200.000	0.004	0.092
-92.786	156.761	0.081	0.110
-91.772	34.223	0.113	-0.097
-90.757	-23.516	0.068	-0.040
-89.743	46.258	-0.122	-0.111
-88.728	-200.000	0.010	-0.101
-87.713	-12.075	-0.088	-0.057
-86.699	-58.414	0.140	-0.060
-85.684	56.652	-0.127	-0.121
-84.670	8.129	0.165	-0.121
-83.655	243.694	-0.130	0.213
-82.640	-64.258	-0.202	0.081
-81.626	467.646	-0.059	-0.129
-80.611	-61.319	0.245	0.101
-79.597	-129.462	0.224	-0.030
-78.582	800.000	-0.091	0.298
-77.567	-200.000	0.012	-0.207
-76.553	-58.280	-0.263	0.112
-75.538	-116.550	-0.155	0.028
-74.524	132.766	-0.132	-0.167
-73.509	38.469	-0.082	0.072
-72.494	-50.844	0.146	0.067
-71.480	-200.000	-0.018	-0.276
-70.465	104.676	-0.108	0.124
-69.451	311.990	0.250	0.459
-68.436	-82.766	-0.101	0.032
-67.422	30.207	-0.227	-0.190
-66.407	17.609	0.136	-0.106
-65.392	-105.842	0.326	-0.072
-64.378	-104.821	0.092	0.021
-63.363	800.000	0.059	-0.187
-62.349	800.000	-0.083	0.279
-61.334	68.553	-1.112	-1.117
-60.319	-33.341	0.656	0.356
-59.305	800.000	-0.323	-1.306
-58.290	254.049	0.711	1.190
-57.276	652.830	0.603	1.515
-56.261	-200.000	107.458	619.927
-55.246	516.246	1512.465	3461.540
-54.232	175.205	2709.844	3844.627
-53.217	104.130	2292.674	2640.485
-52.203	38.412	1898.579	1656.790
-51.188	32.502	1685.500	1426.188
-50.173	29.870	1642.478	1370.273
-49.159	48.572	1696.821	1556.921
-48.144	48.689	1711.757	1571.446
-47.130	32.053	1668.462	1408.177
-46.115	29.312	1654.730	1376.109
-45.100	29.169	1649.978	1371.039
-44.086	29.128	1647.237	1368.401
-43.071	29.191	1643.998	1366.127
-42.057	29.168	1641.627	1363.927
-41.042	29.179	1639.679	1362.334
-40.027	29.193	1637.966	1360.967
-39.013	29.099	1636.479	1358.981
-37.998	29.039	1634.921	1357.186
-36.984	29.150	1633.404	1356.691
-35.969	29.208	1631.956	1355.861
-34.954	29.336	1630.066	1355.181
-33.940	29.231	1628.378	1352.951
-32.925	29.263	1626.499	1351.571
-31.911	29.277	1624.730	1350.153
-30.896	29.201	1623.221	1348.291
-29.881	29.212	1622.068	1347.357
-28.867	29.228	1620.005	1345.707
-27.852	29.205	1618.722	1344.419
-26.838	29.193	1617.426	1343.205
-25.823	29.320	1615.371	1342.365
-24.809	29.246	1614.451	1341.015
-23.794	29.304	1612.901	1340.090
-22.779	29.318	1611.065	1338.616
-21.765	29.234	1609.544	1336.690
-20.750	29.224	1608.298	1335.528
-19.736	29.349	1606.497	1334.883
-18.721	29.128	1605.954	1332.779
-17.706	29.259	1604.095	1332.130
-16.692	29.231	1602.745	1330.758
-15.677	29.324	1601.181	1330.078
-14.663	29.383	1599.680	1329.199
-13.648	29.394	1597.962	1327.801
-12.633	29.321	1597.026	1326.446
-11.619	29.243	1595.130	1324.257
-10.604	29.276	1594.001	1323.503
-9.590	29.319	1592.191	1322.257
-8.575	29.327	1591.503	1321.688
-7.560	29.327	1590.040	1320.420
-6.546	29.249	1589.129	1319.058
-5.531	29.339	1587.887	1318.620
-4.517	29.234	1586.836	1316.940
-3.502	29.344	1585.380	1316.468
-2.487	29.448	1583.818	1315.856
-1.473	28.983	1572.474	1303.089
-0.458	26.255	1552.626	1267.478
0.556	20.595	1553.827	1237.374
1.571	18.340	1578.434	1240.546
2.586	18.125	1592.074	1249.579
3.600	16.527	1539.915	1197.234
4.615	8.705	1431.088	1060.874
5.629	1.227	1366.695	965.585
6.644	-0.260	1359.008	950.657
7.659	-0.392	1357.673	948.803
8.673	-0.332	1356.606	948.351
9.688	-0.316	1354.421	946.844
10.702	-0.538	1351.724	943.473
11.717	2.581	1357.645	967.233
12.731	11.633	1375.050	1037.218
13.746	19.215	1387.682	1095.030
14.761	20.983	1390.265	1108.223
15.775	21.285	1390.099	1109.908
16.790	21.307	1389.517	1109.488
17.804	21.477	1388.977	1110.039
18.819	21.680	1388.325	1110.703
19.834	21.657	1388.338	1110.473
20.848	21.670	1387.901	1110.104
21.863	21.747	1386.682	1109.523
22.877	21.786	1385.635	1108.831
23.892	21.687	1384.852	1107.480
24.907	21.694	1384.128	1106.847
25.921	21.572	1383.119	1105.175
26.936	21.705	1382.011	1105.028
27.950	21.732	1380.952	1104.251
28.965	21.731	1379.609	1103.073
29.980	21.769	1378.379	1102.231
30.994	21.719	1376.998	1100.719
32.009	21.723	1376.477	1100.231
33.023	21.740	1375.192	1099.213
34.038	21.729	1374.021	1098.108
35.053	21.784	1372.423	1097.080
36.067	21.675	1371.894	1095.876
37.082	21.779	1370.697	1095.471
38.096	21.757	1370.085	1094.750
39.111	21.783	1369.198	1094.110
40.126	21.686	1368.925	1093.189
41.140	21.793	1367.825	1092.880
42.155	21.606	1368.209	1091.920
43.169	21.654	1367.854	1091.844
44.184	21.733	1367.599	1092.036
45.199	21.751	1366.972	1091.548
46.213	21.760	1366.489	1091.123
47.228	21.812	1365.022	1090.178
48.242	21.790	1363.727	1088.911
49.257	21.710	1362.809	1087.587
50.271	21.642	1361.715	1086.196
51.286	21.740	1360.047	1085.371
52.301	21.803	1358.726	1084.616
53.315	21.769	1357.592	1083.402
54.330	21.730	1356.977	1082.574
55.344	21.674	1356.170	1081.490
56.359	21.663	1355.123	1080.489
57.374	21.788	1353.914	1080.204
58.388	21.745	1353.597	1079.588
59.403	21.782	1353.391	1079.556
60.417	21.742	1352.434	1078.454
61.432	21.781	1351.656	1077.975
62.447	21.677	1350.925	1076.659
63.461	21.688	1349.884	1075.797
64.476	21.759	1349.111	1075.522
65.490	21.759	1347.641	1074.258
66.505	21.752	1346.155	1072.939
67.520	21.768	1344.767	1071.833
68.534	21.828	1343.620	1071.189
69.549	21.791	1342.391	1069.888
70.563	21.720	1341.573	1068.710
71.578	21.816	1340.586	1068.417
72.593	21.864	1339.624	1067.844
73.607	21.836	1339.163	1067.213
74.622	21.799	1338.308	1066.209
75.636	21.818	1337.333	1065.457
76.651	21.759	1336.986	1064.724
77.666	21.766	1336.745	1064.484
78.680	21.826	1335.950	1064.118
79.695	21.732	1335.364	1062.991
80.709	21.808	1333.921	1062.208
81.724	21.772	1333.515	1061.570
82.739	21.705	1332.329	1060.127
83.753	21.723	1331.665	1059.614
84.768	21.674	1330.611	1058.388
85.782	21.770	1328.740	1057.385
86.797	21.750	1327.892	1056.492
87.812	21.814	1326.915	1056.009
88.826	21.760	1325.392	1054.381
89.841	21.865	1324.246	1054.002
90.855	21.811	1323.594	1053.071
91.870	21.877	1322.769	1052.713
92.884	21.813	1322.144	1051.738
93.899	21.808	1321.330	1050.972
94.914	21.841	1320.723	1050.595
95.928	21.855	1319.695	1049.765
96.943	21.777	1318.970	1048.626
97.957	21.814	1318.114	1048.075
98.972	21.863	1317.468	1047.765
99.987	21.785	1316.560	1046.486
101.001	21.794	1315.489	1045.590
102.016	21.872	1314.047	1044.817
103.030	21.707	1313.778	1043.531
104.045	21.824	1312.572	1043.175
105.060	21.866	1311.897	1042.794
106.074	21.919	1310.910	1042.233
107.089	21.885	1309.770	1041.033
108.103	21.963	1308.107	1040.080
109.118	21.919	1307.184	1038.996
110.133	21.980	1306.180	1038.465
111.147	21.951	1304.958	1037.231
112.162	21.934	1303.821	1036.135
113.176	21.772	1303.267	1034.648
114.191	21.910	1302.636	1034.869
115.206	21.828	1301.420	1033.327
116.220	21.840	1300.327	1032.442
117.235	21.946	1299.087	1031.990
118.249	21.897	1298.002	1030.747
119.264	21.931	1297.265	1030.271
120.279	22.027	1296.289	1029.968
121.293	21.968	1295.421	1028.843
122.308	21.957	1294.816	1028.205
123.322	21.913	1293.731	1026.992
124.337	21.995	1292.773	1026.619
125.352	22.015	1291.619	1025.732
126.366	21.965	1290.784	1024.686
127.381	22.007	1290.234	1024.406
128.395	21.996	1289.062	1023.318
129.410	21.998	1288.071	1022.456
130.424	22.002	1287.317	1021.788
131.439	21.925	1286.788	1020.829
132.454	21.959	1285.346	1019.792
133.468	21.889	1284.931	1018.964
134.483	21.881	1284.811	1018.735
135.497	21.823	1283.571	1017.327
136.512	21.905	1282.261	1016.670
137.527	21.953	1281.343	1016.133
138.541	21.898	1279.666	1014.396
139.556	21.893	1278.468	1013.324
140.570	21.922	1277.289	1012.467
141.585	21.930	1276.298	1011.640
142.600	21.903	1275.040	1010.399
143.614	21.890	1274.191	1009.559
144.629	21.921	1273.296	1008.938
145.643	21.847	1272.256	1007.600
146.658	21.769	1271.689	1006.615
147.673	21.880	1270.409	1006.150
148.687	21.865	1269.603	1005.336
149.702	21.847	1268.399	1004.190
150.716	21.968	1266.808	1003.536
151.731	21.907	1266.020	1002.474
152.746	21.955	1264.842	1001.726
153.760	22.004	1264.062	1001.301
154.775	22.003	1262.794	1000.203
155.789	22.030	1261.831	999.503
156.804	21.974	1260.790	998.271
157.819	21.816	1260.266	996.870
158.833	21.995	1259.370	997.088
159.848	21.991	1258.736	996.475
160.862	22.019	1257.641	995.681
161.877	22.017	1256.852	994.959
162.892	21.998	1256.138	994.195
163.906	21.995	1255.355	993.472
164.921	22.155	1254.165	993.346
165.935	22.096	1253.849	992.673
166.950	22.069	1253.310	992.007
167.964	22.114	1252.391	991.443
168.979	22.030	1251.786	990.405
169.994	22.042	1251.389	990.072
171.008	22.104	1250.867	989.922
172.023	22.124	1249.780	989.088
173.037	22.129	1249.128	988.509
174.052	22.142	1248.036	987.630
175.067	22.025	1247.800	986.699
176.081	22.017	1246.955	985.900
177.096	22.082	1246.036	985.449
178.110	22.197	1244.689	984.944
179.125	22.123	1244.026	983.915
180.140	22.210	1242.851	983.389
181.154	22.104	1241.934	981.983
182.169	22.142	1240.859	981.255
183.183	22.170	1239.832	980.514
184.198	22.190	1238.666	979.618
185.213	22.177	1237.621	978.633
186.227	22.217	1236.827	978.141
187.242	22.129	1236.291	977.138
188.256	22.194	1235.431	976.734
189.271	22.075	1235.184	975.794
190.286	22.168	1233.816	975.141
191.300	22.150	1233.295	974.542
192.315	22.109	1232.928	973.939
193.329	22.260	1232.299	974.192
194.344	22.209	1232.001	973.588
195.359	22.166	1231.607	972.955
196.373	22.140	1230.994	972.237
197.388	22.101	1230.433	971.494
198.402	22.159	1230.168	971.519
199.417	22.152	1229.574	970.927
200.432	22.167	1228.710	970.240
201.446	22.125	1228.483	969.743
202.461	22.139	1227.718	969.132
203.475	22.214	1226.645	968.610
204.490	22.169	1225.376	967.275
205.504	22.190	1224.586	966.684
206.519	22.268	1223.760	966.371
207.534	22.171	1222.958	965.123
208.548	22.196	1221.695	964.176
209.563	22.333	1220.774	964.116
210.577	22.225	1220.451	963.181
211.592	22.151	1219.424	961.880
212.607	22.295	1218.284	961.684
213.621	22.254	1217.812	961.001
214.636	22.188	1217.597	960.386
215.650	22.181	1216.804	959.642
216.665	22.134	1215.493	958.264
217.680	22.245	1214.834	958.266
218.694	22.305	1214.055	957.893
219.709	22.258	1213.313	956.968
220.723	22.270	1212.251	956.111
221.738	22.269	1211.703	955.587
222.753	22.287	1210.788	954.882
223.767	22.252	1210.622	954.474
224.782	22.399	1209.707	954.462
225.796	22.347	1209.569	953.992
226.811	22.380	1208.967	953.608
227.826	22.430	1207.932	952.979
228.840	22.370	1207.579	952.293
229.855	22.436	1206.583	951.780
230.869	22.303	1206.139	950.626
231.884	22.365	1205.564	950.425
232.899	22.333	1204.679	949.470
233.913	22.285	1204.043	948.622
234.928	22.325	1203.917	948.656
235.942	22.504	1202.676	948.561
236.957	22.426	1202.219	947.696
237.972	22.393	1201.662	946.994
238.986	22.364	1201.394	946.546
240.001	22.455	1200.476	946.227
241.015	22.501	1200.004	946.016
242.030	22.552	1198.512	945.031
243.045	22.549	1197.759	944.335
244.059	22.616	1197.210	944.182
245.074	22.538	1196.529	943.141
246.088	22.563	1195.862	942.665
247.103	22.569	1194.860	941.826
248.117	22.651	1193.796	941.340
249.132	22.565	1193.276	940.385
250.147	22.659	1192.479	940.176
251.161	22.639	1191.909	939.541
252.176	22.635	1191.322	938.970
253.190	22.648	1190.531	938.336
254.205	22.525	1190.466	937.543
255.220	22.493	1189.759	936.735
256.234	22.670	1188.473	936.582
257.249	22.690	1188.013	936.242
258.263	22.751	1187.518	936.092
259.278	22.650	1187.187	935.211
260.293	22.665	1186.494	934.665
261.307	22.607	1186.476	934.257
262.322	22.674	1185.668	933.895
263.336	22.712	1184.849	933.365
264.351	22.584	1184.388	932.246
265.366	22.700	1183.600	932.155
266.380	22.683	1182.871	931.408
267.395	22.647	1181.951	930.413
268.409	22.706	1181.426	930.227
269.424	22.683	1180.935	929.639
270.439	22.667	1180.444	929.087
271.453	22.720	1180.113	929.021
272.468	22.689	1179.061	927.946
273.482	22.637	1178.461	927.122
274.497	22.748	1177.899	927.178
275.512	22.810	1177.180	926.857
276.526	22.831	1176.437	926.299
277.541	22.782	1175.875	925.517
278.555	22.774	1175.039	924.738
279.570	22.876	1174.147	924.489
280.585	22.763	1173.845	923.575
281.599	22.814	1172.914	923.028
282.614	22.790	1172.198	922.255
283.628	22.784	1171.463	921.566
284.643	22.750	1170.795	920.784
285.657	22.863	1169.541	920.304
286.672	22.821	1168.867	919.475
287.687	22.936	1167.871	919.206
288.701	22.882	1167.405	918.478
289.716	22.926	1166.409	917.842
290.730	22.881	1165.880	917.112
291.745	22.876	1165.279	916.531
292.760	22.972	1164.188	916.089
293.774	22.995	1164.017	915.990
294.789	22.955	1163.621	915.390
295.803	23.047	1162.819	915.155
296.818	22.971	1162.088	914.109
297.833	23.096	1161.624	914.307
298.847	23.095	1160.720	913.508
299.862	22.934	1160.215	912.200
300.876	22.886	1159.601	911.388
301.891	23.051	1159.369	911.978
302.906	23.131	1158.505	911.631
303.920	23.009	1157.819	910.380
304.935	23.163	1156.916	910.383
305.949	23.152	1156.545	909.955
306.964	23.143	1155.310	908.856
307.979	23.086	1154.789	908.072
308.993	23.051	1154.921	907.917
310.008	23.071	1153.780	907.040
311.022	23.108	1153.046	906.574
312.037	23.136	1152.064	905.862
313.052	23.208	1151.310	905.559
314.066	23.158	1150.740	904.777
315.081	23.080	1149.977	903.699
316.095	23.131	1149.553	903.545
317.110	23.243	1148.637	903.315
318.125	23.125	1148.169	902.264
319.139	23.209	1147.022	901.711
320.154	23.192	1146.993	901.523
321.168	23.184	1146.219	900.794
322.183	23.246	1145.398	900.386
323.197	23.120	1145.014	899.361
324.212	23.253	1144.117	899.253
325.227	23.269	1143.775	898.987
326.241	23.214	1143.501	898.412
327.256	23.369	1142.419	898.268
328.270	23.313	1141.870	897.473
329.285	23.291	1141.005	896.603
330.300	23.352	1140.052	896.084
331.314	23.223	1139.619	895.012
332.329	23.362	1138.411	894.685
333.343	23.360	1137.790	894.106
334.358	23.368	1136.851	893.334
335.373	23.359	1136.270	892.751
336.387	23.349	1135.845	892.291
337.402	23.500	1134.488	891.903
338.416	23.450	1134.585	891.649
339.431	23.312	1134.111	890.503
340.446	23.425	1133.157	890.244
341.460	23.504	1132.682	890.188
342.475	23.409	1132.035	889.123
343.489	23.429	1130.583	888.007
344.504	23.430	1130.151	887.592
345.519	23.484	1128.974	886.861
346.533	23.450	1128.249	886.044
347.548	23.705	1127.253	886.456
348.562	23.501	1126.868	885.053
349.577	23.506	1126.963	885.078
350.592	23.428	1125.733	883.645
351.606	23.463	1124.885	883.076
352.621	23.480	1124.466	882.749
353.635	23.633	1123.725	882.853
354.650	23.501	1123.168	881.678
355.665	23.639	1122.377	881.665
356.679	23.590	1121.782	880.876
357.694	23.658	1121.273	880.740
358.708	23.542	1120.615	879.567
359.723	23.537	1120.098	879.062
360.738	23.571	1119.406	878.609
361.752	23.609	1118.813	878.250
362.767	23.764	1118.059	878.350
363.781	23.678	1117.705	877.567
364.796	23.757	1117.040	877.359
365.810	23.787	1116.099	876.688
366.825	23.720	1115.675	875.947
367.840	23.608	1115.952	875.534
368.854	23.874	1115.107	876.104
369.869	23.744	1114.229	874.701
370.883	23.653	1113.059	873.257
371.898	23.874	1112.608	873.913
372.913	23.772	1112.351	873.132
373.927	23.858	1111.640	872.918
374.942	23.971	1110.955	872.856
375.956	23.839	1110.311	871.625
376.971	23.823	1110.046	871.263
377.986	23.861	1109.376	870.845
379.000	24.036	1108.576	870.996
380.015	23.930	1108.547	870.377
381.029	23.943	1107.709	869.707
382.044	23.853	1106.901	868.557
383.059	23.956	1106.163	868.405
384.073	24.066	1105.441	868.296
385.088	24.028	1104.404	867.220
386.102	24.022	1104.082	866.859
387.117	23.898	1103.196	865.486
388.132	23.970	1102.105	864.903
389.146	24.075	1101.342	864.735
390.161	23.960	1100.903	863.758
391.175	23.924	1100.644	863.304
392.190	23.977	1100.277	863.196
393.205	23.939	1099.321	862.187
394.219	23.970	1098.227	861.399
395.234	23.993	1097.746	861.057
396.248	24.048	1096.614	860.363
397.263	24.044	1096.013	859.793
398.278	24.086	1095.399	859.437
399.292	24.059	1094.856	858.808
400.307	24.223	1094.146	858.966
401.321	24.120	1093.692	858.037
402.336	24.085	1092.989	857.242
403.350	24.152	1092.168	856.843
404.365	24.218	1091.192	856.319
405.380	24.195	1090.955	855.946
406.394	24.226	1090.028	855.292
407.409	24.270	1089.200	854.779
408.423	24.222	1088.452	853.885
409.438	24.286	1087.971	853.737
410.453	24.232	1087.222	852.818
411.467	24.230	1086.247	851.966
412.482	24.208	1085.628	851.301
413.496	24.204	1085.333	850.973
414.511	24.095	1084.710	849.891
415.526	24.167	1084.639	850.105
416.540	24.331	1083.519	849.931
417.555	24.333	1082.949	849.422
418.569	24.181	1082.940	848.611
419.584	24.297	1082.572	848.802
420.599	24.358	1081.718	848.346
421.613	148.960	1401.568	1798.294
422.628	137.588	1448.146	1798.392
