DTS Sentinel unit serial number:	SN413079Multiplexer serial number:	ORYXHardware model number:	OX4-SRSoftware version number:	ORYX F/W v4.00 Oryx Data Collector v3.7.2.0data status	okinstallation	princeton_trtdifferential loss correction	single-endedforward channel	channel 2reverse channel	N/Adate	2019/09/11time	13:25:11forward acquisition time	60.00reverse acquisition time	0.00gamma	496.2192k internal	0.2293k external	0.2293temperature offset calibration	1.0007default loss term (dB/km)	0.3790temperature slope calibration	1.0000multiplexer offset coefficient	1.0000multiplexer slope coefficient	1.0000fibre end	0.00T internal ref (°C)	41.94T ext. ref 1 (°C)	0.81T ext. ref 2 (°C)	36.71length (m)	temperature (°C)	Stokes	anti-Stokes-747.200	559.646	-0.083	0.204
-746.185	-14.301	-0.111	0.073
-745.171	58.749	0.147	0.148
-744.156	45.317	-0.248	0.234
-743.142	188.152	0.118	-0.180
-742.127	121.551	0.281	0.358
-741.112	317.136	0.138	0.268
-740.098	-22.008	-0.041	-0.025
-739.083	-12.029	0.082	0.055
-738.069	29.840	0.124	0.108
-737.054	-130.719	-0.141	-0.019
-736.039	800.000	-0.082	-0.238
-735.025	-112.577	0.466	0.095
-734.010	800.000	0.042	0.158
-732.996	19.396	-0.059	-0.048
-731.981	134.550	-0.234	-0.311
-730.966	52.812	0.046	-0.045
-729.952	800.000	-0.013	-0.038
-728.937	-140.533	-0.285	0.030
-727.923	-43.649	0.041	-0.021
-726.908	683.160	-0.114	-0.304
-725.894	800.000	0.027	0.119
-724.879	90.224	-0.062	0.071
-723.864	213.710	-0.040	-0.064
-722.850	-95.063	-0.305	0.084
-721.835	-110.662	-0.319	0.067
-720.821	-67.547	-0.241	-0.097
-719.806	-200.000	-0.066	-0.414
-718.791	-200.000	-0.014	0.133
-717.777	12.927	0.159	-0.126
-716.762	2.280	-0.279	-0.206
-715.748	671.449	-0.096	0.255
-714.733	113.107	-0.072	0.090
-713.718	514.317	-0.039	-0.094
-712.704	541.600	0.091	0.223
-711.689	14.870	0.230	-0.184
-710.675	-200.000	0.013	0.172
-709.660	-200.000	0.001	0.063
-708.645	800.000	-0.014	-0.052
-707.631	178.875	0.074	0.111
-706.616	-200.000	-0.008	0.131
-705.602	-62.090	-0.354	-0.151
-704.587	127.125	0.077	-0.100
-703.572	-92.377	-0.070	0.020
-702.558	800.000	0.085	0.251
-701.543	-105.799	0.069	0.016
-700.529	61.765	0.046	0.047
-699.514	407.199	-0.040	0.086
-698.499	-91.384	0.313	0.091
-697.485	-32.163	-0.263	-0.150
-696.470	-200.000	0.025	-0.172
-695.456	-96.575	0.082	-0.022
-694.441	-200.000	-0.010	-0.228
-693.426	42.344	0.102	-0.095
-692.412	-118.868	-0.263	-0.047
-691.397	279.820	0.071	0.129
-690.383	56.039	-0.073	-0.072
-689.368	507.328	0.050	-0.119
-688.354	-35.335	0.201	0.111
-687.339	800.000	0.050	0.183
-686.324	-102.699	0.328	-0.080
-685.310	734.196	-0.063	0.172
-684.295	320.750	-0.136	0.265
-683.281	140.327	-0.257	-0.346
-682.266	2.772	0.234	0.173
-681.251	-76.521	0.275	0.099
-680.237	-184.074	0.260	-0.004
-679.222	647.909	-0.116	-0.302
-678.208	54.158	0.137	0.134
-677.193	50.055	0.204	0.196
-676.178	26.884	0.097	-0.083
-675.164	-56.154	-0.099	0.045
-674.149	-141.006	0.381	-0.040
-673.135	54.577	-0.079	0.078
-672.120	-200.000	0.010	-0.326
-671.105	352.133	0.171	-0.347
-670.091	59.666	-0.148	-0.149
-669.076	-75.156	0.086	0.031
-668.062	13.514	0.337	-0.267
-667.047	-113.560	0.065	-0.013
-666.032	21.544	0.172	0.143
-665.018	-200.000	0.011	0.153
-664.003	229.660	0.091	-0.152
-662.989	-64.467	0.170	-0.071
-661.974	-200.000	-0.030	0.264
-660.959	800.000	-0.044	0.187
-659.945	-2.268	-0.127	-0.091
-658.930	-12.957	0.263	0.175
-657.916	742.576	-0.192	0.527
-656.901	46.844	-0.104	-0.098
-655.886	800.000	0.127	-0.418
-654.872	1.077	0.244	0.179
-653.857	-83.097	-0.124	0.041
-652.843	32.909	0.203	-0.179
-651.828	269.556	0.063	0.112
-650.814	800.000	0.052	-0.209
-649.799	-93.592	-0.109	0.031
-648.784	-200.000	-0.039	-0.254
-647.770	-200.000	-0.119	0.000
-646.755	-34.640	-0.167	0.093
-645.741	-59.760	-0.205	0.089
-644.726	61.963	0.061	0.062
-643.711	692.050	-0.064	-0.170
-642.697	-50.521	0.213	-0.102
-641.682	-94.369	0.284	-0.079
-640.668	-200.000	0.029	-0.145
-639.653	91.122	0.179	0.205
-638.638	-127.435	-0.221	0.033
-637.624	-200.000	0.156	0.000
-636.609	-45.205	0.194	0.098
-635.595	71.457	0.119	0.126
-634.580	92.585	0.152	0.175
-633.565	-200.000	0.019	-0.206
-632.551	99.701	0.302	-0.356
-631.536	-63.145	0.062	0.026
-630.522	35.949	0.124	-0.111
-629.507	-200.000	0.063	-0.295
-628.492	-200.000	0.027	-0.128
-627.478	-57.886	-0.036	-0.016
-626.463	800.000	0.049	-0.140
-625.449	194.235	0.135	-0.208
-624.434	-76.730	0.099	-0.035
-623.419	21.720	-0.239	0.198
-622.405	800.000	-0.057	-0.219
-621.390	-16.479	-0.155	-0.100
-620.376	-200.000	-0.021	0.408
-619.361	-200.000	0.042	0.191
-618.346	201.157	0.086	0.134
-617.332	-96.489	-0.142	0.038
-616.317	-91.824	-0.161	0.046
-615.303	723.658	-0.060	-0.162
-614.288	-87.813	0.175	-0.054
-613.273	-53.669	0.307	0.143
-612.259	-200.000	-0.031	-0.261
-611.244	-4.768	0.128	0.090
-610.230	-147.003	0.165	0.014
-609.215	-200.000	-0.037	-0.205
-608.201	-200.000	0.009	-0.219
-607.186	-200.000	-0.021	-0.234
-606.171	-30.785	-0.294	0.170
-605.157	32.931	-0.081	0.072
-604.142	207.459	-0.135	0.214
-603.128	-87.375	0.058	0.018
-602.113	92.234	-0.222	0.254
-601.098	-163.440	0.189	-0.009
-600.084	-35.434	-0.134	0.074
-599.069	101.203	-0.212	-0.251
-598.055	121.587	0.260	-0.330
-597.040	104.741	0.125	0.150
-596.025	-91.875	-0.149	0.043
-595.011	95.722	0.068	0.080
-593.996	109.062	-0.184	-0.223
-592.982	705.086	0.036	0.096
-591.967	-200.000	-0.049	0.363
-590.952	-70.517	0.191	-0.074
-589.938	394.650	0.055	-0.116
-588.923	-200.000	-0.429	-0.001
-587.909	238.882	0.021	-0.035
-586.894	6.909	0.180	-0.136
-585.879	800.000	0.056	-0.194
-584.865	41.508	-0.209	0.193
-583.850	407.812	0.011	0.024
-582.836	70.518	0.245	-0.257
-581.821	230.834	-0.203	-0.338
-580.806	-200.000	0.001	-0.196
-579.792	-200.000	0.034	-0.224
-578.777	-200.000	-0.015	0.095
-577.763	800.000	0.041	0.121
-576.748	40.956	0.164	-0.150
-575.733	349.209	-0.059	0.118
-574.719	-95.169	-0.209	-0.057
-573.704	616.592	-0.008	-0.019
-572.690	193.397	0.095	0.146
-571.675	-141.244	-0.310	-0.032
-570.661	137.346	0.204	0.271
-569.646	-70.753	-0.231	0.089
-568.631	131.709	-0.231	0.302
-567.617	-34.620	-0.212	0.118
-566.602	679.814	0.103	0.273
-565.588	-130.064	0.299	0.042
-564.573	800.000	0.087	-0.260
-563.558	800.000	-0.081	-0.275
-562.544	-96.427	0.211	0.057
-561.529	-12.182	-0.095	0.063
-560.515	433.948	-0.125	-0.276
-559.500	382.174	0.075	-0.156
-558.485	202.735	-0.026	-0.040
-557.471	6.996	-0.244	-0.185
-556.456	350.058	0.191	0.383
-555.442	-120.417	0.208	0.036
-554.427	-157.589	0.420	-0.025
-553.412	-14.707	0.229	0.150
-552.398	-200.000	0.016	0.126
-551.383	-142.305	-0.194	-0.019
-550.369	421.207	0.066	-0.144
-549.354	-55.234	0.246	-0.112
-548.339	-88.995	-0.261	-0.079
-547.325	-200.000	-0.031	0.197
-546.310	-114.758	-0.155	0.030
-545.296	-62.377	0.218	-0.092
-544.281	82.350	-0.167	-0.184
-543.266	42.964	-0.139	0.129
-542.252	19.985	0.147	0.120
-541.237	-1.805	0.059	-0.042
-540.223	-10.063	-0.181	-0.122
-539.208	431.147	-0.082	-0.180
-538.193	-31.924	-0.110	0.063
-537.179	125.260	0.078	-0.100
-536.164	-26.749	0.162	-0.096
-535.150	-16.782	0.050	0.032
-534.135	800.000	0.103	0.416
-533.121	72.793	0.213	-0.226
-532.106	139.166	0.169	-0.226
-531.091	272.438	-0.223	0.400
-530.077	800.000	0.037	-0.107
-529.062	123.242	0.113	0.144
-528.048	-73.622	0.100	-0.037
-527.033	-95.014	-0.051	-0.014
-526.018	-50.028	-0.190	0.092
-525.004	-157.703	0.390	-0.024
-523.989	-200.000	0.004	0.064
-522.975	-57.819	0.134	0.059
-521.960	540.438	0.091	-0.220
-520.945	-200.000	-0.003	-0.115
-519.931	-58.171	0.277	0.122
-518.916	155.727	0.097	-0.135
-517.902	42.382	0.326	-0.300
-516.887	-125.600	0.248	-0.038
-515.872	-67.294	0.227	-0.091
-514.858	-125.762	0.035	0.005
-513.843	0.434	-0.143	-0.103
-512.829	-25.306	0.082	-0.049
-511.814	-200.000	0.001	-0.300
-510.799	800.000	-0.096	0.316
-509.785	3.917	0.086	-0.064
-508.770	403.622	-0.210	-0.448
-507.756	709.254	-0.012	0.032
-506.741	-164.676	-0.210	0.010
-505.726	108.034	-0.186	0.225
-504.712	-99.157	-0.044	-0.011
-503.697	199.314	-0.070	-0.109
-502.683	37.873	0.178	-0.161
-501.668	-200.000	0.023	-0.229
-500.653	-122.105	-0.059	0.010
-499.639	164.513	0.157	0.224
-498.624	386.100	0.044	-0.092
-497.610	800.000	0.095	0.351
-496.595	-78.171	-0.187	0.065
-495.581	11.362	-0.119	0.092
-494.566	27.690	-0.163	-0.139
-493.551	376.252	-0.049	0.102
-492.537	-45.776	-0.243	0.121
-491.522	6.453	-0.106	-0.080
-490.508	211.724	0.122	-0.195
-489.493	-123.194	0.043	-0.007
-488.478	37.109	-0.196	0.176
-487.464	-131.550	-0.095	-0.013
-486.449	-70.788	0.109	0.042
-485.435	331.154	-0.077	-0.151
-484.420	-200.000	-0.127	0.000
-483.405	-17.298	-0.144	0.092
-482.391	-143.690	0.202	-0.019
-481.376	-107.079	-0.057	0.013
-480.362	-12.310	-0.444	0.294
-479.347	79.537	-0.171	0.186
-478.332	305.029	0.149	0.281
-477.318	800.000	0.053	-0.166
-476.303	-176.705	-0.121	-0.003
-475.289	322.555	-0.062	-0.119
-474.274	172.920	0.020	0.030
-473.259	800.000	-0.115	-0.378
-472.245	-7.555	-0.205	0.140
-471.230	800.000	-0.045	0.196
-470.216	15.383	-0.157	-0.125
-469.201	-194.880	-0.154	0.001
-468.186	76.929	-0.070	0.075
-467.172	79.411	-0.252	-0.274
-466.157	-128.659	-0.101	-0.014
-465.143	-161.711	0.482	-0.025
-464.128	800.000	-0.031	-0.089
-463.113	-122.330	0.061	-0.010
-462.099	-200.000	-0.035	-0.266
-461.084	60.580	0.184	-0.184
-460.070	-11.461	-0.214	-0.142
-459.055	-188.386	0.258	0.003
-458.040	794.700	-0.148	0.411
-457.026	-161.516	0.143	0.007
-456.011	-200.000	-0.017	-0.098
-454.997	106.755	-0.267	0.320
-453.982	-63.513	0.021	0.009
-452.968	62.486	-0.054	0.055
-451.953	49.798	-0.133	0.127
-450.938	-200.000	0.022	0.202
-449.924	-125.447	0.192	-0.030
-448.909	-74.297	0.308	0.113
-447.895	245.927	0.102	0.174
-446.880	375.926	0.041	0.085
-445.865	-200.000	-0.015	-0.122
-444.851	-112.244	-0.376	0.076
-443.836	-200.000	0.054	-0.275
-442.822	-37.500	0.234	-0.126
-441.807	-89.309	0.278	0.083
-440.792	-89.719	-0.182	-0.054
-439.778	-7.588	-0.397	-0.271
-438.763	124.655	-0.301	0.383
-437.749	-94.040	0.078	-0.022
-436.734	1.168	0.085	0.062
-435.719	352.598	0.174	-0.349
-434.705	793.974	-0.066	0.183
-433.690	561.223	0.065	0.159
-432.676	800.000	-0.013	0.044
-431.661	-108.782	0.278	0.060
-430.646	-105.552	-0.054	-0.012
-429.632	-200.000	0.005	-0.167
-428.617	800.000	0.025	0.074
-427.603	99.880	-0.156	0.183
-426.588	609.178	-0.123	0.311
-425.573	-200.000	-0.036	-0.259
-424.559	203.719	0.144	0.226
-423.544	-132.103	0.400	0.052
-422.530	-200.000	0.048	0.290
-421.515	43.532	-0.294	0.272
-420.500	-110.600	-0.049	-0.010
-419.486	-97.942	-0.262	-0.068
-418.471	131.012	0.067	0.087
-417.457	4.557	0.164	-0.122
-416.442	800.000	0.034	0.145
-415.428	800.000	-0.036	0.140
-414.413	-42.540	-0.214	-0.110
-413.398	279.068	0.055	-0.100
-412.384	-200.000	-0.003	-0.282
-411.369	565.146	-0.091	0.223
-410.355	-109.724	0.176	0.037
-409.340	-7.601	0.167	0.114
-408.325	60.320	0.184	-0.184
-407.311	-93.195	-0.046	0.013
-406.296	345.102	0.064	0.127
-405.282	-200.000	0.007	-0.129
-404.267	303.509	-0.059	0.111
-403.252	-79.003	0.337	-0.116
-402.238	-200.000	-0.052	0.263
-401.223	47.819	-0.183	0.173
-400.209	45.879	-0.153	0.143
-399.194	287.133	-0.087	0.159
-398.179	25.682	0.174	-0.146
-397.165	-46.055	-0.073	-0.036
-396.150	72.178	0.021	0.023
-395.136	316.880	-0.053	-0.101
-394.121	104.191	0.114	0.136
-393.106	19.936	0.097	0.079
-392.092	800.000	-0.017	0.065
-391.077	-45.629	0.441	0.220
-390.063	296.964	-0.086	0.160
-389.048	-15.857	0.192	0.123
-388.033	-200.000	0.021	0.236
-387.019	233.845	-0.118	0.197
-386.004	516.416	-0.096	-0.227
-384.990	366.078	-0.098	0.200
-383.975	142.666	-0.176	0.236
-382.960	20.560	-0.048	0.039
-381.946	660.646	0.073	0.189
-380.931	-200.000	0.018	0.302
-379.917	242.110	-0.036	0.061
-378.902	17.720	0.257	0.206
-377.888	-89.210	0.331	-0.098
-376.873	266.042	-0.130	-0.228
-375.858	-130.742	-0.166	-0.023
-374.844	317.455	0.012	-0.024
-373.829	-53.185	-0.388	-0.180
-372.815	-160.715	-0.153	-0.008
-371.800	800.000	0.041	-0.175
-370.785	380.192	0.058	-0.119
-369.771	-126.591	-0.170	0.025
-368.756	-83.622	0.145	0.047
-367.742	-19.722	-0.383	-0.239
-366.727	108.786	0.139	0.167
-365.712	238.779	-0.103	0.172
-364.698	51.748	-0.144	-0.138
-363.683	200.434	0.052	-0.080
-362.669	-142.802	0.181	-0.018
-361.654	467.174	-0.081	0.184
-360.639	-54.102	-0.273	0.125
-359.625	-120.457	0.166	0.028
-358.610	800.000	0.034	0.129
-357.596	88.080	0.044	0.050
-356.581	470.399	0.096	-0.217
-355.566	-200.000	0.013	0.197
-354.552	-15.896	-0.220	-0.141
-353.537	294.725	0.103	-0.189
-352.523	195.681	-0.127	-0.195
-351.508	-200.000	-0.009	0.236
-350.493	273.724	0.069	0.122
-349.479	-52.526	-0.075	-0.035
-348.464	110.364	0.099	0.120
-347.450	-200.000	0.011	-0.325
-346.435	-52.509	-0.179	-0.083
-345.420	93.240	-0.154	0.176
-344.406	800.000	-0.158	0.459
-343.391	396.315	-0.078	0.165
-342.377	195.359	-0.221	0.339
-341.362	213.272	0.156	-0.249
-340.348	5.691	-0.179	0.133
-339.333	-21.497	0.142	0.087
-338.318	570.556	0.074	0.182
-337.304	532.553	0.116	-0.277
-336.289	524.232	0.083	0.198
-335.275	800.000	0.037	-0.138
-334.260	-65.844	-0.168	-0.068
-333.245	108.253	-0.053	0.064
-332.231	-21.559	-0.344	0.211
-331.216	-95.616	-0.373	0.101
-330.202	-86.106	-0.114	0.035
-329.187	8.223	0.148	-0.112
-328.172	-22.799	-0.123	-0.075
-327.158	-87.588	-0.224	0.068
-326.143	800.000	0.017	0.068
-325.129	-10.814	-0.336	0.223
-324.114	-4.609	-0.232	-0.161
-323.099	-162.775	-0.142	0.007
-322.085	-200.000	-0.070	-0.337
-321.070	-88.542	-0.169	-0.051
-320.056	97.111	-0.163	-0.188
-319.041	800.000	-0.088	0.269
-318.026	-140.711	0.172	0.018
-317.012	12.897	-0.186	-0.145
-315.997	-181.094	0.414	-0.008
-314.983	13.045	0.101	-0.079
-313.968	-200.000	0.060	-0.532
-312.953	246.524	-0.170	-0.288
-311.939	-59.047	0.202	0.088
-310.924	487.562	0.082	0.188
-309.910	-200.000	-0.004	-0.092
-308.895	-164.553	-0.272	-0.012
-307.880	800.000	0.134	-0.374
-306.866	525.169	0.054	-0.128
-305.851	-200.000	-0.044	0.350
-304.837	91.187	0.258	-0.291
-303.822	50.638	0.233	0.221
-302.807	-150.221	0.105	0.008
-301.793	-200.000	-0.004	0.079
-300.778	324.535	0.078	0.149
-299.764	32.252	-0.332	0.288
-298.749	-0.407	-0.157	0.112
-297.735	194.253	-0.034	0.052
-296.720	246.503	-0.146	-0.247
-295.705	-98.262	0.332	0.086
-294.691	-127.601	-0.217	0.032
-293.676	-200.000	-0.045	0.225
-292.662	-200.000	-0.000	-0.079
-291.647	246.961	0.190	-0.322
-290.632	-5.272	0.157	-0.108
-289.618	-200.000	-0.040	-0.255
-288.603	800.000	0.092	-0.329
-287.589	800.000	0.135	0.400
-286.574	-42.701	0.268	-0.137
-285.559	-72.370	0.157	-0.058
-284.545	73.062	-0.097	0.102
-283.530	-200.000	0.001	0.047
-282.516	157.825	-0.210	0.293
-281.501	800.000	0.112	-0.315
-280.486	-200.000	-0.005	-0.128
-279.472	2.216	0.140	0.102
-278.457	-113.010	-0.075	0.015
-277.443	-170.060	0.067	-0.002
-276.428	-200.000	-0.011	0.602
-275.413	-68.991	0.176	0.068
-274.399	-200.000	-0.034	-0.364
-273.384	-62.017	-0.154	-0.065
-272.370	17.070	0.277	-0.221
-271.355	-200.000	0.047	0.277
-270.340	104.897	-0.194	-0.230
-269.326	-200.000	-0.026	0.153
-268.311	117.781	0.133	-0.164
-267.297	102.678	-0.131	0.153
-266.282	83.230	0.259	0.283
-265.267	80.030	-0.138	-0.150
-264.253	101.929	0.049	0.058
-263.238	42.365	0.307	-0.280
-262.224	-134.443	0.105	0.013
-261.209	-200.000	0.017	-0.405
-260.195	135.977	-0.148	-0.194
-259.180	-200.000	-0.020	-0.332
-258.165	-145.105	-0.200	0.018
-257.151	-154.112	-0.031	-0.002
-256.136	-103.854	-0.434	-0.102
-255.122	-200.000	-0.026	0.221
-254.107	174.868	0.118	-0.171
-253.092	30.177	0.184	-0.157
-252.078	23.114	-0.186	-0.154
-251.063	10.771	-0.189	-0.144
-250.049	-200.000	0.008	0.166
-249.034	-177.172	-0.201	0.005
-248.019	-58.697	0.213	-0.093
-247.005	-118.454	0.384	0.068
-245.990	-200.000	-0.020	0.284
-244.976	-180.409	-0.220	0.005
-243.961	-200.000	-0.037	-0.278
-242.946	-130.141	-0.282	-0.039
-241.932	-200.000	0.004	-0.040
-240.917	-200.000	0.069	-0.397
-239.903	-161.113	0.138	-0.007
-238.888	-87.231	0.030	-0.009
-237.873	83.996	-0.134	-0.147
-236.859	6.456	-0.291	-0.217
-235.844	-25.283	0.323	0.191
-234.830	-9.789	0.366	0.245
-233.815	-116.949	-0.103	-0.019
-232.800	-200.000	-0.001	-0.145
-231.786	12.374	-0.214	0.166
-230.771	18.783	-0.117	-0.094
-229.757	-19.636	-0.239	-0.149
-228.742	273.133	-0.055	0.098
-227.727	-108.450	0.169	0.037
-226.713	-57.846	0.110	0.048
-225.698	800.000	-0.124	-0.345
-224.684	-15.555	-0.104	-0.067
-223.669	-123.708	0.171	-0.027
-222.655	-200.000	0.060	0.532
-221.640	-3.419	0.275	-0.192
-220.625	-123.293	-0.142	0.023
-219.611	-20.079	-0.019	0.012
-218.596	73.001	-0.220	0.230
-217.582	-83.208	0.493	-0.159
-216.567	684.110	0.118	0.309
-215.552	-42.022	0.214	-0.110
-214.538	21.853	0.101	0.082
-213.523	51.967	-0.271	0.259
-212.509	-200.000	-0.006	0.240
-211.494	18.223	0.240	-0.192
-210.479	-129.549	0.290	0.040
-209.465	-139.347	0.324	0.035
-208.450	140.931	0.082	-0.108
-207.436	-200.000	-0.005	-0.230
-206.421	248.739	0.066	0.112
-205.406	322.927	-0.032	0.061
-204.392	-200.000	0.033	-0.183
-203.377	510.499	0.136	0.318
-202.363	-200.000	-0.014	0.289
-201.348	800.000	0.028	0.095
-200.333	-151.391	-0.320	0.024
-199.319	800.000	0.066	-0.247
-198.304	-3.981	0.287	0.199
-197.290	-200.000	0.061	0.383
-196.275	-200.000	0.009	-0.155
-195.260	-126.729	-0.243	0.036
-194.246	15.184	-0.198	-0.156
-193.231	10.837	0.225	0.172
-192.217	-53.887	0.111	-0.051
-191.202	633.367	0.023	0.057
-190.187	800.000	-0.054	0.207
-189.173	-53.116	0.186	-0.085
-188.158	468.760	-0.129	-0.289
-187.144	132.124	-0.015	0.020
-186.129	57.473	-0.179	-0.175
-185.114	-7.015	-0.233	0.158
-184.100	-108.370	0.278	-0.060
-183.085	-200.000	0.015	-0.461
-182.071	-51.647	0.075	0.035
-181.056	227.766	-0.101	-0.165
-180.042	-159.084	-0.100	-0.006
-179.027	-17.515	-0.253	0.159
-178.012	-200.000	0.012	-0.207
-176.998	34.257	-0.252	0.220
-175.983	252.061	0.056	-0.096
-174.969	-124.135	-0.296	-0.046
-173.954	-200.000	0.014	0.109
-172.939	423.027	-0.053	0.114
-171.925	-126.609	0.216	-0.032
-170.910	-200.000	-0.065	0.332
-169.896	72.638	0.222	-0.232
-168.881	250.946	0.065	-0.110
-167.866	-59.857	-0.131	0.056
-166.852	-200.000	-0.005	0.137
-165.837	-135.101	0.336	-0.040
-164.823	26.755	0.226	0.189
-163.808	11.594	0.191	-0.147
-162.793	85.317	-0.089	-0.097
-161.779	299.476	-0.132	0.243
-160.764	-49.282	0.229	-0.109
-159.750	0.041	0.211	0.150
-158.735	-130.503	0.284	-0.038
-157.720	-200.000	-0.029	0.151
-156.706	-117.066	-0.239	-0.044
-155.691	176.477	-0.128	-0.186
-154.677	800.000	-0.050	-0.206
-153.662	7.226	-0.130	-0.097
-152.647	729.409	0.031	-0.083
-151.633	-84.563	-0.324	0.102
-150.618	-117.277	0.190	0.034
-149.604	123.566	0.062	0.078
-148.589	234.046	0.093	0.152
-147.574	-29.180	-0.357	-0.205
-146.560	-157.041	0.282	-0.017
-145.545	92.762	-0.073	0.082
-144.531	-190.616	-0.348	0.004
-143.516	113.513	0.209	-0.253
-142.502	162.276	-0.088	-0.123
-141.487	336.337	-0.090	0.174
-140.472	6.741	0.088	-0.065
-139.458	-18.592	0.228	-0.142
-138.443	-60.265	-0.265	0.113
-137.429	14.913	-0.125	0.098
-136.414	28.053	0.062	-0.052
-135.399	-61.702	-0.106	0.044
-134.385	140.755	-0.189	0.250
-133.370	-200.000	0.011	0.214
-132.356	-200.000	-0.002	-0.094
-131.341	-200.000	-0.017	0.462
-130.326	-35.540	0.202	-0.109
-129.312	-18.661	0.270	-0.168
-128.297	246.861	0.023	0.038
-127.283	563.124	-0.102	0.248
-126.268	800.000	-0.101	0.307
-125.253	180.605	-0.092	0.135
-124.239	389.598	0.247	-0.511
-123.224	-200.000	-0.003	0.048
-122.210	-78.372	-0.228	-0.078
-121.195	5.929	-0.141	-0.105
-120.180	49.602	0.194	-0.182
-119.166	-56.080	-0.193	0.086
-118.151	-200.000	-0.049	-0.261
-117.137	800.000	-0.045	-0.147
-116.122	-39.055	0.251	0.132
-115.107	-77.514	0.109	0.038
-114.093	2.017	0.159	-0.115
-113.078	703.159	-0.060	-0.158
-112.064	-123.632	0.154	0.024
-111.049	85.945	0.161	-0.177
-110.034	658.381	-0.075	-0.193
-109.020	-147.935	0.161	-0.013
-108.005	558.545	-0.209	0.503
-106.991	-200.000	-0.033	0.150
-105.976	-200.000	-0.044	-0.201
-104.962	-99.639	0.462	-0.116
-103.947	27.447	0.206	-0.172
-102.932	-200.000	0.068	-0.300
-101.918	-9.262	-0.180	0.120
-100.903	-200.000	-0.008	0.327
-99.889	-91.327	-0.363	0.104
-98.874	211.890	-0.131	0.206
-97.859	69.430	0.271	0.278
-96.845	-27.355	0.095	-0.055
-95.830	-118.869	0.095	-0.017
-94.816	648.088	-0.058	0.148
-93.801	-45.129	-0.185	0.092
-92.786	-12.172	-0.107	-0.070
-91.772	-200.000	-0.002	-0.125
-90.757	118.026	0.262	0.323
-89.743	-96.877	-0.209	0.055
-88.728	177.693	-0.144	-0.209
-87.713	176.988	-0.064	-0.093
-86.699	318.547	-0.075	0.142
-85.684	-128.929	0.229	0.032
-84.670	176.257	-0.125	0.181
-83.655	-126.342	0.180	-0.027
-82.640	-145.836	0.485	0.043
-81.626	7.352	-0.126	-0.094
-80.611	-200.000	0.025	-0.265
-79.597	-200.000	-0.049	-0.226
-78.582	-200.000	-0.029	-0.259
-77.567	176.480	0.049	-0.070
-76.553	195.635	0.151	0.228
-75.538	-59.193	0.224	-0.096
-74.524	159.295	-0.248	0.343
-73.509	173.528	-0.074	-0.107
-72.494	-92.258	0.356	0.100
-71.480	-131.612	-0.103	0.014
-70.465	-200.000	0.025	0.218
-69.451	25.045	0.258	-0.213
-68.436	-3.931	-0.119	0.083
-67.422	-33.538	0.209	0.115
-66.407	13.902	0.213	0.165
-65.392	-200.000	0.015	0.106
-64.378	96.414	-0.089	-0.102
-63.363	122.373	0.252	0.314
-62.349	-200.000	-0.018	0.277
-61.334	-4.758	-0.717	-0.493
-60.319	-22.743	-0.100	0.060
-59.305	-200.000	-0.036	-0.834
-58.290	334.638	0.287	0.554
-57.276	681.413	0.680	1.764
-56.261	-200.000	75.614	532.925
-55.246	557.814	1309.346	3145.194
-54.232	144.122	2560.078	3401.814
-53.217	112.318	2362.846	2846.186
-52.203	51.569	1977.087	1871.735
-51.188	45.430	1763.056	1620.605
-50.173	42.516	1717.045	1555.718
-49.159	56.758	1751.759	1698.554
-48.144	62.403	1769.528	1759.682
-47.130	45.280	1732.800	1591.375
-46.115	42.023	1719.115	1553.526
-45.100	41.853	1714.440	1547.921
-44.086	41.769	1712.315	1545.297
-43.071	41.876	1709.068	1543.131
-42.057	41.743	1706.746	1539.947
-41.042	41.760	1705.061	1538.495
-40.027	41.812	1702.987	1536.962
-39.013	41.804	1700.639	1534.720
-37.998	41.667	1699.311	1532.412
-36.984	41.771	1697.851	1531.830
-35.969	41.929	1696.182	1531.471
-34.954	42.090	1694.003	1530.678
-33.940	41.969	1692.107	1527.978
-32.925	41.998	1689.910	1526.157
-31.911	42.043	1688.020	1524.728
-30.896	42.024	1686.483	1523.132
-29.881	42.004	1684.941	1521.534
-28.867	41.918	1683.430	1519.454
-27.852	41.964	1681.806	1518.274
-26.838	41.908	1680.227	1516.367
-25.823	41.956	1678.658	1515.256
-24.809	41.974	1676.897	1513.738
-23.794	42.002	1675.990	1513.069
-22.779	41.999	1674.241	1511.409
-21.765	41.891	1672.663	1509.113
-20.750	41.836	1670.817	1506.971
-19.736	41.950	1669.631	1506.696
-18.721	41.945	1667.845	1504.993
-17.706	41.970	1666.191	1503.628
-16.692	41.951	1664.910	1502.271
-15.677	41.962	1663.184	1500.735
-14.663	42.012	1661.922	1499.908
-13.648	41.943	1660.773	1498.301
-12.633	42.020	1659.059	1497.267
-11.619	42.024	1656.997	1495.377
-10.604	41.871	1655.647	1492.955
-9.590	41.907	1654.396	1492.040
-8.575	41.979	1653.094	1491.342
-7.560	41.919	1651.981	1489.830
-6.546	41.964	1650.287	1488.576
-5.531	41.961	1649.493	1487.783
-4.517	41.849	1648.541	1486.032
-3.502	41.928	1646.923	1485.100
-2.487	42.041	1645.390	1484.495
-1.473	41.860	1634.406	1473.192
-0.458	39.358	1614.098	1436.602
0.556	34.347	1612.839	1399.988
1.571	31.742	1636.944	1401.333
2.586	30.860	1651.816	1407.279
3.600	26.997	1596.930	1332.113
4.615	14.539	1474.297	1144.746
5.629	3.198	1398.148	1011.342
6.644	0.985	1387.840	989.352
7.659	0.846	1386.163	987.161
8.673	0.708	1385.185	985.478
9.688	0.721	1383.318	984.149
10.702	0.483	1380.375	980.418
11.717	4.495	1389.070	1012.702
12.731	15.931	1411.380	1104.253
13.746	23.671	1424.366	1165.324
14.761	24.328	1424.051	1169.272
15.775	24.330	1424.053	1169.183
16.790	24.474	1423.326	1169.429
17.804	24.413	1422.569	1168.304
18.819	24.678	1422.357	1169.761
19.834	24.750	1421.484	1169.413
20.848	24.719	1420.913	1168.636
21.863	24.780	1419.780	1168.000
22.877	24.787	1418.872	1167.195
23.892	24.689	1417.839	1165.602
24.907	24.657	1417.235	1164.790
25.921	24.742	1416.107	1164.316
26.936	24.711	1415.286	1163.333
27.950	24.694	1414.082	1162.130
28.965	24.847	1412.264	1161.531
29.980	24.736	1411.362	1159.966
30.994	24.740	1410.009	1158.778
32.009	24.658	1409.282	1157.544
33.023	24.713	1408.228	1156.934
34.038	24.734	1406.705	1155.715
35.053	24.744	1405.804	1154.940
36.067	24.694	1404.949	1153.808
37.082	24.770	1403.763	1153.224
38.096	24.656	1403.070	1151.815
39.111	24.682	1402.398	1151.334
40.126	24.594	1401.992	1150.329
41.140	24.663	1401.074	1149.921
42.155	24.668	1400.937	1149.736
43.169	24.676	1400.622	1149.424
44.184	24.693	1400.556	1149.383
45.199	24.768	1399.663	1149.029
46.213	24.756	1398.841	1148.174
47.228	24.717	1398.285	1147.368
48.242	24.712	1397.174	1146.322
49.257	24.665	1395.691	1144.699
50.271	24.700	1393.977	1143.420
51.286	24.668	1392.750	1142.109
52.301	24.721	1391.643	1141.439
53.315	24.647	1390.857	1140.218
54.330	24.703	1389.994	1139.769
55.344	24.831	1388.335	1139.121
56.359	24.706	1387.452	1137.499
57.374	24.726	1386.615	1136.840
58.388	24.809	1385.713	1136.525
59.403	24.688	1385.755	1135.694
60.417	24.609	1384.956	1134.439
61.432	24.713	1384.191	1134.371
62.447	24.651	1383.562	1133.357
63.461	24.655	1382.481	1132.398
64.476	24.779	1381.098	1131.950
65.490	24.725	1380.387	1130.926
66.505	24.792	1378.134	1129.403
67.520	24.728	1376.917	1127.904
68.534	24.681	1376.141	1126.873
69.549	24.783	1375.087	1126.550
70.563	24.819	1373.982	1125.770
71.578	24.766	1373.096	1124.614
72.593	24.794	1372.392	1124.115
73.607	24.715	1371.679	1122.934
74.622	24.787	1371.114	1122.824
75.636	24.615	1370.797	1121.384
76.651	24.711	1369.519	1120.843
77.666	24.705	1368.898	1120.198
78.680	24.702	1368.955	1120.129
79.695	24.787	1367.632	1119.476
80.709	24.694	1366.867	1118.170
81.724	24.757	1366.076	1117.820
82.739	24.734	1364.844	1116.567
83.753	24.675	1364.005	1115.417
84.768	24.599	1363.215	1114.194
85.782	24.755	1361.912	1114.001
86.797	24.756	1360.393	1112.670
87.812	24.815	1359.149	1111.919
88.826	24.787	1357.786	1110.534
89.841	24.823	1356.929	1109.956
90.855	24.820	1356.223	1109.263
91.870	24.783	1355.388	1108.249
92.884	24.744	1354.489	1107.178
93.899	24.706	1353.954	1106.408
94.914	24.760	1353.387	1106.182
95.928	24.811	1352.057	1105.309
96.943	24.836	1351.604	1104.997
97.957	24.816	1350.594	1103.952
98.972	24.776	1349.780	1102.939
99.987	24.770	1348.845	1102.043
101.001	24.783	1348.018	1101.350
102.016	24.815	1346.603	1100.288
103.030	24.776	1346.012	1099.471
104.045	24.732	1345.402	1098.603
105.060	24.782	1344.331	1097.941
106.074	24.882	1342.597	1097.037
107.089	24.830	1341.919	1096.070
108.103	24.800	1340.893	1094.949
109.118	24.859	1340.214	1094.662
110.133	24.899	1338.424	1093.347
111.147	24.869	1337.441	1092.265
112.162	24.819	1336.385	1090.999
113.176	24.925	1335.314	1090.677
114.191	24.825	1334.519	1089.320
115.206	24.788	1333.778	1088.394
116.220	24.844	1332.302	1087.432
117.235	24.772	1331.232	1086.025
118.249	24.862	1330.388	1085.788
119.264	24.762	1329.787	1084.593
120.279	24.878	1328.502	1084.151
121.293	24.895	1327.892	1083.666
122.308	24.820	1327.304	1082.631
123.322	24.846	1326.433	1081.985
124.337	24.946	1325.273	1081.547
125.352	24.904	1324.709	1080.739
126.366	24.955	1323.529	1079.987
127.381	24.884	1322.751	1078.828
128.395	25.010	1321.752	1078.673
129.410	24.873	1321.454	1077.512
130.424	24.965	1320.284	1077.016
131.439	24.862	1319.684	1075.814
132.454	24.880	1318.891	1075.178
133.468	24.917	1317.949	1074.539
134.483	24.910	1317.556	1074.080
135.497	24.925	1316.424	1073.151
136.512	24.882	1316.001	1072.453
137.527	25.007	1314.317	1071.737
138.541	24.996	1313.000	1070.498
139.556	24.971	1311.966	1069.415
140.570	24.896	1311.014	1068.096
141.585	24.964	1309.866	1067.474
142.600	24.942	1308.838	1066.408
143.614	24.961	1307.807	1065.588
144.629	24.925	1306.577	1064.276
145.643	24.895	1305.937	1063.483
146.658	24.771	1304.901	1061.808
147.673	24.792	1304.041	1061.139
148.687	24.850	1302.955	1060.504
149.702	24.722	1301.728	1058.655
150.716	24.890	1300.483	1058.541
151.731	24.812	1299.557	1057.233
152.746	24.872	1298.356	1056.518
153.760	24.842	1297.588	1055.621
154.775	24.958	1296.257	1055.128
155.789	24.874	1294.995	1053.516
156.804	24.796	1294.748	1052.763
157.819	24.797	1293.811	1051.915
158.833	24.821	1292.980	1051.287
159.848	25.003	1291.992	1051.461
160.862	25.042	1290.654	1050.507
161.877	24.893	1290.254	1049.213
162.892	25.024	1289.271	1049.090
163.906	24.977	1289.124	1048.600
164.921	25.014	1288.237	1048.001
165.935	25.008	1287.453	1047.237
166.950	24.920	1286.488	1045.842
167.964	25.009	1285.790	1045.706
168.979	24.992	1285.691	1045.432
169.994	24.998	1285.170	1044.951
171.008	25.057	1284.035	1044.280
172.023	25.008	1283.640	1043.578
173.037	25.003	1282.547	1042.571
174.052	24.986	1282.476	1042.322
175.067	24.989	1280.927	1040.988
176.081	24.894	1280.247	1039.795
177.096	24.921	1279.612	1039.342
178.110	24.919	1278.763	1038.550
179.125	25.005	1277.596	1038.005
180.140	25.126	1276.367	1037.614
181.154	24.980	1275.446	1035.929
182.169	24.909	1274.746	1034.858
183.183	25.036	1273.049	1034.124
184.198	25.096	1271.890	1033.440
185.213	25.066	1271.255	1032.656
186.227	25.143	1270.164	1032.122
187.242	25.048	1269.045	1030.576
188.256	25.139	1268.442	1030.518
189.271	25.068	1267.571	1029.310
190.286	25.044	1267.096	1028.698
191.300	25.019	1266.649	1028.099
192.315	25.113	1265.653	1027.740
193.329	25.141	1265.697	1027.844
194.344	25.103	1265.120	1027.065
195.359	25.075	1264.612	1026.402
196.373	25.056	1264.073	1025.765
197.388	25.020	1264.172	1025.553
198.402	25.015	1263.533	1024.913
199.417	25.069	1262.554	1024.334
200.432	25.096	1262.047	1023.988
201.446	25.152	1261.062	1023.417
202.461	25.045	1260.844	1022.537
203.475	25.071	1260.130	1022.021
204.490	25.092	1258.757	1020.934
205.504	25.187	1257.771	1020.586
206.519	25.153	1257.283	1019.904
207.534	25.165	1255.925	1018.782
208.548	25.075	1255.055	1017.472
209.563	25.184	1254.286	1017.378
210.577	25.071	1253.769	1016.229
211.592	25.084	1252.749	1015.387
212.607	25.176	1252.167	1015.346
213.621	25.149	1251.286	1014.387
214.636	25.301	1250.101	1014.199
215.650	25.187	1249.721	1013.152
216.665	25.200	1248.448	1012.106
217.680	25.110	1247.751	1010.944
218.694	25.207	1246.919	1010.730
219.709	25.272	1246.057	1010.306
220.723	25.160	1245.720	1009.314
221.738	25.196	1244.788	1008.672
222.753	25.075	1244.580	1007.731
223.767	25.135	1243.424	1007.042
224.782	25.217	1243.111	1007.161
225.796	25.372	1241.736	1006.828
226.811	25.398	1241.465	1006.664
227.826	25.310	1240.707	1005.468
228.840	25.330	1240.407	1005.246
229.855	25.155	1239.967	1003.823
230.869	25.365	1239.090	1004.199
231.884	25.245	1238.235	1002.745
232.899	25.336	1237.447	1002.529
233.913	25.321	1236.870	1001.890
234.928	25.396	1236.750	1002.122
235.942	25.343	1235.840	1000.997
236.957	25.450	1234.850	1000.704
237.972	25.387	1233.893	999.487
238.986	25.265	1233.799	998.647
240.001	25.325	1233.304	998.494
241.015	25.446	1232.460	998.391
242.030	25.475	1231.749	997.887
243.045	25.363	1230.886	996.482
244.059	25.381	1230.382	996.083
245.074	25.401	1229.382	995.295
246.088	25.485	1228.458	994.927
247.103	25.454	1227.552	993.930
248.117	25.413	1226.771	992.986
249.132	25.550	1225.886	992.938
250.147	25.492	1225.191	991.968
251.161	25.609	1224.725	992.148
252.176	25.557	1223.899	991.104
253.190	25.619	1223.174	990.770
254.205	25.595	1222.998	990.407
255.220	25.546	1222.252	989.444
256.234	25.589	1221.560	989.037
257.249	25.604	1220.737	988.365
258.263	25.621	1220.136	987.884
259.278	25.641	1219.861	987.683
260.293	25.685	1218.797	986.976
261.307	25.528	1218.775	986.009
262.322	25.725	1217.771	986.189
263.336	25.588	1217.639	985.243
264.351	25.624	1217.143	984.950
265.366	25.632	1215.930	983.926
266.380	25.609	1215.365	983.258
267.395	25.629	1214.684	982.727
268.409	25.700	1214.102	982.559
269.424	25.730	1213.488	982.136
270.439	25.631	1213.065	981.169
271.453	25.569	1212.411	980.214
272.468	25.571	1211.651	979.527
273.482	25.691	1210.317	979.014
274.497	25.705	1210.278	978.971
275.512	25.778	1209.769	978.870
276.526	25.633	1209.068	977.429
277.541	25.653	1208.454	976.956
278.555	25.721	1207.857	976.752
279.570	25.694	1207.458	976.199
280.585	25.778	1205.967	975.362
281.599	25.853	1205.370	975.201
282.614	25.689	1204.628	973.626
283.628	25.726	1203.264	972.636
284.643	25.851	1202.546	972.647
285.657	25.731	1201.615	971.160
286.672	25.860	1200.746	971.062
287.687	25.840	1200.327	970.531
288.701	25.815	1199.629	969.749
289.716	25.758	1198.738	968.634
290.730	25.833	1197.940	968.306
291.745	25.832	1197.660	967.992
292.760	25.826	1197.062	967.390
293.774	25.864	1196.959	967.421
294.789	25.975	1196.015	967.168
295.803	25.883	1195.564	966.227
296.818	25.882	1194.982	965.664
297.833	25.954	1193.796	965.006
298.847	26.101	1193.267	965.283
299.862	25.963	1192.545	963.874
300.876	26.005	1191.783	963.398
301.891	25.960	1191.441	962.795
302.906	26.054	1190.307	962.293
303.920	25.981	1190.403	961.900
304.935	25.962	1189.294	960.813
305.949	25.938	1188.352	959.840
306.964	26.032	1188.234	960.163
307.979	26.003	1187.295	959.165
308.993	25.992	1186.728	958.561
310.008	26.018	1185.937	957.977
311.022	26.051	1185.032	957.336
312.037	26.089	1184.343	956.895
313.052	26.165	1183.488	956.523
314.066	26.193	1182.392	955.700
315.081	26.078	1181.656	954.411
316.095	26.016	1181.542	953.910
317.110	26.042	1180.842	953.397
318.125	26.079	1180.343	953.107
319.139	26.090	1179.713	952.569
320.154	26.102	1179.121	952.073
321.168	26.121	1178.203	951.348
322.183	26.124	1177.963	951.081
323.197	26.091	1176.842	949.920
324.212	26.165	1176.481	949.933
325.227	26.237	1176.428	950.185
326.241	26.307	1175.053	949.360
327.256	26.287	1174.663	948.853
328.270	26.176	1173.948	947.612
329.285	26.173	1172.869	946.639
330.300	26.141	1172.428	946.036
331.314	26.277	1171.215	945.685
332.329	26.282	1170.420	944.983
333.343	26.261	1170.005	944.457
334.358	26.283	1168.853	943.555
335.373	26.387	1168.407	943.654
336.387	26.369	1167.980	943.133
337.402	26.298	1167.269	942.105
338.416	26.364	1166.224	941.523
339.431	26.374	1165.583	940.975
340.446	26.391	1165.103	940.592
341.460	26.328	1165.012	940.109
342.475	26.435	1163.784	939.587
343.489	26.360	1163.043	938.520
344.504	26.493	1161.585	937.948
345.519	26.452	1161.025	937.203
346.533	26.511	1160.186	936.745
347.548	26.525	1159.401	936.100
348.562	26.539	1158.871	935.664
349.577	26.456	1158.208	934.613
350.592	26.392	1157.266	933.442
351.606	26.271	1157.163	932.653
352.621	26.382	1156.379	932.511
353.635	26.571	1155.408	932.617
354.650	26.516	1154.961	931.893
355.665	26.568	1154.144	931.416
356.679	26.586	1153.567	930.964
357.694	26.520	1153.264	930.294
358.708	26.575	1152.212	929.646
359.723	26.395	1152.230	928.654
360.738	26.511	1151.053	928.220
361.752	26.477	1150.644	927.633
362.767	26.524	1150.174	927.415
363.781	26.530	1149.587	926.887
364.796	26.661	1148.287	926.429
365.810	26.531	1148.496	925.849
366.825	26.708	1147.501	925.870
367.840	26.760	1147.241	925.844
368.854	26.780	1146.365	925.156
369.869	26.660	1146.001	924.172
370.883	26.794	1145.214	924.137
371.898	26.707	1144.526	923.059
372.913	26.716	1143.678	922.336
373.927	26.680	1143.071	921.584
374.942	26.826	1142.694	921.939
375.956	26.758	1142.000	920.951
376.971	26.740	1141.584	920.445
377.986	26.726	1141.111	919.912
379.000	26.782	1140.532	919.647
380.015	26.811	1139.762	919.091
381.029	26.738	1139.299	918.268
382.044	26.851	1138.591	918.187
383.059	26.885	1137.898	917.720
384.073	26.843	1137.149	916.822
385.088	26.918	1136.408	916.519
386.102	26.958	1135.297	915.747
387.117	26.826	1134.487	914.347
388.132	26.802	1133.892	913.667
389.146	26.904	1132.940	913.331
390.161	27.045	1132.199	913.361
391.175	26.903	1131.875	912.305
392.190	26.886	1131.141	911.547
393.205	26.865	1130.379	910.746
394.219	26.895	1129.367	910.001
395.234	27.102	1128.713	910.432
396.248	26.962	1128.205	909.242
397.263	27.061	1127.285	908.912
398.278	27.000	1126.767	908.109
399.292	27.000	1126.163	907.545
400.307	27.162	1125.428	907.680
401.321	27.101	1124.497	906.542
402.336	27.047	1124.004	905.800
403.350	27.057	1123.298	905.200
404.365	27.098	1122.637	904.790
405.380	27.138	1121.664	904.125
406.394	27.149	1121.191	903.716
407.409	27.067	1120.808	902.921
408.423	27.133	1120.377	902.824
409.438	27.130	1119.455	901.982
410.453	27.179	1118.360	901.265
411.467	27.221	1117.859	900.990
412.482	27.148	1117.099	899.937
413.496	27.234	1116.309	899.646
414.511	27.294	1115.646	899.327
415.526	27.321	1115.145	898.979
416.540	27.330	1114.844	898.703
417.555	27.318	1114.342	898.159
418.569	27.243	1113.591	897.100
419.584	27.308	1113.224	897.048
420.599	27.402	1112.682	896.997
421.613	83.770	1293.916	1353.711
422.628	78.706	1320.324	1353.855
