DTS Sentinel unit serial number:	SN413079Multiplexer serial number:	ORYXHardware model number:	OX4-SRSoftware version number:	ORYX F/W v4.00 Oryx Data Collector v3.7.2.0data status	okinstallation	princeton_trtdifferential loss correction	single-endedforward channel	channel 2reverse channel	N/Adate	2019/09/11time	23:57:11forward acquisition time	60.00reverse acquisition time	0.00gamma	496.2192k internal	0.2326k external	0.2326temperature offset calibration	1.0085default loss term (dB/km)	0.3790temperature slope calibration	1.0000multiplexer offset coefficient	1.0000multiplexer slope coefficient	1.0000fibre end	0.00T internal ref (°C)	33.81T ext. ref 1 (°C)	2.01T ext. ref 2 (°C)	28.23length (m)	temperature (°C)	Stokes	anti-Stokes-747.200	800.000	-0.053	0.152
-746.185	117.356	0.244	0.303
-745.171	-39.997	0.117	0.062
-744.156	-200.000	-0.026	0.229
-743.142	-5.364	-0.032	0.022
-742.127	21.938	-0.446	0.367
-741.112	-70.057	0.316	-0.121
-740.098	452.353	-0.170	0.379
-739.083	-20.126	0.162	0.101
-738.069	163.611	0.123	0.174
-737.054	74.249	-0.192	-0.204
-736.039	-90.908	0.117	-0.034
-735.025	337.953	0.035	-0.069
-734.010	800.000	0.067	0.259
-732.996	-200.000	-0.047	0.221
-731.981	-200.000	0.024	0.158
-730.966	-30.116	-0.128	0.073
-729.952	-200.000	0.001	0.191
-728.937	-143.927	0.232	-0.022
-727.923	-43.508	-0.247	-0.126
-726.908	-200.000	-0.005	0.058
-725.894	-68.607	-0.304	-0.119
-724.879	-200.000	-0.055	-0.410
-723.864	-121.580	0.230	-0.038
-722.850	-200.000	0.000	0.105
-721.835	59.734	-0.051	0.051
-720.821	-107.034	-0.205	-0.046
-719.806	-200.000	-0.009	0.061
-718.791	202.715	0.082	0.127
-717.777	800.000	-0.125	0.374
-716.762	104.297	-0.156	-0.185
-715.748	-200.000	0.066	-0.325
-714.733	-200.000	-0.026	-0.153
-713.718	-107.465	0.384	0.085
-712.704	167.811	-0.100	0.143
-711.689	800.000	0.013	-0.053
-710.675	-166.096	-0.291	0.012
-709.660	-200.000	-0.011	0.127
-708.645	-60.050	0.039	0.017
-707.631	-0.899	0.023	-0.017
-706.616	-200.000	0.070	-0.362
-705.602	-21.691	-0.006	0.004
-704.587	800.000	0.076	-0.234
-703.572	-200.000	-0.050	0.224
-702.558	-66.690	0.098	0.039
-701.543	330.685	-0.189	0.367
-700.529	-29.660	0.287	0.165
-699.514	-123.316	-0.127	0.020
-698.499	-66.689	-0.170	-0.068
-697.485	-132.906	0.210	-0.027
-696.470	34.159	-0.282	-0.248
-695.456	-138.354	0.506	0.056
-694.441	129.459	0.242	-0.311
-693.426	-86.688	-0.057	-0.018
-692.412	-113.823	-0.309	-0.060
-691.397	-66.264	0.099	-0.040
-690.383	6.776	0.227	-0.170
-689.368	800.000	0.097	0.359
-688.354	-150.513	0.297	-0.023
-687.339	-30.810	0.272	0.155
-686.324	-144.488	-0.266	-0.025
-685.310	142.241	0.141	0.189
-684.295	-55.181	-0.160	-0.072
-683.281	100.491	-0.211	0.246
-682.266	-30.455	0.138	0.079
-681.251	78.730	0.081	0.087
-680.237	-34.791	0.305	-0.168
-679.222	-32.842	-0.247	0.138
-678.208	-56.880	0.407	-0.181
-677.193	-200.000	0.050	-0.393
-676.178	14.016	-0.210	0.165
-675.164	67.338	-0.144	-0.148
-674.149	84.279	-0.101	-0.111
-673.135	46.328	0.208	0.194
-672.120	340.318	0.133	0.261
-671.105	-200.000	0.002	0.352
-670.091	-6.975	0.099	-0.068
-669.076	-73.111	-0.151	-0.056
-668.062	-200.000	0.121	-0.550
-667.047	9.705	-0.331	-0.252
-666.032	62.222	-0.194	0.195
-665.018	258.528	0.147	0.255
-664.003	227.448	-0.149	-0.243
-662.989	28.911	-0.233	-0.198
-661.974	18.502	-0.158	-0.127
-660.959	85.743	-0.358	0.396
-659.945	-200.000	0.000	-0.120
-658.930	800.000	0.051	-0.199
-657.916	226.679	0.232	0.378
-656.901	-153.861	0.133	0.009
-655.886	308.561	0.111	0.209
-654.872	800.000	0.045	-0.172
-653.857	-34.985	-0.272	-0.149
-652.843	-30.705	-0.204	-0.116
-651.828	720.331	0.110	0.293
-650.814	210.991	0.070	-0.110
-649.799	5.910	0.145	-0.108
-648.784	27.860	0.248	-0.210
-647.770	211.347	-0.116	0.183
-646.755	-200.000	0.039	0.215
-645.741	-118.902	-0.316	-0.056
-644.726	-69.257	-0.116	-0.045
-643.711	-200.000	0.013	0.098
-642.697	800.000	-0.073	-0.284
-641.682	-142.299	-0.160	0.016
-640.668	800.000	-0.066	0.283
-639.653	-200.000	-0.017	-0.186
-638.638	50.379	-0.172	-0.163
-637.624	531.787	0.084	-0.201
-636.609	778.439	0.138	-0.378
-635.595	-200.000	0.023	0.157
-634.580	-200.000	-0.026	-0.241
-633.565	800.000	-0.028	0.091
-632.551	800.000	0.056	0.162
-631.536	800.000	0.097	0.311
-630.522	453.508	0.075	0.167
-629.507	109.040	0.157	0.189
-628.492	-149.698	0.204	0.016
-627.478	262.739	-0.087	-0.152
-626.463	521.893	-0.029	0.068
-625.449	724.092	0.124	-0.332
-624.434	-47.770	-0.173	-0.084
-623.419	-83.472	0.035	-0.011
-622.405	26.867	0.060	0.051
-621.390	-85.408	0.176	-0.055
-620.376	-200.000	0.003	0.098
-619.361	-95.384	-0.333	0.090
-618.346	-87.962	-0.231	-0.070
-617.332	0.746	-0.073	0.052
-616.317	196.269	0.049	-0.074
-615.303	100.837	0.098	0.115
-614.288	-135.285	-0.084	0.010
-613.273	37.699	0.490	0.437
-612.259	185.911	-0.149	0.223
-611.244	147.056	-0.097	-0.132
-610.230	-117.734	0.281	0.051
-609.215	-167.595	-0.015	0.001
-608.201	26.455	0.127	-0.107
-607.186	800.000	0.088	0.357
-606.171	-59.653	-0.347	0.149
-605.157	-23.964	-0.152	0.091
-604.142	6.913	-0.253	0.189
-603.128	-127.645	-0.156	-0.023
-602.113	-177.501	0.247	0.006
-601.098	-200.000	-0.055	-0.248
-600.084	201.594	-0.173	-0.267
-599.069	6.521	0.141	-0.105
-598.055	-7.408	0.125	0.085
-597.040	-7.182	-0.208	0.142
-596.025	-200.000	-0.039	0.179
-595.011	-17.479	0.118	-0.074
-593.996	800.000	0.044	-0.126
-592.982	-52.427	-0.446	-0.207
-591.967	502.281	0.117	-0.271
-590.952	-72.492	-0.040	0.015
-589.938	-23.082	-0.084	-0.051
-588.923	-200.000	0.029	-0.423
-587.909	-38.904	-0.060	0.032
-586.894	267.299	0.078	-0.138
-585.879	499.705	-0.091	0.210
-584.865	-126.204	-0.160	0.024
-583.850	241.743	0.166	0.277
-582.836	105.593	-0.086	-0.102
-581.821	120.188	-0.200	0.249
-580.806	274.909	0.026	-0.046
-579.792	-200.000	-0.024	-0.156
-578.777	-200.000	0.040	0.357
-577.763	305.847	-0.042	0.078
-576.748	-98.840	-0.199	-0.051
-575.733	265.383	0.089	0.156
-574.719	-200.000	0.007	-0.188
-573.704	315.395	0.028	-0.052
-572.690	-10.038	0.164	0.109
-571.675	-200.000	0.054	0.251
-570.661	-200.000	0.019	-0.165
-569.646	-20.857	-0.202	0.124
-568.631	313.592	0.116	-0.218
-567.617	800.000	-0.143	0.533
-566.602	800.000	-0.109	0.339
-565.588	-173.856	-0.186	-0.006
-564.573	173.696	-0.149	-0.216
-563.558	425.681	-0.098	-0.211
-562.544	3.985	-0.093	0.068
-561.529	26.889	0.265	-0.222
-560.515	575.545	-0.091	-0.223
-559.500	39.326	-0.224	0.201
-558.485	-200.000	0.068	-0.402
-557.471	800.000	-0.050	0.172
-556.456	125.738	0.107	-0.136
-555.442	800.000	-0.076	0.223
-554.427	349.508	-0.097	-0.191
-553.412	800.000	-0.091	-0.365
-552.398	-200.000	-0.033	-0.375
-551.383	351.508	-0.229	0.454
-550.369	516.996	-0.127	-0.298
-549.354	800.000	0.062	-0.230
-548.339	-18.411	0.085	0.053
-547.325	-43.574	0.324	0.164
-546.310	273.816	-0.009	0.016
-545.296	154.018	0.115	-0.158
-544.281	319.662	-0.151	-0.286
-543.266	95.007	0.247	0.281
-542.252	238.113	-0.198	0.329
-541.237	-45.317	0.264	0.131
-540.223	-200.000	-0.001	0.290
-539.208	173.766	0.076	0.109
-538.193	23.788	0.202	-0.166
-537.179	270.190	-0.089	0.157
-536.164	251.716	0.125	-0.212
-535.150	268.130	0.211	0.369
-534.135	-200.000	0.072	-0.383
-533.121	-88.864	-0.323	0.096
-532.106	-127.299	-0.165	0.024
-531.091	42.726	-0.358	-0.326
-530.077	-140.833	-0.238	0.024
-529.062	686.335	-0.074	0.193
-528.048	38.749	0.275	0.246
-527.033	-200.000	-0.054	0.296
-526.018	-58.647	0.221	-0.096
-525.004	-70.475	-0.198	0.075
-523.989	27.415	0.175	-0.147
-522.975	-4.054	-0.201	-0.139
-521.960	-69.177	-0.348	-0.134
-520.945	-200.000	0.042	-0.304
-519.931	-130.368	0.527	0.071
-518.916	142.226	-0.039	0.052
-517.902	63.879	-0.166	0.167
-516.887	800.000	-0.066	-0.200
-515.872	352.283	-0.117	-0.233
-514.858	161.297	0.117	-0.163
-513.843	-200.000	-0.012	-0.284
-512.829	-161.024	0.074	-0.004
-511.814	218.158	0.038	0.061
-510.799	-56.056	-0.091	0.041
-509.785	148.667	0.100	-0.135
-508.770	-34.048	0.142	-0.078
-507.756	37.279	-0.246	0.218
-506.741	257.598	0.116	0.200
-505.726	20.671	-0.236	-0.191
-504.712	-200.000	0.033	-0.198
-503.697	800.000	0.043	-0.144
-502.683	207.441	-0.110	-0.171
-501.668	645.191	0.075	-0.192
-500.653	160.192	-0.091	-0.127
-499.639	-200.000	-0.013	-0.071
-498.624	177.768	0.040	0.058
-497.610	800.000	0.048	-0.205
-496.595	-76.697	-0.121	-0.042
-495.581	-116.372	0.104	-0.019
-494.566	-79.432	-0.261	0.088
-493.551	82.738	0.148	0.161
-492.537	116.009	-0.215	0.262
-491.522	-31.579	-0.109	0.061
-490.508	89.191	-0.038	0.043
-489.493	11.616	-0.085	-0.065
-488.478	-200.000	-0.013	-0.199
-487.464	-7.209	0.085	-0.057
-486.449	12.439	0.043	0.033
-485.435	-200.000	0.032	0.346
-484.420	-11.856	0.065	0.043
-483.405	-9.684	-0.203	-0.135
-482.391	-200.000	-0.023	0.285
-481.376	115.161	0.115	0.140
-480.362	-200.000	0.022	-0.276
-479.347	42.640	-0.141	0.128
-478.332	-122.584	0.169	0.027
-477.318	-65.038	0.255	-0.103
-476.303	-200.000	0.008	0.130
-475.289	800.000	-0.131	0.438
-474.274	84.861	-0.078	0.085
-473.259	-107.104	-0.147	0.032
-472.245	-200.000	0.019	0.113
-471.230	204.309	-0.004	0.007
-470.216	-85.113	0.157	-0.049
-469.201	366.050	-0.116	-0.234
-468.186	177.096	-0.055	-0.080
-467.172	-51.291	-0.195	0.091
-466.157	188.992	0.169	0.253
-465.143	11.218	0.116	-0.089
-464.128	-149.461	0.293	-0.023
-463.113	221.866	0.101	-0.161
-462.099	44.658	-0.069	-0.063
-461.084	-34.468	0.115	-0.063
-460.070	21.330	-0.168	-0.136
-459.055	264.063	0.058	-0.101
-458.040	-138.150	0.180	-0.020
-457.026	800.000	-0.060	-0.188
-456.011	231.393	-0.052	-0.084
-454.997	229.990	-0.091	0.148
-453.982	800.000	0.020	0.061
-452.968	-200.000	0.008	-0.049
-451.953	-125.043	-0.063	-0.010
-450.938	159.767	-0.159	0.221
-449.924	-102.385	0.224	-0.054
-448.909	-24.720	-0.209	0.124
-447.895	88.555	-0.177	-0.196
-446.880	-107.554	-0.085	0.019
-445.865	-81.913	-0.237	0.077
-444.851	-62.034	-0.160	-0.067
-443.836	4.835	-0.118	-0.086
-442.822	-87.820	-0.252	0.076
-441.807	-200.000	-0.006	0.080
-440.792	-138.216	-0.340	-0.038
-439.778	-149.356	0.246	-0.019
-438.763	114.620	0.101	0.123
-437.749	800.000	-0.012	0.035
-436.734	-55.039	0.153	-0.069
-435.719	-65.314	0.084	0.034
-434.705	-200.000	-0.244	0.000
-433.690	-90.619	-0.383	-0.110
-432.676	154.049	-0.144	0.197
-431.661	623.928	0.098	0.247
-430.646	516.742	-0.046	-0.107
-429.632	212.803	-0.223	-0.350
-428.617	-200.000	-0.038	-0.225
-427.603	112.937	-0.088	0.106
-426.588	-62.143	-0.180	-0.075
-425.573	574.562	0.101	0.246
-424.559	800.000	-0.056	0.186
-423.544	368.306	-0.113	0.228
-422.530	110.387	0.085	0.102
-421.515	-71.338	-0.141	0.053
-420.500	-126.518	-0.216	0.032
-419.486	-127.364	-0.293	-0.043
-418.471	800.000	0.090	-0.257
-417.457	141.668	-0.093	0.122
-416.442	465.949	-0.160	-0.358
-415.428	-108.105	0.257	-0.055
-414.413	32.364	-0.173	0.149
-413.398	-181.018	-0.254	-0.005
-412.384	-153.231	-0.382	-0.027
-411.369	-167.175	0.067	-0.003
-410.355	-200.000	-0.028	0.216
-409.340	-200.000	0.035	0.225
-408.325	-171.517	-0.063	0.002
-407.311	-81.391	-0.296	-0.097
-406.296	182.931	-0.032	0.048
-405.282	-139.781	0.296	0.031
-404.267	800.000	0.158	0.439
-403.252	72.545	0.163	-0.170
-402.238	-200.000	-0.025	-0.192
-401.223	-200.000	0.016	-0.332
-400.209	242.862	0.129	0.214
-399.194	189.404	0.216	0.322
-398.179	-89.466	0.099	0.029
-397.165	800.000	-0.079	0.220
-396.150	-200.000	0.031	-0.242
-395.136	-108.153	0.224	0.048
-394.121	-62.374	0.085	-0.035
-393.106	-200.000	-0.036	-0.253
-392.092	-36.935	0.099	-0.053
-391.077	21.786	0.177	0.144
-390.063	-55.168	0.093	0.042
-389.048	581.495	0.082	0.200
-388.033	-170.158	0.126	0.004
-387.019	176.352	0.079	0.114
-386.004	337.134	-0.077	-0.148
-384.990	-145.191	-0.152	-0.014
-383.975	-200.000	-0.013	0.148
-382.960	178.946	-0.145	0.210
-381.946	353.560	0.059	0.117
-380.931	-200.000	0.000	-0.257
-379.917	135.738	0.161	0.208
-378.902	-137.067	0.056	0.006
-377.888	-9.824	0.336	0.223
-376.873	-33.470	0.253	-0.139
-375.858	141.252	-0.235	-0.309
-374.844	609.626	-0.070	-0.173
-373.829	-200.000	0.026	0.207
-372.815	800.000	0.104	0.334
-371.800	-145.099	-0.238	0.022
-370.785	800.000	-0.033	-0.100
-369.771	246.223	0.175	0.293
-368.756	301.815	0.089	0.163
-367.742	800.000	0.035	0.153
-366.727	299.111	0.136	0.249
-365.712	800.000	0.038	0.151
-364.698	37.733	-0.388	0.343
-363.683	416.608	-0.091	0.193
-362.669	-49.953	0.316	0.149
-361.654	76.968	-0.125	-0.132
-360.639	800.000	0.020	0.079
-359.625	-44.081	0.326	-0.163
-358.610	-166.202	-0.061	-0.003
-357.596	-114.998	0.195	0.037
-356.581	-2.941	-0.347	-0.240
-355.566	800.000	0.074	-0.240
-354.552	50.578	-0.183	0.172
-353.537	-200.000	0.007	-0.170
-352.523	183.582	0.013	-0.019
-351.508	211.332	0.201	0.314
-350.493	23.375	-0.130	0.106
-349.479	-175.044	0.199	-0.006
-348.464	12.869	0.151	0.116
-347.450	-85.911	0.295	-0.091
-346.435	-200.000	-0.043	-0.272
-345.420	-30.066	0.046	-0.026
-344.406	-160.338	0.202	0.011
-343.391	21.117	-0.361	0.291
-342.377	36.987	0.203	0.179
-341.362	-88.970	0.064	0.019
-340.348	259.814	-0.127	0.217
-339.333	117.568	-0.357	0.437
-338.318	75.092	-0.092	-0.096
-337.304	-200.000	-0.019	-0.128
-336.289	162.617	0.254	-0.354
-335.275	-86.111	0.039	-0.012
-334.260	389.333	0.056	-0.116
-333.245	366.772	-0.211	0.423
-332.231	-43.993	-0.143	-0.071
-331.216	-104.350	-0.411	0.095
-330.202	-200.000	-0.035	-0.194
-329.187	103.945	0.093	-0.109
-328.172	135.719	-0.299	-0.387
-327.158	17.340	0.140	-0.110
-326.143	800.000	0.041	-0.116
-325.129	18.412	-0.128	-0.102
-324.114	46.708	0.219	0.202
-323.099	800.000	-0.100	0.347
-322.085	778.054	0.097	-0.262
-321.070	-200.000	0.017	-0.235
-320.056	-59.699	0.241	-0.102
-319.041	-133.274	-0.115	0.014
-318.026	-14.159	0.151	-0.097
-317.012	-2.053	0.048	0.034
-315.997	-200.000	0.058	-0.286
-314.983	-200.000	-0.019	0.219
-313.968	439.874	0.077	0.168
-312.953	95.679	0.054	0.062
-311.939	-136.458	0.328	0.038
-310.924	-1.473	0.175	-0.122
-309.910	-99.639	-0.125	-0.031
-308.895	27.374	0.321	-0.267
-307.880	542.014	0.072	-0.169
-306.866	-200.000	-0.034	-0.150
-305.851	800.000	-0.093	-0.321
-304.837	-180.953	0.142	-0.003
-303.822	373.210	0.125	-0.251
-302.807	-200.000	-0.030	-0.286
-301.793	-200.000	-0.008	-0.319
-300.778	124.677	-0.022	0.028
-299.764	-103.253	-0.158	0.037
-298.749	92.392	0.136	0.151
-297.735	-139.849	-0.274	0.029
-296.720	-41.453	0.346	0.177
-295.705	-200.000	-0.011	0.211
-294.691	-68.276	0.243	0.094
-293.676	64.244	-0.058	0.057
-292.662	236.534	-0.255	0.419
-291.647	-133.132	0.146	0.018
-290.632	800.000	0.067	0.211
-289.618	800.000	0.012	0.042
-288.603	-194.512	0.265	-0.002
-287.589	173.657	-0.153	-0.219
-286.574	36.916	-0.118	0.103
-285.559	489.799	0.151	-0.342
-284.545	466.024	0.146	-0.324
-283.530	287.980	0.063	0.113
-282.516	-129.728	0.368	-0.050
-281.501	-14.572	0.067	-0.043
-280.486	170.252	-0.064	-0.091
-279.472	-200.000	0.004	0.278
-278.457	108.034	-0.289	0.341
-277.443	-88.985	0.092	0.027
-276.428	-162.048	-0.041	0.002
-275.413	-200.000	-0.073	0.321
-274.399	-76.020	-0.113	0.040
-273.384	-80.426	-0.140	-0.046
-272.370	-200.000	-0.005	-0.094
-271.355	800.000	0.044	0.146
-270.340	223.614	0.103	-0.165
-269.326	-200.000	-0.062	-0.451
-268.311	-67.094	0.239	0.093
-267.297	-200.000	0.005	0.280
-266.282	15.350	0.160	-0.124
-265.267	128.750	0.115	-0.145
-264.253	-177.844	-0.325	-0.008
-263.238	753.328	-0.186	-0.497
-262.224	-200.000	0.057	0.304
-261.209	-39.320	0.378	-0.196
-260.195	24.883	0.258	0.212
-259.180	35.886	-0.365	0.318
-258.165	-200.000	-0.038	-0.335
-257.151	577.437	0.158	-0.381
-256.136	181.461	-0.039	-0.056
-255.122	157.385	-0.120	0.165
-254.107	144.745	-0.066	-0.087
-253.092	-120.455	0.370	0.062
-252.078	-200.000	-0.074	-0.416
-251.063	266.737	-0.008	-0.014
-250.049	-200.000	-0.021	0.187
-249.034	86.364	0.324	-0.353
-248.019	84.566	0.248	0.269
-247.005	482.987	-0.060	-0.134
-245.990	-89.123	-0.306	0.090
-244.976	-55.984	0.112	0.049
-243.961	-67.646	0.276	0.107
-242.946	-200.000	-0.050	0.380
-241.932	159.147	0.183	0.251
-240.917	-30.423	0.250	0.140
-239.903	440.420	-0.081	0.175
-238.888	512.158	0.104	-0.241
-237.873	800.000	0.086	0.294
-236.859	-124.624	-0.265	-0.041
-235.844	172.870	0.166	0.236
-234.830	726.853	-0.052	-0.138
-233.815	273.240	-0.143	0.249
-232.800	355.033	0.183	-0.360
-231.786	1.184	-0.244	0.173
-230.771	-200.000	-0.020	0.257
-229.757	712.816	0.057	0.149
-228.742	-126.360	0.136	-0.020
-227.727	84.627	-0.147	0.159
-226.713	-187.978	-0.165	-0.002
-225.698	8.874	0.278	-0.207
-224.684	309.965	-0.172	-0.319
-223.669	-200.000	-0.067	-0.384
-222.655	67.285	0.052	-0.053
-221.640	-200.000	0.017	0.370
-220.625	-200.000	0.010	0.144
-219.611	-98.936	0.256	0.064
-218.596	797.859	-0.064	-0.174
-217.582	-200.000	0.078	-0.639
-216.567	800.000	0.051	0.166
-215.552	-51.191	0.185	-0.086
-214.538	28.811	0.112	-0.094
-213.523	-15.227	-0.125	0.079
-212.509	-200.000	-0.014	-0.207
-211.494	265.818	-0.127	-0.219
-210.479	-140.404	0.292	0.030
-209.465	-200.000	0.061	-0.355
-208.450	2.161	0.045	-0.032
-207.436	-200.000	-0.015	-0.354
-206.421	-200.000	0.054	-0.288
-205.406	-200.000	0.010	-0.102
-204.392	-47.553	0.208	-0.100
-203.377	-161.368	0.224	-0.011
-202.363	-200.000	-0.025	-0.193
-201.348	47.883	-0.316	-0.292
-200.333	190.611	0.115	0.170
-199.319	-192.082	0.220	-0.002
-198.304	41.973	-0.056	-0.050
-197.290	-24.533	-0.364	0.214
-196.275	-200.000	-0.004	0.024
-195.260	593.750	-0.104	0.253
-194.246	-143.374	-0.063	-0.006
-193.231	-71.639	0.345	0.127
-192.217	-142.507	0.155	-0.015
-191.202	73.225	-0.090	-0.093
-190.187	-162.179	0.076	-0.004
-189.173	99.486	-0.207	0.236
-188.158	113.668	0.312	-0.375
-187.144	-200.000	-0.016	0.108
-186.129	-200.000	0.020	0.177
-185.114	-6.959	0.075	0.050
-184.100	462.932	-0.135	-0.297
-183.085	-149.425	0.227	0.018
-182.071	1.133	-0.111	0.079
-181.056	-43.989	0.288	0.143
-180.042	-200.000	0.028	0.132
-179.027	-200.000	-0.003	-0.069
-178.012	192.212	-0.041	-0.061
-176.998	498.384	0.126	0.286
-175.983	-29.523	0.365	0.206
-174.969	-200.000	-0.022	-0.146
-173.954	-113.595	-0.242	0.047
-172.939	117.348	-0.177	-0.215
-171.925	-54.361	-0.226	-0.101
-170.910	-145.580	0.255	-0.023
-169.896	88.883	-0.092	-0.101
-168.881	-200.000	-0.007	-0.232
-167.866	-200.000	-0.032	0.247
-166.852	19.241	-0.273	-0.216
-165.837	-165.358	-0.080	-0.003
-164.823	-130.366	0.019	0.003
-163.808	-144.649	-0.072	-0.007
-162.793	-150.487	-0.057	-0.004
-161.779	83.834	-0.222	-0.239
-160.764	-200.000	-0.010	0.186
-159.750	742.783	0.190	0.504
-158.735	-200.000	0.023	-0.168
-157.720	-75.061	-0.354	-0.125
-156.706	-200.000	-0.010	-0.053
-155.691	-200.000	-0.036	0.202
-154.677	-128.305	0.240	-0.034
-153.662	-137.965	0.176	-0.019
-152.647	215.529	0.152	0.238
-151.633	153.119	-0.168	0.227
-150.618	273.220	-0.243	-0.424
-149.604	-200.000	-0.022	0.099
-148.589	800.000	0.041	-0.134
-147.574	800.000	0.062	0.264
-146.560	-70.893	-0.195	-0.072
-145.545	-135.945	-0.206	0.024
-144.531	800.000	0.100	0.290
-143.516	-58.340	-0.203	0.087
-142.502	-130.411	0.400	0.053
-141.487	-124.351	0.097	0.015
-140.472	-39.600	0.219	0.113
-139.458	-200.000	-0.015	-0.076
-138.443	282.094	-0.075	-0.133
-137.429	51.367	0.275	0.257
-136.414	-200.000	0.049	-0.527
-135.399	800.000	0.075	-0.281
-134.385	-44.388	-0.332	0.164
-133.370	-46.605	-0.238	-0.115
-132.356	-93.316	0.080	0.022
-131.341	-117.804	0.102	0.018
-130.326	-55.065	0.144	0.064
-129.312	122.132	0.282	0.346
-128.297	800.000	0.052	0.161
-127.283	61.278	0.052	0.051
-126.268	800.000	0.050	-0.191
-125.253	35.989	0.066	0.057
-124.239	132.260	-0.050	0.063
-123.224	752.288	0.115	-0.307
-122.210	197.047	0.055	0.082
-121.195	-97.405	-0.152	0.039
-120.180	297.491	-0.098	-0.177
-119.166	6.253	-0.240	0.176
-118.151	-83.605	-0.134	0.042
-117.137	800.000	-0.046	0.171
-116.122	800.000	0.108	0.328
-115.107	-140.615	0.095	-0.010
-114.093	-111.120	-0.264	-0.053
-113.078	425.684	0.100	0.213
-112.064	-200.000	-0.012	0.290
-111.049	309.506	-0.017	0.032
-110.034	337.105	0.042	-0.081
-109.020	6.662	-0.086	-0.063
-108.005	-200.000	0.002	-0.201
-106.991	494.461	-0.140	0.316
-105.976	273.570	0.197	0.342
-104.962	198.663	0.082	0.124
-103.947	153.149	0.215	0.289
-102.932	-47.314	-0.110	-0.053
-101.918	-43.215	0.130	-0.065
-100.903	-82.030	0.127	0.041
-99.889	20.114	0.465	-0.369
-98.874	687.785	0.058	0.149
-97.859	-67.697	-0.134	-0.052
-96.845	9.958	-0.229	0.171
-95.830	128.384	-0.120	-0.151
-94.816	-200.000	0.031	0.193
-93.801	267.880	-0.027	0.046
-92.786	-90.683	-0.374	-0.106
-91.772	56.081	0.070	-0.067
-90.757	-32.297	0.263	0.144
-89.743	-179.599	-0.332	0.007
-88.728	-120.990	0.179	0.030
-87.713	-20.745	-0.182	0.110
-86.699	800.000	0.146	0.422
-85.684	-25.876	-0.092	-0.053
-84.670	26.900	-0.219	-0.180
-83.655	40.874	-0.051	0.045
-82.640	353.763	-0.059	-0.114
-81.626	129.335	-0.026	0.033
-80.611	-200.000	0.029	-0.342
-79.597	145.679	-0.151	0.198
-78.582	-86.849	0.163	0.049
-77.567	-57.902	0.341	-0.147
-76.553	467.673	0.134	0.296
-75.538	-145.538	-0.281	0.025
-74.524	595.618	-0.028	-0.068
-73.509	204.881	0.079	-0.121
-72.494	3.271	-0.317	0.227
-71.480	129.063	0.226	-0.284
-70.465	478.485	-0.057	0.126
-69.451	-131.587	0.219	0.028
-68.436	304.599	-0.044	0.081
-67.422	-93.797	0.474	0.128
-66.407	245.279	-0.066	-0.109
-65.392	135.768	-0.211	0.270
-64.378	-200.000	0.048	0.249
-63.363	-37.715	0.225	-0.117
-62.349	340.626	-0.171	-0.328
-61.334	70.303	-0.895	-0.909
-60.319	111.844	0.359	0.426
-59.305	-200.000	0.083	-1.321
-58.290	276.595	0.352	0.614
-57.276	800.000	0.451	1.719
-56.261	-200.000	96.366	586.753
-55.246	553.961	1386.753	3274.528
-54.232	155.912	2584.958	3498.380
-53.217	107.025	2277.233	2655.930
-52.203	43.050	1898.328	1700.095
-51.188	37.074	1689.847	1468.264
-50.173	34.354	1645.837	1409.879
-49.159	52.556	1692.624	1586.729
-48.144	54.492	1709.229	1616.721
-47.130	36.703	1668.032	1446.302
-46.115	33.944	1653.525	1413.192
-45.100	33.679	1648.701	1407.042
-44.086	33.686	1646.193	1404.900
-43.071	33.773	1643.054	1402.809
-42.057	33.705	1641.070	1400.556
-41.042	33.720	1638.531	1398.444
-40.027	33.621	1637.270	1396.588
-39.013	33.789	1634.533	1395.433
-37.998	33.601	1633.373	1393.005
-36.984	33.785	1632.249	1393.343
-35.969	33.860	1630.238	1392.116
-34.954	33.847	1628.644	1390.608
-33.940	33.785	1627.115	1388.794
-32.925	33.821	1625.329	1387.473
-31.911	33.833	1623.389	1385.855
-30.896	33.850	1621.789	1384.558
-29.881	33.780	1620.271	1382.697
-28.867	33.812	1618.386	1381.262
-27.852	33.738	1617.194	1379.652
-26.838	33.736	1615.564	1378.191
-25.823	33.732	1614.111	1376.871
-24.809	33.750	1612.937	1375.948
-23.794	33.829	1611.239	1375.014
-22.779	33.859	1609.488	1373.684
-21.765	33.908	1607.910	1372.638
-20.750	33.895	1606.474	1371.259
-19.736	33.898	1605.286	1370.212
-18.721	33.811	1603.960	1368.400
-17.706	33.901	1602.212	1367.501
-16.692	33.806	1601.166	1365.871
-15.677	33.737	1599.608	1363.995
-14.663	33.890	1597.710	1363.419
-13.648	33.877	1596.527	1362.261
-12.633	33.772	1595.174	1360.304
-11.619	33.783	1593.658	1359.035
-10.604	33.899	1592.324	1358.672
-9.590	33.801	1590.947	1356.746
-8.575	33.895	1589.291	1355.951
-7.560	33.885	1588.020	1354.736
-6.546	33.865	1586.930	1353.611
-5.531	33.833	1586.477	1352.942
-4.517	33.738	1585.082	1351.025
-3.502	33.876	1583.541	1350.636
-2.487	33.917	1581.966	1349.534
-1.473	33.609	1570.924	1337.890
-0.458	30.749	1551.831	1301.611
0.556	27.823	1552.799	1273.010
1.571	25.547	1577.596	1277.081
2.586	25.221	1591.528	1285.905
3.600	22.597	1538.179	1224.487
4.615	12.915	1426.534	1072.827
5.629	3.872	1358.997	965.685
6.644	2.164	1350.780	949.156
7.659	2.040	1349.353	947.300
8.673	1.933	1348.385	945.872
9.688	1.883	1346.148	943.906
10.702	1.679	1343.115	940.436
11.717	5.364	1349.903	967.956
12.731	15.574	1369.927	1046.102
13.746	24.035	1384.422	1110.091
14.761	26.047	1386.648	1124.331
15.775	26.256	1386.977	1125.799
16.790	26.415	1385.938	1125.846
17.804	26.524	1385.525	1126.089
18.819	26.712	1384.942	1126.686
19.834	26.848	1384.570	1127.131
20.848	26.825	1383.698	1126.177
21.863	26.829	1383.329	1125.798
22.877	26.837	1382.010	1124.675
23.892	26.864	1381.667	1124.465
24.907	26.805	1380.399	1122.966
25.921	26.908	1379.210	1122.537
26.936	26.809	1378.708	1121.421
27.950	26.857	1377.466	1120.608
28.965	26.790	1376.586	1119.377
29.980	26.849	1374.590	1118.019
30.994	26.835	1373.929	1117.298
32.009	26.833	1372.901	1116.349
33.023	26.882	1371.508	1115.417
34.038	26.909	1370.401	1114.587
35.053	26.847	1369.618	1113.471
36.067	26.876	1368.345	1112.514
37.082	26.867	1367.595	1111.751
38.096	26.871	1366.518	1110.799
39.111	26.875	1365.873	1110.204
40.126	26.828	1364.830	1108.971
41.140	26.868	1364.357	1108.735
42.155	26.874	1364.490	1108.779
43.169	26.811	1364.535	1108.335
44.184	26.826	1364.204	1108.058
45.199	26.848	1363.872	1107.826
46.213	26.797	1363.112	1106.798
47.228	26.825	1362.284	1106.197
48.242	26.976	1360.865	1105.866
49.257	26.786	1359.870	1103.802
50.271	26.911	1357.800	1102.784
51.286	26.825	1357.416	1101.853
52.301	26.831	1355.495	1100.232
53.315	26.873	1354.869	1099.881
54.330	26.884	1353.901	1099.068
55.344	26.878	1352.509	1097.801
56.359	26.861	1351.446	1096.739
57.374	26.894	1350.813	1096.331
58.388	26.882	1350.579	1095.968
59.403	26.877	1349.688	1095.120
60.417	26.882	1349.227	1094.679
61.432	26.872	1348.671	1094.073
62.447	26.743	1348.274	1092.875
63.461	26.828	1346.488	1091.841
64.476	26.808	1345.570	1090.880
65.490	26.817	1344.779	1090.195
66.505	26.821	1343.139	1088.795
67.520	26.869	1341.917	1087.996
68.534	26.869	1340.809	1086.999
69.549	26.841	1340.194	1086.236
70.563	26.863	1339.193	1085.460
71.578	26.953	1337.720	1084.710
72.593	26.828	1337.419	1083.624
73.607	26.853	1337.028	1083.360
74.622	26.809	1336.045	1082.202
75.636	26.855	1335.565	1081.996
76.651	26.935	1334.114	1081.201
77.666	26.823	1334.531	1080.776
78.680	26.819	1333.776	1080.046
79.695	26.796	1332.960	1079.151
80.709	26.843	1332.032	1078.582
81.724	26.867	1331.139	1077.905
82.739	26.843	1330.053	1076.790
83.753	26.793	1329.467	1075.925
84.768	26.855	1327.925	1074.950
85.782	26.906	1327.187	1074.560
86.797	26.829	1325.927	1072.990
87.812	26.882	1325.030	1072.480
88.826	26.870	1323.827	1071.339
89.841	26.816	1322.751	1070.057
90.855	26.922	1321.672	1069.716
91.870	26.911	1320.920	1068.945
92.884	26.950	1320.169	1068.473
93.899	26.868	1319.653	1067.476
94.914	26.918	1318.216	1066.514
95.928	26.824	1317.966	1065.665
96.943	26.758	1317.846	1065.089
97.957	26.912	1316.715	1064.981
98.972	26.955	1315.673	1064.299
99.987	26.846	1314.655	1062.741
101.001	26.963	1313.803	1062.642
102.016	26.922	1312.759	1061.464
103.030	26.950	1311.558	1060.566
104.045	26.950	1310.884	1059.928
105.060	26.801	1310.439	1058.603
106.074	26.878	1309.287	1058.027
107.089	26.869	1308.119	1056.938
108.103	26.928	1307.181	1056.426
109.118	26.924	1306.394	1055.677
110.133	26.876	1305.380	1054.483
111.147	26.938	1304.084	1053.707
112.162	27.086	1302.625	1053.291
113.176	26.865	1302.284	1051.639
114.191	27.008	1300.695	1051.090
115.206	27.077	1299.919	1050.771
116.220	27.004	1299.027	1049.535
117.235	26.936	1297.966	1048.193
118.249	26.905	1297.460	1047.512
119.264	27.020	1296.592	1047.381
120.279	27.004	1295.689	1046.470
121.293	26.924	1295.488	1045.752
122.308	27.028	1294.282	1045.285
123.322	27.056	1293.298	1044.559
124.337	27.058	1292.425	1043.773
125.352	27.023	1291.797	1042.972
126.366	27.085	1291.078	1042.657
127.381	26.998	1290.046	1041.232
128.395	27.108	1288.931	1040.866
129.410	27.046	1288.514	1040.086
130.424	27.028	1288.155	1039.598
131.439	27.034	1286.763	1038.419
132.454	27.100	1285.967	1038.060
133.468	26.906	1286.044	1036.922
134.483	27.069	1284.849	1036.796
135.497	26.997	1284.190	1035.765
136.512	27.116	1282.873	1035.289
137.527	27.052	1281.938	1034.079
138.541	26.960	1280.868	1032.598
139.556	26.997	1279.264	1031.427
140.570	27.117	1278.704	1031.564
141.585	27.062	1277.205	1029.951
142.600	26.977	1276.642	1028.926
143.614	26.911	1276.086	1028.009
144.629	26.845	1275.201	1026.836
145.643	26.894	1273.738	1025.844
146.658	26.846	1273.027	1024.909
147.673	26.945	1271.676	1024.289
148.687	26.905	1271.129	1023.528
149.702	26.938	1269.918	1022.652
150.716	26.904	1268.753	1021.431
151.731	27.037	1267.507	1021.086
152.746	27.068	1266.525	1020.380
153.760	27.026	1265.999	1019.625
154.775	27.011	1264.537	1018.279
155.789	27.084	1263.899	1018.081
156.804	27.011	1263.241	1017.054
157.819	26.987	1261.947	1015.787
158.833	26.952	1261.798	1015.383
159.848	27.055	1260.882	1015.128
160.862	27.094	1260.043	1014.582
161.877	27.032	1259.274	1013.525
162.892	27.038	1258.843	1013.123
163.906	27.111	1257.689	1012.514
164.921	27.177	1256.825	1012.092
165.935	27.175	1256.064	1011.380
166.950	27.171	1256.013	1011.227
167.964	27.303	1255.112	1011.146
168.979	27.232	1254.752	1010.372
169.994	27.106	1253.846	1008.855
171.008	27.200	1252.992	1008.601
172.023	27.170	1252.237	1007.739
173.037	27.172	1251.405	1006.990
174.052	27.081	1251.248	1006.271
175.067	27.124	1250.535	1005.844
176.081	27.130	1249.395	1004.875
177.096	27.149	1248.338	1004.039
178.110	27.251	1247.245	1003.632
179.125	27.130	1246.832	1002.546
180.140	27.182	1245.519	1001.686
181.154	27.304	1244.179	1001.190
182.169	27.107	1243.525	999.493
183.183	27.169	1242.731	999.105
184.198	27.145	1241.595	997.973
185.213	27.232	1240.599	997.565
186.227	27.207	1239.996	996.853
187.242	27.182	1239.138	995.940
188.256	27.178	1238.023	994.931
189.271	27.191	1237.632	994.601
190.286	27.251	1236.837	994.200
191.300	27.277	1236.118	993.679
192.315	27.115	1236.043	992.646
193.329	27.223	1235.086	992.376
194.344	27.316	1234.348	992.202
195.359	27.251	1233.969	991.457
196.373	27.273	1233.289	990.940
197.388	27.163	1233.287	990.253
198.402	27.249	1233.131	990.512
199.417	27.279	1232.216	989.852
200.432	27.308	1231.597	989.424
201.446	27.262	1231.481	988.995
202.461	27.292	1230.742	988.477
203.475	27.282	1229.714	987.506
204.490	27.171	1228.680	985.988
205.504	27.371	1227.465	986.010
206.519	27.347	1226.553	985.059
207.534	27.241	1226.054	983.995
208.548	27.296	1225.166	983.495
209.563	27.313	1224.464	982.935
210.577	27.261	1223.406	981.721
211.592	27.282	1222.592	981.094
212.607	27.337	1221.952	980.789
213.621	27.384	1221.333	980.460
214.636	27.269	1220.401	979.003
215.650	27.389	1219.792	979.074
216.665	27.365	1218.370	977.720
217.680	27.347	1217.545	976.874
218.694	27.331	1216.705	976.027
219.709	27.469	1215.966	976.085
220.723	27.344	1215.839	975.229
221.738	27.435	1214.688	974.707
222.753	27.309	1214.210	973.563
223.767	27.398	1213.429	973.327
224.782	27.474	1213.070	973.357
225.796	27.460	1212.325	972.599
226.811	27.517	1211.675	972.294
227.826	27.552	1211.077	971.917
228.840	27.546	1210.649	971.453
229.855	27.468	1210.015	970.447
230.869	27.384	1209.273	969.316
231.884	27.454	1208.620	969.080
232.899	27.361	1208.339	968.273
233.913	27.509	1206.894	967.817
234.928	27.509	1207.235	968.003
235.942	27.508	1206.159	967.052
236.957	27.549	1205.641	966.767
237.972	27.493	1204.954	965.832
238.986	27.461	1204.709	965.381
240.001	27.526	1203.849	964.950
241.015	27.638	1202.673	964.518
242.030	27.708	1201.763	964.070
243.045	27.631	1201.354	963.253
244.059	27.563	1200.702	962.282
245.074	27.597	1199.914	961.749
246.088	27.797	1198.717	961.757
247.103	27.597	1198.465	960.416
248.117	27.577	1197.745	959.651
249.132	27.663	1196.688	959.169
250.147	27.717	1195.937	958.765
251.161	27.751	1195.390	958.422
252.176	27.725	1194.772	957.702
253.190	27.792	1194.093	957.425
254.205	27.722	1193.267	956.313
255.220	27.613	1192.954	955.406
256.234	27.684	1192.504	955.333
257.249	27.780	1191.366	954.837
258.263	27.863	1190.830	954.761
259.278	27.844	1190.035	953.937
260.293	27.736	1190.228	953.447
261.307	27.748	1189.556	952.882
262.322	27.701	1188.997	952.107
263.336	27.801	1188.160	951.876
264.351	27.727	1187.779	951.099
265.366	27.849	1186.809	950.875
266.380	27.703	1186.467	949.754
267.395	27.797	1185.566	949.438
268.409	27.816	1184.972	948.977
269.424	27.730	1184.684	948.215
270.439	27.890	1183.844	948.291
271.453	27.932	1183.201	947.907
272.468	27.834	1182.618	946.850
273.482	27.864	1181.320	945.884
274.497	27.888	1181.430	946.011
275.512	27.886	1180.514	945.185
276.526	27.905	1179.669	944.523
277.541	27.879	1179.416	944.103
278.555	27.992	1178.721	944.046
279.570	27.800	1177.979	942.375
280.585	27.715	1177.735	941.657
281.599	27.925	1176.371	941.565
282.614	27.885	1175.692	940.732
283.628	28.033	1174.486	940.449
284.643	27.991	1173.481	939.342
285.657	27.950	1173.101	938.744
286.672	27.920	1172.131	937.732
287.687	27.950	1171.255	937.101
288.701	27.961	1171.161	937.004
289.716	27.979	1170.175	936.222
290.730	28.017	1169.477	935.778
291.745	28.029	1169.174	935.514
292.760	28.145	1167.917	935.018
293.774	28.047	1168.204	934.663
294.789	28.101	1167.364	934.184
295.803	28.164	1166.862	934.021
296.818	28.175	1165.838	933.175
297.833	28.152	1165.220	932.479
298.847	28.121	1164.679	931.807
299.862	28.124	1163.415	930.729
300.876	28.179	1162.726	930.373
301.891	28.117	1162.811	930.044
302.906	28.139	1162.198	929.582
303.920	28.227	1161.466	929.364
304.935	28.112	1161.064	928.374
305.949	28.221	1159.792	927.829
306.964	28.302	1159.183	927.668
307.979	28.253	1158.990	927.184
308.993	28.187	1158.203	926.138
310.008	28.198	1157.381	925.453
311.022	28.158	1156.579	924.528
312.037	28.232	1155.830	924.225
313.052	28.206	1155.306	923.589
314.066	28.184	1154.414	922.685
315.081	28.184	1153.481	921.859
316.095	28.195	1153.150	921.568
317.110	28.243	1152.475	921.189
318.125	28.281	1151.801	920.757
319.139	28.265	1151.236	920.146
320.154	28.224	1150.815	919.522
321.168	28.317	1150.034	919.285
322.183	28.327	1149.442	918.776
323.197	28.425	1148.623	918.533
324.212	28.329	1147.720	917.248
325.227	28.314	1147.910	917.245
326.241	28.411	1147.214	917.095
327.256	28.468	1146.279	916.550
328.270	28.395	1145.511	915.492
329.285	28.424	1144.680	914.889
330.300	28.394	1144.257	914.319
331.314	28.312	1143.368	913.119
332.329	28.429	1142.512	912.939
333.343	28.469	1141.717	912.421
334.358	28.440	1140.918	911.560
335.373	28.509	1140.304	911.331
336.387	28.497	1139.414	910.477
337.402	28.513	1139.157	910.271
338.416	28.515	1138.749	909.874
339.431	28.565	1137.704	909.205
340.446	28.536	1137.233	908.609
341.460	28.514	1136.453	907.792
342.475	28.620	1135.574	907.536
343.489	28.608	1134.608	906.623
344.504	28.597	1134.114	906.094
345.519	28.485	1133.619	905.064
346.533	28.648	1132.189	904.649
347.548	28.559	1132.005	903.985
348.562	28.581	1131.330	903.474
349.577	28.736	1130.007	903.099
350.592	28.562	1129.720	901.935
351.606	28.540	1129.165	901.305
352.621	28.632	1128.692	901.296
353.635	28.599	1128.022	900.519
354.650	28.677	1127.197	900.163
355.665	28.759	1126.500	899.929
356.679	28.760	1126.172	899.593
357.694	28.744	1125.438	898.847
358.708	28.681	1124.661	897.840
359.723	28.649	1123.718	896.854
360.738	28.861	1122.979	897.219
361.752	28.829	1122.961	896.969
362.767	28.785	1122.339	896.175
363.781	28.858	1121.617	895.875
364.796	28.797	1121.234	895.197
365.810	28.891	1120.519	895.004
366.825	28.837	1120.172	894.384
367.840	28.859	1119.988	894.262
368.854	28.916	1118.835	893.541
369.869	28.831	1118.400	892.703
370.883	28.850	1117.649	892.116
371.898	28.943	1117.053	892.014
372.913	28.942	1116.419	891.421
373.927	28.903	1115.884	890.727
374.942	28.951	1115.657	890.698
375.956	28.974	1114.904	890.133
376.971	29.072	1114.546	890.240
377.986	28.834	1114.082	888.642
379.000	28.953	1113.370	888.567
380.015	29.032	1112.684	888.324
381.029	28.997	1111.988	887.520
382.044	29.006	1111.463	887.066
383.059	29.002	1110.940	886.552
384.073	28.997	1110.155	885.821
385.088	29.057	1109.094	885.186
386.102	29.154	1108.120	884.797
387.117	29.113	1107.487	884.018
388.132	29.057	1106.557	882.926
389.146	29.053	1106.049	882.421
390.161	28.972	1105.489	881.512
391.175	28.990	1104.996	881.127
392.190	29.208	1104.218	881.469
393.205	29.111	1103.398	880.276
394.219	29.106	1102.497	879.453
395.234	29.045	1102.250	878.887
396.248	29.246	1101.081	878.837
397.263	29.175	1100.457	877.921
398.278	29.149	1100.077	877.416
399.292	29.278	1099.611	877.584
400.307	29.272	1098.748	876.790
401.321	29.256	1097.815	875.888
402.336	29.190	1097.360	875.137
403.350	29.148	1097.000	874.571
404.365	29.316	1096.131	874.601
405.380	29.279	1095.355	873.729
406.394	29.278	1094.710	873.129
407.409	29.478	1093.713	873.205
408.423	29.378	1093.095	872.159
409.438	29.450	1092.611	872.039
410.453	29.418	1091.797	871.161
411.467	29.472	1091.060	870.751
412.482	29.404	1090.711	870.074
413.496	29.388	1090.105	869.439
414.511	29.368	1089.517	868.798
415.526	29.472	1089.113	868.885
416.540	29.456	1088.730	868.431
417.555	29.430	1088.168	867.782
418.569	29.454	1087.547	867.324
419.584	29.556	1086.729	867.074
420.599	29.470	1086.627	866.509
421.613	103.023	1320.038	1450.388
422.628	95.960	1354.023	1450.518
