DTS Sentinel unit serial number:	SN413079Multiplexer serial number:	ORYXHardware model number:	OX4-SRSoftware version number:	ORYX F/W v4.00 Oryx Data Collector v3.7.2.0data status	okinstallation	princeton_trtdifferential loss correction	single-endedforward channel	channel 2reverse channel	N/Adate	2019/09/12time	06:57:11forward acquisition time	60.00reverse acquisition time	0.00gamma	496.2192k internal	0.2325k external	0.2325temperature offset calibration	1.0065default loss term (dB/km)	0.3790temperature slope calibration	1.0000multiplexer offset coefficient	1.0000multiplexer slope coefficient	1.0000fibre end	0.00T internal ref (°C)	32.16T ext. ref 1 (°C)	1.60T ext. ref 2 (°C)	27.31length (m)	temperature (°C)	Stokes	anti-Stokes-747.200	140.530	0.330	0.439
-746.185	-55.066	0.410	0.186
-745.171	256.677	0.059	0.102
-744.156	800.000	0.068	0.297
-743.142	143.505	0.296	-0.398
-742.127	9.006	0.235	-0.179
-741.112	800.000	-0.097	-0.313
-740.098	20.471	-0.408	0.333
-739.083	800.000	0.049	-0.209
-738.069	800.000	-0.051	-0.145
-737.054	35.503	0.163	-0.145
-736.039	279.016	-0.031	0.056
-735.025	-200.000	0.075	0.508
-734.010	-119.377	-0.306	0.054
-732.996	41.478	-0.222	-0.202
-731.981	85.760	0.121	0.134
-730.966	-200.000	0.038	0.277
-729.952	12.710	0.142	0.111
-728.937	-181.797	-0.183	0.004
-727.923	-200.000	0.071	-0.405
-726.908	18.555	-0.077	-0.062
-725.894	123.688	0.244	-0.309
-724.879	-19.952	-0.195	-0.121
-723.864	-164.405	-0.093	0.004
-722.850	-200.000	0.015	-0.199
-721.835	768.367	0.092	0.254
-720.821	-123.344	-0.199	-0.032
-719.806	11.270	-0.112	0.086
-718.791	-147.724	-0.193	-0.016
-717.777	213.984	-0.249	-0.397
-716.762	54.069	-0.157	0.152
-715.748	517.545	-0.111	0.261
-714.733	101.381	-0.070	0.082
-713.718	-90.211	-0.248	-0.073
-712.704	568.495	-0.017	-0.042
-711.689	-78.351	0.177	-0.061
-710.675	113.622	0.139	0.170
-709.660	115.104	0.346	0.426
-708.645	-121.047	0.090	-0.015
-707.631	499.400	-0.145	0.336
-706.616	-200.000	-0.016	0.167
-705.602	172.233	-0.086	-0.125
-704.587	-81.127	0.122	0.041
-703.572	-200.000	0.057	0.270
-702.558	-110.571	-0.302	-0.063
-701.543	49.959	-0.093	0.088
-700.529	-200.000	0.008	0.080
-699.514	626.798	-0.097	-0.246
-698.499	-200.000	0.035	-0.595
-697.485	83.661	-0.119	0.131
-696.470	-111.984	-0.219	-0.045
-695.456	192.075	0.054	-0.082
-694.441	-109.936	-0.099	-0.021
-693.426	-137.975	-0.191	-0.021
-692.412	25.324	0.067	-0.056
-691.397	-129.859	0.225	0.031
-690.383	-200.000	-0.083	-0.454
-689.368	81.904	0.244	-0.266
-688.354	-40.032	-0.561	0.295
-687.339	-200.000	0.046	0.296
-686.324	351.794	-0.057	0.113
-685.310	-22.231	0.295	-0.180
-684.295	-200.000	0.001	0.225
-683.281	222.182	-0.126	-0.203
-682.266	-112.524	0.093	-0.019
-681.251	-81.402	-0.071	0.023
-680.237	166.736	0.250	-0.357
-679.222	56.686	0.106	0.104
-678.208	-105.838	-0.268	-0.061
-677.193	554.675	0.059	-0.144
-676.178	-0.104	-0.523	0.375
-675.164	-200.000	0.015	0.294
-674.149	33.487	0.019	-0.016
-673.135	277.872	0.167	0.300
-672.120	-113.187	0.240	-0.048
-671.105	-200.000	-0.014	0.141
-670.091	-10.066	-0.162	0.108
-669.076	-120.412	-0.212	-0.036
-668.062	358.639	0.174	0.350
-667.047	-200.000	-0.070	0.366
-666.032	-45.773	0.138	0.069
-665.018	-200.000	0.003	0.072
-664.003	-84.070	0.216	0.069
-662.989	40.445	0.306	-0.277
-661.974	-130.581	0.050	-0.007
-660.959	-34.701	-0.302	-0.166
-659.945	11.496	0.193	-0.149
-658.930	-82.892	0.308	0.100
-657.916	-200.000	0.014	-0.142
-656.901	-110.327	0.276	0.058
-655.886	-170.630	-0.302	0.011
-654.872	419.006	0.141	-0.303
-653.857	-200.000	0.020	-0.261
-652.843	228.564	-0.127	0.209
-651.828	105.942	-0.058	-0.069
-650.814	31.560	-0.202	-0.175
-649.799	81.679	-0.310	0.337
-648.784	800.000	0.059	0.170
-647.770	-117.683	-0.325	-0.059
-646.755	-200.000	-0.008	-0.140
-645.741	800.000	-0.067	-0.193
-644.726	161.422	0.163	0.229
-643.711	307.624	0.137	0.257
-642.697	5.992	0.347	0.258
-641.682	-44.958	-0.163	-0.082
-640.668	-113.784	0.056	-0.011
-639.653	-200.000	-0.069	-0.325
-638.638	800.000	0.020	0.072
-637.624	-17.349	-0.439	0.278
-636.609	1.514	0.209	-0.151
-635.595	-82.032	0.102	-0.034
-634.580	216.788	-0.195	-0.312
-633.565	-81.920	0.239	0.079
-632.551	800.000	-0.085	0.262
-631.536	800.000	-0.078	0.264
-630.522	-157.395	0.653	-0.040
-629.507	-148.007	-0.353	0.030
-628.492	-102.425	-0.327	0.079
-627.478	-200.000	0.001	0.166
-626.463	-74.031	-0.280	0.102
-625.449	535.406	0.027	0.064
-624.434	-66.568	0.123	-0.049
-623.419	182.697	-0.191	-0.283
-622.405	-92.768	-0.101	-0.029
-621.390	-200.000	0.032	0.141
-620.376	276.141	-0.124	0.221
-619.361	-200.000	-0.021	-0.453
-618.346	13.024	0.158	-0.123
-617.332	800.000	-0.047	-0.136
-616.317	-200.000	0.017	0.386
-615.303	-96.657	-0.037	0.010
-614.288	591.739	0.043	0.107
-613.273	101.092	0.095	0.111
-612.259	-135.328	0.144	-0.017
-611.244	-105.791	-0.162	-0.037
-610.230	55.724	0.062	0.061
-609.215	34.611	0.249	-0.218
-608.201	21.763	-0.141	0.115
-607.186	-200.000	-0.017	0.092
-606.171	20.898	0.132	-0.107
-605.157	40.381	-0.088	0.079
-604.142	-200.000	0.018	0.198
-603.128	-136.714	0.270	0.031
-602.113	114.093	0.153	0.187
-601.098	-144.611	-0.107	0.010
-600.084	179.520	0.099	0.145
-599.069	158.844	0.144	0.200
-598.055	-200.000	0.027	-0.134
-597.040	-200.000	0.032	0.203
-596.025	14.748	-0.098	0.077
-595.011	137.978	-0.082	0.108
-593.996	-200.000	0.015	0.139
-592.982	-200.000	-0.034	-0.163
-591.967	317.986	0.103	0.196
-590.952	-200.000	0.031	-0.193
-589.938	103.366	0.182	-0.214
-588.923	-110.894	0.201	-0.042
-587.909	3.969	-0.208	0.152
-586.894	-153.294	0.341	0.024
-585.879	163.723	-0.087	0.123
-584.865	165.008	0.028	0.040
-583.850	-200.000	-0.004	0.179
-582.836	491.550	0.052	-0.119
-581.821	-84.624	0.120	0.038
-580.806	-200.000	0.011	0.174
-579.792	67.219	-0.240	-0.245
-578.777	800.000	0.024	-0.091
-577.763	-96.408	-0.067	0.018
-576.748	-87.366	-0.464	-0.141
-575.733	-162.808	0.092	-0.004
-574.719	41.195	-0.026	0.023
-573.704	553.141	-0.133	0.321
-572.690	-69.377	-0.011	0.004
-571.675	464.071	-0.159	0.355
-570.661	92.649	0.189	0.214
-569.646	-101.538	-0.128	0.031
-568.631	-54.002	-0.280	-0.128
-567.617	800.000	-0.085	-0.292
-566.602	-200.000	0.018	-0.145
-565.588	-15.293	0.200	-0.128
-564.573	-99.024	0.280	-0.071
-563.558	-66.992	-0.171	0.068
-562.544	-184.204	0.339	0.006
-561.529	268.242	-0.156	-0.275
-560.515	-51.228	0.226	-0.106
-559.500	800.000	-0.045	0.192
-558.485	-26.223	-0.171	-0.100
-557.471	-200.000	-0.040	-0.324
-556.456	-200.000	-0.013	-0.354
-555.442	-126.603	-0.554	0.082
-554.427	-96.437	0.418	0.111
-553.412	-45.909	-0.147	0.073
-552.398	15.619	0.117	0.092
-551.383	-30.528	0.080	0.046
-550.369	-200.000	0.032	0.158
-549.354	-44.410	0.227	-0.114
-548.339	-35.967	0.240	0.130
-547.325	56.218	0.160	0.155
-546.310	-8.964	0.179	0.120
-545.296	110.430	-0.071	-0.086
-544.281	328.176	-0.040	-0.077
-543.266	-78.011	-0.080	-0.027
-542.252	800.000	0.052	0.205
-541.237	-76.871	-0.196	0.069
-540.223	-79.030	-0.095	0.032
-539.208	-41.920	-0.198	0.102
-538.193	65.589	0.128	0.130
-537.179	-101.689	-0.488	-0.119
-536.164	78.489	-0.158	-0.169
-535.150	184.747	-0.106	0.157
-534.135	-120.854	0.424	0.072
-533.121	-138.093	-0.140	0.016
-532.106	-67.020	-0.460	-0.182
-531.091	800.000	0.061	-0.213
-530.077	-46.122	0.138	0.068
-529.062	405.069	0.129	0.272
-528.048	58.300	0.220	-0.216
-527.033	800.000	-0.063	0.194
-526.018	-200.000	-0.013	-0.078
-525.004	-200.000	-0.004	-0.148
-523.989	210.656	-0.116	0.183
-522.975	-140.146	0.201	-0.021
-521.960	-69.382	0.084	-0.032
-520.945	-96.905	-0.078	0.021
-519.931	800.000	-0.089	0.296
-518.916	119.152	0.079	-0.098
-517.902	-127.418	-0.181	0.026
-516.887	126.525	0.045	-0.057
-515.872	172.354	-0.236	0.339
-514.858	605.744	0.014	-0.034
-513.843	254.242	0.155	-0.264
-512.829	-159.103	0.262	0.015
-511.814	-200.000	0.038	0.168
-510.799	-200.000	0.008	0.336
-509.785	-151.299	0.322	-0.024
-508.770	239.927	-0.173	-0.289
-507.756	800.000	0.054	-0.189
-506.741	66.361	-0.122	0.123
-505.726	71.555	0.190	-0.197
-504.712	-149.087	-0.243	-0.019
-503.697	24.085	-0.187	-0.154
-502.683	-200.000	0.045	-0.217
-501.668	-111.524	-0.182	0.037
-500.653	-79.110	-0.445	0.151
-499.639	-127.280	0.396	-0.058
-498.624	-153.572	-0.290	0.020
-497.610	-200.000	0.025	-0.274
-496.595	12.094	-0.140	-0.107
-495.581	-128.289	-0.220	0.031
-494.566	-120.319	-0.172	-0.029
-493.551	61.223	0.249	0.247
-492.537	800.000	-0.050	0.158
-491.522	-200.000	-0.027	0.224
-490.508	-155.211	-0.337	0.022
-489.493	763.697	-0.084	-0.227
-488.478	-128.320	-0.214	-0.030
-487.464	800.000	0.012	-0.049
-486.449	-63.478	-0.189	-0.077
-485.435	-200.000	0.207	0.000
-484.420	168.694	-0.106	-0.151
-483.405	-23.273	0.172	-0.104
-482.391	112.653	-0.126	-0.153
-481.376	-22.075	-0.074	0.045
-480.362	474.627	-0.024	-0.053
-479.347	-10.935	0.338	-0.223
-478.332	584.308	0.057	-0.139
-477.318	-153.048	0.064	-0.004
-476.303	179.822	-0.094	0.138
-475.289	-200.000	0.022	0.110
-474.274	-84.817	0.090	-0.028
-473.259	-125.036	-0.178	0.027
-472.245	-200.000	-0.014	-0.242
-471.230	-48.920	0.089	-0.042
-470.216	-26.037	0.467	-0.274
-469.201	64.224	0.241	-0.242
-468.186	-32.476	0.181	-0.101
-467.172	-22.403	-0.073	0.044
-466.157	74.649	-0.119	-0.125
-465.143	298.380	-0.193	-0.355
-464.128	536.621	0.152	-0.360
-463.113	21.773	-0.117	-0.095
-462.099	-32.613	0.393	-0.218
-461.084	231.930	-0.088	0.145
-460.070	800.000	-0.049	-0.210
-459.055	-106.339	-0.314	-0.070
-458.040	-110.467	0.240	-0.050
-457.026	-200.000	-0.007	0.106
-456.011	-28.072	0.314	-0.181
-454.997	-136.852	-0.337	-0.039
-453.982	-137.650	0.128	0.014
-452.968	21.975	-0.142	-0.116
-451.953	179.664	0.199	-0.291
-450.938	-200.000	0.022	-0.135
-449.924	323.933	-0.086	-0.163
-448.909	186.532	-0.072	0.107
-447.895	800.000	0.085	-0.308
-446.880	365.763	-0.045	-0.090
-445.865	24.262	-0.329	-0.271
-444.851	-200.000	-0.108	-0.711
-443.836	-121.080	-0.082	0.014
-442.822	358.138	0.087	0.173
-441.807	-12.597	-0.143	0.093
-440.792	-121.241	0.249	-0.041
-439.778	-90.748	-0.253	-0.073
-438.763	-154.030	0.287	-0.019
-437.749	-108.739	-0.500	-0.107
-436.734	61.653	-0.135	-0.134
-435.719	-178.897	-0.268	0.006
-434.705	-50.880	0.037	-0.017
-433.690	129.203	-0.081	-0.103
-432.676	800.000	-0.085	0.263
-431.661	-142.756	0.270	0.026
-430.646	62.567	-0.046	0.045
-429.632	743.398	0.139	0.372
-428.617	-120.049	-0.219	0.037
-427.603	162.315	-0.043	-0.061
-426.588	98.413	0.134	0.153
-425.573	265.844	0.066	0.115
-424.559	-45.180	0.248	-0.123
-423.544	343.041	-0.035	-0.069
-422.530	61.976	0.241	-0.240
-421.515	800.000	0.074	-0.273
-420.500	37.543	-0.239	-0.211
-419.486	-139.210	-0.080	-0.009
-418.471	303.883	-0.085	0.157
-417.457	800.000	-0.088	-0.256
-416.442	-200.000	-0.039	0.174
-415.428	217.485	-0.147	0.234
-414.413	-59.552	-0.184	0.079
-413.398	110.029	0.149	0.178
-412.384	224.353	0.230	-0.370
-411.369	197.228	-0.082	-0.125
-410.355	149.215	-0.173	0.233
-409.340	-200.000	-0.013	0.157
-408.325	-81.001	-0.107	0.035
-407.311	-87.987	0.324	-0.097
-406.296	-81.830	-0.239	-0.078
-405.282	-90.226	0.298	0.086
-404.267	324.507	-0.095	-0.182
-403.252	-39.319	0.256	-0.134
-402.238	800.000	-0.092	0.323
-401.223	-200.000	-0.034	-0.430
-400.209	-106.220	0.109	0.024
-399.194	250.354	-0.261	-0.442
-398.179	-106.939	0.190	0.042
-397.165	118.242	-0.308	0.378
-396.150	-18.058	0.456	0.284
-395.136	-72.167	-0.307	-0.114
-394.121	-103.353	0.306	-0.072
-393.106	24.262	0.271	-0.223
-392.092	-62.857	-0.382	-0.157
-391.077	142.211	-0.019	0.025
-390.063	-29.737	-0.251	-0.142
-389.048	651.060	0.081	0.206
-388.033	-28.709	0.528	-0.302
-387.019	178.265	-0.033	-0.048
-386.004	246.583	0.036	-0.060
-384.990	-87.625	-0.201	0.061
-383.975	-96.785	-0.236	-0.062
-382.960	194.237	-0.121	-0.182
-381.946	-56.335	0.319	-0.141
-380.931	-96.476	-0.299	0.079
-379.917	-120.541	-0.575	-0.097
-378.902	126.722	0.048	0.060
-377.888	430.224	0.086	-0.184
-376.873	169.657	0.057	0.080
-375.858	-169.738	-0.149	-0.005
-374.844	-200.000	0.024	0.388
-373.829	1.364	0.317	0.227
-372.815	-200.000	-0.009	-0.083
-371.800	-168.859	-0.449	-0.017
-370.785	800.000	-0.077	0.211
-369.771	687.386	0.072	-0.187
-368.756	-200.000	-0.028	-0.252
-367.742	238.429	-0.088	0.146
-366.727	-47.213	-0.281	-0.136
-365.712	65.272	0.158	0.159
-364.698	-200.000	0.012	0.078
-363.683	-200.000	-0.001	-0.242
-362.669	97.613	-0.080	-0.091
-361.654	-1.894	0.111	-0.078
-360.639	88.011	-0.012	0.013
-359.625	-32.012	-0.210	0.117
-358.610	800.000	-0.061	-0.229
-357.596	-28.549	-0.217	0.124
-356.581	-99.268	-0.314	0.079
-355.566	-170.651	0.225	-0.008
-354.552	238.718	-0.025	-0.041
-353.537	164.905	0.190	0.266
-352.523	-59.569	0.156	0.067
-351.508	-200.000	0.009	0.135
-350.493	-114.169	-0.648	-0.124
-349.479	-29.212	0.075	-0.043
-348.464	-67.994	0.302	0.117
-347.450	-200.000	-0.025	0.304
-346.435	-111.697	-0.195	-0.039
-345.420	139.063	0.103	0.135
-344.406	43.825	-0.233	-0.212
-343.391	800.000	0.066	-0.222
-342.377	-200.000	-0.012	0.203
-341.362	-200.000	-0.044	0.233
-340.348	211.531	-0.077	-0.120
-339.333	-200.000	0.043	0.194
-338.318	800.000	0.031	0.107
-337.304	-162.825	0.186	0.009
-336.289	-107.316	-0.199	-0.044
-335.275	-200.000	-0.014	-0.119
-334.260	-75.647	-0.180	-0.064
-333.245	-76.060	-0.218	-0.076
-332.231	54.130	-0.155	-0.148
-331.216	-143.767	0.227	0.021
-330.202	126.715	-0.107	-0.135
-329.187	139.652	0.053	-0.069
-328.172	-200.000	0.008	0.180
-327.158	-200.000	-0.000	0.108
-326.143	-200.000	-0.084	-0.407
-325.129	-103.447	0.410	0.096
-324.114	777.131	-0.093	-0.252
-323.099	-79.809	0.108	0.036
-322.085	-48.474	0.333	0.159
-321.070	93.769	-0.141	0.159
-320.056	281.215	0.041	-0.072
-319.041	-200.000	0.002	0.190
-318.026	-200.000	0.033	0.424
-317.012	329.871	-0.063	0.120
-315.997	-94.538	-0.220	-0.059
-314.983	-73.767	-0.169	-0.061
-313.968	-159.319	0.430	-0.024
-312.953	233.570	-0.129	0.210
-311.939	-70.307	0.280	0.106
-310.924	-178.940	-0.087	-0.002
-309.910	-145.079	0.293	-0.026
-308.895	551.418	-0.016	0.038
-307.880	79.085	0.113	0.120
-306.866	57.085	0.113	-0.109
-305.851	-83.194	0.113	0.036
-304.837	-6.200	-0.191	0.129
-303.822	-35.214	0.125	0.067
-302.807	342.151	-0.100	0.194
-301.793	161.233	0.079	-0.109
-300.778	-172.315	0.197	-0.006
-299.764	-200.000	0.015	0.304
-298.749	87.369	-0.082	0.090
-297.735	-0.242	-0.211	0.149
-296.720	-13.239	-0.171	0.110
-295.705	-84.571	0.062	0.019
-294.691	800.000	-0.059	0.207
-293.676	800.000	0.053	-0.178
-292.662	800.000	-0.075	-0.256
-291.647	369.859	0.137	0.274
-290.632	-50.911	0.101	-0.047
-289.618	800.000	-0.065	0.263
-288.603	161.616	0.033	-0.046
-287.589	749.954	0.076	0.204
-286.574	387.298	-0.127	0.260
-285.559	-200.000	0.035	0.166
-284.545	110.422	0.138	-0.165
-283.530	4.260	0.184	-0.133
-282.516	33.614	0.418	0.360
-281.501	451.654	0.136	0.297
-280.486	725.633	-0.074	-0.196
-279.472	-200.000	-0.028	0.275
-278.457	-114.373	-0.278	0.053
-277.443	-200.000	-0.042	-0.325
-276.428	97.865	0.143	0.163
-275.413	800.000	0.022	-0.094
-274.399	50.153	0.267	-0.249
-273.384	-99.496	0.147	0.037
-272.370	610.182	0.140	-0.347
-271.355	-34.280	-0.076	-0.041
-270.340	-200.000	-0.041	-0.434
-269.326	-14.516	-0.255	-0.163
-268.311	-111.063	-0.145	-0.029
-267.297	-25.279	0.085	-0.050
-266.282	-20.581	-0.258	-0.157
-265.267	71.939	0.247	0.255
-264.253	-43.940	-0.065	-0.032
-263.238	-109.601	0.090	-0.019
-262.224	255.952	-0.112	0.190
-261.209	-162.874	0.172	0.008
-260.195	-200.000	0.005	0.220
-259.180	49.856	-0.168	0.157
-258.165	124.173	0.176	0.219
-257.151	47.585	0.282	0.260
-256.136	-18.091	-0.131	0.081
-255.122	35.989	0.208	0.181
-254.107	-89.566	0.171	0.050
-253.092	118.589	-0.154	-0.188
-252.078	600.584	-0.102	-0.252
-251.063	-200.000	-0.023	0.158
-250.049	-200.000	-0.017	-0.253
-249.034	29.885	0.278	-0.234
-248.019	-135.844	-0.082	0.010
-247.005	177.025	0.121	0.174
-245.990	-65.374	0.486	0.193
-244.976	-200.000	0.009	-0.102
-243.961	-51.868	0.444	0.204
-242.946	-154.447	0.309	-0.021
-241.932	391.820	0.125	-0.257
-240.917	-171.361	0.324	-0.011
-239.903	-42.470	-0.337	-0.170
-238.888	456.633	-0.017	0.037
-237.873	800.000	-0.108	0.338
-236.859	-200.000	-0.067	-0.299
-235.844	-58.226	-0.180	0.078
-234.830	-15.271	-0.141	0.089
-233.815	800.000	0.073	0.277
-232.800	-31.642	0.268	0.149
-231.786	-100.588	0.115	-0.028
-230.771	800.000	0.148	-0.443
-229.757	-200.000	0.008	-0.207
-228.742	113.624	0.152	-0.182
-227.727	-189.335	-0.117	-0.001
-226.713	-117.783	0.375	0.067
-225.698	-100.628	-0.118	0.029
-224.684	-166.631	0.171	-0.007
-223.669	-131.487	-0.298	0.039
-222.655	800.000	-0.029	-0.118
-221.640	-22.176	-0.320	-0.192
-220.625	22.235	0.294	-0.237
-219.611	175.124	0.074	-0.106
-218.596	-112.920	0.281	-0.055
-217.582	-200.000	0.018	-0.448
-216.567	-200.000	0.041	0.299
-215.552	-52.242	-0.046	-0.021
-214.538	-127.088	-0.047	-0.007
-213.523	-106.344	-0.373	-0.083
-212.509	-200.000	0.089	-0.415
-211.494	66.058	-0.095	0.096
-210.479	-111.350	0.210	0.042
-209.465	800.000	0.076	0.237
-208.450	-200.000	0.042	-0.276
-207.436	541.787	0.062	-0.146
-206.421	33.089	-0.238	-0.203
-205.406	479.564	0.047	-0.106
-204.392	800.000	-0.064	-0.192
-203.377	800.000	-0.126	0.372
-202.363	535.099	0.215	0.503
-201.348	-56.089	0.142	0.062
-200.333	-2.462	-0.224	0.155
-199.319	269.684	-0.233	0.404
-198.304	-22.340	-0.071	0.043
-197.290	-178.990	0.366	0.008
-196.275	-53.527	0.303	0.137
-195.260	-126.704	-0.097	0.014
-194.246	-200.000	0.004	0.476
-193.231	228.805	0.024	0.039
-192.217	164.850	0.117	0.164
-191.202	-200.000	0.067	-0.408
-190.187	-200.000	-0.050	-0.312
-189.173	-10.662	0.158	0.103
-188.158	120.838	0.074	-0.091
-187.144	66.028	-0.153	0.154
-186.129	162.651	-0.139	0.193
-185.114	-140.404	0.043	0.004
-184.100	99.956	-0.096	0.109
-183.085	-183.880	-0.195	0.003
-182.071	-200.000	-0.032	-0.207
-181.056	-9.103	-0.142	-0.094
-180.042	34.718	-0.150	0.129
-179.027	-17.900	-0.237	0.147
-178.012	299.964	-0.165	-0.300
-176.998	554.820	0.038	-0.091
-175.983	800.000	-0.061	0.199
-174.969	-87.575	0.266	0.079
-173.954	-135.724	-0.255	0.030
-172.939	131.495	-0.186	0.236
-171.925	800.000	-0.025	0.097
-170.910	-83.780	-0.097	0.030
-169.896	16.167	-0.254	0.198
-168.881	-36.430	0.182	-0.097
-167.866	-172.626	0.520	0.016
-166.852	800.000	0.114	-0.347
-165.837	169.550	0.230	0.324
-164.823	161.360	-0.171	0.236
-163.808	77.131	0.104	-0.109
-162.793	-128.808	-0.193	0.027
-161.779	-78.075	0.175	0.059
-160.764	117.022	-0.152	-0.184
-159.750	-83.905	-0.039	-0.012
-158.735	-157.719	0.043	-0.003
-157.720	3.661	-0.267	0.192
-156.706	100.568	-0.195	0.223
-155.691	106.335	0.082	-0.096
-154.677	-158.714	0.412	0.023
-153.662	-200.000	0.018	0.432
-152.647	615.267	-0.007	-0.018
-151.633	585.630	0.146	-0.353
-150.618	132.355	-0.076	0.096
-149.604	-59.548	0.299	-0.127
-148.589	800.000	0.009	0.038
-147.574	-200.000	0.027	-0.161
-146.560	-200.000	0.020	-0.287
-145.545	-31.700	0.479	0.265
-144.531	-9.037	-0.157	-0.104
-143.516	-200.000	0.020	-0.171
-142.502	-18.667	-0.149	0.092
-141.487	-72.613	-0.356	0.130
-140.472	800.000	-0.034	-0.127
-139.458	91.211	0.134	-0.148
-138.443	-48.905	0.265	-0.125
-137.429	87.991	0.254	-0.278
-136.414	219.150	-0.150	0.237
-135.399	48.233	0.143	0.132
-134.385	6.803	0.082	-0.060
-133.370	800.000	0.051	0.143
-132.356	-200.000	0.002	-0.122
-131.341	-75.043	-0.178	-0.063
-130.326	-170.961	0.370	0.012
-129.312	712.879	0.108	-0.281
-128.297	-174.074	0.268	-0.008
-127.283	201.460	-0.180	-0.274
-126.268	-139.080	0.105	-0.011
-125.253	-20.779	0.201	0.122
-124.239	8.830	-0.222	0.165
-123.224	-200.000	0.012	0.180
-122.210	-13.282	-0.131	0.084
-121.195	234.052	-0.187	-0.303
-120.180	-200.000	0.007	-0.116
-119.166	122.908	0.138	-0.170
-118.151	496.915	0.125	-0.284
-117.137	-143.848	0.135	0.013
-116.122	800.000	-0.060	0.165
-115.107	-61.355	-0.209	-0.087
-114.093	2.002	0.177	0.126
-113.078	115.582	0.160	0.193
-112.064	800.000	0.060	-0.182
-111.049	50.180	-0.183	-0.170
-110.034	-55.590	-0.157	0.069
-109.020	4.984	0.336	0.243
-108.005	-65.938	0.238	-0.094
-106.991	800.000	-0.063	-0.247
-105.976	-48.140	-0.228	-0.108
-104.962	-35.787	0.070	-0.037
-103.947	-200.000	0.014	0.096
-102.932	-38.293	-0.072	0.038
-101.918	109.352	0.140	0.165
-100.903	-200.000	-0.054	-0.338
-99.889	-77.449	-0.220	0.075
-98.874	133.675	0.075	0.096
-97.859	318.509	0.080	-0.150
-96.845	800.000	-0.039	-0.162
-95.830	58.772	-0.336	0.325
-94.816	-200.000	-0.037	0.295
-93.801	-42.472	-0.174	0.087
-92.786	42.709	0.166	0.149
-91.772	691.460	0.069	0.178
-90.757	-101.897	0.309	0.073
-89.743	175.580	-0.186	0.265
-88.728	404.199	0.173	0.358
-87.713	-200.000	-0.029	0.214
-86.699	-200.000	0.062	-0.295
-85.684	-108.266	-0.470	0.100
-84.670	-200.000	0.014	0.130
-83.655	-200.000	0.015	0.224
-82.640	-57.963	-0.271	-0.116
-81.626	4.447	0.157	-0.114
-80.611	-22.783	0.357	0.212
-79.597	86.665	0.091	0.098
-78.582	-127.275	0.195	-0.028
-77.567	-200.000	0.251	0.001
-76.553	46.035	-0.231	0.210
-75.538	800.000	-0.069	-0.292
-74.524	259.287	-0.062	0.106
-73.509	349.902	-0.155	0.301
-72.494	-20.474	-0.153	0.092
-71.480	800.000	-0.057	0.212
-70.465	583.736	0.032	0.077
-69.451	-22.473	0.062	0.037
-68.436	-55.728	0.103	-0.045
-67.422	659.564	0.107	0.271
-66.407	-144.897	-0.095	0.009
-65.392	-189.903	0.029	-0.000
-64.378	506.230	0.111	-0.254
-63.363	-200.000	0.028	0.132
-62.349	-162.315	-0.180	-0.009
-61.334	190.004	-0.901	-1.328
-60.319	-73.327	0.770	0.277
-59.305	438.518	-0.305	-0.653
-58.290	87.444	0.874	0.950
-57.276	475.244	0.736	1.633
-56.261	-200.000	96.028	594.364
-55.246	568.732	1371.954	3275.420
-54.232	160.328	2559.628	3506.822
-53.217	106.805	2271.734	2648.770
-52.203	41.637	1897.160	1687.928
-51.188	35.539	1686.753	1454.653
-50.173	32.795	1642.976	1396.561
-49.159	50.216	1689.021	1566.738
-48.144	51.863	1705.345	1594.164
-47.130	35.094	1666.227	1433.392
-46.115	32.266	1652.352	1400.372
-45.100	32.125	1647.040	1394.765
-44.086	32.106	1644.327	1392.272
-43.071	32.076	1642.069	1390.082
-42.057	32.108	1639.477	1388.067
-41.042	32.062	1637.739	1386.204
-40.027	32.059	1635.916	1384.583
-39.013	31.959	1634.119	1382.274
-37.998	31.939	1632.906	1381.046
-36.984	32.016	1631.132	1380.054
-35.969	32.148	1629.226	1379.357
-34.954	32.154	1627.809	1378.147
-33.940	32.117	1626.000	1376.289
-32.925	32.145	1624.635	1375.285
-31.911	32.106	1622.658	1373.268
-30.896	32.136	1620.495	1371.605
-29.881	32.122	1618.983	1370.171
-28.867	32.126	1617.672	1369.036
-27.852	32.141	1615.792	1367.499
-26.838	32.231	1614.102	1366.671
-25.823	32.118	1613.018	1364.872
-24.809	32.170	1611.683	1364.068
-23.794	32.075	1610.526	1362.342
-22.779	32.212	1608.630	1361.680
-21.765	32.111	1607.486	1359.926
-20.750	32.185	1605.479	1358.712
-19.736	32.224	1604.323	1357.957
-18.721	32.191	1602.800	1356.381
-17.706	32.154	1601.143	1354.658
-16.692	32.251	1599.762	1354.133
-15.677	32.214	1598.876	1353.061
-14.663	32.196	1597.120	1351.392
-13.648	32.320	1595.381	1350.760
-12.633	32.166	1594.390	1348.759
-11.619	32.274	1592.225	1347.647
-10.604	32.270	1590.913	1346.454
-9.590	32.162	1589.779	1344.671
-8.575	32.231	1588.643	1344.146
-7.560	32.172	1587.568	1342.764
-6.546	32.267	1586.093	1342.141
-5.531	32.260	1584.863	1340.999
-4.517	32.196	1583.511	1339.345
-3.502	32.252	1582.981	1339.244
-2.487	32.200	1581.153	1337.276
-1.473	31.910	1569.767	1325.540
-0.458	29.239	1550.372	1290.438
0.556	25.691	1551.101	1259.855
1.571	23.533	1574.389	1263.307
2.586	23.022	1588.184	1270.592
3.600	20.133	1533.584	1206.723
4.615	10.898	1422.216	1059.101
5.629	2.976	1357.776	961.600
6.644	1.746	1349.704	948.141
7.659	1.589	1347.967	945.863
8.673	1.539	1347.558	945.182
9.688	1.526	1345.193	943.360
10.702	1.286	1342.168	939.669
11.717	4.686	1349.112	965.579
12.731	14.723	1367.997	1041.909
13.746	23.503	1382.638	1108.078
14.761	25.942	1385.980	1125.910
15.775	26.269	1385.920	1127.809
16.790	26.372	1385.511	1128.014
17.804	26.484	1385.193	1128.358
18.819	26.727	1385.144	1129.732
19.834	26.738	1384.417	1129.104
20.848	26.759	1383.681	1128.538
21.863	26.926	1382.527	1128.536
22.877	26.738	1381.774	1126.653
23.892	26.790	1380.582	1125.905
24.907	26.816	1380.077	1125.551
25.921	26.763	1378.781	1124.066
26.936	26.675	1378.354	1123.073
27.950	26.813	1377.126	1122.831
28.965	26.786	1376.003	1121.651
29.980	26.842	1374.635	1120.779
30.994	26.777	1373.605	1119.437
32.009	26.758	1372.477	1118.303
33.023	26.799	1371.160	1117.384
34.038	26.793	1370.246	1116.502
35.053	26.799	1369.169	1115.565
36.067	26.802	1368.023	1114.550
37.082	26.842	1367.147	1113.985
38.096	26.849	1366.633	1113.506
39.111	26.766	1366.160	1112.512
40.126	26.794	1365.011	1111.656
41.140	26.777	1365.010	1111.451
42.155	26.789	1364.161	1110.732
43.169	26.795	1364.272	1110.765
44.184	26.773	1364.171	1110.444
45.199	26.881	1363.364	1110.350
46.213	26.858	1362.614	1109.503
47.228	26.798	1362.192	1108.696
48.242	26.774	1360.859	1107.364
49.257	26.798	1359.354	1106.187
50.271	26.780	1357.969	1104.856
51.286	26.876	1356.353	1104.028
52.301	26.755	1355.697	1102.656
53.315	26.695	1354.645	1101.338
54.330	26.769	1353.990	1101.162
55.344	26.855	1352.347	1100.251
56.359	26.787	1351.494	1099.046
57.374	26.739	1351.071	1098.310
58.388	26.841	1350.322	1098.227
59.403	26.843	1349.564	1097.523
60.417	26.796	1348.776	1096.500
61.432	26.698	1348.570	1095.643
62.447	26.865	1347.139	1095.391
63.461	26.854	1346.196	1094.464
64.476	26.766	1345.510	1093.275
65.490	26.826	1344.212	1092.485
66.505	26.830	1343.113	1091.519
67.520	26.700	1341.540	1089.362
68.534	26.889	1340.344	1089.431
69.549	26.922	1339.195	1088.599
70.563	26.827	1338.608	1087.457
71.578	26.855	1337.581	1086.696
72.593	26.781	1337.156	1085.810
73.607	26.795	1336.501	1085.265
74.622	26.881	1335.531	1084.896
75.636	26.746	1334.962	1083.533
76.651	26.855	1334.186	1083.459
77.666	26.762	1333.908	1082.578
78.680	26.826	1333.519	1082.552
79.695	26.809	1332.360	1081.409
80.709	26.797	1331.826	1080.811
81.724	26.798	1331.047	1080.088
82.739	26.811	1329.881	1079.124
83.753	26.864	1328.740	1078.417
84.768	26.816	1327.882	1077.339
85.782	26.842	1326.489	1076.272
86.797	26.958	1325.545	1076.099
87.812	26.834	1324.911	1074.752
88.826	26.824	1323.595	1073.531
89.841	26.801	1322.623	1072.509
90.855	26.888	1321.526	1072.043
91.870	26.864	1321.263	1071.592
92.884	26.811	1320.435	1070.510
93.899	26.874	1319.118	1069.720
94.914	26.919	1318.125	1069.087
95.928	26.854	1317.707	1068.268
96.943	26.904	1316.718	1067.669
97.957	26.944	1316.128	1067.332
98.972	26.905	1315.168	1066.230
99.987	26.832	1314.445	1065.116
101.001	26.762	1313.648	1063.965
102.016	26.820	1312.853	1063.567
103.030	26.810	1312.016	1062.737
104.045	26.789	1311.531	1062.131
105.060	26.968	1309.963	1061.815
106.074	26.908	1308.983	1060.576
107.089	26.883	1308.183	1059.686
108.103	26.911	1307.008	1058.803
109.118	26.927	1306.264	1058.197
110.133	26.982	1304.935	1057.351
111.147	26.934	1304.065	1056.273
112.162	26.992	1303.197	1055.813
113.176	26.940	1301.882	1054.352
114.191	26.923	1301.216	1053.623
115.206	26.878	1300.322	1052.540
116.220	26.903	1298.844	1051.401
117.235	26.886	1297.995	1050.517
118.249	26.934	1296.930	1049.844
119.264	27.017	1296.280	1049.700
120.279	27.008	1295.999	1049.330
121.293	26.954	1295.206	1048.283
122.308	26.990	1294.403	1047.746
123.322	27.113	1292.646	1046.945
124.337	27.077	1292.454	1046.489
125.352	26.926	1291.708	1044.924
126.366	26.981	1290.727	1044.354
127.381	26.979	1289.393	1043.170
128.395	26.924	1288.913	1042.370
129.410	26.986	1287.841	1041.767
130.424	27.041	1287.453	1041.681
131.439	27.117	1286.370	1041.143
132.454	26.990	1285.765	1039.835
133.468	27.099	1284.832	1039.612
134.483	27.066	1284.393	1038.977
135.497	27.014	1283.712	1038.038
136.512	27.009	1282.967	1037.316
137.527	26.911	1281.802	1035.721
138.541	26.935	1280.708	1034.885
139.556	26.915	1279.262	1033.507
140.570	26.887	1278.563	1032.692
141.585	26.975	1277.207	1032.006
142.600	26.889	1276.339	1030.726
143.614	26.902	1275.537	1030.058
144.629	26.974	1274.021	1029.152
145.643	26.867	1273.017	1027.644
146.658	26.896	1272.709	1027.469
147.673	26.963	1271.266	1026.595
148.687	26.934	1270.723	1025.901
149.702	26.925	1269.313	1024.620
150.716	26.957	1268.145	1023.765
151.731	26.972	1267.181	1022.980
152.746	26.961	1266.084	1021.947
153.760	27.032	1265.188	1021.530
154.775	26.966	1264.957	1020.884
155.789	26.970	1263.718	1019.817
156.804	27.034	1262.406	1019.026
157.819	27.057	1261.988	1018.726
158.833	27.059	1260.860	1017.739
159.848	27.098	1260.330	1017.436
160.862	27.026	1259.914	1016.610
161.877	27.094	1258.795	1015.997
162.892	27.111	1257.835	1015.227
163.906	27.001	1257.403	1014.173
164.921	27.006	1257.062	1013.836
165.935	27.130	1255.641	1013.294
166.950	27.007	1255.278	1012.221
167.964	27.083	1254.926	1012.275
168.979	27.017	1254.662	1011.603
169.994	27.205	1253.022	1011.236
171.008	27.094	1252.945	1010.469
172.023	27.153	1251.815	1009.795
173.037	27.153	1251.323	1009.311
174.052	27.157	1250.762	1008.787
175.067	27.140	1249.858	1007.879
176.081	27.170	1248.994	1007.257
177.096	27.099	1248.259	1006.181
178.110	27.087	1247.371	1005.312
179.125	27.180	1246.308	1004.877
180.140	27.157	1245.423	1003.947
181.154	27.160	1244.236	1002.919
182.169	27.092	1243.249	1001.661
183.183	27.170	1241.781	1000.820
184.198	27.187	1241.126	1000.295
185.213	27.162	1240.521	999.582
186.227	27.198	1239.428	998.813
187.242	27.180	1238.796	998.115
188.256	27.227	1237.910	997.571
189.271	27.154	1237.169	996.488
190.286	27.197	1236.500	996.094
191.300	27.178	1235.910	995.425
192.315	27.137	1235.427	994.725
193.329	27.214	1235.090	994.787
194.344	27.288	1234.347	994.504
195.359	27.244	1234.062	993.946
196.373	27.176	1233.378	992.934
197.388	27.155	1233.001	992.430
198.402	27.054	1233.310	992.040
199.417	27.137	1232.589	991.825
200.432	27.218	1231.686	991.453
201.446	27.096	1231.349	990.428
202.461	27.181	1230.644	990.234
203.475	27.179	1229.325	989.075
204.490	27.198	1228.488	988.417
205.504	27.125	1227.862	987.433
206.519	27.352	1226.732	987.669
207.534	27.261	1225.977	986.479
208.548	27.189	1225.161	985.342
209.563	27.222	1224.367	984.794
210.577	27.301	1223.527	984.461
211.592	27.279	1222.513	983.440
212.607	27.444	1221.310	983.276
213.621	27.251	1221.350	982.179
214.636	27.362	1220.078	981.669
215.650	27.418	1219.299	981.256
216.665	27.267	1218.727	979.896
217.680	27.303	1217.574	979.078
218.694	27.319	1216.767	978.426
219.709	27.405	1215.961	978.157
220.723	27.401	1215.140	977.384
221.738	27.408	1214.661	976.950
222.753	27.205	1214.308	975.490
223.767	27.321	1213.249	975.174
224.782	27.428	1213.181	975.609
225.796	27.347	1212.974	974.920
226.811	27.448	1211.703	974.358
227.826	27.429	1211.289	973.835
228.840	27.384	1210.765	973.086
229.855	27.447	1209.802	972.563
230.869	27.533	1209.075	972.351
231.884	27.511	1208.469	971.659
232.899	27.421	1207.848	970.593
233.913	27.474	1207.639	970.622
234.928	27.574	1206.739	970.345
235.942	27.509	1205.943	969.275
236.957	27.408	1205.616	968.387
237.972	27.440	1204.792	967.810
238.986	27.463	1204.465	967.584
240.001	27.589	1203.405	967.318
241.015	27.547	1202.545	966.320
242.030	27.586	1201.525	965.618
243.045	27.585	1201.226	965.287
244.059	27.552	1200.681	964.591
245.074	27.696	1199.441	964.269
246.088	27.708	1198.783	963.719
247.103	27.589	1198.062	962.424
248.117	27.514	1197.401	961.415
249.132	27.681	1196.294	961.320
250.147	27.665	1195.735	960.704
251.161	27.607	1195.175	959.862
252.176	27.605	1194.837	959.493
253.190	27.665	1193.865	958.943
254.205	27.675	1193.346	958.498
255.220	27.662	1192.765	957.876
256.234	27.651	1192.296	957.354
257.249	27.729	1191.384	956.948
258.263	27.627	1190.980	956.002
259.278	27.744	1190.115	955.838
260.293	27.690	1190.084	955.445
261.307	27.823	1189.151	955.310
262.322	27.686	1188.815	954.238
263.336	27.711	1188.149	953.748
264.351	27.720	1187.389	953.102
265.366	27.898	1186.470	953.208
266.380	27.750	1186.122	952.074
267.395	27.728	1185.633	951.482
268.409	27.724	1184.646	950.585
269.424	27.678	1184.694	950.297
270.439	27.823	1183.732	950.198
271.453	27.762	1183.529	949.631
272.468	27.800	1182.185	948.668
273.482	27.735	1181.871	947.995
274.497	27.820	1181.523	948.074
275.512	27.833	1180.538	947.267
276.526	27.776	1180.514	946.867
277.541	27.821	1179.293	946.039
278.555	27.925	1178.718	946.030
279.570	27.905	1177.999	945.268
280.585	27.951	1177.024	944.638
281.599	27.930	1176.306	943.871
282.614	27.866	1175.787	943.041
283.628	27.880	1174.566	942.051
284.643	27.934	1173.977	941.775
285.657	27.848	1173.293	940.697
286.672	27.975	1172.339	940.504
287.687	27.915	1171.894	939.756
288.701	27.919	1170.837	938.843
289.716	27.899	1170.141	938.098
290.730	27.963	1169.563	937.883
291.745	27.999	1168.958	937.497
292.760	28.045	1168.321	937.140
293.774	27.917	1167.943	936.100
294.789	28.082	1167.440	936.455
295.803	28.105	1166.476	935.721
296.818	28.009	1165.681	934.508
297.833	28.134	1165.119	934.613
298.847	28.011	1164.573	933.464
299.862	28.080	1164.144	933.388
300.876	28.038	1163.388	932.485
301.891	28.167	1162.637	932.463
302.906	28.220	1161.913	932.069
303.920	28.058	1161.504	930.832
304.935	28.218	1160.838	931.031
305.949	28.134	1160.060	929.894
306.964	28.149	1159.484	929.426
307.979	28.251	1158.650	929.193
308.993	28.202	1158.091	928.416
310.008	28.219	1157.691	928.100
311.022	28.235	1157.020	927.559
312.037	28.278	1155.965	926.852
313.052	28.135	1155.379	925.577
314.066	28.104	1154.727	924.816
315.081	28.097	1153.925	924.056
316.095	28.234	1153.311	924.172
317.110	28.151	1152.783	923.250
318.125	28.267	1151.959	923.094
319.139	28.191	1151.308	922.108
320.154	28.080	1151.025	921.240
321.168	28.257	1150.234	921.414
322.183	28.231	1149.881	920.918
323.197	28.221	1148.971	920.061
324.212	28.283	1148.504	919.917
325.227	28.260	1147.927	919.258
326.241	28.205	1147.759	918.764
327.256	28.379	1146.494	918.541
328.270	28.249	1145.844	917.292
329.285	28.389	1144.961	917.203
330.300	28.359	1144.503	916.606
331.314	28.354	1143.488	915.688
332.329	28.378	1142.666	915.068
333.343	28.403	1141.960	914.542
334.358	28.422	1141.560	914.239
335.373	28.431	1140.703	913.514
336.387	28.440	1140.259	913.122
337.402	28.452	1139.365	912.387
338.416	28.337	1139.250	911.642
339.431	28.501	1137.962	911.343
340.446	28.475	1137.735	910.955
341.460	28.517	1136.813	910.345
342.475	28.493	1136.156	909.616
343.489	28.554	1135.100	908.996
344.504	28.659	1134.469	908.930
345.519	28.576	1133.564	907.711
346.533	28.464	1132.838	906.494
347.548	28.627	1132.146	906.669
348.562	28.475	1131.608	905.407
349.577	28.604	1131.080	905.540
350.592	28.385	1130.659	904.046
351.606	28.584	1129.455	903.978
352.621	28.530	1129.012	903.279
353.635	28.652	1128.565	903.442
354.650	28.591	1127.544	902.247
355.665	28.645	1126.772	901.815
356.679	28.626	1126.552	901.463
357.694	28.666	1125.815	900.990
358.708	28.686	1124.878	900.261
359.723	28.694	1124.270	899.735
360.738	28.621	1123.495	898.677
361.752	28.702	1123.306	898.842
362.767	28.789	1122.682	898.688
363.781	28.736	1122.369	898.098
364.796	28.772	1121.997	897.898
365.810	28.732	1121.228	897.005
366.825	28.713	1120.343	896.126
367.840	28.879	1119.956	896.546
368.854	28.921	1119.375	896.206
369.869	28.934	1118.327	895.355
370.883	28.900	1117.829	894.709
371.898	28.871	1116.979	893.809
372.913	28.937	1116.232	893.454
373.927	28.987	1116.052	893.471
374.942	29.013	1115.487	893.068
375.956	28.898	1115.358	892.327
376.971	28.951	1114.619	891.916
377.986	28.858	1114.361	891.176
379.000	28.868	1113.926	890.800
380.015	28.975	1112.932	890.446
381.029	29.027	1112.267	890.086
382.044	28.983	1111.775	889.400
383.059	29.105	1110.808	889.137
384.073	29.031	1110.454	888.417
385.088	28.884	1109.725	887.048
386.102	28.978	1108.970	886.817
387.117	29.080	1107.720	886.230
388.132	28.955	1106.873	884.874
389.146	29.150	1105.942	884.988
390.161	29.077	1105.782	884.429
391.175	28.935	1105.400	883.366
392.190	29.083	1104.794	883.513
393.205	29.089	1103.674	882.566
394.219	29.127	1103.064	882.186
395.234	29.117	1102.562	881.658
396.248	29.162	1101.667	881.076
397.263	29.225	1100.391	880.281
398.278	29.255	1100.002	880.034
399.292	29.260	1099.671	879.716
400.307	29.172	1099.035	878.711
401.321	29.194	1098.423	878.245
402.336	29.241	1097.555	877.700
403.350	29.275	1096.782	877.166
404.365	29.255	1096.659	876.896
405.380	29.219	1095.944	876.073
406.394	29.218	1095.271	875.454
407.409	29.360	1094.327	875.298
408.423	29.296	1093.482	874.238
409.438	29.368	1092.994	874.114
410.453	29.374	1092.250	873.469
411.467	29.376	1091.831	873.065
412.482	29.298	1091.122	872.054
413.496	29.318	1090.159	871.300
414.511	29.406	1089.544	871.145
415.526	29.415	1089.334	870.944
416.540	29.460	1088.684	870.562
417.555	29.539	1088.154	870.432
418.569	29.404	1087.800	869.435
419.584	29.421	1087.491	869.190
420.599	29.351	1087.217	868.564
421.613	103.468	1322.368	1458.814
422.628	96.341	1356.617	1458.914
