DTS Sentinel unit serial number:	SN413079Multiplexer serial number:	ORYXHardware model number:	OX4-SRSoftware version number:	ORYX F/W v4.00 Oryx Data Collector v3.7.2.0data status	okinstallation	princeton_trtdifferential loss correction	single-endedforward channel	channel 2reverse channel	N/Adate	2019/09/17time	02:59:35forward acquisition time	60.00reverse acquisition time	0.00gamma	496.2192k internal	0.2327k external	0.2327temperature offset calibration	0.9969default loss term (dB/km)	0.3790temperature slope calibration	1.0000multiplexer offset coefficient	1.0000multiplexer slope coefficient	1.0000fibre end	0.00T internal ref (°C)	29.94T ext. ref 1 (°C)	0.12T ext. ref 2 (°C)	24.82length (m)	temperature (°C)	Stokes	anti-Stokes-747.200	-111.686	0.403	0.082
-746.185	275.066	-0.232	-0.414
-745.171	-109.536	0.334	-0.071
-744.156	-53.212	-0.208	0.096
-743.142	-111.964	-0.493	-0.100
-742.127	-200.000	-0.049	0.220
-741.112	-61.089	0.135	-0.057
-740.098	64.455	0.183	0.186
-739.083	345.244	-0.108	0.214
-738.069	165.860	-0.380	0.541
-737.054	241.994	0.109	0.183
-736.039	-200.000	0.003	-0.083
-735.025	523.420	0.114	0.270
-734.010	-4.148	-0.464	-0.324
-732.996	-51.036	-0.062	-0.029
-731.981	232.235	0.117	-0.193
-730.966	348.033	-0.065	-0.129
-729.952	96.982	-0.175	-0.202
-728.937	35.144	-0.134	-0.118
-727.923	191.349	0.101	0.153
-726.908	-84.127	-0.190	0.061
-725.894	-200.000	0.029	-0.374
-724.879	245.713	-0.118	0.200
-723.864	-8.835	-0.282	0.191
-722.850	11.091	-0.135	0.104
-721.835	-200.000	-0.070	0.359
-720.821	93.822	0.129	-0.147
-719.806	97.136	-0.138	-0.159
-718.791	-200.000	-0.008	0.090
-717.777	-200.000	-0.063	-0.289
-716.762	-200.000	0.034	-0.279
-715.748	800.000	-0.033	-0.143
-714.733	-77.068	0.146	-0.051
-713.718	109.241	-0.083	-0.100
-712.704	129.280	0.271	-0.349
-711.689	800.000	-0.027	-0.082
-710.675	-200.000	-0.036	0.200
-709.660	-200.000	-0.057	-0.299
-708.645	517.299	0.009	-0.021
-707.631	-26.576	0.245	-0.145
-706.616	-200.000	0.003	-0.146
-705.602	2.954	0.168	-0.123
-704.587	-143.993	0.042	0.004
-703.572	800.000	0.010	0.041
-702.558	76.750	-0.196	-0.210
-701.543	-66.431	0.307	-0.123
-700.529	330.650	0.175	0.340
-699.514	-148.540	0.093	-0.008
-698.499	58.486	-0.179	-0.177
-697.485	-76.331	0.235	0.083
-696.470	-84.893	-0.265	0.084
-695.456	517.921	0.224	-0.528
-694.441	125.123	-0.061	-0.078
-693.426	-200.000	0.036	0.184
-692.412	122.942	-0.198	0.250
-691.397	-200.000	-0.001	0.029
-690.383	-116.585	-0.225	0.042
-689.368	-101.881	0.172	0.042
-688.354	-81.418	-0.278	0.092
-687.339	-118.139	0.125	-0.022
-686.324	146.429	0.232	-0.314
-685.310	-154.391	-0.217	-0.015
-684.295	6.184	0.333	-0.248
-683.281	-200.000	0.030	-0.233
-682.266	-25.856	0.350	-0.207
-681.251	81.049	0.152	-0.165
-680.237	-4.884	-0.048	0.033
-679.222	147.459	0.079	-0.106
-678.208	-175.966	0.196	-0.005
-677.193	350.428	-0.102	0.202
-676.178	521.253	0.057	0.134
-675.164	29.312	0.133	-0.114
-674.149	101.125	0.056	0.066
-673.135	254.627	-0.101	-0.173
-672.120	-134.304	0.171	-0.021
-671.105	614.939	0.082	0.206
-670.091	22.438	-0.179	-0.147
-669.076	-111.419	-0.128	-0.026
-668.062	-200.000	-0.035	0.367
-667.047	-119.695	-0.173	-0.030
-666.032	-84.884	-0.328	-0.103
-665.018	-143.804	-0.068	-0.006
-664.003	-95.704	-0.528	0.142
-662.989	-126.527	0.360	-0.054
-661.974	-52.743	-0.318	-0.147
-660.959	-23.708	-0.220	-0.133
-659.945	618.275	-0.044	-0.110
-658.930	565.659	0.108	-0.264
-657.916	39.799	-0.184	-0.166
-656.901	216.202	-0.203	-0.325
-655.886	257.139	0.144	0.248
-654.872	-135.273	0.117	-0.014
-653.857	644.363	0.072	-0.184
-652.843	683.480	0.057	-0.148
-651.828	114.169	0.298	-0.365
-650.814	348.241	-0.061	0.122
-649.799	-200.000	0.042	0.382
-648.784	-24.630	-0.059	0.035
-647.770	-200.000	-0.022	0.195
-646.755	61.128	0.185	-0.185
-645.741	23.236	0.087	-0.072
-644.726	-174.371	-0.053	0.002
-643.711	-200.000	0.008	0.036
-642.697	-69.806	-0.146	0.056
-641.682	-59.990	0.311	-0.133
-640.668	83.931	0.156	0.171
-639.653	604.814	-0.156	0.391
-638.638	-74.058	-0.206	-0.075
-637.624	-200.000	0.045	-0.237
-636.609	-23.159	-0.104	-0.063
-635.595	-61.840	-0.323	0.136
-634.580	800.000	0.080	0.251
-633.565	-200.000	-0.012	-0.100
-632.551	-200.000	0.035	-0.378
-631.536	244.272	0.182	0.307
-630.522	40.458	0.266	-0.240
-629.507	-200.000	0.020	-0.351
-628.492	-5.047	0.053	-0.037
-627.478	-28.990	-0.113	-0.065
-626.463	-192.552	-0.010	0.000
-625.449	-75.954	0.223	-0.079
-624.434	144.471	-0.175	-0.234
-623.419	657.162	-0.113	-0.291
-622.405	9.398	-0.278	-0.211
-621.390	-21.311	-0.074	-0.045
-620.376	-51.258	-0.162	-0.076
-619.361	49.705	-0.172	0.163
-618.346	-154.756	0.211	-0.014
-617.332	660.907	-0.091	-0.236
-616.317	-39.859	-0.095	0.050
-615.303	-46.374	-0.349	-0.172
-614.288	-197.329	0.079	0.001
-613.273	-200.000	0.014	0.251
-612.259	-28.856	-0.058	0.033
-611.244	-186.942	0.199	0.003
-610.230	-161.814	0.196	0.010
-609.215	-58.290	0.209	-0.091
-608.201	58.749	0.266	-0.262
-607.186	67.130	-0.121	-0.124
-606.171	-200.000	0.000	-0.332
-605.157	212.318	-0.103	-0.162
-604.142	-200.000	-0.000	0.607
-603.128	-152.677	0.257	0.018
-602.113	31.272	-0.102	0.088
-601.098	-200.000	-0.030	-0.356
-600.084	762.553	0.092	-0.251
-599.069	-200.000	0.018	0.141
-598.055	-48.294	-0.118	0.057
-597.040	-200.000	0.007	0.183
-596.025	190.143	-0.165	0.248
-595.011	800.000	-0.014	-0.062
-593.996	-200.000	-0.014	-0.266
-592.982	23.001	-0.219	0.180
-591.967	168.416	0.082	-0.117
-590.952	-200.000	-0.010	-0.064
-589.938	-126.718	0.224	0.033
-588.923	-200.000	0.038	0.303
-587.909	-54.685	-0.044	-0.020
-586.894	-11.320	0.196	-0.129
-585.879	16.016	0.243	-0.192
-584.865	8.338	-0.228	-0.172
-583.850	354.340	0.054	0.107
-582.836	-83.552	-0.101	0.032
-581.821	203.178	0.080	-0.124
-580.806	-138.173	-0.643	0.071
-579.792	154.342	-0.037	0.051
-578.777	-200.000	0.011	0.276
-577.763	-132.681	-0.106	-0.014
-576.748	800.000	0.039	0.134
-575.733	197.737	0.162	-0.248
-574.719	-200.000	-0.003	-0.075
-573.704	115.242	-0.180	-0.220
-572.690	465.775	-0.055	0.123
-571.675	-200.000	-0.006	0.053
-570.661	-200.000	-0.026	-0.161
-569.646	37.531	-0.193	-0.172
-568.631	217.056	-0.127	-0.202
-567.617	170.419	0.044	-0.063
-566.602	-200.000	0.001	-0.130
-565.588	-100.339	-0.085	-0.021
-564.573	287.749	0.111	-0.201
-563.558	-74.945	0.250	-0.090
-562.544	-151.738	-0.236	-0.017
-561.529	-8.442	0.215	0.145
-560.515	258.216	-0.095	-0.164
-559.500	-200.000	-0.017	0.142
-558.485	61.120	0.160	-0.159
-557.471	-30.174	0.183	-0.104
-556.456	-62.981	0.318	0.132
-555.442	317.974	-0.023	-0.044
-554.427	34.993	0.151	0.133
-553.412	25.184	0.194	0.161
-552.398	245.577	0.238	-0.400
-551.383	296.610	-0.159	-0.292
-550.369	-42.749	-0.206	-0.105
-549.354	15.395	0.353	0.277
-548.339	-50.664	-0.180	0.085
-547.325	248.306	-0.025	0.042
-546.310	-70.920	0.470	-0.177
-545.296	-5.175	-0.250	-0.172
-544.281	-163.568	-0.152	0.007
-543.266	289.032	0.110	-0.200
-542.252	134.576	0.167	0.216
-541.237	-200.000	0.028	0.183
-540.223	-200.000	-0.037	0.220
-539.208	3.092	-0.024	0.018
-538.193	-200.000	-0.016	0.190
-537.179	-29.453	0.077	-0.044
-536.164	-200.000	0.039	0.172
-535.150	-200.000	0.004	0.166
-534.135	226.624	0.160	0.259
-533.121	800.000	0.102	-0.318
-532.106	-63.565	-0.184	-0.075
-531.091	-127.381	-0.272	0.040
-530.077	-103.228	-0.279	0.066
-529.062	-200.000	0.039	0.294
-528.048	-1.426	0.289	0.204
-527.033	-42.835	-0.368	0.187
-526.018	800.000	-0.038	-0.143
-525.004	-200.000	0.004	-0.176
-523.989	-4.051	-0.330	-0.228
-522.975	800.000	0.051	0.177
-521.960	-82.235	-0.052	0.017
-520.945	-200.000	-0.009	0.054
-519.931	448.470	0.036	-0.079
-518.916	-26.851	0.085	0.049
-517.902	-28.629	0.110	0.064
-516.887	367.190	0.133	0.268
-515.872	-160.027	0.069	-0.004
-514.858	201.667	0.045	0.070
-513.843	-200.000	0.001	0.046
-512.829	311.715	-0.138	0.259
-511.814	-200.000	0.001	-0.070
-510.799	-200.000	-0.226	-0.001
-509.785	-53.854	0.298	0.136
-508.770	-88.104	-0.403	-0.121
-507.756	-154.440	-0.061	-0.004
-506.741	-200.000	0.024	0.196
-505.726	-79.561	0.090	0.030
-504.712	272.203	0.188	0.332
-503.697	355.871	0.148	-0.294
-502.683	39.041	-0.012	0.011
-501.668	-172.296	-0.259	0.008
-500.653	-41.499	0.188	0.096
-499.639	-81.083	-0.289	-0.096
-498.624	291.411	0.101	0.183
-497.610	285.806	0.029	-0.053
-496.595	322.194	-0.108	-0.205
-495.581	-30.334	-0.120	0.068
-494.566	-92.379	0.212	-0.060
-493.551	342.558	0.150	-0.293
-492.537	161.404	-0.120	0.168
-491.522	9.958	-0.230	0.174
-490.508	-122.906	-0.152	-0.024
-489.493	-200.000	0.018	-0.179
-488.478	-175.559	-0.228	-0.006
-487.464	-200.000	-0.008	-0.168
-486.449	90.479	0.361	0.403
-485.435	6.993	0.369	0.275
-484.420	-33.067	-0.105	0.058
-483.405	376.096	-0.022	0.045
-482.391	-87.897	0.226	-0.068
-481.376	-114.037	0.121	-0.023
-480.362	-18.165	-0.335	-0.209
-479.347	-200.000	0.019	0.153
-478.332	800.000	0.097	-0.280
-477.318	-81.901	0.064	0.021
-476.303	14.153	-0.162	0.126
-475.289	459.778	0.004	0.009
-474.274	37.282	-0.167	0.148
-473.259	-100.097	-0.069	-0.017
-472.245	61.551	-0.149	-0.148
-471.230	24.955	-0.036	0.029
-470.216	175.098	-0.219	-0.317
-469.201	393.107	-0.093	-0.192
-468.186	-74.486	-0.105	-0.038
-467.172	-102.271	-0.356	0.085
-466.157	-39.099	-0.239	-0.126
-465.143	11.680	-0.101	-0.077
-464.128	-79.681	-0.238	-0.080
-463.113	478.307	-0.034	-0.077
-462.099	146.899	-0.047	-0.063
-461.084	-108.868	-0.127	0.027
-460.070	-200.000	-0.025	-0.218
-459.055	-112.604	0.467	0.093
-458.040	156.814	-0.049	-0.068
-457.026	-181.284	-0.284	0.006
-456.011	208.245	0.075	0.117
-454.997	-200.000	-0.037	-0.188
-453.982	23.425	-0.166	0.136
-452.968	-60.324	-0.230	-0.097
-451.953	329.822	-0.059	-0.114
-450.938	-36.181	-0.130	-0.070
-449.924	353.312	-0.040	0.080
-448.909	116.357	-0.123	-0.151
-447.895	-158.145	0.369	0.022
-446.880	-200.000	-0.031	-0.158
-445.865	-158.906	0.231	0.013
-444.851	-51.583	0.208	-0.097
-443.836	-200.000	-0.004	0.073
-442.822	-126.548	0.174	0.026
-441.807	800.000	0.092	0.257
-440.792	-200.000	-0.001	-0.267
-439.778	800.000	-0.148	-0.441
-438.763	-42.644	-0.241	0.122
-437.749	-48.177	-0.066	-0.032
-436.734	-55.851	0.237	-0.105
-435.719	-54.712	-0.286	-0.129
-434.705	28.034	-0.412	0.346
-433.690	-200.000	0.014	-0.246
-432.676	-86.006	0.312	0.096
-431.661	-184.945	0.070	0.001
-430.646	144.609	-0.063	0.084
-429.632	-172.172	0.230	-0.007
-428.617	-100.976	-0.132	-0.032
-427.603	-73.717	-0.330	-0.120
-426.588	-200.000	-0.015	-0.118
-425.573	219.041	0.082	0.130
-424.559	-200.000	0.009	-0.165
-423.544	-100.648	-0.154	0.038
-422.530	82.710	-0.167	-0.181
-421.515	-200.000	0.011	0.197
-420.500	236.779	0.105	0.173
-419.486	136.129	-0.073	0.095
-418.471	731.213	-0.116	-0.308
-417.457	763.229	-0.116	0.314
-416.442	-148.552	0.333	-0.027
-415.428	35.834	0.227	0.198
-414.413	-58.461	0.338	0.146
-413.398	-17.713	-0.273	-0.170
-412.384	-80.995	0.214	0.070
-411.369	800.000	-0.008	0.025
-410.355	309.396	-0.063	0.118
-409.340	-200.000	-0.015	0.339
-408.325	66.552	-0.240	-0.243
-407.311	-118.489	0.231	0.041
-406.296	-200.000	-0.053	0.246
-405.282	130.917	0.054	0.069
-404.267	395.416	-0.104	-0.216
-403.252	-173.012	0.249	-0.008
-402.238	-67.935	0.282	0.110
-401.223	800.000	0.030	-0.107
-400.209	240.274	-0.022	-0.036
-399.194	800.000	0.024	0.084
-398.179	-200.000	0.050	-0.322
-397.165	202.450	-0.101	0.155
-396.150	276.829	-0.264	0.466
-395.136	-200.000	0.073	0.382
-394.121	-166.518	0.160	0.007
-393.106	-119.379	0.271	0.047
-392.092	642.599	-0.029	0.074
-391.077	357.768	0.194	0.385
-390.063	26.576	0.048	0.040
-389.048	-173.990	0.308	-0.009
-388.033	-89.527	0.303	-0.089
-387.019	681.598	0.094	0.242
-386.004	416.250	0.056	-0.119
-384.990	-51.738	-0.201	0.093
-383.975	-200.000	-0.004	-0.140
-382.960	-93.348	-0.149	-0.041
-381.946	124.145	0.192	-0.240
-380.931	-22.909	0.251	-0.151
-379.917	800.000	-0.076	0.258
-378.902	20.925	-0.011	0.009
-377.888	-200.000	0.043	0.217
-376.873	-109.326	-0.167	-0.035
-375.858	334.436	0.116	-0.224
-374.844	365.356	0.235	-0.470
-373.829	800.000	0.047	0.186
-372.815	800.000	0.098	-0.279
-371.800	-200.000	0.047	0.218
-370.785	-200.000	-0.004	0.119
-369.771	-9.920	-0.279	-0.185
-368.756	-131.763	-0.313	-0.041
-367.742	800.000	-0.063	-0.176
-366.727	-118.389	0.110	-0.019
-365.712	-184.962	0.211	-0.003
-364.698	291.589	-0.095	0.172
-363.683	-176.257	0.270	-0.007
-362.669	246.166	0.099	-0.165
-361.654	-200.000	0.118	0.000
-360.639	69.863	-0.204	-0.209
-359.625	-200.000	0.012	0.202
-358.610	-109.536	-0.349	0.073
-357.596	44.839	0.178	0.163
-356.581	371.253	-0.023	-0.046
-355.566	-200.000	0.047	0.261
-354.552	800.000	0.102	-0.381
-353.537	-127.623	-0.322	-0.046
-352.523	-15.224	0.107	0.068
-351.508	-128.711	-0.346	0.048
-350.493	-15.390	-0.344	0.218
-349.479	-200.000	-0.020	0.149
-348.464	-30.278	0.462	0.260
-347.450	535.358	0.069	-0.163
-346.435	-150.989	0.227	-0.017
-345.420	-127.892	0.198	0.028
-344.406	201.020	0.021	-0.032
-343.391	-101.129	0.167	-0.041
-342.377	-16.874	-0.281	-0.176
-341.362	16.831	0.317	-0.249
-340.348	58.169	-0.079	-0.076
-339.333	741.464	-0.044	-0.117
-338.318	-160.094	-0.057	-0.003
-337.304	677.213	-0.018	-0.046
-336.289	132.866	-0.146	-0.187
-335.275	-44.364	-0.207	-0.103
-334.260	326.932	-0.075	0.143
-333.245	-148.786	-0.209	-0.017
-332.231	-53.313	0.172	-0.078
-331.216	-69.381	0.156	-0.059
-330.202	-114.348	-0.331	-0.063
-329.187	88.797	0.205	0.226
-328.172	106.931	0.078	-0.092
-327.158	-81.402	0.398	-0.130
-326.143	-94.767	-0.252	-0.068
-325.129	-101.789	-0.073	0.018
-324.114	-55.519	0.413	0.183
-323.099	112.217	0.027	0.032
-322.085	-163.321	0.496	-0.024
-321.070	-200.000	-0.020	-0.248
-320.056	-0.027	0.166	-0.117
-319.041	52.429	-0.060	-0.057
-318.026	-200.000	0.022	-0.165
-317.012	-129.421	0.223	-0.031
-315.997	324.081	-0.091	-0.172
-314.983	-49.918	0.026	-0.012
-313.968	-161.854	0.237	0.012
-312.953	173.869	0.072	0.103
-311.939	48.460	-0.142	-0.132
-310.924	-200.000	0.002	0.179
-309.910	171.847	0.086	-0.123
-308.895	722.238	-0.058	0.152
-307.880	320.913	-0.080	0.151
-306.866	331.280	0.160	0.306
-305.851	32.452	-0.174	0.149
-304.837	668.467	0.111	0.286
-303.822	-53.616	-0.146	0.066
-302.807	-200.000	0.091	-0.424
-301.793	190.805	-0.264	-0.393
-300.778	628.889	-0.045	-0.113
-299.764	-67.997	-0.182	0.070
-298.749	-75.117	0.188	-0.067
-297.735	531.882	-0.059	-0.139
-296.720	-200.000	-0.015	0.069
-295.705	-200.000	0.011	-0.177
-294.691	-59.629	0.115	0.049
-293.676	-119.518	0.356	-0.061
-292.662	-200.000	-0.001	0.224
-291.647	-127.273	0.262	0.038
-290.632	44.894	-0.122	0.111
-289.618	-175.686	0.263	0.007
-288.603	152.512	-0.170	-0.229
-287.589	-133.762	-0.401	-0.049
-286.574	287.537	-0.098	0.176
-285.559	289.722	-0.210	0.377
-284.545	-200.000	-0.062	0.470
-283.530	800.000	0.007	0.028
-282.516	41.847	-0.056	-0.051
-281.501	134.595	-0.184	0.236
-280.486	163.409	-0.123	-0.171
-279.472	-24.084	-0.076	-0.045
-278.457	18.377	0.091	0.072
-277.443	-6.132	-0.140	-0.094
-276.428	-20.017	-0.411	-0.251
-275.413	-200.000	-0.000	-0.164
-274.399	165.854	0.109	-0.153
-273.384	800.000	0.077	0.260
-272.370	68.585	-0.451	0.458
-271.355	43.170	0.089	-0.081
-270.340	74.825	0.239	0.250
-269.326	-124.352	0.332	0.051
-268.311	800.000	-0.026	0.073
-267.297	474.662	0.031	0.069
-266.282	298.319	-0.177	-0.322
-265.267	800.000	0.097	-0.305
-264.253	299.568	-0.044	-0.081
-263.238	147.997	0.072	0.096
-262.224	-9.409	-0.076	-0.050
-261.209	-34.549	0.355	0.192
-260.195	220.812	-0.054	0.086
-259.180	-9.360	-0.096	-0.063
-258.165	-33.433	0.225	-0.123
-257.151	341.756	-0.094	-0.182
-256.136	-95.729	0.230	-0.061
-255.122	304.203	0.094	-0.173
-254.107	-146.324	-0.213	-0.018
-253.092	800.000	-0.028	-0.120
-252.078	425.757	-0.047	-0.099
-251.063	27.957	0.106	-0.088
-250.049	800.000	0.038	0.137
-249.034	24.749	0.176	-0.144
-248.019	448.822	-0.055	-0.121
-247.005	-200.000	0.012	0.078
-245.990	-15.954	0.177	0.111
-244.976	-200.000	-0.063	0.328
-243.961	128.073	-0.062	0.078
-242.946	311.969	0.105	-0.194
-241.932	-51.834	-0.095	0.044
-240.917	-68.754	-0.335	0.128
-239.903	-200.000	0.005	0.153
-238.888	102.645	-0.135	0.156
-237.873	-60.677	-0.142	-0.059
-236.859	800.000	-0.054	-0.231
-235.844	148.080	0.223	0.298
-234.830	-4.138	0.268	0.183
-233.815	-41.909	0.358	0.181
-232.800	800.000	0.037	-0.102
-231.786	78.300	-0.197	-0.208
-230.771	-11.510	0.328	0.213
-229.757	514.438	0.109	0.250
-228.742	11.570	0.213	0.162
-227.727	-53.818	-0.419	0.189
-226.713	-23.091	-0.136	-0.081
-225.698	684.755	-0.026	0.067
-224.684	-63.229	0.228	0.093
-223.669	1.943	-0.211	-0.150
-222.655	-59.062	-0.254	0.108
-221.640	119.818	-0.114	-0.139
-220.625	5.942	0.194	0.142
-219.611	-28.469	-0.094	-0.054
-218.596	-200.000	0.042	0.361
-217.582	-157.336	-0.048	-0.003
-216.567	-31.186	-0.124	0.069
-215.552	-98.619	0.378	0.095
-214.538	-200.000	-0.012	-0.073
-213.523	-29.022	0.165	0.093
-212.509	69.226	-0.165	-0.168
-211.494	194.650	0.033	-0.050
-210.479	352.626	-0.151	0.296
-209.465	-58.923	0.027	-0.011
-208.450	800.000	-0.073	-0.288
-207.436	-48.619	-0.215	0.102
-206.421	93.423	0.232	0.259
-205.406	-50.165	0.212	0.099
-204.392	-81.982	0.318	0.103
-203.377	800.000	0.033	0.104
-202.363	-16.043	-0.265	-0.166
-201.348	-119.816	0.097	0.016
-200.333	800.000	-0.089	0.257
-199.319	-128.798	0.128	0.018
-198.304	63.750	-0.096	-0.096
-197.290	-61.757	0.122	0.051
-196.275	-32.603	0.233	0.128
-195.260	85.549	0.084	-0.091
-194.246	59.072	-0.100	-0.097
-193.231	683.848	0.080	0.205
-192.217	-200.000	0.028	-0.299
-191.202	177.412	-0.066	-0.095
-190.187	-200.000	-0.017	0.190
-189.173	105.554	0.261	0.305
-188.158	-84.871	0.082	0.025
-187.144	-34.295	-0.184	-0.099
-186.129	-4.489	-0.265	0.181
-185.114	-200.000	-0.055	-0.278
-184.100	6.795	0.121	-0.089
-183.085	-140.660	-0.158	0.016
-182.071	445.490	-0.034	0.073
-181.056	-126.594	-0.465	-0.068
-180.042	59.737	-0.121	0.118
-179.027	136.686	0.095	-0.122
-178.012	-90.287	0.102	-0.029
-176.998	34.519	0.252	-0.217
-175.983	-13.714	0.202	0.129
-174.969	73.028	-0.186	-0.192
-173.954	800.000	-0.019	-0.060
-172.939	-200.000	0.035	0.222
-171.925	-200.000	-0.011	0.242
-170.910	-103.158	0.155	0.036
-169.896	800.000	-0.054	-0.163
-168.881	800.000	-0.164	-0.465
-167.866	800.000	-0.087	-0.249
-166.852	-23.503	0.159	-0.094
-165.837	-200.000	0.027	-0.145
-164.823	14.016	-0.061	0.047
-163.808	25.765	0.044	0.036
-162.793	520.061	0.133	0.307
-161.779	-200.000	-0.008	0.264
-160.764	78.804	-0.124	0.131
-159.750	-28.043	-0.307	0.175
-158.735	85.085	0.128	-0.138
-157.720	98.976	-0.187	-0.213
-156.706	-138.172	-0.175	0.019
-155.691	195.417	-0.143	-0.215
-154.677	-200.000	0.011	0.051
-153.662	-200.000	-0.007	-0.061
-152.647	-120.672	-0.254	0.042
-151.633	71.699	0.140	0.144
-150.618	-200.000	0.046	0.198
-149.604	145.821	-0.234	0.309
-148.589	-200.000	0.011	-0.315
-147.574	-19.892	-0.278	0.169
-146.560	800.000	-0.134	-0.552
-145.545	-38.359	-0.133	0.070
-144.531	360.678	-0.097	-0.191
-143.516	-105.256	0.323	-0.073
-142.502	-163.142	-0.117	-0.006
-141.487	-200.000	0.012	-0.308
-140.472	193.207	0.195	0.291
-139.458	800.000	0.111	-0.383
-138.443	336.932	0.016	-0.031
-137.429	15.742	-0.072	0.055
-136.414	174.061	-0.045	-0.064
-135.399	29.663	0.243	0.204
-134.385	-200.000	0.011	-0.162
-133.370	-87.048	-0.180	-0.054
-132.356	713.185	-0.049	0.128
-131.341	8.024	-0.132	-0.098
-130.326	306.430	0.137	0.251
-129.312	-200.000	-0.048	0.301
-128.297	542.944	-0.098	-0.230
-127.283	-200.000	0.014	0.065
-126.268	-78.166	-0.154	-0.052
-125.253	-190.233	-0.186	-0.002
-124.239	-77.373	-0.068	-0.023
-123.224	7.221	0.098	-0.072
-122.210	-52.611	0.367	-0.167
-121.195	-200.000	-0.061	-0.269
-120.180	772.135	0.084	0.226
-119.166	33.433	0.323	0.276
-118.151	-20.190	0.384	-0.233
-117.137	19.449	0.281	0.222
-116.122	-200.000	0.003	-0.197
-115.107	-200.000	0.021	0.148
-114.093	-200.000	0.019	-0.090
-113.078	-200.000	-0.015	-0.105
-112.064	536.838	-0.062	0.146
-111.049	-123.752	-0.259	0.040
-110.034	800.000	-0.007	-0.029
-109.020	800.000	-0.094	-0.301
-108.005	-200.000	0.005	0.164
-106.991	249.422	0.060	-0.100
-105.976	61.590	0.094	-0.092
-104.962	800.000	-0.099	0.275
-103.947	-137.514	0.200	0.022
-102.932	-88.921	0.051	-0.015
-101.918	127.862	-0.086	0.108
-100.903	-116.413	0.173	0.031
-99.889	800.000	0.061	-0.174
-98.874	119.333	0.118	-0.143
-97.859	-94.851	0.137	0.037
-96.845	-200.000	-0.033	-0.178
-95.830	228.411	0.066	0.106
-94.816	81.727	-0.096	-0.102
-93.801	-22.308	-0.056	0.033
-92.786	-23.717	0.281	-0.165
-91.772	244.076	0.149	0.246
-90.757	-59.040	0.121	0.052
-89.743	800.000	0.065	0.230
-88.728	-101.843	0.345	-0.082
-87.713	-200.000	-0.015	0.066
-86.699	28.524	-0.155	0.129
-85.684	-55.091	0.160	-0.071
-84.670	-140.890	0.096	0.010
-83.655	15.046	0.190	0.146
-82.640	29.795	0.179	0.150
-81.626	1.749	-0.165	0.117
-80.611	794.792	0.114	-0.308
-79.597	-107.389	0.121	-0.026
-78.582	10.949	0.290	-0.217
-77.567	-200.000	0.069	0.545
-76.553	362.662	0.065	0.129
-75.538	-103.908	0.144	0.033
-74.524	800.000	-0.018	0.070
-73.509	549.623	0.110	0.258
-72.494	-200.000	0.024	0.307
-71.480	800.000	-0.059	-0.167
-70.465	800.000	0.033	0.134
-69.451	89.822	0.129	0.141
-68.436	-94.783	0.219	-0.058
-67.422	301.703	-0.255	-0.462
-66.407	22.166	-0.224	0.180
-65.392	147.426	0.210	-0.278
-64.378	-99.966	-0.095	-0.023
-63.363	800.000	-0.141	0.427
-62.349	800.000	-0.088	0.376
-61.334	49.619	-0.898	-0.831
-60.319	74.966	0.621	0.642
-59.305	315.164	-0.432	-0.800
-58.290	169.116	0.774	1.085
-57.276	761.643	0.608	1.618
-56.261	-200.000	106.136	578.318
-55.246	460.411	1458.267	3188.427
-54.232	148.815	2650.034	3515.884
-53.217	100.750	2290.574	2612.506
-52.203	38.945	1904.749	1670.292
-51.188	33.240	1692.336	1440.679
-50.173	30.655	1648.999	1384.523
-49.159	48.635	1701.529	1565.081
-48.144	49.310	1716.703	1584.079
-47.130	32.718	1675.330	1422.041
-46.115	30.089	1660.809	1389.971
-45.100	29.963	1655.660	1384.667
-44.086	29.847	1653.733	1382.132
-43.071	29.827	1651.382	1379.964
-42.057	29.769	1648.507	1377.076
-41.042	29.825	1645.980	1375.321
-40.027	29.797	1644.836	1374.105
-39.013	29.830	1642.810	1372.606
-37.998	29.850	1640.914	1371.109
-36.984	29.892	1639.311	1370.029
-35.969	29.934	1638.213	1369.368
-34.954	30.036	1636.242	1368.418
-33.940	29.952	1634.643	1366.411
-32.925	29.909	1633.959	1365.462
-31.911	30.033	1631.024	1363.869
-30.896	29.894	1629.726	1361.707
-29.881	29.943	1627.916	1360.500
-28.867	29.887	1626.579	1358.920
-27.852	29.876	1625.055	1357.512
-26.838	29.878	1623.529	1356.195
-25.823	29.922	1622.132	1355.302
-24.809	30.000	1620.728	1354.647
-23.794	29.905	1619.628	1352.975
-22.779	30.060	1617.551	1352.316
-21.765	29.913	1615.851	1349.772
-20.750	29.884	1614.562	1348.430
-19.736	29.994	1613.026	1347.893
-18.721	29.969	1612.212	1346.981
-17.706	29.978	1610.590	1345.636
-16.692	29.957	1608.415	1343.614
-15.677	30.059	1607.162	1343.249
-14.663	29.934	1606.337	1341.607
-13.648	29.924	1605.011	1340.371
-12.633	29.973	1603.170	1339.132
-11.619	29.861	1602.167	1337.434
-10.604	29.942	1600.465	1336.544
-9.590	30.015	1599.107	1335.886
-8.575	30.009	1597.549	1334.484
-7.560	29.955	1596.495	1333.167
-6.546	29.999	1595.516	1332.613
-5.531	29.941	1594.550	1331.330
-4.517	29.943	1593.177	1330.146
-3.502	29.953	1592.360	1329.483
-2.487	29.930	1590.598	1327.796
-1.473	29.707	1578.901	1316.396
-0.458	27.132	1559.682	1282.175
0.556	21.867	1561.491	1252.123
1.571	19.597	1585.759	1254.996
2.586	19.339	1598.449	1263.034
3.600	17.619	1546.286	1209.508
4.615	9.841	1436.573	1072.107
5.629	1.730	1371.132	971.586
6.644	0.243	1362.210	955.749
7.659	0.173	1360.253	953.848
8.673	0.031	1360.212	952.831
9.688	0.053	1357.971	951.316
10.702	-0.149	1355.571	948.279
11.717	3.654	1361.610	976.502
12.731	12.370	1374.698	1041.252
13.746	17.498	1381.324	1078.751
14.761	17.226	1379.920	1075.839
15.775	16.238	1377.606	1067.690
16.790	15.217	1374.147	1058.469
17.804	14.321	1372.448	1051.417
18.819	14.025	1371.096	1048.416
19.834	13.825	1369.683	1045.988
20.848	13.484	1368.369	1042.742
21.863	13.334	1367.109	1040.745
22.877	13.167	1365.907	1038.688
23.892	13.007	1365.187	1037.046
24.907	13.056	1364.634	1036.843
25.921	13.118	1363.036	1035.927
26.936	13.156	1362.216	1035.446
27.950	13.252	1361.379	1035.319
28.965	13.254	1360.444	1034.528
29.980	13.311	1359.247	1033.882
30.994	13.321	1358.754	1033.479
32.009	13.385	1357.592	1032.907
33.023	13.392	1356.633	1032.129
34.038	13.269	1355.535	1030.436
35.053	13.221	1354.593	1029.326
36.067	13.338	1352.743	1028.560
37.082	13.280	1352.179	1027.680
38.096	13.247	1351.617	1026.957
39.111	13.243	1350.828	1026.242
40.126	13.262	1349.683	1025.400
41.140	13.175	1349.149	1024.364
42.155	13.166	1348.620	1023.816
43.169	13.044	1348.711	1023.034
44.184	13.037	1348.507	1022.748
45.199	13.026	1347.883	1022.117
46.213	13.202	1347.026	1022.464
47.228	13.188	1346.463	1021.860
48.242	13.154	1345.573	1020.881
49.257	13.200	1343.511	1019.514
50.271	13.179	1342.113	1018.230
51.286	13.233	1340.851	1017.518
52.301	13.242	1339.643	1016.565
53.315	13.116	1339.062	1015.263
54.330	13.182	1337.568	1014.446
55.344	13.132	1336.419	1013.174
56.359	13.179	1335.610	1012.763
57.374	13.178	1334.286	1011.659
58.388	13.150	1333.998	1011.182
59.403	13.044	1333.800	1010.295
60.417	13.034	1332.677	1009.290
61.432	12.958	1332.175	1008.355
62.447	12.937	1330.701	1007.027
63.461	12.896	1329.821	1006.018
64.476	12.996	1328.649	1005.653
65.490	12.933	1327.464	1004.285
66.505	13.171	1325.377	1004.061
67.520	13.001	1324.443	1002.231
68.534	13.148	1323.233	1002.124
69.549	13.044	1322.516	1000.858
70.563	13.063	1320.842	999.619
71.578	12.953	1320.117	998.317
72.593	12.936	1318.915	997.218
73.607	12.975	1318.479	997.031
74.622	12.916	1317.836	996.101
75.636	12.972	1316.788	995.562
76.651	13.009	1316.232	995.273
77.666	13.062	1315.334	994.829
78.680	12.960	1315.039	993.901
79.695	12.990	1314.167	993.334
80.709	13.060	1313.141	992.895
81.724	13.077	1312.011	992.053
82.739	13.076	1311.468	991.549
83.753	13.154	1310.405	991.128
84.768	13.281	1309.238	990.916
85.782	13.227	1308.727	990.120
86.797	13.176	1307.400	988.721
87.812	13.221	1305.772	987.669
88.826	13.129	1305.383	986.740
89.841	13.290	1303.524	986.210
90.855	13.218	1303.042	985.330
91.870	13.251	1302.078	984.707
92.884	13.295	1301.005	984.073
93.899	13.296	1300.589	983.676
94.914	13.359	1299.511	983.148
95.928	13.310	1298.860	982.278
96.943	13.276	1297.838	981.214
97.957	13.333	1296.720	980.618
98.972	13.375	1295.299	979.710
99.987	13.363	1294.603	979.025
101.001	13.276	1293.955	977.935
102.016	13.338	1292.505	977.116
103.030	13.318	1291.829	976.404
104.045	13.428	1290.441	975.917
105.060	13.255	1289.905	974.406
106.074	13.202	1288.367	972.842
107.089	13.214	1286.870	971.698
108.103	13.119	1285.914	970.334
109.118	13.094	1284.641	969.141
110.133	13.103	1284.008	968.628
111.147	12.947	1282.647	966.599
112.162	13.099	1281.374	966.448
113.176	13.171	1280.185	965.886
114.191	13.140	1279.123	964.817
115.206	13.218	1277.983	964.325
116.220	13.255	1276.375	963.243
117.235	13.140	1275.626	961.925
118.249	13.231	1274.488	961.509
119.264	13.144	1273.838	960.431
120.279	13.144	1272.581	959.398
121.293	13.104	1271.500	958.266
122.308	13.055	1270.538	957.169
123.322	13.097	1269.525	956.566
124.337	13.115	1268.813	956.048
125.352	13.144	1267.226	954.938
126.366	13.059	1266.249	953.621
127.381	13.250	1265.060	953.747
128.395	13.162	1264.009	952.361
129.410	13.205	1262.749	951.578
130.424	13.105	1262.688	950.872
131.439	13.210	1261.555	950.538
132.454	13.192	1260.830	949.804
133.468	13.203	1259.652	948.894
134.483	13.249	1258.910	948.519
135.497	13.244	1257.732	947.516
136.512	13.106	1257.082	946.150
137.527	13.223	1255.806	945.777
138.541	13.231	1253.756	944.194
139.556	13.302	1252.528	943.591
140.570	13.313	1251.733	942.973
141.585	13.342	1250.268	941.953
142.600	13.348	1249.154	941.061
143.614	13.359	1248.343	940.429
144.629	13.415	1247.339	939.910
145.643	13.425	1246.162	938.996
146.658	13.391	1244.743	937.649
147.673	13.403	1243.289	936.541
148.687	13.298	1242.191	935.036
149.702	13.296	1241.079	934.109
150.716	13.308	1239.786	933.119
151.731	13.291	1238.537	931.998
152.746	13.278	1237.287	930.901
153.760	13.329	1236.189	930.281
154.775	13.311	1235.193	929.351
155.789	13.430	1233.986	929.028
156.804	13.455	1233.011	928.353
157.819	13.413	1232.210	927.428
158.833	13.459	1231.578	927.130
159.848	13.455	1230.581	926.273
160.862	13.523	1229.331	925.634
161.877	13.500	1228.061	924.464
162.892	13.427	1227.045	923.214
163.906	13.390	1226.266	922.338
164.921	13.383	1225.587	921.706
165.935	13.329	1224.855	920.773
166.950	13.490	1223.751	920.756
167.964	13.389	1223.323	919.790
168.979	13.477	1222.193	919.350
169.994	13.500	1221.321	918.740
171.008	13.472	1220.745	918.071
172.023	13.493	1220.170	917.673
173.037	13.613	1219.005	917.383
174.052	13.540	1218.395	916.436
175.067	13.513	1217.465	915.504
176.081	13.385	1216.402	913.918
177.096	13.403	1215.570	913.314
178.110	13.510	1214.617	913.108
179.125	13.586	1213.097	912.303
180.140	13.545	1211.937	911.122
181.154	13.753	1210.735	911.281
182.169	13.541	1209.670	909.237
183.183	13.583	1208.467	908.478
184.198	13.684	1207.322	908.094
185.213	13.606	1206.793	907.189
186.227	13.751	1205.300	906.779
187.242	13.834	1204.232	906.346
188.256	13.797	1203.178	905.271
189.271	13.865	1202.034	904.700
190.286	13.682	1201.772	903.426
191.300	13.517	1200.728	901.666
192.315	13.603	1199.862	901.405
193.329	13.628	1199.111	900.894
194.344	13.538	1198.457	899.833
195.359	13.658	1197.911	899.998
196.373	13.823	1197.433	900.455
197.388	13.789	1196.715	899.651
198.402	13.831	1196.395	899.556
199.417	14.046	1195.524	899.986
200.432	14.081	1194.339	899.203
201.446	14.023	1193.944	898.515
202.461	14.060	1192.795	897.767
203.475	14.111	1191.914	897.299
204.490	14.092	1190.995	896.427
205.504	14.031	1189.591	894.964
206.519	13.977	1188.581	893.834
207.534	13.931	1187.483	892.680
208.548	14.019	1186.303	892.186
209.563	14.046	1185.813	891.883
210.577	13.930	1184.735	890.373
211.592	13.933	1184.335	890.010
212.607	14.117	1182.929	889.862
213.621	14.094	1181.948	888.921
214.636	14.158	1181.211	888.631
215.650	14.084	1180.304	887.473
216.665	14.101	1179.396	886.800
217.680	14.200	1178.647	886.686
218.694	14.234	1177.713	886.088
219.709	14.202	1177.065	885.351
220.723	14.231	1176.145	884.736
221.738	14.304	1175.389	884.478
222.753	14.281	1174.882	883.895
223.767	14.216	1173.983	882.797
224.782	14.359	1173.573	883.169
225.796	14.376	1172.793	882.594
226.811	14.226	1172.262	881.321
227.826	14.173	1171.563	880.439
228.840	14.341	1170.698	880.597
229.855	14.289	1169.991	879.710
230.869	14.328	1169.061	879.142
231.884	14.322	1168.386	878.522
232.899	14.198	1167.502	877.131
233.913	14.277	1166.833	876.963
234.928	14.300	1166.439	876.713
235.942	14.273	1165.233	875.587
236.957	14.206	1164.974	874.962
237.972	14.223	1164.042	874.274
238.986	14.378	1163.059	874.272
240.001	14.305	1162.412	873.326
241.015	14.362	1161.492	872.854
242.030	14.386	1160.809	872.389
243.045	14.457	1160.071	872.128
244.059	14.464	1159.340	871.537
245.074	14.466	1158.450	870.802
246.088	14.490	1157.388	870.050
247.103	14.537	1156.712	869.715
248.117	14.599	1155.904	869.354
249.132	14.633	1155.412	869.080
250.147	14.608	1154.595	868.258
251.161	14.647	1154.070	867.990
252.176	14.682	1153.267	867.492
253.190	14.816	1152.585	867.596
254.205	14.745	1152.163	866.836
255.220	14.815	1151.769	866.825
256.234	14.879	1150.837	866.380
257.249	14.916	1149.811	865.723
258.263	14.742	1149.828	864.755
259.278	14.771	1148.903	864.136
260.293	14.888	1148.061	864.028
261.307	14.919	1148.084	864.130
262.322	14.992	1146.755	863.433
263.336	14.938	1146.521	862.900
264.351	14.955	1145.749	862.331
265.366	15.000	1145.151	862.034
266.380	14.975	1144.501	861.339
267.395	15.139	1143.067	861.029
268.409	14.913	1142.923	859.684
269.424	14.911	1142.589	859.344
270.439	15.042	1141.422	859.063
271.453	15.033	1140.456	858.215
272.468	14.989	1139.697	857.344
273.482	15.025	1139.149	857.035
274.497	14.980	1138.899	856.544
275.512	15.099	1137.968	856.377
276.526	15.136	1137.080	855.821
277.541	15.132	1136.107	854.993
278.555	14.997	1135.919	854.089
279.570	15.244	1134.829	854.451
280.585	15.210	1134.549	853.991
281.599	15.104	1133.586	852.652
282.614	15.195	1132.309	852.079
283.628	15.137	1131.304	850.949
284.643	15.188	1130.590	850.596
285.657	15.224	1129.564	849.932
286.672	15.227	1128.565	849.123
287.687	15.240	1127.901	848.614
288.701	15.231	1127.124	847.906
289.716	15.196	1126.556	847.227
290.730	15.193	1125.915	846.656
291.745	15.294	1124.647	846.138
292.760	15.302	1124.423	845.934
293.774	15.343	1124.008	845.754
294.789	15.417	1122.895	845.216
295.803	15.362	1122.495	844.562
296.818	15.504	1121.519	844.467
297.833	15.390	1121.024	843.449
298.847	15.382	1119.971	842.540
299.862	15.356	1119.735	842.158
300.876	15.492	1118.563	841.884
301.891	15.445	1118.496	841.524
302.906	15.535	1117.595	841.220
303.920	15.409	1117.060	840.115
304.935	15.570	1115.786	839.883
305.949	15.662	1115.482	840.044
306.964	15.648	1114.615	839.244
307.979	15.619	1114.319	838.805
308.993	15.574	1113.252	837.700
310.008	15.630	1112.786	837.554
311.022	15.679	1111.903	837.059
312.037	15.697	1111.011	836.404
313.052	15.657	1109.962	835.345
314.066	15.610	1109.210	834.469
315.081	15.582	1108.743	833.902
316.095	15.543	1107.614	832.787
317.110	15.578	1107.163	832.551
318.125	15.661	1106.171	832.139
319.139	15.681	1105.586	831.728
320.154	15.516	1105.102	830.474
321.168	15.691	1104.176	830.565
322.183	15.625	1103.722	829.828
323.197	15.621	1103.225	829.359
324.212	15.743	1102.672	829.474
325.227	15.663	1102.178	828.633
326.241	15.789	1101.337	828.546
327.256	15.727	1100.792	827.762
328.270	15.673	1099.594	826.517
329.285	15.743	1098.585	826.034
330.300	15.731	1097.687	825.227
331.314	15.796	1097.023	824.970
332.329	15.848	1095.814	824.242
333.343	15.772	1094.942	823.141
334.358	15.786	1094.489	822.800
335.373	15.846	1093.878	822.558
336.387	15.814	1093.017	821.685
337.402	15.973	1092.272	821.827
338.416	15.859	1091.918	820.929
339.431	15.960	1090.945	820.619
340.446	16.112	1090.252	820.765
341.460	16.025	1089.652	819.816
342.475	16.167	1088.488	819.558
343.489	16.147	1087.707	818.799
344.504	16.200	1087.022	818.468
345.519	16.078	1086.267	817.240
346.533	16.190	1085.281	816.969
347.548	16.170	1084.719	816.373
348.562	16.221	1083.860	815.902
349.577	16.123	1083.101	814.786
350.592	16.207	1082.138	814.394
351.606	16.059	1081.529	813.148
352.621	16.153	1080.961	813.104
353.635	16.180	1080.294	812.660
354.650	16.171	1079.698	812.098
355.665	16.194	1078.801	811.460
356.679	16.190	1078.230	810.941
357.694	16.126	1078.018	810.399
358.708	16.235	1077.280	810.299
359.723	16.260	1076.401	809.683
360.738	16.201	1075.926	808.971
361.752	16.282	1075.157	808.710
362.767	16.345	1074.532	808.474
363.781	16.245	1074.319	807.760
364.796	16.477	1073.253	807.996
365.810	16.439	1072.780	807.390
366.825	16.498	1072.246	807.197
367.840	16.417	1072.318	806.791
368.854	16.461	1071.607	806.397
369.869	16.525	1070.530	805.818
370.883	16.566	1069.669	805.294
371.898	16.521	1068.990	804.498
372.913	16.466	1068.293	803.643
373.927	16.581	1067.544	803.552
374.942	16.583	1066.943	803.041
375.956	16.635	1066.507	802.888
376.971	16.559	1066.123	802.166
377.986	16.564	1065.896	801.950
379.000	16.753	1064.919	802.038
380.015	16.691	1064.198	801.131
381.029	16.730	1063.459	800.685
382.044	16.792	1062.853	800.452
383.059	16.807	1062.362	800.081
384.073	16.669	1061.965	799.062
385.088	16.795	1060.585	798.547
386.102	16.730	1059.620	797.443
387.117	16.736	1058.688	796.701
388.132	16.813	1057.649	796.209
389.146	16.717	1057.190	795.342
390.161	16.690	1057.192	795.147
391.175	16.797	1055.904	794.608
392.190	16.771	1055.051	793.777
393.205	16.867	1054.575	793.797
394.219	16.795	1054.116	793.042
395.234	16.832	1052.746	792.117
396.248	16.885	1051.831	791.606
397.263	16.720	1050.773	789.969
398.278	16.793	1050.307	789.888
399.292	16.770	1049.805	789.334
400.307	16.917	1048.508	788.973
401.321	16.788	1048.095	787.994
402.336	16.881	1047.320	787.773
403.350	16.880	1046.745	787.265
404.365	16.932	1045.826	786.747
405.380	16.942	1045.407	786.406
406.394	17.079	1044.648	786.400
407.409	16.934	1043.889	785.092
408.423	17.002	1043.461	785.014
409.438	17.188	1042.774	785.285
410.453	17.154	1041.986	784.465
411.467	17.069	1041.340	783.517
412.482	17.231	1040.356	783.455
413.496	17.270	1039.595	782.992
414.511	17.098	1039.798	782.283
415.526	17.209	1039.256	782.320
416.540	17.325	1038.513	782.222
417.555	17.195	1038.254	781.360
418.569	17.307	1037.411	781.174
419.584	17.321	1036.954	780.825
420.599	17.255	1036.588	780.174
421.613	102.936	1321.625	1467.982
422.628	94.370	1363.106	1468.072
