DTS Sentinel unit serial number:	SN413079Multiplexer serial number:	ORYXHardware model number:	OX4-SRSoftware version number:	ORYX F/W v4.00 Oryx Data Collector v3.7.2.0data status	okinstallation	princeton_trtdifferential loss correction	single-endedforward channel	channel 2reverse channel	N/Adate	2019/09/10time	22:57:10forward acquisition time	60.00reverse acquisition time	0.00gamma	496.2192k internal	0.2330k external	0.2330temperature offset calibration	0.9945default loss term (dB/km)	0.3790temperature slope calibration	1.0000multiplexer offset coefficient	1.0000multiplexer slope coefficient	1.0000fibre end	0.00T internal ref (°C)	30.06T ext. ref 1 (°C)	-0.31T ext. ref 2 (°C)	23.35length (m)	temperature (°C)	Stokes	anti-Stokes-747.200	-200.000	-0.037	0.199
-746.185	800.000	-0.086	0.278
-745.171	-47.990	-0.252	0.123
-744.156	715.722	-0.068	0.183
-743.142	-23.049	0.221	-0.134
-742.127	42.819	-0.207	-0.190
-741.112	-71.498	0.446	-0.168
-740.098	-200.000	-0.022	-0.298
-739.083	-12.318	0.091	0.060
-738.069	-83.748	-0.227	0.073
-737.054	-200.000	-0.028	0.151
-736.039	16.308	0.156	0.124
-735.025	-7.655	0.192	-0.130
-734.010	600.189	-0.051	0.126
-732.996	-69.336	-0.131	-0.051
-731.981	-25.220	0.199	-0.119
-730.966	101.530	-0.194	-0.228
-729.952	800.000	0.038	0.161
-728.937	223.710	0.095	0.154
-727.923	-68.638	0.341	0.133
-726.908	63.067	0.074	0.074
-725.894	653.441	-0.076	0.197
-724.879	90.484	-0.021	0.024
-723.864	-200.000	0.006	-0.055
-722.850	36.188	0.191	-0.169
-721.835	31.587	-0.229	-0.198
-720.821	77.159	-0.091	-0.097
-719.806	-46.875	0.035	0.017
-718.791	-86.764	0.052	-0.016
-717.777	133.053	0.110	0.143
-716.762	-163.695	-0.186	-0.009
-715.748	-28.638	0.141	-0.082
-714.733	-12.331	0.565	-0.372
-713.718	44.882	-0.107	-0.099
-712.704	-21.523	-0.188	0.115
-711.689	-41.426	0.259	-0.134
-710.675	565.495	-0.166	-0.405
-709.660	-34.471	-0.093	-0.051
-708.645	-75.535	0.101	0.036
-707.631	800.000	0.100	-0.299
-706.616	-51.915	-0.051	0.024
-705.602	204.412	-0.319	-0.497
-704.587	-111.888	0.252	-0.051
-703.572	25.617	-0.214	0.179
-702.558	13.081	-0.081	-0.063
-701.543	-200.000	0.014	-0.168
-700.529	145.876	-0.282	-0.380
-699.514	185.673	0.057	0.085
-698.499	-6.398	0.153	-0.105
-697.485	136.311	-0.071	0.093
-696.470	-32.900	-0.142	-0.079
-695.456	800.000	-0.045	0.183
-694.441	-94.877	0.216	0.059
-693.426	-112.921	0.141	0.028
-692.412	800.000	-0.052	0.215
-691.397	-88.025	0.253	-0.076
-690.383	12.774	0.286	-0.222
-689.368	800.000	-0.053	-0.193
-688.354	-200.000	0.023	-0.184
-687.339	119.433	-0.121	-0.151
-686.324	475.164	-0.069	-0.155
-685.310	-200.000	-0.016	0.176
-684.295	225.743	-0.116	-0.189
-683.281	800.000	-0.082	-0.282
-682.266	-107.696	0.130	-0.029
-681.251	-54.685	0.505	-0.229
-680.237	-46.912	-0.100	-0.049
-679.222	490.258	-0.103	-0.236
-678.208	-200.000	-0.050	-0.285
-677.193	800.000	-0.086	-0.243
-676.178	-112.411	0.216	-0.043
-675.164	-57.690	-0.208	-0.092
-674.149	-200.000	0.002	-0.027
-673.135	-144.055	0.045	-0.004
-672.120	399.641	-0.138	0.291
-671.105	-51.000	0.259	-0.122
-670.091	788.644	0.103	-0.283
-669.076	-169.021	0.189	0.007
-668.062	135.836	-0.091	-0.119
-667.047	-62.418	0.026	-0.011
-666.032	-68.020	0.159	0.062
-665.018	321.463	-0.175	-0.334
-664.003	121.166	-0.228	-0.285
-662.989	82.333	0.158	0.172
-661.974	-64.452	-0.291	-0.119
-660.959	-128.713	0.098	0.014
-659.945	800.000	0.041	0.166
-658.930	-24.419	0.154	0.092
-657.916	-24.254	0.160	0.096
-656.901	-85.459	0.036	-0.011
-655.886	-200.000	0.037	-0.180
-654.872	800.000	-0.042	-0.151
-653.857	800.000	0.039	-0.150
-652.843	318.620	-0.079	0.150
-651.828	281.262	0.224	-0.402
-650.814	207.229	0.161	0.251
-649.799	22.887	0.180	-0.148
-648.784	-7.854	-0.210	-0.142
-647.770	-136.234	-0.408	-0.048
-646.755	-120.917	-0.285	-0.048
-645.741	50.751	0.039	0.037
-644.726	-200.000	-0.033	0.185
-643.711	800.000	0.091	0.362
-642.697	-105.118	-0.029	-0.007
-641.682	239.154	0.079	0.131
-640.668	15.969	0.189	-0.149
-639.653	-148.586	-0.423	-0.035
-638.638	-55.121	-0.232	0.105
-637.624	4.347	0.188	0.138
-636.609	8.153	0.162	0.122
-635.595	526.564	-0.147	0.348
-634.580	-122.677	0.048	0.008
-633.565	-81.394	0.276	0.091
-632.551	-97.283	-0.473	0.124
-631.536	800.000	0.026	-0.111
-630.522	-200.000	-0.062	-0.275
-629.507	800.000	0.118	-0.422
-628.492	-64.206	0.257	0.105
-627.478	-57.866	-0.064	0.028
-626.463	-200.000	-0.007	0.187
-625.449	800.000	-0.121	0.340
-624.434	-200.000	-0.031	0.157
-623.419	207.793	0.269	-0.421
-622.405	-162.532	0.104	0.005
-621.390	800.000	0.136	0.453
-620.376	371.786	-0.125	-0.254
-619.361	273.027	0.100	-0.177
-618.346	352.766	-0.057	0.114
-617.332	109.377	0.240	0.288
-616.317	68.486	0.112	0.115
-615.303	800.000	-0.084	0.246
-614.288	386.251	0.108	0.222
-613.273	-0.233	0.122	0.087
-612.259	-149.781	-0.174	-0.014
-611.244	-200.000	0.014	-0.327
-610.230	-200.000	-0.041	0.230
-609.215	539.268	0.069	0.165
-608.201	-123.098	-0.200	0.032
-607.186	800.000	-0.043	0.124
-606.171	27.630	-0.123	0.104
-605.157	37.365	-0.116	-0.103
-604.142	-200.000	-0.010	0.056
-603.128	-200.000	-0.004	-0.060
-602.113	800.000	-0.087	-0.293
-601.098	635.532	-0.086	-0.218
-600.084	6.564	-0.212	-0.158
-599.069	-63.224	0.306	0.126
-598.055	403.069	0.150	-0.316
-597.040	453.058	-0.040	-0.088
-596.025	800.000	0.081	0.246
-595.011	24.369	-0.123	0.102
-593.996	-137.117	0.364	-0.042
-592.982	-127.378	0.306	0.045
-591.967	-200.000	0.010	-0.128
-590.952	-200.000	0.003	-0.131
-589.938	-76.578	0.426	0.150
-588.923	246.450	-0.110	-0.185
-587.909	-147.961	0.350	-0.029
-586.894	-200.000	0.008	-0.094
-585.879	-88.161	-0.236	-0.071
-584.865	-200.000	-0.049	-0.250
-583.850	800.000	0.059	0.210
-582.836	-200.000	0.040	-0.206
-581.821	-130.707	0.203	0.027
-580.806	-200.000	0.008	-0.058
-579.792	-67.275	-0.400	0.157
-578.777	-200.000	0.034	-0.405
-577.763	91.720	0.089	-0.100
-576.748	-200.000	-0.010	-0.095
-575.733	7.296	-0.099	-0.074
-574.719	-10.566	-0.225	-0.149
-573.704	-200.000	0.023	-0.175
-572.690	-200.000	-0.006	-0.092
-571.675	-92.304	0.180	0.051
-570.661	-69.014	0.213	0.082
-569.646	-62.403	0.106	0.044
-568.631	155.892	0.093	-0.128
-567.617	800.000	0.064	0.192
-566.602	186.350	-0.085	0.127
-565.588	45.867	-0.093	0.086
-564.573	800.000	-0.116	-0.357
-563.558	116.940	0.133	-0.163
-562.544	-12.559	-0.334	-0.218
-561.529	219.713	-0.125	-0.200
-560.515	68.516	-0.149	-0.153
-559.500	-90.277	0.132	0.038
-558.485	-128.272	0.160	-0.023
-557.471	59.298	0.131	-0.129
-556.456	-58.881	0.078	-0.034
-555.442	800.000	0.091	0.271
-554.427	197.738	0.092	0.141
-553.412	-200.000	-0.044	-0.221
-552.398	-200.000	0.034	-0.280
-551.383	-51.679	0.301	-0.140
-550.369	-143.369	-0.319	0.030
-549.354	-2.351	-0.031	0.022
-548.339	101.016	-0.118	0.137
-547.325	284.371	-0.110	0.198
-546.310	-200.000	-0.018	-0.221
-545.296	151.108	-0.093	0.126
-544.281	-200.000	0.017	0.295
-543.266	175.889	0.121	0.175
-542.252	-72.509	-0.410	0.151
-541.237	7.311	0.362	-0.270
-540.223	348.845	0.030	-0.059
-539.208	0.119	-0.046	0.033
-538.193	-200.000	0.050	0.269
-537.179	-58.763	0.324	-0.140
-536.164	-57.019	0.073	-0.032
-535.150	-195.455	-0.068	-0.000
-534.135	-160.368	-0.311	0.017
-533.121	-200.000	-0.020	0.147
-532.106	-200.000	0.017	0.212
-531.091	561.862	-0.033	-0.079
-530.077	-40.978	-0.201	0.104
-529.062	74.369	-0.144	0.151
-528.048	-13.547	-0.165	-0.107
-527.033	800.000	-0.044	-0.129
-526.018	323.628	-0.081	0.154
-525.004	40.202	-0.188	-0.169
-523.989	-76.010	0.118	-0.042
-522.975	800.000	-0.036	-0.128
-521.960	17.175	0.153	0.121
-520.945	129.489	-0.208	0.265
-519.931	126.507	0.065	-0.082
-518.916	-200.000	0.060	-0.336
-517.902	-200.000	-0.064	-0.318
-516.887	432.549	0.062	-0.135
-515.872	-85.276	-0.202	-0.063
-514.858	-177.649	-0.353	0.009
-513.843	-200.000	-0.080	-0.484
-512.829	97.210	-0.189	-0.216
-511.814	-1.794	0.258	0.181
-510.799	-59.749	0.188	0.080
-509.785	-53.225	0.114	-0.052
-508.770	159.688	-0.187	-0.260
-507.756	59.028	-0.118	-0.116
-506.741	-117.107	0.288	-0.052
-505.726	-2.011	0.101	-0.071
-504.712	-200.000	-0.057	0.249
-503.697	800.000	-0.101	-0.340
-502.683	401.280	-0.077	-0.161
-501.668	273.222	-0.155	-0.273
-500.653	28.667	-0.079	-0.067
-499.639	-65.263	-0.125	-0.050
-498.624	313.905	-0.053	0.099
-497.610	-200.000	0.019	0.114
-496.595	-15.048	-0.213	-0.136
-495.581	-8.747	0.185	-0.124
-494.566	307.531	-0.106	-0.198
-493.551	-4.410	-0.142	0.098
-492.537	-66.233	0.203	-0.081
-491.522	800.000	-0.022	-0.087
-490.508	-200.000	0.019	-0.189
-489.493	-61.492	-0.099	0.041
-488.478	-200.000	0.006	-0.113
-487.464	126.984	-0.023	-0.029
-486.449	502.634	0.015	-0.034
-485.435	-43.924	0.199	0.100
-484.420	390.997	0.080	-0.166
-483.405	74.335	0.211	0.220
-482.391	800.000	-0.079	0.234
-481.376	-200.000	-0.004	-0.088
-480.362	800.000	0.059	0.233
-479.347	62.711	-0.240	0.239
-478.332	-133.485	-0.085	0.011
-477.318	-200.000	0.016	0.119
-476.303	276.300	0.089	0.158
-475.289	-141.973	-0.298	0.030
-474.274	-82.013	0.296	-0.096
-473.259	51.738	-0.223	0.212
-472.245	642.399	0.044	-0.113
-471.230	-61.572	0.175	0.073
-470.216	260.540	0.237	-0.408
-469.201	800.000	0.085	-0.235
-468.186	-200.000	-0.030	0.150
-467.172	136.053	-0.083	0.108
-466.157	318.083	-0.097	-0.184
-465.143	47.460	-0.124	-0.115
-464.128	206.465	0.091	0.141
-463.113	141.334	0.180	0.237
-462.099	-68.933	0.165	0.063
-461.084	-76.376	-0.006	-0.002
-460.070	-163.934	-0.228	-0.011
-459.055	347.231	0.045	-0.088
-458.040	-200.000	0.032	-0.174
-457.026	366.920	-0.078	-0.157
-456.011	-200.000	-0.040	-0.224
-454.997	-200.000	-0.023	0.250
-453.982	700.089	0.067	0.176
-452.968	-200.000	0.004	0.120
-451.953	-156.408	-0.516	-0.032
-450.938	800.000	-0.072	0.262
-449.924	800.000	-0.041	0.149
-448.909	800.000	0.035	-0.133
-447.895	-51.343	-0.050	-0.023
-446.880	98.986	-0.115	0.133
-445.865	800.000	0.096	0.276
-444.851	-156.862	0.307	-0.019
-443.836	388.637	0.077	-0.159
-442.822	24.205	0.110	-0.090
-441.807	365.994	0.113	0.226
-440.792	2.470	0.342	-0.246
-439.778	101.631	-0.130	-0.151
-438.763	800.000	0.176	-0.697
-437.749	-19.310	0.314	0.194
-436.734	800.000	0.058	0.161
-435.719	83.732	-0.170	0.185
-434.705	80.522	-0.083	0.089
-433.690	-144.265	0.375	0.035
-432.676	-66.146	0.304	-0.121
-431.661	-5.006	-0.169	0.116
-430.646	-136.198	0.141	-0.016
-429.632	248.650	-0.093	-0.156
-428.617	-200.000	0.001	0.248
-427.603	800.000	-0.028	-0.085
-426.588	-171.857	0.139	0.005
-425.573	-127.547	0.112	0.016
-424.559	-200.000	0.015	-0.206
-423.544	-79.715	0.058	-0.019
-422.530	-31.654	-0.226	-0.126
-421.515	-50.520	0.142	-0.066
-420.500	-103.667	-0.224	0.052
-419.486	-91.379	-0.241	-0.068
-418.471	800.000	-0.017	0.067
-417.457	-123.455	0.136	0.022
-416.442	177.250	-0.086	0.124
-415.428	-56.472	0.075	0.033
-414.413	-141.170	-0.182	-0.018
-413.398	10.442	-0.090	0.068
-412.384	-174.113	-0.192	0.006
-411.369	-36.887	0.102	-0.054
-410.355	28.672	0.299	-0.252
-409.340	-200.000	-0.005	-0.142
-408.325	313.200	0.095	-0.178
-407.311	220.424	-0.182	-0.289
-406.296	6.031	-0.381	0.280
-405.282	-57.803	-0.119	0.052
-404.267	39.467	-0.266	0.236
-403.252	-94.706	-0.162	0.044
-402.238	510.307	-0.104	-0.239
-401.223	-20.187	-0.057	-0.035
-400.209	630.877	0.109	-0.273
-399.194	-200.000	0.045	0.261
-398.179	-28.167	0.277	0.159
-397.165	-9.241	0.146	-0.097
-396.150	-23.488	-0.142	-0.085
-395.136	43.290	0.075	-0.068
-394.121	-33.490	0.114	0.063
-393.106	142.148	0.210	0.276
-392.092	26.114	0.113	0.094
-391.077	-200.000	-0.359	-0.001
-390.063	50.561	0.069	0.065
-389.048	-200.000	-0.050	-0.225
-388.033	170.032	0.019	-0.026
-387.019	-200.000	-0.014	0.189
-386.004	126.264	0.047	-0.059
-384.990	247.774	-0.099	-0.166
-383.975	-132.790	0.094	-0.012
-382.960	-64.612	-0.323	-0.130
-381.946	73.818	-0.117	0.122
-380.931	34.639	0.123	0.106
-379.917	-163.688	0.157	0.007
-378.902	-150.182	-0.354	-0.027
-377.888	-200.000	0.002	-0.025
-376.873	-64.874	0.154	-0.062
-375.858	-84.983	-0.080	0.025
-374.844	-200.000	0.020	-0.211
-373.829	-200.000	0.025	0.178
-372.815	800.000	0.050	0.202
-371.800	-130.767	-0.242	0.032
-370.785	800.000	-0.115	-0.371
-369.771	110.549	0.304	0.363
-368.756	-99.774	0.157	0.039
-367.742	535.934	-0.039	0.092
-366.727	-117.931	-0.221	0.039
-365.712	244.471	0.016	-0.027
-364.698	-80.123	0.111	-0.037
-363.683	7.732	-0.206	0.153
-362.669	-200.000	-0.015	-0.066
-361.654	-200.000	0.004	0.186
-360.639	-143.189	0.293	-0.028
-359.625	-159.882	0.282	0.015
-358.610	-154.664	-0.253	0.017
-357.596	-56.135	-0.216	-0.095
-356.581	-6.216	-0.076	0.052
-355.566	298.427	0.024	0.044
-354.552	-200.000	-0.001	-0.070
-353.537	-48.417	0.333	-0.159
-352.523	-167.172	0.108	-0.004
-351.508	55.884	0.182	0.175
-350.493	-56.954	0.241	0.106
-349.479	-200.000	-0.014	-0.171
-348.464	-53.861	-0.070	0.032
-347.450	-200.000	-0.016	0.155
-346.435	346.170	0.101	0.197
-345.420	194.568	-0.045	-0.067
-344.406	800.000	0.059	0.218
-343.391	-200.000	0.022	-0.298
-342.377	197.348	-0.230	-0.348
-341.362	117.655	-0.228	0.278
-340.348	161.983	-0.187	0.259
-339.333	-56.750	-0.079	-0.034
-338.318	357.832	0.119	-0.235
-337.304	274.355	0.136	0.239
-336.289	26.328	0.220	0.182
-335.275	-69.860	0.279	0.106
-334.260	5.570	-0.156	0.114
-333.245	-87.528	0.316	-0.095
-332.231	-160.736	-0.253	0.013
-331.216	105.094	-0.018	-0.021
-330.202	136.071	-0.046	0.060
-329.187	29.764	-0.132	-0.111
-328.172	-200.000	-0.030	-0.252
-327.158	-119.279	-0.250	-0.043
-326.143	-86.520	0.128	0.039
-325.129	-147.580	-0.207	-0.017
-324.114	-200.000	-0.011	-0.111
-323.099	-200.000	0.023	-0.541
-322.085	800.000	-0.089	-0.267
-321.070	800.000	-0.032	0.121
-320.056	274.302	0.048	0.084
-319.041	-30.088	0.094	0.053
-318.026	251.082	-0.135	0.227
-317.012	245.495	-0.053	-0.088
-315.997	-200.000	-0.016	-0.212
-314.983	800.000	0.032	-0.094
-313.968	-176.909	-0.382	-0.010
-312.953	363.767	0.120	-0.240
-311.939	-200.000	-0.014	-0.112
-310.924	16.493	-0.150	-0.117
-309.910	190.898	0.024	-0.036
-308.895	533.968	0.056	-0.132
-307.880	525.742	0.100	0.234
-306.866	-50.704	0.254	-0.119
-305.851	800.000	-0.035	-0.120
-304.837	-3.921	-0.166	0.114
-303.822	-35.109	0.115	-0.062
-302.807	800.000	-0.091	0.280
-301.793	129.222	-0.185	0.234
-300.778	109.306	-0.056	0.067
-299.764	-168.029	-0.252	0.010
-298.749	191.017	-0.058	-0.086
-297.735	800.000	0.099	0.284
-296.720	7.998	-0.216	0.160
-295.705	-200.000	0.042	-0.229
-294.691	100.712	0.202	-0.232
-293.676	237.913	0.206	0.339
-292.662	-200.000	0.024	0.444
-291.647	31.708	0.294	-0.250
-290.632	338.090	-0.181	-0.348
-289.618	800.000	-0.037	0.117
-288.603	24.042	-0.051	0.041
-287.589	338.181	0.076	-0.147
-286.574	-53.973	0.144	0.065
-285.559	-94.402	0.182	0.049
-284.545	-130.678	-0.104	-0.014
-283.530	-25.824	0.362	0.211
-282.516	-22.630	-0.205	-0.122
-281.501	-1.337	-0.211	0.148
-280.486	-157.308	-0.148	-0.009
-279.472	-200.000	-0.009	-0.204
-278.457	106.190	-0.145	-0.170
-277.443	-141.929	0.235	-0.023
-276.428	-135.786	-0.158	0.018
-275.413	185.300	-0.175	-0.257
-274.399	233.311	-0.177	-0.288
-273.384	-200.000	0.040	0.237
-272.370	119.334	0.096	-0.118
-271.355	-74.564	0.074	-0.026
-270.340	216.157	-0.185	0.290
-269.326	114.960	-0.263	0.317
-268.311	-191.055	0.238	-0.002
-267.297	268.812	-0.171	0.297
-266.282	-9.168	0.194	0.128
-265.267	800.000	0.038	-0.138
-264.253	-200.000	-0.020	-0.132
-263.238	-41.531	-0.122	0.062
-262.224	183.457	0.080	-0.118
-261.209	800.000	-0.046	0.161
-260.195	117.016	0.186	0.226
-259.180	-167.395	0.241	-0.010
-258.165	-108.559	0.257	0.055
-257.151	-32.984	-0.147	-0.081
-256.136	133.062	0.113	-0.144
-255.122	-125.780	-0.254	-0.038
-254.107	197.339	-0.052	0.078
-253.092	353.628	-0.134	-0.262
-252.078	800.000	-0.057	-0.196
-251.063	98.314	-0.077	-0.088
-250.049	-200.000	0.002	0.044
-249.034	800.000	0.096	-0.395
-248.019	800.000	-0.084	-0.250
-247.005	79.187	-0.176	0.186
-245.990	151.147	0.170	-0.228
-244.976	222.743	-0.134	-0.214
-243.961	-92.888	-0.162	0.045
-242.946	-91.972	0.163	-0.046
-241.932	-142.986	0.153	0.015
-240.917	-13.464	-0.044	0.028
-239.903	-30.227	-0.241	0.135
-238.888	181.912	0.028	-0.041
-237.873	30.362	-0.069	0.058
-236.859	509.186	0.144	0.331
-235.844	24.419	0.112	0.092
-234.830	-200.000	0.001	0.113
-233.815	58.390	-0.050	-0.049
-232.800	-83.311	-0.047	-0.015
-231.786	422.530	-0.083	-0.177
-230.771	-68.107	-0.289	0.111
-229.757	373.483	0.044	0.089
-228.742	379.719	-0.133	-0.270
-227.727	276.249	0.251	0.439
-226.713	348.024	-0.024	0.048
-225.698	-200.000	0.042	-0.190
-224.684	-200.000	0.031	0.315
-223.669	24.839	0.345	0.282
-222.655	129.971	-0.091	0.115
-221.640	-37.607	0.110	-0.058
-220.625	214.225	0.061	0.096
-219.611	800.000	0.009	0.037
-218.596	-151.455	-0.066	-0.005
-217.582	-9.215	-0.048	0.032
-216.567	-102.564	-0.216	0.051
-215.552	294.241	-0.163	0.293
-214.538	363.698	0.081	0.161
-213.523	-200.000	-0.034	0.181
-212.509	263.289	0.274	0.469
-211.494	-161.000	-0.039	0.002
-210.479	-200.000	-0.059	-0.285
-209.465	-45.926	-0.386	-0.188
-208.450	800.000	-0.021	-0.064
-207.436	63.904	0.152	0.150
-206.421	18.916	0.188	-0.148
-205.406	476.772	-0.104	0.232
-204.392	-176.517	0.220	0.006
-203.377	-145.633	0.255	-0.022
-202.363	-200.000	-0.058	-0.277
-201.348	207.017	0.043	0.065
-200.333	-40.188	-0.140	-0.072
-199.319	-76.928	0.240	-0.083
-198.304	-20.080	0.151	0.092
-197.290	332.959	-0.090	0.172
-196.275	134.464	0.386	-0.493
-195.260	-200.000	0.012	-0.079
-194.246	-183.162	0.319	-0.006
-193.231	-90.087	0.375	0.108
-192.217	751.815	-0.023	-0.061
-191.202	-200.000	-0.016	-0.143
-190.187	245.436	-0.019	-0.031
-189.173	213.280	-0.151	-0.235
-188.158	-200.000	-0.023	0.259
-187.144	557.761	0.055	-0.130
-186.129	-48.203	-0.068	0.032
-185.114	-200.000	-0.003	-0.238
-184.100	800.000	-0.099	0.336
-183.085	235.950	0.084	0.136
-182.071	800.000	-0.120	0.356
-181.056	45.302	0.190	0.172
-180.042	800.000	0.110	0.347
-179.027	158.609	-0.191	-0.261
-178.012	-119.927	0.212	-0.036
-176.998	191.471	0.204	0.303
-175.983	-200.000	0.008	0.239
-174.969	211.732	-0.162	0.251
-173.954	-10.574	0.272	0.177
-172.939	-60.272	-0.101	0.042
-171.925	-152.895	-0.466	0.032
-170.910	800.000	0.103	0.415
-169.896	800.000	-0.015	-0.055
-168.881	-172.257	0.355	0.011
-167.866	-39.332	-0.071	-0.037
-166.852	367.524	0.048	0.095
-165.837	-200.000	-0.051	0.229
-164.823	27.135	-0.134	-0.111
-163.808	47.903	0.165	-0.152
-162.793	267.602	-0.171	0.294
-161.779	-172.595	0.183	-0.006
-160.764	-200.000	-0.013	0.144
-159.750	-200.000	-0.021	-0.147
-158.735	105.325	-0.108	0.126
-157.720	564.785	-0.071	-0.170
-156.706	110.761	-0.116	0.137
-155.691	-114.973	0.443	0.083
-154.677	-53.558	-0.072	-0.032
-153.662	-200.000	0.037	-0.238
-152.647	-99.708	-0.202	-0.050
-151.633	-2.435	0.115	-0.079
-150.618	-41.053	0.285	0.145
-149.604	-200.000	-0.015	-0.077
-148.589	-181.048	-0.395	0.008
-147.574	-147.194	-0.109	-0.009
-146.560	643.369	0.099	-0.248
-145.545	-200.000	-0.038	-0.377
-144.531	-200.000	0.001	-0.026
-143.516	-94.188	-0.053	0.014
-142.502	-104.861	0.329	0.074
-141.487	-147.650	0.315	-0.026
-140.472	800.000	-0.105	0.284
-139.458	139.393	-0.175	0.227
-138.443	800.000	-0.012	0.034
-137.429	-200.000	0.015	-0.147
-136.414	-200.000	-0.059	0.271
-135.399	183.366	0.171	0.249
-134.385	-15.013	0.171	0.108
-133.370	173.157	0.100	-0.141
-132.356	219.517	-0.163	0.257
-131.341	800.000	0.137	0.380
-130.326	800.000	0.078	0.243
-129.312	-168.540	0.295	0.011
-128.297	-84.526	-0.172	0.053
-127.283	79.526	0.292	-0.308
-126.268	-200.000	-0.036	0.330
-125.253	-200.000	0.094	-0.451
-124.239	484.436	-0.041	-0.092
-123.224	41.175	0.226	-0.201
-122.210	-0.694	-0.110	-0.077
-121.195	-134.907	0.219	-0.026
-120.180	385.459	-0.050	0.100
-119.166	800.000	0.039	0.120
-118.151	489.233	-0.023	-0.051
-117.137	-129.557	-0.159	-0.022
-116.122	-150.467	0.265	-0.020
-115.107	60.550	0.081	-0.079
-114.093	-200.000	0.009	0.341
-113.078	800.000	-0.042	-0.125
-112.064	-184.608	-0.024	0.000
-111.049	547.240	-0.145	-0.340
-110.034	-200.000	-0.000	-0.053
-109.020	800.000	-0.027	-0.096
-108.005	-66.552	0.300	0.117
-106.991	624.178	0.085	0.210
-105.976	194.833	0.099	-0.148
-104.962	73.733	0.108	-0.111
-103.947	800.000	-0.062	0.264
-102.932	223.695	0.271	0.430
-101.918	263.962	-0.026	0.045
-100.903	394.042	-0.164	-0.336
-99.889	-106.288	0.195	-0.043
-98.874	442.584	0.191	-0.411
-97.859	-200.000	-0.001	-0.112
-96.845	67.079	0.180	0.180
-95.830	800.000	0.029	0.114
-94.816	323.266	0.111	-0.207
-93.801	-123.246	0.388	0.061
-92.786	-113.469	0.199	0.038
-91.772	117.625	-0.378	-0.457
-90.757	-200.000	0.009	0.065
-89.743	170.675	0.087	0.122
-88.728	-88.996	0.141	0.041
-87.713	73.633	0.131	0.135
-86.699	-108.115	0.054	0.012
-85.684	-71.428	0.173	-0.063
-84.670	10.395	0.374	0.280
-83.655	395.479	0.108	-0.221
-82.640	510.512	-0.099	-0.225
-81.626	-117.999	-0.191	-0.034
-80.611	38.112	-0.158	0.138
-79.597	187.798	0.032	-0.047
-78.582	-88.362	-0.308	-0.090
-77.567	174.259	0.041	0.059
-76.553	437.214	0.048	-0.102
-75.538	-200.000	-0.046	0.215
-74.524	3.797	0.333	-0.238
-73.509	-67.660	0.323	-0.124
-72.494	-125.165	0.243	0.037
-71.480	-47.201	-0.072	-0.034
-70.465	-31.952	-0.150	0.082
-69.451	-64.606	0.206	0.082
-68.436	-169.668	0.110	-0.004
-67.422	800.000	0.010	-0.037
-66.407	800.000	0.121	-0.349
-65.392	-41.304	0.130	-0.066
-64.378	117.382	-0.268	0.323
-63.363	-126.936	0.152	0.022
-62.349	-34.072	-0.451	0.243
-61.334	54.642	-0.826	-0.780
-60.319	99.855	0.587	0.666
-59.305	506.712	-0.538	-1.223
-58.290	88.002	0.915	0.994
-57.276	218.870	0.801	1.255
-56.261	-200.000	104.390	611.647
-55.246	516.957	1484.828	3402.570
-54.232	178.291	2687.780	3844.941
-53.217	106.727	2287.717	2660.426
-52.203	39.251	1896.527	1663.250
-51.188	33.219	1684.201	1431.510
-50.173	30.622	1641.094	1375.629
-49.159	49.012	1694.218	1558.893
-48.144	49.940	1709.485	1579.851
-47.130	32.814	1667.275	1413.863
-46.115	30.281	1652.451	1382.394
-45.100	30.029	1647.778	1376.551
-44.086	29.956	1645.416	1373.985
-43.071	29.976	1642.332	1371.502
-42.057	29.910	1640.461	1369.397
-41.042	29.937	1638.604	1367.992
-40.027	30.038	1636.196	1366.675
-39.013	29.937	1634.548	1364.497
-37.998	29.897	1632.979	1362.841
-36.984	29.993	1631.639	1362.376
-35.969	30.074	1630.336	1361.824
-34.954	30.121	1628.207	1360.339
-33.940	30.092	1626.557	1358.698
-32.925	30.103	1625.154	1357.548
-31.911	30.055	1623.256	1355.561
-30.896	30.073	1621.517	1354.184
-29.881	30.008	1620.068	1352.448
-28.867	30.070	1618.315	1351.378
-27.852	29.946	1617.507	1349.745
-26.838	30.058	1615.308	1348.673
-25.823	30.103	1614.105	1347.943
-24.809	30.099	1613.051	1346.984
-23.794	30.069	1611.703	1345.588
-22.779	30.048	1609.727	1343.731
-21.765	30.043	1608.389	1342.526
-20.750	30.032	1606.571	1340.875
-19.736	30.143	1605.303	1340.561
-18.721	30.080	1604.172	1339.114
-17.706	30.030	1602.755	1337.512
-16.692	30.039	1600.826	1335.919
-15.677	30.023	1599.565	1334.695
-14.663	30.174	1598.095	1334.504
-13.648	30.106	1596.873	1332.938
-12.633	30.080	1595.390	1331.459
-11.619	30.208	1593.514	1330.761
-10.604	30.129	1592.130	1328.989
-9.590	30.122	1591.131	1328.051
-8.575	30.111	1589.988	1326.963
-7.560	30.039	1588.745	1325.362
-6.546	30.103	1587.694	1324.889
-5.531	30.150	1586.846	1324.464
-4.517	30.101	1586.123	1323.460
-3.502	30.080	1584.466	1321.874
-2.487	30.103	1582.756	1320.560
-1.473	29.702	1571.390	1308.185
-0.458	26.849	1551.091	1271.273
0.556	21.078	1551.823	1239.929
1.571	18.724	1576.365	1242.411
2.586	18.328	1590.111	1250.244
3.600	16.653	1537.268	1196.751
4.615	8.862	1427.415	1059.799
5.629	1.208	1363.808	963.980
6.644	-0.151	1355.629	949.530
7.659	-0.369	1354.281	947.126
8.673	-0.379	1353.915	946.722
9.688	-0.352	1351.385	945.040
10.702	-0.655	1348.487	941.024
11.717	2.502	1354.539	965.078
12.731	11.556	1371.865	1034.920
13.746	18.915	1384.238	1091.038
14.761	20.604	1386.197	1103.211
15.775	20.874	1385.693	1104.425
16.790	20.919	1385.313	1104.306
17.804	20.926	1384.927	1103.947
18.819	21.177	1384.318	1104.951
19.834	21.205	1383.997	1104.776
20.848	21.321	1383.052	1104.659
21.863	21.271	1382.073	1103.466
22.877	21.280	1381.696	1103.119
23.892	21.278	1381.029	1102.480
24.907	21.271	1379.994	1101.508
25.921	21.348	1378.712	1100.871
26.936	21.306	1377.628	1099.648
27.950	21.363	1376.658	1099.133
28.965	21.355	1375.385	1097.967
29.980	21.265	1374.507	1096.609
30.994	21.389	1372.902	1096.006
32.009	21.315	1371.933	1094.673
33.023	21.200	1371.225	1093.293
34.038	21.175	1369.601	1091.745
35.053	21.193	1369.164	1091.410
36.067	21.249	1367.699	1090.497
37.082	21.377	1366.570	1090.300
38.096	21.215	1365.884	1088.643
39.111	21.213	1365.633	1088.334
40.126	21.305	1364.458	1087.874
41.140	21.348	1363.947	1087.636
42.155	21.251	1363.495	1086.578
43.169	21.219	1363.980	1086.673
44.184	21.276	1363.368	1086.438
45.199	21.345	1362.748	1086.282
46.213	21.316	1362.106	1085.494
47.228	21.315	1361.328	1084.770
48.242	21.271	1360.017	1083.356
49.257	21.240	1359.190	1082.408
50.271	21.171	1357.571	1080.599
51.286	21.240	1355.890	1079.592
52.301	21.330	1354.745	1079.136
53.315	21.315	1353.835	1078.227
54.330	21.317	1352.680	1077.223
55.344	21.235	1351.952	1076.043
56.359	21.391	1350.754	1075.954
57.374	21.180	1350.536	1074.390
58.388	21.192	1349.871	1073.838
59.403	21.196	1349.369	1073.364
60.417	21.209	1348.641	1072.775
61.432	21.308	1347.557	1072.420
62.447	21.274	1346.405	1071.201
63.461	21.293	1345.381	1070.408
64.476	21.340	1344.621	1070.001
65.490	21.245	1343.520	1068.443
66.505	21.307	1341.436	1067.071
67.520	21.292	1340.679	1066.284
68.534	21.338	1339.280	1065.359
69.549	21.441	1338.305	1065.116
70.563	21.385	1337.395	1063.955
71.578	21.300	1336.665	1062.767
72.593	21.346	1335.778	1062.242
73.607	21.303	1335.021	1061.288
74.622	21.316	1334.253	1060.659
75.636	21.328	1333.657	1060.169
76.651	21.295	1332.862	1059.244
77.666	21.217	1332.481	1058.374
78.680	21.333	1332.457	1058.964
79.695	21.302	1331.008	1057.527
80.709	21.288	1330.220	1056.724
81.724	21.344	1329.489	1056.387
82.739	21.338	1328.407	1055.400
83.753	21.359	1327.414	1054.645
84.768	21.436	1326.306	1054.132
85.782	21.271	1325.499	1052.405
86.797	21.397	1324.288	1052.112
87.812	21.331	1322.685	1050.346
88.826	21.420	1321.953	1050.207
89.841	21.323	1321.340	1049.047
90.855	21.318	1320.009	1047.867
91.870	21.324	1319.270	1047.222
92.884	21.319	1318.541	1046.523
93.899	21.467	1317.383	1046.394
94.914	21.439	1316.738	1045.620
95.928	21.405	1315.945	1044.694
96.943	21.407	1315.056	1043.908
97.957	21.433	1314.257	1043.341
98.972	21.379	1313.542	1042.356
99.987	21.383	1312.010	1041.070
101.001	21.368	1311.289	1040.322
102.016	21.301	1310.605	1039.283
103.030	21.424	1309.373	1038.946
104.045	21.322	1308.943	1037.910
105.060	21.503	1307.251	1037.548
106.074	21.420	1306.459	1036.335
107.089	21.400	1305.595	1035.443
108.103	21.363	1304.419	1034.200
109.118	21.501	1303.188	1033.948
110.133	21.476	1302.055	1032.810
111.147	21.535	1301.176	1032.370
112.162	21.430	1300.109	1030.809
113.176	21.447	1298.860	1029.831
114.191	21.461	1297.874	1029.042
115.206	21.528	1296.687	1028.402
116.220	21.507	1295.207	1027.014
117.235	21.417	1295.135	1026.338
118.249	21.365	1294.217	1025.211
119.264	21.250	1293.244	1023.676
120.279	21.417	1292.394	1023.894
121.293	21.552	1291.127	1023.590
122.308	21.362	1290.627	1021.991
123.322	21.534	1289.217	1021.785
124.337	21.476	1288.434	1020.741
125.352	21.545	1287.316	1020.166
126.366	21.587	1286.184	1019.424
127.381	21.615	1284.995	1018.549
128.395	21.514	1284.599	1017.558
129.410	21.522	1283.601	1016.726
130.424	21.574	1282.571	1016.121
131.439	21.478	1282.105	1015.107
132.454	21.478	1281.470	1014.512
133.468	21.468	1280.370	1013.496
134.483	21.436	1279.872	1012.825
135.497	21.447	1279.089	1012.179
136.512	21.500	1277.972	1011.511
137.527	21.566	1276.721	1010.812
138.541	21.491	1275.243	1009.120
139.556	21.509	1273.848	1008.036
140.570	21.405	1273.217	1006.844
141.585	21.488	1271.850	1006.153
142.600	21.541	1270.845	1005.573
143.614	21.542	1269.680	1004.566
144.629	21.523	1268.870	1003.731
145.643	21.340	1268.632	1002.403
146.658	21.380	1267.141	1001.367
147.673	21.479	1266.311	1001.189
148.687	21.385	1265.679	1000.059
149.702	21.448	1264.480	999.388
150.716	21.419	1263.087	998.031
151.731	21.496	1261.959	997.492
152.746	21.401	1260.993	996.096
153.760	21.560	1260.261	996.334
154.775	21.482	1259.112	994.897
155.789	21.526	1258.006	994.185
156.804	21.484	1257.289	993.293
157.819	21.522	1256.128	992.502
158.833	21.616	1255.402	992.375
159.848	21.650	1254.864	992.054
160.862	21.616	1254.078	991.150
161.877	21.631	1252.641	990.013
162.892	21.496	1252.306	988.895
163.906	21.694	1251.321	989.147
164.921	21.626	1251.014	988.437
165.935	21.668	1250.092	987.854
166.950	21.560	1249.530	986.716
167.964	21.655	1248.783	986.573
168.979	21.700	1248.436	986.469
169.994	21.684	1247.373	985.449
171.008	21.638	1247.142	984.921
172.023	21.629	1246.436	984.228
173.037	21.672	1245.538	983.669
174.052	21.593	1244.579	982.386
175.067	21.643	1243.913	982.050
176.081	21.720	1242.702	981.439
177.096	21.575	1242.422	980.317
178.110	21.612	1241.178	979.460
179.125	21.647	1240.216	978.805
180.140	21.701	1239.452	978.417
181.154	21.697	1238.000	977.163
182.169	21.640	1236.616	975.668
183.183	21.701	1236.238	975.625
184.198	21.561	1235.108	973.867
185.213	21.685	1234.212	973.761
186.227	21.700	1233.209	972.969
187.242	21.666	1232.380	972.038
188.256	21.726	1231.390	971.505
189.271	21.740	1230.488	970.786
190.286	21.789	1229.536	970.221
191.300	21.768	1229.268	969.804
192.315	21.693	1228.868	968.991
193.329	21.768	1228.613	969.119
194.344	21.688	1228.260	968.314
195.359	21.745	1227.587	968.010
196.373	21.730	1227.028	967.398
197.388	21.688	1226.463	966.639
198.402	21.642	1226.541	966.360
199.417	21.727	1225.559	965.972
200.432	21.788	1225.267	965.990
201.446	21.789	1224.428	965.247
202.461	21.710	1224.097	964.468
203.475	21.650	1222.997	963.186
204.490	21.806	1221.588	962.849
205.504	21.805	1220.728	962.080
206.519	21.757	1219.973	961.137
207.534	21.790	1218.820	960.324
208.548	21.771	1217.825	959.349
209.563	21.735	1217.458	958.779
210.577	21.861	1216.096	958.309
211.592	21.789	1215.558	957.408
212.607	21.857	1214.719	957.033
213.621	21.832	1214.289	956.472
214.636	21.830	1213.893	956.066
215.650	21.932	1212.598	955.517
216.665	21.782	1211.550	953.792
217.680	21.903	1210.738	953.723
218.694	21.843	1210.200	952.891
219.709	21.903	1209.491	952.571
220.723	21.833	1208.736	951.516
221.738	21.874	1207.527	950.699
222.753	21.915	1207.121	950.522
223.767	21.796	1206.800	949.537
224.782	21.888	1206.278	949.541
225.796	22.027	1205.149	949.322
226.811	22.081	1204.760	949.221
227.826	21.934	1204.421	948.079
228.840	21.998	1203.647	947.731
229.855	21.941	1202.869	946.723
230.869	21.997	1202.214	946.426
231.884	21.874	1201.578	945.179
232.899	21.948	1200.846	944.922
233.913	21.980	1200.377	944.637
234.928	22.024	1199.980	944.479
235.942	22.165	1198.689	944.136
236.957	21.919	1198.651	942.700
237.972	21.942	1198.225	942.409
238.986	21.956	1197.094	941.507
240.001	22.087	1196.770	941.873
241.015	22.244	1195.248	941.432
242.030	22.137	1194.739	940.376
243.045	22.096	1194.279	939.711
244.059	22.106	1193.488	939.059
245.074	22.053	1193.160	938.438
246.088	22.155	1191.995	937.981
247.103	22.104	1190.866	936.739
248.117	22.150	1190.335	936.480
249.132	22.082	1189.814	935.629
250.147	22.119	1188.838	934.976
251.161	22.128	1188.245	934.473
252.176	22.239	1187.444	934.348
253.190	22.138	1187.184	933.526
254.205	22.107	1186.099	932.428
255.220	22.116	1185.744	932.112
256.234	22.132	1185.384	931.830
257.249	22.226	1184.448	931.509
258.263	22.142	1184.175	930.767
259.278	22.114	1183.446	929.967
260.293	22.194	1183.236	930.143
261.307	22.295	1182.469	929.989
262.322	22.275	1181.513	929.051
263.336	22.399	1180.722	929.000
264.351	22.300	1180.249	928.022
265.366	22.158	1179.973	926.974
266.380	22.192	1179.099	926.385
267.395	22.264	1178.203	925.980
268.409	22.223	1177.907	925.447
269.424	22.324	1177.191	925.334
270.439	22.362	1177.130	925.409
271.453	22.299	1176.424	924.440
272.468	22.343	1175.106	923.551
273.482	22.215	1174.619	922.417
274.497	22.351	1173.936	922.510
275.512	22.253	1173.921	921.903
276.526	22.293	1172.944	921.264
277.541	22.368	1172.227	921.013
278.555	22.350	1171.821	920.519
279.570	22.377	1170.709	919.704
280.585	22.406	1169.834	919.087
281.599	22.410	1169.006	918.373
282.614	22.359	1168.170	917.373
283.628	22.371	1167.555	916.870
284.643	22.474	1166.352	916.379
285.657	22.451	1165.829	915.770
286.672	22.378	1164.942	914.610
287.687	22.438	1164.279	914.323
288.701	22.406	1164.137	913.965
289.716	22.442	1162.930	913.120
290.730	22.611	1162.310	913.428
291.745	22.574	1161.431	912.466
292.760	22.466	1161.165	911.618
293.774	22.619	1160.194	911.564
294.789	22.559	1160.144	911.135
295.803	22.697	1159.025	910.889
296.818	22.601	1158.193	909.660
297.833	22.469	1158.059	908.794
298.847	22.508	1157.444	908.430
299.862	22.647	1156.098	908.007
300.876	22.599	1155.614	907.300
301.891	22.672	1155.003	907.117
302.906	22.696	1154.598	906.840
303.920	22.773	1153.709	906.461
304.935	22.644	1153.593	905.626
305.949	22.602	1153.157	904.987
306.964	22.669	1152.032	904.367
307.979	22.687	1151.425	903.903
308.993	22.625	1151.004	903.173
310.008	22.718	1150.084	902.850
311.022	22.748	1149.010	902.077
312.037	22.624	1148.666	901.098
313.052	22.694	1147.633	900.563
314.066	22.595	1146.840	899.354
315.081	22.699	1146.336	899.410
316.095	22.675	1145.642	898.663
317.110	22.731	1145.040	898.398
318.125	22.744	1144.448	897.922
319.139	22.698	1143.897	897.177
320.154	22.784	1142.950	896.790
321.168	22.742	1142.566	896.199
322.183	22.769	1141.872	895.710
323.197	22.858	1141.301	895.635
324.212	22.785	1140.540	894.586
325.227	22.875	1140.142	894.651
326.241	22.735	1139.978	893.737
327.256	22.850	1139.252	893.671
328.270	22.885	1137.726	892.568
329.285	22.774	1137.331	891.620
330.300	22.933	1136.286	891.524
331.314	22.877	1135.492	890.538
332.329	22.892	1134.551	889.800
333.343	23.022	1133.689	889.699
334.358	22.993	1133.270	889.144
335.373	22.862	1133.102	888.273
336.387	22.930	1132.098	887.752
337.402	22.872	1131.165	886.648
338.416	22.940	1130.728	886.569
339.431	22.943	1130.159	886.060
340.446	23.052	1129.604	886.093
341.460	22.958	1129.030	885.095
342.475	23.000	1127.978	884.400
343.489	23.068	1126.848	883.777
344.504	22.891	1126.473	882.522
345.519	23.065	1125.543	882.581
346.533	23.150	1124.529	882.131
347.548	23.134	1123.847	881.439
348.562	23.101	1123.263	880.741
349.577	23.006	1122.827	879.847
350.592	22.994	1121.943	879.016
351.606	23.005	1121.473	878.623
352.621	23.150	1120.450	878.464
353.635	23.165	1120.098	878.186
354.650	23.020	1119.886	877.224
355.665	23.079	1119.015	876.756
356.679	23.160	1118.200	876.442
357.694	23.193	1117.807	876.218
358.708	23.198	1116.989	875.525
359.723	23.020	1116.143	873.905
360.738	23.214	1115.499	874.282
361.752	23.119	1115.324	873.596
362.767	23.245	1114.927	873.831
363.781	23.269	1114.144	873.258
364.796	23.192	1114.048	872.727
365.810	23.264	1112.754	871.991
366.825	23.228	1112.469	871.511
367.840	23.234	1112.214	871.267
368.854	23.283	1111.341	870.748
369.869	23.247	1110.882	870.131
370.883	23.435	1109.389	869.809
371.898	23.373	1108.697	868.882
372.913	23.344	1108.462	868.478
373.927	23.334	1108.309	868.236
374.942	23.349	1107.742	867.790
375.956	23.379	1107.366	867.565
376.971	23.280	1106.672	866.456
377.986	23.410	1105.668	866.233
379.000	23.528	1105.433	866.545
380.015	23.447	1105.102	865.816
381.029	23.396	1104.190	864.775
382.044	23.394	1103.391	864.064
383.059	23.529	1102.931	864.284
384.073	23.476	1102.400	863.535
385.088	23.466	1101.446	862.662
386.102	23.531	1100.730	862.340
387.117	23.485	1099.518	861.090
388.132	23.494	1098.738	860.450
389.146	23.547	1097.948	860.011
390.161	23.471	1097.726	859.391
391.175	23.404	1096.971	858.401
392.190	23.512	1095.589	857.765
393.205	23.543	1095.083	857.441
394.219	23.540	1094.878	857.190
395.234	23.666	1093.702	856.803
396.248	23.549	1092.994	855.607
397.263	23.491	1092.443	854.821
398.278	23.583	1091.993	854.837
399.292	23.642	1091.249	854.463
400.307	23.497	1090.720	853.274
401.321	23.627	1090.338	853.524
402.336	23.673	1088.967	852.600
403.350	23.719	1088.423	852.319
404.365	23.698	1087.696	851.575
405.380	23.730	1087.057	851.152
406.394	23.670	1086.430	850.296
407.409	23.683	1085.457	849.524
408.423	23.721	1085.246	849.463
409.438	23.842	1084.091	849.065
410.453	23.797	1083.476	848.292
411.467	23.793	1082.707	847.597
412.482	23.822	1082.266	847.312
413.496	23.856	1081.540	846.832
414.511	23.829	1080.724	845.989
415.526	23.757	1080.635	845.500
416.540	23.761	1080.311	845.191
417.555	23.757	1079.696	844.618
418.569	23.892	1079.136	844.746
419.584	23.966	1078.207	844.295
420.599	23.945	1078.283	844.182
421.613	148.989	1400.589	1798.214
422.628	137.524	1447.524	1798.315
