DTS Sentinel unit serial number:	SN413079Multiplexer serial number:	ORYXHardware model number:	OX4-SRSoftware version number:	ORYX F/W v4.00 Oryx Data Collector v3.7.2.0data status	okinstallation	princeton_trtdifferential loss correction	single-endedforward channel	channel 2reverse channel	N/Adate	2019/09/18time	18:39:35forward acquisition time	60.00reverse acquisition time	0.00gamma	496.2192k internal	0.2313k external	0.2313temperature offset calibration	1.0026default loss term (dB/km)	0.3790temperature slope calibration	1.0000multiplexer offset coefficient	1.0000multiplexer slope coefficient	1.0000fibre end	0.00T internal ref (°C)	37.87T ext. ref 1 (°C)	0.92T ext. ref 2 (°C)	29.38length (m)	temperature (°C)	Stokes	anti-Stokes-747.200	39.486	-0.214	0.195
-746.185	800.000	-0.054	0.186
-745.171	568.452	-0.142	-0.351
-744.156	800.000	-0.070	0.271
-743.142	800.000	-0.017	-0.058
-742.127	737.103	-0.180	0.490
-741.112	76.623	0.266	0.286
-740.098	-27.903	0.030	-0.018
-739.083	-109.453	-0.313	0.067
-738.069	-36.854	-0.077	0.042
-737.054	-118.007	0.363	-0.066
-736.039	117.485	-0.043	0.053
-735.025	-200.000	-0.031	0.335
-734.010	-117.414	0.189	-0.035
-732.996	-66.232	-0.213	-0.086
-731.981	-38.898	-0.284	-0.152
-730.966	-116.188	0.147	0.028
-729.952	800.000	-0.154	-0.576
-728.937	457.294	0.098	0.220
-727.923	-57.190	0.105	-0.047
-726.908	-13.967	0.098	-0.064
-725.894	800.000	0.058	0.246
-724.879	356.456	0.175	-0.353
-723.864	800.000	-0.096	-0.285
-722.850	800.000	-0.117	-0.464
-721.835	20.057	-0.190	-0.155
-720.821	81.548	0.192	-0.210
-719.806	-59.814	-0.082	-0.036
-718.791	-125.168	0.397	0.062
-717.777	634.698	0.081	-0.209
-716.762	-77.785	0.098	-0.034
-715.748	444.013	-0.112	-0.248
-714.733	117.809	0.341	0.425
-713.718	298.048	-0.116	-0.216
-712.704	-200.000	0.037	-0.210
-711.689	96.931	0.123	-0.143
-710.675	800.000	0.035	-0.129
-709.660	-98.772	-0.274	-0.071
-708.645	11.804	0.107	0.083
-707.631	494.222	0.030	0.070
-706.616	145.181	0.096	0.131
-705.602	-150.360	0.187	-0.015
-704.587	-33.130	0.191	0.107
-703.572	-74.641	0.339	-0.123
-702.558	-40.932	-0.186	-0.097
-701.543	206.603	0.190	-0.299
-700.529	265.752	-0.032	0.057
-699.514	-53.987	0.083	0.038
-698.499	-91.377	-0.302	-0.087
-697.485	-200.000	0.023	-0.292
-696.470	-200.000	0.021	0.240
-695.456	-62.315	-0.212	0.089
-694.441	-93.486	0.026	0.007
-693.426	42.422	-0.078	-0.072
-692.412	-200.000	-0.008	0.091
-691.397	195.791	0.109	0.167
-690.383	-200.000	-0.058	-0.271
-689.368	-200.000	-0.020	-0.373
-688.354	-200.000	-0.054	-0.320
-687.339	800.000	-0.076	-0.240
-686.324	-91.470	-0.206	0.060
-685.310	800.000	-0.041	-0.145
-684.295	413.008	0.152	0.328
-683.281	60.638	0.138	0.139
-682.266	73.828	0.075	0.079
-681.251	-16.980	0.101	0.064
-680.237	27.845	-0.239	-0.203
-679.222	-90.139	-0.337	-0.099
-678.208	800.000	-0.037	0.119
-677.193	-163.887	-0.163	0.008
-676.178	-124.021	-0.305	-0.049
-675.164	800.000	0.043	-0.167
-674.149	-200.000	-0.007	0.045
-673.135	163.157	0.076	-0.108
-672.120	-200.000	-0.004	0.212
-671.105	-82.949	-0.099	-0.032
-670.091	369.201	0.051	-0.104
-669.076	-31.397	-0.139	-0.079
-668.062	-38.674	-0.235	-0.126
-667.047	-75.209	-0.043	0.016
-666.032	-60.417	-0.098	-0.042
-665.018	800.000	-0.131	-0.440
-664.003	-42.760	0.049	-0.025
-662.989	265.757	0.115	-0.203
-661.974	-79.096	0.181	0.062
-660.959	-200.000	-0.002	-0.165
-659.945	29.799	-0.070	0.060
-658.930	-200.000	0.021	-0.414
-657.916	-85.547	-0.077	-0.024
-656.901	262.488	0.033	0.058
-655.886	-63.722	0.105	-0.044
-654.872	-126.408	-0.197	-0.030
-653.857	-200.000	-0.020	-0.136
-652.843	99.333	-0.059	0.069
-651.828	-117.617	-0.137	-0.025
-650.814	-200.000	0.036	0.448
-649.799	-129.062	0.221	-0.031
-648.784	-129.045	0.276	-0.039
-647.770	578.569	-0.080	-0.197
-646.755	429.035	-0.031	-0.068
-645.741	-152.443	-0.056	-0.004
-644.726	800.000	-0.070	0.210
-643.711	-106.024	-0.081	0.019
-642.697	-1.907	-0.169	-0.120
-641.682	-200.000	0.001	-0.022
-640.668	3.118	0.072	-0.053
-639.653	430.943	0.154	0.337
-638.638	202.658	0.095	0.148
-637.624	32.785	-0.149	0.130
-636.609	-87.897	-0.169	0.051
-635.595	301.717	0.132	0.247
-634.580	210.104	0.143	0.227
-633.565	800.000	-0.062	0.222
-632.551	526.417	-0.188	-0.447
-631.536	380.367	0.075	-0.156
-630.522	-200.000	-0.008	0.544
-629.507	255.974	-0.100	-0.173
-628.492	-13.155	0.173	-0.114
-627.478	23.976	-0.096	0.080
-626.463	-131.227	-0.063	-0.008
-625.449	-116.609	0.462	-0.086
-624.434	-200.000	0.009	0.306
-623.419	-63.739	0.021	0.009
-622.405	-200.000	-0.012	-0.115
-621.390	2.032	0.025	0.018
-620.376	61.443	0.098	0.099
-619.361	-152.381	-0.130	0.009
-618.346	378.958	-0.081	0.167
-617.332	380.771	-0.076	-0.158
-616.317	-165.221	-0.187	-0.008
-615.303	-124.973	0.222	0.034
-614.288	800.000	0.076	0.268
-613.273	-200.000	-0.024	0.144
-612.259	-200.000	0.013	0.277
-611.244	1.308	0.249	0.181
-610.230	-200.000	-0.015	-0.290
-609.215	-41.071	-0.261	-0.136
-608.201	5.781	0.139	-0.104
-607.186	406.198	-0.061	-0.130
-606.171	-100.317	-0.123	0.031
-605.157	-200.000	0.032	-0.238
-604.142	166.610	-0.192	-0.274
-603.128	116.204	-0.209	-0.258
-602.113	159.349	-0.156	-0.219
-601.098	-141.423	0.161	0.016
-600.084	120.077	-0.055	-0.069
-599.069	626.410	-0.039	-0.099
-598.055	-200.000	0.017	-0.075
-597.040	208.413	0.145	-0.228
-596.025	102.219	0.174	0.205
-595.011	151.372	-0.145	-0.199
-593.996	-101.522	-0.062	-0.015
-592.982	350.088	-0.098	-0.194
-591.967	54.267	-0.226	-0.219
-590.952	-181.337	0.253	0.005
-589.938	450.523	0.058	-0.129
-588.923	-200.000	-0.008	-0.073
-587.909	653.682	-0.044	0.115
-586.894	-109.081	0.177	-0.038
-585.879	470.048	-0.177	-0.401
-584.865	800.000	0.010	-0.032
-583.850	26.758	-0.184	-0.155
-582.836	-200.000	-0.026	-0.143
-581.821	-200.000	0.017	-0.147
-580.806	-39.196	0.277	-0.147
-579.792	800.000	-0.102	0.314
-578.777	-16.784	0.353	0.225
-577.763	-200.000	0.024	-0.106
-576.748	369.723	-0.118	-0.241
-575.733	-0.404	0.212	0.152
-574.719	259.777	0.085	0.149
-573.704	800.000	0.094	0.303
-572.690	-38.132	0.190	0.102
-571.675	-111.054	-0.107	-0.022
-570.661	30.382	0.160	0.138
-569.646	427.010	-0.038	-0.083
-568.631	-27.439	0.087	-0.051
-567.617	-200.000	0.015	0.118
-566.602	-99.916	-0.132	-0.033
-565.588	277.025	-0.083	-0.149
-564.573	76.092	-0.131	-0.140
-563.558	150.116	0.124	0.170
-562.544	101.028	-0.226	0.265
-561.529	800.000	0.080	0.311
-560.515	-165.574	0.264	0.012
-559.500	271.917	-0.150	0.266
-558.485	800.000	-0.039	-0.135
-557.471	54.270	0.291	-0.282
-556.456	-117.134	0.165	-0.030
-555.442	-48.534	0.194	-0.094
-554.427	-53.407	-0.100	-0.046
-553.412	-63.244	0.110	0.046
-552.398	620.039	-0.116	-0.295
-551.383	-114.694	0.184	-0.035
-550.369	800.000	-0.031	0.101
-549.354	-115.426	0.155	0.029
-548.339	-200.000	0.015	0.201
-547.325	-200.000	-0.020	-0.153
-546.310	52.895	0.197	0.189
-545.296	-80.886	-0.226	0.075
-544.281	800.000	-0.033	0.095
-543.266	-63.782	0.140	-0.058
-542.252	-116.849	-0.104	-0.019
-541.237	-55.697	-0.202	-0.091
-540.223	-200.000	0.009	-0.172
-539.208	-200.000	0.015	-0.095
-538.193	83.913	0.211	-0.232
-537.179	-58.020	0.124	0.054
-536.164	-115.004	-0.153	0.029
-535.150	-78.948	-0.361	0.123
-534.135	-149.200	0.379	-0.030
-533.121	-36.304	-0.155	-0.084
-532.106	800.000	-0.089	-0.251
-531.091	42.554	0.075	-0.069
-530.077	-73.767	-0.010	-0.004
-529.062	-54.496	0.043	-0.020
-528.048	25.727	-0.073	0.061
-527.033	27.463	-0.131	-0.111
-526.018	10.812	-0.233	0.179
-525.004	800.000	-0.083	0.343
-523.989	205.513	-0.028	-0.044
-522.975	800.000	0.057	0.164
-521.960	392.946	-0.090	0.189
-520.945	55.343	-0.140	-0.136
-519.931	6.454	-0.251	0.188
-518.916	800.000	0.054	0.231
-517.902	-72.879	-0.125	-0.046
-516.887	397.790	-0.133	0.280
-515.872	53.939	0.123	-0.119
-514.858	-146.925	-0.432	-0.037
-513.843	-86.709	-0.523	-0.161
-512.829	262.535	0.121	0.210
-511.814	0.499	0.066	-0.048
-510.799	-31.783	0.284	0.160
-509.785	-99.979	0.134	0.034
-508.770	-72.577	-0.174	0.065
-507.756	30.903	-0.144	-0.124
-506.741	495.524	0.176	-0.407
-505.726	97.279	-0.088	0.101
-504.712	800.000	-0.060	-0.207
-503.697	800.000	-0.047	0.175
-502.683	-95.792	-0.156	-0.042
-501.668	151.738	-0.067	-0.092
-500.653	-80.084	-0.096	-0.032
-499.639	66.130	0.166	-0.169
-498.624	-117.431	0.300	-0.055
-497.610	-81.110	0.310	0.103
-496.595	-2.249	-0.148	0.105
-495.581	31.453	-0.139	0.120
-494.566	156.210	0.304	0.422
-493.551	-200.000	0.019	0.209
-492.537	150.254	-0.193	0.263
-491.522	800.000	0.046	-0.150
-490.508	401.438	-0.072	-0.151
-489.493	800.000	0.082	-0.265
-488.478	101.936	-0.073	0.086
-487.464	-0.753	-0.119	-0.085
-486.449	-91.442	-0.246	0.070
-485.435	243.786	-0.092	0.155
-484.420	282.431	-0.121	0.218
-483.405	-95.262	-0.300	-0.081
-482.391	-200.000	-0.010	-0.248
-481.376	-153.237	-0.254	-0.018
-480.362	-162.852	-0.127	0.006
-479.347	-176.767	-0.071	-0.002
-478.332	-200.000	0.002	-0.204
-477.318	-200.000	0.121	-0.541
-476.303	82.974	-0.086	0.093
-475.289	481.193	0.020	0.046
-474.274	800.000	-0.035	-0.154
-473.259	-100.513	0.236	0.059
-472.245	800.000	-0.104	-0.433
-471.230	-200.000	-0.029	-0.131
-470.216	604.533	-0.164	-0.411
-469.201	-57.936	0.072	-0.032
-468.186	115.286	-0.064	0.078
-467.172	253.766	-0.048	0.083
-466.157	-200.000	-0.036	-0.336
-465.143	627.751	-0.109	-0.277
-464.128	-88.043	0.190	-0.057
-463.113	-200.000	-0.042	-0.220
-462.099	-10.116	0.378	-0.252
-461.084	86.774	-0.181	0.200
-460.070	-200.000	0.010	-0.166
-459.055	-58.592	-0.155	-0.067
-458.040	120.199	0.088	-0.109
-457.026	-160.248	0.250	-0.014
-456.011	-3.473	-0.189	0.132
-454.997	-41.831	-0.184	0.095
-453.982	-200.000	-0.046	0.315
-452.968	4.501	-0.142	0.105
-451.953	-8.198	-0.229	-0.155
-450.938	495.402	0.086	-0.198
-449.924	563.069	-0.074	0.180
-448.909	-200.000	0.000	0.003
-447.895	-22.510	0.159	0.097
-446.880	-40.321	0.472	0.246
-445.865	-110.235	-0.290	0.061
-444.851	-94.184	-0.253	0.069
-443.836	800.000	0.101	-0.345
-442.822	-12.072	-0.248	0.163
-441.807	-90.573	0.249	-0.072
-440.792	108.535	-0.082	-0.099
-439.778	800.000	0.050	-0.151
-438.763	-94.182	-0.153	0.042
-437.749	130.680	-0.222	-0.285
-436.734	-200.000	0.065	0.397
-435.719	367.304	-0.067	-0.135
-434.705	-59.870	-0.268	0.115
-433.690	196.243	0.150	-0.228
-432.676	244.722	-0.123	0.207
-431.661	300.335	0.118	-0.217
-430.646	-68.724	-0.038	0.015
-429.632	800.000	0.045	0.131
-428.617	-8.050	0.148	0.100
-427.603	-151.303	0.065	0.005
-426.588	-29.272	0.210	-0.121
-425.573	-26.422	0.208	0.122
-424.559	663.424	-0.077	0.198
-423.544	-21.961	0.051	0.031
-422.530	-126.657	-0.288	0.043
-421.515	-200.000	0.030	0.157
-420.500	399.056	-0.055	0.115
-419.486	575.176	-0.109	-0.266
-418.471	133.740	0.068	-0.088
-417.457	407.168	-0.069	0.147
-416.442	-200.000	0.036	-0.380
-415.428	22.718	0.286	0.235
-414.413	800.000	-0.008	-0.032
-413.398	326.860	-0.030	-0.057
-412.384	-200.000	-0.036	0.276
-411.369	25.129	0.051	0.043
-410.355	800.000	0.006	-0.017
-409.340	-200.000	0.000	0.119
-408.325	-94.568	0.104	0.028
-407.311	691.901	0.094	0.246
-406.296	-144.382	0.119	0.011
-405.282	767.154	-0.028	-0.076
-404.267	654.003	0.036	-0.092
-403.252	59.724	0.097	-0.096
-402.238	-49.044	0.144	-0.069
-401.223	309.430	-0.161	-0.301
-400.209	-136.569	-0.392	0.045
-399.194	800.000	-0.048	0.202
-398.179	190.695	0.136	-0.205
-397.165	212.237	0.220	-0.347
-396.150	233.287	-0.083	-0.137
-395.136	-200.000	0.048	0.281
-394.121	489.534	0.122	-0.279
-393.106	800.000	-0.024	-0.086
-392.092	246.430	-0.088	-0.148
-391.077	68.045	-0.189	-0.194
-390.063	800.000	-0.085	0.334
-389.048	-169.836	0.319	-0.011
-388.033	-48.221	0.226	-0.109
-387.019	-88.414	0.232	-0.069
-386.004	6.647	0.095	-0.071
-384.990	268.865	-0.044	-0.078
-383.975	-5.326	-0.332	-0.228
-382.960	374.579	-0.041	0.083
-381.946	800.000	0.084	0.262
-380.931	127.589	-0.150	-0.190
-379.917	-148.982	-0.118	0.009
-378.902	-164.296	-0.107	-0.005
-377.888	20.103	0.217	0.175
-376.873	-106.354	0.282	-0.063
-375.858	238.480	0.043	-0.071
-374.844	624.955	0.054	0.136
-373.829	82.050	0.181	-0.197
-372.815	9.349	0.109	0.082
-371.800	-200.000	-0.080	-0.359
-370.785	-67.369	0.069	0.027
-369.771	-108.413	0.127	0.027
-368.756	-200.000	-0.018	0.157
-367.742	343.651	0.121	0.238
-366.727	-147.460	-0.333	0.028
-365.712	-116.066	0.140	0.026
-364.698	-20.041	-0.084	-0.052
-363.683	124.389	-0.084	0.106
-362.669	800.000	-0.092	-0.302
-361.654	-200.000	0.015	-0.104
-360.639	-146.503	0.104	0.009
-359.625	-19.156	-0.091	0.056
-358.610	-200.000	0.099	-0.468
-357.596	29.643	0.223	-0.190
-356.581	162.468	0.163	-0.228
-355.566	288.842	0.088	-0.160
-354.552	-48.934	-0.029	0.014
-353.537	192.911	-0.162	-0.245
-352.523	-200.000	-0.026	0.145
-351.508	-88.116	0.288	-0.086
-350.493	143.193	-0.068	0.091
-349.479	-34.919	-0.208	-0.113
-348.464	-39.747	-0.019	0.010
-347.450	219.393	-0.049	0.079
-346.435	77.483	-0.269	0.286
-345.420	800.000	-0.075	0.212
-344.406	-114.259	0.118	0.023
-343.391	-200.000	0.039	-0.276
-342.377	-200.000	-0.003	0.090
-341.362	646.662	-0.036	-0.092
-340.348	690.336	-0.115	0.300
-339.333	102.944	0.252	0.295
-338.318	-200.000	0.049	-0.291
-337.304	99.393	-0.280	-0.323
-336.289	-68.364	-0.109	0.042
-335.275	162.744	-0.090	-0.126
-334.260	800.000	-0.048	-0.169
-333.245	8.890	-0.242	0.182
-332.231	-200.000	0.021	-0.225
-331.216	425.261	0.050	0.108
-330.202	800.000	0.127	0.532
-329.187	-200.000	0.046	0.290
-328.172	687.836	-0.076	-0.197
-327.158	-7.552	-0.138	0.093
-326.143	-52.042	0.181	0.084
-325.129	800.000	0.032	0.121
-324.114	-200.000	-0.050	-0.394
-323.099	-200.000	0.016	-0.092
-322.085	-200.000	0.002	0.057
-321.070	-128.187	-0.029	0.004
-320.056	-200.000	-0.019	0.137
-319.041	-200.000	0.033	0.346
-318.026	-1.961	0.160	-0.112
-317.012	82.536	-0.132	0.143
-315.997	-200.000	0.010	-0.077
-314.983	-39.350	0.109	-0.057
-313.968	68.560	0.171	0.175
-312.953	91.504	-0.140	-0.157
-311.939	-200.000	0.046	-0.216
-310.924	369.406	0.138	0.279
-309.910	44.559	0.008	0.007
-308.895	17.483	0.261	0.206
-307.880	-135.126	-0.231	0.028
-306.866	-2.344	-0.144	-0.101
-305.851	800.000	0.037	-0.157
-304.837	-97.097	-0.197	0.051
-303.822	-28.007	-0.142	0.082
-302.807	-133.756	-0.141	0.017
-301.793	52.371	-0.032	-0.031
-300.778	-142.802	-0.100	-0.010
-299.764	-114.842	-0.288	0.055
-298.749	255.049	-0.133	-0.227
-297.735	110.286	0.141	0.169
-296.720	-38.897	0.344	0.180
-295.705	-65.423	0.063	0.025
-294.691	-1.763	0.057	-0.040
-293.676	105.486	0.109	-0.129
-292.662	-200.000	0.004	-0.050
-291.647	102.121	0.105	0.122
-290.632	59.242	-0.164	-0.161
-289.618	-200.000	0.045	0.304
-288.603	-91.727	-0.250	-0.071
-287.589	-91.553	-0.253	-0.072
-286.574	23.153	0.289	0.236
-285.559	-28.674	0.206	0.118
-284.545	-23.234	0.226	0.135
-283.530	207.735	0.129	-0.201
-282.516	316.167	0.171	0.322
-281.501	-149.764	-0.306	-0.024
-280.486	57.575	-0.113	0.110
-279.472	-118.250	-0.269	-0.048
-278.457	800.000	-0.047	-0.155
-277.443	-75.188	-0.428	-0.152
-276.428	-80.707	0.264	-0.087
-275.413	-200.000	-0.021	0.153
-274.399	-163.657	0.390	-0.018
-273.384	800.000	0.095	-0.338
-272.370	-26.771	-0.286	-0.167
-271.355	-153.274	0.150	-0.010
-270.340	-28.930	0.423	0.242
-269.326	260.289	-0.138	-0.238
-268.311	287.496	0.131	0.236
-267.297	139.356	-0.067	-0.088
-266.282	-17.238	0.285	0.179
-265.267	-200.000	-0.017	0.115
-264.253	354.866	0.104	0.206
-263.238	347.456	0.211	0.413
-262.224	-200.000	-0.004	0.179
-261.209	-200.000	0.007	-0.104
-260.195	207.799	-0.203	-0.316
-259.180	-200.000	-0.006	-0.346
-258.165	-200.000	0.043	0.579
-257.151	-200.000	0.056	0.273
-256.136	-79.451	-0.179	0.060
-255.122	307.632	0.116	0.215
-254.107	800.000	-0.073	-0.280
-253.092	-35.181	0.158	-0.086
-252.078	41.040	0.099	0.089
-251.063	68.770	0.132	-0.135
-250.049	-48.515	-0.190	0.091
-249.034	-30.304	0.067	-0.038
-248.019	-136.717	0.364	0.042
-247.005	-48.713	0.046	0.022
-245.990	-106.910	0.080	-0.018
-244.976	-200.000	0.033	0.186
-243.961	479.181	0.029	-0.066
-242.946	-131.170	-0.131	0.017
-241.932	294.117	-0.096	0.174
-240.917	-36.754	-0.062	0.033
-239.903	787.877	0.021	-0.057
-238.888	143.699	0.068	-0.090
-237.873	191.747	-0.126	-0.188
-236.859	239.401	0.147	0.243
-235.844	-101.980	0.446	-0.107
-234.830	-96.961	-0.350	0.091
-233.815	176.036	-0.172	-0.249
-232.800	800.000	0.114	-0.400
-231.786	42.796	-0.256	0.232
-230.771	-200.000	0.002	-0.026
-229.757	-157.038	-0.064	-0.004
-228.742	-57.111	0.096	-0.042
-227.727	214.071	-0.118	-0.186
-226.713	53.538	0.096	-0.092
-225.698	16.070	0.070	0.055
-224.684	35.533	0.219	-0.191
-223.669	337.939	0.090	0.175
-222.655	-102.757	-0.145	-0.034
-221.640	-200.000	-0.032	0.229
-220.625	-200.000	-0.011	-0.092
-219.611	800.000	-0.065	0.246
-218.596	-200.000	-0.010	-0.077
-217.582	-200.000	-0.034	0.243
-216.567	-200.000	0.014	0.228
-215.552	-42.871	0.118	0.060
-214.538	265.560	-0.036	0.062
-213.523	800.000	0.092	-0.273
-212.509	-67.894	0.063	-0.024
-211.494	-159.456	0.151	-0.008
-210.479	-200.000	0.002	0.116
-209.465	177.396	-0.200	0.290
-208.450	-200.000	0.033	0.411
-207.436	800.000	0.094	-0.288
-206.421	-200.000	-0.002	-0.128
-205.406	-200.000	-0.004	0.026
-204.392	-200.000	0.021	0.249
-203.377	195.075	-0.184	0.277
-202.363	229.709	-0.131	0.212
-201.348	-82.169	-0.291	-0.094
-200.333	-129.144	-0.226	-0.031
-199.319	186.478	-0.143	0.212
-198.304	-109.097	0.175	0.037
-197.290	755.553	-0.133	-0.357
-196.275	-132.941	-0.075	0.009
-195.260	594.349	0.271	-0.665
-194.246	-145.387	0.443	-0.040
-193.231	-67.158	-0.186	-0.073
-192.217	-108.117	0.184	0.040
-191.202	-33.035	0.448	-0.247
-190.187	-73.161	-0.284	-0.103
-189.173	800.000	0.043	0.164
-188.158	-104.446	0.184	-0.042
-187.144	-58.085	-0.192	-0.083
-186.129	160.769	0.119	0.165
-185.114	-90.227	0.129	0.037
-184.100	-42.242	0.130	0.066
-183.085	-69.220	0.091	0.035
-182.071	-200.000	0.048	0.269
-181.056	-79.185	-0.139	0.047
-180.042	212.332	-0.138	0.216
-179.027	-6.408	-0.033	0.022
-178.012	652.245	-0.156	0.397
-176.998	-200.000	-0.000	-0.177
-175.983	-200.000	-0.009	0.086
-174.969	306.642	-0.121	-0.223
-173.954	-128.656	0.205	0.029
-172.939	604.466	-0.056	0.137
-171.925	-59.985	0.045	-0.019
-170.910	-22.240	-0.205	0.123
-169.896	239.912	-0.204	0.337
-168.881	232.264	-0.027	0.044
-167.866	10.446	0.300	0.227
-166.852	-25.208	0.176	0.104
-165.837	-200.000	0.013	0.224
-164.823	-94.248	0.276	0.075
-163.808	48.240	-0.083	-0.077
-162.793	-61.004	-0.218	0.091
-161.779	-200.000	-0.059	-0.329
-160.764	-2.293	-0.202	-0.141
-159.750	-146.620	0.285	-0.025
-158.735	371.846	-0.035	0.070
-157.720	800.000	-0.084	0.238
-156.706	-200.000	-0.044	0.256
-155.691	-200.000	0.002	-0.322
-154.677	27.301	-0.092	0.076
-153.662	511.925	0.039	-0.091
-152.647	-200.000	0.004	0.034
-151.633	112.215	-0.098	-0.117
-150.618	-88.659	-0.237	-0.070
-149.604	230.729	-0.097	-0.157
-148.589	-55.034	0.185	0.083
-147.574	-70.452	0.093	-0.035
-146.560	30.192	-0.391	-0.330
-145.545	295.307	0.210	-0.381
-144.531	-97.538	0.231	-0.060
-143.516	-11.527	-0.055	-0.036
-142.502	10.865	-0.300	-0.227
-141.487	-200.000	-0.028	-0.277
-140.472	-14.434	0.127	-0.081
-139.458	96.717	-0.121	0.137
-138.443	791.293	0.050	-0.137
-137.429	6.304	0.066	0.049
-136.414	-184.815	0.275	-0.004
-135.399	-29.538	0.180	-0.102
-134.385	800.000	-0.036	-0.151
-133.370	10.159	0.176	-0.132
-132.356	-48.998	-0.169	-0.080
-131.341	-50.536	0.198	-0.092
-130.326	184.174	0.050	0.073
-129.312	-43.897	0.152	-0.076
-128.297	-13.407	0.173	-0.111
-127.283	130.653	0.173	-0.220
-126.268	800.000	-0.120	-0.379
-125.253	-28.208	0.196	-0.112
-124.239	-52.087	0.132	0.061
-123.224	-171.419	-0.212	-0.007
-122.210	459.844	0.067	0.148
-121.195	800.000	-0.036	-0.101
-120.180	-140.981	0.245	0.025
-119.166	-8.192	0.121	0.081
-118.151	-71.094	0.332	0.124
-117.137	54.061	0.256	-0.244
-116.122	800.000	0.072	0.239
-115.107	-73.794	0.264	-0.095
-114.093	389.321	0.099	0.203
-113.078	-200.000	0.007	0.153
-112.064	185.910	0.090	-0.132
-111.049	800.000	-0.018	-0.069
-110.034	33.610	-0.278	-0.239
-109.020	-200.000	0.025	0.198
-108.005	477.306	-0.065	0.146
-106.991	-88.406	0.192	-0.057
-105.976	-200.000	-0.088	0.388
-104.962	800.000	-0.023	0.090
-103.947	-33.308	0.132	-0.072
-102.932	40.932	0.079	-0.071
-101.918	-97.141	-0.230	-0.059
-100.903	194.619	-0.030	0.045
-99.889	-25.269	0.435	0.254
-98.874	49.150	-0.092	-0.085
-97.859	425.250	0.168	-0.359
-96.845	-200.000	0.029	0.138
-95.830	77.155	-0.169	-0.178
-94.816	-104.874	0.302	-0.068
-93.801	179.323	-0.243	0.352
-92.786	-200.000	0.003	0.165
-91.772	-40.823	0.115	0.059
-90.757	800.000	0.068	0.197
-89.743	748.669	-0.035	-0.093
-88.728	118.512	-0.121	0.148
-87.713	-200.000	-0.014	-0.296
-86.699	-200.000	-0.070	0.341
-85.684	-69.248	0.227	0.086
-84.670	800.000	0.107	0.328
-83.655	-153.680	0.113	0.008
-82.640	-118.033	0.085	0.015
-81.626	-200.000	-0.018	-0.110
-80.611	-200.000	0.054	0.323
-79.597	15.888	-0.129	-0.100
-78.582	384.914	-0.050	-0.102
-77.567	-136.617	-0.253	0.029
-76.553	-200.000	-0.007	0.200
-75.538	-101.592	0.459	0.110
-74.524	-200.000	0.036	-0.193
-73.509	-16.353	-0.073	0.046
-72.494	25.761	-0.088	0.073
-71.480	-98.949	-0.152	0.038
-70.465	-37.710	-0.022	-0.011
-69.451	-110.923	-0.203	0.041
-68.436	110.069	0.107	-0.127
-67.422	-164.547	-0.120	-0.005
-66.407	-125.970	-0.102	-0.015
-65.392	198.259	0.176	0.266
-64.378	-200.000	-0.029	0.383
-63.363	-92.072	0.092	0.026
-62.349	-52.350	-0.315	0.144
-61.334	23.648	-0.943	-0.766
-60.319	42.684	0.590	0.531
-59.305	-200.000	0.051	-0.905
-58.290	163.523	0.375	0.521
-57.276	544.232	0.667	1.573
-56.261	-200.000	88.351	508.087
-55.246	474.001	1392.994	3102.157
-54.232	146.946	2611.703	3467.898
-53.217	107.513	2342.853	2752.513
-52.203	47.166	1955.038	1796.651
-51.188	41.172	1743.592	1555.634
-50.173	38.293	1699.785	1494.519
-49.159	53.308	1743.581	1649.521
-48.144	57.088	1761.892	1696.026
-47.130	40.898	1720.481	1532.658
-46.115	37.894	1706.189	1496.845
-45.100	37.784	1701.083	1491.469
-44.086	37.812	1697.487	1488.464
-43.071	37.779	1695.168	1486.123
-42.057	37.756	1692.915	1483.917
-41.042	37.795	1690.511	1482.043
-40.027	37.789	1688.910	1480.538
-39.013	37.713	1687.175	1478.378
-37.998	37.708	1685.361	1476.698
-36.984	37.732	1683.732	1475.388
-35.969	37.918	1682.141	1475.344
-34.954	37.919	1680.512	1473.867
-33.940	37.928	1678.293	1471.927
-32.925	37.835	1677.072	1470.099
-31.911	37.867	1675.099	1468.554
-30.896	37.833	1673.731	1467.036
-29.881	37.907	1671.549	1465.627
-28.867	37.949	1670.023	1464.541
-27.852	37.877	1668.693	1462.776
-26.838	37.845	1667.285	1461.247
-25.823	37.849	1666.306	1460.357
-24.809	37.960	1664.352	1459.418
-23.794	37.865	1663.515	1457.916
-22.779	37.950	1661.646	1456.854
-21.765	37.849	1660.268	1454.836
-20.750	37.850	1658.305	1453.063
-19.736	37.961	1657.101	1452.780
-18.721	37.895	1655.787	1451.082
-17.706	37.903	1654.046	1449.555
-16.692	37.948	1652.524	1448.496
-15.677	37.869	1651.125	1446.632
-14.663	37.963	1649.748	1446.059
-13.648	38.000	1648.488	1445.173
-12.633	37.972	1646.727	1443.366
-11.619	37.838	1645.604	1441.335
-10.604	37.868	1643.995	1440.087
-9.590	37.910	1642.858	1439.348
-8.575	37.855	1641.584	1437.764
-7.560	37.911	1640.311	1437.007
-6.546	37.955	1639.005	1436.134
-5.531	37.811	1637.691	1433.864
-4.517	37.860	1636.236	1432.889
-3.502	37.931	1635.017	1432.288
-2.487	37.917	1633.499	1430.802
-1.473	37.369	1621.336	1416.094
-0.458	33.434	1598.400	1367.666
0.556	26.877	1593.417	1314.618
1.571	22.754	1613.728	1300.929
2.586	20.847	1626.325	1296.784
3.600	18.319	1572.689	1235.683
4.615	10.493	1460.748	1094.966
5.629	2.819	1392.551	994.194
6.644	1.018	1383.110	975.771
7.659	0.957	1382.002	974.513
8.673	0.892	1380.734	973.110
9.688	0.823	1378.943	971.323
10.702	0.625	1375.981	967.880
11.717	3.870	1381.104	992.241
12.731	11.505	1393.175	1050.087
13.746	16.956	1400.439	1090.612
14.761	17.559	1400.515	1094.450
15.775	16.883	1398.146	1088.163
16.790	15.884	1395.995	1079.992
17.804	15.100	1393.182	1072.698
18.819	14.629	1391.460	1068.258
19.834	14.332	1390.366	1065.427
20.848	14.150	1388.985	1063.112
21.863	13.968	1388.124	1061.199
22.877	13.671	1386.587	1058.030
23.892	13.613	1385.959	1057.089
24.907	13.575	1385.111	1056.107
25.921	13.666	1383.839	1055.621
26.936	13.690	1383.173	1055.174
27.950	13.720	1382.143	1054.489
28.965	13.785	1381.016	1053.947
29.980	13.893	1380.065	1053.814
30.994	13.841	1378.488	1052.185
32.009	13.900	1378.221	1052.264
33.023	13.776	1377.457	1050.801
34.038	13.829	1375.653	1049.665
35.053	13.787	1375.132	1048.913
36.067	13.855	1373.852	1048.269
37.082	13.742	1372.884	1046.725
38.096	13.808	1372.100	1046.453
39.111	13.866	1370.735	1045.685
40.126	13.904	1369.893	1045.191
41.140	13.733	1369.447	1043.679
42.155	13.687	1369.371	1043.241
43.169	13.689	1368.882	1042.791
44.184	13.631	1368.324	1041.908
45.199	13.700	1368.131	1042.098
46.213	13.639	1367.550	1041.183
47.228	13.675	1366.756	1040.710
48.242	13.865	1365.163	1040.600
49.257	13.719	1363.416	1038.262
50.271	13.792	1362.408	1037.859
51.286	13.732	1361.210	1036.478
52.301	13.704	1359.513	1034.918
53.315	13.745	1358.481	1034.297
54.330	13.709	1357.683	1033.373
55.344	13.676	1356.378	1032.084
56.359	13.756	1355.278	1031.653
57.374	13.656	1354.631	1030.449
58.388	13.547	1353.932	1029.149
59.403	13.650	1353.047	1029.023
60.417	13.633	1352.551	1028.452
61.432	13.631	1351.962	1027.898
62.447	13.602	1350.744	1026.701
63.461	13.587	1349.201	1025.348
64.476	13.575	1348.605	1024.729
65.490	13.595	1347.103	1023.617
66.505	13.634	1345.058	1022.213
67.520	13.582	1344.547	1021.417
68.534	13.714	1342.939	1020.915
69.549	13.640	1342.491	1020.033
70.563	13.689	1341.035	1019.133
71.578	13.603	1340.192	1017.876
72.593	13.582	1339.076	1016.812
73.607	13.457	1338.788	1015.735
74.622	13.603	1337.619	1015.651
75.636	13.577	1336.394	1014.476
76.651	13.561	1335.855	1013.875
77.666	13.494	1335.707	1013.266
78.680	13.536	1334.986	1012.884
79.695	13.491	1334.299	1011.999
80.709	13.517	1333.643	1011.569
81.724	13.617	1332.619	1011.313
82.739	13.680	1331.286	1010.600
83.753	13.719	1330.548	1010.187
84.768	13.706	1329.328	1009.093
85.782	13.758	1328.006	1008.312
86.797	13.715	1326.693	1006.967
87.812	13.828	1325.256	1006.474
88.826	13.748	1324.562	1005.368
89.841	13.744	1323.437	1004.405
90.855	13.786	1322.471	1003.837
91.870	13.825	1321.568	1003.297
92.884	13.761	1320.869	1002.290
93.899	13.842	1320.239	1002.210
94.914	13.792	1319.451	1001.223
95.928	13.888	1318.579	1001.055
96.943	13.806	1317.821	999.895
97.957	13.771	1316.947	998.935
98.972	13.789	1315.431	997.804
99.987	13.834	1314.346	997.163
101.001	13.811	1312.988	995.906
102.016	13.819	1312.344	995.377
103.030	13.722	1311.752	994.257
104.045	13.747	1310.930	993.700
105.060	13.723	1309.709	992.543
106.074	13.777	1307.911	991.413
107.089	13.715	1307.323	990.510
108.103	13.619	1305.719	988.635
109.118	13.674	1304.155	987.688
110.133	13.695	1302.395	986.393
111.147	13.706	1301.111	985.402
112.162	13.727	1300.119	984.685
113.176	13.741	1299.049	983.869
114.191	13.695	1298.366	982.996
115.206	13.759	1297.146	982.364
116.220	13.755	1295.617	981.092
117.235	13.714	1294.835	980.174
118.249	13.637	1293.903	978.923
119.264	13.709	1292.512	978.212
120.279	13.743	1291.142	977.288
121.293	13.792	1290.421	976.943
122.308	13.751	1289.627	976.014
123.322	13.738	1288.214	974.785
124.337	13.605	1287.264	973.197
125.352	13.634	1286.051	972.364
126.366	13.624	1285.231	971.599
127.381	13.730	1283.727	970.997
128.395	13.797	1282.546	970.411
129.410	13.710	1281.971	969.382
130.424	13.644	1281.427	968.498
131.439	13.691	1280.126	967.704
132.454	13.826	1278.892	967.470
133.468	13.792	1278.614	966.976
134.483	13.691	1278.003	965.845
135.497	13.733	1276.813	965.099
136.512	13.784	1274.936	963.895
137.527	13.817	1273.679	963.049
138.541	13.819	1272.459	962.053
139.556	13.793	1271.419	961.031
140.570	13.846	1269.961	960.152
141.585	13.925	1268.887	959.713
142.600	13.846	1267.989	958.493
143.614	13.902	1266.904	957.907
144.629	13.832	1265.846	956.622
145.643	13.923	1264.809	956.278
146.658	13.790	1263.895	954.738
147.673	13.854	1261.986	953.578
148.687	13.877	1260.566	952.553
149.702	13.813	1259.393	951.214
150.716	13.832	1258.031	950.211
151.731	13.819	1256.721	949.065
152.746	13.844	1255.368	948.101
153.760	13.868	1254.165	947.241
154.775	13.974	1253.060	946.927
155.789	13.941	1252.141	945.961
156.804	13.924	1251.236	945.099
157.819	13.876	1249.881	943.720
158.833	13.928	1249.376	943.551
159.848	14.080	1248.000	943.290
160.862	14.025	1246.966	942.111
161.877	13.984	1245.880	940.977
162.892	13.883	1245.445	939.991
163.906	13.944	1244.170	939.292
164.921	14.000	1243.173	938.773
165.935	14.030	1242.291	938.193
166.950	14.007	1241.432	937.330
167.964	13.914	1240.909	936.331
168.979	14.030	1240.436	936.542
169.994	14.100	1238.805	935.624
171.008	14.001	1238.505	934.755
172.023	14.144	1237.453	934.687
173.037	14.147	1236.568	933.952
174.052	14.156	1235.774	933.318
175.067	14.116	1234.809	932.285
176.081	14.119	1234.061	931.650
177.096	14.168	1232.668	930.791
178.110	14.206	1231.763	930.237
179.125	14.035	1230.749	928.434
180.140	14.174	1229.087	927.875
181.154	14.137	1228.469	927.122
182.169	14.174	1227.073	926.190
183.183	14.212	1225.951	925.474
184.198	14.193	1224.756	924.381
185.213	14.235	1223.621	923.678
186.227	14.258	1222.438	922.831
187.242	14.215	1221.419	921.744
188.256	14.451	1220.108	921.977
189.271	14.279	1219.562	920.532
190.286	14.331	1218.321	919.802
191.300	14.215	1217.485	918.448
192.315	14.164	1217.173	917.848
193.329	14.146	1216.439	917.114
194.344	14.289	1215.394	917.032
195.359	14.252	1215.032	916.478
196.373	14.292	1214.547	916.249
197.388	14.397	1213.763	916.155
198.402	14.367	1213.531	915.731
199.417	14.419	1213.204	915.690
200.432	14.549	1211.833	915.289
201.446	14.503	1211.453	914.669
202.461	14.474	1210.309	913.562
203.475	14.589	1209.320	913.366
204.490	14.627	1207.848	912.382
205.504	14.540	1206.744	910.994
206.519	14.532	1205.517	909.941
207.534	14.537	1204.543	909.153
208.548	14.534	1203.679	908.405
209.563	14.497	1202.647	907.342
210.577	14.559	1201.993	907.109
211.592	14.481	1201.206	906.010
212.607	14.634	1200.071	905.905
213.621	14.622	1198.970	904.927
214.636	14.587	1198.085	903.988
215.650	14.564	1197.467	903.320
216.665	14.678	1196.133	902.849
217.680	14.702	1195.302	902.272
218.694	14.717	1194.802	901.895
219.709	14.814	1193.407	901.288
220.723	14.693	1192.791	900.088
221.738	14.762	1192.662	900.283
222.753	14.732	1191.720	899.332
223.767	14.710	1190.620	898.304
224.782	14.803	1190.424	898.577
225.796	14.880	1189.453	898.175
226.811	14.856	1189.152	897.740
227.826	14.812	1188.514	896.946
228.840	14.834	1187.393	896.136
229.855	14.852	1186.630	895.580
230.869	14.784	1186.215	894.822
231.884	14.816	1185.245	894.183
232.899	14.848	1184.467	893.685
233.913	14.862	1183.755	893.144
234.928	14.882	1182.873	892.510
235.942	14.812	1182.319	891.638
236.957	14.737	1181.743	890.724
237.972	14.848	1180.699	890.448
238.986	14.793	1180.205	889.705
240.001	14.726	1179.696	888.886
241.015	14.787	1178.609	888.316
242.030	14.932	1177.518	888.182
243.045	15.010	1176.563	887.796
244.059	14.938	1176.321	887.152
245.074	15.032	1175.321	886.820
246.088	14.963	1174.714	885.919
247.103	14.956	1173.475	884.869
248.117	14.991	1173.349	884.879
249.132	14.997	1172.464	884.164
250.147	15.163	1171.321	884.099
251.161	15.208	1170.404	883.570
252.176	15.294	1169.787	883.480
253.190	15.277	1169.301	882.942
254.205	15.267	1168.892	882.503
255.220	15.212	1168.287	881.681
256.234	15.272	1167.396	881.244
257.249	15.416	1166.436	881.198
258.263	15.404	1165.921	880.670
259.278	15.364	1165.587	880.126
260.293	15.469	1164.766	879.980
261.307	15.357	1164.639	879.220
262.322	15.400	1163.874	878.791
263.336	15.434	1162.774	878.059
264.351	15.469	1162.160	877.703
265.366	15.603	1161.501	877.826
266.380	15.468	1160.757	876.480
267.395	15.574	1159.778	876.217
268.409	15.427	1159.224	874.957
269.424	15.464	1158.492	874.515
270.439	15.547	1157.875	874.407
271.453	15.489	1157.417	873.684
272.468	15.549	1156.469	873.198
273.482	15.475	1155.713	872.170
274.497	15.434	1154.961	871.309
275.512	15.519	1154.244	871.135
276.526	15.491	1153.698	870.500
277.541	15.573	1152.917	870.257
278.555	15.653	1151.939	869.858
279.570	15.643	1151.327	869.264
280.585	15.753	1150.280	868.968
281.599	15.684	1149.530	867.969
282.614	15.672	1148.585	867.113
283.628	15.617	1147.398	865.858
284.643	15.607	1146.480	865.039
285.657	15.700	1145.961	865.046
286.672	15.688	1145.112	864.269
287.687	15.707	1143.873	863.355
288.701	15.783	1143.019	863.023
289.716	15.733	1142.726	862.469
290.730	15.807	1141.879	862.135
291.745	15.785	1141.232	861.455
292.760	15.901	1140.365	861.320
293.774	15.862	1139.553	860.431
294.789	15.988	1138.930	860.528
295.803	16.003	1138.342	860.081
296.818	15.773	1137.869	858.476
297.833	15.983	1136.776	858.644
298.847	15.872	1136.406	857.726
299.862	15.931	1135.579	857.326
300.876	15.837	1135.084	856.397
301.891	16.025	1134.213	856.620
302.906	16.024	1133.433	855.951
303.920	16.120	1132.416	855.593
304.935	16.127	1132.371	855.520
305.949	16.038	1131.519	854.347
306.964	16.133	1130.955	854.331
307.979	16.169	1130.010	853.720
308.993	16.177	1129.173	853.054
310.008	16.179	1128.525	852.499
311.022	16.302	1127.562	852.316
312.037	16.201	1127.013	851.315
313.052	16.231	1125.799	850.477
314.066	16.232	1125.062	849.846
315.081	16.076	1124.331	848.438
316.095	16.151	1123.332	847.984
317.110	16.189	1122.579	847.529
318.125	16.173	1122.119	847.027
319.139	16.163	1121.371	846.341
320.154	16.111	1120.662	845.470
321.168	16.151	1120.281	845.307
322.183	16.248	1119.507	845.134
323.197	16.192	1119.172	844.526
324.212	16.232	1118.163	843.890
325.227	16.207	1117.751	843.379
326.241	16.290	1117.032	843.177
327.256	16.306	1116.055	842.444
328.270	16.241	1115.256	841.443
329.285	16.249	1113.960	840.429
330.300	16.328	1112.909	839.954
331.314	16.354	1112.256	839.517
332.329	16.268	1111.698	838.596
333.343	16.420	1110.505	838.377
334.358	16.391	1109.398	837.322
335.373	16.396	1108.924	836.913
336.387	16.458	1108.064	836.498
337.402	16.425	1107.220	835.627
338.416	16.395	1106.619	834.949
339.431	16.530	1105.989	835.064
340.446	16.607	1105.292	834.848
341.460	16.470	1104.981	833.861
342.475	16.577	1103.990	833.568
343.489	16.665	1102.963	833.152
344.504	16.715	1101.823	832.462
345.519	16.651	1101.094	831.522
346.533	16.670	1100.249	830.906
347.548	16.710	1099.453	830.427
348.562	16.628	1098.916	829.545
349.577	16.667	1098.021	828.985
350.592	16.632	1097.605	828.426
351.606	16.635	1096.691	827.682
352.621	16.578	1096.101	826.885
353.635	16.601	1095.414	826.404
354.650	16.608	1094.529	825.699
355.665	16.582	1094.180	825.234
356.679	16.691	1093.136	824.904
357.694	16.707	1092.697	824.577
358.708	16.755	1091.816	824.073
359.723	16.754	1091.486	823.747
360.738	16.718	1091.131	823.233
361.752	16.835	1090.334	823.125
362.767	16.980	1089.424	823.069
363.781	16.812	1089.268	822.063
364.796	16.860	1088.335	821.522
365.810	16.758	1088.105	820.777
366.825	16.908	1087.222	820.767
367.840	17.000	1086.661	820.714
368.854	17.090	1086.273	820.782
369.869	17.008	1085.266	819.554
370.883	17.075	1083.948	818.810
371.898	17.098	1083.464	818.481
372.913	17.152	1082.819	818.182
373.927	17.161	1082.565	817.965
374.942	16.932	1082.139	816.465
375.956	17.132	1081.177	816.632
376.971	17.156	1080.964	816.511
377.986	17.185	1080.325	816.095
379.000	17.163	1079.791	815.515
380.015	17.224	1079.309	815.372
381.029	17.187	1078.607	814.593
382.044	17.194	1077.594	813.788
383.059	17.288	1076.860	813.612
384.073	17.312	1076.215	813.166
385.088	17.245	1075.429	812.183
386.102	17.378	1074.246	811.849
387.117	17.264	1073.424	810.613
388.132	17.312	1072.429	810.019
389.146	17.151	1072.091	808.925
390.161	17.207	1071.197	808.446
391.175	17.241	1070.582	808.073
392.190	17.395	1069.436	807.866
393.205	17.339	1068.879	807.108
394.219	17.496	1067.808	806.972
395.234	17.407	1066.973	805.850
396.248	17.402	1066.087	805.085
397.263	17.413	1065.310	804.481
398.278	17.305	1064.287	803.124
399.292	17.345	1063.661	802.771
400.307	17.388	1063.127	802.499
401.321	17.369	1062.639	801.972
402.336	17.339	1061.899	801.199
403.350	17.452	1061.118	801.070
404.365	17.456	1060.545	800.588
405.380	17.432	1059.614	799.700
406.394	17.514	1058.607	799.256
407.409	17.493	1058.013	798.637
408.423	17.616	1057.189	798.523
409.438	17.676	1056.924	798.533
410.453	17.594	1056.114	797.466
411.467	17.709	1055.010	797.097
412.482	17.629	1054.697	796.417
413.496	17.649	1053.913	795.848
414.511	17.816	1053.412	796.181
415.526	17.761	1053.006	795.543
416.540	17.767	1052.482	795.108
417.555	17.694	1051.994	794.330
418.569	17.732	1051.424	794.005
419.584	17.875	1050.812	794.138
420.599	17.912	1050.299	793.851
421.613	96.106	1309.398	1419.872
422.628	88.497	1347.166	1419.977
