DTS Sentinel unit serial number:	SN413079Multiplexer serial number:	ORYXHardware model number:	OX4-SRSoftware version number:	ORYX F/W v4.00 Oryx Data Collector v3.7.2.0data status	okinstallation	princeton_trtdifferential loss correction	single-endedforward channel	channel 2reverse channel	N/Adate	2019/09/12time	09:57:10forward acquisition time	60.00reverse acquisition time	0.00gamma	496.2192k internal	0.2314k external	0.2314temperature offset calibration	1.0065default loss term (dB/km)	0.3790temperature slope calibration	1.0000multiplexer offset coefficient	1.0000multiplexer slope coefficient	1.0000fibre end	0.00T internal ref (°C)	36.14T ext. ref 1 (°C)	1.86T ext. ref 2 (°C)	32.64length (m)	temperature (°C)	Stokes	anti-Stokes-747.200	-164.471	-0.209	-0.010
-746.185	18.834	0.195	0.158
-745.171	119.596	0.267	-0.336
-744.156	-57.617	-0.361	-0.161
-743.142	-64.112	-0.058	0.024
-742.127	-91.984	-0.380	0.109
-741.112	-11.878	0.361	-0.240
-740.098	-156.773	-0.548	-0.034
-739.083	800.000	-0.036	-0.109
-738.069	-200.000	0.029	0.158
-737.054	103.730	0.196	0.233
-736.039	-2.786	-0.302	0.214
-735.025	226.176	-0.103	0.170
-734.010	-57.815	-0.198	-0.088
-732.996	21.643	-0.464	-0.383
-731.981	-200.000	0.017	-0.138
-730.966	-52.357	0.393	-0.185
-729.952	-9.578	-0.354	-0.239
-728.937	-69.247	0.080	0.031
-727.923	244.311	-0.074	-0.125
-726.908	-200.000	0.010	-0.062
-725.894	-114.070	-0.516	-0.101
-724.879	0.803	-0.137	0.099
-723.864	-200.000	0.018	-0.210
-722.850	-85.319	-0.259	-0.082
-721.835	18.590	-0.313	-0.254
-720.821	256.267	-0.031	0.054
-719.806	392.054	-0.085	-0.178
-718.791	800.000	-0.092	-0.257
-717.777	-200.000	0.023	0.205
-716.762	180.516	-0.158	0.235
-715.748	12.861	-0.284	0.223
-714.733	-14.687	-0.134	-0.087
-713.718	165.194	0.018	0.026
-712.704	800.000	0.029	-0.114
-711.689	14.307	0.125	0.099
-710.675	-200.000	0.004	0.192
-709.660	291.667	0.156	-0.287
-708.645	-42.075	0.137	-0.071
-707.631	-12.370	0.167	-0.110
-706.616	-145.468	0.290	-0.026
-705.602	-69.320	-0.183	0.071
-704.587	59.643	0.236	0.235
-703.572	96.921	-0.070	0.081
-702.558	-60.510	-0.356	0.153
-701.543	24.856	0.117	0.098
-700.529	-81.372	0.117	-0.039
-699.514	-90.456	-0.099	-0.029
-698.499	-87.319	-0.375	-0.115
-697.485	-200.000	-0.016	-0.129
-696.470	659.805	-0.025	-0.064
-695.456	381.912	0.207	-0.430
-694.441	-53.279	0.111	0.051
-693.426	206.733	0.014	-0.022
-692.412	-200.000	-0.028	-0.177
-691.397	-142.908	-0.125	0.012
-690.383	800.000	0.053	-0.196
-689.368	97.476	0.117	-0.136
-688.354	-114.626	0.331	-0.064
-687.339	-52.310	-0.143	0.067
-686.324	93.739	-0.079	0.091
-685.310	69.039	0.138	0.143
-684.295	800.000	-0.074	-0.244
-683.281	38.522	0.052	-0.047
-682.266	226.591	0.207	0.340
-681.251	-126.922	-0.240	0.036
-680.237	-3.134	-0.232	-0.164
-679.222	127.043	-0.088	0.113
-678.208	800.000	-0.121	-0.405
-677.193	366.527	-0.100	0.203
-676.178	800.000	-0.067	-0.269
-675.164	-110.176	-0.256	0.054
-674.149	36.743	0.121	0.109
-673.135	800.000	-0.037	-0.145
-672.120	-84.038	-0.224	-0.072
-671.105	-2.546	-0.223	0.158
-670.091	272.656	0.072	-0.129
-669.076	-78.343	-0.188	0.065
-668.062	-152.250	0.146	0.011
-667.047	21.283	0.066	0.054
-666.032	-64.160	-0.121	0.050
-665.018	-8.232	-0.451	-0.307
-664.003	-200.000	-0.034	0.152
-662.989	231.297	0.118	-0.195
-661.974	-40.434	-0.178	0.093
-660.959	48.211	-0.164	-0.155
-659.945	22.590	0.160	-0.132
-658.930	215.420	0.074	0.118
-657.916	-142.280	-0.300	0.030
-656.901	-83.402	0.188	-0.061
-655.886	-200.000	0.021	-0.185
-654.872	800.000	0.034	0.115
-653.857	-108.968	-0.485	-0.105
-652.843	246.350	0.119	-0.202
-651.828	47.574	-0.169	0.159
-650.814	261.909	0.208	0.364
-649.799	34.915	0.189	-0.167
-648.784	-200.000	-0.016	-0.079
-647.770	-133.793	-0.337	0.042
-646.755	-77.356	-0.156	-0.055
-645.741	-200.000	0.040	-0.287
-644.726	-184.552	0.253	0.004
-643.711	-37.461	0.201	0.108
-642.697	267.508	-0.176	-0.311
-641.682	-155.144	-0.290	-0.019
-640.668	800.000	0.060	0.177
-639.653	2.041	-0.241	0.175
-638.638	162.681	-0.221	-0.313
-637.624	-50.790	0.368	-0.175
-636.609	-200.000	0.018	-0.093
-635.595	155.349	-0.030	-0.042
-634.580	-200.000	-0.028	-0.326
-633.565	85.240	0.045	-0.050
-632.551	800.000	0.084	0.333
-631.536	-44.177	0.283	0.143
-630.522	-71.019	-0.096	-0.037
-629.507	258.387	0.033	-0.057
-628.492	-86.233	0.183	-0.057
-627.478	99.845	0.111	-0.130
-626.463	-200.000	0.050	-0.425
-625.449	-200.000	0.008	-0.142
-624.434	6.552	0.165	0.123
-623.419	1.921	-0.064	-0.047
-622.405	-63.544	0.340	0.141
-621.390	74.848	0.286	-0.304
-620.376	79.123	-0.300	0.324
-619.361	-88.819	-0.182	-0.055
-618.346	-200.000	0.038	0.296
-617.332	219.302	0.087	-0.141
-616.317	-146.691	-0.223	-0.019
-615.303	185.394	-0.048	0.072
-614.288	-22.189	0.190	0.116
-613.273	-173.026	0.139	-0.004
-612.259	-99.367	-0.228	0.058
-611.244	7.687	0.121	0.092
-610.230	655.680	0.076	0.198
-609.215	150.698	0.037	-0.050
-608.201	-73.891	-0.190	-0.070
-607.186	157.552	0.059	0.083
-606.171	800.000	-0.053	0.204
-605.157	622.662	0.098	-0.248
-604.142	-4.641	-0.185	0.129
-603.128	-23.574	-0.029	0.017
-602.113	-185.514	-0.368	-0.006
-601.098	-23.388	-0.186	-0.113
-600.084	608.787	-0.136	-0.342
-599.069	-200.000	0.028	-0.125
-598.055	-80.579	0.197	0.066
-597.040	-99.259	-0.100	-0.025
-596.025	-200.000	-0.005	0.244
-595.011	800.000	-0.054	0.172
-593.996	800.000	-0.056	0.239
-592.982	20.305	0.237	0.193
-591.967	-26.737	0.055	-0.032
-590.952	292.356	-0.074	0.136
-589.938	-158.984	-0.215	-0.012
-588.923	417.839	0.255	-0.548
-587.909	-120.262	-0.149	-0.026
-586.894	-135.694	-0.221	0.026
-585.879	230.704	-0.089	-0.146
-584.865	19.205	0.120	0.097
-583.850	-159.294	0.376	-0.021
-582.836	-41.806	-0.380	-0.196
-581.821	18.854	0.249	-0.201
-580.806	-200.000	0.026	0.215
-579.792	800.000	-0.053	-0.224
-578.777	68.149	-0.245	-0.253
-577.763	-40.232	0.173	0.091
-576.748	-170.975	-0.193	0.007
-575.733	292.507	-0.075	0.138
-574.719	-162.704	0.032	0.002
-573.704	-67.933	0.427	-0.168
-572.690	-28.452	-0.175	0.102
-571.675	483.653	-0.098	-0.224
-570.661	-51.954	0.116	0.054
-569.646	-152.638	-0.165	-0.012
-568.631	187.740	0.062	-0.093
-567.617	181.558	-0.265	0.392
-566.602	800.000	0.069	0.236
-565.588	619.134	-0.088	-0.222
-564.573	340.591	-0.181	0.355
-563.558	716.573	0.039	-0.105
-562.544	561.806	-0.091	0.222
-561.529	-106.645	0.197	0.044
-560.515	535.137	-0.080	0.191
-559.500	800.000	0.105	0.456
-558.485	800.000	0.052	0.192
-557.471	295.147	-0.143	0.263
-556.456	-200.000	-0.023	0.197
-555.442	131.693	-0.204	0.264
-554.427	-143.273	0.313	0.030
-553.412	-113.003	0.072	0.014
-552.398	-130.622	-0.027	0.004
-551.383	-120.788	-0.142	-0.024
-550.369	113.677	0.217	-0.265
-549.354	-61.262	0.255	0.108
-548.339	-200.000	0.062	0.311
-547.325	78.995	0.294	-0.317
-546.310	144.252	-0.041	0.055
-545.296	-163.745	-0.232	0.011
-544.281	-154.391	-0.228	0.015
-543.266	-69.336	-0.152	0.059
-542.252	-74.093	0.105	0.038
-541.237	699.001	-0.037	-0.098
-540.223	-125.619	0.187	-0.029
-539.208	-164.590	-0.231	-0.011
-538.193	-200.000	0.019	-0.176
-537.179	-120.873	-0.089	-0.015
-536.164	125.560	0.209	0.265
-535.150	800.000	-0.080	0.234
-534.135	84.295	0.294	-0.324
-533.121	705.439	0.066	-0.176
-532.106	24.518	-0.155	-0.129
-531.091	800.000	0.056	-0.168
-530.077	-200.000	-0.089	0.497
-529.062	-56.154	0.224	0.100
-528.048	-165.808	-0.153	0.007
-527.033	800.000	0.073	0.263
-526.018	-200.000	0.022	-0.220
-525.004	84.506	0.134	-0.147
-523.989	800.000	-0.088	-0.279
-522.975	620.700	0.069	-0.174
-521.960	-156.200	0.176	-0.011
-520.945	-17.554	-0.092	-0.058
-519.931	800.000	-0.045	0.131
-518.916	-200.000	-0.009	-0.085
-517.902	445.415	0.088	0.195
-516.887	33.223	0.201	0.175
-515.872	800.000	0.039	0.171
-514.858	-82.403	-0.278	-0.091
-513.843	-200.000	-0.123	0.597
-512.829	-146.584	0.394	0.034
-511.814	-46.769	-0.143	0.070
-510.799	318.571	0.101	-0.193
-509.785	-127.125	0.056	-0.008
-508.770	-106.067	0.271	-0.061
-507.756	-98.569	-0.327	0.084
-506.741	-96.282	-0.278	-0.074
-505.726	800.000	-0.077	0.291
-504.712	34.507	-0.356	-0.313
-503.697	-200.000	-0.027	-0.189
-502.683	-200.000	0.016	-0.239
-501.668	-96.406	0.031	0.008
-500.653	-200.000	0.015	-0.120
-499.639	-7.715	-0.287	-0.195
-498.624	76.018	0.257	-0.273
-497.610	163.173	0.066	0.093
-496.595	-200.000	-0.042	0.375
-495.581	-55.294	-0.247	0.111
-494.566	-200.000	0.048	-0.431
-493.551	525.582	-0.101	-0.238
-492.537	-200.000	-0.005	0.143
-491.522	-153.177	0.538	-0.038
-490.508	723.313	-0.014	-0.036
-489.493	-63.154	0.183	-0.076
-488.478	34.853	-0.187	-0.164
-487.464	-99.249	-0.204	-0.052
-486.449	-6.160	0.306	-0.210
-485.435	276.047	-0.136	0.242
-484.420	800.000	-0.055	-0.208
-483.405	41.140	-0.031	-0.028
-482.391	454.040	0.148	0.330
-481.376	-200.000	0.046	0.280
-480.362	153.964	0.146	0.200
-479.347	-200.000	-0.045	0.241
-478.332	-200.000	0.014	0.262
-477.318	800.000	-0.059	-0.236
-476.303	-72.372	-0.185	0.069
-475.289	-134.662	-0.246	-0.030
-474.274	15.295	-0.137	-0.108
-473.259	-63.889	0.369	0.152
-472.245	-200.000	-0.036	0.249
-471.230	-121.077	-0.384	-0.065
-470.216	8.586	-0.229	-0.173
-469.201	-200.000	0.003	0.191
-468.186	-200.000	-0.022	0.260
-467.172	480.829	0.035	0.079
-466.157	-9.246	-0.089	0.060
-465.143	-6.883	-0.054	-0.037
-464.128	32.635	0.169	-0.146
-463.113	-118.204	0.342	0.061
-462.099	-149.672	-0.447	-0.035
-461.084	-200.000	-0.043	-0.322
-460.070	-122.148	0.193	0.032
-459.055	351.250	-0.086	-0.170
-458.040	450.320	-0.144	0.319
-457.026	120.257	-0.244	0.304
-456.011	84.147	-0.099	-0.108
-454.997	91.990	-0.060	0.068
-453.982	-186.204	0.174	-0.003
-452.968	-117.402	-0.224	-0.041
-451.953	119.661	0.255	-0.317
-450.938	-200.000	-0.069	-0.306
-449.924	-43.817	-0.400	0.202
-448.909	-6.653	0.055	-0.037
-447.895	-124.822	0.310	0.048
-446.880	800.000	0.086	-0.257
-445.865	-200.000	-0.023	-0.158
-444.851	283.235	-0.065	-0.117
-443.836	477.069	-0.053	0.121
-442.822	51.198	0.036	-0.034
-441.807	-66.428	0.151	0.060
-440.792	-200.000	-0.000	0.054
-439.778	217.911	-0.083	-0.132
-438.763	800.000	0.103	0.320
-437.749	124.750	-0.090	-0.113
-436.734	-99.113	0.186	0.047
-435.719	139.949	-0.049	0.064
-434.705	-200.000	-0.111	-0.531
-433.690	-127.080	0.160	-0.023
-432.676	-163.308	-0.297	0.014
-431.661	-137.744	-0.312	-0.035
-430.646	168.520	0.161	-0.230
-429.632	-200.000	-0.047	-0.364
-428.617	-87.110	0.420	0.128
-427.603	-82.199	0.158	0.051
-426.588	-189.376	-0.268	-0.003
-425.573	183.246	-0.096	0.142
-424.559	-99.271	0.252	0.064
-423.544	-114.827	-0.263	-0.050
-422.530	-131.359	0.247	0.033
-421.515	-48.969	0.276	0.132
-420.500	-200.000	-0.045	0.198
-419.486	69.214	-0.158	0.162
-418.471	-148.599	0.184	-0.015
-417.457	65.988	-0.033	-0.034
-416.442	-53.096	0.101	0.047
-415.428	-102.337	-0.104	0.025
-414.413	27.511	-0.338	-0.284
-413.398	-21.296	-0.183	0.112
-412.384	543.627	-0.074	-0.176
-411.369	-200.000	0.025	0.164
-410.355	-200.000	-0.046	0.210
-409.340	-200.000	-0.002	0.443
-408.325	60.579	0.191	0.189
-407.311	-41.987	-0.159	-0.081
-406.296	-200.000	-0.038	-0.170
-405.282	-21.016	0.374	0.229
-404.267	-165.233	0.093	0.004
-403.252	-75.123	0.265	0.095
-402.238	7.324	0.191	-0.143
-401.223	800.000	0.062	0.207
-400.209	800.000	0.067	-0.236
-399.194	-89.688	0.206	0.060
-398.179	418.356	0.092	-0.197
-397.165	-200.000	0.007	0.051
-396.150	20.314	-0.303	-0.245
-395.136	-139.503	-0.309	0.033
-394.121	-68.768	-0.230	0.089
-393.106	38.914	-0.068	-0.060
-392.092	138.872	-0.105	0.138
-391.077	800.000	0.095	0.279
-390.063	8.040	0.079	0.059
-389.048	-61.668	-0.197	-0.083
-388.033	318.216	0.061	-0.116
-387.019	-78.623	-0.145	-0.050
-386.004	80.316	0.110	0.119
-384.990	-55.084	-0.205	-0.092
-383.975	-200.000	-0.027	-0.200
-382.960	52.417	0.235	-0.224
-381.946	519.928	-0.069	-0.162
-380.931	-29.694	0.223	0.127
-379.917	800.000	-0.080	-0.233
-378.902	762.577	0.047	0.128
-377.888	800.000	0.073	0.248
-376.873	-28.024	0.310	-0.179
-375.858	-114.131	0.265	0.051
-374.844	800.000	0.048	-0.147
-373.829	-13.946	-0.123	-0.079
-372.815	-200.000	-0.032	0.271
-371.800	-47.516	0.136	0.066
-370.785	290.529	-0.080	0.145
-369.771	-171.088	-0.207	-0.007
-368.756	136.759	-0.034	0.045
-367.742	-64.746	-0.328	0.133
-366.727	25.772	-0.245	0.204
-365.712	-148.174	-0.207	-0.017
-364.698	184.939	0.055	-0.081
-363.683	-43.527	-0.122	0.062
-362.669	800.000	-0.074	-0.314
-361.654	12.722	-0.169	0.130
-360.639	43.647	-0.152	0.139
-359.625	-142.801	0.383	-0.037
-358.610	-200.000	0.092	-0.572
-357.596	-84.407	0.257	0.081
-356.581	-151.110	-0.415	-0.031
-355.566	-167.634	0.307	-0.012
-354.552	800.000	-0.047	0.138
-353.537	-188.827	-0.356	-0.004
-352.523	-90.067	-0.337	0.098
-351.508	-200.000	-0.014	-0.067
-350.493	800.000	0.070	0.203
-349.479	110.957	-0.064	0.077
-348.464	0.798	-0.226	-0.162
-347.450	-68.677	0.186	-0.072
-346.435	800.000	0.052	-0.159
-345.420	800.000	-0.100	0.284
-344.406	457.262	-0.094	0.209
-343.391	800.000	0.034	-0.098
-342.377	-59.452	0.141	-0.060
-341.362	-11.720	-0.229	0.150
-340.348	-43.353	0.210	-0.106
-339.333	69.982	-0.171	0.176
-338.318	282.362	-0.157	-0.280
-337.304	33.594	0.212	-0.184
-336.289	40.370	-0.212	-0.190
-335.275	91.500	0.067	0.075
-334.260	647.971	-0.096	0.245
-333.245	438.039	0.104	0.227
-332.231	-183.391	0.189	-0.003
-331.216	-123.908	0.207	-0.033
-330.202	-57.287	0.344	0.151
-329.187	-4.714	0.177	0.122
-328.172	800.000	0.029	-0.117
-327.158	-129.206	0.269	0.037
-326.143	40.359	-0.246	0.221
-325.129	292.649	0.111	-0.202
-324.114	-191.026	-0.385	0.004
-323.099	162.103	-0.127	-0.177
-322.085	287.178	-0.049	0.088
-321.070	800.000	-0.057	-0.182
-320.056	25.649	0.128	0.106
-319.041	218.244	-0.126	0.201
-318.026	-46.184	0.195	0.095
-317.012	14.315	-0.228	0.177
-315.997	800.000	0.031	-0.111
-314.983	-200.000	0.009	0.059
-313.968	62.162	0.272	0.271
-312.953	312.590	0.234	0.438
-311.939	-28.855	0.181	-0.104
-310.924	-24.615	0.140	-0.083
-309.910	-36.352	-0.129	-0.069
-308.895	-125.725	-0.419	-0.063
-307.880	800.000	-0.056	0.241
-306.866	96.568	0.220	0.250
-305.851	-200.000	0.017	0.113
-304.837	-200.000	0.006	0.085
-303.822	53.865	0.213	0.204
-302.807	800.000	0.055	-0.160
-301.793	-46.338	0.216	-0.106
-300.778	27.236	-0.146	0.122
-299.764	233.878	0.084	-0.137
-298.749	497.049	0.077	-0.175
-297.735	-43.908	-0.222	0.111
-296.720	800.000	-0.013	0.055
-295.705	243.448	0.038	-0.063
-294.691	800.000	-0.071	-0.268
-293.676	403.953	-0.142	-0.297
-292.662	-32.159	-0.221	-0.123
-291.647	-102.227	0.242	0.058
-290.632	800.000	-0.047	-0.132
-289.618	-147.179	0.105	-0.009
-288.603	-200.000	0.026	-0.314
-287.589	108.652	-0.150	0.179
-286.574	-102.861	0.138	-0.033
-285.559	-200.000	0.066	0.300
-284.545	-140.470	0.186	0.019
-283.530	743.082	-0.087	0.233
-282.516	-200.000	0.014	0.252
-281.501	-100.748	-0.149	0.037
-280.486	72.537	0.144	-0.149
-279.472	-200.000	0.029	-0.319
-278.457	-200.000	0.037	-0.246
-277.443	-185.642	-0.394	0.006
-276.428	-200.000	-0.002	0.110
-275.413	-114.985	0.096	-0.018
-274.399	750.845	-0.082	-0.219
-273.384	45.635	0.074	0.068
-272.370	-14.780	0.124	-0.080
-271.355	800.000	-0.102	0.392
-270.340	33.370	-0.162	0.140
-269.326	-66.868	-0.290	-0.114
-268.311	253.240	-0.217	0.369
-267.297	-80.372	0.248	-0.082
-266.282	-98.119	-0.102	0.026
-265.267	591.787	0.072	-0.176
-264.253	-132.050	-0.203	0.026
-263.238	-61.401	-0.413	-0.173
-262.224	800.000	0.086	-0.282
-261.209	115.061	-0.283	0.343
-260.195	-15.296	0.154	0.098
-259.180	800.000	0.030	0.114
-258.165	-200.000	0.009	0.146
-257.151	-137.423	0.179	0.020
-256.136	71.332	-0.299	-0.309
-255.122	-15.576	0.178	0.113
-254.107	673.657	-0.119	0.306
-253.092	-77.469	0.217	0.075
-252.078	219.423	0.110	-0.174
-251.063	-72.400	-0.030	0.011
-250.049	-66.280	-0.206	0.081
-249.034	165.560	0.192	-0.270
-248.019	800.000	0.125	-0.419
-247.005	18.326	-0.068	0.054
-245.990	-200.000	-0.083	-0.383
-244.976	172.714	-0.107	-0.153
-243.961	-2.773	-0.154	-0.107
-242.946	800.000	0.155	-0.435
-241.932	800.000	0.077	0.266
-240.917	-123.162	-0.332	-0.053
-239.903	34.809	-0.211	-0.183
-238.888	-77.182	-0.166	0.058
-237.873	228.234	0.252	-0.409
-236.859	-200.000	0.070	-0.390
-235.844	-100.879	0.079	0.019
-234.830	-200.000	-0.020	0.317
-233.815	-200.000	0.038	0.219
-232.800	-34.031	0.294	0.161
-231.786	125.060	-0.061	0.077
-230.771	-200.000	0.107	-0.599
-229.757	781.754	0.114	0.309
-228.742	-86.271	0.105	-0.032
-227.727	-20.589	-0.110	-0.067
-226.713	108.564	0.133	-0.157
-225.698	-29.864	0.496	0.281
-224.684	75.931	-0.289	-0.304
-223.669	-67.455	0.365	0.142
-222.655	720.248	0.093	0.246
-221.640	527.640	-0.078	0.182
-220.625	-200.000	0.030	-0.154
-219.611	-200.000	0.015	0.106
-218.596	-200.000	-0.011	-0.101
-217.582	-114.693	0.190	0.036
-216.567	-102.469	-0.343	0.081
-215.552	278.892	0.149	0.265
-214.538	-44.977	-0.064	0.032
-213.523	276.620	-0.147	0.259
-212.509	800.000	0.059	0.198
-211.494	-78.608	0.155	0.052
-210.479	-7.972	-0.031	-0.021
-209.465	800.000	-0.106	-0.398
-208.450	62.914	-0.086	0.086
-207.436	-55.654	-0.331	0.147
-206.421	-47.982	0.095	0.046
-205.406	162.709	-0.228	-0.318
-204.392	37.664	0.040	0.036
-203.377	-93.746	0.286	0.078
-202.363	-1.263	0.188	-0.132
-201.348	800.000	0.075	0.246
-200.333	800.000	0.079	0.255
-199.319	52.891	-0.223	-0.212
-198.304	-200.000	0.113	-0.674
-197.290	-75.084	-0.301	-0.107
-196.275	25.120	-0.231	0.190
-195.260	748.568	-0.064	0.172
-194.246	800.000	0.028	0.086
-193.231	-24.686	-0.169	-0.100
-192.217	-66.496	-0.235	0.093
-191.202	-95.856	-0.041	-0.011
-190.187	-126.030	0.453	-0.067
-189.173	4.010	0.191	0.138
-188.158	800.000	0.071	0.211
-187.144	-93.105	0.244	0.067
-186.129	800.000	-0.029	0.098
-185.114	259.474	-0.159	0.272
-184.100	8.689	0.183	0.137
-183.085	-130.633	0.268	-0.036
-182.071	282.011	-0.084	-0.150
-181.056	653.414	-0.046	-0.117
-180.042	-200.000	0.002	0.225
-179.027	-93.919	-0.196	0.053
-178.012	219.289	0.070	-0.111
-176.998	-200.000	-0.000	-0.320
-175.983	-21.636	0.033	-0.020
-174.969	125.730	0.102	-0.127
-173.954	800.000	-0.060	-0.217
-172.939	319.646	0.077	-0.146
-171.925	15.826	0.148	-0.115
-170.910	800.000	0.020	0.055
-169.896	-66.855	0.249	-0.098
-168.881	219.568	-0.170	-0.270
-167.866	-171.771	0.361	-0.012
-166.852	8.930	0.163	-0.122
-165.837	-200.000	-0.036	-0.257
-164.823	-200.000	-0.008	-0.045
-163.808	-200.000	0.073	0.427
-162.793	172.816	0.101	-0.144
-161.779	459.644	0.077	-0.169
-160.764	-200.000	0.038	0.333
-159.750	332.580	-0.102	0.195
-158.735	-200.000	0.002	-0.018
-157.720	-200.000	-0.016	0.085
-156.706	800.000	-0.048	0.147
-155.691	43.741	0.369	-0.335
-154.677	-200.000	0.023	-0.156
-153.662	249.560	0.041	-0.068
-152.647	-59.151	-0.188	0.080
-151.633	713.517	0.085	-0.223
-150.618	-13.111	0.030	-0.019
-149.604	-116.324	0.160	-0.029
-148.589	-12.050	-0.108	0.070
-147.574	-200.000	-0.020	0.310
-146.560	-160.307	0.235	0.013
-145.545	199.013	0.194	-0.295
-144.531	254.458	0.130	0.221
-143.516	431.396	-0.138	0.297
-142.502	-200.000	0.106	-0.480
-141.487	-19.455	0.139	-0.085
-140.472	786.065	-0.056	0.153
-139.458	259.464	0.147	0.252
-138.443	2.115	-0.264	0.189
-137.429	36.637	0.081	0.070
-136.414	173.911	0.037	0.053
-135.399	98.484	0.214	-0.244
-134.385	-94.882	-0.375	-0.101
-133.370	800.000	0.040	0.151
-132.356	64.054	0.301	-0.300
-131.341	85.596	-0.051	0.056
-130.326	-200.000	0.012	0.128
-129.312	-59.244	-0.185	0.079
-128.297	800.000	0.123	0.511
-127.283	360.312	-0.112	0.222
-126.268	-5.687	0.327	0.222
-125.253	-89.502	0.225	-0.066
-124.239	170.548	-0.109	0.155
-123.224	-40.260	0.114	-0.059
-122.210	338.363	-0.032	-0.062
-121.195	-200.000	-0.026	0.140
-120.180	-126.323	0.152	-0.022
-119.166	-92.635	-0.292	0.081
-118.151	147.949	0.201	-0.268
-117.137	-26.101	-0.226	-0.131
-116.122	-70.223	0.298	-0.112
-115.107	-112.795	0.054	0.011
-114.093	73.532	0.164	0.170
-113.078	131.174	-0.148	0.188
-112.064	-61.383	-0.106	0.044
-111.049	-110.206	0.145	-0.030
-110.034	800.000	-0.039	0.132
-109.020	-64.711	-0.172	0.069
-108.005	-71.877	0.180	0.066
-106.991	474.639	0.119	-0.265
-105.976	800.000	-0.020	0.085
-104.962	-27.474	-0.284	-0.163
-103.947	-133.688	-0.182	0.023
-102.932	-4.768	-0.057	0.039
-101.918	-200.000	-0.024	-0.135
-100.903	800.000	-0.100	0.280
-99.889	-22.756	0.077	0.046
-98.874	-3.780	0.247	0.169
-97.859	-200.000	0.039	0.356
-96.845	800.000	0.143	0.437
-95.830	75.895	-0.152	0.159
-94.816	800.000	-0.008	0.030
-93.801	-41.197	-0.347	0.177
-92.786	-183.967	-0.224	-0.004
-91.772	318.196	0.138	0.257
-90.757	-200.000	0.062	0.273
-89.743	251.629	-0.176	0.296
-88.728	-107.068	0.245	-0.053
-87.713	-72.588	0.070	-0.026
-86.699	800.000	-0.068	-0.253
-85.684	149.086	0.159	0.213
-84.670	-85.120	-0.093	-0.029
-83.655	-69.152	-0.227	-0.086
-82.640	-200.000	0.026	-0.152
-81.626	129.194	-0.158	-0.200
-80.611	-200.000	-0.064	0.384
-79.597	-112.589	0.236	0.047
-78.582	-25.541	0.108	-0.063
-77.567	50.722	-0.157	0.147
-76.553	497.294	-0.045	0.103
-75.538	1.668	0.270	0.192
-74.524	-122.829	0.156	-0.025
-73.509	-171.257	-0.276	0.009
-72.494	244.883	-0.144	-0.239
-71.480	-43.802	-0.108	0.054
-70.465	508.361	0.066	-0.150
-69.451	-76.478	-0.105	-0.036
-68.436	287.605	-0.097	0.173
-67.422	-23.294	-0.253	0.150
-66.407	-12.103	-0.017	-0.011
-65.392	705.224	-0.186	-0.483
-64.378	-25.454	-0.069	0.040
-63.363	-166.903	0.288	0.012
-62.349	-200.000	0.006	0.274
-61.334	-15.060	-0.967	-0.611
-60.319	800.000	-0.042	0.163
-59.305	-200.000	-0.202	-0.906
-58.290	403.789	0.659	1.369
-57.276	800.000	0.543	1.548
-56.261	-200.000	90.042	520.196
-55.246	489.076	1389.292	3132.576
-54.232	148.931	2608.261	3480.126
-53.217	107.162	2327.877	2729.676
-52.203	45.420	1938.475	1765.105
-51.188	39.298	1726.024	1524.350
-50.173	36.609	1681.201	1464.378
-49.159	52.533	1726.202	1626.014
-48.144	56.104	1744.339	1670.412
-47.130	39.166	1702.622	1502.441
-46.115	36.259	1687.350	1466.844
-45.100	35.981	1682.820	1460.735
-44.086	35.925	1680.053	1457.851
-43.071	35.988	1677.501	1456.056
-42.057	35.973	1675.225	1453.912
-41.042	35.992	1673.164	1452.208
-40.027	36.001	1671.367	1450.655
-39.013	35.963	1669.143	1448.389
-37.998	36.045	1667.405	1447.439
-36.984	36.079	1666.223	1446.607
-35.969	36.115	1665.034	1445.786
-34.954	36.137	1663.562	1444.614
-33.940	36.182	1661.387	1443.008
-32.925	36.152	1659.307	1440.919
-31.911	36.109	1657.755	1439.192
-30.896	36.174	1655.901	1438.014
-29.881	36.077	1654.470	1435.991
-28.867	36.169	1652.792	1435.159
-27.852	36.149	1651.586	1433.911
-26.838	36.153	1650.295	1432.757
-25.823	36.167	1648.721	1431.437
-24.809	36.086	1647.165	1429.431
-23.794	36.086	1646.082	1428.436
-22.779	36.151	1644.501	1427.486
-21.765	36.104	1642.451	1425.306
-20.750	36.202	1640.556	1424.326
-19.736	36.203	1639.208	1423.109
-18.721	36.182	1638.265	1422.077
-17.706	36.169	1636.640	1420.511
-16.692	36.127	1635.074	1418.792
-15.677	36.193	1633.134	1417.533
-14.663	36.235	1631.665	1416.515
-13.648	36.238	1630.830	1415.754
-12.633	36.129	1629.149	1413.437
-11.619	36.203	1627.487	1412.483
-10.604	36.196	1625.825	1410.934
-9.590	36.276	1624.908	1410.664
-8.575	36.186	1622.923	1408.232
-7.560	36.113	1622.380	1407.170
-6.546	36.171	1621.276	1406.580
-5.531	36.115	1620.287	1405.260
-4.517	36.187	1618.780	1404.419
-3.502	36.111	1617.891	1403.036
-2.487	36.229	1615.993	1402.195
-1.473	35.995	1605.090	1390.991
-0.458	33.556	1586.038	1356.994
0.556	30.046	1586.110	1325.195
1.571	27.836	1610.974	1329.772
2.586	27.280	1625.424	1337.496
3.600	23.611	1569.906	1265.587
4.615	12.787	1452.091	1098.711
5.629	3.482	1382.539	986.684
6.644	1.957	1373.469	970.425
7.659	1.887	1372.329	969.090
8.673	1.850	1370.851	967.723
9.688	1.727	1369.186	965.685
10.702	1.461	1366.348	961.912
11.717	5.083	1373.828	990.110
12.731	15.841	1394.487	1073.895
13.746	24.534	1409.072	1140.823
14.761	26.195	1411.786	1153.541
15.775	26.548	1411.323	1155.317
16.790	26.604	1410.702	1155.058
17.804	26.720	1409.766	1154.929
18.819	26.919	1409.826	1156.144
19.834	27.022	1408.863	1155.910
20.848	26.938	1408.579	1155.039
21.863	26.988	1407.240	1154.157
22.877	27.015	1406.849	1153.909
23.892	27.011	1405.845	1152.953
24.907	27.074	1404.717	1152.329
25.921	27.041	1403.791	1151.258
26.936	27.056	1402.578	1150.258
27.950	26.982	1401.768	1149.022
28.965	27.047	1400.438	1148.241
29.980	27.113	1398.741	1147.162
30.994	26.990	1397.844	1145.550
32.009	26.955	1397.089	1144.610
33.023	26.994	1395.603	1143.536
34.038	26.909	1395.243	1142.603
35.053	26.960	1394.038	1141.840
36.067	26.992	1392.868	1140.980
37.082	26.963	1391.847	1139.863
38.096	27.072	1390.299	1139.178
39.111	26.885	1390.467	1138.038
40.126	27.016	1389.244	1137.758
41.140	26.935	1389.201	1137.118
42.155	26.988	1388.482	1136.758
43.169	27.028	1388.060	1136.562
44.184	26.928	1388.242	1135.987
45.199	26.913	1388.165	1135.729
46.213	26.925	1387.483	1135.144
47.228	27.001	1386.407	1134.642
48.242	27.022	1385.148	1133.639
49.257	26.970	1383.799	1132.113
50.271	26.944	1382.116	1130.469
51.286	27.008	1380.862	1129.742
52.301	26.998	1379.912	1128.804
53.315	27.011	1379.103	1128.124
54.330	27.037	1378.181	1127.433
55.344	26.891	1377.557	1125.916
56.359	27.000	1375.908	1125.141
57.374	27.013	1375.255	1124.593
58.388	26.955	1374.758	1123.726
59.403	26.972	1374.387	1123.429
60.417	26.926	1373.590	1122.395
61.432	26.997	1372.732	1122.029
62.447	26.992	1372.176	1121.445
63.461	26.890	1370.828	1119.613
64.476	27.020	1369.697	1119.397
65.490	26.947	1368.942	1118.232
66.505	26.905	1367.215	1116.462
67.520	26.987	1365.808	1115.719
68.534	27.098	1364.697	1115.392
69.549	26.992	1363.946	1114.029
70.563	26.987	1363.219	1113.308
71.578	27.065	1361.986	1112.677
72.593	27.034	1360.934	1111.532
73.607	27.163	1360.334	1111.733
74.622	27.068	1359.635	1110.482
75.636	27.014	1359.190	1109.687
76.651	26.992	1358.469	1108.868
77.666	27.013	1357.954	1108.476
78.680	27.040	1357.255	1107.977
79.695	27.047	1356.350	1107.182
80.709	27.009	1355.778	1106.385
81.724	26.931	1355.220	1105.355
82.739	26.997	1353.844	1104.539
83.753	27.026	1352.930	1103.868
84.768	27.034	1351.970	1103.034
85.782	27.032	1350.324	1101.582
86.797	27.007	1349.458	1100.628
87.812	27.082	1348.521	1100.221
88.826	27.025	1347.291	1098.779
89.841	26.979	1346.611	1097.843
90.855	27.025	1345.407	1097.046
91.870	27.081	1344.545	1096.582
92.884	27.063	1343.730	1095.713
93.899	27.099	1343.120	1095.333
94.914	26.982	1342.335	1093.895
95.928	26.892	1341.955	1092.946
96.943	27.021	1340.818	1092.697
97.957	27.034	1340.075	1092.071
98.972	27.064	1339.215	1091.459
99.987	26.962	1338.450	1090.123
101.001	27.001	1337.057	1089.125
102.016	26.957	1336.362	1088.199
103.030	27.019	1335.883	1088.085
104.045	27.088	1334.881	1087.590
105.060	27.044	1333.791	1086.337
106.074	27.116	1332.557	1085.671
107.089	27.108	1331.778	1084.892
108.103	27.063	1330.493	1083.479
109.118	27.094	1329.730	1082.946
110.133	27.144	1328.419	1082.083
111.147	27.206	1327.535	1081.633
112.162	27.078	1326.364	1079.825
113.176	27.111	1325.441	1079.172
114.191	27.100	1324.717	1078.424
115.206	27.016	1323.643	1076.952
116.220	27.011	1322.483	1075.886
117.235	27.105	1321.684	1075.700
118.249	27.075	1320.472	1074.438
119.264	27.041	1319.803	1073.595
120.279	27.218	1319.248	1074.097
121.293	27.215	1318.027	1072.988
122.308	27.145	1317.639	1072.169
123.322	27.250	1316.117	1071.449
124.337	27.092	1315.947	1070.288
125.352	27.052	1315.306	1069.437
126.366	27.200	1313.986	1069.137
127.381	27.181	1313.081	1068.198
128.395	27.270	1312.088	1067.814
129.410	27.171	1311.485	1066.652
130.424	27.219	1310.961	1066.412
131.439	27.184	1309.856	1065.212
132.454	27.217	1308.848	1064.491
133.468	27.232	1308.410	1064.131
134.483	27.133	1307.951	1063.083
135.497	27.174	1307.371	1062.756
136.512	27.142	1306.026	1061.385
137.527	27.132	1304.956	1060.362
138.541	27.183	1303.606	1059.470
139.556	27.195	1302.583	1058.612
140.570	27.117	1301.524	1057.204
141.585	27.088	1300.803	1056.354
142.600	27.149	1299.673	1055.697
143.614	27.091	1299.011	1054.731
144.629	27.144	1298.100	1054.204
145.643	27.087	1296.699	1052.643
146.658	27.094	1295.638	1051.734
147.673	27.063	1294.782	1050.764
148.687	26.941	1294.309	1049.583
149.702	27.063	1293.008	1049.136
150.716	27.171	1291.086	1048.109
151.731	27.132	1290.507	1047.324
152.746	27.224	1289.564	1046.994
153.760	27.131	1288.553	1045.543
154.775	27.090	1287.740	1044.555
155.789	27.105	1286.927	1043.891
156.804	27.140	1285.847	1043.124
157.819	27.173	1284.795	1042.368
158.833	27.186	1283.938	1041.655
159.848	27.235	1283.154	1041.209
160.862	27.224	1282.481	1040.506
161.877	27.271	1281.670	1040.022
162.892	27.356	1280.678	1039.612
163.906	27.234	1280.380	1038.583
164.921	27.234	1279.542	1037.812
165.935	27.264	1278.760	1037.255
166.950	27.222	1277.993	1036.301
167.964	27.332	1277.258	1036.239
168.979	27.317	1277.070	1035.911
169.994	27.226	1277.056	1035.289
171.008	27.171	1276.233	1034.220
172.023	27.364	1275.073	1034.282
173.037	27.152	1274.509	1032.528
174.052	27.270	1273.664	1032.422
175.067	27.272	1272.527	1031.423
176.081	27.249	1271.951	1030.733
177.096	27.213	1271.210	1029.836
178.110	27.259	1270.242	1029.221
179.125	27.291	1269.248	1028.510
180.140	27.253	1268.347	1027.474
181.154	27.239	1267.501	1026.619
182.169	27.252	1266.045	1025.419
183.183	27.342	1265.061	1025.037
184.198	27.206	1264.108	1023.412
185.213	27.385	1262.996	1023.427
186.227	27.293	1262.303	1022.256
187.242	27.335	1261.484	1021.740
188.256	27.427	1260.515	1021.381
189.271	27.433	1259.725	1020.686
190.286	27.359	1258.650	1019.306
191.300	27.297	1258.691	1018.905
192.315	27.341	1257.758	1018.307
193.329	27.412	1257.140	1018.110
194.344	27.305	1256.900	1017.228
195.359	27.393	1256.447	1017.264
196.373	27.265	1255.753	1015.896
197.388	27.234	1255.347	1015.304
198.402	27.239	1255.486	1015.356
199.417	27.386	1254.780	1015.513
200.432	27.412	1253.815	1014.788
201.446	27.318	1253.390	1013.830
202.461	27.283	1252.853	1013.114
203.475	27.372	1251.622	1012.520
204.490	27.426	1250.716	1011.999
205.504	27.388	1249.805	1010.965
206.519	27.516	1248.933	1010.876
207.534	27.463	1247.913	1009.671
208.548	27.356	1247.174	1008.386
209.563	27.367	1246.634	1007.926
210.577	27.447	1245.749	1007.562
211.592	27.362	1245.200	1006.560
212.607	27.517	1244.251	1006.559
213.621	27.444	1243.210	1005.227
214.636	27.484	1242.315	1004.633
215.650	27.432	1241.821	1003.860
216.665	27.587	1240.592	1003.628
217.680	27.454	1239.826	1002.191
218.694	27.479	1238.958	1001.535
219.709	27.604	1237.913	1001.286
220.723	27.496	1237.702	1000.436
221.738	27.520	1236.634	999.614
222.753	27.551	1235.977	999.164
223.767	27.390	1235.579	997.876
224.782	27.655	1234.758	998.576
225.796	27.632	1234.284	997.976
226.811	27.557	1233.685	996.995
227.826	27.546	1233.825	996.961
228.840	27.674	1232.682	996.645
229.855	27.588	1232.147	995.656
230.869	27.522	1231.389	994.596
231.884	27.585	1230.668	994.268
232.899	27.451	1229.970	992.886
233.913	27.496	1229.307	992.510
234.928	27.729	1228.409	992.962
235.942	27.754	1227.525	992.296
236.957	27.630	1227.428	991.457
237.972	27.636	1226.743	990.850
238.986	27.612	1226.333	990.300
240.001	27.638	1225.814	989.932
241.015	27.664	1224.885	989.239
242.030	27.709	1223.833	988.542
243.045	27.734	1223.144	988.036
244.059	27.746	1222.501	987.490
245.074	27.692	1221.722	986.481
246.088	27.807	1220.442	985.985
247.103	27.747	1219.744	985.009
248.117	27.747	1219.151	984.445
249.132	27.781	1218.358	983.900
250.147	27.859	1217.715	983.713
251.161	27.821	1217.252	983.046
252.176	27.767	1216.491	982.054
253.190	27.885	1215.663	981.932
254.205	27.840	1214.747	980.867
255.220	27.739	1214.862	980.329
256.234	27.789	1214.285	980.045
257.249	27.723	1213.541	979.005
258.263	27.783	1212.872	978.701
259.278	27.842	1212.341	978.498
260.293	27.813	1211.672	977.716
261.307	27.834	1211.167	977.335
262.322	27.807	1210.426	976.509
263.336	27.858	1209.704	976.113
264.351	27.810	1209.515	975.618
265.366	27.899	1208.480	975.172
266.380	27.950	1207.929	974.914
267.395	27.919	1207.098	973.990
268.409	27.886	1206.474	973.222
269.424	27.886	1206.415	973.088
270.439	27.851	1205.835	972.350
271.453	27.992	1204.794	972.177
272.468	27.857	1204.447	971.093
273.482	27.969	1203.411	970.762
274.497	28.015	1202.984	970.576
275.512	27.920	1202.714	969.771
276.526	28.001	1201.588	969.208
277.541	27.941	1201.010	968.334
278.555	28.021	1200.126	967.961
279.570	27.930	1199.444	966.845
280.585	27.990	1198.633	966.421
281.599	28.016	1197.717	965.735
282.614	27.983	1197.130	965.001
283.628	28.065	1196.038	964.468
284.643	28.130	1194.795	963.727
285.657	28.096	1194.328	963.085
286.672	28.076	1193.340	962.095
287.687	28.131	1192.788	961.855
288.701	28.122	1192.212	961.261
289.716	27.978	1191.852	960.126
290.730	28.130	1190.797	959.991
291.745	28.181	1190.229	959.713
292.760	28.163	1189.772	959.163
293.774	28.229	1188.962	958.775
294.789	28.260	1188.523	958.496
295.803	28.251	1187.938	957.894
296.818	28.210	1187.154	956.964
297.833	28.253	1186.327	956.435
298.847	28.268	1186.014	956.175
299.862	28.192	1185.131	954.982
300.876	28.159	1184.724	954.399
301.891	28.190	1183.916	953.825
302.906	28.273	1183.133	953.541
303.920	28.157	1182.716	952.516
304.935	28.206	1182.040	952.144
305.949	28.316	1181.155	951.920
306.964	28.302	1180.844	951.509
307.979	28.289	1180.298	950.921
308.993	28.341	1179.367	950.357
310.008	28.347	1178.623	949.704
311.022	28.331	1178.051	949.074
312.037	28.348	1177.269	948.447
313.052	28.346	1176.344	947.610
314.066	28.264	1175.306	946.264
315.081	28.335	1174.879	946.205
316.095	28.412	1173.945	945.764
317.110	28.381	1173.691	945.316
318.125	28.281	1173.059	944.208
319.139	28.459	1172.218	944.368
320.154	28.477	1171.790	944.032
321.168	28.487	1171.090	943.434
322.183	28.517	1170.528	943.053
323.197	28.423	1170.259	942.271
324.212	28.383	1169.632	941.477
325.227	28.407	1168.963	940.979
326.241	28.384	1168.683	940.553
327.256	28.505	1167.824	940.396
328.270	28.449	1166.963	939.331
329.285	28.541	1165.965	938.920
330.300	28.524	1165.393	938.289
331.314	28.567	1164.545	937.741
332.329	28.492	1163.278	936.257
333.343	28.633	1162.511	936.276
334.358	28.561	1162.310	935.664
335.373	28.557	1161.452	934.868
336.387	28.757	1160.313	934.884
337.402	28.660	1159.659	933.785
338.416	28.591	1159.580	933.285
339.431	28.572	1159.289	932.873
340.446	28.566	1158.463	932.094
341.460	28.799	1157.419	932.357
342.475	28.776	1156.566	931.471
343.489	28.675	1155.820	930.274
344.504	28.807	1154.423	929.737
345.519	28.728	1153.920	928.847
346.533	28.613	1153.390	927.757
347.548	28.715	1152.765	927.690
348.562	28.823	1151.832	927.401
349.577	28.703	1151.061	926.091
350.592	28.536	1150.676	924.860
351.606	28.719	1149.607	924.840
352.621	28.747	1149.215	924.585
353.635	28.747	1148.892	924.240
354.650	28.869	1147.672	923.790
355.665	28.858	1147.271	923.332
356.679	28.809	1146.864	922.679
357.694	28.857	1146.478	922.526
358.708	28.772	1145.527	921.253
359.723	28.704	1144.840	920.275
360.738	28.741	1144.299	919.944
361.752	28.918	1143.526	920.131
362.767	28.932	1142.999	919.696
363.781	28.952	1142.596	919.386
364.796	28.853	1142.298	918.574
365.810	28.986	1141.380	918.418
366.825	29.059	1140.671	918.128
367.840	29.074	1140.108	917.670
368.854	29.030	1139.867	917.175
369.869	29.067	1139.072	916.637
370.883	28.934	1138.525	915.454
371.898	29.065	1137.478	915.185
372.913	29.014	1137.037	914.494
373.927	29.081	1136.381	914.218
374.942	29.019	1136.358	913.809
375.956	29.036	1135.529	913.147
376.971	28.968	1135.219	912.483
377.986	29.046	1134.416	912.143
379.000	29.127	1133.520	911.741
380.015	29.169	1132.985	911.438
381.029	29.130	1132.191	910.525
382.044	29.043	1131.879	909.764
383.059	29.126	1131.196	909.542
384.073	29.135	1130.406	908.875
385.088	29.266	1129.461	908.680
386.102	29.205	1128.949	907.888
387.117	29.201	1127.944	906.980
388.132	29.067	1127.249	905.682
389.146	29.148	1126.815	905.649
390.161	29.287	1125.727	905.377
391.175	29.229	1125.228	904.609
392.190	29.375	1124.123	904.361
393.205	29.217	1123.957	903.369
394.219	29.238	1123.101	902.706
395.234	29.239	1122.542	902.182
396.248	29.319	1121.694	901.812
397.263	29.235	1120.862	900.654
398.278	29.271	1120.541	900.491
399.292	29.314	1119.911	900.117
400.307	29.427	1118.955	899.816
401.321	29.486	1118.169	899.392
402.336	29.278	1117.750	897.964
403.350	29.323	1116.988	897.492
404.365	29.437	1116.428	897.518
405.380	29.416	1115.750	896.791
406.394	29.330	1115.289	895.923
407.409	29.374	1114.256	895.227
408.423	29.459	1113.694	895.110
409.438	29.515	1112.560	894.388
410.453	29.497	1112.155	893.894
411.467	29.486	1111.751	893.438
412.482	29.413	1110.685	892.153
413.496	29.448	1109.992	891.684
414.511	29.493	1109.711	891.596
415.526	29.476	1109.393	891.183
416.540	29.425	1108.884	890.445
417.555	29.558	1108.085	890.369
418.569	29.617	1107.468	890.078
419.584	29.480	1107.197	889.122
420.599	29.581	1107.012	889.380
421.613	98.137	1317.132	1432.088
422.628	91.914	1347.719	1432.211
