DTS Sentinel unit serial number:	SN413079Multiplexer serial number:	ORYXHardware model number:	OX4-SRSoftware version number:	ORYX F/W v4.00 Oryx Data Collector v3.7.2.0data status	okinstallation	princeton_trtdifferential loss correction	single-endedforward channel	channel 2reverse channel	N/Adate	2019/09/16time	20:35:35forward acquisition time	60.00reverse acquisition time	0.00gamma	496.2192k internal	0.2328k external	0.2328temperature offset calibration	0.9966default loss term (dB/km)	0.3790temperature slope calibration	1.0000multiplexer offset coefficient	1.0000multiplexer slope coefficient	1.0000fibre end	0.00T internal ref (°C)	32.55T ext. ref 1 (°C)	0.05T ext. ref 2 (°C)	26.40length (m)	temperature (°C)	Stokes	anti-Stokes-747.200	25.888	-0.079	0.066
-746.185	5.602	-0.250	-0.186
-745.171	36.595	-0.064	0.057
-744.156	176.498	-0.197	0.288
-743.142	-47.338	0.132	-0.065
-742.127	266.779	0.144	0.253
-741.112	113.069	0.202	0.246
-740.098	-200.000	-0.056	0.267
-739.083	-200.000	0.017	0.160
-738.069	36.967	-0.251	0.224
-737.054	-36.100	0.408	0.222
-736.039	-200.000	-0.015	-0.286
-735.025	-85.168	-0.132	0.042
-734.010	-110.017	-0.304	0.064
-732.996	43.682	0.237	0.218
-731.981	-87.640	-0.116	-0.035
-730.966	-200.000	-0.020	-0.283
-729.952	-92.142	-0.308	-0.088
-728.937	142.990	0.115	0.154
-727.923	-146.570	-0.253	0.022
-726.908	800.000	-0.050	-0.166
-725.894	-13.581	-0.131	-0.085
-724.879	196.928	0.113	-0.174
-723.864	250.397	0.126	0.216
-722.850	112.054	-0.109	0.133
-721.835	750.521	0.110	-0.299
-720.821	-200.000	-0.047	-0.247
-719.806	251.093	-0.141	-0.242
-718.791	-200.000	-0.020	-0.178
-717.777	-190.819	-0.177	-0.002
-716.762	800.000	-0.020	-0.076
-715.748	-200.000	-0.114	0.000
-714.733	-82.115	-0.616	0.202
-713.718	-200.000	-0.006	0.270
-712.704	203.090	-0.208	-0.323
-711.689	-200.000	0.005	-0.223
-710.675	84.219	0.125	-0.137
-709.660	-54.339	0.037	0.017
-708.645	-200.000	0.284	0.001
-707.631	-173.939	0.389	-0.012
-706.616	-143.234	0.173	0.017
-705.602	155.807	0.096	-0.133
-704.587	800.000	-0.042	-0.121
-703.572	11.946	-0.051	0.040
-702.558	119.662	0.236	0.294
-701.543	173.354	0.133	0.193
-700.529	-158.915	-0.283	0.016
-699.514	-69.847	0.238	0.091
-698.499	71.055	0.370	-0.386
-697.485	-200.000	0.051	0.277
-696.470	514.928	0.072	0.168
-695.456	800.000	-0.075	0.259
-694.441	-200.000	-0.028	0.231
-693.426	36.058	-0.283	-0.251
-692.412	800.000	0.080	-0.235
-691.397	450.257	0.127	-0.281
-690.383	433.646	0.027	-0.060
-689.368	-58.793	-0.329	0.143
-688.354	-125.192	0.092	-0.014
-687.339	-200.000	-0.020	-0.179
-686.324	-1.980	0.063	-0.044
-685.310	-60.517	-0.255	0.109
-684.295	48.764	0.466	-0.439
-683.281	800.000	0.023	0.093
-682.266	-89.261	-0.330	0.098
-681.251	176.444	-0.210	-0.307
-680.237	-153.482	0.401	-0.028
-679.222	800.000	0.022	0.081
-678.208	-200.000	0.057	0.516
-677.193	800.000	0.016	-0.056
-676.178	-25.193	-0.301	0.179
-675.164	148.699	-0.347	0.472
-674.149	-148.441	0.056	0.005
-673.135	800.000	-0.109	0.382
-672.120	-119.546	-0.211	-0.037
-671.105	37.374	0.094	0.083
-670.091	-20.581	0.035	0.022
-669.076	11.806	0.067	-0.051
-668.062	-89.338	-0.276	-0.082
-667.047	800.000	0.025	0.106
-666.032	385.265	0.134	0.278
-665.018	86.017	0.252	-0.279
-664.003	242.308	-0.196	0.329
-662.989	-58.634	-0.296	-0.129
-661.974	-91.996	0.344	0.098
-660.959	-200.000	-0.007	-0.171
-659.945	-137.726	-0.268	0.030
-658.930	50.826	-0.076	-0.072
-657.916	373.163	0.215	0.439
-656.901	-95.883	-0.353	-0.095
-655.886	-79.395	-0.577	0.196
-654.872	27.170	0.189	0.159
-653.857	75.992	-0.187	-0.198
-652.843	24.407	-0.245	-0.204
-651.828	800.000	-0.048	0.152
-650.814	-113.230	0.121	-0.024
-649.799	-143.725	0.212	-0.020
-648.784	-200.000	0.054	-0.270
-647.770	-105.618	-0.232	0.053
-646.755	-126.635	0.262	-0.039
-645.741	53.501	0.080	-0.077
-644.726	56.331	-0.141	0.137
-643.711	-112.980	0.316	-0.063
-642.697	138.603	0.128	-0.168
-641.682	167.582	-0.179	0.255
-640.668	-200.000	-0.035	-0.261
-639.653	800.000	0.041	0.132
-638.638	-157.117	-0.319	0.019
-637.624	193.391	-0.094	-0.142
-636.609	382.813	0.097	0.201
-635.595	36.416	0.300	-0.265
-634.580	37.896	-0.020	0.018
-633.565	222.100	-0.193	-0.311
-632.551	-200.000	0.013	0.387
-631.536	131.193	0.164	0.211
-630.522	-34.107	-0.130	0.072
-629.507	-64.222	-0.143	-0.058
-628.492	609.059	-0.074	0.186
-627.478	-84.959	-0.249	0.078
-626.463	-50.884	-0.166	0.078
-625.449	-200.000	-0.015	0.225
-624.434	-200.000	0.049	-0.373
-623.419	-78.077	-0.428	-0.148
-622.405	-200.000	0.016	0.246
-621.390	-145.277	-0.129	0.012
-620.376	5.225	0.298	0.220
-619.361	-146.792	-0.425	0.037
-618.346	128.013	0.098	0.124
-617.332	-42.246	0.187	0.096
-616.317	76.510	-0.047	-0.050
-615.303	117.890	0.260	0.321
-614.288	-124.885	-0.188	0.029
-613.273	800.000	-0.144	-0.428
-612.259	221.516	0.123	0.198
-611.244	-148.988	-0.097	-0.008
-610.230	-200.000	-0.043	-0.294
-609.215	165.370	0.121	-0.172
-608.201	640.726	0.086	-0.219
-607.186	-200.000	-0.006	-0.124
-606.171	200.630	-0.046	-0.071
-605.157	-131.555	0.297	-0.039
-604.142	157.765	-0.040	-0.056
-603.128	-200.000	-0.025	-0.209
-602.113	23.518	-0.379	-0.313
-601.098	-200.000	-0.003	-0.255
-600.084	524.258	-0.107	-0.252
-599.069	293.995	0.220	-0.403
-598.055	40.600	-0.251	0.227
-597.040	-43.778	-0.116	0.058
-596.025	-132.478	0.220	0.028
-595.011	62.083	-0.127	0.127
-593.996	-116.790	-0.221	0.041
-592.982	-200.000	-0.011	0.070
-591.967	-200.000	-0.029	-0.178
-590.952	-77.503	-0.219	-0.076
-589.938	446.479	0.105	0.231
-588.923	-41.494	-0.098	-0.051
-587.909	-200.000	-0.016	-0.186
-586.894	-200.000	0.025	-0.223
-585.879	-134.570	0.321	0.039
-584.865	484.968	0.072	-0.165
-583.850	48.674	-0.142	0.133
-582.836	-93.665	0.289	0.080
-581.821	-5.774	0.060	0.041
-580.806	3.451	-0.065	0.047
-579.792	-157.421	-0.113	-0.007
-578.777	290.276	-0.059	-0.108
-577.763	-38.977	-0.189	-0.100
-576.748	-66.917	-0.236	0.093
-575.733	-30.479	0.129	-0.073
-574.719	704.661	-0.090	0.238
-573.704	10.845	0.131	0.100
-572.690	-13.761	0.207	0.134
-571.675	352.204	0.116	-0.229
-570.661	66.059	0.238	0.242
-569.646	-94.505	0.295	-0.081
-568.631	-200.000	0.007	0.042
-567.617	-200.000	-0.002	-0.029
-566.602	8.565	-0.177	-0.133
-565.588	29.102	-0.288	0.245
-564.573	-38.957	-0.221	0.117
-563.558	-200.000	-0.002	0.175
-562.544	-52.203	-0.290	0.135
-561.529	5.061	0.161	-0.119
-560.515	-107.395	-0.139	0.031
-559.500	-99.190	-0.219	-0.055
-558.485	-117.814	0.299	-0.054
-557.471	28.639	-0.229	0.194
-556.456	-200.000	0.044	0.194
-555.442	28.719	0.271	-0.230
-554.427	-200.000	0.010	-0.063
-553.412	-21.308	-0.203	0.124
-552.398	132.801	0.274	-0.354
-551.383	-200.000	-0.004	-0.482
-550.369	-165.860	0.256	0.011
-549.354	800.000	-0.086	0.356
-548.339	-102.977	-0.395	-0.094
-547.325	13.823	-0.366	0.285
-546.310	-39.542	0.216	-0.113
-545.296	402.312	0.070	0.146
-544.281	-89.157	0.331	0.098
-543.266	250.782	0.092	0.156
-542.252	-200.000	-0.018	-0.106
-541.237	384.007	0.058	-0.120
-540.223	96.987	-0.214	-0.246
-539.208	-164.809	0.181	-0.008
-538.193	800.000	0.118	-0.347
-537.179	-197.581	-0.186	-0.001
-536.164	-26.799	-0.273	0.160
-535.150	28.466	0.228	0.193
-534.135	563.529	-0.075	0.182
-533.121	319.356	-0.110	0.209
-532.106	127.887	0.078	0.100
-531.091	-89.060	0.319	0.094
-530.077	-66.573	-0.208	-0.083
-529.062	-13.243	-0.169	-0.110
-528.048	112.922	-0.173	-0.210
-527.033	-60.762	0.381	-0.161
-526.018	77.546	0.107	-0.114
-525.004	-124.111	0.446	0.070
-523.989	122.640	0.096	-0.120
-522.975	800.000	0.065	-0.270
-521.960	-200.000	0.013	0.136
-520.945	-91.276	-0.295	-0.084
-519.931	-124.667	-0.229	0.035
-518.916	48.380	0.227	0.212
-517.902	320.875	0.168	-0.318
-516.887	-33.546	-0.057	0.032
-515.872	800.000	-0.074	-0.235
-514.858	-16.042	0.089	0.057
-513.843	-25.674	-0.097	0.057
-512.829	800.000	-0.123	0.369
-511.814	148.103	0.160	-0.215
-510.799	-73.265	0.200	0.073
-509.785	-40.288	-0.276	-0.144
-508.770	-104.745	-0.176	-0.040
-507.756	-141.442	-0.122	0.012
-506.741	267.170	0.165	-0.288
-505.726	160.225	0.216	-0.300
-504.712	180.762	-0.045	-0.065
-503.697	-200.000	0.064	-0.389
-502.683	-200.000	-0.037	-0.234
-501.668	152.140	0.076	-0.103
-500.653	408.201	0.030	0.064
-499.639	-14.953	0.343	-0.219
-498.624	-14.153	-0.165	0.106
-497.610	-200.000	0.001	-0.009
-496.595	-200.000	0.005	0.052
-495.581	550.723	0.082	-0.197
-494.566	-200.000	0.060	-0.453
-493.551	-200.000	0.002	0.047
-492.537	-52.849	-0.055	0.025
-491.522	-200.000	0.064	0.313
-490.508	-15.308	-0.118	-0.075
-489.493	759.579	0.177	0.478
-488.478	84.323	0.194	0.212
-487.464	-200.000	0.000	0.056
-486.449	-61.675	0.254	0.106
-485.435	-200.000	0.001	-0.048
-484.420	800.000	-0.078	0.243
-483.405	-133.338	0.195	0.024
-482.391	800.000	0.017	-0.068
-481.376	-143.501	0.100	-0.010
-480.362	-185.832	-0.296	-0.004
-479.347	-200.000	0.041	-0.213
-478.332	800.000	0.079	-0.259
-477.318	113.596	0.204	0.247
-476.303	-50.710	0.177	-0.083
-475.289	800.000	-0.026	-0.094
-474.274	5.964	-0.340	-0.251
-473.259	-200.000	-0.052	0.286
-472.245	-200.000	0.024	-0.140
-471.230	-200.000	-0.031	0.302
-470.216	52.663	0.109	0.104
-469.201	229.699	-0.062	0.101
-468.186	-36.421	-0.006	0.003
-467.172	26.722	-0.198	0.165
-466.157	200.600	0.109	-0.167
-465.143	633.072	0.119	0.301
-464.128	-39.083	-0.190	-0.099
-463.113	83.354	-0.066	-0.072
-462.099	-113.331	-0.154	-0.030
-461.084	-200.000	-0.068	-0.362
-460.070	-141.476	-0.042	0.004
-459.055	-29.627	-0.029	-0.017
-458.040	43.108	0.249	0.226
-457.026	-107.108	-0.308	0.068
-456.011	501.365	-0.040	0.092
-454.997	-78.682	0.249	-0.085
-453.982	63.753	0.178	0.179
-452.968	-71.159	0.073	-0.027
-451.953	-200.000	0.006	-0.167
-450.938	-200.000	-0.034	-0.170
-449.924	85.246	-0.121	-0.133
-448.909	-118.567	-0.129	-0.023
-447.895	-54.652	-0.186	0.084
-446.880	56.951	-0.312	-0.303
-445.865	-96.629	-0.127	0.033
-444.851	-200.000	-0.063	0.276
-443.836	-52.103	-0.091	0.042
-442.822	33.472	0.194	0.167
-441.807	155.880	-0.042	0.058
-440.792	-116.909	0.271	-0.049
-439.778	-17.424	-0.255	0.160
-438.763	29.443	0.128	0.108
-437.749	-200.000	0.028	0.214
-436.734	69.688	-0.356	-0.365
-435.719	8.399	-0.319	0.239
-434.705	9.681	0.189	0.143
-433.690	34.492	0.206	-0.179
-432.676	-200.000	-0.077	0.397
-431.661	20.833	0.245	0.197
-430.646	-115.646	0.222	-0.042
-429.632	-121.214	-0.189	0.032
-428.617	235.202	-0.157	-0.259
-427.603	-200.000	0.005	0.049
-426.588	-26.794	-0.247	-0.144
-425.573	309.693	-0.083	-0.154
-424.559	-200.000	-0.019	-0.243
-423.544	-31.040	0.007	-0.004
-422.530	646.105	-0.093	0.236
-421.515	3.223	-0.242	0.175
-420.500	797.888	-0.092	-0.253
-419.486	12.323	0.070	0.054
-418.471	-103.750	-0.363	-0.084
-417.457	449.564	0.250	-0.548
-416.442	200.894	0.085	-0.130
-415.428	-43.684	-0.313	0.157
-414.413	634.228	-0.055	-0.139
-413.398	166.004	0.142	-0.200
-412.384	-89.742	-0.149	0.043
-411.369	231.068	0.083	-0.135
-410.355	275.468	0.167	0.294
-409.340	-66.798	0.083	0.033
-408.325	800.000	-0.081	-0.286
-407.311	18.449	-0.210	-0.167
-406.296	-64.482	-0.317	0.128
-405.282	-2.078	-0.172	-0.120
-404.267	252.776	0.123	-0.208
-403.252	-98.114	0.449	-0.115
-402.238	25.802	-0.204	0.169
-401.223	800.000	0.086	-0.286
-400.209	-65.273	0.349	0.140
-399.194	-22.310	-0.259	-0.156
-398.179	-149.289	-0.133	-0.011
-397.165	121.332	0.025	-0.030
-396.150	-1.568	0.087	0.061
-395.136	744.148	-0.112	0.300
-394.121	-174.430	-0.369	0.011
-393.106	-52.601	-0.114	0.052
-392.092	-51.683	-0.119	0.055
-391.077	-200.000	0.026	0.124
-390.063	-38.711	0.139	0.073
-389.048	-200.000	0.006	0.206
-388.033	-147.441	0.044	0.004
-387.019	-154.970	0.369	-0.024
-386.004	-133.648	0.367	0.046
-384.990	230.401	0.118	-0.192
-383.975	800.000	0.094	-0.265
-382.960	286.758	0.072	0.129
-381.946	800.000	0.068	0.192
-380.931	-19.764	-0.423	0.260
-379.917	6.668	-0.032	-0.023
-378.902	-200.000	-0.045	-0.244
-377.888	-60.400	0.070	-0.030
-376.873	-23.237	-0.307	-0.184
-375.858	-96.625	-0.333	-0.087
-374.844	800.000	0.030	-0.100
-373.829	-142.900	0.499	-0.048
-372.815	-81.940	-0.124	-0.040
-371.800	132.143	0.266	-0.341
-370.785	-120.085	0.152	-0.026
-369.771	-105.385	-0.263	-0.060
-368.756	-52.191	0.125	0.058
-367.742	-200.000	-0.013	-0.177
-366.727	31.083	0.139	-0.118
-365.712	-25.134	0.535	-0.315
-364.698	-63.856	0.231	0.094
-363.683	-52.562	0.176	0.081
-362.669	-159.891	-0.241	0.013
-361.654	-117.732	0.071	-0.013
-360.639	800.000	-0.062	-0.204
-359.625	180.599	-0.055	0.080
-358.610	-152.263	-0.121	0.009
-357.596	-200.000	-0.035	0.154
-356.581	202.362	0.064	-0.099
-355.566	166.552	0.045	-0.063
-354.552	71.512	-0.032	0.033
-353.537	-200.000	-0.037	0.357
-352.523	-200.000	-0.009	0.067
-351.508	-200.000	-0.058	0.283
-350.493	-181.936	-0.191	0.004
-349.479	23.658	0.184	-0.150
-348.464	800.000	0.038	0.122
-347.450	127.737	-0.255	-0.322
-346.435	-200.000	-0.020	-0.378
-345.420	-61.017	0.317	0.133
-344.406	-114.872	0.349	-0.066
-343.391	-71.567	-0.167	-0.062
-342.377	32.726	-0.152	-0.130
-341.362	159.122	0.312	0.430
-340.348	462.497	0.092	0.204
-339.333	669.977	0.025	-0.063
-338.318	54.959	-0.154	-0.148
-337.304	314.187	0.174	-0.325
-336.289	-43.644	0.126	-0.063
-335.275	392.541	0.095	0.197
-334.260	-166.083	0.449	-0.019
-333.245	366.672	-0.093	-0.187
-332.231	-200.000	0.023	0.106
-331.216	800.000	-0.068	-0.250
-330.202	800.000	0.045	0.134
-329.187	55.356	-0.333	0.320
-328.172	9.432	-0.111	-0.083
-327.158	-60.329	-0.149	0.063
-326.143	159.922	-0.075	-0.104
-325.129	-98.809	-0.277	-0.070
-324.114	111.274	0.096	0.115
-323.099	-127.229	-0.301	-0.044
-322.085	65.122	-0.006	-0.006
-321.070	-137.655	0.202	0.023
-320.056	-64.351	0.306	-0.123
-319.041	-92.080	0.110	0.031
-318.026	-115.590	-0.164	0.030
-317.012	-200.000	-0.032	0.220
-315.997	-200.000	-0.026	0.417
-314.983	21.031	-0.086	-0.069
-313.968	-48.611	0.122	-0.058
-312.953	-81.250	-0.242	-0.079
-311.939	-200.000	-0.052	-0.241
-310.924	-112.602	-0.481	-0.095
-309.910	322.998	0.065	-0.123
-308.895	800.000	0.056	0.180
-307.880	-100.628	-0.269	0.066
-306.866	800.000	-0.019	0.067
-305.851	-200.000	-0.051	-0.234
-304.837	-187.681	0.102	0.001
-303.822	-111.331	-0.219	-0.044
-302.807	-20.158	-0.161	-0.099
-301.793	273.248	0.083	0.146
-300.778	265.202	-0.040	-0.070
-299.764	-84.591	-0.168	-0.052
-298.749	540.698	-0.012	0.028
-297.735	800.000	-0.009	-0.029
-296.720	-59.906	0.206	0.087
-295.705	-166.808	0.328	0.013
-294.691	16.742	-0.344	-0.270
-293.676	-181.390	-0.155	0.003
-292.662	-36.307	0.239	0.128
-291.647	-200.000	-0.025	-0.138
-290.632	-75.926	-0.166	-0.058
-289.618	-200.000	0.156	0.000
-288.603	-32.623	0.096	0.053
-287.589	-110.397	0.059	0.012
-286.574	-193.823	-0.534	0.004
-285.559	-21.159	0.201	-0.122
-284.545	26.006	-0.023	-0.019
-283.530	-178.836	0.259	0.006
-282.516	584.159	-0.189	0.458
-281.501	25.563	0.437	0.360
-280.486	-200.000	-0.001	0.234
-279.472	-200.000	0.017	0.326
-278.457	457.689	0.055	0.121
-277.443	-200.000	-0.013	-0.127
-276.428	-94.255	-0.123	-0.033
-275.413	419.482	0.107	-0.227
-274.399	-200.000	0.055	0.366
-273.384	-200.000	-0.005	-0.178
-272.370	231.969	0.162	0.263
-271.355	800.000	-0.052	0.209
-270.340	84.175	0.121	0.131
-269.326	131.266	-0.110	0.140
-268.311	-200.000	0.023	-0.125
-267.297	-114.189	-0.170	0.032
-266.282	67.160	-0.273	0.275
-265.267	258.698	0.221	0.377
-264.253	-26.757	-0.246	0.142
-263.238	-31.040	0.312	-0.174
-262.224	-165.478	-0.220	-0.010
-261.209	-67.613	0.090	-0.035
-260.195	-85.151	-0.206	0.064
-259.180	-200.000	0.000	0.139
-258.165	-21.673	-0.113	0.068
-257.151	270.309	0.254	0.441
-256.136	-140.278	-0.139	-0.014
-255.122	-200.000	-0.020	-0.117
-254.107	-195.059	-0.276	-0.002
-253.092	-107.316	-0.260	0.057
-252.078	-200.000	0.082	-0.472
-251.063	-67.817	-0.346	0.134
-250.049	93.695	0.057	0.064
-249.034	-102.125	-0.174	0.041
-248.019	449.466	-0.072	-0.156
-247.005	800.000	0.061	0.168
-245.990	-200.000	-0.002	0.317
-244.976	-105.488	0.401	0.090
-243.961	-200.000	0.042	0.208
-242.946	-200.000	-0.031	-0.187
-241.932	-113.118	0.030	0.006
-240.917	-200.000	0.050	0.225
-239.903	-176.840	-0.332	-0.008
-238.888	800.000	-0.047	0.189
-237.873	729.050	-0.050	0.133
-236.859	274.601	0.148	-0.259
-235.844	83.284	0.106	-0.114
-234.830	-86.770	-0.244	0.074
-233.815	-5.964	0.270	0.182
-232.800	-31.756	-0.184	0.102
-231.786	-124.755	0.302	-0.046
-230.771	115.205	0.286	0.345
-229.757	-3.893	0.280	-0.192
-228.742	-200.000	-0.022	-0.221
-227.727	-146.318	-0.273	0.024
-226.713	30.140	-0.020	0.017
-225.698	-193.405	0.276	0.002
-224.684	-200.000	-0.019	-0.149
-223.669	-59.201	0.246	0.105
-222.655	506.022	-0.083	0.190
-221.640	16.478	-0.112	0.088
-220.625	-200.000	-0.006	-0.296
-219.611	-104.619	-0.368	-0.084
-218.596	-200.000	0.038	-0.198
-217.582	-200.000	0.017	0.092
-216.567	625.146	-0.081	-0.203
-215.552	-200.000	0.038	0.358
-214.538	-75.108	-0.263	-0.093
-213.523	-102.556	0.326	0.077
-212.509	-200.000	0.035	-0.180
-211.494	132.751	0.189	0.241
-210.479	-41.312	0.427	-0.217
-209.465	103.961	0.187	-0.216
-208.450	-127.764	0.017	-0.002
-207.436	405.221	-0.169	0.351
-206.421	-200.000	0.031	-0.177
-205.406	-139.184	0.273	0.029
-204.392	-87.203	-0.191	-0.057
-203.377	-102.129	0.187	-0.044
-202.363	-17.175	-0.390	0.242
-201.348	158.653	-0.146	0.200
-200.333	187.297	0.161	-0.237
-199.319	-52.191	-0.092	-0.042
-198.304	114.102	-0.161	-0.193
-197.290	-38.372	-0.098	0.051
-196.275	-3.645	-0.044	0.030
-195.260	-15.627	0.357	0.224
-194.246	-200.000	-0.041	0.337
-193.231	43.014	-0.062	-0.056
-192.217	-200.000	0.158	-0.000
-191.202	-3.186	0.434	0.298
-190.187	800.000	0.061	0.254
-189.173	-200.000	0.010	-0.382
-188.158	-200.000	-0.061	0.286
-187.144	-52.362	-0.152	0.069
-186.129	424.102	-0.044	-0.093
-185.114	-200.000	0.006	-0.301
-184.100	88.741	0.075	-0.082
-183.085	63.892	0.277	-0.274
-182.071	-200.000	0.026	-0.184
-181.056	-200.000	-0.010	-0.249
-180.042	-94.956	0.229	0.061
-179.027	-60.514	-0.050	-0.021
-178.012	287.120	-0.154	0.274
-176.998	325.885	-0.026	-0.048
-175.983	-107.328	0.343	0.074
-174.969	687.545	0.086	0.222
-173.954	243.506	-0.116	0.192
-172.939	-49.626	0.526	0.247
-171.925	-76.139	-0.272	-0.094
-170.910	36.475	-0.193	0.168
-169.896	25.394	-0.218	0.178
-168.881	791.255	0.107	-0.290
-167.866	-200.000	0.042	0.227
-166.852	-200.000	0.053	0.253
-165.837	-200.000	0.002	0.081
-164.823	-41.889	0.254	0.128
-163.808	20.904	-0.183	0.146
-162.793	561.885	-0.099	0.236
-161.779	503.574	0.033	-0.074
-160.764	-200.000	-0.018	-0.233
-159.750	34.577	-0.145	0.125
-158.735	-135.321	0.237	-0.028
-157.720	-200.000	0.034	-0.207
-156.706	800.000	-0.093	0.282
-155.691	28.218	-0.092	-0.077
-154.677	27.761	0.103	-0.085
-153.662	-200.000	0.011	-0.237
-152.647	135.476	0.096	-0.122
-151.633	-43.535	0.120	-0.060
-150.618	385.330	0.023	0.047
-149.604	-31.553	0.273	0.151
-148.589	116.337	-0.142	-0.172
-147.574	26.230	-0.110	0.090
-146.560	-107.181	-0.221	0.048
-145.545	31.375	0.154	-0.130
-144.531	-104.864	-0.226	0.051
-143.516	-95.980	-0.199	0.052
-142.502	-40.224	-0.225	-0.115
-141.487	800.000	0.088	0.309
-140.472	184.323	0.151	0.220
-139.458	-200.000	-0.010	0.449
-138.443	-6.655	-0.159	0.106
-137.429	54.409	-0.146	0.138
-136.414	-82.396	0.175	-0.056
-135.399	-200.000	-0.004	-0.114
-134.385	551.226	0.255	0.601
-133.370	45.300	-0.257	0.233
-132.356	800.000	0.119	-0.334
-131.341	-144.007	0.316	-0.029
-130.326	300.827	0.013	-0.024
-129.312	29.988	-0.170	0.143
-128.297	321.603	0.215	-0.402
-127.283	-133.263	0.514	0.064
-126.268	250.037	0.122	-0.204
-125.253	52.039	0.059	0.055
-124.239	80.924	0.281	0.299
-123.224	-200.000	0.016	0.245
-122.210	-200.000	0.007	-0.205
-121.195	-45.678	0.233	0.113
-120.180	-9.950	0.195	-0.128
-119.166	369.586	-0.113	0.224
-118.151	537.243	-0.044	0.103
-117.137	-88.480	0.325	-0.095
-116.122	-100.670	0.469	-0.114
-115.107	-56.148	0.333	-0.146
-114.093	223.891	-0.135	-0.214
-113.078	800.000	-0.093	0.381
-112.064	-200.000	-0.016	0.075
-111.049	709.412	0.038	-0.099
-110.034	23.005	0.325	-0.262
-109.020	-94.894	-0.223	-0.059
-108.005	-23.840	0.199	-0.117
-106.991	-146.132	-0.034	-0.003
-105.976	-55.444	0.558	0.246
-104.962	143.459	-0.185	0.242
-103.947	573.057	0.057	0.136
-102.932	535.659	0.061	0.143
-101.918	-107.074	-0.027	-0.006
-100.903	-94.275	0.253	-0.068
-99.889	-90.348	0.321	0.091
-98.874	-70.435	0.087	0.032
-97.859	-200.000	0.024	0.106
-96.845	-81.400	0.149	-0.048
-95.830	-200.000	0.045	0.225
-94.816	-41.992	-0.189	-0.095
-93.801	800.000	-0.055	0.193
-92.786	-27.442	0.222	-0.127
-91.772	800.000	0.080	-0.240
-90.757	216.193	0.022	-0.035
-89.743	-60.656	-0.228	0.095
-88.728	-94.453	-0.276	0.074
-87.713	55.734	0.231	0.220
-86.699	-61.130	-0.135	0.056
-85.684	-70.453	-0.116	0.043
-84.670	82.694	0.054	-0.058
-83.655	4.585	-0.148	-0.106
-82.640	800.000	-0.021	-0.060
-81.626	-187.998	-0.410	-0.005
-80.611	566.518	-0.079	-0.189
-79.597	-200.000	0.024	0.346
-78.582	800.000	-0.079	0.288
-77.567	522.946	-0.184	-0.425
-76.553	319.077	0.078	0.146
-75.538	608.612	-0.100	0.245
-74.524	-200.000	0.011	-0.432
-73.509	-92.823	-0.217	-0.060
-72.494	-60.835	0.252	0.105
-71.480	5.852	-0.127	-0.092
-70.465	-66.907	-0.157	0.061
-69.451	-200.000	0.056	-0.296
-68.436	-145.073	0.110	0.010
-67.422	-74.460	0.349	0.124
-66.407	-24.197	-0.059	-0.035
-65.392	-129.384	0.139	0.019
-64.378	-149.675	0.402	0.031
-63.363	-57.030	-0.241	0.104
-62.349	268.392	-0.025	-0.043
-61.334	34.725	-1.116	-0.957
-60.319	-200.000	0.103	0.459
-59.305	-200.000	-0.175	-1.078
-58.290	171.421	0.746	1.050
-57.276	800.000	0.383	1.437
-56.261	-200.000	93.921	573.199
-55.246	570.595	1361.943	3250.641
-54.232	164.462	2534.953	3505.264
-53.217	107.513	2264.222	2642.273
-52.203	41.813	1895.263	1685.073
-51.188	35.785	1686.364	1453.893
-50.173	33.115	1642.232	1396.103
-49.159	50.750	1687.201	1566.547
-48.144	52.456	1703.595	1594.451
-47.130	35.440	1666.274	1433.768
-46.115	32.790	1651.531	1401.372
-45.100	32.633	1646.642	1396.004
-44.086	32.453	1644.098	1392.457
-43.071	32.522	1641.583	1390.782
-42.057	32.459	1639.411	1388.422
-41.042	32.488	1637.508	1386.971
-40.027	32.418	1635.665	1384.840
-39.013	32.382	1634.023	1383.131
-37.998	32.375	1632.131	1381.425
-36.984	32.462	1630.846	1380.919
-35.969	32.519	1629.675	1380.287
-34.954	32.583	1627.824	1379.138
-33.940	32.565	1625.559	1377.032
-32.925	32.532	1624.486	1375.823
-31.911	32.514	1622.729	1374.154
-30.896	32.501	1621.001	1372.541
-29.881	32.444	1619.864	1371.104
-28.867	32.495	1617.815	1369.687
-27.852	32.583	1615.977	1368.718
-26.838	32.524	1614.584	1367.056
-25.823	32.566	1613.416	1366.318
-24.809	32.597	1612.201	1365.457
-23.794	32.569	1610.511	1363.768
-22.779	32.501	1609.259	1362.161
-21.765	32.555	1607.220	1360.777
-20.750	32.519	1605.654	1359.134
-19.736	32.553	1604.790	1358.594
-18.721	32.676	1602.767	1357.716
-17.706	32.583	1601.545	1355.958
-16.692	32.591	1599.895	1354.565
-15.677	32.608	1598.781	1353.686
-14.663	32.567	1597.439	1352.204
-13.648	32.664	1595.960	1351.593
-12.633	32.638	1594.489	1350.107
-11.619	32.612	1592.447	1348.139
-10.604	32.596	1591.258	1346.966
-9.590	32.563	1589.750	1345.397
-8.575	32.580	1588.447	1344.362
-7.560	32.587	1587.667	1343.700
-6.546	32.708	1585.850	1342.974
-5.531	32.529	1584.885	1340.824
-4.517	32.645	1583.992	1340.843
-3.502	32.489	1583.379	1339.159
-2.487	32.656	1581.430	1338.647
-1.473	32.238	1569.231	1325.320
-0.458	29.298	1549.727	1288.286
0.556	23.644	1549.356	1254.532
1.571	21.137	1572.190	1254.901
2.586	20.509	1585.901	1261.183
3.600	18.792	1533.457	1207.310
4.615	10.435	1424.015	1066.277
5.629	1.956	1357.113	962.740
6.644	0.250	1348.654	945.947
7.659	0.056	1347.439	943.799
8.673	0.017	1346.099	942.529
9.688	-0.122	1344.546	940.487
10.702	-0.226	1341.575	937.678
11.717	3.662	1347.853	966.348
12.731	12.563	1361.868	1032.388
13.746	17.774	1368.188	1069.855
14.761	17.343	1366.770	1065.947
15.775	16.237	1363.430	1056.331
16.790	15.191	1360.807	1047.671
17.804	14.458	1358.190	1040.986
18.819	14.031	1357.166	1037.447
19.834	13.781	1355.837	1034.779
20.848	13.536	1354.467	1032.113
21.863	13.280	1353.545	1029.726
22.877	13.117	1352.111	1027.529
23.892	13.021	1351.325	1026.246
24.907	12.983	1350.775	1025.500
25.921	13.080	1349.727	1025.214
26.936	13.115	1348.996	1024.787
27.950	13.138	1348.328	1024.329
28.965	13.229	1347.388	1024.088
29.980	13.301	1345.805	1023.239
30.994	13.387	1344.802	1022.921
32.009	13.302	1344.343	1021.954
33.023	13.378	1343.111	1021.395
34.038	13.277	1342.164	1019.965
35.053	13.296	1340.757	1018.919
36.067	13.252	1339.967	1017.959
37.082	13.243	1339.021	1017.094
38.096	13.302	1338.131	1016.693
39.111	13.345	1337.463	1016.359
40.126	13.206	1336.817	1014.926
41.140	13.170	1335.609	1013.700
42.155	13.116	1335.318	1013.056
43.169	13.051	1335.360	1012.599
44.184	12.992	1334.913	1011.810
45.199	13.131	1334.587	1012.328
46.213	13.190	1333.565	1011.822
47.228	13.180	1332.829	1011.114
48.242	13.170	1331.734	1010.132
49.257	13.201	1329.975	1008.898
50.271	13.182	1328.936	1007.903
51.286	13.270	1327.424	1007.204
52.301	13.296	1325.683	1005.949
53.315	13.265	1324.680	1004.910
54.330	13.112	1324.164	1003.500
55.344	12.990	1322.926	1001.734
56.359	13.132	1322.028	1001.829
57.374	13.119	1321.159	1001.002
58.388	13.096	1320.020	999.911
59.403	12.935	1319.538	998.483
60.417	13.150	1318.264	998.732
61.432	12.964	1317.971	997.294
62.447	12.960	1316.811	996.306
63.461	12.845	1316.216	995.076
64.476	12.863	1314.969	994.150
65.490	12.956	1313.731	993.687
66.505	12.987	1312.190	992.622
67.520	13.108	1310.359	991.872
68.534	12.992	1310.024	990.837
69.549	13.017	1308.774	989.952
70.563	12.973	1307.829	988.886
71.578	12.935	1306.526	987.586
72.593	12.984	1305.264	986.841
73.607	12.827	1305.054	985.655
74.622	12.895	1303.978	985.159
75.636	12.856	1303.217	984.268
76.651	12.968	1302.376	984.212
77.666	13.032	1301.820	984.083
78.680	12.922	1301.339	982.980
79.695	12.906	1300.315	982.022
80.709	13.150	1299.491	982.763
81.724	13.043	1298.905	981.600
82.739	13.192	1297.950	981.677
83.753	13.144	1296.828	980.458
84.768	13.162	1295.770	979.675
85.782	13.236	1294.526	979.087
86.797	13.260	1293.105	978.066
87.812	13.159	1292.368	976.825
88.826	13.176	1291.338	976.060
89.841	13.200	1289.804	974.956
90.855	13.264	1289.499	975.020
91.870	13.257	1288.227	973.926
92.884	13.226	1287.333	972.986
93.899	13.250	1286.486	972.402
94.914	13.269	1285.689	971.821
95.928	13.321	1284.787	971.359
96.943	13.260	1284.221	970.487
97.957	13.222	1283.505	969.642
98.972	13.273	1282.285	968.928
99.987	13.230	1280.936	967.576
101.001	13.256	1280.138	967.040
102.016	13.352	1279.041	966.684
103.030	13.370	1277.895	965.837
104.045	13.186	1277.677	964.512
105.060	13.257	1276.273	963.783
106.074	13.147	1275.114	962.182
107.089	13.091	1273.511	960.558
108.103	13.034	1272.591	959.451
109.118	13.088	1270.880	958.387
110.133	13.124	1269.533	957.496
111.147	13.156	1268.428	956.766
112.162	13.128	1267.318	955.678
113.176	13.130	1266.179	954.746
114.191	13.185	1265.628	954.565
115.206	13.183	1264.486	953.610
116.220	13.220	1262.763	952.438
117.235	13.182	1262.012	951.570
118.249	13.205	1261.038	950.884
119.264	13.079	1260.205	949.448
120.279	13.130	1258.899	948.672
121.293	13.108	1257.968	947.757
122.308	13.072	1257.126	946.836
123.322	13.075	1256.119	946.012
124.337	13.113	1255.370	945.578
125.352	13.095	1254.100	944.433
126.366	13.126	1252.552	943.365
127.381	13.151	1251.434	942.582
128.395	13.157	1250.640	941.934
129.410	13.085	1249.916	940.892
130.424	13.114	1249.154	940.405
131.439	13.178	1248.145	939.921
132.454	13.097	1247.269	938.720
133.468	13.173	1246.121	938.208
134.483	13.152	1246.164	938.034
135.497	13.212	1244.531	937.063
136.512	13.072	1243.672	935.542
137.527	13.281	1241.705	935.161
138.541	13.257	1240.536	934.059
139.556	13.288	1238.905	932.926
140.570	13.256	1238.260	932.175
141.585	13.297	1236.907	931.309
142.600	13.308	1235.697	930.377
143.614	13.299	1234.900	929.645
144.629	13.384	1233.974	929.342
145.643	13.318	1232.374	927.686
146.658	13.304	1231.373	926.767
147.673	13.228	1230.283	925.440
148.687	13.247	1229.051	924.541
149.702	13.187	1227.710	923.112
150.716	13.163	1226.078	921.669
151.731	13.162	1225.127	920.868
152.746	13.223	1223.891	920.196
153.760	13.278	1222.813	919.615
154.775	13.242	1221.883	918.634
155.789	13.421	1220.030	918.147
156.804	13.428	1219.321	917.574
157.819	13.428	1218.140	916.604
158.833	13.579	1217.496	916.872
159.848	13.496	1216.649	915.698
160.862	13.484	1215.633	914.786
161.877	13.319	1214.762	913.138
162.892	13.408	1213.012	912.229
163.906	13.336	1212.325	911.238
164.921	13.346	1211.620	910.684
165.935	13.392	1210.589	910.079
166.950	13.411	1210.110	909.745
167.964	13.490	1209.186	909.400
168.979	13.474	1209.007	909.098
169.994	13.442	1207.892	908.004
171.008	13.581	1206.704	907.792
172.023	13.592	1206.082	907.302
173.037	13.640	1205.797	907.273
174.052	13.576	1204.698	906.017
175.067	13.558	1203.501	904.938
176.081	13.421	1202.780	903.564
177.096	13.500	1201.725	903.127
178.110	13.465	1200.783	902.144
179.125	13.533	1199.670	901.599
180.140	13.559	1198.121	900.500
181.154	13.595	1197.114	899.859
182.169	13.530	1196.153	898.705
183.183	13.601	1194.904	898.070
184.198	13.516	1194.109	896.932
185.213	13.666	1192.474	896.435
186.227	13.732	1191.367	895.880
187.242	13.712	1190.518	895.057
188.256	13.763	1189.499	894.485
189.271	13.659	1188.567	893.147
190.286	13.751	1186.824	892.249
191.300	13.558	1186.428	890.839
192.315	13.456	1185.957	889.854
193.329	13.602	1185.232	890.015
194.344	13.588	1184.685	889.455
195.359	13.655	1184.008	889.224
196.373	13.766	1183.647	889.470
197.388	13.717	1182.980	888.627
198.402	13.766	1182.685	888.590
199.417	13.896	1182.286	888.905
200.432	13.973	1180.895	888.197
201.446	14.079	1180.160	888.130
202.461	14.009	1179.170	886.933
203.475	14.090	1178.304	886.634
204.490	14.023	1176.955	885.184
205.504	13.997	1175.732	884.048
206.519	13.809	1175.069	882.472
207.534	13.954	1173.665	882.109
208.548	13.959	1172.537	881.212
209.563	13.933	1172.113	880.674
210.577	14.085	1170.743	880.373
211.592	14.076	1170.064	879.735
212.607	14.027	1169.861	879.247
213.621	13.980	1168.873	878.176
214.636	14.028	1167.859	877.590
215.650	14.072	1166.996	877.100
216.665	14.220	1165.857	876.942
217.680	14.182	1165.111	876.103
218.694	14.155	1164.326	875.298
219.709	14.179	1162.966	874.324
220.723	14.155	1162.865	874.040
221.738	14.221	1161.789	873.501
222.753	14.105	1161.358	872.491
223.767	14.255	1160.540	872.588
224.782	14.272	1160.001	872.193
225.796	14.325	1159.237	871.819
226.811	14.284	1158.883	871.262
227.826	14.350	1158.042	870.899
228.840	14.253	1156.807	869.385
229.855	14.368	1156.454	869.642
230.869	14.295	1155.878	868.755
231.884	14.308	1154.706	867.860
232.899	14.302	1154.072	867.278
233.913	14.330	1153.518	866.929
234.928	14.278	1152.380	865.730
235.942	14.227	1152.097	865.176
236.957	14.244	1151.193	864.507
237.972	14.326	1150.247	864.148
238.986	14.191	1150.084	863.247
240.001	14.297	1148.993	862.901
241.015	14.429	1148.049	862.798
242.030	14.336	1147.584	861.892
243.045	14.375	1146.844	861.463
244.059	14.308	1146.270	860.607
245.074	14.431	1145.083	860.276
246.088	14.466	1144.323	859.807
247.103	14.469	1143.416	859.068
248.117	14.562	1142.756	858.974
249.132	14.603	1142.056	858.583
250.147	14.602	1141.378	857.993
251.161	14.659	1140.816	857.785
252.176	14.638	1139.843	856.870
253.190	14.755	1139.354	857.029
254.205	14.737	1138.822	856.459
255.220	14.778	1138.013	855.985
256.234	14.777	1137.387	855.435
257.249	14.821	1137.174	855.420
258.263	14.859	1136.176	854.791
259.278	14.871	1135.554	854.311
260.293	14.785	1135.089	853.441
261.307	14.923	1134.498	853.626
262.322	14.922	1133.717	852.959
263.336	15.014	1133.274	853.022
264.351	14.907	1132.928	852.140
265.366	14.963	1132.077	851.710
266.380	15.014	1131.179	851.218
267.395	15.013	1130.615	850.713
268.409	14.944	1129.912	849.755
269.424	14.857	1129.095	848.627
270.439	14.825	1128.698	848.092
271.453	14.939	1127.611	847.777
272.468	14.894	1126.624	846.729
273.482	15.041	1126.005	846.935
274.497	14.915	1125.894	846.141
275.512	14.953	1125.158	845.703
276.526	15.076	1124.213	845.541
277.541	15.040	1123.003	844.373
278.555	14.969	1122.653	843.676
279.570	15.129	1122.139	844.021
280.585	15.077	1121.312	843.065
281.599	14.973	1120.611	841.938
282.614	15.069	1119.410	841.445
283.628	15.165	1118.090	840.862
284.643	15.083	1117.509	839.937
285.657	15.165	1116.227	839.312
286.672	15.245	1115.538	839.120
287.687	15.328	1114.273	838.506
288.701	15.267	1113.998	837.921
289.716	15.182	1113.721	837.212
290.730	15.236	1112.495	836.488
291.745	15.161	1112.186	835.806
292.760	15.310	1110.903	835.513
293.774	15.361	1110.533	835.414
294.789	15.333	1110.098	834.873
295.803	15.364	1109.582	834.566
296.818	15.311	1108.885	833.703
297.833	15.331	1107.976	833.048
298.847	15.424	1107.094	832.769
299.862	15.345	1106.194	831.630
300.876	15.355	1106.013	831.469
301.891	15.441	1105.150	831.171
302.906	15.415	1104.336	830.356
303.920	15.447	1103.749	829.999
304.935	15.531	1103.174	829.909
305.949	15.599	1102.698	829.812
306.964	15.632	1101.619	829.090
307.979	15.580	1101.098	828.368
308.993	15.538	1100.706	827.795
310.008	15.609	1099.556	827.207
311.022	15.679	1098.732	826.856
312.037	15.689	1097.738	826.088
313.052	15.575	1097.086	824.960
314.066	15.541	1096.336	824.160
315.081	15.641	1094.907	823.499
316.095	15.643	1094.430	823.078
317.110	15.557	1094.036	822.291
318.125	15.557	1093.383	821.723
319.139	15.537	1092.958	821.236
320.154	15.537	1092.198	820.591
321.168	15.503	1091.542	819.861
322.183	15.662	1091.121	820.248
323.197	15.493	1090.645	818.992
324.212	15.608	1090.121	819.089
325.227	15.581	1089.560	818.464
326.241	15.707	1088.544	818.237
327.256	15.667	1087.594	817.257
328.270	15.670	1086.795	816.601
329.285	15.703	1085.839	815.970
330.300	15.649	1085.006	815.008
331.314	15.629	1084.508	814.466
332.329	15.722	1083.292	813.931
333.343	15.770	1082.306	813.348
334.358	15.763	1081.430	812.585
335.373	15.834	1080.848	812.421
336.387	15.782	1080.239	811.638
337.402	15.840	1079.609	811.373
338.416	15.790	1078.930	810.552
339.431	15.900	1078.162	810.433
340.446	15.985	1077.516	810.286
341.460	15.903	1076.922	809.370
342.475	15.955	1076.358	809.124
343.489	16.042	1075.190	808.595
344.504	16.065	1074.526	808.134
345.519	16.155	1073.479	807.705
346.533	16.031	1072.921	806.620
347.548	16.191	1072.020	806.638
348.562	16.258	1071.240	806.299
349.577	16.106	1070.643	805.049
350.592	16.043	1069.732	803.996
351.606	16.043	1068.737	803.176
352.621	15.996	1068.361	802.600
353.635	16.001	1067.846	802.165
354.650	16.084	1066.781	801.686
355.665	16.163	1066.080	801.465
356.679	16.157	1065.496	800.928
357.694	16.138	1065.016	800.404
358.708	16.069	1064.777	799.828
359.723	16.303	1063.472	799.886
360.738	16.173	1063.353	799.109
361.752	16.139	1062.904	798.542
362.767	16.306	1062.163	798.702
363.781	16.188	1061.548	797.613
364.796	16.200	1061.325	797.430
365.810	16.415	1060.478	797.740
366.825	16.332	1060.122	797.007
367.840	16.493	1059.041	796.887
368.854	16.610	1058.313	796.816
369.869	16.441	1058.172	795.843
370.883	16.356	1057.684	795.008
371.898	16.457	1056.138	794.247
372.913	16.413	1055.743	793.673
373.927	16.554	1055.248	793.896
374.942	16.534	1054.744	793.354
375.956	16.473	1054.232	792.610
376.971	16.649	1053.539	792.841
377.986	16.613	1052.986	792.186
379.000	16.580	1052.454	791.566
380.015	16.788	1051.857	792.018
381.029	16.753	1050.973	791.119
382.044	16.805	1050.271	790.761
383.059	16.807	1049.837	790.373
384.073	16.627	1049.214	788.996
385.088	16.803	1048.022	788.850
386.102	16.605	1047.522	787.484
387.117	16.739	1046.312	787.128
388.132	16.630	1046.023	786.335
389.146	16.693	1044.974	785.765
390.161	16.750	1044.095	785.302
391.175	16.617	1043.663	784.291
392.190	16.692	1042.954	784.034
393.205	16.791	1042.038	783.736
394.219	16.814	1041.599	783.440
395.234	16.762	1040.755	782.497
396.248	16.900	1039.290	781.965
397.263	16.761	1038.471	780.639
398.278	16.662	1038.288	779.973
399.292	16.682	1037.341	779.287
400.307	16.658	1037.007	778.856
401.321	16.819	1035.615	778.479
402.336	16.738	1035.535	777.978
403.350	16.884	1034.409	777.737
404.365	16.792	1034.128	777.032
405.380	16.965	1033.057	776.950
406.394	17.016	1032.601	776.774
407.409	16.954	1031.912	775.904
408.423	17.025	1031.052	775.512
409.438	17.111	1030.512	775.432
410.453	17.094	1029.915	774.834
411.467	17.045	1029.222	774.024
412.482	17.085	1028.555	773.635
413.496	17.020	1028.327	773.097
414.511	17.095	1027.393	772.668
415.526	17.107	1027.295	772.581
416.540	17.259	1026.366	772.505
417.555	17.268	1025.850	772.087
418.569	17.149	1025.342	771.098
419.584	17.169	1025.186	771.002
420.599	17.200	1024.600	770.634
421.613	101.677	1318.260	1457.260
422.628	92.894	1361.028	1457.368
