DTS Sentinel unit serial number:	SN413079Multiplexer serial number:	ORYXHardware model number:	OX4-SRSoftware version number:	ORYX F/W v4.00 Oryx Data Collector v3.7.2.0data status	okinstallation	princeton_trtdifferential loss correction	single-endedforward channel	channel 2reverse channel	N/Adate	2019/09/11time	05:17:10forward acquisition time	60.00reverse acquisition time	0.00gamma	496.2192k internal	0.2330k external	0.2330temperature offset calibration	0.9941default loss term (dB/km)	0.3790temperature slope calibration	1.0000multiplexer offset coefficient	1.0000multiplexer slope coefficient	1.0000fibre end	0.00T internal ref (°C)	29.44T ext. ref 1 (°C)	-0.25T ext. ref 2 (°C)	23.37length (m)	temperature (°C)	Stokes	anti-Stokes-747.200	190.515	0.117	0.176
-746.185	-117.495	-0.167	0.030
-745.171	-78.416	0.304	-0.105
-744.156	-4.067	-0.118	-0.082
-743.142	0.975	0.293	0.212
-742.127	17.265	-0.166	0.132
-741.112	35.545	-0.185	0.163
-740.098	139.194	-0.262	-0.347
-739.083	-15.851	0.255	0.164
-738.069	207.157	-0.271	0.425
-737.054	-200.000	-0.044	0.413
-736.039	-92.519	-0.465	0.132
-735.025	800.000	0.114	0.324
-734.010	-48.498	0.171	0.083
-732.996	-66.880	0.092	-0.037
-731.981	800.000	-0.019	-0.070
-730.966	-132.356	-0.219	0.028
-729.952	-200.000	-0.023	0.194
-728.937	131.310	-0.095	-0.123
-727.923	800.000	0.074	0.215
-726.908	-88.077	-0.189	0.057
-725.894	-200.000	-0.018	-0.334
-724.879	-200.000	0.016	-0.128
-723.864	-200.000	0.029	-0.245
-722.850	568.281	0.152	-0.373
-721.835	49.200	-0.176	-0.167
-720.821	-200.000	-0.038	-0.168
-719.806	97.444	0.074	0.085
-718.791	-41.437	-0.343	-0.178
-717.777	86.900	-0.158	-0.176
-716.762	-200.000	0.046	-0.292
-715.748	-136.654	0.309	0.036
-714.733	582.123	-0.093	-0.229
-713.718	-133.000	-0.120	-0.015
-712.704	632.046	-0.064	-0.164
-711.689	0.788	0.151	-0.109
-710.675	-59.627	-0.266	0.115
-709.660	407.068	0.060	-0.128
-708.645	-200.000	0.020	0.164
-707.631	66.976	-0.063	-0.065
-706.616	-200.000	-0.191	-0.001
-705.602	-32.601	0.588	0.329
-704.587	-170.792	-0.139	-0.005
-703.572	310.585	-0.011	-0.021
-702.558	30.478	-0.208	-0.179
-701.543	-200.000	-0.020	-0.171
-700.529	82.534	-0.146	-0.160
-699.514	-91.584	0.075	0.022
-698.499	-200.000	-0.003	0.467
-697.485	305.855	0.180	-0.336
-696.470	179.513	-0.071	-0.104
-695.456	33.710	0.160	0.139
-694.441	778.556	-0.049	0.134
-693.426	-200.000	-0.007	-0.148
-692.412	-73.313	0.115	-0.042
-691.397	-111.620	0.152	0.031
-690.383	135.688	-0.227	-0.297
-689.368	-159.022	0.311	0.018
-688.354	-200.000	0.043	0.376
-687.339	800.000	0.060	0.170
-686.324	-78.525	-0.314	0.108
-685.310	50.124	0.131	0.124
-684.295	-37.945	-0.358	-0.191
-683.281	-200.000	-0.027	-0.260
-682.266	797.828	-0.067	-0.184
-681.251	249.954	-0.068	-0.115
-680.237	-200.000	-0.052	0.290
-679.222	88.494	-0.147	0.165
-678.208	639.982	-0.042	0.108
-677.193	800.000	0.060	0.213
-676.178	37.328	0.048	0.043
-675.164	18.156	0.145	0.116
-674.149	120.181	-0.122	-0.152
-673.135	-151.705	0.358	-0.026
-672.120	800.000	-0.018	-0.074
-671.105	409.914	0.054	0.115
-670.091	-89.163	-0.124	-0.037
-669.076	15.360	-0.154	0.122
-668.062	21.245	-0.236	0.193
-667.047	-112.494	0.168	0.034
-666.032	800.000	0.038	-0.141
-665.018	-26.435	0.304	0.179
-664.003	-200.000	-0.031	0.382
-662.989	-13.498	-0.283	-0.184
-661.974	-82.724	0.169	-0.055
-660.959	-129.714	0.249	0.034
-659.945	196.426	0.122	0.186
-658.930	800.000	0.089	0.299
-657.916	247.535	-0.108	0.184
-656.901	112.463	0.054	0.065
-655.886	-59.267	-0.394	0.170
-654.872	-133.334	-0.222	-0.028
-653.857	-75.999	0.303	-0.107
-652.843	-200.000	-0.005	0.227
-651.828	157.537	0.066	0.092
-650.814	165.828	0.074	-0.106
-649.799	-78.393	-0.037	-0.013
-648.784	190.924	-0.055	0.082
-647.770	-137.296	0.461	-0.053
-646.755	800.000	0.058	-0.161
-645.741	-200.000	0.001	-0.044
-644.726	515.547	0.134	0.315
-643.711	147.587	0.128	-0.172
-642.697	-200.000	-0.011	-0.114
-641.682	-9.196	-0.127	0.085
-640.668	52.055	0.235	0.225
-639.653	-200.000	-0.014	0.157
-638.638	800.000	-0.036	0.151
-637.624	37.155	-0.178	0.158
-636.609	148.090	-0.124	-0.168
-635.595	-200.000	0.034	-0.321
-634.580	31.779	-0.092	-0.079
-633.565	-45.281	-0.248	-0.123
-632.551	460.568	0.042	-0.093
-631.536	-200.000	-0.220	0.000
-630.522	42.392	-0.080	-0.073
-629.507	-102.201	-0.098	-0.024
-628.492	319.037	-0.046	0.087
-627.478	-130.710	0.176	-0.024
-626.463	400.918	-0.050	0.106
-625.449	186.922	-0.201	-0.300
-624.434	800.000	0.035	-0.117
-623.419	-133.303	-0.347	-0.044
-622.405	-200.000	-0.014	0.107
-621.390	-22.248	-0.199	0.121
-620.376	-154.221	-0.106	0.007
-619.361	-120.144	0.232	-0.040
-618.346	-200.000	0.006	-0.448
-617.332	-103.679	0.175	0.041
-616.317	-14.050	-0.360	-0.233
-615.303	258.824	-0.099	-0.171
-614.288	-124.240	-0.162	-0.025
-613.273	494.134	-0.114	0.262
-612.259	125.107	-0.030	0.038
-611.244	348.296	0.160	0.316
-610.230	49.740	-0.230	0.217
-609.215	800.000	0.100	0.314
-608.201	-53.594	0.058	0.027
-607.186	44.566	-0.111	0.102
-606.171	231.986	-0.023	-0.038
-605.157	-49.407	0.265	0.127
-604.142	-200.000	-0.017	0.131
-603.128	-159.431	-0.063	0.004
-602.113	137.824	-0.055	0.073
-601.098	37.626	0.157	0.139
-600.084	800.000	0.036	0.155
-599.069	-133.572	-0.268	0.034
-598.055	-127.076	-0.266	0.039
-597.040	29.699	-0.124	-0.106
-596.025	800.000	-0.073	-0.307
-595.011	470.441	0.109	-0.245
-593.996	-32.522	-0.206	-0.115
-592.982	422.756	0.055	-0.119
-591.967	438.060	-0.037	0.080
-590.952	-121.431	0.335	0.056
-589.938	-171.868	0.202	0.007
-588.923	-38.185	0.228	-0.121
-587.909	-115.916	-0.326	0.061
-586.894	-28.086	0.152	-0.088
-585.879	310.982	0.164	-0.308
-584.865	359.114	-0.143	-0.286
-583.850	-100.989	0.418	-0.103
-582.836	-118.152	-0.130	0.023
-581.821	-200.000	-0.001	-0.105
-580.806	-162.610	-0.198	0.010
-579.792	-100.230	0.056	0.014
-578.777	800.000	0.045	0.191
-577.763	-200.000	0.029	0.246
-576.748	116.309	-0.064	-0.078
-575.733	-200.000	-0.025	-0.396
-574.719	-200.000	-0.001	-0.010
-573.704	-119.090	-0.084	-0.015
-572.690	800.000	0.048	0.200
-571.675	-200.000	-0.025	-0.179
-570.661	-109.134	-0.029	-0.006
-569.646	800.000	0.035	0.130
-568.631	-200.000	0.022	-0.170
-567.617	-29.477	-0.356	-0.204
-566.602	-200.000	0.054	-0.289
-565.588	-200.000	0.005	0.346
-564.573	-200.000	0.022	0.274
-563.558	-156.753	0.119	-0.007
-562.544	-159.212	0.379	0.021
-561.529	97.636	0.169	0.194
-560.515	475.483	-0.115	0.259
-559.500	37.855	-0.184	-0.164
-558.485	-84.660	-0.131	0.041
-557.471	-13.024	-0.041	0.027
-556.456	-109.139	-0.164	-0.035
-555.442	464.758	-0.118	0.263
-554.427	-200.000	-0.011	-0.175
-553.412	-94.542	0.137	0.037
-552.398	-70.022	-0.194	0.074
-551.383	253.212	0.191	-0.326
-550.369	453.731	0.163	-0.360
-549.354	572.729	-0.018	-0.043
-548.339	-101.651	0.081	0.020
-547.325	-13.180	-0.177	-0.115
-546.310	-200.000	0.043	-0.312
-545.296	492.191	0.045	0.103
-544.281	-200.000	-0.035	0.200
-543.266	-39.089	-0.523	0.275
-542.252	-82.599	0.250	-0.081
-541.237	-113.696	0.286	0.056
-540.223	202.872	-0.131	0.202
-539.208	213.050	-0.065	-0.102
-538.193	-42.499	-0.135	-0.069
-537.179	-22.959	-0.194	0.117
-536.164	-200.000	0.017	0.112
-535.150	-200.000	0.051	0.249
-534.135	-200.000	0.054	0.268
-533.121	-100.606	0.178	0.044
-532.106	-17.138	0.348	-0.219
-531.091	-130.706	-0.059	0.008
-530.077	-11.431	-0.216	0.142
-529.062	163.250	-0.109	-0.153
-528.048	-200.000	-0.006	0.099
-527.033	-200.000	0.001	0.011
-526.018	43.424	-0.186	-0.170
-525.004	-140.178	-0.377	0.040
-523.989	-172.218	-0.187	-0.006
-522.975	-86.786	-0.302	0.092
-521.960	-19.047	-0.080	-0.050
-520.945	-6.504	0.260	0.177
-519.931	12.337	0.273	-0.210
-518.916	-189.992	0.231	0.003
-517.902	74.032	0.051	-0.053
-516.887	800.000	-0.044	-0.169
-515.872	-200.000	-0.002	0.146
-514.858	388.973	0.052	0.108
-513.843	-179.085	0.018	0.000
-512.829	77.076	-0.043	0.045
-511.814	-200.000	-0.000	-0.030
-510.799	-16.919	-0.249	-0.157
-509.785	-101.347	0.210	0.051
-508.770	-69.871	0.080	-0.030
-507.756	-81.512	0.135	0.044
-506.741	-200.000	-0.043	0.244
-505.726	195.880	-0.050	-0.076
-504.712	-200.000	0.019	0.144
-503.697	800.000	0.044	-0.134
-502.683	800.000	-0.015	-0.060
-501.668	-200.000	0.033	-0.290
-500.653	-200.000	-0.023	-0.145
-499.639	134.182	0.172	0.222
-498.624	-200.000	-0.014	-0.113
-497.610	-104.525	-0.491	-0.113
-496.595	54.975	-0.163	-0.157
-495.581	411.027	-0.132	0.279
-494.566	800.000	0.059	-0.234
-493.551	-200.000	-0.005	0.141
-492.537	33.742	-0.269	0.233
-491.522	0.354	0.094	-0.067
-490.508	172.552	0.057	0.081
-489.493	-167.029	0.234	-0.010
-488.478	-27.959	0.202	-0.116
-487.464	-200.000	0.015	0.095
-486.449	9.055	0.126	-0.095
-485.435	-48.566	0.240	-0.115
-484.420	-200.000	0.056	0.268
-483.405	-165.502	0.178	-0.008
-482.391	800.000	0.103	-0.321
-481.376	-120.670	0.242	0.041
-480.362	680.710	-0.034	-0.087
-479.347	214.399	-0.184	-0.290
-478.332	253.224	0.169	-0.287
-477.318	-29.345	-0.187	-0.107
-476.303	-69.429	0.174	-0.066
-475.289	37.223	0.213	-0.188
-474.274	800.000	-0.078	-0.282
-473.259	84.546	0.194	0.212
-472.245	17.373	0.115	0.091
-471.230	466.173	-0.090	0.201
-470.216	-46.735	0.193	-0.094
-469.201	187.443	0.194	-0.289
-468.186	100.652	-0.128	0.148
-467.172	-200.000	0.036	0.174
-466.157	-200.000	0.003	0.076
-465.143	-60.609	-0.244	0.103
-464.128	359.759	0.148	0.295
-463.113	-23.915	-0.418	0.249
-462.099	-135.695	-0.080	-0.009
-461.084	-143.541	-0.315	-0.030
-460.070	-200.000	0.006	0.109
-459.055	129.637	-0.100	-0.127
-458.040	36.013	0.187	0.164
-457.026	-108.196	0.318	-0.068
-456.011	-153.141	-0.224	-0.016
-454.997	188.061	0.174	0.259
-453.982	631.171	0.060	0.151
-452.968	-200.000	0.037	0.205
-451.953	-139.690	-0.225	0.024
-450.938	-200.000	-0.048	-0.261
-449.924	-106.577	-0.208	-0.046
-448.909	23.724	0.100	0.082
-447.895	130.374	0.073	0.092
-446.880	-200.000	0.029	0.210
-445.865	134.488	0.198	0.256
-444.851	-30.889	-0.118	-0.067
-443.836	312.524	-0.046	0.086
-442.822	68.588	-0.176	0.180
-441.807	131.273	-0.186	0.237
-440.792	-65.655	-0.122	-0.049
-439.778	-79.866	0.103	-0.034
-438.763	-200.000	0.004	0.432
-437.749	120.821	0.156	-0.193
-436.734	81.206	-0.267	-0.287
-435.719	21.673	0.350	-0.283
-434.705	-165.257	0.063	0.003
-433.690	-142.568	-0.074	0.007
-432.676	-157.686	-0.089	0.005
-431.661	-134.617	-0.447	-0.054
-430.646	-64.004	0.085	-0.035
-429.632	209.467	0.112	0.175
-428.617	-200.000	-0.016	0.124
-427.603	-48.387	-0.146	-0.070
-426.588	-67.249	0.210	0.082
-425.573	-87.953	0.100	0.030
-424.559	-200.000	0.066	-0.341
-423.544	-155.618	0.259	0.017
-422.530	160.678	-0.086	0.119
-421.515	533.411	-0.020	0.046
-420.500	-59.910	0.063	-0.027
-419.486	123.798	0.068	-0.085
-418.471	-200.000	0.023	-0.316
-417.457	-42.574	-0.439	-0.222
-416.442	800.000	-0.025	0.094
-415.428	-200.000	0.020	0.106
-414.413	-147.362	-0.074	-0.006
-413.398	344.890	0.093	0.181
-412.384	256.231	0.011	0.018
-411.369	74.622	-0.057	-0.059
-410.355	0.310	0.222	-0.158
-409.340	7.566	-0.261	0.194
-408.325	186.096	-0.062	-0.091
-407.311	376.286	0.166	0.337
-406.296	-121.154	-0.157	0.026
-405.282	149.255	-0.118	0.159
-404.267	-186.682	0.268	-0.004
-403.252	800.000	0.075	0.323
-402.238	47.867	0.113	-0.105
-401.223	-191.772	-0.311	-0.003
-400.209	79.105	-0.262	-0.278
-399.194	-137.544	-0.159	-0.018
-398.179	197.016	-0.137	-0.207
-397.165	264.141	0.061	0.106
-396.150	8.055	0.114	-0.085
-395.136	702.305	-0.055	0.145
-394.121	-200.000	-0.012	-0.062
-393.106	-92.518	-0.319	-0.089
-392.092	-103.656	0.051	0.012
-391.077	29.885	0.221	0.187
-390.063	121.298	0.063	-0.078
-389.048	658.648	0.090	0.229
-388.033	67.062	0.089	-0.090
-387.019	215.941	-0.076	0.120
-386.004	-20.180	-0.233	0.142
-384.990	18.208	-0.128	-0.101
-383.975	-101.824	0.179	-0.043
-382.960	19.134	0.334	0.266
-381.946	-200.000	-0.020	0.167
-380.931	-69.861	0.245	-0.093
-379.917	-43.882	0.106	0.053
-378.902	800.000	0.047	-0.148
-377.888	-200.000	0.035	-0.217
-376.873	-119.071	0.222	-0.039
-375.858	115.125	0.111	0.135
-374.844	-200.000	0.015	0.337
-373.829	-102.433	-0.166	0.040
-372.815	-136.739	0.086	0.010
-371.800	-77.451	-0.249	0.086
-370.785	118.020	-0.111	0.135
-369.771	646.783	0.046	-0.117
-368.756	-106.752	-0.269	0.059
-367.742	362.034	-0.066	0.132
-366.727	-200.000	0.004	0.146
-365.712	113.079	0.145	-0.175
-364.698	-77.485	0.198	0.068
-363.683	-85.114	0.126	-0.039
-362.669	-59.046	-0.119	0.051
-361.654	20.047	-0.153	0.122
-360.639	800.000	0.081	-0.305
-359.625	-22.591	-0.272	-0.163
-358.610	61.547	-0.221	-0.218
-357.596	-26.903	0.125	-0.072
-356.581	-184.725	-0.406	-0.006
-355.566	-48.637	0.338	-0.161
-354.552	-158.280	0.222	0.013
-353.537	-60.232	-0.157	-0.066
-352.523	-61.240	0.248	-0.104
-351.508	-142.046	0.296	0.029
-350.493	193.994	-0.170	0.255
-349.479	-45.342	-0.191	0.094
-348.464	169.986	-0.184	-0.260
-347.450	-56.851	0.362	0.158
-346.435	285.003	-0.113	-0.202
-345.420	766.993	0.164	0.441
-344.406	745.601	0.066	0.177
-343.391	800.000	-0.076	-0.235
-342.377	238.614	0.076	-0.126
-341.362	800.000	-0.032	-0.134
-340.348	-200.000	0.008	0.103
-339.333	-7.852	-0.086	0.057
-338.318	-59.226	0.164	0.070
-337.304	-200.000	-0.075	0.345
-336.289	322.004	-0.035	-0.066
-335.275	-19.965	0.162	0.099
-334.260	-200.000	0.016	-0.282
-333.245	96.581	0.119	-0.135
-332.231	800.000	-0.040	0.171
-331.216	121.459	-0.110	-0.135
-330.202	80.689	-0.184	0.196
-329.187	45.247	-0.171	-0.156
-328.172	50.801	0.311	-0.292
-327.158	495.616	-0.080	-0.181
-326.143	-1.145	0.086	-0.060
-325.129	33.768	0.184	-0.159
-324.114	-3.637	0.250	0.172
-323.099	-156.899	0.264	-0.016
-322.085	3.032	0.192	-0.138
-321.070	-38.474	0.185	-0.097
-320.056	800.000	-0.021	-0.059
-319.041	1.608	0.097	0.069
-318.026	-96.215	0.112	-0.029
-317.012	725.137	0.023	-0.062
-315.997	-200.000	-0.019	-0.119
-314.983	-197.611	0.236	0.001
-313.968	27.996	-0.213	-0.178
-312.953	-53.375	-0.180	0.082
-311.939	311.189	0.122	0.226
-310.924	29.825	-0.087	0.074
-309.910	497.979	0.055	0.125
-308.895	-165.617	0.323	0.014
-307.880	-74.643	0.175	-0.062
-306.866	-117.581	-0.333	0.059
-305.851	-138.090	-0.169	0.019
-304.837	-89.449	-0.197	-0.057
-303.822	800.000	0.093	-0.392
-302.807	-200.000	0.017	0.337
-301.793	224.176	0.053	0.085
-300.778	56.968	0.296	-0.286
-299.764	-26.525	0.206	-0.120
-298.749	-74.089	-0.391	-0.140
-297.735	-200.000	-0.004	0.332
-296.720	-131.715	-0.117	0.015
-295.705	-68.384	0.106	0.041
-294.691	322.645	-0.089	0.168
-293.676	53.332	0.122	-0.115
-292.662	67.125	-0.233	-0.235
-291.647	621.576	0.161	-0.401
-290.632	-128.553	-0.173	0.024
-289.618	-116.198	-0.128	0.024
-288.603	-105.906	-0.402	-0.090
-287.589	482.399	-0.042	-0.095
-286.574	-30.722	0.343	0.192
-285.559	800.000	-0.066	0.215
-284.545	790.244	-0.154	-0.419
-283.530	295.470	0.116	0.211
-282.516	-37.750	0.065	0.034
-281.501	-43.943	-0.113	0.056
-280.486	800.000	-0.046	-0.183
-279.472	-200.000	0.001	0.409
-278.457	-54.628	0.351	-0.157
-277.443	-200.000	0.001	-0.386
-276.428	-42.656	-0.148	0.075
-275.413	-88.084	-0.184	0.055
-274.399	89.805	0.283	0.313
-273.384	-200.000	0.031	-0.201
-272.370	-38.310	0.156	-0.081
-271.355	-56.637	0.194	-0.085
-270.340	150.825	0.069	-0.092
-269.326	-200.000	-0.001	0.138
-268.311	-200.000	0.015	-0.135
-267.297	-126.455	-0.343	0.050
-266.282	484.512	-0.071	0.159
-265.267	38.713	0.316	0.279
-264.253	85.653	0.099	0.108
-263.238	74.924	0.067	0.070
-262.224	-80.177	-0.350	-0.116
-261.209	-52.707	0.362	0.165
-260.195	800.000	0.014	0.045
-259.180	-153.975	-0.102	-0.007
-258.165	-36.723	0.056	0.030
-257.151	-19.251	0.192	0.118
-256.136	8.755	0.293	0.219
-255.122	-115.356	-0.383	-0.071
-254.107	603.453	-0.030	0.074
-253.092	800.000	0.066	-0.229
-252.078	-41.804	-0.214	0.108
-251.063	-200.000	-0.002	-0.124
-250.049	186.171	0.147	0.216
-249.034	-200.000	-0.031	0.158
-248.019	-91.203	0.074	0.021
-247.005	800.000	-0.037	-0.155
-245.990	181.844	0.108	0.157
-244.976	63.953	-0.054	-0.054
-243.961	-190.754	-0.089	-0.001
-242.946	54.814	0.159	0.151
-241.932	-43.413	-0.190	0.095
-240.917	-118.603	0.437	0.076
-239.903	8.067	-0.289	-0.214
-238.888	108.113	0.215	-0.253
-237.873	198.228	-0.134	0.202
-236.859	-27.538	0.363	-0.208
-235.844	-200.000	0.011	0.343
-234.830	-200.000	0.039	0.188
-233.815	-25.237	-0.065	0.038
-232.800	245.250	-0.157	-0.260
-231.786	45.038	-0.171	-0.155
-230.771	-107.054	-0.168	0.037
-229.757	582.273	0.148	0.358
-228.742	397.540	-0.197	0.406
-227.727	-200.000	-0.000	-0.133
-226.713	223.368	-0.208	-0.332
-225.698	179.004	-0.147	-0.212
-224.684	452.525	0.080	-0.175
-223.669	-80.567	-0.246	-0.081
-222.655	-104.734	0.245	0.056
-221.640	-13.574	0.345	0.220
-220.625	97.210	0.269	-0.304
-219.611	92.465	-0.062	-0.069
-218.596	-163.576	-0.075	-0.003
-217.582	-138.519	-0.383	-0.042
-216.567	-81.241	-0.249	0.081
-215.552	319.097	-0.093	0.173
-214.538	-94.113	0.109	-0.030
-213.523	83.868	-0.225	-0.243
-212.509	-126.152	0.365	-0.054
-211.494	178.715	0.030	0.043
-210.479	-200.000	-0.015	-0.244
-209.465	-200.000	-0.017	-0.284
-208.450	-122.880	-0.143	0.023
-207.436	6.259	0.462	-0.338
-206.421	31.192	-0.126	0.107
-205.406	-98.733	-0.043	-0.011
-204.392	269.798	0.182	-0.315
-203.377	-156.357	0.082	-0.005
-202.363	98.023	0.166	0.188
-201.348	-6.984	-0.259	0.173
-200.333	-89.471	0.439	-0.127
-199.319	-75.486	-0.195	0.068
-198.304	50.816	0.441	-0.412
-197.290	-200.000	-0.024	-0.224
-196.275	800.000	-0.096	-0.284
-195.260	-141.131	-0.305	-0.031
-194.246	-200.000	-0.314	-0.001
-193.231	435.541	-0.089	0.192
-192.217	800.000	-0.046	0.169
-191.202	267.785	-0.138	0.239
-190.187	-117.851	-0.199	-0.035
-189.173	-29.597	-0.281	-0.158
-188.158	-63.425	0.060	0.024
-187.144	-139.996	-0.246	-0.026
-186.129	64.430	0.272	-0.270
-185.114	113.299	0.315	0.376
-184.100	-200.000	-0.007	-0.144
-183.085	52.780	0.168	-0.158
-182.071	-200.000	0.004	-0.242
-181.056	-70.478	0.413	0.154
-180.042	800.000	0.093	-0.283
-179.027	-80.393	0.125	-0.041
-178.012	-60.990	-0.219	-0.091
-176.998	116.434	0.170	-0.206
-175.983	-113.659	-0.304	-0.058
-174.969	342.010	0.106	-0.205
-173.954	-144.992	-0.387	0.035
-172.939	86.918	-0.014	-0.015
-171.925	-141.323	0.260	0.026
-170.910	-64.656	-0.316	-0.126
-169.896	-112.069	0.090	0.018
-168.881	800.000	0.080	0.252
-167.866	-38.168	-0.321	0.168
-166.852	-94.805	-0.019	0.005
-165.837	-141.205	0.117	0.012
-164.823	229.049	-0.051	0.082
-163.808	-200.000	0.035	0.252
-162.793	769.520	0.094	0.253
-161.779	278.766	-0.088	-0.155
-160.764	163.557	-0.055	0.077
-159.750	-200.000	0.020	0.378
-158.735	353.235	0.162	0.317
-157.720	-200.000	-0.215	-0.001
-156.706	800.000	0.049	-0.133
-155.691	318.330	-0.059	0.111
-154.677	1.060	0.116	0.082
-153.662	-55.488	0.059	-0.026
-152.647	479.950	0.107	0.239
-151.633	-200.000	0.019	0.361
-150.618	51.387	-0.204	0.191
-149.604	-132.302	0.234	0.030
-148.589	-200.000	-0.024	0.201
-147.574	76.354	-0.138	0.144
-146.560	800.000	-0.066	0.263
-145.545	341.245	0.170	-0.326
-144.531	193.226	-0.112	-0.167
-143.516	-1.328	-0.031	-0.021
-142.502	-112.775	0.281	-0.055
-141.487	352.883	0.079	-0.154
-140.472	-200.000	0.027	-0.123
-139.458	-7.480	-0.271	-0.180
-138.443	-130.911	-0.170	0.022
-137.429	-27.814	-0.213	0.122
-136.414	-200.000	0.000	0.402
-135.399	-21.772	-0.209	-0.125
-134.385	91.489	-0.127	0.140
-133.370	32.155	-0.098	-0.083
-132.356	-200.000	-0.037	0.308
-131.341	-113.665	0.184	-0.035
-130.326	800.000	0.050	-0.190
-129.312	-91.597	-0.051	-0.014
-128.297	120.120	-0.289	0.353
-127.283	-72.381	-0.157	-0.057
-126.268	-117.831	0.060	-0.011
-125.253	31.841	0.315	-0.267
-124.239	-200.000	-0.065	-0.447
-123.224	-170.118	0.304	-0.011
-122.210	-23.286	-0.147	0.087
-121.195	-200.000	-0.069	-0.346
-120.180	-84.534	0.224	0.069
-119.166	-13.803	-0.242	0.154
-118.151	-200.000	-0.008	0.356
-117.137	-200.000	0.068	0.336
-116.122	-123.629	-0.041	-0.006
-115.107	-72.521	-0.241	0.087
-114.093	348.654	0.054	0.105
-113.078	33.507	-0.128	-0.109
-112.064	-40.608	-0.153	-0.078
-111.049	-200.000	0.016	-0.176
-110.034	-200.000	0.078	-0.569
-109.020	133.525	-0.147	0.187
-108.005	-33.077	0.138	0.075
-106.991	278.601	-0.091	-0.159
-105.976	-66.391	-0.044	-0.017
-104.962	120.159	0.151	-0.184
-103.947	-60.068	-0.248	-0.104
-102.932	-117.162	0.411	0.073
-101.918	-111.323	-0.156	0.031
-100.903	0.962	0.206	0.145
-99.889	16.248	0.323	0.250
-98.874	-57.151	0.223	0.096
-97.859	-74.066	0.094	0.034
-96.845	-142.619	-0.402	-0.039
-95.830	-116.898	0.443	-0.080
-94.816	10.215	-0.396	0.295
-93.801	16.198	0.332	0.257
-92.786	-156.001	-0.437	0.027
-91.772	86.057	0.177	-0.191
-90.757	-200.000	0.000	-0.224
-89.743	54.693	0.266	0.251
-88.728	466.772	-0.035	0.077
-87.713	139.211	0.048	0.062
-86.699	430.865	-0.109	-0.232
-85.684	-19.066	0.122	-0.075
-84.670	-189.090	-0.132	0.002
-83.655	225.907	0.134	-0.213
-82.640	-59.717	0.165	-0.069
-81.626	-92.625	-0.151	-0.041
-80.611	552.340	-0.058	-0.137
-79.597	-44.932	-0.134	-0.065
-78.582	-104.197	0.217	0.049
-77.567	104.382	0.174	-0.200
-76.553	-185.294	0.358	-0.005
-75.538	-173.034	-0.237	-0.007
-74.524	131.542	0.071	-0.090
-73.509	-22.417	0.202	-0.120
-72.494	-3.956	-0.150	-0.102
-71.480	-23.064	0.248	-0.146
-70.465	-200.000	-0.014	-0.222
-69.451	-8.596	0.087	0.057
-68.436	-137.431	0.093	0.010
-67.422	116.077	0.093	0.111
-66.407	-119.324	0.327	-0.056
-65.392	449.642	0.089	-0.193
-64.378	-150.974	-0.079	-0.006
-63.363	27.177	0.070	-0.058
-62.349	-195.566	0.113	0.001
-61.334	299.009	-0.759	-1.369
-60.319	95.089	0.291	0.325
-59.305	800.000	-0.348	-1.126
-58.290	121.750	0.690	0.844
-57.276	800.000	0.359	1.471
-56.261	-200.000	106.260	615.490
-55.246	508.108	1509.247	3434.793
-54.232	174.779	2710.228	3844.662
-53.217	104.841	2300.578	2658.600
-52.203	38.706	1904.654	1666.124
-51.188	32.597	1691.336	1433.168
-50.173	29.967	1647.728	1376.639
-49.159	49.092	1701.671	1566.704
-48.144	49.299	1717.347	1582.644
-47.130	32.227	1673.979	1415.446
-46.115	29.622	1659.294	1383.495
-45.100	29.327	1654.711	1377.420
-44.086	29.269	1651.752	1374.469
-43.071	29.350	1648.789	1372.550
-42.057	29.315	1646.382	1370.230
-41.042	29.303	1645.002	1368.938
-40.027	29.398	1642.425	1367.445
-39.013	29.414	1640.601	1365.989
-37.998	29.186	1639.713	1363.507
-36.984	29.294	1638.298	1363.077
-35.969	29.456	1636.638	1362.841
-34.954	29.522	1634.685	1361.649
-33.940	29.424	1633.328	1359.739
-32.925	29.497	1630.749	1358.073
-31.911	29.390	1630.094	1356.690
-30.896	29.336	1627.964	1354.468
-29.881	29.402	1626.527	1353.698
-28.867	29.321	1625.271	1352.011
-27.852	29.342	1623.689	1350.793
-26.838	29.470	1621.737	1350.051
-25.823	29.427	1620.354	1348.533
-24.809	29.491	1619.188	1347.977
-23.794	29.384	1618.224	1346.335
-22.779	29.494	1616.377	1345.550
-21.765	29.496	1614.626	1344.050
-20.750	29.395	1612.908	1341.839
-19.736	29.416	1611.998	1341.179
-18.721	29.504	1610.273	1340.327
-17.706	29.469	1608.663	1338.677
-16.692	29.482	1607.664	1337.892
-15.677	29.473	1606.400	1336.723
-14.663	29.578	1604.491	1335.836
-13.648	29.482	1603.255	1334.059
-12.633	29.453	1601.941	1332.708
-11.619	29.435	1600.350	1331.202
-10.604	29.461	1598.600	1329.882
-9.590	29.476	1597.727	1329.207
-8.575	29.548	1596.164	1328.376
-7.560	29.477	1595.254	1327.050
-6.546	29.591	1593.965	1326.744
-5.531	29.524	1593.019	1325.428
-4.517	29.433	1592.250	1324.081
-3.502	29.522	1590.994	1323.618
-2.487	29.530	1589.460	1322.347
-1.473	29.172	1577.434	1309.748
-0.458	26.484	1557.863	1274.543
0.556	20.742	1559.210	1244.242
1.571	18.523	1584.382	1248.080
2.586	18.308	1597.694	1256.876
3.600	16.610	1545.364	1203.535
4.615	8.910	1435.639	1066.918
5.629	1.264	1372.239	970.934
6.644	-0.149	1363.539	955.707
7.659	-0.218	1362.236	954.268
8.673	-0.295	1361.655	953.288
9.688	-0.338	1359.787	951.625
10.702	-0.484	1356.654	948.421
11.717	3.114	1363.718	976.143
12.731	12.478	1380.809	1048.233
13.746	19.842	1393.696	1105.139
14.761	21.896	1396.092	1120.066
15.775	22.176	1395.860	1121.571
16.790	22.144	1396.142	1121.495
17.804	22.295	1394.820	1121.296
18.819	22.472	1395.096	1122.542
19.834	22.606	1394.267	1122.630
20.848	22.602	1393.477	1121.874
21.863	22.581	1392.724	1121.034
22.877	22.534	1392.300	1120.291
23.892	22.630	1391.234	1119.946
24.907	22.669	1390.031	1119.125
25.921	22.607	1389.455	1118.172
26.936	22.673	1388.452	1117.681
27.950	22.621	1386.702	1115.844
28.965	22.672	1385.833	1115.371
29.980	22.615	1385.020	1114.259
30.994	22.545	1383.955	1112.856
32.009	22.624	1382.409	1112.015
33.023	22.616	1381.834	1111.407
34.038	22.593	1380.355	1109.973
35.053	22.609	1379.568	1109.341
36.067	22.671	1378.765	1108.986
37.082	22.685	1377.712	1108.131
38.096	22.668	1376.638	1107.061
39.111	22.667	1375.588	1106.113
40.126	22.626	1375.005	1105.288
41.140	22.658	1374.943	1105.341
42.155	22.518	1374.466	1103.984
43.169	22.580	1374.548	1104.340
44.184	22.644	1373.736	1103.994
45.199	22.609	1373.309	1103.330
46.213	22.588	1373.086	1102.920
47.228	22.587	1371.940	1101.899
48.242	22.639	1370.675	1101.107
49.257	22.611	1369.306	1099.737
50.271	22.676	1367.771	1098.813
51.286	22.588	1366.443	1097.101
52.301	22.531	1365.548	1095.928
53.315	22.559	1364.964	1095.539
54.330	22.638	1363.459	1094.726
55.344	22.598	1362.435	1093.555
56.359	22.630	1361.608	1092.993
57.374	22.656	1360.936	1092.522
58.388	22.661	1360.454	1092.065
59.403	22.534	1360.265	1091.032
60.417	22.692	1358.926	1090.839
61.432	22.575	1358.580	1089.739
62.447	22.689	1357.252	1089.286
63.461	22.653	1356.279	1088.188
64.476	22.605	1355.407	1087.096
65.490	22.657	1354.164	1086.320
66.505	22.546	1352.667	1084.340
67.520	22.629	1351.320	1083.676
68.534	22.633	1350.812	1083.198
69.549	22.722	1349.267	1082.407
70.563	22.598	1348.852	1081.217
71.578	22.675	1348.086	1080.982
72.593	22.685	1346.951	1080.039
73.607	22.690	1346.075	1079.267
74.622	22.616	1345.194	1078.012
75.636	22.640	1345.114	1078.003
76.651	22.606	1343.655	1076.530
77.666	22.704	1343.353	1076.790
78.680	22.577	1343.420	1075.970
79.695	22.701	1341.948	1075.454
80.709	22.648	1341.049	1074.320
81.724	22.664	1340.552	1073.924
82.739	22.700	1339.336	1073.072
83.753	22.687	1338.587	1072.299
84.768	22.602	1337.559	1070.865
85.782	22.593	1336.496	1069.859
86.797	22.630	1335.122	1068.892
87.812	22.709	1333.493	1067.973
88.826	22.630	1333.335	1067.270
89.841	22.643	1332.136	1066.297
90.855	22.706	1330.927	1065.614
91.870	22.625	1330.006	1064.295
92.884	22.717	1329.018	1063.964
93.899	22.687	1328.331	1063.140
94.914	22.679	1328.157	1062.860
95.928	22.671	1327.445	1062.145
96.943	22.780	1326.393	1061.864
97.957	22.815	1325.528	1061.291
98.972	22.759	1324.867	1060.330
99.987	22.710	1323.513	1058.858
101.001	22.726	1322.099	1057.730
102.016	22.639	1321.983	1057.021
103.030	22.731	1321.231	1056.880
104.045	22.744	1320.232	1056.062
105.060	22.741	1319.321	1055.226
106.074	22.740	1318.089	1054.137
107.089	22.799	1316.480	1053.113
108.103	22.722	1316.419	1052.510
109.118	22.789	1314.561	1051.328
110.133	22.740	1313.880	1050.402
111.147	22.738	1312.490	1049.184
112.162	22.702	1311.714	1048.256
113.176	22.805	1310.611	1047.893
114.191	22.787	1309.772	1047.025
115.206	22.663	1308.929	1045.523
116.220	22.743	1307.847	1045.039
117.235	22.781	1306.205	1043.858
118.249	22.743	1305.619	1043.074
119.264	22.821	1304.567	1042.602
120.279	22.803	1303.710	1041.721
121.293	22.854	1302.802	1041.199
122.308	22.853	1302.319	1040.719
123.322	22.877	1301.043	1039.749
124.337	22.800	1300.655	1038.894
125.352	22.878	1299.457	1038.305
126.366	22.795	1298.612	1037.048
127.381	22.857	1297.782	1036.659
128.395	22.915	1296.448	1035.840
129.410	22.834	1296.051	1034.957
130.424	22.879	1295.108	1034.374
131.439	22.827	1294.375	1033.392
132.454	22.718	1293.604	1032.048
133.468	22.792	1293.016	1031.923
134.483	22.858	1292.029	1031.427
135.497	22.780	1291.631	1030.561
136.512	22.819	1290.204	1029.562
137.527	22.884	1288.998	1028.887
138.541	22.744	1288.216	1027.357
139.556	22.739	1286.643	1025.981
140.570	22.785	1285.737	1025.437
141.585	22.794	1284.826	1024.673
142.600	22.809	1283.349	1023.486
143.614	22.764	1283.095	1022.936
144.629	22.723	1281.662	1021.464
145.643	22.748	1280.115	1020.283
146.658	22.715	1279.429	1019.456
147.673	22.750	1278.403	1018.754
148.687	22.777	1276.969	1017.676
149.702	22.625	1276.666	1016.468
150.716	22.871	1274.686	1016.218
151.731	22.851	1274.011	1015.472
152.746	22.718	1273.663	1014.342
153.760	22.858	1272.352	1014.013
154.775	22.936	1270.795	1013.131
155.789	22.850	1270.384	1012.220
156.804	22.753	1269.768	1011.085
157.819	22.881	1268.430	1010.662
158.833	22.829	1267.974	1009.912
159.848	22.863	1267.453	1009.598
160.862	22.881	1266.319	1008.708
161.877	22.923	1265.484	1008.195
162.892	22.894	1264.741	1007.351
163.906	22.975	1264.028	1007.152
164.921	22.892	1262.914	1005.701
165.935	22.930	1262.951	1005.860
166.950	22.912	1262.288	1005.139
167.964	22.882	1261.502	1004.259
168.979	22.819	1261.096	1003.485
169.994	22.981	1260.267	1003.660
171.008	22.889	1259.801	1002.676
172.023	22.996	1258.646	1002.272
173.037	22.891	1258.476	1001.455
174.052	22.981	1257.376	1001.003
175.067	22.962	1256.661	1000.234
176.081	23.040	1255.560	999.713
177.096	23.080	1255.003	999.404
178.110	22.846	1254.360	997.485
179.125	22.899	1253.194	996.768
180.140	23.153	1251.527	996.785
181.154	23.044	1250.785	995.493
182.169	22.921	1249.694	993.843
183.183	23.017	1248.658	993.471
184.198	23.034	1247.819	992.811
185.213	23.031	1246.878	991.955
186.227	22.969	1246.101	990.903
187.242	23.073	1245.070	990.578
188.256	22.993	1244.482	989.578
189.271	23.097	1243.349	989.171
190.286	23.000	1242.783	988.087
191.300	23.110	1242.020	988.011
192.315	23.070	1241.695	987.442
193.329	22.988	1241.566	986.791
194.344	23.109	1240.709	986.700
195.359	23.048	1240.527	986.124
196.373	23.045	1239.863	985.494
197.388	22.944	1239.605	984.642
198.402	22.987	1239.161	984.437
199.417	23.083	1238.590	984.430
200.432	23.033	1237.846	983.474
201.446	22.969	1237.143	982.477
202.461	23.073	1236.415	982.387
203.475	23.028	1235.489	981.317
204.490	23.113	1234.394	980.828
205.504	22.959	1234.082	979.641
206.519	23.153	1232.760	979.581
207.534	23.204	1231.515	978.783
208.548	23.196	1230.696	978.006
209.563	23.196	1229.904	977.287
210.577	23.124	1229.251	976.286
211.592	23.175	1228.524	975.902
212.607	23.205	1227.887	975.476
213.621	23.262	1227.013	975.010
214.636	23.251	1226.204	974.217
215.650	23.210	1224.842	972.827
216.665	23.207	1224.556	972.494
217.680	23.193	1223.566	971.546
218.694	23.266	1222.900	971.331
219.709	23.298	1222.166	970.837
220.723	23.149	1221.483	969.397
221.738	23.113	1220.928	968.674
222.753	23.097	1220.435	968.105
223.767	23.046	1220.063	967.444
224.782	23.266	1219.051	967.760
225.796	23.287	1218.675	967.492
226.811	23.362	1217.303	966.728
227.826	23.300	1216.891	965.978
228.840	23.254	1216.545	965.363
229.855	23.234	1216.131	964.843
230.869	23.310	1215.367	964.563
231.884	23.269	1214.374	963.465
232.899	23.253	1214.117	963.092
233.913	23.316	1213.117	962.556
234.928	23.353	1212.684	962.327
235.942	23.377	1212.048	961.867
236.957	23.269	1211.184	960.512
237.972	23.377	1210.370	960.367
238.986	23.234	1209.944	959.170
240.001	23.456	1208.789	959.370
241.015	23.477	1208.522	959.186
242.030	23.386	1207.672	957.933
243.045	23.524	1206.799	957.905
244.059	23.354	1206.193	956.417
245.074	23.514	1205.292	956.484
246.088	23.396	1204.571	955.192
247.103	23.445	1204.019	954.932
248.117	23.504	1202.893	954.271
249.132	23.500	1202.117	953.550
250.147	23.531	1201.274	952.965
251.161	23.521	1200.700	952.372
252.176	23.520	1200.390	952.035
253.190	23.521	1199.543	951.284
254.205	23.585	1198.803	950.954
255.220	23.546	1198.434	950.368
256.234	23.497	1197.703	949.442
257.249	23.536	1197.120	949.105
258.263	23.516	1196.848	948.703
259.278	23.625	1195.719	948.302
260.293	23.628	1195.242	947.859
261.307	23.573	1194.978	947.270
262.322	23.682	1194.212	947.162
263.336	23.451	1194.380	945.978
264.351	23.589	1193.040	945.567
265.366	23.596	1192.832	945.357
266.380	23.580	1192.211	944.697
267.395	23.552	1191.262	943.711
268.409	23.480	1190.724	942.819
269.424	23.647	1189.866	942.944
270.439	23.628	1189.530	942.492
271.453	23.751	1188.916	942.578
272.468	23.593	1188.148	941.048
273.482	23.627	1187.287	940.463
274.497	23.738	1186.973	940.716
275.512	23.610	1186.573	939.640
276.526	23.633	1185.326	938.692
277.541	23.782	1184.452	938.700
278.555	23.626	1184.413	937.765
279.570	23.783	1183.568	937.839
280.585	23.677	1182.815	936.600
281.599	23.789	1181.645	936.184
282.614	23.782	1180.779	935.378
283.628	23.720	1179.683	934.099
284.643	23.802	1178.975	933.889
285.657	23.777	1178.344	933.172
286.672	23.622	1177.466	931.581
287.687	23.689	1177.065	931.536
288.701	23.776	1176.398	931.380
289.716	23.751	1175.623	930.550
290.730	23.821	1174.782	930.169
291.745	23.901	1173.840	929.763
292.760	23.874	1173.824	929.527
293.774	23.881	1173.013	928.836
294.789	23.793	1172.789	928.120
295.803	23.861	1172.127	927.870
296.818	23.925	1171.249	927.421
297.833	23.817	1170.817	926.436
298.847	23.913	1169.824	926.071
299.862	23.987	1169.182	925.863
300.876	23.834	1168.505	924.451
301.891	23.978	1167.924	924.656
302.906	23.952	1167.434	924.054
303.920	24.044	1166.807	923.951
304.935	23.948	1166.143	922.845
305.949	24.039	1165.244	922.524
306.964	24.026	1164.611	921.875
307.979	23.994	1164.076	921.205
308.993	24.122	1163.038	920.962
310.008	24.046	1162.892	920.373
311.022	24.063	1161.901	919.593
312.037	24.055	1161.101	918.838
313.052	24.002	1160.382	917.913
314.066	24.059	1159.488	917.421
315.081	24.008	1158.826	916.554
316.095	23.961	1158.323	915.832
317.110	24.068	1157.981	916.031
318.125	24.202	1156.833	915.729
319.139	24.084	1156.604	914.862
320.154	24.058	1155.993	914.163
321.168	24.096	1155.254	913.695
322.183	24.013	1155.151	913.107
323.197	24.048	1154.301	912.534
324.212	24.096	1153.624	912.162
325.227	24.023	1153.229	911.395
326.241	24.143	1152.936	911.699
327.256	24.175	1151.918	910.974
328.270	24.182	1151.084	910.271
329.285	24.092	1150.172	909.011
330.300	24.150	1149.157	908.423
331.314	24.158	1148.564	907.916
332.329	24.222	1147.615	907.408
333.343	24.136	1146.780	906.233
334.358	24.280	1145.934	906.217
335.373	24.266	1145.470	905.699
336.387	24.351	1144.675	905.418
337.402	24.388	1144.281	905.216
338.416	24.289	1143.590	904.089
339.431	24.301	1142.816	903.454
340.446	24.407	1141.900	903.189
341.460	24.413	1141.140	902.540
342.475	24.316	1140.704	901.625
343.489	24.283	1140.013	900.830
344.504	24.445	1138.696	900.530
345.519	24.391	1138.251	899.825
346.533	24.477	1137.229	899.371
347.548	24.456	1136.617	898.700
348.562	24.402	1136.040	897.890
349.577	24.408	1135.414	897.351
350.592	24.304	1134.763	896.233
351.606	24.335	1134.015	895.719
352.621	24.451	1133.148	895.533
353.635	24.393	1132.689	894.803
354.650	24.546	1131.782	894.774
355.665	24.417	1131.734	894.011
356.679	24.570	1130.659	893.848
357.694	24.607	1129.972	893.411
358.708	24.543	1129.668	892.771
359.723	24.508	1128.662	891.721
360.738	24.400	1128.418	890.910
361.752	24.549	1127.699	891.008
362.767	24.478	1127.323	890.276
363.781	24.627	1126.699	890.450
364.796	24.576	1125.798	889.402
365.810	24.514	1125.646	888.899
366.825	24.688	1124.880	889.080
367.840	24.685	1124.290	888.519
368.854	24.633	1124.183	888.097
369.869	24.673	1123.214	887.452
370.883	24.613	1121.998	886.116
371.898	24.748	1121.360	886.203
372.913	24.683	1121.245	885.710
373.927	24.628	1120.771	884.986
374.942	24.711	1119.797	884.549
375.956	24.731	1119.316	884.189
376.971	24.658	1119.272	883.715
377.986	24.741	1118.634	883.541
379.000	24.690	1118.225	882.889
380.015	24.841	1117.386	882.896
381.029	24.780	1116.710	881.983
382.044	24.780	1115.922	881.283
383.059	24.858	1115.434	881.203
384.073	24.839	1114.456	880.259
385.088	24.834	1113.729	879.580
386.102	24.864	1112.779	878.902
387.117	24.835	1112.085	878.132
388.132	24.820	1111.262	877.330
389.146	24.960	1110.143	877.054
390.161	24.869	1109.774	876.240
391.175	24.849	1109.281	875.676
392.190	24.887	1108.729	875.351
393.205	24.945	1108.016	874.992
394.219	24.878	1107.240	873.976
395.234	25.074	1106.194	874.026
396.248	24.949	1105.438	872.741
397.263	24.861	1104.876	871.797
398.278	24.932	1104.181	871.515
399.292	25.024	1103.724	871.526
400.307	24.950	1103.151	870.635
401.321	25.013	1102.563	870.400
402.336	24.959	1101.884	869.523
403.350	24.994	1101.203	869.080
404.365	24.987	1100.718	868.584
405.380	25.041	1099.694	867.965
406.394	25.039	1099.183	867.471
407.409	25.193	1097.911	867.140
408.423	25.258	1097.067	866.708
409.438	25.310	1096.428	866.379
410.453	25.122	1096.268	865.266
411.467	25.105	1095.865	864.789
412.482	25.136	1094.679	863.926
413.496	25.142	1094.232	863.528
414.511	25.151	1093.728	863.096
415.526	25.214	1093.068	862.804
416.540	25.178	1092.863	862.390
417.555	25.264	1092.129	862.148
418.569	25.229	1091.867	861.699
419.584	25.304	1090.651	861.021
420.599	25.362	1090.681	861.245
421.613	147.912	1403.792	1798.092
422.628	136.844	1449.377	1798.191
