DTS Sentinel unit serial number:	SN413079Multiplexer serial number:	ORYXHardware model number:	OX4-SRSoftware version number:	ORYX F/W v4.00 Oryx Data Collector v3.7.2.0data status	okinstallation	princeton_trtdifferential loss correction	single-endedforward channel	channel 2reverse channel	N/Adate	2019/09/12time	05:53:11forward acquisition time	60.00reverse acquisition time	0.00gamma	496.2192k internal	0.2325k external	0.2325temperature offset calibration	1.0059default loss term (dB/km)	0.3790temperature slope calibration	1.0000multiplexer offset coefficient	1.0000multiplexer slope coefficient	1.0000fibre end	0.00T internal ref (°C)	32.06T ext. ref 1 (°C)	1.56T ext. ref 2 (°C)	27.49length (m)	temperature (°C)	Stokes	anti-Stokes-747.200	-52.679	0.458	0.213
-746.185	-84.530	-0.120	0.038
-745.171	-78.863	-0.289	0.099
-744.156	109.185	-0.178	0.215
-743.142	99.702	-0.153	-0.179
-742.127	631.106	0.149	0.382
-741.112	-68.314	0.148	0.058
-740.098	-12.265	0.225	0.148
-739.083	-50.311	0.361	-0.172
-738.069	-200.000	-0.041	0.294
-737.054	192.297	0.048	-0.073
-736.039	216.129	0.127	-0.203
-735.025	-74.585	0.291	-0.106
-734.010	800.000	-0.114	0.352
-732.996	-75.193	-0.162	-0.058
-731.981	-200.000	0.019	0.428
-730.966	-93.437	-0.126	-0.035
-729.952	-42.834	-0.240	0.123
-728.937	-200.000	0.010	-0.121
-727.923	386.866	-0.033	0.068
-726.908	-71.082	-0.243	-0.092
-725.894	166.175	-0.196	-0.280
-724.879	-200.000	0.038	0.274
-723.864	800.000	0.139	0.397
-722.850	800.000	-0.061	0.266
-721.835	332.845	0.129	0.251
-720.821	21.590	-0.210	0.172
-719.806	-26.376	0.272	-0.161
-718.791	187.200	0.030	-0.045
-717.777	-200.000	0.013	-0.243
-716.762	301.417	0.202	-0.375
-715.748	-200.000	-0.035	-0.371
-714.733	-37.382	-0.146	0.079
-713.718	98.153	-0.030	-0.035
-712.704	83.288	0.099	-0.109
-711.689	171.429	0.242	-0.350
-710.675	243.542	-0.080	0.135
-709.660	56.764	0.147	-0.144
-708.645	-3.507	0.277	0.194
-707.631	800.000	-0.107	0.373
-706.616	-200.000	-0.008	-0.063
-705.602	364.741	0.062	0.127
-704.587	-149.200	0.217	-0.018
-703.572	-200.000	-0.017	-0.086
-702.558	800.000	0.023	0.097
-701.543	89.578	0.171	0.192
-700.529	179.269	-0.132	-0.194
-699.514	252.325	0.058	-0.099
-698.499	-200.000	-0.023	0.118
-697.485	217.891	-0.046	-0.073
-696.470	103.879	0.147	-0.174
-695.456	-46.889	0.201	0.099
-694.441	-101.637	0.178	-0.043
-693.426	-8.861	0.149	0.101
-692.412	658.336	-0.077	0.200
-691.397	-200.000	-0.046	0.386
-690.383	-200.000	-0.055	-0.251
-689.368	-37.829	0.213	0.114
-688.354	169.892	-0.048	0.069
-687.339	46.164	-0.206	-0.192
-686.324	800.000	0.059	0.189
-685.310	-200.000	0.007	0.098
-684.295	-61.460	-0.158	-0.067
-683.281	-154.577	0.399	0.027
-682.266	-95.418	-0.092	-0.025
-681.251	-200.000	0.027	0.131
-680.237	-17.044	0.342	0.217
-679.222	-65.636	0.208	0.084
-678.208	-20.506	-0.310	-0.192
-677.193	32.980	-0.184	0.160
-676.178	-174.637	0.254	0.007
-675.164	-176.663	-0.342	-0.009
-674.149	-74.146	-0.255	-0.093
-673.135	236.249	-0.085	0.142
-672.120	-23.763	-0.153	0.092
-671.105	-104.114	0.251	0.059
-670.091	485.544	-0.111	0.254
-669.076	548.604	0.055	-0.133
-668.062	-132.438	0.238	-0.031
-667.047	-0.041	0.283	0.203
-666.032	494.501	0.118	-0.273
-665.018	-81.022	0.159	-0.053
-664.003	-136.643	0.336	0.039
-662.989	80.877	-0.149	-0.161
-661.974	-65.761	0.180	0.072
-660.959	-56.118	-0.211	0.094
-659.945	800.000	0.048	-0.179
-658.930	772.745	-0.105	-0.288
-657.916	-101.568	-0.242	0.059
-656.901	254.933	0.133	-0.229
-655.886	-160.162	0.481	0.026
-654.872	60.167	-0.064	0.063
-653.857	-40.048	-0.115	0.060
-652.843	-73.227	-0.301	-0.111
-651.828	-167.942	-0.139	-0.005
-650.814	33.932	-0.156	-0.136
-649.799	-103.623	0.183	-0.043
-648.784	800.000	0.031	-0.117
-647.770	-200.000	0.039	-0.182
-646.755	45.978	-0.071	0.066
-645.741	-200.000	-0.009	-0.114
-644.726	4.321	-0.173	0.128
-643.711	-170.710	0.205	-0.007
-642.697	513.987	-0.050	-0.118
-641.682	-19.441	0.253	-0.158
-640.668	-112.074	-0.277	0.056
-639.653	65.533	0.208	-0.212
-638.638	-200.000	-0.000	0.039
-637.624	-200.000	0.019	-0.308
-636.609	-3.493	0.340	-0.238
-635.595	-44.280	-0.072	0.036
-634.580	82.348	0.095	0.103
-633.565	426.627	-0.036	0.078
-632.551	800.000	-0.063	0.224
-631.536	120.986	0.030	0.037
-630.522	-200.000	-0.023	-0.257
-629.507	330.418	0.159	-0.308
-628.492	-18.976	0.243	-0.152
-627.478	-3.074	0.286	-0.200
-626.463	800.000	-0.035	0.099
-625.449	391.974	0.146	0.305
-624.434	-90.954	0.165	0.048
-623.419	-200.000	-0.019	0.202
-622.405	-58.368	-0.171	0.075
-621.390	-200.000	-0.005	0.036
-620.376	-200.000	-0.055	0.312
-619.361	800.000	0.022	-0.088
-618.346	-98.670	-0.322	0.082
-617.332	-200.000	-0.049	-0.263
-616.317	153.110	-0.099	-0.137
-615.303	-114.752	-0.106	-0.020
-614.288	251.748	-0.099	0.170
-613.273	282.936	0.130	-0.234
-612.259	-35.374	-0.198	0.108
-611.244	-200.000	0.007	-0.088
-610.230	-12.466	0.013	0.009
-609.215	-126.741	0.124	0.018
-608.201	259.946	0.167	0.290
-607.186	-200.000	0.021	-0.307
-606.171	-91.154	0.451	0.130
-605.157	-0.094	0.146	-0.104
-604.142	284.818	0.131	0.236
-603.128	800.000	-0.122	-0.351
-602.113	-67.971	0.119	0.047
-601.098	-87.536	-0.154	-0.047
-600.084	-153.636	0.022	-0.002
-599.069	261.652	-0.101	-0.176
-598.055	800.000	-0.024	0.067
-597.040	-143.440	0.163	-0.016
-596.025	-85.067	0.083	0.026
-595.011	-65.384	-0.431	0.174
-593.996	800.000	-0.080	0.238
-592.982	165.558	-0.087	0.124
-591.967	598.593	0.079	0.197
-590.952	-192.864	-0.539	-0.005
-589.938	315.919	-0.104	-0.196
-588.923	20.683	-0.200	0.162
-587.909	59.271	-0.126	0.125
-586.894	-200.000	0.012	0.254
-585.879	-200.000	-0.435	-0.000
-584.865	-112.888	0.236	-0.047
-583.850	-200.000	0.040	-0.244
-582.836	-103.594	0.302	0.071
-581.821	189.698	-0.211	0.317
-580.806	-17.325	0.151	-0.095
-579.792	475.768	-0.102	-0.231
-578.777	-200.000	0.030	0.179
-577.763	-15.888	0.066	-0.042
-576.748	-200.000	-0.032	-0.209
-575.733	800.000	-0.069	0.303
-574.719	546.310	0.086	-0.206
-573.704	-200.000	0.007	-0.061
-572.690	-200.000	0.038	0.287
-571.675	-49.363	-0.196	-0.094
-570.661	800.000	0.041	0.114
-569.646	-75.089	0.308	-0.111
-568.631	411.505	-0.015	0.033
-567.617	-143.658	-0.163	-0.015
-566.602	34.687	-0.026	-0.022
-565.588	-200.000	-0.031	0.138
-564.573	-124.927	0.223	0.034
-563.558	422.445	0.126	-0.271
-562.544	23.025	-0.148	-0.122
-561.529	-200.000	-0.011	-0.307
-560.515	14.300	0.312	-0.244
-559.500	4.621	-0.286	-0.211
-558.485	683.134	-0.113	0.294
-557.471	-179.971	0.178	0.004
-556.456	-200.000	-0.013	-0.099
-555.442	177.170	0.102	0.149
-554.427	-200.000	-0.007	-0.078
-553.412	-186.866	-0.326	0.005
-552.398	-200.000	0.018	-0.332
-551.383	-110.954	0.332	-0.068
-550.369	-12.258	-0.126	-0.083
-549.354	-42.828	-0.286	0.146
-548.339	-8.123	0.190	0.128
-547.325	-200.000	0.013	0.118
-546.310	221.380	0.066	0.107
-545.296	-73.212	0.190	-0.070
-544.281	-200.000	0.030	-0.154
-543.266	427.721	-0.122	0.264
-542.252	186.265	0.070	0.104
-541.237	800.000	0.102	-0.379
-540.223	20.051	-0.166	-0.134
-539.208	800.000	0.006	0.023
-538.193	-121.894	0.092	-0.015
-537.179	384.928	-0.064	0.133
-536.164	-200.000	-0.002	0.278
-535.150	-24.965	0.139	0.082
-534.135	-35.019	0.090	0.049
-533.121	59.473	-0.216	-0.214
-532.106	-29.359	-0.128	0.073
-531.091	9.289	-0.150	0.114
-530.077	-30.713	0.054	-0.031
-529.062	-84.819	-0.386	-0.121
-528.048	-53.338	-0.227	-0.104
-527.033	800.000	0.076	-0.334
-526.018	-138.262	0.200	0.022
-525.004	508.984	-0.042	-0.097
-523.989	55.675	-0.277	-0.269
-522.975	-200.000	-0.037	0.208
-521.960	-37.640	-0.183	-0.098
-520.945	-179.182	-0.182	-0.004
-519.931	-25.520	0.031	-0.019
-518.916	-200.000	-0.008	0.117
-517.902	629.499	-0.114	0.289
-516.887	-26.066	0.367	-0.216
-515.872	320.401	0.050	-0.096
-514.858	-42.946	-0.260	-0.132
-513.843	512.176	-0.098	-0.228
-512.829	-70.773	-0.154	-0.058
-511.814	22.475	-0.291	-0.238
-510.799	737.735	-0.079	0.212
-509.785	-87.525	-0.165	-0.050
-508.770	387.121	-0.129	0.266
-507.756	35.828	0.216	0.190
-506.741	-200.000	0.046	-0.384
-505.726	800.000	0.017	0.064
-504.712	-155.066	0.073	-0.005
-503.697	-200.000	-0.049	-0.362
-502.683	-109.421	-0.372	-0.079
-501.668	-73.204	0.197	0.072
-500.653	270.487	-0.083	-0.145
-499.639	-200.000	0.017	0.270
-498.624	-200.000	-0.011	-0.099
-497.610	307.317	0.176	-0.328
-496.595	-181.541	-0.257	0.005
-495.581	-27.510	-0.257	-0.149
-494.566	-88.981	-0.040	0.012
-493.551	66.915	-0.173	-0.176
-492.537	299.226	0.147	0.270
-491.522	43.036	-0.074	0.068
-490.508	7.860	0.069	0.051
-489.493	-157.128	-0.352	-0.021
-488.478	800.000	0.065	-0.265
-487.464	200.230	-0.174	0.266
-486.449	92.281	-0.209	-0.235
-485.435	-200.000	0.002	-0.303
-484.420	800.000	0.035	-0.150
-483.405	341.793	0.098	-0.192
-482.391	-22.038	-0.246	0.149
-481.376	154.660	0.268	0.367
-480.362	-185.415	-0.168	-0.003
-479.347	365.295	0.062	-0.125
-478.332	-65.779	0.138	-0.055
-477.318	-74.224	-0.076	0.027
-476.303	800.000	0.107	0.408
-475.289	-200.000	-0.059	0.313
-474.274	62.555	-0.384	-0.383
-473.259	-200.000	0.019	-0.192
-472.245	-200.000	0.026	0.312
-471.230	-200.000	0.055	0.279
-470.216	84.765	0.312	-0.341
-469.201	-134.487	-0.279	0.034
-468.186	63.530	-0.023	-0.023
-467.172	-200.000	0.053	0.314
-466.157	12.833	0.204	0.157
-465.143	-9.915	-0.032	-0.021
-464.128	-200.000	-0.052	0.386
-463.113	-200.000	-0.011	-0.065
-462.099	-156.337	0.374	0.023
-461.084	34.170	0.168	0.147
-460.070	-200.000	-0.001	-0.126
-459.055	-200.000	-0.015	0.255
-458.040	800.000	0.093	0.264
-457.026	-115.908	-0.234	-0.044
-456.011	-61.704	-0.115	0.048
-454.997	236.975	0.227	0.376
-453.982	-200.000	-0.010	0.053
-452.968	800.000	0.065	-0.215
-451.953	-200.000	-0.005	0.148
-450.938	-200.000	-0.028	-0.200
-449.924	-73.498	-0.178	0.065
-448.909	-200.000	-0.018	0.161
-447.895	120.314	0.019	0.024
-446.880	199.031	-0.097	0.149
-445.865	-200.000	-0.015	-0.115
-444.851	-200.000	0.023	-0.241
-443.836	-200.000	-0.004	0.078
-442.822	91.022	-0.168	0.188
-441.807	622.492	-0.047	0.117
-440.792	800.000	0.085	-0.289
-439.778	17.204	0.296	0.234
-438.763	105.124	-0.143	-0.169
-437.749	299.487	-0.113	-0.208
-436.734	-200.000	-0.028	-0.184
-435.719	96.733	0.213	-0.244
-434.705	800.000	0.057	0.205
-433.690	-200.000	-0.058	-0.364
-432.676	-200.000	-0.023	0.106
-431.661	380.081	-0.070	0.143
-430.646	-200.000	-0.059	0.352
-429.632	-99.040	0.163	-0.041
-428.617	18.102	0.238	-0.189
-427.603	-200.000	-0.013	-0.115
-426.588	800.000	-0.086	-0.287
-425.573	10.070	0.101	0.076
-424.559	48.428	-0.034	-0.032
-423.544	99.412	-0.097	-0.112
-422.530	-17.501	-0.217	-0.136
-421.515	208.444	-0.079	0.123
-420.500	-108.651	-0.229	0.049
-419.486	-200.000	0.022	-0.249
-418.471	-141.356	-0.169	-0.017
-417.457	81.523	-0.229	0.247
-416.442	72.945	0.151	0.157
-415.428	-96.521	-0.055	-0.015
-414.413	18.071	-0.128	0.102
-413.398	264.477	-0.069	-0.119
-412.384	67.174	-0.082	-0.084
-411.369	-130.624	-0.353	0.047
-410.355	101.952	0.090	0.104
-409.340	8.981	0.194	0.146
-408.325	334.071	0.056	0.107
-407.311	-118.421	0.278	0.049
-406.296	800.000	-0.021	-0.068
-405.282	475.483	0.082	0.185
-404.267	91.628	0.101	-0.113
-403.252	800.000	0.088	0.332
-402.238	446.883	0.127	-0.278
-401.223	800.000	0.071	-0.211
-400.209	18.942	0.132	0.105
-399.194	317.393	-0.059	-0.111
-398.179	-92.731	-0.207	0.058
-397.165	-90.542	0.194	-0.056
-396.150	-35.991	-0.298	0.160
-395.136	568.541	-0.109	0.263
-394.121	-41.761	-0.231	-0.118
-393.106	168.142	-0.029	-0.041
-392.092	219.816	0.252	0.402
-391.077	800.000	0.069	0.299
-390.063	149.372	-0.068	-0.092
-389.048	-91.755	-0.159	0.045
-388.033	21.748	0.106	0.086
-387.019	271.337	0.084	-0.147
-386.004	-18.692	-0.230	-0.143
-384.990	163.315	-0.168	0.234
-383.975	-116.072	0.358	-0.066
-382.960	800.000	0.104	0.332
-381.946	-200.000	-0.057	0.401
-380.931	68.085	0.136	0.138
-379.917	-120.662	-0.337	0.057
-378.902	260.270	-0.103	-0.177
-377.888	260.081	-0.218	-0.374
-376.873	800.000	0.093	0.382
-375.858	7.231	-0.041	0.031
-374.844	41.619	0.125	0.112
-373.829	-21.053	-0.284	0.173
-372.815	-200.000	-0.023	0.276
-371.800	465.005	-0.023	0.052
-370.785	-67.691	-0.146	-0.057
-369.771	-163.741	0.079	0.004
-368.756	-78.304	0.278	0.095
-367.742	95.662	-0.057	-0.065
-366.727	-200.000	0.006	0.034
-365.712	-178.393	0.288	-0.007
-364.698	-64.355	-0.195	0.079
-363.683	-63.844	-0.262	0.107
-362.669	-113.683	0.146	0.028
-361.654	6.828	0.159	0.117
-360.639	4.299	-0.277	-0.202
-359.625	-49.707	0.162	-0.076
-358.610	-119.013	-0.271	0.047
-357.596	193.924	-0.153	-0.230
-356.581	-52.572	0.074	0.034
-355.566	194.753	0.086	-0.130
-354.552	178.475	0.066	-0.095
-353.537	-14.565	0.038	0.024
-352.523	639.055	0.148	0.375
-351.508	-80.645	-0.062	-0.021
-350.493	-200.000	-0.070	0.478
-349.479	800.000	0.051	-0.193
-348.464	-200.000	-0.018	-0.188
-347.450	800.000	0.042	-0.133
-346.435	800.000	-0.051	-0.218
-345.420	8.079	0.081	-0.061
-344.406	-200.000	0.039	0.000
-343.391	-54.105	0.013	-0.006
-342.377	107.303	0.075	-0.088
-341.362	-200.000	-0.008	0.151
-340.348	525.239	0.154	0.359
-339.333	418.744	-0.141	0.300
-338.318	53.700	0.120	-0.114
-337.304	-184.191	-0.270	0.004
-336.289	72.272	0.226	0.234
-335.275	-200.000	-0.053	0.241
-334.260	-117.762	0.275	0.049
-333.245	800.000	0.071	-0.279
-332.231	-200.000	0.026	0.221
-331.216	-200.000	0.022	-0.153
-330.202	-149.307	0.211	-0.017
-329.187	-200.000	-0.034	0.184
-328.172	80.672	0.126	0.135
-327.158	8.316	0.248	-0.185
-326.143	800.000	-0.072	-0.260
-325.129	-21.013	-0.106	0.064
-324.114	-200.000	-0.031	-0.409
-323.099	-200.000	-0.030	-0.160
-322.085	-172.652	-0.178	-0.006
-321.070	800.000	0.081	-0.300
-320.056	-200.000	-0.093	-0.406
-319.041	143.134	0.153	0.202
-318.026	-12.864	-0.049	-0.031
-317.012	-84.866	0.132	0.041
-315.997	16.115	0.012	0.010
-314.983	-92.766	-0.156	0.043
-313.968	-32.599	0.065	0.036
-312.953	43.650	-0.160	0.145
-311.939	-143.440	0.121	0.012
-310.924	-144.737	-0.086	-0.008
-309.910	800.000	0.044	-0.126
-308.895	432.113	0.194	0.416
-307.880	286.923	0.099	0.177
-306.866	-141.507	-0.342	-0.034
-305.851	-92.880	-0.260	-0.072
-304.837	-13.781	-0.043	-0.027
-303.822	-3.135	-0.185	0.128
-302.807	-200.000	-0.007	0.056
-301.793	-85.021	0.499	0.155
-300.778	70.381	-0.111	-0.113
-299.764	-200.000	0.019	-0.272
-298.749	-123.134	0.289	-0.046
-297.735	-47.884	-0.381	-0.183
-296.720	401.890	0.037	-0.077
-295.705	-109.871	0.297	0.062
-294.691	36.593	-0.214	0.187
-293.676	-11.484	0.261	-0.170
-292.662	-98.624	0.178	0.045
-291.647	-40.457	-0.167	-0.086
-290.632	-32.648	0.094	0.052
-289.618	-25.466	0.090	-0.053
-288.603	206.684	0.047	0.073
-287.589	-87.147	-0.282	-0.085
-286.574	111.895	-0.113	-0.136
-285.559	403.465	0.119	0.248
-284.545	-13.953	-0.086	-0.055
-283.530	281.425	0.145	-0.258
-282.516	-54.537	-0.142	-0.064
-281.501	275.653	-0.069	-0.121
-280.486	-120.011	0.455	0.077
-279.472	800.000	-0.059	0.238
-278.457	48.969	-0.178	0.165
-277.443	155.972	-0.160	-0.219
-276.428	117.248	-0.092	-0.112
-275.413	-122.187	-0.282	-0.046
-274.399	228.458	-0.106	0.171
-273.384	182.537	0.170	0.249
-272.370	12.080	0.154	-0.118
-271.355	-200.000	0.003	-0.274
-270.340	270.889	-0.184	-0.321
-269.326	800.000	-0.064	-0.198
-268.311	800.000	0.060	0.188
-267.297	-175.024	0.335	-0.009
-266.282	326.202	0.128	0.242
-265.267	-152.586	0.078	-0.006
-264.253	30.555	0.104	-0.088
-263.238	-76.355	0.211	-0.074
-262.224	84.266	-0.053	0.058
-261.209	630.140	-0.111	-0.278
-260.195	-108.440	-0.164	0.035
-259.180	19.541	0.140	-0.112
-258.165	-94.383	0.259	0.070
-257.151	-129.181	-0.193	0.027
-256.136	387.491	-0.102	0.209
-255.122	66.378	-0.032	-0.033
-254.107	-33.228	-0.296	0.162
-253.092	-21.439	0.214	-0.129
-252.078	-142.466	-0.166	-0.016
-251.063	65.956	-0.163	-0.164
-250.049	57.071	0.134	0.130
-249.034	-37.035	0.461	-0.245
-248.019	800.000	0.026	-0.088
-247.005	201.369	0.192	-0.293
-245.990	800.000	-0.068	0.236
-244.976	215.768	-0.168	0.264
-243.961	-14.455	-0.041	-0.026
-242.946	-14.480	0.194	-0.124
-241.932	-143.818	0.140	-0.013
-240.917	-35.374	-0.106	0.057
-239.903	-200.000	0.002	0.148
-238.888	62.178	0.234	-0.231
-237.873	-152.737	-0.207	-0.015
-236.859	-140.521	-0.224	-0.023
-235.844	190.657	-0.143	0.213
-234.830	800.000	0.053	-0.190
-233.815	800.000	-0.136	0.404
-232.800	-50.698	0.215	-0.100
-231.786	-23.091	0.145	0.086
-230.771	47.895	-0.027	-0.025
-229.757	14.161	-0.144	0.111
-228.742	-102.373	0.208	-0.049
-227.727	-200.000	0.000	-0.103
-226.713	320.110	-0.153	-0.288
-225.698	6.074	-0.209	-0.153
-224.684	-66.537	0.339	-0.133
-223.669	-200.000	0.050	0.218
-222.655	151.113	-0.150	-0.202
-221.640	158.374	0.193	-0.264
-220.625	-200.000	0.018	-0.125
-219.611	88.491	0.216	0.238
-218.596	-200.000	0.010	-0.245
-217.582	41.529	0.146	-0.131
-216.567	-123.770	-0.040	-0.006
-215.552	-126.260	0.181	-0.027
-214.538	159.363	0.023	0.031
-213.523	-0.504	-0.279	-0.196
-212.509	-96.118	-0.096	0.025
-211.494	-117.249	-0.224	-0.040
-210.479	-200.000	-0.034	-0.254
-209.465	-167.039	0.051	0.002
-208.450	93.091	0.065	-0.073
-207.436	-200.000	-0.025	0.447
-206.421	-53.227	0.214	-0.097
-205.406	65.606	0.111	-0.111
-204.392	-151.978	0.291	-0.021
-203.377	25.168	-0.137	-0.112
-202.363	-200.000	0.002	-0.061
-201.348	800.000	-0.019	-0.083
-200.333	-200.000	0.001	-0.186
-199.319	800.000	-0.060	-0.206
-198.304	800.000	0.047	0.187
-197.290	-200.000	-0.026	-0.196
-196.275	-5.121	-0.203	-0.138
-195.260	-119.718	0.133	-0.023
-194.246	203.404	0.009	0.014
-193.231	-100.889	0.316	0.077
-192.217	-122.971	-0.480	0.076
-191.202	-200.000	-0.012	-0.183
-190.187	13.567	0.381	-0.292
-189.173	-68.452	0.171	0.066
-188.158	145.368	-0.205	0.271
-187.144	-107.961	0.191	-0.041
-186.129	-1.697	0.328	0.228
-185.114	-164.294	-0.049	0.002
-184.100	57.274	-0.238	0.229
-183.085	800.000	-0.004	0.012
-182.071	-35.981	0.360	-0.192
-181.056	369.953	0.053	0.105
-180.042	83.936	-0.332	0.357
-179.027	-112.025	0.320	0.064
-178.012	-200.000	-0.018	0.282
-176.998	-27.617	-0.159	-0.091
-175.983	-64.235	0.116	0.047
-174.969	-183.696	0.167	-0.003
-173.954	740.202	-0.046	0.123
-172.939	800.000	-0.081	0.270
-171.925	-9.204	-0.209	0.138
-170.910	-131.393	0.316	-0.041
-169.896	-17.919	-0.212	-0.131
-168.881	-63.893	0.237	0.096
-167.866	37.473	-0.404	0.353
-166.852	800.000	0.103	0.373
-165.837	-10.638	0.279	0.182
-164.823	800.000	0.088	0.288
-163.808	-46.120	0.142	-0.069
-162.793	99.388	-0.073	-0.084
-161.779	-132.402	-0.368	-0.047
-160.764	400.605	0.173	0.358
-159.750	171.385	-0.101	-0.143
-158.735	-200.000	0.026	-0.386
-157.720	-17.069	0.251	0.156
-156.706	12.675	0.140	0.107
-155.691	-25.409	-0.084	0.049
-154.677	85.493	0.172	-0.186
-153.662	159.610	0.126	-0.173
-152.647	45.390	-0.142	-0.129
-151.633	-120.289	0.215	0.036
-150.618	280.951	-0.180	0.317
-149.604	-100.894	-0.196	-0.048
-148.589	123.056	-0.267	-0.330
-147.574	-94.821	0.321	-0.086
-146.560	18.338	-0.205	-0.162
-145.545	-111.414	-0.227	-0.046
-144.531	122.345	-0.174	0.214
-143.516	-149.901	0.324	-0.025
-142.502	19.091	-0.106	0.084
-141.487	-200.000	-0.011	-0.104
-140.472	664.336	0.027	0.069
-139.458	800.000	0.134	-0.411
-138.443	-200.000	0.005	0.172
-137.429	-24.684	0.106	-0.062
-136.414	-200.000	-0.003	0.312
-135.399	-103.321	0.104	-0.024
-134.385	587.474	-0.185	-0.449
-133.370	224.516	0.158	-0.252
-132.356	-13.833	0.288	-0.184
-131.341	-200.000	-0.008	-0.089
-130.326	719.659	-0.065	-0.170
-129.312	62.779	-0.159	-0.157
-128.297	-125.359	-0.419	-0.063
-127.283	-200.000	-0.003	0.228
-126.268	-200.000	0.028	-0.158
-125.253	800.000	0.055	0.210
-124.239	800.000	-0.140	0.520
-123.224	72.087	-0.145	0.148
-122.210	-17.365	0.058	0.036
-121.195	-140.140	0.306	0.032
-120.180	-33.734	-0.180	-0.098
-119.166	-200.000	0.066	0.383
-118.151	-122.794	0.214	0.034
-117.137	-53.559	0.260	-0.117
-116.122	60.888	-0.047	-0.046
-115.107	458.223	0.054	-0.118
-114.093	367.295	0.111	-0.221
-113.078	-99.357	-0.138	-0.034
-112.064	-141.836	0.337	0.033
-111.049	16.810	-0.101	0.079
-110.034	37.185	0.171	0.149
-109.020	284.751	-0.216	0.383
-108.005	611.038	0.117	0.287
-106.991	-104.800	-0.049	-0.011
-105.976	100.225	-0.019	-0.022
-104.962	-120.204	0.273	-0.046
-103.947	216.215	-0.111	-0.173
-102.932	217.066	-0.030	-0.048
-101.918	800.000	0.051	0.176
-100.903	36.776	-0.121	-0.106
-99.889	427.707	-0.029	-0.062
-98.874	-55.836	0.412	-0.181
-97.859	-200.000	0.029	-0.217
-96.845	-200.000	0.107	-0.465
-95.830	411.470	0.186	-0.389
-94.816	62.442	0.081	-0.080
-93.801	26.231	0.198	-0.163
-92.786	152.793	0.121	0.163
-91.772	730.822	0.084	0.222
-90.757	-169.574	0.181	0.006
-89.743	-41.221	-0.098	-0.050
-88.728	-64.647	-0.161	0.064
-87.713	-66.759	0.371	-0.144
-86.699	-172.178	-0.050	0.002
-85.684	-63.434	0.215	0.087
-84.670	-76.391	0.102	-0.035
-83.655	474.144	0.114	0.253
-82.640	8.948	0.061	0.045
-81.626	800.000	-0.059	0.220
-80.611	-160.416	-0.088	-0.005
-79.597	-11.937	-0.150	0.096
-78.582	81.307	-0.030	0.032
-77.567	173.538	0.171	0.242
-76.553	698.244	-0.073	0.188
-75.538	-60.994	-0.211	0.088
-74.524	97.898	0.168	-0.190
-73.509	49.472	0.136	-0.126
-72.494	-134.362	-0.305	0.037
-71.480	-26.049	-0.240	-0.139
-70.465	9.344	-0.174	0.130
-69.451	236.363	0.156	0.254
-68.436	60.122	0.225	0.219
-67.422	-140.693	0.155	0.016
-66.407	800.000	-0.046	0.155
-65.392	-132.290	0.570	0.072
-64.378	144.420	0.212	0.279
-63.363	-187.463	-0.395	0.005
-62.349	-92.206	-0.181	0.050
-61.334	154.092	-0.702	-0.947
-60.319	737.585	0.258	0.679
-59.305	721.675	-0.368	-0.963
-58.290	697.876	0.287	0.741
-57.276	262.084	0.871	1.483
-56.261	-200.000	96.090	596.865
-55.246	566.895	1372.283	3271.655
-54.232	160.677	2557.642	3506.973
-53.217	106.789	2268.761	2644.894
-52.203	41.500	1896.419	1685.941
-51.188	35.350	1686.201	1452.602
-50.173	32.668	1641.966	1394.622
-49.159	50.093	1688.668	1565.338
-48.144	51.812	1704.679	1593.001
-47.130	35.009	1665.229	1431.755
-46.115	32.212	1651.289	1398.925
-45.100	32.004	1646.434	1393.215
-44.086	31.989	1643.746	1390.775
-43.071	31.976	1641.355	1388.595
-42.057	32.007	1638.191	1386.096
-41.042	31.959	1636.935	1384.621
-40.027	31.980	1635.376	1383.401
-39.013	31.927	1633.226	1381.141
-37.998	31.890	1631.335	1379.217
-36.984	31.903	1630.242	1378.333
-35.969	31.984	1628.901	1377.740
-34.954	32.115	1626.860	1376.920
-33.940	32.076	1624.873	1374.895
-32.925	32.039	1623.520	1373.427
-31.911	32.068	1621.871	1372.186
-30.896	32.033	1620.072	1370.355
-29.881	31.982	1618.641	1368.720
-28.867	32.070	1616.321	1367.343
-27.852	32.089	1614.925	1366.245
-26.838	32.065	1613.503	1364.819
-25.823	32.091	1612.092	1363.758
-24.809	32.061	1611.504	1362.990
-23.794	32.126	1609.344	1361.576
-22.779	32.131	1607.789	1360.243
-21.765	32.082	1606.553	1358.789
-20.750	32.060	1604.933	1357.209
-19.736	32.085	1603.430	1356.065
-18.721	32.135	1602.196	1355.328
-17.706	32.074	1600.553	1353.440
-16.692	32.165	1598.821	1352.576
-15.677	32.109	1597.619	1351.109
-14.663	32.138	1596.224	1350.081
-13.648	32.032	1595.518	1348.667
-12.633	32.033	1593.974	1347.314
-11.619	32.075	1592.009	1345.900
-10.604	32.181	1590.095	1344.993
-9.590	32.189	1588.875	1343.961
-8.575	32.124	1587.742	1342.489
-7.560	32.169	1586.656	1341.839
-6.546	32.023	1585.740	1339.967
-5.531	32.037	1584.657	1339.100
-4.517	32.059	1583.355	1338.104
-3.502	32.163	1581.765	1337.441
-2.487	32.183	1580.530	1336.490
-1.473	31.893	1569.159	1324.770
-0.458	29.369	1550.116	1291.005
0.556	25.830	1551.146	1261.523
1.571	23.581	1574.667	1264.529
2.586	23.199	1587.929	1272.323
3.600	20.328	1533.567	1208.697
4.615	10.851	1421.859	1059.080
5.629	2.926	1356.633	960.978
6.644	1.763	1348.867	948.153
7.659	1.513	1347.636	945.650
8.673	1.496	1346.396	944.588
9.688	1.469	1344.031	942.682
10.702	1.115	1341.340	938.521
11.717	4.561	1348.763	965.050
12.731	14.701	1367.478	1041.921
13.746	23.294	1382.030	1106.861
14.761	25.801	1385.178	1124.968
15.775	26.174	1385.544	1127.494
16.790	26.236	1384.503	1126.931
17.804	26.284	1384.255	1126.930
18.819	26.472	1383.985	1127.782
19.834	26.592	1383.351	1127.918
20.848	26.587	1382.975	1127.480
21.863	26.640	1382.142	1127.031
22.877	26.590	1381.200	1125.851
23.892	26.601	1380.138	1124.955
24.907	26.603	1379.614	1124.441
25.921	26.612	1378.638	1123.601
26.936	26.655	1377.220	1122.612
27.950	26.713	1375.958	1121.846
28.965	26.534	1375.247	1120.054
29.980	26.688	1373.475	1119.464
30.994	26.607	1372.818	1118.331
32.009	26.596	1371.684	1117.238
33.023	26.645	1370.558	1116.527
34.038	26.700	1369.323	1115.762
35.053	26.661	1368.178	1114.488
36.067	26.740	1367.208	1114.085
37.082	26.596	1366.642	1112.641
38.096	26.687	1365.357	1112.057
39.111	26.700	1364.379	1111.237
40.126	26.623	1364.463	1110.736
41.140	26.506	1363.996	1109.540
42.155	26.630	1363.582	1109.869
43.169	26.712	1363.022	1109.818
44.184	26.628	1363.336	1109.458
45.199	26.590	1363.214	1109.026
46.213	26.687	1362.484	1108.927
47.228	26.656	1361.200	1107.595
48.242	26.648	1360.062	1106.523
49.257	26.626	1358.766	1105.239
50.271	26.597	1357.165	1103.658
51.286	26.563	1355.915	1102.336
52.301	26.593	1354.690	1101.427
53.315	26.622	1353.759	1100.749
54.330	26.652	1352.956	1100.184
55.344	26.654	1351.442	1098.868
56.359	26.702	1350.383	1098.201
57.374	26.604	1350.360	1097.487
58.388	26.607	1349.308	1096.555
59.403	26.638	1348.982	1096.381
60.417	26.618	1348.494	1095.767
61.432	26.637	1347.709	1095.146
62.447	26.724	1346.713	1094.763
63.461	26.595	1345.981	1093.295
64.476	26.588	1345.192	1092.514
65.490	26.641	1343.908	1091.692
66.505	26.622	1342.010	1089.940
67.520	26.609	1341.211	1089.120
68.534	26.610	1339.815	1087.891
69.549	26.684	1338.937	1087.532
70.563	26.630	1338.217	1086.527
71.578	26.707	1336.848	1085.778
72.593	26.710	1336.221	1085.188
73.607	26.717	1335.371	1084.447
74.622	26.684	1334.852	1083.729
75.636	26.720	1334.338	1083.435
76.651	26.720	1333.378	1082.555
77.666	26.691	1332.951	1081.941
78.680	26.652	1332.516	1081.259
79.695	26.687	1331.493	1080.541
80.709	26.601	1331.344	1079.816
81.724	26.607	1330.560	1079.117
82.739	26.649	1329.215	1078.180
83.753	26.732	1327.999	1077.594
84.768	26.667	1326.888	1076.214
85.782	26.633	1326.517	1075.614
86.797	26.679	1325.175	1074.702
87.812	26.740	1324.019	1074.031
88.826	26.586	1323.641	1072.715
89.841	26.707	1322.028	1072.034
90.855	26.733	1320.831	1071.119
91.870	26.809	1319.634	1070.503
92.884	26.801	1319.283	1070.074
93.899	26.726	1318.538	1068.933
94.914	26.697	1317.400	1067.747
95.928	26.680	1317.285	1067.460
96.943	26.680	1317.046	1067.172
97.957	26.722	1315.635	1066.181
98.972	26.772	1314.883	1065.772
99.987	26.735	1313.725	1064.521
101.001	26.707	1312.567	1063.322
102.016	26.658	1312.102	1062.565
103.030	26.829	1310.908	1062.508
104.045	26.709	1310.559	1061.427
105.060	26.717	1309.436	1060.469
106.074	26.708	1308.583	1059.635
107.089	26.702	1307.741	1058.822
108.103	26.719	1306.208	1057.585
109.118	26.823	1305.013	1057.129
110.133	26.898	1304.170	1056.792
111.147	26.764	1303.568	1055.429
112.162	26.761	1302.198	1054.213
113.176	26.742	1301.260	1053.244
114.191	26.859	1300.314	1053.066
115.206	26.813	1299.069	1051.697
116.220	26.748	1298.380	1050.669
117.235	26.717	1297.388	1049.594
118.249	26.746	1296.441	1048.907
119.264	26.734	1295.669	1048.120
120.279	26.829	1295.155	1048.158
121.293	26.772	1294.173	1046.945
122.308	26.814	1293.585	1046.617
123.322	26.846	1292.761	1046.039
124.337	26.933	1291.418	1045.362
125.352	26.830	1290.928	1044.281
126.366	26.811	1290.053	1043.370
127.381	26.885	1289.074	1042.913
128.395	26.888	1288.354	1042.256
129.410	26.851	1287.338	1041.128
130.424	26.808	1286.760	1040.323
131.439	26.869	1285.794	1039.798
132.454	26.856	1284.638	1038.700
133.468	26.730	1284.444	1037.727
134.483	26.761	1284.087	1037.526
135.497	26.869	1282.979	1037.155
136.512	26.785	1282.117	1035.886
137.527	26.831	1280.871	1035.053
138.541	26.749	1279.908	1033.712
139.556	26.814	1278.360	1032.745
140.570	26.796	1277.869	1032.155
141.585	26.853	1276.483	1031.267
142.600	26.918	1274.926	1030.288
143.614	26.755	1275.191	1029.482
144.629	26.837	1273.716	1028.669
145.643	26.806	1272.554	1027.459
146.658	26.734	1271.707	1026.280
147.673	26.755	1270.644	1025.449
148.687	26.714	1270.012	1024.614
149.702	26.774	1268.805	1023.889
150.716	26.692	1267.942	1022.641
151.731	26.813	1266.384	1021.976
152.746	26.750	1265.974	1021.197
153.760	26.845	1264.695	1020.612
154.775	26.883	1263.690	1019.926
155.789	26.851	1262.726	1018.875
156.804	26.744	1262.418	1017.936
157.819	26.772	1261.275	1017.080
158.833	26.791	1260.453	1016.438
159.848	26.929	1259.574	1016.413
160.862	26.948	1258.618	1015.655
161.877	26.899	1257.849	1014.669
162.892	26.918	1257.244	1014.199
163.906	26.914	1256.871	1013.785
164.921	26.771	1256.262	1012.403
165.935	26.964	1255.236	1012.569
166.950	26.998	1254.519	1012.088
167.964	26.934	1253.914	1011.157
168.979	26.932	1252.903	1010.241
169.994	27.021	1252.271	1010.133
171.008	26.980	1251.959	1009.566
172.023	27.016	1251.250	1009.102
173.037	26.786	1251.463	1007.909
174.052	26.950	1249.759	1007.358
175.067	26.971	1248.742	1006.562
176.081	26.866	1248.449	1005.656
177.096	26.925	1247.587	1005.200
178.110	26.945	1246.673	1004.488
179.125	26.920	1245.828	1003.576
180.140	26.990	1244.593	1002.884
181.154	26.932	1243.820	1001.847
182.169	27.013	1242.330	1001.005
183.183	26.912	1241.590	999.764
184.198	26.985	1240.480	999.183
185.213	27.083	1239.443	998.801
186.227	27.061	1238.811	998.082
187.242	27.012	1238.437	997.422
188.256	27.062	1237.222	996.628
189.271	27.052	1236.113	995.592
190.286	26.931	1236.115	994.846
191.300	27.013	1234.653	994.028
192.315	26.970	1234.797	993.818
193.329	27.013	1234.450	993.690
194.344	27.086	1233.998	993.638
195.359	27.003	1233.529	992.720
196.373	26.991	1233.054	992.181
197.388	27.030	1232.201	991.621
198.402	26.983	1232.321	991.373
199.417	27.087	1231.419	991.129
200.432	27.025	1230.818	990.219
201.446	27.035	1230.638	990.038
202.461	27.088	1229.769	989.542
203.475	27.075	1228.533	988.387
204.490	27.087	1227.628	987.637
205.504	27.146	1226.796	987.205
206.519	27.091	1225.736	985.963
207.534	27.148	1225.074	985.651
208.548	27.069	1224.263	984.487
209.563	27.185	1223.501	984.411
210.577	27.176	1223.012	983.886
211.592	27.120	1221.810	982.528
212.607	27.256	1220.768	982.337
213.621	27.166	1220.617	981.644
214.636	27.198	1219.433	980.776
215.650	27.202	1218.593	980.033
216.665	27.223	1217.689	979.337
217.680	27.130	1216.740	977.982
218.694	27.281	1215.692	977.865
219.709	27.213	1215.168	976.992
220.723	27.142	1214.923	976.329
221.738	27.104	1214.088	975.369
222.753	27.197	1213.227	975.089
223.767	27.173	1212.757	974.498
224.782	27.292	1212.251	974.641
225.796	27.271	1211.669	973.975
226.811	27.270	1211.371	973.640
227.826	27.267	1210.573	972.898
228.840	27.245	1210.014	972.246
229.855	27.219	1209.310	971.457
230.869	27.340	1208.482	971.348
231.884	27.321	1207.822	970.630
232.899	27.297	1207.064	969.808
233.913	27.294	1206.970	969.631
234.928	27.374	1205.934	969.141
235.942	27.382	1205.272	968.564
236.957	27.339	1204.586	967.701
237.972	27.418	1203.658	967.289
238.986	27.398	1202.794	966.400
240.001	27.349	1203.210	966.390
241.015	27.418	1202.212	965.869
242.030	27.525	1201.246	965.574
243.045	27.445	1200.442	964.422
244.059	27.442	1199.378	963.462
245.074	27.565	1198.712	963.492
246.088	27.538	1198.192	962.849
247.103	27.477	1197.374	961.784
248.117	27.376	1197.237	961.056
249.132	27.393	1196.189	960.221
250.147	27.497	1195.270	959.943
251.161	27.475	1194.919	959.462
252.176	27.541	1193.942	958.939
253.190	27.530	1193.290	958.270
254.205	27.517	1192.989	957.877
255.220	27.440	1192.281	956.822
256.234	27.518	1191.737	956.709
257.249	27.556	1191.160	956.360
258.263	27.520	1190.230	955.339
259.278	27.637	1189.425	955.221
260.293	27.507	1189.360	954.405
261.307	27.505	1188.772	953.836
262.322	27.625	1188.570	954.220
263.336	27.632	1187.100	952.990
264.351	27.574	1186.994	952.520
265.366	27.656	1186.147	952.183
266.380	27.591	1185.496	951.234
267.395	27.466	1185.323	950.361
268.409	27.531	1184.368	949.849
269.424	27.523	1183.687	949.181
270.439	27.578	1183.489	949.223
271.453	27.649	1182.583	948.780
272.468	27.650	1181.753	948.039
273.482	27.548	1181.258	947.025
274.497	27.650	1180.362	946.750
275.512	27.725	1180.012	946.778
276.526	27.714	1179.247	946.021
277.541	27.696	1178.445	945.204
278.555	27.666	1178.200	944.769
279.570	27.723	1177.225	944.197
280.585	27.759	1176.682	943.863
281.599	27.699	1175.798	942.761
282.614	27.718	1174.841	942.009
283.628	27.680	1173.671	940.789
284.643	27.737	1173.483	940.851
285.657	27.705	1172.348	939.691
286.672	27.742	1171.184	938.865
287.687	27.734	1170.877	938.494
288.701	27.858	1170.106	938.434
289.716	27.783	1169.643	937.592
290.730	27.865	1168.771	937.234
291.745	27.819	1168.202	936.455
292.760	27.758	1168.276	936.122
293.774	27.864	1167.120	935.656
294.789	27.813	1166.845	935.090
295.803	27.855	1165.571	934.201
296.818	27.825	1165.141	933.620
297.833	28.013	1164.004	933.587
298.847	27.845	1163.772	932.463
299.862	27.767	1163.535	931.788
300.876	27.918	1162.533	931.674
301.891	27.851	1162.192	930.977
302.906	27.989	1161.290	930.879
303.920	28.037	1160.691	930.557
304.935	28.003	1159.910	929.677
305.949	27.873	1159.612	928.692
306.964	27.965	1159.016	928.600
307.979	27.991	1158.188	927.991
308.993	27.986	1157.851	927.611
310.008	28.021	1156.727	926.807
311.022	28.054	1156.076	926.371
312.037	28.122	1155.309	926.015
313.052	28.052	1153.921	924.467
314.066	28.046	1153.735	924.206
315.081	28.030	1153.033	923.484
316.095	28.005	1152.661	922.975
317.110	28.107	1151.785	922.711
318.125	28.052	1150.709	921.488
319.139	28.058	1150.791	921.504
320.154	28.064	1150.294	921.052
321.168	28.144	1149.244	920.536
322.183	28.014	1148.891	919.516
323.197	28.081	1148.211	919.224
324.212	28.152	1147.706	919.096
325.227	28.162	1147.080	918.564
326.241	28.097	1146.897	918.012
327.256	28.153	1146.027	917.516
328.270	28.191	1145.138	916.912
329.285	28.205	1143.839	915.860
330.300	28.244	1143.507	915.710
331.314	28.250	1142.804	915.097
332.329	28.185	1142.203	914.207
333.343	28.266	1141.051	913.608
334.358	28.289	1140.749	913.401
335.373	28.286	1139.962	912.674
336.387	28.338	1139.153	912.205
337.402	28.340	1138.239	911.403
338.416	28.289	1137.896	910.793
339.431	28.252	1137.215	909.983
340.446	28.377	1136.673	910.090
341.460	28.359	1136.030	909.406
342.475	28.398	1135.616	909.188
343.489	28.286	1134.663	907.789
344.504	28.315	1133.589	906.993
345.519	28.265	1132.743	905.990
346.533	28.399	1131.891	905.890
347.548	28.482	1131.435	905.856
348.562	28.467	1130.591	905.025
349.577	28.403	1129.847	904.035
350.592	28.348	1129.211	903.173
351.606	28.473	1128.339	903.012
352.621	28.458	1127.920	902.523
353.635	28.434	1127.193	901.745
354.650	28.374	1126.819	901.067
355.665	28.459	1126.013	900.764
356.679	28.601	1125.449	900.927
357.694	28.503	1124.835	899.876
358.708	28.470	1124.538	899.398
359.723	28.575	1123.417	898.934
360.738	28.532	1122.814	898.162
361.752	28.544	1122.495	897.886
362.767	28.584	1121.889	897.521
363.781	28.635	1121.282	897.202
364.796	28.639	1120.783	896.742
365.810	28.649	1120.283	896.311
366.825	28.603	1119.793	895.619
367.840	28.745	1119.115	895.688
368.854	28.851	1118.420	895.568
369.869	28.785	1117.666	894.568
370.883	28.806	1116.689	893.804
371.898	28.719	1115.995	892.748
372.913	28.621	1115.733	891.984
373.927	28.641	1115.287	891.644
374.942	28.807	1114.959	892.111
375.956	28.825	1114.152	891.475
376.971	28.669	1114.034	890.542
377.986	28.665	1113.231	889.802
379.000	28.750	1112.714	889.721
380.015	28.912	1112.071	889.912
381.029	28.824	1111.411	888.881
382.044	28.826	1110.755	888.287
383.059	28.758	1110.186	887.424
384.073	28.907	1109.349	887.395
385.088	28.887	1108.413	886.473
386.102	28.806	1107.830	885.539
387.117	28.892	1106.794	885.047
388.132	28.784	1106.186	883.960
389.146	28.741	1105.751	883.329
390.161	28.864	1105.030	883.268
391.175	28.874	1104.154	882.537
392.190	28.877	1103.657	882.077
393.205	28.927	1103.119	881.809
394.219	28.883	1102.473	881.003
395.234	28.994	1101.650	880.799
396.248	29.007	1100.736	880.049
397.263	29.060	1099.924	879.577
398.278	29.013	1099.498	878.934
399.292	29.072	1099.010	878.748
400.307	29.140	1098.122	878.285
401.321	29.006	1097.867	877.362
402.336	29.118	1096.698	876.887
403.350	29.076	1096.150	876.171
404.365	29.132	1095.641	875.954
405.380	29.158	1094.830	875.348
406.394	29.147	1094.327	874.819
407.409	29.161	1093.648	874.263
408.423	29.209	1092.759	873.703
409.438	29.200	1092.548	873.413
410.453	29.287	1091.437	872.861
411.467	29.195	1090.843	871.873
412.482	29.212	1090.044	871.240
413.496	29.112	1089.898	870.571
414.511	29.222	1089.304	870.541
415.526	29.173	1088.510	869.595
416.540	29.374	1088.049	870.102
417.555	29.211	1088.305	869.456
418.569	29.147	1087.352	868.317
419.584	29.190	1087.013	868.175
420.599	29.198	1086.721	867.902
421.613	103.232	1322.925	1458.987
422.628	96.094	1357.301	1459.099
