DTS Sentinel unit serial number:	SN413079Multiplexer serial number:	ORYXHardware model number:	OX4-SRSoftware version number:	ORYX F/W v4.00 Oryx Data Collector v3.7.2.0data status	okinstallation	princeton_trtdifferential loss correction	single-endedforward channel	channel 2reverse channel	N/Adate	2019/09/12time	20:09:49forward acquisition time	15.00reverse acquisition time	0.00gamma	496.2192k internal	0.2327k external	0.2327temperature offset calibration	1.0144default loss term (dB/km)	0.3790temperature slope calibration	1.0000multiplexer offset coefficient	1.0000multiplexer slope coefficient	1.0000fibre end	0.00T internal ref (°C)	31.62T ext. ref 1 (°C)	3.36T ext. ref 2 (°C)	26.24length (m)	temperature (°C)	Stokes	anti-Stokes-747.200	175.329	-0.109	-0.160
-746.185	-200.000	-0.095	0.527
-745.171	233.721	0.108	0.179
-744.156	-188.164	-0.560	-0.007
-743.142	-80.551	-0.479	-0.161
-742.127	81.587	0.204	-0.222
-741.112	359.803	-0.145	-0.293
-740.098	463.578	0.214	0.481
-739.083	800.000	0.080	0.243
-738.069	-38.282	0.074	-0.039
-737.054	22.518	0.480	0.396
-736.039	-187.278	-0.560	-0.008
-735.025	701.316	0.256	0.678
-734.010	800.000	0.028	-0.120
-732.996	800.000	-0.121	-0.371
-731.981	-160.922	-0.155	-0.008
-730.966	-200.000	-0.037	0.551
-729.952	-200.000	-0.202	-0.906
-728.937	-86.259	-0.927	0.288
-727.923	189.153	0.194	0.292
-726.908	-114.048	-0.705	-0.138
-725.894	-200.000	-0.100	0.507
-724.879	-144.749	-0.508	0.047
-723.864	142.786	-0.342	-0.458
-722.850	174.008	-0.304	-0.443
-721.835	-200.000	0.015	-0.819
-720.821	-85.817	-0.970	-0.303
-719.806	-50.558	-0.411	0.195
-718.791	-104.685	0.593	0.138
-717.777	-31.691	-0.427	-0.241
-716.762	104.276	-0.460	-0.545
-715.748	-58.984	-0.545	-0.237
-714.733	-200.000	-0.105	-1.013
-713.718	-105.731	0.897	0.204
-712.704	-47.236	0.704	-0.345
-711.689	320.914	0.428	0.818
-710.675	-200.000	-0.082	-0.441
-709.660	219.767	0.256	0.412
-708.645	-23.553	0.240	-0.145
-707.631	800.000	0.140	-0.439
-706.616	14.190	0.339	-0.266
-705.602	800.000	-0.078	0.218
-704.587	77.616	-0.473	-0.506
-703.572	-103.754	0.407	-0.096
-702.558	800.000	0.273	-0.899
-701.543	-95.526	-0.198	-0.053
-700.529	73.766	-0.597	-0.630
-699.514	498.965	-0.111	0.257
-698.499	247.320	-0.152	0.258
-697.485	-76.269	-0.495	0.176
-696.470	406.722	-0.411	-0.873
-695.456	-200.000	0.105	-0.536
-694.441	15.792	0.329	0.261
-693.426	-200.000	0.011	-0.290
-692.412	77.822	-0.469	-0.502
-691.397	124.618	0.310	0.392
-690.383	-145.359	1.550	-0.141
-689.368	188.954	-0.306	0.461
-688.354	326.717	0.645	1.242
-687.339	-126.728	0.316	0.047
-686.324	110.195	-0.426	0.514
-685.310	-179.772	-0.270	-0.006
-684.295	800.000	0.162	0.507
-683.281	15.988	-0.271	0.214
-682.266	-7.257	0.668	-0.455
-681.251	-81.683	-0.506	-0.167
-680.237	-146.844	-0.496	0.043
-679.222	361.460	0.130	-0.262
-678.208	-151.889	-0.079	-0.006
-677.193	212.477	-0.388	-0.615
-676.178	644.782	0.134	0.343
-675.164	800.000	0.174	0.504
-674.149	-52.478	-0.798	0.371
-673.135	-200.000	0.083	-0.987
-672.120	-117.751	-0.619	-0.112
-671.105	327.945	0.298	0.575
-670.091	-132.010	0.350	-0.046
-669.076	207.510	-0.883	-1.385
-668.062	-64.856	-0.340	0.138
-667.047	377.168	-0.089	-0.183
-666.032	260.579	0.126	0.219
-665.018	237.170	0.391	0.651
-664.003	-8.169	-0.771	0.522
-662.989	-75.321	-0.733	-0.263
-661.974	-37.392	0.335	0.180
-660.959	428.931	0.312	-0.677
-659.945	-146.366	-0.724	-0.064
-658.930	-36.656	-0.386	0.209
-657.916	-111.797	0.502	0.102
-656.901	-7.578	-0.230	0.156
-655.886	-85.825	1.094	0.341
-654.872	800.000	-0.189	0.677
-653.857	8.723	-0.564	0.427
-652.843	-6.345	-0.730	-0.500
-651.828	123.666	-0.546	0.688
-650.814	225.561	0.231	-0.375
-649.799	-133.401	0.494	0.062
-648.784	295.609	0.229	0.421
-647.770	9.105	-0.112	-0.085
-646.755	-200.000	-0.092	0.835
-645.741	-200.000	-0.102	-0.848
-644.726	-153.956	-0.549	-0.038
-643.711	349.344	0.119	0.237
-642.697	-200.000	-0.146	0.807
-641.682	-200.000	0.025	-0.572
-640.668	-76.069	-0.602	-0.214
-639.653	-162.156	-0.765	0.038
-638.638	44.361	0.644	-0.593
-637.624	-25.573	0.717	0.425
-636.609	-91.566	-0.285	0.082
-635.595	-173.181	0.297	-0.009
-634.580	-134.545	0.346	-0.042
-633.565	-26.020	-0.681	-0.402
-632.551	800.000	-0.126	-0.517
-631.536	113.925	-0.044	0.054
-630.522	77.793	-0.316	0.338
-629.507	800.000	0.149	-0.552
-628.492	-59.426	-0.543	0.234
-627.478	-140.659	0.337	0.035
-626.463	129.844	0.239	-0.307
-625.449	-92.082	-0.309	-0.088
-624.434	212.427	-0.064	0.102
-623.419	-89.476	0.377	0.111
-622.405	169.550	-0.545	-0.782
-621.390	800.000	-0.179	-0.618
-620.376	-24.341	-0.173	-0.104
-619.361	-139.972	0.464	-0.049
-618.346	-115.076	0.515	0.098
-617.332	160.961	0.410	0.574
-616.317	-200.000	0.057	-0.674
-615.303	-73.908	0.600	-0.219
-614.288	82.597	0.187	-0.204
-613.273	249.334	-0.247	0.421
-612.259	280.981	0.531	0.953
-611.244	-48.574	-0.218	0.105
-610.230	29.966	-0.196	-0.167
-609.215	-200.000	0.007	-0.566
-608.201	57.175	0.122	-0.119
-607.186	800.000	0.048	0.155
-606.171	767.218	-0.274	0.748
-605.157	-71.314	-0.389	-0.146
-604.142	-126.751	0.996	0.148
-603.128	29.836	0.142	-0.122
-602.113	800.000	-0.165	0.598
-601.098	728.565	-0.401	1.072
-600.084	0.124	-0.323	-0.231
-599.069	-200.000	0.031	0.374
-598.055	372.225	0.414	-0.843
-597.040	116.213	-0.189	0.233
-596.025	-124.748	0.639	0.099
-595.011	800.000	0.192	-0.613
-593.996	76.156	-0.410	0.435
-592.982	-75.509	-0.534	-0.190
-591.967	-200.000	-0.263	1.263
-590.952	211.412	-0.499	-0.787
-589.938	653.193	-0.141	0.362
-588.923	522.895	0.173	-0.407
-587.909	-23.699	0.802	-0.482
-586.894	-200.000	0.043	-0.193
-585.879	-106.077	0.167	-0.038
-584.865	93.199	-0.209	-0.236
-583.850	-171.653	0.374	-0.012
-582.836	175.644	0.318	0.462
-581.821	-200.000	-0.004	0.125
-580.806	-4.754	0.651	-0.450
-579.792	10.714	-0.210	0.160
-578.777	-68.263	0.499	-0.194
-577.763	137.509	0.254	-0.332
-576.748	32.289	-0.684	-0.591
-575.733	125.655	0.371	-0.469
-574.719	140.475	0.181	0.239
-573.704	-200.000	0.038	0.311
-572.690	80.161	-0.130	-0.140
-571.675	68.634	0.632	0.649
-570.661	-131.462	-0.569	0.075
-569.646	-75.239	0.640	0.229
-568.631	-72.603	-0.717	-0.265
-567.617	-103.857	0.248	-0.058
-566.602	-88.049	-0.412	0.124
-565.588	800.000	-0.075	0.262
-564.573	201.732	-0.255	0.394
-563.558	163.129	0.237	-0.333
-562.544	76.666	-0.358	0.381
-561.529	179.968	0.556	0.816
-560.515	561.833	0.282	-0.683
-559.500	197.790	-0.155	0.238
-558.485	-200.000	0.009	-0.438
-557.471	30.976	0.320	-0.274
-556.456	378.906	0.091	0.187
-555.442	91.110	0.124	-0.140
-554.427	-153.772	-1.074	0.074
-553.412	800.000	-0.102	0.446
-552.398	-120.413	-0.756	-0.129
-551.383	350.211	0.259	-0.512
-550.369	-200.000	0.049	0.567
-549.354	316.963	-0.290	-0.548
-548.339	-128.798	1.002	-0.141
-547.325	-7.722	-0.514	0.347
-546.310	245.811	0.254	0.428
-545.296	-121.639	0.473	0.078
-544.281	-2.284	0.279	0.196
-543.266	163.015	0.329	0.462
-542.252	103.427	-0.121	-0.141
-541.237	-63.150	-0.481	-0.199
-540.223	12.584	0.607	-0.468
-539.208	-200.000	0.036	0.319
-538.193	-51.944	-0.500	-0.233
-537.179	-85.046	0.123	0.039
-536.164	-200.000	-0.036	-0.510
-535.150	57.952	-0.454	-0.444
-534.135	-200.000	-0.012	0.320
-533.121	-22.587	-0.402	-0.243
-532.106	-43.632	-0.345	0.174
-531.091	19.449	-0.995	-0.799
-530.077	40.799	-0.193	-0.174
-529.062	133.648	-0.344	0.445
-528.048	-47.976	-0.109	0.053
-527.033	296.826	-0.380	-0.697
-526.018	-27.747	-0.629	-0.364
-525.004	-138.341	1.364	-0.150
-523.989	-200.000	0.010	0.076
-522.975	-99.192	0.213	-0.054
-521.960	-81.901	0.919	-0.301
-520.945	-200.000	-0.157	-0.992
-519.931	-199.337	-0.629	-0.003
-518.916	-67.168	0.891	0.351
-517.902	800.000	-0.208	-0.685
-516.887	-82.150	0.333	0.108
-515.872	289.057	0.152	-0.275
-514.858	-68.935	0.522	-0.201
-513.843	346.888	-0.248	-0.488
-512.829	24.952	-0.159	-0.131
-511.814	-40.995	0.783	0.404
-510.799	-58.161	-0.651	-0.283
-509.785	21.494	-0.353	-0.287
-508.770	537.787	-0.346	-0.820
-507.756	800.000	0.161	-0.554
-506.741	800.000	-0.184	0.525
-505.726	-83.665	-0.132	0.042
-504.712	-102.287	-0.435	-0.104
-503.697	-51.261	0.801	0.375
-502.683	-119.424	0.680	-0.118
-501.668	60.260	0.681	-0.673
-500.653	800.000	-0.142	0.464
-499.639	-100.583	-0.165	0.041
-498.624	-200.000	0.011	-0.401
-497.610	-200.000	0.148	-1.096
-496.595	340.905	0.211	-0.412
-495.581	800.000	-0.062	0.219
-494.566	-30.634	-0.749	-0.423
-493.551	224.720	-0.368	0.595
-492.537	54.044	-0.893	-0.857
-491.522	-70.153	0.364	0.138
-490.508	21.718	0.416	0.338
-489.493	65.868	-0.239	0.242
-488.478	612.977	-0.161	0.402
-487.464	9.910	-0.474	0.359
-486.449	-200.000	-0.025	-0.306
-485.435	60.606	-0.411	0.406
-484.420	41.964	0.495	0.448
-483.405	800.000	0.143	0.459
-482.391	552.606	0.094	0.224
-481.376	475.664	-0.243	0.547
-480.362	-82.340	0.406	0.132
-479.347	-34.803	0.295	-0.161
-478.332	144.929	-0.496	-0.661
-477.318	-200.000	0.030	-0.408
-476.303	197.632	-0.572	-0.872
-475.289	-109.667	0.692	0.145
-474.274	251.924	0.059	-0.101
-473.259	-70.593	-0.778	0.293
-472.245	-27.448	1.098	-0.637
-471.230	29.286	0.215	0.182
-470.216	7.538	-0.472	0.352
-469.201	-95.994	0.408	-0.108
-468.186	-71.149	0.538	-0.202
-467.172	-130.292	-0.065	-0.009
-466.157	800.000	0.067	-0.231
-465.143	402.754	0.211	0.443
-464.128	-200.000	0.045	0.412
-463.113	-200.000	-0.198	-0.876
-462.099	-200.000	0.043	0.328
-461.084	800.000	-0.121	0.491
-460.070	-44.147	0.744	0.372
-459.055	455.452	0.241	0.533
-458.040	692.966	0.141	-0.369
-457.026	184.770	0.190	0.281
-456.011	-45.860	-0.174	-0.086
-454.997	-30.243	0.046	-0.026
-453.982	-200.000	0.072	-0.439
-452.968	-56.594	0.716	-0.316
-451.953	-200.000	0.093	-0.466
-450.938	-129.557	-0.675	-0.093
-449.924	800.000	0.117	0.408
-448.909	800.000	0.115	0.330
-447.895	-137.675	0.419	0.047
-446.880	-200.000	0.073	-0.427
-445.865	173.369	-0.302	0.434
-444.851	66.810	-0.451	0.458
-443.836	46.396	-0.719	0.664
-442.822	100.210	0.360	-0.416
-441.807	-138.229	0.244	-0.027
-440.792	360.890	0.247	0.494
-439.778	-144.407	0.709	0.066
-438.763	-63.644	0.695	0.284
-437.749	-93.010	-0.717	-0.199
-436.734	-78.627	-0.358	0.122
-435.719	-200.000	-0.115	-0.826
-434.705	-200.000	-0.026	-0.155
-433.690	-200.000	0.072	0.371
-432.676	50.600	0.236	0.222
-431.661	604.518	-0.374	0.926
-430.646	265.764	-0.194	0.337
-429.632	49.167	-0.194	0.182
-428.617	-200.000	0.012	-0.220
-427.603	35.033	0.446	0.388
-426.588	-26.716	-0.910	-0.530
-425.573	428.580	0.354	0.761
-424.559	-32.553	0.335	0.186
-423.544	-2.464	0.156	-0.109
-422.530	-99.978	0.441	-0.110
-421.515	-200.000	-0.021	-0.598
-420.500	147.172	0.232	-0.310
-419.486	-116.813	-0.312	-0.057
-418.471	63.763	0.644	0.644
-417.457	119.004	-0.117	-0.144
-416.442	191.889	0.225	0.338
-415.428	-200.000	0.006	0.315
-414.413	-158.478	-0.501	0.029
-413.398	-176.268	-0.451	0.012
-412.384	71.962	0.815	0.843
-411.369	-12.933	-0.235	0.152
-410.355	-200.000	-0.007	0.740
-409.340	61.851	0.542	-0.537
-408.325	101.637	-0.337	-0.390
-407.311	32.785	-0.458	-0.394
-406.296	-18.449	0.836	-0.519
-405.282	-155.595	-0.458	0.029
-404.267	800.000	-0.221	0.684
-403.252	800.000	0.075	-0.235
-402.238	133.562	-0.359	-0.462
-401.223	-149.480	0.609	-0.048
-400.209	-200.000	-0.096	0.702
-399.194	-88.011	0.512	-0.153
-398.179	-12.531	0.073	-0.047
-397.165	-17.775	-0.446	0.278
-396.150	112.375	0.271	0.326
-395.136	485.786	-0.195	-0.442
-394.121	-200.000	-0.059	-0.522
-393.106	-157.962	-0.407	-0.024
-392.092	-200.000	0.044	0.211
-391.077	183.738	-0.218	0.320
-390.063	541.469	0.125	0.296
-389.048	617.845	0.119	0.296
-388.033	170.379	-0.625	-0.890
-387.019	-200.000	0.033	-0.859
-386.004	400.637	0.154	0.321
-384.990	385.118	-0.103	0.212
-383.975	-200.000	-0.087	0.460
-382.960	407.219	-0.199	-0.419
-381.946	-78.843	-0.821	0.278
-380.931	-20.714	-0.318	-0.194
-379.917	187.955	0.299	-0.444
-378.902	-137.641	-0.629	-0.070
-377.888	-158.346	-0.844	0.049
-376.873	-104.291	-0.120	-0.028
-375.858	-200.000	-0.110	-0.510
-374.844	-200.000	-0.025	0.201
-373.829	285.453	0.370	0.663
-372.815	84.406	-0.571	0.620
-371.800	127.683	-0.415	0.524
-370.785	-124.498	-0.710	0.110
-369.771	277.893	0.361	0.638
-368.756	-200.000	0.000	0.023
-367.742	610.876	0.289	0.717
-366.727	-82.979	1.003	-0.321
-365.712	-36.283	0.158	0.085
-364.698	292.115	0.151	-0.272
-363.683	184.569	-0.098	0.144
-362.669	-152.204	0.385	-0.028
-361.654	106.939	0.597	-0.705
-360.639	-71.812	0.833	0.308
-359.625	107.126	-0.751	0.887
-358.610	100.513	0.339	0.391
-357.596	-35.088	0.363	0.197
-356.581	262.435	-0.815	1.405
-355.566	452.531	-0.401	-0.879
-354.552	-145.214	-0.381	0.034
-353.537	800.000	0.036	-0.098
-352.523	9.446	0.501	0.376
-351.508	81.264	-0.331	0.355
-350.493	-7.139	-0.439	-0.296
-349.479	-200.000	0.095	-0.452
-348.464	-63.513	0.333	-0.136
-347.450	-95.444	-0.406	-0.108
-346.435	60.585	0.138	-0.136
-345.420	82.098	0.246	0.265
-344.406	-36.972	0.418	-0.223
-343.391	454.256	0.377	0.828
-342.377	-200.000	0.086	0.424
-341.362	-106.821	0.585	0.129
-340.348	-95.034	-0.427	0.115
-339.333	800.000	-0.251	0.965
-338.318	23.335	0.637	0.520
-337.304	-200.000	-0.071	1.057
-336.289	-104.841	-0.622	0.142
-335.275	21.596	0.329	-0.265
-334.260	-17.354	-0.273	-0.171
-333.245	-105.615	0.107	-0.024
-332.231	800.000	-0.117	-0.412
-331.216	-24.101	0.617	-0.366
-330.202	104.791	-0.321	-0.375
-329.187	-200.000	0.181	-1.380
-328.172	-29.618	0.416	-0.236
-327.158	800.000	0.188	-0.587
-326.143	471.559	0.085	0.190
-325.129	-91.045	-0.390	0.111
-324.114	14.927	-0.558	0.433
-323.099	800.000	-0.057	-0.163
-322.085	223.606	0.132	0.212
-321.070	800.000	-0.136	-0.548
-320.056	154.112	-0.143	-0.194
-319.041	-10.082	-0.322	-0.212
-318.026	299.799	0.222	-0.406
-317.012	-200.000	-0.018	0.294
-315.997	206.188	-0.483	-0.744
-314.983	800.000	-0.208	0.782
-313.968	357.714	0.404	0.799
-312.953	124.282	0.098	-0.122
-311.939	-20.096	0.419	0.256
-310.924	527.971	-0.275	-0.643
-309.910	-10.449	0.355	-0.233
-308.895	595.303	-0.285	-0.699
-307.880	58.059	-0.510	-0.495
-306.866	-61.738	0.392	0.163
-305.851	-14.580	-0.135	0.086
-304.837	-117.804	-0.263	-0.047
-303.822	-39.836	-0.998	0.516
-302.807	339.781	-0.113	0.219
-301.793	800.000	0.062	-0.206
-300.778	74.253	-0.457	0.475
-299.764	94.051	0.424	-0.476
-298.749	280.181	0.350	-0.620
-297.735	-78.983	0.537	0.181
-296.720	784.504	0.330	-0.897
-295.705	-24.503	0.273	-0.161
-294.691	-119.636	0.428	-0.073
-293.676	274.775	-0.414	0.727
-292.662	-20.176	0.591	0.361
-291.647	232.226	-0.426	-0.693
-290.632	117.770	0.289	0.352
-289.618	-48.483	-0.402	0.192
-288.603	193.452	0.021	-0.031
-287.589	162.522	-0.139	-0.193
-286.574	306.965	-0.024	0.043
-285.559	-40.395	-0.106	-0.055
-284.545	289.746	0.277	-0.498
-283.530	405.668	-0.097	0.203
-282.516	-200.000	0.038	0.264
-281.501	800.000	-0.113	0.428
-280.486	80.282	0.443	-0.472
-279.472	800.000	-0.071	0.228
-278.457	37.277	0.572	-0.502
-277.443	71.783	0.562	0.578
-276.428	800.000	0.246	-0.852
-275.413	-106.094	-0.271	0.060
-274.399	469.878	-0.041	-0.091
-273.384	-22.413	0.469	-0.281
-272.370	108.003	0.324	-0.382
-271.355	-160.860	0.484	0.025
-270.340	-64.097	-0.395	-0.159
-269.326	90.074	0.200	-0.221
-268.311	180.836	-0.321	0.466
-267.297	20.645	-0.412	0.330
-266.282	-200.000	0.075	-0.407
-265.267	41.490	0.845	-0.756
-264.253	90.152	-0.884	-0.978
-263.238	-200.000	0.133	-0.622
-262.224	393.970	-0.298	0.615
-261.209	-64.113	0.557	0.225
-260.195	-59.185	-0.239	-0.102
-259.180	-51.630	-0.407	-0.188
-258.165	-200.000	0.095	0.499
-257.151	121.434	0.428	-0.527
-256.136	-52.594	-0.378	0.173
-255.122	-75.274	-0.582	0.205
-254.107	-61.227	-0.485	-0.202
-253.092	12.025	-0.438	-0.333
-252.078	-92.939	-0.408	0.113
-251.063	-200.000	-0.045	-0.334
-250.049	-200.000	-0.008	-0.061
-249.034	124.441	0.276	-0.344
-248.019	582.727	-0.149	0.361
-247.005	59.228	0.243	-0.237
-245.990	-67.106	-0.375	-0.146
-244.976	-200.000	0.072	0.407
-243.961	800.000	-0.056	0.174
-242.946	463.864	-0.411	0.909
-241.932	75.519	0.564	0.589
-240.917	-77.020	0.381	-0.132
-239.903	-166.989	-0.531	-0.021
-238.888	272.024	0.210	-0.366
-237.873	25.683	0.937	0.771
-236.859	125.699	-0.409	-0.510
-235.844	-163.387	-0.626	0.030
-234.830	-200.000	-0.026	-0.568
-233.815	-38.061	-0.424	0.223
-232.800	438.373	-0.112	-0.241
-231.786	-200.000	-0.025	-0.196
-230.771	-25.039	-0.290	0.170
-229.757	183.517	0.364	-0.531
-228.742	147.818	-0.400	0.532
-227.727	-150.147	0.779	0.060
-226.713	139.570	0.198	0.258
-225.698	-71.157	0.641	0.238
-224.684	800.000	-0.053	0.225
-223.669	-200.000	-0.049	0.377
-222.655	-54.849	-0.020	0.009
-221.640	-25.908	-0.555	0.323
-220.625	-126.718	0.184	0.027
-219.611	-169.597	0.523	-0.019
-218.596	71.151	-0.530	-0.542
-217.582	800.000	-0.254	-0.709
-216.567	97.489	-0.365	-0.414
-215.552	-13.850	0.313	0.200
-214.538	588.299	0.437	1.062
-213.523	77.799	0.461	0.485
-212.509	-34.495	-0.206	-0.112
-211.494	463.702	0.411	0.907
-210.479	-96.595	-0.693	0.180
-209.465	-200.000	0.023	-0.400
-208.450	800.000	-0.121	-0.378
-207.436	753.233	-0.214	0.570
-206.421	-92.553	-0.677	0.188
-205.406	2.440	0.732	0.523
-204.392	24.833	-0.531	-0.434
-203.377	308.283	0.263	0.484
-202.363	-19.713	-0.565	-0.345
-201.348	-156.750	0.547	0.033
-200.333	-200.000	-0.037	-0.162
-199.319	-112.097	-0.737	-0.146
-198.304	-200.000	0.022	0.701
-197.290	742.386	0.106	0.281
-196.275	-142.614	-0.213	-0.021
-195.260	131.870	-0.320	-0.407
-194.246	-119.146	0.360	-0.062
-193.231	266.804	-0.194	-0.335
-192.217	32.342	0.069	0.059
-191.202	216.351	-0.206	0.323
-190.187	0.827	0.113	-0.080
-189.173	-29.704	0.238	-0.134
-188.158	-76.362	0.299	-0.104
-187.144	-48.076	0.549	0.262
-186.129	64.387	0.342	-0.340
-185.114	-85.170	-0.592	-0.183
-184.100	-70.690	-0.598	0.223
-183.085	508.729	-0.097	-0.222
-182.071	-200.000	0.214	1.074
-181.056	-200.000	0.017	0.593
-180.042	-144.540	-0.470	0.043
-179.027	800.000	-0.065	0.209
-178.012	-200.000	-0.092	-0.675
-176.998	-115.452	0.830	0.154
-175.983	-88.674	1.161	0.340
-174.969	-175.392	-0.318	-0.009
-173.954	-200.000	-0.117	-0.866
-172.939	-83.229	-0.447	-0.141
-171.925	491.961	-0.195	0.441
-170.910	6.619	-0.558	-0.409
-169.896	-200.000	0.004	0.396
-168.881	36.237	-0.570	-0.495
-167.866	86.401	0.578	0.628
-166.852	109.843	-0.460	0.544
-165.837	-15.843	-0.352	0.221
-164.823	-56.148	-0.477	0.209
-163.808	-200.000	-0.005	-0.714
-162.793	-13.665	-0.487	-0.311
-161.779	288.911	0.144	0.257
-160.764	263.224	0.377	-0.645
-159.750	-200.000	0.069	-0.531
-158.735	-135.085	-0.665	-0.079
-157.720	-84.445	0.327	0.102
-156.706	-200.000	-0.100	-0.736
-155.691	12.009	-0.817	0.619
-154.677	-76.313	0.434	0.151
-153.662	43.858	0.555	0.500
-152.647	-79.847	0.566	0.187
-151.633	1.416	0.159	0.113
-150.618	-200.000	0.041	0.538
-149.604	-174.468	-0.846	-0.024
-148.589	-86.514	0.442	-0.134
-147.574	82.440	0.107	0.114
-146.560	331.694	0.228	0.434
-145.545	496.370	-0.191	0.432
-144.531	-200.000	0.247	0.000
-143.516	-200.000	-0.085	0.450
-142.502	180.575	0.539	0.779
-141.487	436.329	-0.397	0.851
-140.472	115.338	-0.308	0.370
-139.458	216.251	0.165	0.258
-138.443	505.573	-0.178	0.406
-137.429	-162.297	-0.441	-0.022
-136.414	-55.609	1.374	-0.605
-135.399	518.944	0.053	0.122
-134.385	-128.008	0.548	0.077
-133.370	-5.140	-0.536	-0.363
-132.356	-200.000	-0.134	-0.744
-131.341	-200.000	-0.014	0.137
-130.326	-6.001	-0.360	0.242
-129.312	-2.339	0.229	-0.158
-128.297	-200.000	0.038	0.255
-127.283	-200.000	-0.103	-0.685
-126.268	-144.918	-0.531	-0.048
-125.253	-21.112	-0.221	0.133
-124.239	3.038	0.654	0.467
-123.224	-73.548	0.354	-0.127
-122.210	151.770	-0.237	0.317
-121.195	-63.305	-0.374	0.152
-120.180	472.165	-0.133	-0.295
-119.166	800.000	-0.210	-0.754
-118.151	15.116	0.175	0.135
-117.137	-49.068	-0.651	-0.306
-116.122	-200.000	0.034	-0.212
-115.107	-63.100	-0.382	0.155
-114.093	-58.288	-0.221	-0.095
-113.078	-38.684	0.680	0.353
-112.064	364.939	-0.154	-0.305
-111.049	190.073	0.359	0.531
-110.034	448.510	0.073	0.158
-109.020	494.092	-0.049	0.111
-108.005	316.732	0.188	0.349
-106.991	45.671	-0.112	0.102
-105.976	-27.963	-0.106	-0.060
-104.962	-200.000	-0.035	-0.178
-103.947	-200.000	-0.094	0.516
-102.932	-137.733	-0.569	-0.063
-101.918	-61.741	-0.658	0.271
-100.903	-200.000	0.026	0.165
-99.889	800.000	-0.271	0.828
-98.874	-133.144	0.427	0.053
-97.859	140.732	0.229	0.298
-96.845	-200.000	0.003	-0.304
-95.830	800.000	0.228	-0.621
-94.816	-200.000	-0.016	0.695
-93.801	-17.080	0.304	-0.188
-92.786	73.634	0.730	-0.752
-91.772	1.535	0.854	-0.604
-90.757	-200.000	-0.256	0.001
-89.743	-200.000	-0.041	0.460
-88.728	-200.000	-0.016	-0.169
-87.713	-200.000	0.047	0.284
-86.699	-88.536	-0.623	0.183
-85.684	775.103	0.085	0.228
-84.670	229.785	0.321	-0.516
-83.655	24.969	0.495	0.403
-82.640	-36.227	1.107	0.587
-81.626	274.710	-0.425	0.740
-80.611	238.823	0.166	0.272
-79.597	800.000	0.176	0.635
-78.582	800.000	0.164	0.659
-77.567	124.581	-0.253	0.313
-76.553	-128.360	0.508	0.071
-75.538	-11.706	-0.230	0.148
-74.524	25.564	-0.725	-0.592
-73.509	-75.127	0.336	-0.118
-72.494	570.701	0.153	0.366
-71.480	-41.396	0.930	-0.470
-70.465	195.027	-0.225	-0.335
-69.451	800.000	0.152	0.413
-68.436	6.602	0.954	-0.696
-67.422	-200.000	-0.024	0.441
-66.407	45.360	-0.247	-0.224
-65.392	13.221	-0.347	-0.264
-64.378	-200.000	0.009	-0.484
-63.363	27.684	0.480	-0.397
-62.349	800.000	-0.074	0.301
-61.334	-144.964	-1.491	-0.134
-60.319	6.344	0.521	0.380
-59.305	28.604	-1.132	-0.940
-58.290	800.000	0.274	0.857
-57.276	-34.928	1.125	0.603
-56.261	-200.000	97.514	601.763
-55.246	621.469	1378.688	3404.130
-54.232	198.341	2558.905	3840.572
-53.217	111.474	2251.544	2664.259
-52.203	40.966	1879.910	1665.127
-51.188	34.589	1674.016	1434.946
-50.173	32.133	1630.843	1379.867
-49.159	50.755	1682.017	1562.512
-48.144	51.558	1697.094	1582.436
-47.130	34.676	1655.709	1419.675
-46.115	31.880	1641.103	1386.456
-45.100	31.456	1637.718	1380.416
-44.086	31.408	1634.923	1377.645
-43.071	31.507	1632.398	1376.193
-42.057	31.504	1629.603	1373.760
-41.042	31.627	1626.649	1372.117
-40.027	31.719	1625.276	1371.583
-39.013	31.336	1624.661	1368.205
-37.998	31.444	1622.859	1367.422
-36.984	31.471	1621.692	1366.582
-35.969	31.576	1620.098	1365.950
-34.954	31.642	1618.332	1364.889
-33.940	31.718	1616.670	1363.982
-32.925	31.578	1615.325	1361.774
-31.911	31.711	1613.252	1360.939
-30.896	31.357	1612.059	1357.312
-29.881	31.432	1609.076	1355.289
-28.867	31.677	1607.507	1355.686
-27.852	31.416	1606.990	1353.305
-26.838	31.563	1605.465	1353.034
-25.823	31.640	1602.989	1351.447
-24.809	31.627	1603.298	1351.561
-23.794	31.912	1600.005	1350.783
-22.779	31.757	1599.691	1349.354
-21.765	31.808	1596.272	1346.781
-20.750	31.309	1596.456	1343.292
-19.736	31.651	1594.408	1343.971
-18.721	31.634	1593.459	1342.998
-17.706	31.553	1592.590	1341.632
-16.692	31.513	1589.402	1338.607
-15.677	31.628	1589.380	1339.361
-14.663	31.922	1586.903	1339.319
-13.648	32.054	1585.824	1339.296
-12.633	31.794	1584.328	1336.128
-11.619	31.924	1582.155	1335.168
-10.604	31.661	1582.094	1333.191
-9.590	31.789	1579.860	1332.160
-8.575	31.487	1579.847	1329.949
-7.560	31.518	1579.129	1329.514
-6.546	31.737	1577.381	1329.544
-5.531	31.675	1576.862	1328.615
-4.517	31.489	1575.040	1325.709
-3.502	31.677	1573.840	1325.980
-2.487	31.700	1571.959	1324.505
-1.473	31.481	1560.524	1313.274
-0.458	28.590	1541.095	1276.796
0.556	25.810	1542.919	1242.934
1.571	23.697	1566.492	1246.990
2.586	23.204	1578.487	1252.938
3.600	20.534	1525.241	1192.279
4.615	12.393	1417.180	1055.611
5.629	4.420	1355.302	960.282
6.644	3.580	1345.950	948.407
7.659	3.315	1346.480	947.067
8.673	3.575	1344.211	946.988
9.688	2.972	1342.173	941.771
10.702	3.044	1339.253	940.080
11.717	6.378	1345.944	965.153
12.731	15.639	1362.163	1033.914
13.746	23.091	1372.315	1087.532
14.761	24.472	1374.743	1097.859
15.775	24.253	1373.273	1095.241
16.790	23.677	1372.798	1091.226
17.804	23.652	1370.533	1089.177
18.819	23.305	1371.429	1087.664
19.834	23.071	1370.940	1085.743
20.848	23.693	1368.836	1087.792
21.863	23.530	1368.560	1086.477
22.877	23.463	1367.490	1085.124
23.892	23.320	1366.132	1083.075
24.907	23.472	1365.647	1083.522
25.921	23.335	1364.847	1081.954
26.936	23.127	1364.920	1080.647
27.950	23.220	1362.904	1079.523
28.965	23.381	1362.160	1079.821
29.980	23.333	1360.854	1078.399
30.994	23.722	1360.276	1080.210
32.009	23.550	1360.143	1078.962
33.023	23.459	1358.153	1076.737
34.038	23.575	1356.839	1076.303
35.053	23.506	1355.255	1074.530
36.067	23.201	1354.673	1072.129
37.082	23.350	1353.794	1072.241
38.096	23.229	1353.215	1070.955
39.111	23.357	1353.089	1071.532
40.126	23.613	1351.060	1071.379
41.140	22.845	1351.164	1066.724
42.155	22.590	1350.660	1064.697
43.169	22.723	1349.285	1064.317
44.184	22.651	1349.460	1063.929
45.199	22.940	1349.813	1065.857
46.213	23.312	1349.141	1067.474
47.228	23.382	1347.956	1066.865
48.242	23.291	1347.841	1066.128
49.257	23.291	1346.044	1064.617
50.271	23.229	1343.989	1062.520
51.286	23.400	1343.074	1062.731
52.301	23.319	1342.246	1061.495
53.315	23.422	1339.506	1059.852
54.330	23.277	1338.718	1058.270
55.344	22.962	1339.151	1056.633
56.359	23.039	1337.920	1056.026
57.374	22.871	1337.223	1054.384
58.388	22.931	1336.488	1054.065
59.403	22.861	1335.780	1052.998
60.417	22.787	1335.493	1052.237
61.432	22.685	1334.406	1050.681
62.447	22.861	1333.473	1050.899
63.461	22.413	1332.899	1047.689
64.476	22.647	1330.927	1047.439
65.490	22.588	1330.516	1046.670
66.505	22.811	1327.995	1045.917
67.520	22.536	1327.430	1043.750
68.534	22.943	1325.516	1044.561
69.549	22.598	1324.735	1041.813
70.563	22.473	1323.815	1040.258
71.578	22.434	1323.339	1039.563
72.593	22.424	1322.364	1038.647
73.607	22.454	1321.395	1037.968
74.622	22.443	1320.118	1036.810
75.636	22.641	1319.890	1037.704
76.651	22.610	1319.822	1037.375
77.666	22.653	1318.424	1036.439
78.680	22.600	1318.635	1036.201
79.695	22.588	1318.333	1035.803
80.709	22.914	1316.839	1036.451
81.724	22.779	1317.788	1036.310
82.739	22.991	1315.442	1035.616
83.753	23.206	1317.033	1038.038
84.768	23.447	1314.873	1037.657
85.782	23.687	1313.723	1038.058
86.797	23.538	1313.969	1037.290
87.812	23.734	1310.562	1035.652
88.826	23.668	1309.532	1034.361
89.841	23.299	1310.244	1032.680
90.855	23.431	1309.478	1032.756
91.870	23.769	1308.495	1033.857
92.884	23.698	1307.451	1032.526
93.899	23.578	1306.382	1030.895
94.914	23.623	1306.017	1030.775
95.928	23.856	1305.504	1031.633
96.943	23.720	1304.045	1029.601
97.957	23.540	1303.888	1028.343
98.972	23.547	1302.180	1026.944
99.987	23.600	1301.815	1026.874
101.001	23.486	1300.194	1024.847
102.016	23.653	1299.424	1025.114
103.030	23.517	1298.949	1023.861
104.045	23.641	1297.750	1023.541
105.060	23.224	1297.649	1020.965
106.074	23.191	1294.734	1018.391
107.089	22.790	1293.908	1015.345
108.103	22.747	1292.329	1013.773
109.118	22.576	1290.933	1011.605
110.133	22.751	1289.513	1011.406
111.147	22.685	1289.200	1010.693
112.162	22.786	1288.011	1010.247
113.176	22.960	1287.235	1010.545
114.191	22.932	1286.082	1009.392
115.206	23.042	1285.786	1009.699
116.220	22.903	1284.443	1007.760
117.235	22.869	1283.176	1006.482
118.249	22.857	1281.734	1005.193
119.264	22.385	1280.645	1001.568
120.279	22.727	1279.507	1002.534
121.293	22.717	1278.697	1001.754
122.308	22.456	1278.567	1000.080
123.322	22.462	1276.946	998.755
124.337	22.337	1275.973	997.202
125.352	22.210	1275.370	995.918
126.366	22.372	1273.940	995.635
127.381	22.379	1272.428	994.404
128.395	22.153	1271.916	992.637
129.410	22.263	1270.899	992.374
130.424	22.182	1269.963	991.101
131.439	22.417	1270.110	992.454
132.454	22.507	1269.206	992.168
133.468	22.615	1269.108	992.610
134.483	22.931	1269.324	994.468
135.497	22.636	1267.668	991.426
136.512	22.704	1266.868	991.094
137.527	22.816	1265.411	990.495
138.541	22.896	1263.793	989.588
139.556	22.789	1263.585	988.740
140.570	22.922	1262.593	988.623
141.585	23.225	1261.566	989.425
142.600	23.349	1259.762	988.611
143.614	23.663	1259.577	990.128
144.629	23.762	1259.063	990.194
145.643	23.379	1257.819	986.993
146.658	23.415	1256.685	986.218
147.673	22.917	1255.953	982.786
148.687	23.099	1254.112	982.265
149.702	22.907	1252.962	980.215
150.716	23.154	1249.790	979.015
151.731	22.663	1249.737	976.167
152.746	22.611	1248.679	974.967
153.760	22.752	1249.767	976.509
154.775	23.506	1246.868	978.322
155.789	23.117	1247.689	976.732
156.804	23.026	1245.869	974.719
157.819	22.953	1245.369	973.838
158.833	23.248	1244.139	974.416
159.848	23.493	1243.793	975.403
160.862	23.212	1243.285	973.377
161.877	23.110	1242.137	971.827
162.892	22.879	1239.723	968.588
163.906	22.682	1239.005	966.865
164.921	22.734	1237.954	966.240
165.935	22.870	1237.395	966.461
166.950	22.963	1237.461	966.941
167.964	23.152	1236.169	966.878
168.979	22.935	1235.847	965.352
169.994	22.886	1235.641	964.837
171.008	22.894	1234.067	963.569
172.023	23.091	1233.852	964.391
173.037	23.429	1233.443	965.828
174.052	23.149	1233.242	964.056
175.067	22.872	1230.903	960.640
176.081	22.864	1230.537	960.221
177.096	22.658	1229.091	957.890
178.110	22.538	1228.553	956.738
179.125	22.863	1226.858	957.095
180.140	23.135	1226.842	958.468
181.154	23.219	1226.726	958.747
182.169	23.330	1225.870	958.597
183.183	23.354	1224.114	957.268
184.198	23.549	1221.723	956.362
185.213	23.247	1222.653	955.381
186.227	23.265	1220.808	953.951
187.242	23.563	1219.151	954.173
188.256	23.521	1219.272	953.958
189.271	23.308	1218.989	952.505
190.286	23.192	1216.795	950.087
191.300	23.012	1215.438	947.978
192.315	22.956	1215.981	948.018
193.329	22.938	1214.803	946.918
194.344	22.731	1213.732	944.887
195.359	22.906	1213.489	945.551
196.373	22.745	1213.294	944.459
197.388	22.778	1212.311	943.783
198.402	23.047	1212.800	945.521
199.417	23.466	1212.453	947.407
200.432	23.806	1211.906	948.708
201.446	23.653	1211.455	947.455
202.461	23.728	1210.869	947.316
203.475	23.823	1208.566	945.936
204.490	23.280	1208.251	942.713
205.504	23.191	1206.114	940.491
206.519	22.805	1207.226	939.222
207.534	22.939	1204.542	937.762
208.548	22.784	1203.437	935.996
209.563	22.802	1202.988	935.660
210.577	22.747	1202.589	934.976
211.592	22.937	1202.386	935.739
212.607	23.299	1201.529	936.908
213.621	23.301	1200.583	936.096
214.636	23.242	1198.872	934.366
215.650	22.961	1198.639	932.620
216.665	23.247	1198.071	933.606
217.680	23.679	1197.731	935.534
218.694	23.840	1196.394	935.252
219.709	23.467	1196.575	933.348
220.723	23.580	1194.407	932.171
221.738	23.424	1193.761	930.762
222.753	23.189	1193.554	929.287
223.767	23.207	1193.152	928.984
224.782	23.434	1192.017	929.207
225.796	23.740	1192.035	930.746
226.811	23.815	1190.652	929.976
227.826	23.683	1189.682	928.446
228.840	23.320	1189.192	926.084
229.855	23.376	1188.046	925.399
230.869	23.353	1187.751	924.971
231.884	23.228	1186.294	923.103
232.899	22.717	1185.638	919.847
233.913	22.834	1185.436	920.218
234.928	22.799	1184.925	919.558
235.942	22.756	1183.847	918.414
236.957	22.596	1183.022	916.861
237.972	22.391	1181.536	914.564
238.986	22.817	1181.350	916.550
240.001	22.761	1180.986	915.897
241.015	22.859	1179.648	915.285
242.030	22.802	1179.662	914.922
243.045	22.978	1178.878	915.142
244.059	23.231	1178.329	915.947
245.074	23.272	1177.283	915.262
246.088	23.502	1176.374	915.663
247.103	23.612	1175.898	915.780
248.117	23.503	1175.460	914.797
249.132	24.130	1174.774	917.409
250.147	24.215	1174.118	917.256
251.161	24.236	1174.020	917.205
252.176	24.342	1173.244	917.062
253.190	24.557	1171.798	916.955
254.205	24.573	1171.542	916.757
255.220	24.491	1173.286	917.621
256.234	24.393	1171.772	915.848
257.249	24.321	1171.562	915.235
258.263	24.320	1169.474	913.517
259.278	24.234	1169.225	912.801
260.293	24.237	1169.655	913.075
261.307	24.447	1167.503	912.387
262.322	24.515	1167.011	912.269
263.336	24.309	1166.855	911.012
264.351	24.404	1166.860	911.420
265.366	24.445	1165.488	910.479
266.380	24.227	1165.209	909.068
267.395	24.182	1165.381	908.892
268.409	23.997	1163.641	906.511
269.424	24.192	1162.353	906.422
270.439	24.073	1162.179	905.598
271.453	24.036	1160.791	904.248
272.468	23.865	1160.854	903.351
273.482	23.765	1159.680	901.847
274.497	23.763	1158.914	901.166
275.512	23.809	1158.032	900.628
276.526	23.758	1157.798	900.112
277.541	23.765	1157.313	899.690
278.555	23.794	1157.596	899.974
279.570	24.197	1157.194	901.626
280.585	24.416	1155.427	901.275
281.599	24.494	1154.614	900.954
282.614	24.122	1152.619	897.443
283.628	23.717	1151.958	894.811
284.643	24.038	1150.564	895.261
285.657	23.871	1150.494	894.287
286.672	24.153	1149.222	894.639
287.687	24.005	1149.077	893.702
288.701	24.214	1147.665	893.574
289.716	23.987	1146.800	891.684
290.730	24.267	1146.128	892.482
291.745	24.015	1145.179	890.403
292.760	24.359	1144.482	891.503
293.774	24.157	1145.312	891.060
294.789	24.229	1144.750	890.906
295.803	24.023	1143.860	889.104
296.818	24.024	1142.943	888.319
297.833	24.162	1142.199	888.351
298.847	24.087	1140.845	886.844
299.862	24.041	1139.991	885.874
300.876	23.984	1140.475	885.887
301.891	24.081	1139.808	885.774
302.906	24.416	1138.730	886.519
303.920	24.417	1138.145	885.994
304.935	24.695	1137.857	887.069
305.949	24.721	1137.936	887.182
306.964	24.560	1136.387	885.099
307.979	24.476	1135.176	883.659
308.993	24.319	1135.482	883.044
310.008	24.555	1134.000	882.981
311.022	24.651	1133.806	883.226
312.037	24.236	1134.255	881.442
313.052	24.221	1132.809	880.168
314.066	23.978	1131.184	877.628
315.081	23.686	1129.851	875.077
316.095	23.427	1129.660	873.578
317.110	23.874	1128.541	874.833
318.125	23.885	1126.941	873.571
319.139	23.948	1126.288	873.298
320.154	23.889	1126.359	872.982
321.168	23.826	1126.081	872.381
322.183	23.824	1125.879	872.136
323.197	23.980	1124.513	871.769
324.212	24.016	1123.441	871.035
325.227	24.218	1123.726	872.171
326.241	23.874	1122.835	869.719
327.256	23.988	1122.813	870.179
328.270	23.731	1121.224	867.617
329.285	23.981	1119.677	867.561
330.300	23.992	1118.933	866.964
331.314	24.029	1118.365	866.628
332.329	23.819	1117.449	864.821
333.343	24.074	1116.790	865.473
334.358	24.227	1116.080	865.588
335.373	24.380	1115.906	866.119
336.387	24.545	1114.686	865.894
337.402	24.571	1114.234	865.595
338.416	24.662	1113.782	865.607
339.431	24.599	1113.635	865.112
340.446	24.903	1112.707	865.786
341.460	25.028	1112.182	865.902
342.475	25.328	1111.594	866.820
343.489	25.305	1111.336	866.426
344.504	25.070	1110.216	864.344
345.519	25.338	1109.668	865.132
346.533	25.139	1108.517	863.203
347.548	24.985	1108.709	862.534
348.562	24.781	1108.155	861.044
349.577	24.735	1105.943	859.029
350.592	24.456	1105.835	857.530
351.606	24.454	1104.268	856.227
352.621	24.439	1102.903	855.020
353.635	24.215	1102.432	853.507
354.650	24.346	1101.159	853.076
355.665	24.176	1102.037	852.866
356.679	24.442	1100.313	852.729
357.694	24.773	1100.086	854.054
358.708	24.654	1100.587	853.799
359.723	24.649	1099.920	853.185
360.738	24.465	1099.218	851.685
361.752	24.564	1097.904	851.064
362.767	24.884	1096.539	851.451
363.781	24.437	1096.884	849.520
364.796	24.747	1097.488	851.387
365.810	25.176	1096.325	852.447
366.825	25.218	1096.567	852.760
367.840	25.062	1096.560	851.939
368.854	25.259	1095.325	851.838
369.869	25.210	1094.802	851.124
370.883	25.028	1093.720	849.344
371.898	25.185	1091.797	848.520
372.913	25.201	1090.328	847.377
373.927	25.022	1090.846	846.862
374.942	25.169	1090.827	847.468
375.956	25.268	1090.379	847.510
376.971	25.081	1090.243	846.448
377.986	24.991	1089.665	845.495
379.000	25.479	1088.631	846.922
380.015	25.440	1088.011	846.180
381.029	25.559	1088.569	847.102
382.044	25.395	1087.332	845.292
383.059	25.364	1086.263	844.239
384.073	25.264	1086.076	843.550
385.088	25.206	1084.870	842.267
386.102	25.494	1083.885	842.776
387.117	25.069	1082.177	839.382
388.132	24.922	1080.970	837.685
389.146	24.773	1080.829	836.807
390.161	24.357	1080.196	834.298
391.175	24.908	1079.340	836.135
392.190	25.116	1079.193	836.920
393.205	25.432	1077.898	837.312
394.219	25.608	1077.400	837.673
395.234	24.992	1076.673	834.167
396.248	25.064	1075.010	833.138
397.263	24.932	1074.126	831.768
398.278	24.612	1074.039	830.137
399.292	24.729	1073.733	830.370
400.307	25.014	1072.725	830.842
401.321	24.992	1071.033	829.353
402.336	24.710	1070.541	827.595
403.350	24.369	1070.617	826.002
404.365	24.847	1069.736	827.462
405.380	24.965	1068.954	827.328
406.394	25.108	1068.304	827.413
407.409	25.312	1067.629	827.755
408.423	25.395	1067.876	828.256
409.438	25.491	1067.632	828.435
410.453	25.490	1066.309	827.334
411.467	25.428	1065.584	826.409
412.482	25.332	1065.224	825.616
413.496	25.525	1064.702	826.025
414.511	25.843	1063.665	826.610
415.526	25.741	1063.780	826.158
416.540	26.032	1063.379	827.106
417.555	26.087	1062.644	826.714
418.569	25.519	1061.617	823.243
419.584	25.465	1062.059	823.262
420.599	25.833	1060.057	823.323
421.613	154.112	1403.566	1794.080
422.628	141.644	1453.601	1794.134
