DTS Sentinel unit serial number:	SN413079Multiplexer serial number:	ORYXHardware model number:	OX4-SRSoftware version number:	ORYX F/W v4.00 Oryx Data Collector v3.7.2.0data status	okinstallation	princeton_trtdifferential loss correction	single-endedforward channel	channel 2reverse channel	N/Adate	2019/09/18time	08:27:34forward acquisition time	60.00reverse acquisition time	0.00gamma	496.2192k internal	0.2341k external	0.2341temperature offset calibration	0.9978default loss term (dB/km)	0.3790temperature slope calibration	1.0000multiplexer offset coefficient	1.0000multiplexer slope coefficient	1.0000fibre end	0.00T internal ref (°C)	24.25T ext. ref 1 (°C)	0.22T ext. ref 2 (°C)	19.97length (m)	temperature (°C)	Stokes	anti-Stokes-747.200	60.683	0.288	-0.286
-746.185	2.939	-0.382	0.278
-745.171	-123.801	-0.321	0.051
-744.156	-200.000	0.017	0.239
-743.142	-200.000	-0.012	0.092
-742.127	68.367	0.161	0.165
-741.112	-118.658	-0.046	0.008
-740.098	-51.425	0.074	0.034
-739.083	-33.805	-0.149	0.082
-738.069	-200.000	0.049	-0.358
-737.054	-121.344	-0.193	0.032
-736.039	-180.607	-0.263	0.005
-735.025	-18.588	0.069	0.043
-734.010	-74.361	-0.285	0.103
-732.996	118.148	-0.319	0.394
-731.981	452.216	0.121	-0.268
-730.966	629.614	-0.047	-0.118
-729.952	193.367	-0.164	-0.249
-728.937	-81.262	-0.114	-0.038
-727.923	-71.254	-0.061	0.023
-726.908	-200.000	-0.005	-0.175
-725.894	-101.181	-0.238	0.058
-724.879	-82.914	-0.153	0.049
-723.864	800.000	0.097	-0.330
-722.850	67.915	-0.046	-0.047
-721.835	-128.886	0.316	0.044
-720.821	-71.264	0.264	-0.099
-719.806	-200.000	-0.006	0.061
-718.791	-200.000	0.007	0.115
-717.777	-144.783	-0.259	0.024
-716.762	394.693	0.043	0.089
-715.748	-60.201	0.172	0.073
-714.733	-200.000	-0.015	-0.138
-713.718	-137.059	-0.511	-0.059
-712.704	-103.788	0.404	-0.095
-711.689	-119.254	0.301	-0.053
-710.675	127.929	-0.075	-0.096
-709.660	110.232	-0.043	-0.051
-708.645	-200.000	0.065	0.326
-707.631	73.761	0.155	-0.163
-706.616	-0.428	0.209	-0.148
-705.602	-200.000	0.035	0.300
-704.587	800.000	0.059	-0.242
-703.572	-200.000	0.016	0.081
-702.558	117.617	0.054	-0.066
-701.543	-32.915	0.091	0.051
-700.529	-200.000	0.043	-0.203
-699.514	330.363	-0.049	-0.095
-698.499	-200.000	0.024	-0.254
-697.485	134.707	-0.261	-0.338
-696.470	800.000	-0.096	-0.311
-695.456	475.996	0.167	0.378
-694.441	800.000	0.085	-0.238
-693.426	-35.400	-0.113	-0.062
-692.412	-123.343	-0.130	-0.021
-691.397	-200.000	0.054	0.341
-690.383	-87.666	0.354	0.107
-689.368	229.079	-0.233	-0.381
-688.354	310.660	0.162	-0.303
-687.339	-200.000	0.009	-0.141
-686.324	-70.055	-0.053	-0.020
-685.310	38.809	0.229	0.205
-684.295	-166.237	-0.293	0.012
-683.281	365.052	0.030	-0.060
-682.266	36.603	0.153	-0.135
-681.251	800.000	0.072	0.245
-680.237	422.403	-0.167	-0.359
-679.222	360.814	-0.105	0.211
-678.208	-39.294	-0.033	0.017
-677.193	330.330	0.103	0.198
-676.178	18.270	-0.154	-0.123
-675.164	800.000	-0.032	-0.093
-674.149	800.000	0.123	-0.505
-673.135	-200.000	0.020	0.187
-672.120	17.785	-0.107	-0.085
-671.105	-200.000	-0.020	0.111
-670.091	163.853	-0.055	-0.077
-669.076	-165.516	-0.305	-0.013
-668.062	800.000	0.058	0.249
-667.047	-156.519	-0.130	0.008
-666.032	109.594	-0.124	0.149
-665.018	-159.316	-0.213	-0.012
-664.003	-200.000	0.011	-0.124
-662.989	232.474	-0.064	-0.104
-661.974	-200.000	-0.068	0.374
-660.959	131.635	-0.102	0.131
-659.945	-200.000	0.024	-0.299
-658.930	-60.816	0.073	0.031
-657.916	-200.000	0.022	-0.180
-656.901	170.026	0.123	-0.176
-655.886	800.000	-0.077	0.229
-654.872	-103.735	-0.338	-0.079
-653.857	800.000	-0.069	-0.266
-652.843	49.808	0.297	-0.280
-651.828	-117.583	0.255	0.046
-650.814	39.811	0.104	-0.093
-649.799	-40.163	0.161	-0.084
-648.784	36.761	-0.211	-0.186
-647.770	-20.196	0.043	-0.027
-646.755	-68.161	0.257	-0.100
-645.741	-119.122	-0.361	0.063
-644.726	-191.146	0.208	0.002
-643.711	-93.893	-0.175	-0.048
-642.697	40.779	-0.192	-0.172
-641.682	-40.432	-0.176	-0.091
-640.668	-70.505	0.222	-0.084
-639.653	6.766	-0.159	-0.118
-638.638	-187.284	-0.126	-0.002
-637.624	162.218	0.055	-0.076
-636.609	-200.000	-0.003	-0.030
-635.595	-200.000	0.036	-0.163
-634.580	-99.003	-0.499	-0.126
-633.565	237.623	-0.054	0.089
-632.551	800.000	0.023	0.093
-631.536	-149.448	-0.288	0.023
-630.522	195.061	-0.089	-0.134
-629.507	128.417	0.186	0.236
-628.492	-117.633	-0.430	-0.077
-627.478	800.000	0.092	-0.254
-626.463	118.757	0.095	-0.117
-625.449	22.625	-0.178	-0.145
-624.434	800.000	-0.074	-0.314
-623.419	194.820	0.224	0.339
-622.405	-51.020	0.071	-0.033
-621.390	52.076	0.049	0.046
-620.376	-33.847	0.187	-0.103
-619.361	-172.070	-0.278	0.009
-618.346	480.574	-0.064	-0.145
-617.332	127.265	-0.146	-0.184
-616.317	35.124	-0.084	0.074
-615.303	60.811	0.070	0.069
-614.288	-200.000	0.018	-0.168
-613.273	-81.107	-0.104	0.034
-612.259	-83.857	-0.260	0.083
-611.244	-200.000	-0.003	-0.165
-610.230	-200.000	-0.030	-0.378
-609.215	-114.712	-0.221	-0.042
-608.201	436.986	0.100	0.217
-607.186	30.331	-0.376	0.320
-606.171	-71.292	-0.272	0.102
-605.157	121.774	0.076	0.095
-604.142	-50.290	-0.148	0.070
-603.128	-106.304	-0.066	-0.015
-602.113	256.309	-0.019	-0.033
-601.098	-128.124	0.437	0.062
-600.084	-200.000	-0.005	0.246
-599.069	106.062	-0.157	-0.185
-598.055	-115.710	0.201	0.038
-597.040	-106.668	-0.307	0.068
-596.025	800.000	-0.016	0.067
-595.011	-159.325	0.049	-0.003
-593.996	245.462	-0.090	-0.151
-592.982	-184.371	-0.159	-0.003
-591.967	-27.427	-0.145	-0.084
-590.952	38.944	0.145	-0.129
-589.938	-83.559	0.040	-0.013
-588.923	-200.000	0.036	-0.224
-587.909	85.820	-0.059	0.065
-586.894	171.811	0.127	-0.181
-585.879	18.274	-0.197	0.156
-584.865	-200.000	0.018	0.396
-583.850	441.292	-0.043	-0.093
-582.836	-102.702	0.370	0.088
-581.821	85.822	0.125	0.137
-580.806	-6.733	-0.029	-0.020
-579.792	800.000	0.024	-0.086
-578.777	43.395	0.137	-0.124
-577.763	-40.948	-0.123	-0.064
-576.748	-200.000	0.017	-0.289
-575.733	-53.023	-0.173	-0.079
-574.719	-141.040	0.124	-0.013
-573.704	-200.000	-0.034	0.149
-572.690	800.000	0.057	0.184
-571.675	3.848	-0.211	-0.153
-570.661	557.325	0.136	-0.327
-569.646	800.000	0.067	0.240
-568.631	-165.575	0.279	-0.012
-567.617	310.532	0.115	-0.215
-566.602	-5.086	0.321	-0.220
-565.588	25.193	0.341	0.282
-564.573	-200.000	-0.039	-0.316
-563.558	363.224	0.186	-0.372
-562.544	28.888	0.341	0.287
-561.529	-106.321	0.167	0.037
-560.515	91.075	-0.337	-0.376
-559.500	-200.000	-0.065	-0.345
-558.485	63.463	-0.118	-0.118
-557.471	163.286	-0.158	-0.221
-556.456	-200.000	-0.033	-0.410
-555.442	89.310	-0.213	0.236
-554.427	-90.314	0.279	0.081
-553.412	-107.308	-0.173	-0.038
-552.398	-15.473	0.114	0.072
-551.383	631.232	0.041	0.104
-550.369	-200.000	0.037	0.233
-549.354	107.183	-0.122	0.145
-548.339	-36.006	0.162	0.087
-547.325	-5.184	0.022	-0.015
-546.310	-200.000	0.014	-0.094
-545.296	-110.828	-0.159	-0.033
-544.281	-127.059	0.266	-0.039
-543.266	-200.000	0.071	-0.389
-542.252	214.411	0.045	-0.071
-541.237	35.873	0.206	0.181
-540.223	28.703	-0.176	-0.148
-539.208	-200.000	-0.045	-0.225
-538.193	99.475	-0.020	-0.023
-537.179	83.134	0.163	0.177
-536.164	800.000	-0.069	-0.263
-535.150	488.365	-0.067	-0.152
-534.135	5.425	0.292	0.214
-533.121	-75.405	-0.176	0.062
-532.106	-97.694	-0.080	-0.021
-531.091	-46.827	-0.481	-0.234
-530.077	-138.792	0.436	0.047
-529.062	-152.869	-0.128	-0.009
-528.048	3.760	-0.217	-0.158
-527.033	-200.000	-0.005	-0.032
-526.018	134.123	0.123	-0.159
-525.004	-25.709	0.158	-0.092
-523.989	406.159	0.095	0.199
-522.975	800.000	0.015	0.059
-521.960	-104.624	0.113	-0.026
-520.945	-200.000	-0.007	0.240
-519.931	-26.641	0.335	-0.194
-518.916	800.000	-0.072	-0.204
-517.902	-96.358	0.173	0.046
-516.887	531.265	0.044	0.103
-515.872	800.000	0.077	0.306
-514.858	211.073	-0.243	0.379
-513.843	-126.785	-0.103	0.015
-512.829	1.375	0.110	-0.078
-511.814	-200.000	-0.007	0.201
-510.799	260.036	-0.087	-0.150
-509.785	493.500	0.079	-0.180
-508.770	19.363	0.212	0.169
-507.756	-200.000	0.007	-0.320
-506.741	49.284	0.290	0.270
-505.726	-26.112	-0.103	0.060
-504.712	-112.714	-0.124	0.024
-503.697	40.899	0.195	-0.175
-502.683	86.161	-0.048	-0.052
-501.668	800.000	-0.045	0.143
-500.653	399.658	0.077	0.160
-499.639	-200.000	-0.017	0.078
-498.624	800.000	-0.143	-0.408
-497.610	-200.000	0.044	0.250
-496.595	210.721	0.175	-0.272
-495.581	800.000	0.054	0.151
-494.566	-49.798	-0.126	-0.059
-493.551	79.970	-0.139	0.148
-492.537	63.653	-0.040	-0.040
-491.522	-200.000	0.018	-0.110
-490.508	-91.985	0.366	-0.103
-489.493	17.956	-0.201	-0.159
-488.478	-200.000	-0.047	0.295
-487.464	-32.558	-0.258	0.142
-486.449	-200.000	0.034	0.349
-485.435	181.561	-0.086	-0.126
-484.420	-200.000	0.024	0.210
-483.405	-61.098	-0.320	-0.134
-482.391	7.877	-0.181	-0.135
-481.376	-200.000	0.060	0.290
-480.362	6.805	-0.309	0.228
-479.347	-175.264	0.242	-0.007
-478.332	103.263	0.088	-0.102
-477.318	800.000	-0.115	-0.389
-476.303	-39.026	-0.206	-0.108
-475.289	-108.540	0.319	-0.068
-474.274	-145.027	-0.328	-0.030
-473.259	497.428	-0.028	0.064
-472.245	34.874	-0.345	-0.299
-471.230	-29.386	0.096	-0.055
-470.216	9.075	0.352	-0.264
-469.201	-35.981	-0.233	-0.125
-468.186	-200.000	-0.029	-0.136
-467.172	800.000	0.086	-0.258
-466.157	800.000	-0.086	0.349
-465.143	560.572	-0.108	-0.258
-464.128	-38.187	0.359	0.189
-463.113	69.076	-0.298	0.303
-462.099	-15.579	0.320	0.202
-461.084	-84.688	0.159	-0.049
-460.070	80.112	0.054	0.058
-459.055	-200.000	0.047	-0.228
-458.040	-199.180	0.155	-0.001
-457.026	-200.000	-0.069	0.633
-456.011	219.111	-0.135	0.214
-454.997	-34.673	-0.164	0.089
-453.982	-125.585	0.183	0.028
-452.968	7.958	0.129	0.096
-451.953	-22.411	-0.211	-0.127
-450.938	-195.830	0.367	-0.003
-449.924	334.372	-0.127	-0.244
-448.909	-200.000	-0.019	-0.148
-447.895	-92.810	0.113	0.031
-446.880	800.000	0.109	0.352
-445.865	-200.000	-0.014	-0.266
-444.851	-9.948	-0.102	-0.067
-443.836	33.165	-0.248	-0.213
-442.822	298.586	-0.016	0.028
-441.807	418.377	0.097	-0.205
-440.792	-100.780	-0.133	0.033
-439.778	-200.000	0.041	-0.216
-438.763	-102.082	-0.184	-0.044
-437.749	-111.309	0.163	0.033
-436.734	-31.292	-0.075	0.042
-435.719	-180.793	-0.188	0.004
-434.705	-47.467	0.090	-0.043
-433.690	-108.812	0.270	-0.057
-432.676	518.336	0.151	0.349
-431.661	-200.000	0.038	-0.347
-430.646	-140.128	-0.113	0.012
-429.632	800.000	0.093	-0.270
-428.617	800.000	-0.039	-0.114
-427.603	-108.792	0.050	0.011
-426.588	-200.000	-0.067	-0.476
-425.573	-97.665	-0.353	-0.091
-424.559	154.225	-0.063	0.085
-423.544	-200.000	0.013	-0.067
-422.530	18.046	0.289	0.228
-421.515	-53.970	-0.298	0.134
-420.500	55.917	0.332	0.319
-419.486	236.641	0.046	0.075
-418.471	132.675	-0.077	-0.098
-417.457	800.000	0.106	0.290
-416.442	-126.054	0.103	-0.015
-415.428	121.967	-0.164	0.203
-414.413	410.539	0.013	-0.028
-413.398	109.029	0.102	0.121
-412.384	-60.273	-0.280	0.118
-411.369	-101.129	0.351	-0.085
-410.355	-200.000	-0.041	-0.346
-409.340	-73.014	-0.206	-0.075
-408.325	-48.238	0.048	0.023
-407.311	83.873	-0.155	0.167
-406.296	11.965	0.162	0.123
-405.282	-200.000	0.034	-0.158
-404.267	-174.923	0.254	0.007
-403.252	104.133	-0.120	0.140
-402.238	-200.000	-0.014	0.164
-401.223	119.502	0.140	0.171
-400.209	230.818	0.229	0.370
-399.194	800.000	0.102	-0.320
-398.179	-43.594	-0.174	-0.087
-397.165	-52.824	0.041	0.019
-396.150	-74.539	0.539	-0.192
-395.136	156.029	-0.027	0.037
-394.121	-79.510	-0.113	0.038
-393.106	300.340	0.087	-0.159
-392.092	-183.319	0.202	0.003
-391.077	-50.827	-0.253	0.118
-390.063	50.913	0.211	0.197
-389.048	-46.025	-0.457	-0.223
-388.033	242.258	-0.073	-0.121
-387.019	501.506	0.185	0.422
-386.004	-200.000	0.056	-0.337
-384.990	-82.580	0.390	-0.125
-383.975	-120.344	-0.381	-0.064
-382.960	86.351	-0.256	0.278
-381.946	-166.068	-0.309	-0.013
-380.931	589.449	0.058	-0.142
-379.917	46.840	-0.131	-0.120
-378.902	-139.628	0.232	0.024
-377.888	-154.731	-0.216	0.014
-376.873	-49.098	-0.117	-0.055
-375.858	33.062	0.066	-0.057
-374.844	-35.159	-0.194	0.105
-373.829	-111.810	0.033	-0.007
-372.815	65.430	-0.218	0.218
-371.800	-60.941	0.361	-0.151
-370.785	221.516	0.157	0.249
-369.771	-135.335	0.024	0.003
-368.756	-68.014	0.341	-0.131
-367.742	498.604	-0.023	-0.052
-366.727	-200.000	0.049	0.237
-365.712	-99.124	-0.057	0.014
-364.698	-107.264	0.136	-0.030
-363.683	-193.310	-0.112	-0.001
-362.669	-200.000	-0.000	0.236
-361.654	81.064	0.151	-0.161
-360.639	-106.888	-0.118	-0.026
-359.625	-178.498	-0.341	-0.008
-358.610	-38.314	-0.295	0.154
-357.596	-14.633	0.175	-0.111
-356.581	36.042	0.362	-0.314
-355.566	158.250	-0.139	0.191
-354.552	-51.730	0.270	0.124
-353.537	797.809	0.045	-0.121
-352.523	-25.157	0.262	0.153
-351.508	-105.392	-0.206	-0.046
-350.493	508.690	0.042	-0.097
-349.479	-130.407	0.447	0.060
-348.464	-52.705	-0.140	0.064
-347.450	800.000	0.036	0.122
-346.435	-116.057	-0.024	0.004
-345.420	49.606	0.118	-0.109
-344.406	404.904	-0.162	0.337
-343.391	304.036	-0.249	0.456
-342.377	625.530	-0.166	0.414
-341.362	29.519	-0.179	0.150
-340.348	-200.000	-0.009	-0.149
-339.333	-100.204	-0.225	-0.055
-338.318	-38.869	-0.397	-0.207
-337.304	27.804	0.064	0.053
-336.289	-69.932	0.168	0.063
-335.275	26.713	0.017	-0.014
-334.260	-54.999	0.268	0.119
-333.245	37.695	-0.170	0.149
-332.231	-200.000	-0.022	0.205
-331.216	18.887	0.181	-0.143
-330.202	421.052	-0.048	0.100
-329.187	-83.414	0.226	0.071
-328.172	-55.283	-0.321	0.142
-327.158	-104.916	0.146	-0.033
-326.143	800.000	0.095	-0.265
-325.129	-96.575	-0.111	0.029
-324.114	-200.000	-0.001	0.190
-323.099	-200.000	0.047	-0.325
-322.085	66.805	0.184	0.184
-321.070	95.066	-0.156	0.175
-320.056	-179.034	-0.157	0.003
-319.041	-23.000	0.079	-0.047
-318.026	-8.801	-0.121	-0.080
-317.012	98.679	0.175	0.199
-315.997	-114.913	0.293	0.055
-314.983	-200.000	-0.006	0.130
-313.968	-200.000	-0.011	-0.102
-312.953	-79.702	-0.361	0.120
-311.939	443.040	-0.118	-0.255
-310.924	-57.802	0.348	0.150
-309.910	-82.592	-0.071	0.023
-308.895	91.814	-0.129	0.143
-307.880	47.205	0.111	-0.102
-306.866	-30.729	-0.189	-0.105
-305.851	54.134	0.138	-0.131
-304.837	546.559	-0.092	0.216
-303.822	-35.677	-0.409	-0.219
-302.807	-176.518	-0.155	-0.004
-301.793	-79.105	-0.166	0.056
-300.778	-200.000	-0.007	-0.398
-299.764	-15.943	-0.145	-0.091
-298.749	-117.793	-0.265	-0.047
-297.735	800.000	-0.037	-0.159
-296.720	-127.697	-0.257	-0.037
-295.705	9.668	0.053	-0.039
-294.691	30.713	0.206	0.173
-293.676	435.101	0.158	0.337
-292.662	-118.084	-0.388	0.068
-291.647	111.199	-0.144	0.171
-290.632	-75.943	0.150	0.052
-289.618	36.317	0.091	0.079
-288.603	111.714	-0.208	0.247
-287.589	-111.623	-0.263	-0.053
-286.574	194.767	0.096	-0.143
-285.559	-79.307	0.089	-0.030
-284.545	-200.000	-0.016	0.309
-283.530	498.676	-0.033	0.075
-282.516	66.278	-0.161	0.161
-281.501	46.597	0.198	-0.181
-280.486	786.976	-0.032	0.087
-279.472	377.887	-0.081	0.162
-278.457	-96.020	-0.151	-0.040
-277.443	-94.367	-0.261	0.070
-276.428	89.313	0.073	-0.080
-275.413	-79.345	0.009	0.003
-274.399	800.000	0.056	-0.161
-273.384	800.000	-0.024	-0.098
-272.370	-200.000	-0.023	0.254
-271.355	321.485	-0.163	0.304
-270.340	2.454	0.397	0.283
-269.326	-55.512	-0.053	0.024
-268.311	-157.486	-0.376	-0.022
-267.297	250.715	0.090	-0.151
-266.282	-72.329	0.348	0.127
-265.267	-145.346	-0.270	0.024
-264.253	-12.104	-0.164	0.106
-263.238	-38.656	0.347	-0.180
-262.224	-55.318	-0.109	0.048
-261.209	-41.893	0.196	0.099
-260.195	559.475	0.103	-0.245
-259.180	39.029	-0.146	-0.128
-258.165	386.194	-0.072	-0.146
-257.151	-96.186	0.203	0.053
-256.136	-68.277	0.101	0.038
-255.122	-69.722	0.213	-0.080
-254.107	800.000	0.088	-0.257
-253.092	800.000	0.137	0.405
-252.078	-84.475	0.163	0.050
-251.063	-175.222	0.036	-0.001
-250.049	-93.031	-0.111	0.030
-249.034	23.138	0.200	0.162
-248.019	-200.000	-0.001	-0.150
-247.005	101.597	0.056	-0.064
-245.990	-200.000	-0.005	-0.132
-244.976	184.010	-0.079	0.114
-243.961	-33.654	-0.420	-0.228
-242.946	800.000	0.095	0.277
-241.932	50.997	0.228	0.212
-240.917	-53.037	-0.222	0.100
-239.903	-98.705	0.321	0.080
-238.888	408.713	-0.081	0.169
-237.873	-200.000	-0.009	-0.151
-236.859	-150.895	-0.091	-0.007
-235.844	-200.000	-0.029	-0.158
-234.830	-85.491	-0.257	-0.079
-233.815	-200.000	0.033	0.405
-232.800	120.561	-0.062	0.076
-231.786	203.853	-0.179	0.272
-230.771	-75.353	0.112	-0.039
-229.757	45.479	-0.299	0.271
-228.742	-154.261	0.174	-0.011
-227.727	727.053	0.065	-0.170
-226.713	-53.642	0.303	-0.136
-225.698	195.959	0.199	-0.297
-224.684	407.075	-0.175	-0.363
-223.669	-165.566	-0.127	-0.005
-222.655	-200.000	0.002	-0.155
-221.640	131.704	-0.050	0.064
-220.625	800.000	-0.089	0.278
-219.611	194.958	0.154	-0.229
-218.596	21.454	0.226	0.181
-217.582	44.345	-0.281	-0.254
-216.567	800.000	-0.052	0.165
-215.552	763.566	-0.083	-0.221
-214.538	-106.499	0.334	-0.073
-213.523	-129.377	0.312	-0.042
-212.509	152.326	-0.028	-0.037
-211.494	-25.965	-0.059	-0.034
-210.479	800.000	0.028	0.088
-209.465	49.296	-0.176	-0.162
-208.450	-63.827	0.187	0.075
-207.436	-200.000	0.073	0.338
-206.421	-91.092	0.151	-0.042
-205.406	177.064	-0.243	0.347
-204.392	31.971	0.209	0.177
-203.377	25.985	0.320	0.262
-202.363	178.952	-0.109	0.156
-201.348	-37.749	0.245	0.128
-200.333	-87.301	-0.209	-0.062
-199.319	-69.553	0.215	0.081
-198.304	-200.000	-0.076	-0.330
-197.290	800.000	-0.024	0.101
-196.275	529.678	-0.126	-0.293
-195.260	112.201	-0.017	0.020
-194.246	146.493	-0.017	-0.022
-193.231	36.748	0.387	-0.335
-192.217	-37.260	-0.133	-0.070
-191.202	688.186	-0.039	-0.099
-190.187	-72.933	0.083	-0.030
-189.173	800.000	-0.091	0.286
-188.158	-118.881	0.336	-0.058
-187.144	-14.541	-0.256	0.161
-186.129	71.051	0.222	0.225
-185.114	800.000	0.034	-0.134
-184.100	67.895	0.060	0.060
-183.085	-114.276	0.163	-0.031
-182.071	-200.000	0.009	-0.178
-181.056	60.972	0.213	-0.207
-180.042	-43.476	0.095	-0.047
-179.027	800.000	0.065	0.188
-178.012	35.272	-0.153	-0.131
-176.998	-200.000	-0.038	-0.325
-175.983	800.000	0.045	-0.188
-174.969	-140.122	-0.342	-0.035
-173.954	-105.743	0.354	-0.078
-172.939	800.000	-0.039	-0.128
-171.925	-200.000	-0.003	0.082
-170.910	366.997	0.199	0.394
-169.896	800.000	-0.103	0.385
-168.881	-43.413	-0.318	0.158
-167.866	-147.980	0.383	0.031
-166.852	800.000	-0.088	0.257
-165.837	-200.000	-0.051	0.398
-164.823	-200.000	0.055	0.241
-163.808	515.131	0.091	-0.209
-162.793	800.000	0.060	-0.177
-161.779	-135.168	0.356	-0.042
-160.764	-154.774	-0.079	-0.005
-159.750	-134.905	0.104	0.012
-158.735	-126.006	-0.168	-0.025
-157.720	-200.000	0.015	-0.133
-156.706	-76.403	-0.183	0.063
-155.691	-153.841	0.298	0.020
-154.677	78.268	-0.289	-0.303
-153.662	-0.699	-0.033	0.023
-152.647	-153.959	-0.281	0.019
-151.633	1.050	0.135	0.095
-150.618	492.220	-0.043	0.098
-149.604	800.000	-0.090	0.298
-148.589	-200.000	-0.010	0.317
-147.574	-200.000	0.054	0.275
-146.560	22.560	0.063	0.050
-145.545	-200.000	0.028	0.224
-144.531	-178.044	0.099	0.002
-143.516	571.323	0.159	-0.379
-142.502	573.352	-0.108	-0.259
-141.487	-46.056	-0.161	0.078
-140.472	-58.583	0.384	-0.163
-139.458	-170.074	-0.219	0.008
-138.443	170.838	-0.250	-0.351
-137.429	-200.000	0.022	0.145
-136.414	-200.000	-0.055	0.334
-135.399	78.988	0.094	0.098
-134.385	800.000	0.081	-0.237
-133.370	101.667	-0.073	-0.083
-132.356	800.000	-0.033	-0.121
-131.341	-152.067	0.395	0.028
-130.326	-46.135	-0.122	-0.059
-129.312	-200.000	0.015	0.118
-128.297	-200.000	0.020	0.102
-127.283	-70.336	0.242	0.090
-126.268	259.183	-0.106	0.178
-125.253	-200.000	-0.016	-0.184
-124.239	48.443	-0.144	-0.132
-123.224	-17.970	0.145	-0.089
-122.210	179.794	0.197	-0.282
-121.195	-167.559	0.185	-0.007
-120.180	800.000	0.102	-0.422
-119.166	167.122	-0.092	-0.127
-118.151	-83.730	0.270	0.084
-117.137	90.266	-0.391	0.428
-116.122	-96.903	0.155	-0.040
-115.107	-121.487	-0.240	-0.039
-114.093	440.644	-0.021	0.044
-113.078	-200.000	-0.082	0.445
-112.064	-100.811	-0.083	-0.020
-111.049	2.252	0.155	-0.110
-110.034	-31.911	0.105	0.057
-109.020	8.795	0.105	0.078
-108.005	-29.591	-0.055	-0.030
-106.991	-200.000	-0.006	0.356
-105.976	-139.674	0.148	0.015
-104.962	-200.000	-0.012	0.115
-103.947	-200.000	0.186	0.000
-102.932	-55.208	-0.197	-0.087
-101.918	800.000	-0.007	-0.030
-100.903	-22.995	-0.022	0.013
-99.889	800.000	0.010	0.032
-98.874	-200.000	0.006	0.087
-97.859	-67.643	0.278	-0.106
-96.845	44.296	0.102	-0.091
-95.830	86.199	0.068	0.073
-94.816	185.453	0.124	0.180
-93.801	82.282	-0.096	0.101
-92.786	88.562	0.200	-0.217
-91.772	-120.799	0.039	0.006
-90.757	-3.979	0.022	-0.015
-89.743	253.363	-0.057	-0.095
-88.728	201.300	0.075	-0.112
-87.713	47.249	0.159	-0.145
-86.699	716.944	0.079	0.204
-85.684	-139.494	0.363	0.038
-84.670	256.410	-0.076	0.128
-83.655	-111.246	0.100	-0.020
-82.640	800.000	-0.071	0.293
-81.626	76.128	-0.015	-0.016
-80.611	12.047	-0.341	0.256
-79.597	-52.010	-0.221	0.100
-78.582	800.000	0.185	0.644
-77.567	-200.000	-0.012	0.196
-76.553	-108.405	0.234	-0.049
-75.538	-200.000	0.002	-0.080
-74.524	182.465	-0.096	0.138
-73.509	43.643	-0.144	0.128
-72.494	-67.063	0.174	0.067
-71.480	16.970	0.230	0.178
-70.465	-200.000	0.038	0.180
-69.451	-19.179	0.304	0.184
-68.436	-138.800	-0.164	-0.017
-67.422	-102.211	-0.186	0.044
-66.407	-87.307	0.089	0.026
-65.392	800.000	0.058	0.159
-64.378	-200.000	-0.031	-0.294
-63.363	-82.309	-0.086	0.027
-62.349	-152.995	0.305	0.021
-61.334	118.822	-1.175	-1.416
-60.319	22.779	0.558	0.446
-59.305	156.198	-0.688	-0.926
-58.290	800.000	0.477	1.321
-57.276	408.879	0.726	1.500
-56.261	-200.000	121.314	615.402
-55.246	393.493	1561.480	3169.974
-54.232	141.638	2736.161	3534.738
-53.217	88.802	2312.464	2508.602
-52.203	33.119	1916.727	1620.502
-51.188	27.215	1709.893	1400.264
-50.173	25.074	1669.121	1350.707
-49.159	44.622	1734.583	1554.910
-48.144	42.988	1748.162	1554.419
-47.130	26.708	1700.240	1388.256
-46.115	24.293	1684.753	1357.200
-45.100	24.193	1679.568	1352.213
-44.086	24.155	1677.077	1349.859
-43.071	24.179	1674.300	1347.751
-42.057	24.071	1672.186	1345.186
-41.042	24.092	1670.057	1343.572
-40.027	24.089	1668.335	1342.111
-39.013	24.098	1666.541	1340.683
-37.998	24.274	1664.445	1340.273
-36.984	24.164	1663.383	1338.532
-35.969	24.173	1662.180	1337.582
-34.954	24.296	1660.392	1337.013
-33.940	24.139	1658.996	1334.661
-32.925	24.239	1656.897	1333.669
-31.911	24.334	1654.980	1332.783
-30.896	24.268	1653.889	1331.357
-29.881	24.281	1652.154	1330.000
-28.867	24.253	1650.395	1328.328
-27.852	24.228	1649.392	1327.281
-26.838	24.220	1647.791	1325.875
-25.823	24.321	1646.142	1325.248
-24.809	24.296	1644.865	1323.986
-23.794	24.211	1644.038	1322.632
-22.779	24.263	1642.427	1321.668
-21.765	24.268	1640.569	1320.159
-20.750	24.270	1638.828	1318.721
-19.736	24.272	1637.535	1317.645
-18.721	24.334	1636.271	1317.031
-17.706	24.299	1634.856	1315.583
-16.692	24.275	1633.160	1313.988
-15.677	24.297	1631.323	1312.624
-14.663	24.301	1630.491	1311.926
-13.648	24.280	1629.039	1310.553
-12.633	24.223	1627.656	1308.968
-11.619	24.182	1625.994	1307.283
-10.604	24.275	1623.830	1306.175
-9.590	24.246	1623.097	1305.319
-8.575	24.320	1621.834	1304.792
-7.560	24.294	1620.293	1303.310
-6.546	24.278	1619.708	1302.669
-5.531	24.267	1618.348	1301.445
-4.517	24.292	1617.238	1300.685
-3.502	24.368	1615.852	1300.068
-2.487	24.295	1614.473	1298.374
-1.473	24.094	1602.541	1287.279
-0.458	21.589	1583.653	1254.133
0.556	16.901	1585.948	1226.720
1.571	14.777	1610.609	1230.063
2.586	14.387	1623.135	1236.625
3.600	13.095	1568.352	1185.511
4.615	7.237	1458.840	1063.410
5.629	1.343	1398.717	981.480
6.644	0.271	1391.525	969.454
7.659	0.187	1390.465	968.088
8.673	0.218	1389.047	967.217
9.688	0.194	1386.836	965.433
10.702	-0.033	1383.683	961.702
11.717	2.876	1387.727	983.072
12.731	10.044	1398.756	1036.921
13.746	15.393	1406.357	1076.885
14.761	16.610	1407.799	1085.705
15.775	16.137	1405.686	1080.951
16.790	15.156	1403.212	1072.672
17.804	14.453	1400.753	1066.206
18.819	14.033	1399.645	1062.581
19.834	13.875	1397.739	1060.030
20.848	13.553	1396.644	1057.050
21.863	13.433	1394.652	1054.686
22.877	13.204	1393.923	1052.585
23.892	13.094	1393.468	1051.444
24.907	13.152	1392.711	1051.153
25.921	13.134	1391.268	1049.854
26.936	13.204	1390.966	1049.980
27.950	13.134	1390.099	1048.787
28.965	13.206	1388.787	1048.159
29.980	13.344	1388.061	1048.394
30.994	13.418	1386.386	1047.507
32.009	13.437	1385.926	1047.186
33.023	13.430	1384.538	1046.000
34.038	13.320	1383.873	1044.709
35.053	13.257	1382.398	1043.110
36.067	13.300	1381.568	1042.658
37.082	13.260	1380.739	1041.689
38.096	13.359	1379.184	1041.045
39.111	13.297	1378.630	1040.150
40.126	13.246	1377.381	1038.794
41.140	13.126	1376.894	1037.578
42.155	13.226	1376.128	1037.536
43.169	13.058	1376.598	1036.744
44.184	13.226	1376.109	1037.340
45.199	13.170	1375.477	1036.422
46.213	13.098	1375.285	1035.735
47.228	13.235	1374.012	1035.541
48.242	13.218	1372.817	1034.445
49.257	13.190	1371.333	1033.059
50.271	13.229	1370.026	1032.225
51.286	13.187	1368.775	1030.932
52.301	13.186	1367.501	1029.870
53.315	13.122	1366.240	1028.434
54.330	13.150	1365.511	1027.967
55.344	13.115	1363.915	1026.455
56.359	13.080	1363.199	1025.610
57.374	13.154	1362.332	1025.324
58.388	13.062	1361.607	1024.122
59.403	12.999	1361.235	1023.357
60.417	12.992	1359.920	1022.239
61.432	13.074	1358.943	1021.916
62.447	13.063	1357.990	1021.044
63.461	12.904	1356.898	1019.151
64.476	12.960	1355.754	1018.547
65.490	13.059	1354.425	1018.068
66.505	13.132	1352.431	1016.927
67.520	13.083	1351.296	1015.685
68.534	13.109	1350.333	1015.031
69.549	13.179	1349.413	1014.680
70.563	13.051	1348.316	1012.980
71.578	13.029	1347.190	1011.910
72.593	13.026	1346.325	1011.147
73.607	12.939	1345.280	1009.746
74.622	13.083	1344.425	1009.892
75.636	13.017	1343.809	1008.940
76.651	12.992	1343.342	1008.348
77.666	13.031	1342.630	1007.959
78.680	12.966	1342.442	1007.330
79.695	13.067	1341.300	1007.002
80.709	13.092	1340.183	1006.224
81.724	13.156	1339.428	1005.961
82.739	13.061	1339.067	1005.024
83.753	13.200	1337.606	1004.682
84.768	13.234	1336.625	1004.065
85.782	13.252	1335.208	1003.017
86.797	13.181	1333.873	1001.497
87.812	13.097	1332.921	1000.183
88.826	13.129	1331.719	999.387
89.841	13.158	1330.834	998.814
90.855	13.255	1330.098	998.756
91.870	13.220	1328.778	997.463
92.884	13.269	1327.910	997.021
93.899	13.328	1327.171	996.731
94.914	13.198	1326.724	995.529
95.928	13.430	1325.040	995.568
96.943	13.257	1324.301	993.887
97.957	13.389	1323.106	993.692
98.972	13.220	1322.385	992.051
99.987	13.342	1321.118	991.743
101.001	13.292	1320.501	990.893
102.016	13.194	1319.610	989.551
103.030	13.273	1318.626	989.199
104.045	13.251	1317.769	988.337
105.060	13.163	1316.102	986.472
106.074	13.162	1315.069	985.604
107.089	13.093	1313.680	984.066
108.103	13.167	1311.887	983.075
109.118	13.182	1310.822	982.283
110.133	13.090	1309.911	980.967
111.147	13.092	1308.417	979.772
112.162	13.171	1307.332	979.337
113.176	13.218	1306.040	978.565
114.191	13.218	1305.060	977.741
115.206	13.202	1303.882	976.679
116.220	13.192	1302.644	975.606
117.235	13.173	1301.478	974.534
118.249	13.244	1300.804	974.360
119.264	13.234	1299.460	973.212
120.279	13.245	1298.424	972.414
121.293	13.228	1297.060	971.205
122.308	13.155	1295.977	969.882
123.322	13.172	1294.966	969.136
124.337	13.093	1294.174	967.993
125.352	13.108	1292.966	967.097
126.366	13.167	1291.685	966.394
127.381	13.125	1290.580	965.236
128.395	13.176	1289.651	964.756
129.410	13.070	1289.136	963.666
130.424	13.137	1287.813	962.982
131.439	13.180	1286.823	962.410
132.454	13.149	1285.696	961.301
133.468	13.217	1285.096	961.162
134.483	13.129	1284.152	959.860
135.497	13.171	1282.941	959.111
136.512	13.149	1281.476	957.807
137.527	13.096	1280.784	956.898
138.541	13.167	1278.796	955.736
139.556	13.197	1277.523	954.877
140.570	13.223	1276.761	954.369
141.585	13.230	1275.445	953.340
142.600	13.342	1273.861	952.717
143.614	13.319	1273.644	952.339
144.629	13.319	1272.595	951.474
145.643	13.397	1271.629	951.115
146.658	13.235	1270.507	949.260
147.673	13.268	1268.789	948.080
148.687	13.294	1267.401	947.111
149.702	13.277	1266.250	946.066
150.716	13.232	1264.935	944.743
151.731	13.233	1263.432	943.546
152.746	13.440	1262.107	943.653
153.760	13.371	1261.244	942.530
154.775	13.384	1259.966	941.564
155.789	13.401	1258.906	940.785
156.804	13.386	1257.959	939.912
157.819	13.434	1256.685	939.147
158.833	13.536	1255.405	938.686
159.848	13.542	1254.577	938.019
160.862	13.553	1254.074	937.622
161.877	13.523	1252.729	936.363
162.892	13.453	1251.282	934.805
163.906	13.388	1250.645	933.877
164.921	13.489	1249.534	933.534
165.935	13.465	1248.718	932.708
166.950	13.516	1247.829	932.249
167.964	13.523	1247.239	931.766
168.979	13.538	1246.151	930.953
169.994	13.561	1245.736	930.689
171.008	13.494	1245.083	929.742
172.023	13.599	1244.102	929.517
173.037	13.650	1243.583	929.333
174.052	13.579	1242.789	928.260
175.067	13.588	1241.510	927.272
176.081	13.529	1240.611	926.189
177.096	13.565	1239.705	925.633
178.110	13.602	1238.577	924.916
179.125	13.704	1237.018	924.236
180.140	13.665	1236.050	923.217
181.154	13.551	1235.055	921.756
182.169	13.744	1233.017	921.225
183.183	13.767	1232.290	920.730
184.198	13.740	1231.071	919.589
185.213	13.762	1230.237	919.007
186.227	13.746	1229.213	918.070
187.242	13.762	1228.566	917.595
188.256	13.822	1227.268	916.876
189.271	13.729	1226.234	915.508
190.286	13.613	1225.537	914.265
191.300	13.644	1224.627	913.680
192.315	13.622	1223.606	912.713
193.329	13.614	1223.097	912.208
194.344	13.771	1222.359	912.440
195.359	13.771	1221.850	911.982
196.373	13.776	1221.545	911.702
197.388	13.756	1221.077	911.159
198.402	13.896	1220.438	911.374
199.417	13.957	1219.503	910.928
200.432	13.999	1218.601	910.402
201.446	14.078	1217.629	910.027
202.461	14.047	1217.100	909.382
203.475	14.078	1215.811	908.508
204.490	13.953	1214.741	906.944
205.504	14.063	1213.372	906.444
206.519	13.991	1212.384	905.232
207.534	14.055	1211.211	904.626
208.548	13.897	1210.696	903.302
209.563	13.892	1209.675	902.434
210.577	14.014	1208.626	902.235
211.592	13.917	1207.989	901.153
212.607	14.097	1207.289	901.524
213.621	14.139	1206.119	900.803
214.636	14.057	1205.233	899.615
215.650	14.099	1203.996	898.838
216.665	14.203	1203.089	898.646
217.680	14.210	1202.344	898.043
218.694	14.307	1201.191	897.627
219.709	14.246	1200.360	896.601
220.723	14.230	1200.142	896.273
221.738	14.253	1199.495	895.831
222.753	14.262	1198.828	895.303
223.767	14.222	1198.322	894.631
224.782	14.278	1197.092	893.934
225.796	14.286	1196.593	893.527
226.811	14.371	1195.840	893.339
227.826	14.376	1195.111	892.741
228.840	14.333	1194.590	892.045
229.855	14.197	1193.910	890.732
230.869	14.334	1193.282	890.916
231.884	14.379	1192.069	890.170
232.899	14.351	1191.224	889.311
233.913	14.307	1190.525	888.477
234.928	14.255	1189.834	887.607
235.942	14.321	1189.040	887.287
236.957	14.308	1188.136	886.461
237.972	14.467	1187.454	886.722
238.986	14.384	1186.707	885.646
240.001	14.369	1186.131	885.054
241.015	14.424	1184.971	884.403
242.030	14.375	1184.446	883.675
243.045	14.470	1183.547	883.429
244.059	14.513	1182.895	883.093
245.074	14.564	1181.724	882.412
246.088	14.525	1180.902	881.512
247.103	14.534	1180.147	880.919
248.117	14.583	1179.282	880.453
249.132	14.603	1179.019	880.286
250.147	14.592	1178.354	879.651
251.161	14.742	1177.360	879.623
252.176	14.755	1176.462	878.942
253.190	14.749	1176.177	878.618
254.205	14.751	1175.773	878.249
255.220	14.833	1175.066	878.076
256.234	14.852	1174.247	877.485
257.249	14.780	1173.930	876.794
258.263	14.811	1173.092	876.251
259.278	14.877	1172.273	875.910
260.293	14.952	1172.049	876.059
261.307	14.938	1171.142	875.227
262.322	15.008	1170.087	874.726
263.336	14.985	1169.748	874.279
264.351	15.001	1169.100	873.798
265.366	14.997	1168.833	873.498
266.380	15.047	1167.937	873.013
267.395	15.035	1166.940	872.128
268.409	15.038	1166.109	871.449
269.424	15.049	1165.702	871.122
270.439	15.060	1165.200	870.727
271.453	15.084	1163.946	869.840
272.468	15.019	1163.298	868.938
273.482	14.920	1162.944	868.083
274.497	15.045	1161.808	867.809
275.512	15.115	1160.978	867.472
276.526	15.126	1160.038	866.749
277.541	15.119	1159.594	866.304
278.555	15.023	1159.104	865.367
279.570	15.062	1158.639	865.148
280.585	15.180	1157.743	865.009
281.599	15.168	1156.541	863.971
282.614	15.080	1155.782	862.874
283.628	15.113	1154.632	862.113
284.643	15.115	1153.846	861.458
285.657	15.291	1152.536	861.309
286.672	15.309	1151.771	860.754
287.687	15.230	1150.841	859.575
288.701	15.315	1150.015	859.320
289.716	15.301	1149.450	858.749
290.730	15.347	1148.581	858.259
291.745	15.353	1147.673	857.533
292.760	15.304	1147.185	856.842
293.774	15.455	1146.663	857.150
294.789	15.489	1145.871	856.653
295.803	15.435	1145.579	856.087
296.818	15.474	1144.351	855.291
297.833	15.407	1143.739	854.418
298.847	15.493	1142.730	854.027
299.862	15.480	1142.130	853.433
300.876	15.486	1141.508	852.924
301.891	15.523	1140.759	852.476
302.906	15.569	1139.896	851.992
303.920	15.525	1139.676	851.529
304.935	15.599	1138.836	851.198
305.949	15.669	1138.243	851.037
306.964	15.693	1137.412	850.460
307.979	15.578	1136.550	849.157
308.993	15.662	1135.896	849.017
310.008	15.634	1135.039	848.161
311.022	15.740	1133.838	847.722
312.037	15.632	1133.457	846.823
313.052	15.629	1132.554	846.056
314.066	15.583	1131.596	845.033
315.081	15.693	1130.558	844.736
316.095	15.590	1130.299	843.951
317.110	15.670	1129.448	843.642
318.125	15.632	1128.653	842.783
319.139	15.718	1127.846	842.539
320.154	15.634	1127.212	841.568
321.168	15.730	1126.694	841.589
322.183	15.581	1126.262	840.447
323.197	15.707	1125.493	840.429
324.212	15.685	1124.665	839.623
325.227	15.784	1124.269	839.749
326.241	15.673	1123.764	838.741
327.256	15.664	1122.699	837.828
328.270	15.793	1121.449	837.465
329.285	15.778	1120.717	836.770
330.300	15.741	1119.870	835.881
331.314	15.883	1118.801	835.714
332.329	15.808	1117.853	834.559
333.343	15.884	1116.939	834.178
334.358	15.886	1116.114	833.497
335.373	15.898	1115.437	832.979
336.387	15.882	1114.657	832.244
337.402	15.957	1113.911	831.981
338.416	15.934	1113.527	831.509
339.431	16.021	1112.538	831.128
340.446	15.994	1111.974	830.498
341.460	16.102	1111.282	830.437
342.475	16.126	1110.601	829.974
343.489	16.054	1109.653	828.840
344.504	16.108	1108.675	828.299
345.519	16.176	1107.561	827.731
346.533	16.102	1107.227	827.041
347.548	16.199	1106.452	826.865
348.562	16.155	1105.688	826.009
349.577	16.270	1104.913	825.915
350.592	16.134	1103.955	824.463
351.606	16.220	1103.438	824.424
352.621	16.138	1102.520	823.264
353.635	16.136	1102.085	822.860
354.650	16.090	1101.275	821.956
355.665	16.177	1100.539	821.760
356.679	16.232	1099.489	821.168
357.694	16.240	1098.706	820.550
358.708	16.258	1098.833	820.660
359.723	16.230	1098.179	819.964
360.738	16.175	1097.398	819.042
361.752	16.249	1096.985	819.020
362.767	16.320	1096.416	818.866
363.781	16.332	1095.438	818.122
364.796	16.281	1095.074	817.529
365.810	16.418	1094.356	817.586
366.825	16.431	1093.691	817.080
367.840	16.524	1093.032	816.963
368.854	16.448	1092.751	816.313
369.869	16.462	1091.879	815.658
370.883	16.450	1090.980	814.856
371.898	16.410	1090.470	814.209
372.913	16.432	1090.329	814.140
373.927	16.501	1089.233	813.579
374.942	16.582	1088.843	813.606
375.956	16.447	1088.263	812.453
376.971	16.598	1087.272	812.365
377.986	16.673	1086.495	812.073
379.000	16.726	1085.934	811.837
380.015	16.716	1085.304	811.245
381.029	16.680	1084.883	810.685
382.044	16.788	1084.201	810.621
383.059	16.847	1083.010	809.941
384.073	16.770	1082.590	809.189
385.088	16.751	1081.747	808.394
386.102	16.759	1080.757	807.622
387.117	16.813	1079.747	807.055
388.132	16.711	1078.991	805.932
389.146	16.750	1078.431	805.627
390.161	16.736	1077.410	804.726
391.175	16.791	1076.925	804.554
392.190	16.784	1076.511	804.139
393.205	16.787	1075.621	803.421
394.219	16.980	1074.359	803.318
395.234	16.779	1073.505	801.659
396.248	16.953	1072.183	801.425
397.263	16.812	1071.640	800.281
398.278	16.808	1070.982	799.697
399.292	16.770	1070.304	798.941
400.307	16.816	1069.334	798.364
401.321	16.778	1068.774	797.700
402.336	16.930	1068.168	797.888
403.350	16.967	1067.184	797.258
404.365	16.972	1066.687	796.841
405.380	16.832	1066.322	795.837
406.394	17.021	1065.002	795.671
407.409	17.029	1064.451	795.224
408.423	17.071	1063.843	794.895
409.438	17.118	1063.121	794.509
410.453	17.101	1062.512	793.903
411.467	17.170	1061.750	793.586
412.482	17.193	1060.951	793.027
413.496	17.136	1060.357	792.246
414.511	17.248	1059.391	791.976
415.526	17.239	1059.317	791.807
416.540	17.198	1059.087	791.376
417.555	17.223	1058.456	790.950
418.569	17.304	1058.031	790.941
419.584	17.243	1057.419	790.128
420.599	17.349	1056.895	790.158
421.613	107.130	1329.574	1487.649
422.628	98.801	1369.226	1487.765
