DTS Sentinel unit serial number:	SN413079Multiplexer serial number:	ORYXHardware model number:	OX4-SRSoftware version number:	ORYX F/W v4.00 Oryx Data Collector v3.7.2.0data status	okinstallation	princeton_trtdifferential loss correction	single-endedforward channel	channel 2reverse channel	N/Adate	2019/09/11time	12:53:11forward acquisition time	60.00reverse acquisition time	0.00gamma	496.2192k internal	0.2294k external	0.2294temperature offset calibration	0.9965default loss term (dB/km)	0.3790temperature slope calibration	1.0000multiplexer offset coefficient	1.0000multiplexer slope coefficient	1.0000fibre end	0.00T internal ref (°C)	41.31T ext. ref 1 (°C)	0.25T ext. ref 2 (°C)	38.86length (m)	temperature (°C)	Stokes	anti-Stokes-747.200	800.000	0.046	-0.140
-746.185	323.046	0.041	0.081
-745.171	-78.521	0.065	0.023
-744.156	-6.258	-0.365	0.255
-743.142	-99.794	-0.311	-0.080
-742.127	-200.000	0.028	0.249
-741.112	322.165	0.192	-0.375
-740.098	61.453	-0.247	-0.251
-739.083	127.165	-0.075	0.097
-738.069	-158.206	0.262	0.016
-737.054	-19.371	0.050	0.032
-736.039	-200.000	0.015	0.088
-735.025	-200.000	0.031	0.269
-734.010	-88.606	-0.024	0.007
-732.996	-22.329	-0.154	0.095
-731.981	-200.000	-0.024	-0.283
-730.966	17.530	-0.065	-0.053
-729.952	-200.000	0.002	0.080
-728.937	-63.625	-0.193	-0.081
-727.923	396.399	0.153	-0.328
-726.908	-200.000	0.019	0.512
-725.894	-82.391	-0.201	-0.067
-724.879	784.401	-0.108	0.304
-723.864	190.833	0.102	0.157
-722.850	-84.789	-0.120	-0.039
-721.835	-200.000	0.075	-0.377
-720.821	-124.237	0.241	0.038
-719.806	17.030	-0.105	-0.085
-718.791	-200.000	-0.034	0.414
-717.777	1.684	-0.203	-0.149
-716.762	-47.237	0.365	-0.182
-715.748	-20.398	-0.294	-0.185
-714.733	-14.682	-0.167	0.109
-713.718	430.145	-0.127	-0.282
-712.704	-40.123	-0.202	0.108
-711.689	-200.000	-0.038	-0.313
-710.675	-174.285	-0.227	0.007
-709.660	378.659	0.090	0.189
-708.645	120.133	-0.073	0.092
-707.631	584.910	-0.017	0.042
-706.616	226.932	0.206	-0.343
-705.602	800.000	-0.036	0.144
-704.587	-4.337	0.065	-0.046
-703.572	199.349	-0.131	0.205
-702.558	-109.450	-0.330	0.071
-701.543	-195.513	-0.130	-0.001
-700.529	-66.540	-0.258	0.105
-699.514	507.772	0.124	-0.295
-698.499	288.014	-0.098	-0.180
-697.485	800.000	-0.044	-0.131
-696.470	77.634	-0.084	0.092
-695.456	471.324	0.125	-0.287
-694.441	-120.205	0.227	0.040
-693.426	-82.846	0.308	0.101
-692.412	-36.749	-0.130	0.072
-691.397	800.000	0.107	-0.323
-690.383	800.000	-0.049	-0.147
-689.368	71.100	0.360	-0.381
-688.354	-200.000	0.006	-0.237
-687.339	-200.000	-0.005	-0.181
-686.324	-174.460	-0.221	-0.006
-685.310	385.192	0.075	0.159
-684.295	-68.849	-0.215	0.085
-683.281	134.852	0.036	-0.047
-682.266	-8.213	0.162	-0.111
-681.251	-200.000	-0.003	0.405
-680.237	75.397	-0.138	0.149
-679.222	-200.000	0.013	0.208
-678.208	-41.067	0.262	-0.138
-677.193	30.748	-0.164	0.143
-676.178	-172.507	-0.214	-0.007
-675.164	88.656	0.083	-0.094
-674.149	369.061	0.130	0.269
-673.135	-200.000	-0.066	-0.429
-672.120	-200.000	0.043	-0.438
-671.105	-200.000	-0.073	-0.381
-670.091	158.065	0.037	0.052
-669.076	-126.894	-0.276	-0.041
-668.062	242.614	-0.160	-0.273
-667.047	-9.145	0.014	-0.010
-666.032	-200.000	-0.032	0.180
-665.018	258.165	0.024	0.043
-664.003	401.292	-0.125	0.268
-662.989	-159.993	-0.086	0.005
-661.974	-20.580	0.301	0.189
-660.959	800.000	0.061	0.251
-659.945	-200.000	-0.052	0.251
-658.930	-49.590	-0.159	0.077
-657.916	-39.021	-0.370	0.198
-656.901	-16.084	-0.334	0.216
-655.886	800.000	-0.051	-0.168
-654.872	-187.994	-0.333	-0.004
-653.857	325.301	-0.141	0.274
-652.843	84.936	0.275	0.307
-651.828	-200.000	0.042	0.377
-650.814	-102.762	-0.274	-0.067
-649.799	-139.527	0.199	0.022
-648.784	7.521	0.280	-0.213
-647.770	604.351	-0.103	-0.262
-646.755	103.115	0.152	-0.181
-645.741	-7.870	-0.231	0.159
-644.726	337.645	0.110	0.218
-643.711	89.265	0.211	-0.240
-642.697	219.634	-0.146	-0.238
-641.682	43.586	0.106	0.099
-640.668	-200.000	-0.075	0.361
-639.653	800.000	-0.036	0.120
-638.638	-44.515	0.153	-0.078
-637.624	-200.000	0.023	0.115
-636.609	207.616	-0.093	-0.147
-635.595	14.752	0.138	-0.110
-634.580	-17.167	-0.403	-0.259
-633.565	-200.000	-0.022	-0.260
-632.551	7.168	0.174	0.132
-631.536	98.897	0.117	0.137
-630.522	88.162	0.045	0.051
-629.507	800.000	0.098	0.357
-628.492	-81.247	0.126	-0.042
-627.478	-200.000	-0.005	0.031
-626.463	340.504	0.068	-0.134
-625.449	-1.601	-0.332	0.238
-624.434	21.420	-0.241	-0.200
-623.419	-46.937	0.096	0.048
-622.405	-200.000	0.020	0.211
-621.390	200.298	0.112	0.175
-620.376	-117.573	0.342	-0.063
-619.361	-24.647	0.236	-0.143
-618.346	800.000	-0.066	-0.190
-617.332	-9.623	0.250	-0.170
-616.317	-116.942	-0.235	0.044
-615.303	77.421	-0.155	-0.168
-614.288	-145.932	0.157	0.014
-613.273	-109.657	0.231	0.050
-612.259	800.000	-0.039	0.127
-611.244	-200.000	0.000	-0.214
-610.230	-127.906	0.378	-0.055
-609.215	281.748	-0.086	-0.158
-608.201	-200.000	-0.047	-0.740
-607.186	-50.731	0.257	0.123
-606.171	-111.128	-0.343	-0.071
-605.157	-200.000	0.026	-0.182
-604.142	-200.000	-0.024	-0.106
-603.128	57.782	-0.045	0.045
-602.113	-200.000	0.025	0.383
-601.098	-200.000	0.001	-0.054
-600.084	239.597	-0.075	-0.127
-599.069	800.000	-0.077	-0.258
-598.055	15.303	-0.199	0.158
-597.040	-200.000	0.041	-0.208
-596.025	800.000	0.098	-0.308
-595.011	56.473	0.086	-0.085
-593.996	87.865	0.166	-0.187
-592.982	-59.885	-0.376	0.163
-591.967	-155.908	-0.286	-0.018
-590.952	-200.000	-0.250	0.000
-589.938	111.783	-0.176	-0.216
-588.923	-200.000	-0.033	0.337
-587.909	-46.452	-0.118	0.059
-586.894	389.024	-0.079	-0.165
-585.879	10.653	-0.171	-0.133
-584.865	800.000	-0.005	0.019
-583.850	57.412	-0.035	-0.034
-582.836	250.909	0.080	-0.139
-581.821	17.386	0.026	0.021
-580.806	-83.319	0.303	0.099
-579.792	-200.000	0.001	-0.079
-578.777	800.000	0.172	0.515
-577.763	73.298	0.230	0.244
-576.748	-200.000	-0.034	0.200
-575.733	14.410	-0.116	-0.092
-574.719	-44.530	-0.150	-0.076
-573.704	87.392	-0.011	0.012
-572.690	-102.135	-0.207	-0.051
-571.675	-200.000	0.007	-0.150
-570.661	-200.000	0.007	-0.038
-569.646	54.277	0.169	-0.165
-568.631	-200.000	0.001	-0.161
-567.617	38.316	0.142	-0.128
-566.602	-55.928	-0.339	-0.154
-565.588	800.000	0.056	-0.171
-564.573	49.396	-0.331	-0.317
-563.558	141.023	-0.119	0.159
-562.544	800.000	-0.070	0.276
-561.529	-85.477	0.163	0.052
-560.515	-32.914	0.107	0.061
-559.500	-47.737	-0.150	0.074
-558.485	-69.077	-0.322	-0.126
-557.471	-200.000	-0.026	-0.266
-556.456	215.539	0.080	-0.128
-555.442	495.810	-0.070	0.164
-554.427	-200.000	0.053	-0.335
-553.412	-17.528	-0.200	-0.127
-552.398	-72.094	-0.013	0.005
-551.383	360.069	-0.019	-0.038
-550.369	558.581	0.052	-0.126
-549.354	-200.000	0.027	0.246
-548.339	-93.698	-0.220	0.062
-547.325	-200.000	0.049	-0.551
-546.310	-177.418	-0.408	-0.010
-545.296	58.036	0.153	0.153
-544.281	-134.913	-0.216	-0.026
-543.266	-100.615	0.041	-0.010
-542.252	17.097	-0.134	0.108
-541.237	-155.800	-0.122	0.008
-540.223	-57.550	-0.213	-0.095
-539.208	-16.788	0.257	-0.165
-538.193	-128.594	-0.051	0.007
-537.179	-64.859	0.115	-0.047
-536.164	-200.000	0.012	0.287
-535.150	66.888	0.124	0.128
-534.135	167.560	0.072	0.104
-533.121	-117.463	-0.143	-0.026
-532.106	-97.953	-0.405	-0.106
-531.091	244.563	-0.040	0.069
-530.077	797.233	0.043	-0.119
-529.062	800.000	0.084	0.241
-528.048	800.000	0.101	-0.300
-527.033	-155.465	-0.275	0.018
-526.018	800.000	0.037	-0.132
-525.004	800.000	-0.130	-0.471
-523.989	-200.000	0.011	0.185
-522.975	179.135	0.094	0.139
-521.960	-200.000	-0.013	0.211
-520.945	-200.000	0.031	-0.313
-519.931	-73.169	-0.111	-0.041
-518.916	-138.057	0.232	0.026
-517.902	-200.000	0.017	0.319
-516.887	-71.256	0.192	0.073
-515.872	37.702	0.129	0.116
-514.858	44.086	0.099	-0.092
-513.843	23.483	0.135	-0.113
-512.829	9.296	0.039	-0.030
-511.814	-129.867	-0.320	0.045
-510.799	266.862	-0.077	0.137
-509.785	800.000	-0.040	0.124
-508.770	800.000	0.008	-0.033
-507.756	-93.516	-0.258	0.072
-506.741	266.230	0.153	0.271
-505.726	10.651	-0.039	0.030
-504.712	-68.950	-0.119	0.046
-503.697	24.208	-0.077	0.064
-502.683	423.848	-0.141	-0.308
-501.668	74.702	0.228	-0.243
-500.653	439.359	-0.064	0.142
-499.639	97.892	-0.216	0.252
-498.624	800.000	0.167	0.563
-497.610	-11.839	0.364	-0.242
-496.595	190.335	0.175	0.266
-495.581	-20.610	0.202	0.126
-494.566	-88.729	0.183	0.055
-493.551	171.311	-0.130	0.189
-492.537	-69.151	-0.092	-0.036
-491.522	91.230	0.265	-0.301
-490.508	560.552	-0.097	-0.238
-489.493	800.000	0.086	0.340
-488.478	-57.565	-0.164	0.073
-487.464	-131.933	-0.273	0.036
-486.449	-174.130	-0.254	-0.008
-485.435	-170.802	-0.369	-0.013
-484.420	-38.610	-0.133	0.071
-483.405	-92.866	0.097	-0.028
-482.391	27.243	-0.180	0.153
-481.376	-180.447	0.174	-0.004
-480.362	-57.868	-0.201	0.089
-479.347	-60.540	-0.224	-0.096
-478.332	-86.934	-0.107	0.033
-477.318	-34.078	0.306	-0.170
-476.303	177.521	-0.102	-0.150
-475.289	17.127	-0.099	-0.080
-474.274	800.000	-0.164	-0.469
-473.259	371.853	0.128	0.263
-472.245	-200.000	0.028	-0.261
-471.230	-200.000	-0.005	0.302
-470.216	485.260	-0.123	0.283
-469.201	155.098	0.250	0.347
-468.186	-88.196	0.033	-0.010
-467.172	25.312	-0.178	0.150
-466.157	716.193	-0.112	0.300
-465.143	228.436	-0.187	0.309
-464.128	468.002	-0.022	-0.050
-463.113	35.250	0.053	0.047
-462.099	800.000	0.095	-0.286
-461.084	0.681	-0.295	-0.213
-460.070	-190.027	0.178	-0.002
-459.055	-200.000	0.029	0.250
-458.040	229.104	-0.116	-0.191
-457.026	89.074	0.141	0.159
-456.011	12.228	0.085	0.066
-454.997	800.000	0.112	-0.365
-453.982	-65.879	0.167	0.068
-452.968	28.399	0.273	0.234
-451.953	-138.349	-0.348	-0.039
-450.938	800.000	-0.112	0.361
-449.924	800.000	-0.035	0.122
-448.909	17.070	-0.361	-0.289
-447.895	149.647	-0.030	0.041
-446.880	-60.129	0.427	-0.184
-445.865	-19.607	0.270	0.169
-444.851	-63.621	0.330	0.137
-443.836	-200.000	0.014	-0.216
-442.822	477.575	-0.117	-0.267
-441.807	262.472	0.158	0.277
-440.792	-121.162	-0.155	-0.026
-439.778	-200.000	-0.019	0.340
-438.763	-192.951	0.234	0.002
-437.749	-21.919	0.093	0.057
-436.734	-195.485	0.531	-0.004
-435.719	-51.799	0.147	-0.069
-434.705	800.000	0.054	-0.202
-433.690	-62.139	0.130	-0.055
-432.676	800.000	-0.108	0.408
-431.661	-29.150	0.304	0.176
-430.646	219.319	0.241	-0.390
-429.632	-64.268	-0.045	-0.018
-428.617	800.000	0.057	-0.191
-427.603	-67.112	-0.294	-0.117
-426.588	-107.246	0.154	-0.034
-425.573	102.304	0.102	0.120
-424.559	12.194	-0.405	0.315
-423.544	156.613	0.144	0.201
-422.530	-154.114	0.085	0.006
-421.515	84.707	-0.111	0.122
-420.500	-141.219	-0.180	-0.018
-419.486	-57.000	-0.221	-0.098
-418.471	781.318	-0.033	-0.092
-417.457	-102.101	-0.348	0.085
-416.442	119.533	0.080	0.100
-415.428	-73.688	0.127	-0.047
-414.413	16.200	-0.336	-0.268
-413.398	-200.000	0.033	-0.307
-412.384	800.000	-0.015	0.055
-411.369	-104.795	-0.241	-0.056
-410.355	800.000	0.132	0.560
-409.340	800.000	-0.017	-0.071
-408.325	-64.633	0.172	-0.070
-407.311	-131.694	0.486	-0.064
-406.296	626.216	0.072	-0.182
-405.282	-49.762	-0.108	0.052
-404.267	-22.258	0.089	-0.054
-403.252	19.230	0.141	0.114
-402.238	53.970	-0.096	-0.093
-401.223	-93.075	-0.238	0.067
-400.209	1.546	-0.083	-0.060
-399.194	143.609	-0.048	-0.064
-398.179	3.542	0.080	-0.059
-397.165	-167.659	-0.113	0.005
-396.150	-200.000	0.039	-0.229
-395.136	-200.000	0.001	0.071
-394.121	-8.751	-0.103	-0.070
-393.106	-52.019	-0.209	-0.098
-392.092	-177.453	-0.076	-0.002
-391.077	-200.000	0.013	0.206
-390.063	800.000	0.078	0.305
-389.048	-4.854	0.158	-0.110
-388.033	66.532	-0.039	-0.040
-387.019	-81.744	-0.153	0.051
-386.004	443.397	-0.107	0.237
-384.990	24.720	0.150	0.125
-383.975	-168.269	0.287	0.011
-382.960	-200.000	0.014	-0.066
-381.946	192.635	0.253	0.385
-380.931	88.591	0.077	-0.087
-379.917	144.300	-0.099	-0.134
-378.902	800.000	0.072	0.286
-377.888	-181.865	-0.482	-0.009
-376.873	-200.000	0.002	-0.177
-375.858	-109.441	0.107	0.023
-374.844	-129.923	0.341	0.047
-373.829	-9.209	-0.095	-0.064
-372.815	451.415	-0.049	-0.109
-371.800	-200.000	-0.031	-0.159
-370.785	585.361	0.028	-0.069
-369.771	-129.179	0.172	-0.024
-368.756	-200.000	-0.003	0.067
-367.742	363.429	-0.110	-0.223
-366.727	-96.275	-0.111	-0.030
-365.712	-113.646	0.301	-0.059
-364.698	-168.731	0.041	-0.002
-363.683	436.610	0.077	-0.168
-362.669	-200.000	0.021	-0.204
-361.654	-160.707	0.104	-0.006
-360.639	-176.921	0.341	0.009
-359.625	-57.268	0.441	-0.196
-358.610	-85.965	-0.257	0.080
-357.596	-156.463	-0.067	0.004
-356.581	116.743	0.193	-0.238
-355.566	148.355	-0.272	-0.370
-354.552	160.703	-0.083	0.117
-353.537	687.490	-0.108	0.283
-352.523	-19.169	-0.228	-0.143
-351.508	-144.818	0.239	-0.022
-350.493	-129.036	0.279	0.039
-349.479	-200.000	0.011	0.286
-348.464	-25.872	0.149	-0.088
-347.450	-125.275	-0.146	-0.022
-346.435	290.120	0.244	-0.447
-345.420	800.000	-0.072	-0.216
-344.406	-44.262	0.218	0.110
-343.391	96.281	-0.123	0.141
-342.377	-12.350	0.096	-0.063
-341.362	40.932	-0.179	-0.163
-340.348	434.923	-0.082	-0.179
-339.333	245.266	-0.039	0.067
-338.318	-60.398	-0.561	-0.240
-337.304	-200.000	-0.090	-0.402
-336.289	800.000	0.084	0.283
-335.275	404.691	-0.015	0.033
-334.260	80.933	0.119	-0.129
-333.245	800.000	0.018	0.073
-332.231	-83.784	-0.205	-0.066
-331.216	17.581	-0.094	-0.076
-330.202	-21.061	0.186	0.115
-329.187	-23.744	-0.113	-0.068
-328.172	-39.115	0.329	0.174
-327.158	-200.000	0.019	-0.151
-326.143	593.101	-0.062	-0.154
-325.129	265.733	-0.081	-0.143
-324.114	-153.368	-0.217	-0.015
-323.099	-83.919	0.075	0.024
-322.085	413.150	0.025	-0.053
-321.070	396.836	0.105	-0.222
-320.056	-60.155	-0.248	0.106
-319.041	-200.000	-0.002	-0.332
-318.026	51.464	-0.066	-0.063
-317.012	-100.897	-0.313	-0.077
-315.997	-61.305	0.165	0.070
-314.983	27.053	0.132	-0.111
-313.968	-130.276	0.161	0.022
-312.953	-68.655	-0.304	-0.118
-311.939	229.928	-0.147	0.241
-310.924	800.000	0.041	-0.144
-309.910	-147.739	0.348	-0.029
-308.895	406.081	-0.098	0.208
-307.880	800.000	0.103	-0.299
-306.866	-200.000	-0.004	-0.265
-305.851	61.569	-0.111	-0.111
-304.837	-200.000	-0.005	-0.072
-303.822	68.893	0.036	-0.037
-302.807	-147.727	0.318	-0.027
-301.793	125.903	0.119	0.152
-300.778	114.211	0.315	-0.385
-299.764	524.317	-0.147	0.346
-298.749	209.915	0.146	0.231
-297.735	645.237	-0.182	-0.468
-296.720	-200.000	-0.023	-0.181
-295.705	-139.594	0.264	-0.028
-294.691	663.675	0.042	-0.109
-293.676	-37.220	-0.053	-0.029
-292.662	-61.885	-0.082	-0.034
-291.647	13.947	-0.169	0.132
-290.632	-133.380	0.206	0.026
-289.618	800.000	-0.114	0.339
-288.603	198.463	0.086	0.133
-287.589	-200.000	0.025	0.367
-286.574	-136.123	-0.235	-0.028
-285.559	84.633	0.131	-0.144
-284.545	800.000	0.064	0.196
-283.530	-77.742	-0.069	-0.024
-282.516	-143.262	0.300	0.029
-281.501	88.066	-0.046	0.051
-280.486	-170.697	0.276	-0.010
-279.472	47.703	0.382	0.358
-278.457	-136.044	0.150	0.018
-277.443	72.619	-0.150	-0.157
-276.428	-200.000	-0.026	0.141
-275.413	-72.004	0.226	-0.084
-274.399	-170.889	0.257	-0.009
-273.384	-200.000	0.013	0.085
-272.370	-200.000	0.023	-0.263
-271.355	14.529	0.125	0.098
-270.340	-200.000	-0.055	0.290
-269.326	331.971	-0.067	0.130
-268.311	-109.546	-0.315	-0.067
-267.297	800.000	0.064	0.233
-266.282	-53.892	0.331	0.151
-265.267	-161.072	0.304	-0.016
-264.253	-99.511	-0.176	0.044
-263.238	5.117	-0.088	0.065
-262.224	102.983	-0.169	0.199
-261.209	194.308	0.055	0.083
-260.195	-77.731	0.270	0.094
-259.180	509.074	-0.098	0.228
-258.165	-200.000	-0.073	0.326
-257.151	34.202	0.137	-0.119
-256.136	262.994	0.046	0.080
-255.122	800.000	-0.043	-0.119
-254.107	800.000	-0.100	0.290
-253.092	-185.006	0.099	-0.002
-252.078	-21.048	0.106	0.065
-251.063	22.413	0.102	0.083
-250.049	-0.471	-0.159	-0.113
-249.034	452.624	-0.136	-0.301
-248.019	800.000	-0.051	-0.146
-247.005	-6.239	0.175	-0.120
-245.990	46.614	-0.339	-0.316
-244.976	100.376	0.042	-0.049
-243.961	-200.000	-0.007	0.263
-242.946	287.725	0.231	-0.418
-241.932	190.445	-0.099	0.149
-240.917	-194.285	0.099	0.001
-239.903	738.112	0.034	-0.091
-238.888	-200.000	0.032	-0.155
-237.873	-200.000	0.007	-0.349
-236.859	800.000	0.095	-0.347
-235.844	-41.055	-0.134	-0.069
-234.830	-200.000	0.086	-0.382
-233.815	-54.105	0.212	-0.097
-232.800	-96.038	0.061	-0.016
-231.786	-181.916	-0.129	-0.002
-230.771	-200.000	0.013	-0.059
-229.757	202.861	-0.089	-0.138
-228.742	251.775	-0.058	0.099
-227.727	54.675	0.105	-0.101
-226.713	-200.000	-0.031	0.155
-225.698	201.482	-0.146	0.225
-224.684	389.553	0.031	-0.065
-223.669	63.343	-0.171	-0.171
-222.655	-71.723	0.092	0.034
-221.640	-200.000	-0.003	0.147
-220.625	-200.000	0.044	0.360
-219.611	139.943	0.139	0.184
-218.596	36.011	-0.325	0.287
-217.582	-110.901	-0.197	0.041
-216.567	477.158	0.045	0.102
-215.552	614.115	0.065	0.163
-214.538	800.000	0.065	0.190
-213.523	-33.986	0.364	0.201
-212.509	800.000	0.061	0.201
-211.494	-93.736	-0.192	0.053
-210.479	103.864	0.076	0.089
-209.465	262.020	0.102	-0.177
-208.450	800.000	0.054	0.217
-207.436	-36.030	-0.184	0.100
-206.421	482.449	0.044	0.100
-205.406	-7.158	0.186	-0.126
-204.392	301.236	0.070	-0.129
-203.377	-200.000	0.061	-0.318
-202.363	-20.670	-0.310	-0.191
-201.348	-12.893	0.151	0.098
-200.333	-33.654	0.209	-0.116
-199.319	141.664	0.179	0.238
-198.304	7.495	-0.098	-0.074
-197.290	-40.933	0.157	0.081
-196.275	38.797	0.071	-0.064
-195.260	170.903	0.053	0.076
-194.246	190.642	0.044	0.066
-193.231	-200.000	0.004	-0.169
-192.217	57.748	-0.141	0.138
-191.202	-68.672	0.318	0.123
-190.187	-18.337	-0.463	0.289
-189.173	153.178	-0.036	-0.049
-188.158	76.005	-0.192	0.204
-187.144	800.000	0.068	0.197
-186.129	-200.000	-0.009	0.343
-185.114	464.428	0.141	0.315
-184.100	-200.000	0.014	0.132
-183.085	-200.000	-0.223	0.000
-182.071	172.882	0.121	-0.174
-181.056	13.283	0.097	0.075
-180.042	800.000	-0.174	-0.502
-179.027	-200.000	0.051	-0.247
-178.012	-141.899	-0.271	-0.027
-176.998	-200.000	0.019	-0.134
-175.983	346.864	0.151	-0.298
-174.969	674.443	-0.052	-0.135
-173.954	-190.831	0.163	-0.002
-172.939	-54.646	0.228	0.103
-171.925	-200.000	0.116	0.538
-170.910	55.164	-0.216	0.209
-169.896	800.000	-0.107	0.382
-168.881	22.555	0.195	-0.159
-167.866	-148.702	-0.254	0.021
-166.852	552.253	0.044	0.105
-165.837	168.549	-0.094	0.133
-164.823	15.568	0.167	-0.131
-163.808	-85.060	-0.516	0.162
-162.793	109.709	-0.135	-0.162
-161.779	85.560	-0.156	-0.171
-160.764	-131.637	-0.171	0.022
-159.750	-200.000	0.008	0.201
-158.735	-200.000	-0.002	0.303
-157.720	182.616	-0.090	0.133
-156.706	104.323	-0.311	0.365
-155.691	-200.000	-0.022	0.263
-154.677	-115.183	-0.253	0.048
-153.662	-97.818	-0.212	-0.055
-152.647	-68.413	-0.066	0.026
-151.633	800.000	-0.049	0.172
-150.618	147.573	0.121	0.163
-149.604	360.509	-0.145	-0.290
-148.589	-143.956	-0.261	0.025
-147.574	6.526	0.199	-0.148
-146.560	800.000	-0.064	0.199
-145.545	-200.000	-0.084	0.559
-144.531	158.320	-0.163	0.225
-143.516	-105.425	0.091	0.021
-142.502	-76.347	-0.305	0.107
-141.487	256.115	0.103	-0.176
-140.472	-3.353	0.263	-0.183
-139.458	-21.112	0.045	-0.028
-138.443	-200.000	0.023	-0.111
-137.429	43.554	0.105	0.096
-136.414	-100.586	-0.130	0.032
-135.399	800.000	-0.080	0.267
-134.385	-177.105	0.336	-0.008
-133.370	-68.740	0.241	0.093
-132.356	-93.870	0.279	-0.077
-131.341	-141.188	0.156	0.016
-130.326	42.700	0.112	-0.102
-129.312	202.519	0.146	0.225
-128.297	-200.000	0.007	0.112
-127.283	-103.933	0.053	-0.012
-126.268	328.541	0.134	-0.258
-125.253	-48.249	0.430	-0.207
-124.239	196.757	-0.110	0.168
-123.224	-125.777	-0.578	0.087
-122.210	-200.000	-0.020	0.133
-121.195	-100.957	0.159	0.039
-120.180	-38.454	0.148	0.078
-119.166	13.024	0.081	0.062
-118.151	48.400	0.293	-0.274
-117.137	8.257	0.176	-0.132
-116.122	-117.249	0.065	-0.012
-115.107	163.129	-0.261	0.367
-114.093	507.556	0.190	0.441
-113.078	-126.445	0.098	0.015
-112.064	-143.781	-0.188	0.018
-111.049	44.546	-0.112	-0.103
-110.034	-99.200	0.174	0.044
-109.020	-44.649	0.127	0.064
-108.005	-31.588	0.268	0.150
-106.991	44.960	0.077	-0.071
-105.976	-46.623	0.039	-0.019
-104.962	-200.000	-0.002	0.015
-103.947	800.000	0.183	-0.538
-102.932	-200.000	0.065	-0.344
-101.918	-195.222	-0.245	0.002
-100.903	5.616	0.167	-0.123
-99.889	360.162	-0.056	0.111
-98.874	-200.000	0.025	0.165
-97.859	-38.459	-0.229	0.121
-96.845	-123.554	-0.243	0.038
-95.830	-40.330	-0.255	0.132
-94.816	-200.000	0.028	-0.223
-93.801	-200.000	-0.012	0.191
-92.786	-126.126	-0.181	0.027
-91.772	-80.913	0.241	-0.080
-90.757	266.939	-0.042	-0.073
-89.743	-180.589	-0.409	-0.008
-88.728	-200.000	-0.035	0.386
-87.713	800.000	0.036	0.138
-86.699	-101.786	0.435	-0.105
-85.684	-200.000	-0.009	-0.448
-84.670	-125.180	-0.208	-0.032
-83.655	800.000	-0.096	0.286
-82.640	-113.667	0.090	-0.018
-81.626	306.983	-0.181	0.337
-80.611	-200.000	0.021	-0.204
-79.597	436.899	0.093	0.202
-78.582	800.000	0.045	0.154
-77.567	-92.574	-0.247	0.069
-76.553	-175.856	-0.320	0.009
-75.538	334.674	0.192	0.371
-74.524	14.133	-0.185	-0.144
-73.509	-71.073	0.160	0.060
-72.494	186.411	-0.176	-0.261
-71.480	-115.475	0.161	0.030
-70.465	-105.845	0.294	-0.066
-69.451	126.600	0.213	0.269
-68.436	203.632	0.080	-0.124
-67.422	-21.551	0.296	-0.180
-66.407	-32.672	-0.274	-0.152
-65.392	-22.219	-0.118	0.071
-64.378	-172.123	0.404	0.013
-63.363	-98.260	-0.214	0.055
-62.349	-117.104	0.352	-0.064
-61.334	161.624	-0.749	-1.043
-60.319	-54.878	0.329	0.148
-59.305	800.000	-0.192	-0.559
-58.290	-200.000	0.127	0.742
-57.276	347.398	0.818	1.604
-56.261	-200.000	75.587	521.601
-55.246	544.353	1311.941	3119.150
-54.232	143.775	2571.033	3411.411
-53.217	110.276	2369.920	2833.893
-52.203	50.649	1983.109	1868.435
-51.188	44.783	1768.108	1619.362
-50.173	41.870	1721.805	1554.297
-49.159	56.022	1756.319	1696.472
-48.144	61.573	1774.214	1757.069
-47.130	44.576	1737.575	1589.523
-46.115	41.399	1724.311	1552.642
-45.100	41.237	1719.623	1547.101
-44.086	41.262	1716.651	1544.558
-43.071	41.212	1713.776	1541.524
-42.057	41.154	1711.558	1539.018
-41.042	41.162	1709.452	1537.130
-40.027	41.097	1708.049	1535.300
-39.013	41.153	1705.736	1533.593
-37.998	41.179	1703.674	1531.882
-36.984	41.206	1702.321	1530.813
-35.969	41.276	1700.976	1530.078
-34.954	41.404	1698.960	1529.189
-33.940	41.394	1696.577	1526.904
-32.925	41.334	1695.151	1525.098
-31.911	41.313	1693.535	1523.425
-30.896	41.377	1691.409	1521.939
-29.881	41.358	1689.610	1520.121
-28.867	41.273	1688.286	1518.220
-27.852	41.328	1686.563	1517.028
-26.838	41.280	1685.504	1515.649
-25.823	41.288	1684.081	1514.369
-24.809	41.424	1682.176	1513.626
-23.794	41.347	1680.778	1511.728
-22.779	41.306	1679.190	1509.928
-21.765	41.376	1677.378	1508.772
-20.750	41.293	1675.849	1506.711
-19.736	41.360	1673.919	1505.419
-18.721	41.471	1672.607	1505.012
-17.706	41.335	1671.195	1502.657
-16.692	41.323	1669.882	1501.333
-15.677	41.197	1668.534	1499.112
-14.663	41.295	1666.808	1498.239
-13.648	41.302	1665.481	1497.034
-12.633	41.346	1663.836	1495.832
-11.619	41.282	1661.918	1493.568
-10.604	41.357	1660.189	1492.517
-9.590	41.357	1659.240	1491.601
-8.575	41.432	1657.927	1490.925
-7.560	41.323	1656.445	1488.713
-6.546	41.255	1656.029	1487.772
-5.531	41.329	1654.725	1487.094
-4.517	41.263	1653.437	1485.386
-3.502	41.257	1652.396	1484.350
-2.487	41.412	1650.493	1483.737
-1.473	41.481	1639.438	1474.250
-0.458	39.410	1620.111	1441.664
0.556	33.847	1619.193	1406.972
1.571	31.144	1643.492	1407.604
2.586	30.132	1658.436	1412.569
3.600	26.211	1603.550	1336.744
4.615	13.814	1480.530	1148.800
5.629	2.528	1403.878	1014.782
6.644	0.440	1393.406	993.383
7.659	0.282	1391.797	991.112
8.673	0.133	1390.932	989.429
9.688	0.155	1389.022	988.125
10.702	-0.162	1386.521	984.183
11.717	3.671	1394.343	1014.874
12.731	15.052	1416.576	1106.590
13.746	22.955	1430.208	1169.671
14.761	23.647	1429.823	1173.829
15.775	23.589	1429.704	1173.246
16.790	23.778	1428.471	1173.375
17.804	23.745	1428.133	1172.776
18.819	23.957	1427.809	1173.810
19.834	23.968	1427.368	1173.412
20.848	24.057	1426.459	1173.149
21.863	24.111	1425.254	1172.408
22.877	24.086	1424.829	1171.791
23.892	23.997	1424.206	1170.592
24.907	24.052	1422.846	1169.732
25.921	24.110	1421.946	1169.267
26.936	24.068	1420.603	1167.785
27.950	24.016	1419.813	1166.692
28.965	24.047	1418.697	1165.875
29.980	24.022	1416.799	1164.049
30.994	24.067	1415.569	1163.230
32.009	24.060	1414.455	1162.162
33.023	24.079	1413.447	1161.359
34.038	24.043	1412.348	1160.119
35.053	23.993	1411.301	1158.829
36.067	23.969	1410.578	1157.976
37.082	24.010	1409.097	1156.922
38.096	24.082	1407.923	1156.323
39.111	23.961	1407.502	1155.089
40.126	23.975	1406.828	1154.527
41.140	23.986	1406.565	1154.284
42.155	24.054	1405.653	1153.871
43.169	23.919	1406.152	1153.302
44.184	23.991	1406.225	1153.727
45.199	24.018	1405.387	1153.111
46.213	23.948	1405.020	1152.256
47.228	23.950	1403.851	1151.209
48.242	24.011	1402.947	1150.758
49.257	23.995	1400.902	1148.881
50.271	24.020	1399.913	1148.124
51.286	23.882	1398.692	1146.132
52.301	24.021	1396.549	1145.169
53.315	24.073	1395.620	1144.644
54.330	24.089	1395.032	1144.160
55.344	24.030	1394.522	1143.262
56.359	23.943	1393.336	1141.634
57.374	24.002	1391.839	1140.682
58.388	23.954	1391.806	1140.248
59.403	24.064	1391.265	1140.405
60.417	24.109	1390.345	1139.841
61.432	24.012	1389.771	1138.647
62.447	23.972	1389.030	1137.684
63.461	24.041	1387.563	1136.823
64.476	24.026	1387.045	1136.205
65.490	24.033	1385.316	1134.733
66.505	24.075	1384.100	1133.898
67.520	24.011	1383.345	1132.775
68.534	23.910	1382.230	1131.120
69.549	23.925	1380.961	1130.077
70.563	23.984	1380.164	1129.700
71.578	24.027	1378.989	1128.909
72.593	24.006	1377.927	1127.810
73.607	24.074	1377.316	1127.636
74.622	24.079	1376.517	1126.915
75.636	24.154	1375.348	1126.333
76.651	24.053	1375.007	1125.313
77.666	23.940	1374.846	1124.372
78.680	23.990	1374.331	1124.164
79.695	24.101	1373.223	1123.862
80.709	24.082	1372.448	1123.010
81.724	24.122	1371.560	1122.432
82.739	24.063	1370.646	1121.213
83.753	23.949	1369.884	1119.774
84.768	23.986	1368.677	1118.920
85.782	24.024	1367.254	1117.897
86.797	24.029	1366.363	1117.102
87.812	24.030	1364.790	1115.720
88.826	23.985	1364.465	1115.078
89.841	24.146	1362.639	1114.495
90.855	24.140	1362.034	1113.862
91.870	24.142	1360.804	1112.770
92.884	24.056	1359.976	1111.457
93.899	24.021	1359.552	1110.794
94.914	24.031	1358.967	1110.278
95.928	24.035	1357.917	1109.349
96.943	24.076	1357.101	1108.838
97.957	24.071	1356.608	1108.304
98.972	24.029	1355.657	1107.168
99.987	24.128	1354.449	1106.698
101.001	24.131	1353.374	1105.745
102.016	24.044	1352.725	1104.573
103.030	24.058	1351.500	1103.565
104.045	24.107	1350.917	1103.295
105.060	24.175	1349.694	1102.620
106.074	24.071	1348.579	1100.965
107.089	24.108	1347.343	1100.089
108.103	24.170	1346.554	1099.732
109.118	24.095	1345.472	1098.288
110.133	24.256	1344.023	1097.997
111.147	24.081	1343.182	1096.137
112.162	24.166	1341.724	1095.375
113.176	24.212	1340.749	1094.761
114.191	24.188	1340.102	1093.991
115.206	24.155	1338.782	1092.613
116.220	24.062	1337.996	1091.303
117.235	24.069	1337.293	1090.676
118.249	24.216	1336.045	1090.466
119.264	24.155	1334.932	1089.088
120.279	24.285	1333.843	1088.894
121.293	24.150	1333.681	1087.845
122.308	24.111	1332.696	1086.704
123.322	24.196	1331.423	1086.087
124.337	24.219	1330.921	1085.722
125.352	24.214	1329.749	1084.641
126.366	24.227	1328.757	1083.814
127.381	24.281	1327.893	1083.341
128.395	24.241	1326.919	1082.206
129.410	24.229	1326.155	1081.418
130.424	24.209	1325.985	1081.060
131.439	24.202	1324.606	1079.800
132.454	24.187	1323.804	1078.961
133.468	24.212	1323.177	1078.506
134.483	24.227	1322.647	1078.066
135.497	24.151	1322.133	1077.093
136.512	24.332	1320.072	1076.414
137.527	24.194	1319.646	1075.137
138.541	24.282	1317.962	1074.200
139.556	24.307	1316.866	1073.362
140.570	24.152	1316.357	1071.919
141.585	24.119	1315.189	1070.676
142.600	24.160	1313.952	1069.816
143.614	24.221	1313.072	1069.371
144.629	24.174	1311.856	1068.009
145.643	24.166	1310.813	1067.016
146.658	24.105	1310.195	1066.050
147.673	24.049	1308.873	1064.547
148.687	24.155	1308.003	1064.382
149.702	24.118	1306.706	1063.012
150.716	24.030	1305.713	1061.583
151.731	24.135	1304.602	1061.209
152.746	24.232	1303.193	1060.546
153.760	24.236	1301.987	1059.499
154.775	24.266	1300.890	1058.691
155.789	24.186	1300.448	1057.763
156.804	24.182	1299.640	1056.988
157.819	24.246	1298.592	1056.417
158.833	24.235	1297.782	1055.601
159.848	24.198	1297.196	1054.812
160.862	24.176	1296.992	1054.426
161.877	24.170	1296.134	1053.595
162.892	24.197	1294.897	1052.658
163.906	24.297	1293.678	1052.162
164.921	24.309	1292.879	1051.489
165.935	24.193	1292.902	1050.733
166.950	24.257	1292.213	1050.459
167.964	24.404	1290.728	1050.025
168.979	24.282	1290.656	1049.155
169.994	24.331	1289.881	1048.717
171.008	24.225	1289.472	1047.669
172.023	24.333	1288.346	1047.300
173.037	24.229	1287.997	1046.310
174.052	24.258	1287.052	1045.622
175.067	24.330	1286.107	1045.182
176.081	24.323	1285.144	1044.266
177.096	24.345	1284.251	1043.575
178.110	24.305	1283.490	1042.633
179.125	24.250	1282.597	1041.491
180.140	24.344	1281.588	1041.127
181.154	24.324	1280.343	1039.911
182.169	24.362	1278.961	1038.915
183.183	24.273	1278.433	1037.876
184.198	24.327	1277.243	1037.135
185.213	24.293	1276.210	1036.008
186.227	24.380	1275.544	1035.878
187.242	24.527	1273.911	1035.315
188.256	24.366	1273.426	1033.896
189.271	24.340	1272.878	1033.205
190.286	24.391	1271.806	1032.543
191.300	24.321	1271.665	1031.931
192.315	24.323	1270.955	1031.275
193.329	24.283	1270.884	1030.895
194.344	24.389	1270.012	1030.708
195.359	24.303	1269.801	1029.950
196.373	24.366	1269.171	1029.708
197.388	24.276	1268.892	1028.870
198.402	24.308	1268.052	1028.282
199.417	24.385	1267.621	1028.291
200.432	24.371	1267.180	1027.760
201.446	24.389	1266.529	1027.242
202.461	24.341	1266.030	1026.470
203.475	24.320	1265.006	1025.430
204.490	24.341	1264.432	1024.995
205.504	24.335	1262.994	1023.707
206.519	24.410	1262.083	1023.305
207.534	24.493	1260.886	1022.719
208.548	24.385	1260.683	1021.845
209.563	24.471	1259.237	1021.076
210.577	24.432	1258.243	1019.957
211.592	24.454	1257.664	1019.523
212.607	24.606	1256.488	1019.345
213.621	24.500	1256.002	1018.256
214.636	24.428	1255.282	1017.176
215.650	24.474	1254.390	1016.625
216.665	24.561	1253.208	1016.070
217.680	24.546	1252.596	1015.400
218.694	24.518	1251.756	1014.467
219.709	24.456	1251.340	1013.690
220.723	24.385	1250.791	1012.750
221.738	24.475	1249.516	1012.142
222.753	24.453	1248.742	1011.298
223.767	24.450	1248.399	1010.915
224.782	24.626	1247.634	1011.203
225.796	24.458	1247.192	1009.801
226.811	24.611	1246.286	1009.844
227.826	24.608	1246.279	1009.731
228.840	24.519	1245.583	1008.576
229.855	24.625	1244.429	1008.153
230.869	24.613	1243.884	1007.554
231.884	24.616	1242.801	1006.602
232.899	24.596	1241.998	1005.749
233.913	24.492	1242.060	1005.125
234.928	24.644	1241.074	1005.098
235.942	24.679	1240.587	1004.807
236.957	24.570	1240.194	1003.788
237.972	24.565	1239.141	1002.819
238.986	24.602	1238.303	1002.259
240.001	24.701	1238.048	1002.519
241.015	24.773	1237.082	1002.051
242.030	24.747	1236.518	1001.364
243.045	24.765	1235.323	1000.404
244.059	24.737	1234.503	999.496
245.074	24.767	1233.583	998.834
246.088	24.719	1233.202	998.167
247.103	24.815	1232.263	997.855
248.117	24.714	1231.484	996.570
249.132	24.782	1230.972	996.448
250.147	24.849	1230.181	996.094
251.161	24.887	1229.077	995.321
252.176	24.833	1228.567	994.519
253.190	24.864	1227.846	994.021
254.205	24.887	1227.554	993.823
255.220	24.824	1226.813	992.786
256.234	24.851	1225.891	992.100
257.249	24.826	1225.232	991.341
258.263	24.769	1225.043	990.787
259.278	24.934	1224.255	990.974
260.293	24.828	1224.235	990.284
261.307	24.915	1223.265	989.894
262.322	24.848	1222.932	989.167
263.336	24.905	1222.250	988.840
264.351	24.911	1221.309	988.028
265.366	24.914	1220.571	987.360
266.380	24.819	1220.221	986.465
267.395	24.831	1219.344	985.732
268.409	24.823	1218.932	985.268
269.424	24.821	1218.325	984.680
270.439	24.935	1218.034	984.986
271.453	24.951	1217.029	984.171
272.468	24.883	1215.935	982.825
273.482	24.995	1215.017	982.614
274.497	24.933	1215.258	982.380
275.512	25.031	1214.526	982.242
276.526	24.999	1213.864	981.442
277.541	24.956	1213.195	980.578
278.555	24.964	1212.837	980.246
279.570	25.037	1211.764	979.692
280.585	24.877	1210.883	978.021
281.599	25.101	1209.529	978.060
282.614	25.065	1209.082	977.417
283.628	25.091	1208.051	976.641
284.643	24.989	1207.491	975.542
285.657	24.997	1206.563	974.753
286.672	25.038	1205.632	974.135
287.687	24.987	1205.161	973.394
288.701	25.111	1203.816	972.890
289.716	25.113	1203.342	972.432
290.730	25.040	1203.177	971.819
291.745	25.129	1202.242	971.460
292.760	25.133	1201.536	970.827
293.774	25.146	1201.200	970.540
294.789	25.144	1200.500	969.878
295.803	25.182	1199.681	969.333
296.818	25.198	1199.308	969.035
297.833	25.244	1198.297	968.377
298.847	25.148	1197.710	967.303
299.862	25.214	1197.237	967.186
300.876	25.157	1196.561	966.249
301.891	25.216	1195.678	965.769
302.906	25.290	1195.058	965.582
303.920	25.321	1194.462	965.182
304.935	25.256	1193.940	964.325
305.949	25.239	1193.324	963.652
306.964	25.219	1192.486	962.782
307.979	25.305	1191.751	962.565
308.993	25.316	1191.350	962.214
310.008	25.434	1189.896	961.584
311.022	25.361	1189.739	960.981
312.037	25.385	1188.783	960.254
313.052	25.335	1188.085	959.339
314.066	25.342	1186.986	958.403
315.081	25.375	1186.376	958.002
316.095	25.396	1185.599	957.403
317.110	25.374	1185.217	956.893
318.125	25.302	1184.591	955.917
319.139	25.307	1184.064	955.437
320.154	25.390	1183.630	955.442
321.168	25.332	1182.836	954.405
322.183	25.343	1182.474	954.091
323.197	25.345	1182.009	953.640
324.212	25.306	1181.240	952.730
325.227	25.358	1181.008	952.735
326.241	25.349	1179.976	951.770
327.256	25.340	1179.657	951.379
328.270	25.495	1178.573	951.242
329.285	25.485	1177.286	950.064
330.300	25.544	1176.307	949.503
331.314	25.531	1176.265	949.317
332.329	25.473	1175.312	948.158
333.343	25.555	1174.226	947.628
334.358	25.565	1173.298	946.849
335.373	25.547	1172.911	946.357
336.387	25.582	1171.764	945.535
337.402	25.540	1171.614	945.110
338.416	25.557	1170.914	944.548
339.431	25.613	1170.038	944.052
340.446	25.569	1169.957	943.671
341.460	25.613	1169.316	943.304
342.475	25.713	1168.095	942.757
343.489	25.725	1167.158	941.981
344.504	25.677	1166.091	940.785
345.519	25.735	1165.570	940.587
346.533	25.730	1164.683	939.759
347.548	25.730	1164.152	939.249
348.562	25.799	1163.336	938.866
349.577	25.775	1162.746	938.181
350.592	25.742	1161.883	937.231
351.606	25.591	1161.189	935.801
352.621	25.749	1160.823	936.247
353.635	25.797	1160.303	935.997
354.650	25.747	1159.117	934.696
355.665	25.736	1158.769	934.276
356.679	25.826	1158.243	934.237
357.694	25.896	1157.577	933.977
358.708	25.762	1157.059	932.781
359.723	25.834	1156.009	932.226
360.738	25.699	1155.643	931.149
361.752	25.729	1155.129	930.809
362.767	25.875	1154.296	930.812
363.781	25.869	1153.752	930.256
364.796	25.911	1153.206	929.951
365.810	25.905	1152.561	929.319
366.825	25.957	1152.053	929.092
367.840	25.938	1151.595	928.544
368.854	25.990	1151.031	928.277
369.869	25.860	1150.452	927.058
370.883	26.014	1149.371	926.895
371.898	25.840	1148.754	925.422
372.913	25.977	1147.734	925.223
373.927	26.010	1147.705	925.284
374.942	26.032	1147.208	924.918
375.956	26.023	1146.825	924.481
376.971	26.015	1145.996	923.690
377.986	26.043	1145.555	923.395
379.000	26.032	1144.800	922.651
380.015	26.129	1144.173	922.557
381.029	26.022	1143.255	921.191
382.044	26.099	1142.818	921.150
383.059	26.184	1142.122	920.940
384.073	26.045	1141.610	919.737
385.088	26.084	1140.555	919.003
386.102	26.167	1139.709	918.661
387.117	26.186	1138.712	917.875
388.132	26.177	1138.002	917.176
389.146	26.158	1137.574	916.653
390.161	26.270	1136.857	916.565
391.175	26.205	1136.118	915.557
392.190	26.149	1135.649	914.814
393.205	26.275	1134.564	914.498
394.219	26.199	1134.054	913.617
395.234	26.276	1132.964	913.051
396.248	26.231	1132.392	912.283
397.263	26.255	1131.503	911.603
398.278	26.327	1130.855	911.365
399.292	26.315	1130.289	910.770
400.307	26.324	1129.761	910.306
401.321	26.323	1129.448	909.968
402.336	26.296	1128.588	909.058
403.350	26.321	1127.472	908.206
404.365	26.388	1127.019	908.100
405.380	26.391	1126.740	907.808
406.394	26.330	1125.582	906.490
407.409	26.370	1125.017	906.156
408.423	26.384	1124.146	905.441
409.438	26.523	1123.637	905.646
410.453	26.600	1122.633	905.142
411.467	26.492	1121.901	903.934
412.482	26.501	1121.347	903.450
413.496	26.431	1120.611	902.430
414.511	26.515	1120.131	902.384
415.526	26.549	1119.694	902.120
416.540	26.468	1119.203	901.240
417.555	26.498	1118.740	900.936
418.569	26.491	1118.121	900.325
419.584	26.532	1117.811	900.201
420.599	26.570	1117.384	899.962
421.613	84.109	1296.618	1363.327
422.628	79.096	1322.740	1363.449
