DTS Sentinel unit serial number:	SN413079Multiplexer serial number:	ORYXHardware model number:	OX4-SRSoftware version number:	ORYX F/W v4.00 Oryx Data Collector v3.7.2.0data status	okinstallation	princeton_trtdifferential loss correction	single-endedforward channel	channel 2reverse channel	N/Adate	2019/09/17time	04:35:35forward acquisition time	60.00reverse acquisition time	0.00gamma	496.2192k internal	0.2328k external	0.2328temperature offset calibration	0.9976default loss term (dB/km)	0.3790temperature slope calibration	1.0000multiplexer offset coefficient	1.0000multiplexer slope coefficient	1.0000fibre end	0.00T internal ref (°C)	29.67T ext. ref 1 (°C)	0.14T ext. ref 2 (°C)	24.10length (m)	temperature (°C)	Stokes	anti-Stokes-747.200	-84.580	-0.167	-0.053
-746.185	-154.836	-0.275	0.018
-745.171	129.557	-0.043	-0.056
-744.156	-59.450	-0.070	0.030
-743.142	47.411	0.181	-0.170
-742.127	-137.111	-0.248	0.029
-741.112	-14.381	-0.114	0.074
-740.098	-55.590	-0.609	0.275
-739.083	800.000	0.037	0.130
-738.069	-36.862	0.222	0.120
-737.054	-64.890	0.235	0.096
-736.039	127.585	-0.222	0.284
-735.025	-42.437	-0.136	0.070
-734.010	-200.000	0.058	-0.284
-732.996	-7.964	-0.196	-0.133
-731.981	-4.485	0.123	-0.086
-730.966	800.000	-0.036	0.150
-729.952	800.000	0.052	-0.170
-728.937	-7.476	-0.092	0.062
-727.923	130.945	0.075	-0.097
-726.908	-200.000	-0.169	0.000
-725.894	47.023	-0.111	0.104
-724.879	-70.984	-0.364	0.138
-723.864	-94.554	0.544	-0.149
-722.850	-123.296	-0.220	-0.035
-721.835	90.638	-0.097	-0.110
-720.821	-141.687	0.269	0.027
-719.806	-90.551	-0.039	0.011
-718.791	-130.301	0.284	0.039
-717.777	203.893	-0.178	-0.278
-716.762	-22.550	0.064	0.039
-715.748	-161.296	-0.509	0.027
-714.733	437.022	-0.057	0.125
-713.718	-70.416	0.263	-0.100
-712.704	75.596	-0.088	0.094
-711.689	-200.000	-0.215	0.000
-710.675	48.687	0.120	-0.113
-709.660	-48.073	0.287	-0.140
-708.645	800.000	-0.093	0.309
-707.631	-200.000	-0.107	0.524
-706.616	541.678	0.075	0.181
-705.602	-131.396	-0.084	0.011
-704.587	-200.000	0.068	-0.302
-703.572	800.000	-0.063	0.219
-702.558	-75.500	-0.346	-0.124
-701.543	315.085	-0.038	-0.073
-700.529	-125.356	-0.201	0.031
-699.514	706.100	-0.137	-0.363
-698.499	449.763	0.086	0.190
-697.485	-80.690	0.186	-0.062
-696.470	9.108	-0.052	-0.039
-695.456	-200.000	-0.012	0.304
-694.441	113.424	0.250	0.306
-693.426	-200.000	-0.025	0.258
-692.412	-200.000	0.001	-0.141
-691.397	-150.099	-0.134	-0.010
-690.383	192.598	0.143	-0.217
-689.368	43.617	-0.089	0.082
-688.354	68.569	0.075	0.078
-687.339	-108.249	-0.245	0.053
-686.324	506.383	-0.052	-0.122
-685.310	-107.329	-0.512	0.113
-684.295	22.760	0.120	0.099
-683.281	800.000	-0.025	-0.098
-682.266	176.983	-0.120	0.175
-681.251	187.161	-0.139	0.208
-680.237	-32.264	-0.189	-0.106
-679.222	-110.373	-0.034	0.007
-678.208	60.901	-0.076	0.075
-677.193	97.533	-0.269	0.311
-676.178	-200.000	0.006	-0.061
-675.164	201.909	0.044	-0.068
-674.149	-200.000	-0.034	0.236
-673.135	15.827	-0.239	-0.189
-672.120	-43.478	0.305	-0.155
-671.105	133.831	-0.126	0.163
-670.091	-54.291	0.144	-0.066
-669.076	13.857	-0.151	-0.118
-668.062	-200.000	0.009	-0.079
-667.047	214.694	0.136	-0.216
-666.032	103.428	0.156	-0.183
-665.018	85.974	0.166	0.184
-664.003	-51.702	-0.237	-0.111
-662.989	-200.000	-0.010	-0.221
-661.974	-200.000	-0.037	-0.249
-660.959	-3.977	-0.072	0.050
-659.945	-200.000	-0.048	0.363
-658.930	555.941	0.159	0.385
-657.916	-11.960	0.134	-0.088
-656.901	-42.843	-0.197	0.100
-655.886	372.718	0.051	0.105
-654.872	367.619	0.042	-0.085
-653.857	278.283	-0.212	-0.380
-652.843	-200.000	-0.042	-0.373
-651.828	-200.000	-0.015	0.191
-650.814	448.766	0.084	0.185
-649.799	-200.000	-0.011	-0.250
-648.784	697.609	0.125	-0.330
-647.770	265.359	-0.156	-0.274
-646.755	118.130	-0.099	-0.122
-645.741	-200.000	0.028	0.160
-644.726	-121.826	0.403	0.067
-643.711	60.843	0.101	0.100
-642.697	-38.858	0.070	0.037
-641.682	5.632	0.036	-0.027
-640.668	-117.973	0.387	0.069
-639.653	-146.948	-0.092	-0.008
-638.638	71.903	-0.239	0.250
-637.624	-162.733	0.316	0.016
-636.609	800.000	-0.071	-0.225
-635.595	-69.587	-0.229	-0.088
-634.580	19.469	-0.295	0.238
-633.565	36.154	-0.158	-0.140
-632.551	-65.771	-0.203	-0.081
-631.536	-76.061	-0.156	-0.055
-630.522	-200.000	0.034	0.185
-629.507	-169.313	0.300	0.011
-628.492	-56.167	0.227	-0.102
-627.478	335.207	-0.124	0.241
-626.463	-118.141	-0.513	-0.092
-625.449	282.095	0.106	0.191
-624.434	12.105	-0.173	-0.133
-623.419	800.000	0.019	-0.078
-622.405	63.677	-0.205	-0.206
-621.390	454.164	-0.058	0.129
-620.376	-96.497	-0.142	0.038
-619.361	-114.118	0.124	0.024
-618.346	-196.054	0.198	0.001
-617.332	135.518	-0.172	-0.224
-616.317	61.691	0.149	0.149
-615.303	-109.499	0.296	0.063
-614.288	-159.429	-0.226	0.013
-613.273	101.446	-0.089	0.104
-612.259	800.000	0.084	0.262
-611.244	-65.589	-0.164	0.066
-610.230	-93.597	-0.125	-0.034
-609.215	294.820	0.033	-0.061
-608.201	198.524	-0.032	0.049
-607.186	-200.000	-0.026	0.128
-606.171	-4.664	0.058	-0.040
-605.157	-70.080	0.142	-0.054
-604.142	800.000	-0.029	-0.115
-603.128	-200.000	0.018	-0.160
-602.113	-200.000	-0.023	-0.236
-601.098	-144.297	0.300	0.028
-600.084	222.750	-0.237	-0.383
-599.069	-158.713	-0.084	0.005
-598.055	-124.164	-0.350	0.055
-597.040	200.727	0.026	-0.040
-596.025	-200.000	0.033	-0.305
-595.011	-24.474	-0.149	0.089
-593.996	-129.091	0.119	0.017
-592.982	800.000	0.050	-0.216
-591.967	-103.869	0.276	0.065
-590.952	-135.152	-0.112	0.013
-589.938	800.000	-0.066	0.261
-588.923	-106.523	-0.130	0.029
-587.909	308.251	0.052	-0.097
-586.894	-65.925	-0.128	0.051
-585.879	-200.000	-0.010	-0.110
-584.865	757.285	-0.049	-0.134
-583.850	148.964	-0.133	0.180
-582.836	-119.557	-0.283	-0.049
-581.821	800.000	-0.080	0.276
-580.806	-200.000	0.070	0.471
-579.792	-200.000	-0.006	0.134
-578.777	-200.000	0.038	-0.231
-577.763	-140.712	0.322	0.033
-576.748	-165.839	-0.133	0.006
-575.733	138.045	-0.094	-0.123
-574.719	-200.000	0.023	0.128
-573.704	-200.000	0.031	0.233
-572.690	-82.725	-0.419	-0.136
-571.675	-200.000	0.025	-0.253
-570.661	-70.204	0.182	0.069
-569.646	-64.278	-0.275	-0.112
-568.631	-200.000	-0.034	0.243
-567.617	-200.000	-0.071	-0.418
-566.602	100.398	0.047	-0.055
-565.588	340.418	0.186	-0.363
-564.573	-200.000	-0.055	-0.248
-563.558	360.579	-0.085	-0.171
-562.544	-157.546	0.174	-0.010
-561.529	-200.000	0.037	-0.227
-560.515	-90.055	0.249	-0.073
-559.500	-79.635	-0.186	0.063
-558.485	-200.000	0.003	0.015
-557.471	381.148	0.078	-0.161
-556.456	170.375	0.125	-0.179
-555.442	175.018	-0.024	-0.035
-554.427	-51.200	0.279	-0.131
-553.412	-169.989	-0.048	-0.002
-552.398	461.325	0.041	0.092
-551.383	-200.000	0.011	0.164
-550.369	25.485	-0.295	0.245
-549.354	302.108	-0.239	-0.442
-548.339	515.810	-0.116	-0.271
-547.325	800.000	0.045	0.163
-546.310	141.328	0.198	0.262
-545.296	-200.000	-0.034	0.324
-544.281	800.000	-0.025	0.080
-543.266	46.569	-0.303	0.281
-542.252	800.000	-0.094	0.309
-541.237	-200.000	-0.017	-0.289
-540.223	-161.913	0.263	0.013
-539.208	-135.812	-0.230	0.027
-538.193	74.411	0.085	0.089
-537.179	63.436	0.017	-0.017
-536.164	-109.547	-0.174	0.037
-535.150	112.809	0.139	-0.168
-534.135	-200.000	0.020	-0.168
-533.121	70.608	0.163	-0.169
-532.106	263.930	0.102	-0.178
-531.091	-200.000	-0.066	0.303
-530.077	800.000	-0.059	0.198
-529.062	24.683	0.029	0.024
-528.048	25.160	0.344	0.285
-527.033	800.000	-0.034	0.107
-526.018	800.000	0.004	0.013
-525.004	100.786	-0.062	0.072
-523.989	67.943	0.297	0.303
-522.975	-156.214	-0.235	-0.015
-521.960	510.545	0.070	0.163
-520.945	64.570	0.066	0.066
-519.931	568.129	0.070	0.170
-518.916	514.378	-0.157	-0.367
-517.902	-200.000	-0.014	-0.150
-516.887	-90.868	-0.335	0.096
-515.872	-141.377	-0.359	-0.036
-514.858	-200.000	0.022	-0.324
-513.843	-103.797	-0.272	-0.064
-512.829	100.429	-0.192	0.222
-511.814	51.811	0.049	-0.047
-510.799	-200.000	0.006	-0.270
-509.785	129.512	0.075	-0.096
-508.770	-116.484	0.166	0.031
-507.756	4.835	0.069	0.050
-506.741	318.830	0.081	-0.153
-505.726	786.124	-0.107	-0.294
-504.712	-22.320	0.323	-0.196
-503.697	-106.845	-0.180	-0.040
-502.683	133.679	-0.063	-0.081
-501.668	45.435	-0.254	-0.234
-500.653	10.686	-0.256	-0.195
-499.639	-143.420	0.262	-0.025
-498.624	681.821	-0.020	0.052
-497.610	-120.017	-0.102	-0.017
-496.595	545.089	-0.129	0.307
-495.581	-39.398	0.173	0.091
-494.566	-200.000	-0.028	-0.148
-493.551	-78.786	-0.202	-0.069
-492.537	-200.000	-0.011	0.053
-491.522	409.040	0.124	-0.261
-490.508	35.739	0.197	-0.173
-489.493	-130.167	-0.155	0.021
-488.478	-200.000	0.064	-0.458
-487.464	800.000	0.031	0.106
-486.449	-144.592	-0.427	0.039
-485.435	-18.123	-0.091	0.057
-484.420	343.517	-0.105	0.205
-483.405	800.000	0.031	-0.102
-482.391	-19.568	0.355	-0.219
-481.376	314.164	-0.156	0.292
-480.362	800.000	-0.037	-0.135
-479.347	-59.436	0.184	0.079
-478.332	-200.000	-0.016	0.126
-477.318	448.311	-0.090	-0.199
-476.303	-101.154	0.302	0.074
-475.289	291.596	0.217	0.393
-474.274	-3.560	0.110	0.076
-473.259	142.773	-0.040	0.053
-472.245	380.016	0.061	-0.125
-471.230	-66.462	-0.346	0.137
-470.216	-37.973	0.061	0.033
-469.201	-45.242	-0.420	-0.208
-468.186	-83.284	-0.304	0.097
-467.172	-23.792	-0.355	-0.212
-466.157	-71.690	-0.098	0.036
-465.143	234.837	-0.118	-0.193
-464.128	205.062	-0.212	-0.328
-463.113	-102.328	0.029	-0.007
-462.099	69.673	0.089	0.091
-461.084	179.028	-0.188	-0.274
-460.070	-200.000	0.001	0.096
-459.055	119.841	-0.048	0.060
-458.040	-99.361	0.184	-0.046
-457.026	2.232	0.194	-0.140
-456.011	800.000	0.073	-0.243
-454.997	256.560	-0.096	0.165
-453.982	-97.356	0.115	0.030
-452.968	-140.715	-0.277	0.029
-451.953	-86.949	0.439	0.133
-450.938	181.094	-0.015	0.022
-449.924	106.937	-0.245	-0.289
-448.909	-89.150	0.259	-0.076
-447.895	168.239	-0.041	0.058
-446.880	342.524	0.056	-0.110
-445.865	243.722	-0.077	0.128
-444.851	46.519	0.167	-0.154
-443.836	-58.288	0.120	-0.052
-442.822	-58.002	0.213	0.092
-441.807	34.229	-0.345	0.300
-440.792	-133.485	0.231	-0.029
-439.778	-175.703	0.153	-0.004
-438.763	-94.996	-0.173	0.047
-437.749	-200.000	0.004	-0.064
-436.734	-123.725	-0.283	0.045
-435.719	649.232	0.070	-0.179
-434.705	-48.760	-0.147	0.070
-433.690	192.429	0.059	0.088
-432.676	-62.850	0.116	-0.048
-431.661	-65.941	0.232	0.092
-430.646	-200.000	0.013	-0.237
-429.632	-51.972	0.092	-0.042
-428.617	-58.358	0.289	-0.125
-427.603	91.606	0.086	-0.097
-426.588	-200.000	-0.207	-0.000
-425.573	-132.955	-0.217	0.027
-424.559	800.000	0.076	-0.209
-423.544	800.000	0.057	0.215
-422.530	6.509	0.194	-0.143
-421.515	80.083	0.066	-0.071
-420.500	217.802	-0.146	0.232
-419.486	382.367	0.112	0.228
-418.471	-47.434	-0.017	0.008
-417.457	39.027	-0.052	-0.047
-416.442	244.610	-0.127	0.213
-415.428	100.624	0.046	0.053
-414.413	-102.439	-0.045	0.011
-413.398	-88.780	-0.147	0.043
-412.384	136.448	0.193	0.251
-411.369	-4.867	0.022	-0.015
-410.355	81.363	0.131	-0.141
-409.340	16.784	0.062	0.049
-408.325	800.000	-0.067	-0.252
-407.311	-61.502	0.321	-0.134
-406.296	71.495	-0.303	0.312
-405.282	37.961	0.344	0.304
-404.267	-200.000	-0.027	0.133
-403.252	-125.047	0.131	0.020
-402.238	-103.793	-0.277	-0.065
-401.223	-200.000	0.008	0.298
-400.209	-102.404	0.154	0.037
-399.194	-62.018	-0.125	-0.052
-398.179	800.000	0.026	0.090
-397.165	-123.877	0.303	0.048
-396.150	-200.000	-0.007	-0.199
-395.136	-70.921	-0.263	0.098
-394.121	-200.000	0.002	-0.425
-393.106	108.301	0.136	0.161
-392.092	800.000	0.135	0.454
-391.077	-88.274	0.168	-0.050
-390.063	239.915	0.171	0.283
-389.048	172.161	0.153	0.219
-388.033	-131.843	-0.240	0.031
-387.019	23.318	-0.299	-0.244
-386.004	-125.411	0.379	0.057
-384.990	-187.631	-0.399	0.005
-383.975	-86.541	0.194	-0.059
-382.960	-200.000	0.004	-0.086
-381.946	-149.787	0.143	-0.011
-380.931	-160.242	0.291	0.016
-379.917	-200.000	-0.007	-0.088
-378.902	85.382	-0.062	0.067
-377.888	800.000	0.051	0.218
-376.873	-32.674	0.112	0.062
-375.858	-200.000	0.028	-0.212
-374.844	-117.188	-0.165	0.030
-373.829	716.102	-0.045	-0.119
-372.815	800.000	-0.032	0.120
-371.800	26.568	0.115	0.096
-370.785	138.285	-0.070	0.092
-369.771	275.164	0.133	-0.233
-368.756	5.247	0.239	0.175
-367.742	-200.000	0.012	0.118
-366.727	783.758	-0.076	-0.207
-365.712	696.755	0.040	-0.105
-364.698	75.230	0.323	0.338
-363.683	-1.243	-0.305	0.214
-362.669	-159.883	-0.208	0.011
-361.654	264.551	-0.117	0.202
-360.639	-52.406	0.387	-0.178
-359.625	-200.000	-0.002	0.049
-358.610	32.586	0.099	-0.085
-357.596	-159.293	-0.153	-0.008
-356.581	174.794	-0.113	-0.162
-355.566	-87.148	-0.182	-0.055
-354.552	232.014	-0.138	0.225
-353.537	103.552	-0.231	-0.269
-352.523	800.000	-0.044	-0.183
-351.508	-154.685	-0.186	0.012
-350.493	-12.761	-0.216	-0.140
-349.479	12.388	-0.214	0.164
-348.464	-130.373	0.184	0.025
-347.450	9.741	-0.019	0.014
-346.435	-200.000	-0.018	-0.275
-345.420	123.599	0.053	-0.066
-344.406	130.807	-0.064	0.081
-343.391	-200.000	0.016	0.075
-342.377	-200.000	-0.013	0.183
-341.362	62.787	-0.208	-0.207
-340.348	-200.000	-0.006	-0.099
-339.333	-131.636	0.208	-0.027
-338.318	342.850	-0.076	-0.148
-337.304	-161.020	0.056	0.003
-336.289	44.427	0.206	-0.187
-335.275	174.071	0.103	0.148
-334.260	800.000	-0.092	-0.347
-333.245	800.000	0.094	-0.320
-332.231	451.479	0.038	-0.084
-331.216	217.892	0.135	0.213
-330.202	-165.612	-0.240	-0.010
-329.187	52.373	-0.166	0.157
-328.172	-10.192	-0.109	-0.072
-327.158	-36.245	-0.205	0.110
-326.143	-43.689	-0.205	0.103
-325.129	-85.292	-0.316	0.098
-324.114	800.000	-0.092	0.376
-323.099	178.102	-0.126	0.182
-322.085	-38.256	0.329	-0.173
-321.070	-200.000	-0.016	-0.246
-320.056	559.000	0.058	-0.138
-319.041	-153.078	0.185	0.013
-318.026	-23.773	0.140	0.083
-317.012	800.000	-0.028	0.093
-315.997	-61.810	-0.168	-0.070
-314.983	-99.139	0.051	0.013
-313.968	321.532	-0.085	-0.160
-312.953	-200.000	-0.052	-0.319
-311.939	-78.190	0.174	-0.059
-310.924	558.348	0.085	-0.202
-309.910	800.000	-0.064	-0.206
-308.895	-34.165	0.189	-0.103
-307.880	-93.340	0.283	-0.078
-306.866	32.861	-0.082	-0.070
-305.851	18.920	0.397	0.315
-304.837	92.890	0.127	0.142
-303.822	-200.000	0.015	-0.214
-302.807	516.609	-0.127	-0.294
-301.793	53.590	-0.091	0.086
-300.778	-21.058	0.252	-0.153
-299.764	654.389	0.191	0.484
-298.749	-103.659	0.194	0.045
-297.735	296.556	-0.084	-0.153
-296.720	-200.000	0.007	0.071
-295.705	-200.000	-0.017	-0.163
-294.691	-146.137	-0.084	-0.007
-293.676	-60.437	-0.345	-0.145
-292.662	-1.951	0.063	-0.044
-291.647	393.535	0.105	0.216
-290.632	185.501	0.077	0.114
-289.618	-2.279	-0.155	-0.108
-288.603	800.000	0.065	-0.213
-287.589	-31.145	0.086	0.048
-286.574	-200.000	0.001	-0.388
-285.559	211.093	-0.119	0.185
-284.545	-2.844	0.270	-0.186
-283.530	254.028	0.063	0.106
-282.516	529.458	-0.067	0.158
-281.501	800.000	0.092	0.357
-280.486	62.993	0.153	-0.151
-279.472	396.427	0.096	0.198
-278.457	-52.676	0.088	0.040
-277.443	126.340	0.138	0.173
-276.428	282.330	0.149	0.265
-275.413	800.000	-0.074	0.237
-274.399	-200.000	-0.012	0.254
-273.384	-116.479	0.268	-0.049
-272.370	669.901	0.013	-0.033
-271.355	795.146	-0.095	-0.258
-270.340	169.030	-0.110	0.155
-269.326	-28.308	0.194	-0.111
-268.311	2.687	0.149	-0.107
-267.297	-32.105	0.095	-0.052
-266.282	800.000	0.027	0.117
-265.267	-97.330	0.271	0.070
-264.253	124.109	0.171	0.213
-263.238	614.563	0.107	-0.264
-262.224	-46.606	0.177	0.086
-261.209	-15.501	0.086	0.054
-260.195	220.385	-0.076	0.121
-259.180	13.944	-0.129	-0.099
-258.165	-134.148	0.161	0.020
-257.151	14.868	0.056	-0.043
-256.136	-200.000	-0.021	-0.125
-255.122	479.902	-0.147	0.329
-254.107	-142.460	0.343	0.033
-253.092	800.000	0.078	0.267
-252.078	-135.591	0.240	-0.028
-251.063	-4.739	-0.016	0.011
-250.049	-200.000	0.009	-0.124
-249.034	-45.309	-0.193	-0.095
-248.019	-91.351	-0.125	0.035
-247.005	143.082	0.132	-0.174
-245.990	800.000	0.028	-0.096
-244.976	53.062	0.101	-0.095
-243.961	-144.576	-0.187	-0.017
-242.946	58.002	-0.152	0.147
-241.932	-83.741	-0.230	0.072
-240.917	-200.000	0.031	-0.333
-239.903	85.525	0.137	0.149
-238.888	65.729	0.164	0.164
-237.873	225.410	-0.067	0.107
-236.859	-130.747	0.344	-0.046
-235.844	-11.518	0.111	0.072
-234.830	49.726	-0.266	-0.248
-233.815	85.207	0.098	-0.107
-232.800	-129.812	0.314	-0.043
-231.786	-110.967	-0.290	-0.059
-230.771	-110.009	-0.166	0.034
-229.757	-200.000	-0.006	-0.088
-228.742	800.000	0.123	0.409
-227.727	231.241	-0.116	0.188
-226.713	196.447	-0.177	0.267
-225.698	562.006	-0.256	0.612
-224.684	11.771	0.148	-0.112
-223.669	-51.086	0.370	-0.171
-222.655	308.928	-0.132	-0.244
-221.640	49.494	-0.106	0.098
-220.625	-166.576	0.250	0.010
-219.611	-200.000	0.031	0.166
-218.596	-48.873	0.348	0.165
-217.582	142.335	-0.070	-0.092
-216.567	-8.773	-0.272	-0.180
-215.552	413.067	0.084	-0.176
-214.538	800.000	-0.048	0.194
-213.523	425.169	0.215	0.457
-212.509	-7.981	0.036	-0.024
-211.494	277.772	-0.155	-0.272
-210.479	-121.703	0.217	0.035
-209.465	74.695	0.164	-0.171
-208.450	172.723	-0.113	0.160
-207.436	-40.865	0.194	-0.099
-206.421	-200.000	0.013	0.291
-205.406	-111.652	0.306	0.061
-204.392	33.483	0.120	0.103
-203.377	168.622	0.045	0.063
-202.363	-87.333	-0.288	-0.086
-201.348	-112.787	-0.211	-0.041
-200.333	-106.378	-0.570	0.126
-199.319	800.000	0.082	0.337
-198.304	50.693	-0.216	0.201
-197.290	-37.143	0.081	0.043
-196.275	-39.616	-0.206	0.106
-195.260	129.394	0.068	0.086
-194.246	-81.798	0.541	-0.175
-193.231	243.784	-0.207	-0.342
-192.217	-146.718	-0.119	0.010
-191.202	40.255	-0.065	0.058
-190.187	-81.340	-0.213	0.069
-189.173	-200.000	0.021	-0.176
-188.158	-33.218	0.225	-0.123
-187.144	544.556	-0.188	0.443
-186.129	-43.028	-0.180	0.090
-185.114	-200.000	-0.004	-0.054
-184.100	-128.140	-0.169	-0.024
-183.085	284.187	0.130	-0.231
-182.071	-59.987	-0.134	-0.056
-181.056	-79.178	-0.285	-0.095
-180.042	-160.966	0.213	0.011
-179.027	-55.035	-0.213	0.094
-178.012	-200.000	-0.021	-0.180
-176.998	-62.798	0.243	0.099
-175.983	117.598	0.029	0.035
-174.969	-177.389	0.234	-0.006
-173.954	-16.510	0.285	0.178
-172.939	800.000	-0.075	0.217
-171.925	436.807	-0.057	-0.122
-170.910	400.055	0.218	-0.450
-169.896	-39.574	-0.173	0.089
-168.881	112.632	-0.160	0.190
-167.866	17.080	-0.173	0.135
-166.852	-75.301	-0.326	-0.115
-165.837	193.959	0.028	0.042
-164.823	559.961	-0.067	-0.160
-163.808	-143.915	0.151	0.014
-162.793	316.004	0.117	-0.218
-161.779	101.799	-0.071	-0.081
-160.764	-156.810	0.238	-0.014
-159.750	-200.000	-0.068	0.316
-158.735	428.514	0.057	-0.120
-157.720	800.000	-0.108	0.299
-156.706	61.085	0.120	0.118
-155.691	7.570	-0.136	-0.100
-154.677	75.399	-0.169	0.175
-153.662	-200.000	-0.071	0.462
-152.647	-57.433	-0.383	-0.166
-151.633	-188.400	0.211	-0.003
-150.618	284.830	0.051	0.090
-149.604	-55.386	-0.151	0.067
-148.589	-147.586	0.209	0.017
-147.574	-151.398	-0.196	-0.014
-146.560	-200.000	0.022	-0.177
-145.545	143.419	0.203	-0.266
-144.531	-93.012	0.090	0.025
-143.516	800.000	0.040	-0.127
-142.502	-50.102	-0.059	0.027
-141.487	49.799	0.262	0.243
-140.472	156.020	0.176	0.238
-139.458	196.111	-0.033	-0.049
-138.443	80.872	-0.094	-0.100
-137.429	78.747	-0.174	0.183
-136.414	-49.121	0.319	-0.150
-135.399	-200.000	-0.008	0.132
-134.385	5.731	0.225	0.164
-133.370	-31.818	0.193	0.107
-132.356	97.191	0.192	0.217
-131.341	258.100	0.131	-0.222
-130.326	161.540	-0.131	0.180
-129.312	15.067	-0.035	0.027
-128.297	-112.004	-0.146	0.029
-127.283	542.211	0.137	-0.321
-126.268	74.692	-0.104	0.108
-125.253	134.525	-0.220	0.281
-124.239	-159.365	-0.145	0.008
-123.224	-9.869	0.131	0.086
-122.210	259.891	-0.158	0.268
-121.195	-31.252	0.104	-0.058
-120.180	91.590	-0.068	0.075
-119.166	-175.766	0.340	-0.009
-118.151	-200.000	0.005	-0.128
-117.137	-63.952	0.435	0.175
-116.122	-200.000	-0.023	0.459
-115.107	337.679	0.084	0.161
-114.093	-127.955	0.036	-0.005
-113.078	-147.501	-0.324	-0.027
-112.064	-112.115	-0.163	-0.032
-111.049	-7.884	-0.110	0.073
-110.034	23.973	-0.118	0.096
-109.020	-78.036	0.141	0.048
-108.005	800.000	0.083	0.288
-106.991	-21.799	-0.172	-0.103
-105.976	184.376	-0.044	-0.064
-104.962	-24.782	0.146	0.085
-103.947	72.512	0.323	0.331
-102.932	-200.000	-0.014	0.093
-101.918	66.802	-0.049	-0.049
-100.903	13.574	0.109	-0.083
-99.889	800.000	0.034	-0.133
-98.874	800.000	0.003	0.009
-97.859	228.787	0.033	0.054
-96.845	152.357	0.051	0.068
-95.830	11.273	0.151	0.114
-94.816	800.000	-0.019	-0.072
-93.801	-21.672	0.160	-0.096
-92.786	322.002	0.076	-0.143
-91.772	177.079	-0.078	0.112
-90.757	51.805	-0.107	0.100
-89.743	-165.801	0.502	-0.021
-88.728	800.000	0.022	-0.078
-87.713	-200.000	0.048	0.299
-86.699	800.000	0.020	-0.084
-85.684	-37.920	0.232	0.121
-84.670	-127.583	0.260	0.037
-83.655	26.868	0.153	0.126
-82.640	-200.000	-0.027	0.131
-81.626	51.118	-0.222	-0.207
-80.611	-200.000	0.009	0.228
-79.597	365.243	0.114	-0.225
-78.582	-9.942	0.351	0.229
-77.567	289.139	0.135	0.240
-76.553	800.000	-0.090	0.261
-75.538	93.575	0.012	0.013
-74.524	495.234	-0.068	-0.152
-73.509	800.000	-0.030	0.097
-72.494	-20.846	0.278	0.167
-71.480	220.164	0.138	0.218
-70.465	-2.920	-0.096	0.066
-69.451	686.222	0.039	-0.100
-68.436	235.873	0.069	0.112
-67.422	-82.091	-0.262	-0.084
-66.407	-200.000	-0.035	0.364
-65.392	-59.004	0.234	0.099
-64.378	-200.000	0.004	0.227
-63.363	-42.865	0.148	-0.074
-62.349	-87.359	-0.329	0.098
-61.334	-26.598	-0.984	-0.565
-60.319	-24.733	0.860	0.502
-59.305	800.000	-0.414	-1.205
-58.290	190.917	0.604	0.891
-57.276	317.287	0.830	1.540
-56.261	-200.000	107.916	589.804
-55.246	449.206	1477.419	3194.663
-54.232	146.150	2672.800	3517.572
-53.217	99.905	2294.050	2607.052
-52.203	38.753	1905.691	1668.482
-51.188	32.818	1694.319	1438.286
-50.173	30.320	1650.380	1382.352
-49.159	49.028	1703.550	1568.949
-48.144	49.357	1719.437	1586.003
-47.130	32.588	1676.633	1421.313
-46.115	29.753	1662.696	1388.195
-45.100	29.663	1657.435	1383.070
-44.086	29.629	1654.443	1380.267
-43.071	29.595	1652.088	1377.992
-42.057	29.542	1649.949	1375.758
-41.042	29.633	1647.181	1374.073
-40.027	29.625	1645.420	1372.486
-39.013	29.515	1643.969	1370.405
-37.998	29.494	1642.644	1369.096
-36.984	29.543	1641.158	1368.164
-35.969	29.616	1639.810	1367.528
-34.954	29.689	1638.011	1366.510
-33.940	29.651	1636.408	1364.835
-32.925	29.596	1634.463	1362.759
-31.911	29.764	1632.352	1362.177
-30.896	29.681	1630.748	1360.180
-29.881	29.710	1628.763	1358.682
-28.867	29.594	1627.874	1357.033
-27.852	29.685	1626.168	1356.226
-26.838	29.670	1624.787	1354.912
-25.823	29.665	1623.460	1353.710
-24.809	29.693	1622.115	1352.739
-23.794	29.743	1620.693	1351.867
-22.779	29.648	1618.905	1349.625
-21.765	29.743	1617.388	1349.004
-20.750	29.687	1615.782	1347.205
-19.736	29.743	1614.290	1346.310
-18.721	29.812	1612.452	1345.229
-17.706	29.653	1611.636	1343.334
-16.692	29.617	1610.512	1342.088
-15.677	29.699	1609.067	1341.422
-14.663	29.828	1606.720	1340.347
-13.648	29.774	1605.527	1338.913
-12.633	29.765	1603.969	1337.490
-11.619	29.704	1603.015	1336.205
-10.604	29.780	1601.466	1335.406
-9.590	29.670	1600.627	1333.863
-8.575	29.662	1599.326	1332.664
-7.560	29.646	1598.401	1331.725
-6.546	29.650	1596.905	1330.456
-5.531	29.693	1595.994	1329.958
-4.517	29.667	1594.414	1328.396
-3.502	29.688	1593.483	1327.720
-2.487	29.790	1591.525	1326.770
-1.473	29.528	1579.118	1314.505
-0.458	26.557	1559.971	1277.585
0.556	21.266	1560.278	1245.258
1.571	18.828	1584.126	1246.512
2.586	18.488	1597.423	1254.383
3.600	17.037	1545.251	1203.023
4.615	9.536	1435.065	1067.589
5.629	1.881	1370.286	970.699
6.644	0.259	1362.449	954.791
7.659	0.187	1360.770	953.075
8.673	0.111	1359.651	951.722
9.688	-0.007	1357.899	949.670
10.702	-0.123	1355.317	947.047
11.717	3.568	1360.677	974.035
12.731	12.099	1373.916	1037.610
13.746	17.281	1380.731	1075.532
14.761	17.284	1379.421	1074.439
15.775	16.202	1377.061	1065.676
16.790	15.109	1374.471	1056.685
17.804	14.467	1371.513	1050.274
18.819	14.046	1370.912	1047.065
19.834	13.825	1369.468	1044.483
20.848	13.575	1368.409	1042.010
21.863	13.249	1367.107	1038.873
22.877	13.119	1365.950	1037.085
23.892	13.096	1364.509	1035.759
24.907	13.046	1364.459	1035.314
25.921	13.110	1363.261	1034.715
26.936	13.209	1361.901	1034.213
27.950	13.194	1361.351	1033.607
28.965	13.256	1360.360	1033.154
29.980	13.269	1359.620	1032.582
30.994	13.446	1358.758	1032.941
32.009	13.359	1357.927	1031.672
33.023	13.390	1356.624	1030.784
34.038	13.320	1355.609	1029.484
35.053	13.294	1354.462	1028.362
36.067	13.260	1353.446	1027.288
37.082	13.374	1352.550	1027.225
38.096	13.350	1351.797	1026.414
39.111	13.385	1350.844	1025.816
40.126	13.300	1350.169	1024.689
41.140	13.223	1348.999	1023.232
42.155	13.098	1349.098	1022.442
43.169	13.086	1348.790	1022.043
44.184	13.174	1348.438	1022.233
45.199	13.112	1348.399	1021.725
46.213	13.146	1347.231	1020.962
47.228	13.197	1346.561	1020.680
48.242	13.214	1345.064	1019.557
49.257	13.203	1343.410	1018.150
50.271	13.371	1341.668	1017.773
51.286	13.391	1340.666	1017.045
52.301	13.276	1339.603	1015.439
53.315	13.293	1338.302	1014.467
54.330	13.103	1337.996	1012.982
55.344	13.190	1336.557	1012.338
56.359	13.176	1335.338	1011.239
57.374	13.102	1335.237	1010.617
58.388	13.083	1333.851	1009.362
59.403	13.035	1333.969	1009.071
60.417	13.110	1332.198	1008.101
61.432	13.191	1331.280	1007.807
62.447	13.144	1330.155	1006.585
63.461	13.001	1329.503	1005.129
64.476	13.111	1328.015	1004.582
65.490	13.049	1327.110	1003.431
66.505	13.023	1325.958	1002.317
67.520	13.181	1324.358	1001.974
68.534	13.154	1323.453	1001.040
69.549	13.149	1322.741	1000.380
70.563	13.161	1321.551	999.468
71.578	13.085	1320.259	997.941
72.593	13.010	1319.574	996.882
73.607	13.083	1318.407	996.353
74.622	13.076	1317.593	995.608
75.636	13.067	1316.978	995.000
76.651	13.083	1316.329	994.516
77.666	12.985	1315.719	993.379
78.680	13.018	1315.192	993.092
79.695	13.039	1314.155	992.347
80.709	13.102	1313.463	992.117
81.724	13.081	1313.029	991.573
82.739	13.091	1312.202	990.923
83.753	13.154	1311.147	990.413
84.768	13.289	1310.252	990.457
85.782	13.281	1309.012	989.390
86.797	13.323	1307.376	988.317
87.812	13.278	1306.103	986.997
88.826	13.243	1305.548	986.282
89.841	13.286	1304.204	985.433
90.855	13.313	1303.240	984.778
91.870	13.349	1302.314	984.207
92.884	13.379	1301.715	983.845
93.899	13.301	1301.064	982.805
94.914	13.456	1300.140	982.940
95.928	13.338	1299.363	981.565
96.943	13.400	1298.070	980.869
97.957	13.309	1297.941	980.142
98.972	13.346	1296.261	979.009
99.987	13.255	1295.546	977.845
101.001	13.273	1294.471	977.052
102.016	13.337	1293.173	976.362
103.030	13.371	1292.193	975.737
104.045	13.331	1291.376	974.799
105.060	13.322	1289.986	973.611
106.074	13.162	1289.005	971.842
107.089	13.179	1287.706	970.874
108.103	13.133	1286.166	969.359
109.118	13.128	1285.646	968.855
110.133	13.123	1284.002	967.499
111.147	13.170	1282.746	966.740
112.162	13.331	1281.337	966.535
113.176	13.183	1280.586	965.021
114.191	13.220	1279.793	964.553
115.206	13.256	1278.151	963.439
116.220	13.291	1276.754	962.504
117.235	13.180	1276.155	961.321
118.249	13.197	1275.131	960.565
119.264	13.257	1273.801	959.825
120.279	13.084	1272.911	958.067
121.293	13.150	1272.152	957.794
122.308	13.165	1270.605	956.628
123.322	13.117	1269.605	955.515
124.337	13.171	1268.692	955.057
125.352	13.209	1267.492	954.289
126.366	13.112	1266.234	952.699
127.381	13.199	1264.884	952.096
128.395	13.155	1264.109	951.175
129.410	13.171	1263.419	950.668
130.424	13.124	1262.359	949.514
131.439	13.077	1261.722	948.680
132.454	13.147	1260.837	948.331
133.468	13.234	1259.953	948.084
134.483	13.229	1259.230	947.428
135.497	13.324	1257.719	946.751
136.512	13.312	1256.519	945.695
137.527	13.306	1255.019	944.449
138.541	13.304	1253.433	943.158
139.556	13.239	1252.901	942.304
140.570	13.354	1251.570	941.876
141.585	13.375	1250.096	940.801
142.600	13.378	1249.227	940.083
143.614	13.311	1248.374	938.977
144.629	13.433	1247.013	938.562
145.643	13.404	1245.941	937.505
146.658	13.396	1244.604	936.370
147.673	13.489	1242.748	935.421
148.687	13.240	1242.159	933.488
149.702	13.263	1241.106	932.741
150.716	13.284	1239.251	931.382
151.731	13.366	1238.171	930.949
152.746	13.362	1236.991	929.957
153.760	13.342	1236.207	929.174
154.775	13.502	1234.719	928.876
155.789	13.507	1233.755	928.095
156.804	13.474	1232.603	926.961
157.819	13.532	1231.990	926.739
158.833	13.526	1231.072	925.935
159.848	13.557	1230.067	925.271
160.862	13.523	1228.981	924.185
161.877	13.556	1227.569	923.224
162.892	13.463	1226.954	922.158
163.906	13.339	1226.360	920.939
164.921	13.401	1225.433	920.508
165.935	13.473	1224.235	919.927
166.950	13.548	1223.574	919.767
167.964	13.501	1222.963	918.966
168.979	13.661	1221.601	918.749
169.994	13.504	1221.234	917.520
171.008	13.475	1220.962	917.072
172.023	13.686	1219.488	917.053
173.037	13.581	1219.198	916.170
174.052	13.633	1217.877	915.384
175.067	13.650	1216.951	914.701
176.081	13.512	1215.862	913.041
177.096	13.600	1214.777	912.630
178.110	13.572	1214.015	911.824
179.125	13.697	1212.525	911.310
180.140	13.701	1211.290	910.325
181.154	13.657	1210.278	909.241
182.169	13.601	1208.895	907.818
183.183	13.788	1207.422	907.654
184.198	13.689	1206.573	906.391
185.213	13.728	1205.132	905.445
186.227	13.795	1204.669	905.379
187.242	13.829	1203.251	904.422
188.256	13.984	1202.311	904.477
189.271	13.861	1201.484	903.106
190.286	13.785	1200.400	901.799
191.300	13.763	1199.443	900.881
192.315	13.656	1198.783	899.726
193.329	13.651	1198.640	899.510
194.344	13.667	1198.088	899.102
195.359	13.653	1197.322	898.373
196.373	13.823	1196.576	898.657
197.388	13.911	1195.938	898.570
198.402	13.884	1195.958	898.361
199.417	13.907	1194.752	897.500
200.432	14.023	1193.769	897.310
201.446	14.120	1192.869	897.075
202.461	14.035	1192.026	895.905
203.475	14.029	1190.918	894.958
204.490	14.026	1190.094	894.244
205.504	13.965	1188.540	892.669
206.519	13.915	1187.670	891.671
207.534	13.886	1186.188	890.322
208.548	13.952	1185.515	890.093
209.563	14.037	1184.725	889.878
210.577	14.101	1183.651	889.330
211.592	14.048	1183.009	888.488
212.607	14.089	1182.205	888.027
213.621	14.134	1181.313	887.518
214.636	14.140	1180.124	886.578
215.650	14.221	1179.421	886.400
216.665	14.233	1178.507	885.698
217.680	14.185	1177.761	884.804
218.694	14.176	1176.882	884.018
219.709	14.241	1176.059	883.671
220.723	14.295	1175.130	883.179
221.738	14.249	1174.634	882.486
222.753	14.242	1173.664	881.639
223.767	14.233	1173.293	881.236
224.782	14.374	1172.240	881.110
225.796	14.377	1171.793	880.715
226.811	14.491	1170.868	880.543
227.826	14.268	1170.561	879.060
228.840	14.335	1169.639	878.640
229.855	14.391	1169.067	878.427
230.869	14.422	1168.025	877.731
231.884	14.285	1167.438	876.492
232.899	14.342	1166.431	875.958
233.913	14.354	1165.897	875.544
234.928	14.237	1165.416	874.491
235.942	14.274	1164.405	873.845
236.957	14.224	1163.878	873.109
237.972	14.241	1163.321	872.704
238.986	14.295	1162.296	872.144
240.001	14.298	1161.825	871.728
241.015	14.335	1160.479	870.834
242.030	14.428	1160.068	870.936
243.045	14.482	1158.989	870.326
244.059	14.450	1158.526	869.737
245.074	14.558	1157.398	869.376
246.088	14.540	1157.005	868.909
247.103	14.612	1155.849	868.338
248.117	14.558	1155.415	867.657
249.132	14.612	1154.674	867.304
250.147	14.750	1153.689	867.202
251.161	14.847	1153.176	867.243
252.176	14.764	1152.413	866.164
253.190	14.837	1152.134	866.253
254.205	14.792	1151.596	865.541
255.220	14.929	1150.619	865.442
256.234	14.958	1150.027	865.069
257.249	14.821	1149.656	864.002
258.263	14.930	1148.700	863.774
259.278	14.916	1148.274	863.305
260.293	14.898	1147.705	862.708
261.307	14.958	1147.232	862.586
262.322	15.033	1145.949	861.928
263.336	14.967	1145.904	861.477
264.351	14.999	1144.989	860.878
265.366	15.148	1144.169	860.951
266.380	15.121	1143.148	859.970
267.395	15.025	1142.696	859.061
268.409	15.019	1141.864	858.329
269.424	15.030	1141.127	857.755
270.439	14.979	1140.927	857.265
271.453	15.056	1140.187	857.030
272.468	15.017	1139.591	856.304
273.482	14.989	1138.617	855.354
274.497	15.106	1137.784	855.251
275.512	15.064	1137.388	854.664
276.526	15.168	1136.513	854.464
277.541	15.089	1135.861	853.493
278.555	15.229	1134.775	853.313
279.570	15.047	1134.700	852.253
280.585	15.262	1133.710	852.530
281.599	15.205	1132.376	851.163
282.614	15.195	1131.827	850.620
283.628	15.249	1130.452	849.786
284.643	15.214	1129.774	849.025
285.657	15.197	1128.990	848.276
286.672	15.262	1128.033	847.808
287.687	15.337	1127.004	847.340
288.701	15.277	1126.503	846.586
289.716	15.307	1125.920	846.226
290.730	15.323	1125.048	845.575
291.745	15.373	1124.418	845.279
292.760	15.399	1123.603	844.723
293.774	15.400	1123.412	844.511
294.789	15.382	1123.163	844.157
295.803	15.371	1122.414	843.466
296.818	15.364	1121.418	842.604
297.833	15.467	1120.342	842.236
298.847	15.381	1119.909	841.407
299.862	15.432	1119.031	840.927
300.876	15.526	1118.214	840.708
301.891	15.560	1117.415	840.206
302.906	15.526	1117.036	839.677
303.920	15.624	1116.092	839.385
304.935	15.637	1115.574	838.982
305.949	15.623	1114.985	838.395
306.964	15.661	1114.110	837.851
307.979	15.663	1113.695	837.480
308.993	15.704	1112.575	836.763
310.008	15.727	1111.772	836.202
311.022	15.729	1110.965	835.528
312.037	15.804	1110.330	835.349
313.052	15.679	1109.757	834.227
314.066	15.550	1108.703	832.720
315.081	15.569	1107.665	831.959
316.095	15.602	1106.912	831.483
317.110	15.702	1106.062	831.269
318.125	15.569	1105.739	830.293
319.139	15.578	1105.294	829.930
320.154	15.574	1104.457	829.208
321.168	15.662	1103.924	829.171
322.183	15.724	1102.801	828.557
323.197	15.694	1102.589	828.177
324.212	15.662	1102.206	827.658
325.227	15.734	1101.638	827.516
326.241	15.749	1101.074	827.090
327.256	15.795	1100.079	826.497
328.270	15.763	1098.632	825.179
329.285	15.747	1098.196	824.701
330.300	15.721	1097.321	823.845
331.314	15.796	1095.955	823.112
332.329	15.735	1095.540	822.430
333.343	15.879	1094.143	822.008
334.358	15.950	1093.596	821.872
335.373	15.919	1093.131	821.302
336.387	15.984	1092.180	820.827
337.402	16.039	1091.280	820.349
338.416	15.959	1090.851	819.561
339.431	16.040	1090.447	819.580
340.446	16.014	1089.811	818.903
341.460	16.074	1089.256	818.706
342.475	16.128	1087.980	817.936
343.489	16.180	1086.926	817.322
344.504	16.156	1085.982	816.423
345.519	16.233	1085.334	816.239
346.533	16.294	1084.630	815.933
347.548	16.342	1083.825	815.484
348.562	16.321	1083.039	814.722
349.577	16.226	1082.688	813.926
350.592	16.102	1082.185	812.878
351.606	16.167	1081.559	812.652
352.621	16.277	1080.173	812.064
353.635	16.144	1079.516	810.858
354.650	16.125	1078.859	810.205
355.665	16.267	1078.150	810.279
356.679	16.152	1077.838	809.421
357.694	16.337	1076.948	809.568
358.708	16.359	1076.364	809.165
359.723	16.230	1076.054	808.241
360.738	16.326	1075.058	807.883
361.752	16.309	1074.674	807.440
362.767	16.488	1073.876	807.623
363.781	16.287	1073.730	806.484
364.796	16.352	1072.935	806.127
365.810	16.442	1072.569	806.209
366.825	16.611	1071.535	806.166
367.840	16.599	1071.096	805.706
368.854	16.610	1070.304	805.091
369.869	16.626	1069.502	804.493
370.883	16.682	1068.573	803.990
371.898	16.619	1068.081	803.250
372.913	16.503	1067.849	802.455
373.927	16.563	1067.407	802.333
374.942	16.641	1066.496	801.949
375.956	16.587	1065.943	801.206
376.971	16.670	1065.172	800.946
377.986	16.710	1064.720	800.725
379.000	16.793	1063.715	800.291
380.015	16.659	1064.159	799.921
381.029	16.777	1063.104	799.617
382.044	16.824	1062.150	799.049
383.059	16.812	1061.462	798.403
384.073	16.853	1060.546	797.838
385.088	16.902	1059.493	797.205
386.102	16.867	1058.875	796.505
387.117	16.911	1057.579	795.666
388.132	16.767	1057.135	794.587
389.146	16.777	1056.506	794.092
390.161	16.788	1056.039	793.720
391.175	16.832	1055.026	793.092
392.190	16.857	1054.420	792.685
393.205	16.833	1053.821	792.054
394.219	16.839	1053.113	791.477
395.234	16.958	1051.989	791.119
396.248	16.955	1050.790	790.131
397.263	16.849	1049.865	788.873
398.278	16.809	1049.451	788.306
399.292	16.922	1048.743	788.230
400.307	16.904	1048.176	787.653
401.321	16.824	1047.535	786.730
402.336	16.870	1046.738	786.275
403.350	16.863	1046.186	785.758
404.365	16.829	1045.398	784.939
405.380	16.949	1044.549	784.786
406.394	17.011	1043.681	784.352
407.409	17.086	1042.912	784.052
408.423	17.065	1042.346	783.457
409.438	17.127	1042.036	783.442
410.453	17.159	1041.165	782.865
411.467	17.230	1040.312	782.483
412.482	17.117	1039.903	781.585
413.496	17.209	1039.249	781.449
414.511	17.237	1038.629	781.040
415.526	17.202	1038.363	780.612
416.540	17.267	1038.016	780.582
417.555	17.311	1037.361	780.220
418.569	17.368	1036.598	779.839
419.584	17.431	1036.348	779.870
420.599	17.351	1035.910	779.105
421.613	103.234	1323.456	1469.664
422.628	94.594	1365.318	1469.777
