DTS Sentinel unit serial number:	SN413079Multiplexer serial number:	ORYXHardware model number:	OX4-SRSoftware version number:	ORYX F/W v4.00 Oryx Data Collector v3.7.2.0data status	okinstallation	princeton_trtdifferential loss correction	single-endedforward channel	channel 2reverse channel	N/Adate	2019/09/18time	10:03:35forward acquisition time	60.00reverse acquisition time	0.00gamma	496.2192k internal	0.2334k external	0.2334temperature offset calibration	0.9980default loss term (dB/km)	0.3790temperature slope calibration	1.0000multiplexer offset coefficient	1.0000multiplexer slope coefficient	1.0000fibre end	0.00T internal ref (°C)	27.55T ext. ref 1 (°C)	0.32T ext. ref 2 (°C)	24.03length (m)	temperature (°C)	Stokes	anti-Stokes-747.200	800.000	0.059	0.191
-746.185	-63.330	-0.349	0.144
-745.171	103.344	0.130	-0.153
-744.156	193.866	-0.126	0.191
-743.142	-128.558	-0.139	0.020
-742.127	-200.000	-0.035	0.368
-741.112	1.833	-0.062	-0.045
-740.098	-200.000	-0.011	0.186
-739.083	-200.000	-0.019	0.430
-738.069	-33.277	0.105	0.058
-737.054	-54.204	0.093	0.043
-736.039	-103.841	0.166	-0.039
-735.025	800.000	0.090	0.262
-734.010	209.700	-0.167	-0.263
-732.996	-49.593	0.149	0.071
-731.981	-73.861	0.096	0.035
-730.966	-200.000	0.051	0.264
-729.952	-26.019	-0.462	-0.273
-728.937	-21.959	-0.151	-0.092
-727.923	800.000	-0.025	-0.072
-726.908	-128.715	-0.349	0.050
-725.894	-109.193	-0.223	-0.048
-724.879	-200.000	0.056	-0.276
-723.864	29.150	-0.209	-0.178
-722.850	302.323	0.146	-0.272
-721.835	-200.000	0.041	-0.191
-720.821	77.828	0.030	-0.032
-719.806	-65.351	-0.170	-0.069
-718.791	37.228	-0.086	0.076
-717.777	69.629	-0.227	-0.235
-716.762	800.000	0.050	0.148
-715.748	193.093	-0.140	0.212
-714.733	112.155	-0.064	0.078
-713.718	-172.077	-0.108	0.003
-712.704	-200.000	-0.002	-0.302
-711.689	-146.020	0.373	-0.033
-710.675	438.338	0.101	-0.220
-709.660	-49.089	-0.426	0.205
-708.645	800.000	-0.086	0.254
-707.631	-50.537	0.349	0.165
-706.616	412.168	0.072	-0.153
-705.602	46.963	-0.309	0.288
-704.587	-156.513	0.078	0.005
-703.572	-94.196	-0.310	0.085
-702.558	36.658	-0.142	-0.125
-701.543	207.223	0.051	0.080
-700.529	31.942	0.216	0.187
-699.514	-96.421	-0.015	-0.004
-698.499	575.795	-0.064	-0.156
-697.485	-63.926	-0.253	0.104
-696.470	22.655	0.022	-0.018
-695.456	-2.010	0.044	0.031
-694.441	557.728	-0.052	-0.125
-693.426	-74.964	-0.106	0.038
-692.412	174.614	-0.260	-0.377
-691.397	32.759	-0.177	-0.153
-690.383	677.299	-0.070	-0.182
-689.368	-152.160	-0.311	0.023
-688.354	-87.251	-0.122	-0.037
-687.339	-147.045	0.153	-0.013
-686.324	-132.783	0.389	-0.050
-685.310	438.137	-0.052	-0.115
-684.295	-26.807	-0.190	0.111
-683.281	27.855	0.062	-0.053
-682.266	-25.339	-0.154	-0.091
-681.251	768.346	-0.095	0.258
-680.237	543.640	0.066	-0.159
-679.222	317.280	-0.118	0.223
-678.208	-107.325	0.297	0.065
-677.193	86.369	-0.076	0.084
-676.178	-63.704	-0.272	-0.112
-675.164	-200.000	-0.024	-0.118
-674.149	-200.000	0.005	0.041
-673.135	591.828	-0.064	0.159
-672.120	63.040	-0.291	-0.292
-671.105	46.182	-0.119	-0.110
-670.091	-111.168	0.073	0.015
-669.076	-124.503	-0.202	0.032
-668.062	645.404	-0.055	-0.141
-667.047	-63.167	-0.184	0.076
-666.032	-73.185	0.130	0.048
-665.018	-98.535	0.130	-0.033
-664.003	800.000	0.075	0.298
-662.989	162.319	-0.073	-0.103
-661.974	-34.380	-0.275	-0.151
-660.959	-62.856	0.160	0.066
-659.945	-89.928	0.123	-0.036
-658.930	800.000	-0.113	0.373
-657.916	-200.000	-0.492	-0.002
-656.901	-54.811	-0.372	-0.168
-655.886	-10.512	0.075	-0.050
-654.872	-67.829	-0.298	-0.117
-653.857	-200.000	-0.020	-0.167
-652.843	-200.000	-0.023	0.248
-651.828	647.724	-0.030	-0.077
-650.814	-200.000	-0.009	-0.214
-649.799	-58.762	-0.483	-0.209
-648.784	-146.603	0.306	-0.027
-647.770	800.000	0.040	-0.124
-646.755	800.000	-0.032	0.110
-645.741	-200.000	-0.081	-0.458
-644.726	-113.355	-0.317	-0.062
-643.711	372.578	-0.214	-0.435
-642.697	-200.000	0.047	-0.553
-641.682	-200.000	0.006	0.136
-640.668	254.978	-0.095	-0.163
-639.653	10.771	-0.187	-0.143
-638.638	-133.390	0.084	0.011
-637.624	-155.280	0.271	0.018
-636.609	514.262	0.011	-0.026
-635.595	800.000	0.086	0.346
-634.580	800.000	-0.008	-0.031
-633.565	-35.666	0.103	-0.056
-632.551	-200.000	-0.018	-0.094
-631.536	-144.945	-0.330	-0.030
-630.522	43.824	0.140	0.128
-629.507	-200.000	-0.066	0.360
-628.492	-200.000	-0.024	-0.139
-627.478	41.793	0.112	-0.101
-626.463	-103.580	-0.187	-0.044
-625.449	530.918	-0.090	-0.214
-624.434	26.890	0.155	-0.130
-623.419	591.457	-0.122	-0.302
-622.405	800.000	0.026	0.110
-621.390	757.712	-0.098	0.265
-620.376	-4.362	-0.073	-0.050
-619.361	242.245	0.149	-0.249
-618.346	-102.508	-0.204	0.049
-617.332	-106.446	-0.252	-0.056
-616.317	-124.881	-0.261	-0.040
-615.303	800.000	-0.083	-0.240
-614.288	288.699	-0.062	-0.112
-613.273	32.831	0.165	0.143
-612.259	800.000	0.064	0.196
-611.244	191.570	-0.191	-0.287
-610.230	-153.928	0.077	0.005
-609.215	56.082	0.088	0.085
-608.201	163.451	0.185	0.259
-607.186	-200.000	-0.014	-0.065
-606.171	-200.000	-0.010	-0.081
-605.157	111.040	0.196	-0.236
-604.142	-33.491	-0.385	0.213
-603.128	274.474	-0.105	-0.185
-602.113	82.760	-0.318	0.345
-601.098	176.141	-0.084	-0.122
-600.084	-0.264	0.155	0.110
-599.069	-164.060	-0.218	-0.010
-598.055	-15.296	-0.201	0.128
-597.040	-122.812	-0.207	0.033
-596.025	-144.951	0.406	0.037
-595.011	763.804	0.117	-0.318
-593.996	-99.850	0.039	0.010
-592.982	-142.114	-0.249	0.025
-591.967	-200.000	0.009	0.101
-590.952	-77.998	-0.251	-0.086
-589.938	-57.745	0.227	0.099
-588.923	127.861	-0.112	-0.143
-587.909	328.112	-0.142	0.272
-586.894	-200.000	0.024	0.158
-585.879	38.340	-0.055	0.049
-584.865	-6.456	0.215	-0.147
-583.850	-134.520	-0.196	0.024
-582.836	-46.558	-0.067	0.033
-581.821	16.549	-0.278	0.219
-580.806	-200.000	0.013	-0.091
-579.792	-200.000	-0.020	-0.379
-578.777	274.790	-0.308	-0.545
-577.763	18.192	-0.356	-0.284
-576.748	-108.600	0.032	0.007
-575.733	-200.000	0.013	-0.128
-574.719	-59.384	-0.134	0.057
-573.704	392.234	0.107	-0.223
-572.690	-200.000	-0.025	0.180
-571.675	75.574	0.191	-0.202
-570.661	286.095	0.118	0.212
-569.646	-105.485	-0.286	0.065
-568.631	-200.000	-0.059	0.280
-567.617	87.744	0.153	0.169
-566.602	-174.100	0.096	0.003
-565.588	80.870	0.126	0.136
-564.573	-64.453	-0.283	0.115
-563.558	-122.899	-0.210	-0.034
-562.544	-200.000	-0.017	0.235
-561.529	-200.000	-0.002	0.290
-560.515	63.179	-0.293	0.293
-559.500	-37.143	0.225	-0.120
-558.485	-144.928	0.489	0.045
-557.471	-188.153	0.181	0.002
-556.456	-74.642	-0.157	0.056
-555.442	-18.973	0.217	0.135
-554.427	14.724	0.113	0.089
-553.412	-186.941	-0.219	-0.003
-552.398	-92.339	-0.385	-0.108
-551.383	-119.298	0.102	-0.018
-550.369	216.537	0.185	0.293
-549.354	-54.286	-0.130	0.059
-548.339	477.829	-0.133	0.300
-547.325	17.521	0.146	0.116
-546.310	-104.252	0.243	0.056
-545.296	-131.898	-0.095	0.012
-544.281	65.713	0.127	-0.129
-543.266	-200.000	0.005	0.057
-542.252	35.512	0.298	-0.261
-541.237	4.071	-0.082	-0.060
-540.223	800.000	-0.074	-0.315
-539.208	-76.610	-0.436	-0.152
-538.193	-45.067	0.312	0.155
-537.179	-67.715	0.173	0.068
-536.164	66.618	-0.268	-0.271
-535.150	40.764	0.200	0.180
-534.135	800.000	0.083	0.305
-533.121	-200.000	0.038	0.331
-532.106	-28.910	0.292	-0.167
-531.091	182.666	0.225	-0.330
-530.077	7.250	0.133	-0.099
-529.062	-200.000	-0.023	-0.192
-528.048	800.000	-0.028	-0.093
-527.033	-200.000	0.021	0.162
-526.018	-27.321	-0.271	-0.157
-525.004	-39.373	0.221	0.115
-523.989	-142.240	0.248	0.024
-522.975	-31.166	-0.132	-0.074
-521.960	37.855	0.026	0.023
-520.945	-3.152	0.208	-0.144
-519.931	-75.511	0.311	-0.110
-518.916	-200.000	0.023	-0.418
-517.902	-21.965	0.116	-0.070
-516.887	-200.000	0.049	-0.540
-515.872	309.926	-0.128	0.239
-514.858	261.504	-0.119	-0.205
-513.843	17.858	-0.128	0.102
-512.829	-200.000	-0.003	-0.147
-511.814	-200.000	-0.004	0.216
-510.799	-36.240	0.117	0.063
-509.785	38.852	0.099	-0.088
-508.770	-121.318	-0.389	-0.065
-507.756	24.393	-0.217	-0.179
-506.741	-76.832	-0.328	0.114
-505.726	-13.241	0.274	0.177
-504.712	153.120	0.032	-0.044
-503.697	1.348	-0.115	-0.082
-502.683	132.527	0.226	-0.290
-501.668	610.415	-0.059	-0.147
-500.653	-43.465	-0.365	-0.184
-499.639	3.118	0.113	-0.082
-498.624	556.336	-0.054	-0.130
-497.610	4.886	-0.237	0.173
-496.595	-91.074	0.038	-0.011
-495.581	-59.717	0.241	-0.103
-494.566	20.026	0.199	0.160
-493.551	-120.246	-0.163	-0.028
-492.537	800.000	0.026	0.097
-491.522	167.523	0.096	-0.136
-490.508	87.202	0.251	-0.277
-489.493	488.068	0.028	-0.064
-488.478	-8.724	-0.155	-0.104
-487.464	21.795	-0.069	0.056
-486.449	-176.400	-0.245	0.006
-485.435	800.000	0.078	0.283
-484.420	342.591	-0.053	-0.103
-483.405	-140.241	-0.411	0.043
-482.391	-88.437	0.363	-0.108
-481.376	-108.524	-0.221	-0.047
-480.362	20.557	0.064	0.052
-479.347	-112.688	-0.177	-0.035
-478.332	-108.817	-0.184	-0.039
-477.318	394.036	-0.106	0.219
-476.303	141.315	0.183	0.241
-475.289	22.151	0.060	-0.049
-474.274	223.029	0.073	0.118
-473.259	-200.000	0.030	0.175
-472.245	-70.930	-0.294	-0.110
-471.230	93.855	-0.083	0.093
-470.216	-184.614	-0.115	-0.002
-469.201	-58.592	-0.218	0.094
-468.186	800.000	-0.117	0.326
-467.172	647.468	0.153	0.389
-466.157	-200.000	-0.015	0.138
-465.143	-167.586	0.402	-0.016
-464.128	-71.173	0.237	-0.088
-463.113	-132.051	0.239	0.031
-462.099	-85.943	0.091	0.028
-461.084	-61.301	0.238	0.100
-460.070	-18.731	0.172	-0.107
-459.055	257.340	0.171	0.293
-458.040	-109.955	-0.327	0.068
-457.026	-200.000	0.040	-0.203
-456.011	354.091	0.054	-0.107
-454.997	271.039	0.031	0.054
-453.982	33.720	-0.193	-0.166
-452.968	151.092	-0.056	0.076
-451.953	-144.782	-0.131	-0.012
-450.938	-103.835	0.125	-0.029
-449.924	-61.499	-0.264	-0.110
-448.909	-74.799	-0.244	0.087
-447.895	-200.000	-0.005	-0.035
-446.880	-200.000	0.004	-0.119
-445.865	705.345	0.082	-0.216
-444.851	193.383	0.138	0.207
-443.836	195.133	0.169	-0.256
-442.822	-200.000	-0.094	0.504
-441.807	131.221	-0.057	-0.073
-440.792	-105.526	-0.159	-0.036
-439.778	-68.722	0.294	0.113
-438.763	-200.000	0.024	0.327
-437.749	-168.495	-0.264	0.010
-436.734	100.105	0.133	-0.153
-435.719	710.023	0.058	-0.153
-434.705	-200.000	-0.011	0.228
-433.690	126.615	-0.087	-0.109
-432.676	-200.000	0.050	-0.229
-431.661	13.953	0.256	0.198
-430.646	-78.997	-0.099	-0.033
-429.632	-174.284	-0.287	0.008
-428.617	162.219	-0.183	0.254
-427.603	-200.000	-0.009	-0.158
-426.588	96.043	0.218	0.247
-425.573	235.932	-0.134	0.220
-424.559	800.000	-0.143	-0.599
-423.544	26.094	-0.195	-0.161
-422.530	78.985	0.236	-0.251
-421.515	256.897	0.116	0.198
-420.500	-31.712	-0.168	-0.093
-419.486	-145.675	0.193	0.017
-418.471	800.000	-0.069	-0.214
-417.457	-200.000	0.011	-0.100
-416.442	-200.000	0.002	-0.066
-415.428	79.589	-0.043	-0.046
-414.413	107.374	0.029	-0.034
-413.398	-75.952	0.059	0.021
-412.384	477.140	0.056	-0.125
-411.369	224.432	0.048	-0.076
-410.355	-20.750	-0.118	-0.072
-409.340	5.866	0.194	-0.142
-408.325	640.667	-0.057	-0.143
-407.311	-3.047	0.121	0.084
-406.296	-161.138	0.215	-0.011
-405.282	721.924	0.015	0.041
-404.267	-116.250	0.212	-0.039
-403.252	-190.670	0.146	-0.002
-402.238	-93.598	-0.432	0.118
-401.223	324.680	0.192	0.364
-400.209	-114.623	-0.294	0.056
-399.194	270.558	0.230	0.401
-398.179	800.000	-0.078	0.269
-397.165	234.874	-0.079	-0.128
-396.150	800.000	0.108	-0.303
-395.136	114.483	0.204	-0.247
-394.121	-177.507	-0.221	-0.005
-393.106	800.000	-0.025	-0.079
-392.092	141.198	0.105	0.138
-391.077	122.681	0.314	-0.390
-390.063	618.733	0.019	0.046
-389.048	53.058	0.093	-0.088
-388.033	800.000	-0.127	0.397
-387.019	-53.460	-0.227	0.103
-386.004	-96.747	0.031	0.008
-384.990	-154.195	-0.253	-0.017
-383.975	-111.264	0.218	0.044
-382.960	12.019	0.108	-0.083
-381.946	-79.983	0.211	-0.070
-380.931	-69.980	-0.129	0.049
-379.917	626.155	0.038	-0.095
-378.902	800.000	0.090	-0.273
-377.888	92.393	0.145	0.162
-376.873	157.715	-0.072	-0.099
-375.858	29.456	0.194	-0.163
-374.844	-200.000	-0.066	0.349
-373.829	17.310	-0.055	0.043
-372.815	84.007	0.154	-0.167
-371.800	800.000	-0.131	0.421
-370.785	-200.000	-0.057	-0.295
-369.771	-165.719	0.114	0.005
-368.756	-67.252	-0.294	-0.115
-367.742	272.340	-0.085	-0.148
-366.727	76.365	-0.102	-0.107
-365.712	-119.720	0.144	-0.025
-364.698	573.161	-0.118	0.284
-363.683	147.252	-0.086	0.115
-362.669	262.630	-0.097	-0.167
-361.654	-151.627	0.230	-0.017
-360.639	-91.620	0.366	0.103
-359.625	108.107	-0.241	-0.284
-358.610	232.987	0.161	0.262
-357.596	124.612	-0.155	0.193
-356.581	172.053	0.101	-0.143
-355.566	71.756	-0.046	0.047
-354.552	-200.000	-0.003	0.027
-353.537	386.421	0.045	0.092
-352.523	800.000	-0.064	0.242
-351.508	42.628	0.115	0.103
-350.493	385.008	-0.100	0.204
-349.479	-70.189	-0.212	-0.080
-348.464	49.254	-0.148	-0.137
-347.450	-200.000	0.018	0.094
-346.435	-200.000	-0.062	0.379
-345.420	55.858	0.148	0.142
-344.406	-4.224	-0.540	-0.370
-343.391	-200.000	-0.025	0.153
-342.377	-200.000	-0.004	0.176
-341.362	-151.578	0.109	0.008
-340.348	12.668	0.295	-0.225
-339.333	-9.474	-0.147	0.097
-338.318	800.000	-0.136	-0.413
-337.304	-200.000	-0.036	0.168
-336.289	-81.858	0.145	0.047
-335.275	477.565	-0.088	-0.196
-334.260	800.000	0.083	-0.324
-333.245	610.450	-0.080	0.197
-332.231	-113.518	0.340	0.066
-331.216	-1.866	-0.048	-0.033
-330.202	-200.000	0.044	0.203
-329.187	-200.000	0.002	0.015
-328.172	-148.798	-0.057	0.005
-327.158	-169.462	-0.263	-0.010
-326.143	-200.000	-0.053	0.283
-325.129	320.765	-0.027	-0.051
-324.114	-77.626	0.228	-0.078
-323.099	330.745	0.177	-0.336
-322.085	236.919	-0.207	-0.339
-321.070	-200.000	-0.058	-0.437
-320.056	23.857	-0.145	-0.118
-319.041	4.081	0.201	-0.145
-318.026	139.667	0.060	-0.079
-317.012	59.725	0.123	0.120
-315.997	80.279	-0.051	0.054
-314.983	-200.000	-0.013	-0.313
-313.968	202.159	0.119	-0.182
-312.953	-2.794	-0.112	-0.077
-311.939	-31.991	0.172	-0.095
-310.924	-200.000	0.009	-0.214
-309.910	41.961	-0.242	0.217
-308.895	-62.207	-0.182	0.075
-307.880	253.646	-0.141	0.237
-306.866	-200.000	0.012	0.061
-305.851	121.512	-0.274	0.337
-304.837	-200.000	0.079	0.371
-303.822	-200.000	-0.033	0.362
-302.807	-200.000	-0.070	0.490
-301.793	77.561	-0.164	0.172
-300.778	-112.164	-0.324	-0.064
-299.764	213.865	0.122	0.191
-298.749	800.000	0.044	0.175
-297.735	-70.958	0.431	0.160
-296.720	-89.863	0.268	0.077
-295.705	17.174	-0.156	0.122
-294.691	16.463	0.294	0.230
-293.676	800.000	0.056	0.200
-292.662	93.146	0.183	0.204
-291.647	0.523	0.086	0.060
-290.632	-161.510	0.306	0.016
-289.618	256.084	0.072	-0.123
-288.603	406.201	0.136	0.284
-287.589	128.405	0.328	-0.412
-286.574	-90.013	-0.131	0.038
-285.559	340.147	-0.108	-0.208
-284.545	800.000	-0.045	-0.170
-283.530	60.108	0.349	0.341
-282.516	397.544	0.164	-0.338
-281.501	-16.624	-0.108	-0.068
-280.486	11.166	0.156	0.118
-279.472	-109.347	0.129	0.027
-278.457	-140.175	0.148	-0.015
-277.443	-200.000	-0.051	-0.322
-276.428	-103.998	-0.083	0.019
-275.413	-76.590	0.176	0.061
-274.399	729.650	-0.011	0.030
-273.384	98.292	-0.165	-0.187
-272.370	-4.248	0.466	-0.318
-271.355	800.000	0.080	0.343
-270.340	-37.885	-0.104	-0.055
-269.326	138.345	-0.108	0.139
-268.311	-28.831	-0.119	-0.067
-267.297	54.573	0.230	-0.219
-266.282	-7.667	0.369	-0.246
-265.267	-200.000	0.039	0.447
-264.253	800.000	-0.073	-0.283
-263.238	510.668	0.048	0.109
-262.224	32.878	-0.317	0.271
-261.209	143.403	0.047	-0.062
-260.195	-170.008	0.203	-0.007
-259.180	800.000	0.135	0.371
-258.165	266.349	0.131	0.226
-257.151	800.000	-0.109	-0.376
-256.136	-149.892	-0.438	0.034
-255.122	800.000	0.027	-0.103
-254.107	20.979	0.273	-0.218
-253.092	184.156	0.207	-0.302
-252.078	24.991	0.136	0.111
-251.063	-84.880	-0.083	0.026
-250.049	-24.986	-0.150	0.088
-249.034	-200.000	0.052	-0.294
-248.019	-200.000	0.011	-0.261
-247.005	38.493	-0.108	0.095
-245.990	-91.026	0.143	0.040
-244.976	21.186	0.186	-0.149
-243.961	-4.227	-0.207	0.141
-242.946	-200.000	-0.028	-0.199
-241.932	-77.220	-0.242	-0.083
-240.917	-109.429	-0.286	-0.060
-239.903	-15.058	0.183	-0.116
-238.888	-121.283	-0.094	0.016
-237.873	-29.242	-0.179	-0.101
-236.859	32.099	-0.113	0.096
-235.844	800.000	0.097	-0.296
-234.830	-14.970	-0.233	-0.147
-233.815	-67.549	-0.361	0.140
-232.800	-190.816	0.108	0.001
-231.786	10.560	-0.118	0.089
-230.771	594.136	-0.016	-0.040
-229.757	126.625	0.081	-0.101
-228.742	-9.205	-0.132	0.087
-227.727	141.795	0.111	0.144
-226.713	-72.753	-0.200	0.072
-225.698	-124.576	0.114	-0.017
-224.684	-151.094	0.051	-0.004
-223.669	-72.224	0.279	-0.102
-222.655	-31.949	-0.276	0.152
-221.640	76.979	0.110	-0.115
-220.625	-106.153	0.108	0.024
-219.611	-180.617	-0.324	-0.007
-218.596	77.691	0.167	-0.175
-217.582	35.901	0.419	0.363
-216.567	-164.058	0.167	-0.008
-215.552	-77.667	0.189	-0.064
-214.538	-111.121	0.416	-0.084
-213.523	-51.922	0.093	0.042
-212.509	-128.609	-0.157	0.022
-211.494	-200.000	0.030	-0.186
-210.479	-106.637	-0.279	-0.061
-209.465	172.324	0.113	-0.160
-208.450	800.000	-0.152	0.446
-207.436	-101.952	-0.222	-0.053
-206.421	-118.255	0.434	-0.076
-205.406	-200.000	-0.048	-0.280
-204.392	215.948	0.089	0.139
-203.377	-53.703	0.266	0.120
-202.363	-71.453	0.193	-0.071
-201.348	-52.352	0.247	-0.113
-200.333	218.583	-0.165	0.259
-199.319	-84.753	-0.144	-0.045
-198.304	-200.000	0.027	-0.501
-197.290	295.369	0.146	-0.263
-196.275	-20.238	0.074	-0.045
-195.260	-200.000	-0.036	0.381
-194.246	-70.002	-0.292	-0.110
-193.231	-200.000	-0.027	0.144
-192.217	2.536	0.167	0.119
-191.202	800.000	-0.086	0.250
-190.187	800.000	-0.097	0.279
-189.173	-200.000	0.010	-0.141
-188.158	-200.000	0.021	-0.152
-187.144	-191.469	0.117	0.001
-186.129	800.000	0.096	0.264
-185.114	-8.979	0.263	0.173
-184.100	800.000	-0.049	0.202
-183.085	-59.679	-0.276	-0.116
-182.071	526.036	-0.026	0.061
-181.056	-43.100	0.306	-0.153
-180.042	688.480	-0.054	0.139
-179.027	-58.975	-0.249	0.106
-178.012	800.000	-0.089	0.331
-176.998	662.854	0.115	0.292
-175.983	50.246	-0.019	-0.018
-174.969	633.323	0.100	0.250
-173.954	-120.156	-0.409	-0.069
-172.939	92.076	0.315	-0.349
-171.925	279.637	0.113	0.198
-170.910	147.178	-0.182	-0.241
-169.896	-88.941	0.258	-0.075
-168.881	-11.865	-0.141	-0.091
-167.866	-147.207	-0.040	0.003
-166.852	-200.000	-0.069	0.303
-165.837	-200.000	-0.014	-0.149
-164.823	171.140	-0.156	-0.220
-163.808	-157.227	-0.160	-0.010
-162.793	111.344	0.052	0.062
-161.779	674.483	0.147	0.374
-160.764	154.463	-0.093	0.125
-159.750	702.759	-0.053	0.138
-158.735	-200.000	0.020	0.167
-157.720	156.399	0.209	0.283
-156.706	800.000	-0.084	0.245
-155.691	-170.227	0.221	0.008
-154.677	8.690	-0.061	-0.045
-153.662	-2.524	-0.155	0.107
-152.647	-64.789	-0.251	-0.100
-151.633	-200.000	0.002	0.292
-150.618	267.506	0.179	0.308
-149.604	-200.000	0.000	0.072
-148.589	800.000	-0.073	0.258
-147.574	-200.000	0.022	-0.158
-146.560	800.000	-0.037	-0.151
-145.545	-89.538	-0.328	-0.095
-144.531	800.000	-0.026	-0.111
-143.516	-69.924	-0.287	-0.107
-142.502	800.000	-0.044	0.140
-141.487	9.686	-0.093	0.069
-140.472	800.000	-0.048	0.175
-139.458	-63.050	0.090	-0.036
-138.443	-88.615	-0.456	-0.133
-137.429	-47.176	-0.130	-0.062
-136.414	551.589	0.068	0.161
-135.399	518.501	0.087	-0.200
-134.385	-18.932	0.032	-0.019
-133.370	204.195	-0.113	0.171
-132.356	-107.882	0.122	0.026
-131.341	-117.130	-0.260	-0.046
-130.326	148.762	0.094	-0.125
-129.312	-117.347	-0.204	0.036
-128.297	200.217	0.072	0.109
-127.283	18.835	-0.418	0.328
-126.268	242.597	0.219	0.360
-125.253	-28.584	0.321	0.181
-124.239	-79.846	0.174	0.058
-123.224	-32.309	0.274	-0.150
-122.210	-1.486	-0.125	0.087
-121.195	-107.773	0.113	-0.024
-120.180	-200.000	-0.037	-0.190
-119.166	-4.703	0.066	-0.044
-118.151	-200.000	0.006	-0.148
-117.137	-72.711	0.138	0.050
-116.122	793.623	0.202	0.545
-115.107	-69.142	0.148	0.056
-114.093	-33.232	-0.240	0.130
-113.078	-18.209	0.245	-0.150
-112.064	-149.962	-0.288	0.022
-111.049	-200.000	0.007	-0.064
-110.034	195.285	0.221	-0.329
-109.020	-137.304	0.444	-0.049
-108.005	131.118	0.028	-0.035
-106.991	226.292	0.035	-0.056
-105.976	113.842	0.062	0.073
-104.962	-200.000	-0.020	0.100
-103.947	-37.586	-0.186	-0.097
-102.932	-0.631	-0.238	-0.166
-101.918	-150.422	-0.095	-0.007
-100.903	800.000	0.061	0.191
-99.889	241.417	0.154	-0.252
-98.874	-62.551	0.225	-0.092
-97.859	-200.000	-0.008	-0.102
-96.845	-82.250	0.518	0.165
-95.830	135.261	0.059	0.075
-94.816	-91.322	0.305	0.085
-93.801	-79.889	0.309	-0.102
-92.786	37.471	-0.244	-0.212
-91.772	-200.000	-0.027	-0.302
-90.757	-15.460	0.439	-0.275
-89.743	-70.273	-0.115	-0.043
-88.728	115.526	0.039	-0.047
-87.713	-189.838	-0.077	0.001
-86.699	-110.904	-0.160	-0.032
-85.684	294.025	0.065	0.116
-84.670	-200.000	0.054	0.370
-83.655	-103.729	-0.127	0.029
-82.640	-200.000	0.078	-0.334
-81.626	143.527	0.182	-0.237
-80.611	546.357	-0.205	-0.481
-79.597	800.000	-0.060	-0.191
-78.582	51.254	0.111	0.103
-77.567	800.000	0.029	-0.094
-76.553	-200.000	-0.070	-0.312
-75.538	-114.224	0.306	0.058
-74.524	-160.971	0.082	0.004
-73.509	-13.129	-0.134	-0.085
-72.494	370.827	0.153	0.304
-71.480	362.662	0.098	0.192
-70.465	-200.000	0.006	0.132
-69.451	-68.197	0.302	0.115
-68.436	800.000	0.051	0.156
-67.422	800.000	-0.141	0.386
-66.407	-66.946	-0.257	-0.099
-65.392	-61.491	-0.080	-0.033
-64.378	204.608	-0.047	0.071
-63.363	109.641	0.217	0.255
-62.349	-81.815	0.063	-0.020
-61.334	108.327	-1.196	-1.396
-60.319	87.177	0.459	0.496
-59.305	-200.000	-0.109	-0.920
-58.290	144.022	0.840	1.096
-57.276	445.022	0.774	1.664
-56.261	-200.000	110.470	602.320
-55.246	430.928	1522.730	3226.359
-54.232	143.007	2710.672	3526.837
-53.217	94.802	2322.751	2584.943
-52.203	36.566	1927.036	1664.157
-51.188	30.689	1712.805	1433.954
-50.173	28.217	1670.886	1380.192
-49.159	48.139	1724.566	1577.594
-48.144	47.689	1739.195	1587.471
-47.130	30.363	1697.844	1418.714
-46.115	27.646	1683.370	1385.941
-45.100	27.553	1678.335	1381.038
-44.086	27.552	1675.651	1378.766
-43.071	27.364	1673.709	1375.692
-42.057	27.370	1670.989	1373.450
-41.042	27.335	1669.061	1371.546
-40.027	27.436	1666.887	1370.468
-39.013	27.382	1664.860	1368.337
-37.998	27.398	1663.403	1367.211
-36.984	27.447	1662.269	1366.592
-35.969	27.594	1659.739	1365.555
-34.954	27.529	1658.631	1364.102
-33.940	27.521	1657.165	1362.784
-32.925	27.407	1655.327	1360.368
-31.911	27.579	1653.399	1360.008
-30.896	27.571	1651.328	1358.196
-29.881	27.584	1649.826	1356.999
-28.867	27.570	1647.948	1355.297
-27.852	27.522	1647.306	1354.357
-26.838	27.497	1645.534	1352.668
-25.823	27.530	1644.136	1351.702
-24.809	27.577	1642.441	1350.607
-23.794	27.496	1641.536	1349.213
-22.779	27.601	1639.297	1348.090
-21.765	27.590	1637.899	1346.810
-20.750	27.489	1636.521	1344.874
-19.736	27.593	1635.238	1344.537
-18.721	27.616	1633.549	1343.264
-17.706	27.579	1632.602	1342.156
-16.692	27.599	1630.791	1340.762
-15.677	27.627	1629.379	1339.754
-14.663	27.682	1627.711	1338.730
-13.648	27.627	1626.522	1337.300
-12.633	27.577	1625.104	1335.716
-11.619	27.631	1623.629	1334.843
-10.604	27.543	1622.217	1332.988
-9.590	27.518	1621.195	1331.910
-8.575	27.605	1619.604	1331.187
-7.560	27.603	1618.304	1330.050
-6.546	27.588	1617.560	1329.277
-5.531	27.558	1616.616	1328.230
-4.517	27.570	1614.966	1326.906
-3.502	27.641	1613.645	1326.288
-2.487	27.712	1611.974	1325.380
-1.473	27.551	1600.963	1315.107
-0.458	25.127	1582.334	1282.440
0.556	20.444	1584.558	1255.038
1.571	18.196	1609.550	1258.206
2.586	17.876	1621.793	1265.289
3.600	16.174	1567.948	1210.968
4.615	9.002	1456.654	1076.924
5.629	1.773	1393.171	983.355
6.644	0.341	1385.309	968.524
7.659	0.342	1383.530	967.202
8.673	0.319	1382.883	966.516
9.688	0.287	1381.016	964.921
10.702	0.065	1377.685	961.089
11.717	3.526	1383.630	987.331
12.731	11.678	1395.928	1048.476
13.746	16.601	1401.675	1084.329
14.761	16.926	1401.324	1086.044
15.775	16.235	1399.519	1080.129
16.790	15.281	1396.856	1071.876
17.804	14.564	1394.559	1065.442
18.819	14.115	1393.114	1061.378
19.834	13.864	1391.594	1058.531
20.848	13.593	1390.492	1055.869
21.863	13.341	1389.096	1053.111
22.877	13.156	1388.254	1051.206
23.892	13.160	1387.277	1050.394
24.907	13.120	1386.287	1049.298
25.921	13.099	1385.820	1048.718
26.936	13.235	1384.417	1048.426
27.950	13.257	1383.808	1048.015
28.965	13.186	1383.158	1046.979
29.980	13.327	1381.468	1046.496
30.994	13.287	1380.871	1045.698
32.009	13.371	1379.943	1045.439
33.023	13.377	1378.840	1044.546
34.038	13.336	1377.393	1043.100
35.053	13.289	1376.402	1041.962
36.067	13.359	1374.660	1040.987
37.082	13.307	1374.402	1040.375
38.096	13.402	1373.234	1039.993
39.111	13.338	1372.718	1039.109
40.126	13.268	1371.964	1038.006
41.140	13.128	1371.536	1036.713
42.155	13.157	1370.676	1036.157
43.169	13.129	1370.377	1035.661
44.184	13.073	1370.372	1035.214
45.199	13.188	1369.777	1035.393
46.213	13.173	1369.031	1034.645
47.228	13.136	1368.182	1033.681
48.242	13.298	1366.740	1033.514
49.257	13.112	1365.743	1031.506
50.271	13.227	1363.795	1030.661
51.286	13.239	1362.551	1029.704
52.301	13.186	1361.342	1028.366
53.315	13.146	1360.115	1027.102
54.330	13.231	1358.866	1026.595
55.344	13.233	1357.791	1025.705
56.359	13.106	1357.108	1024.311
57.374	13.153	1356.119	1023.768
58.388	13.191	1355.265	1023.262
59.403	13.141	1354.722	1022.453
60.417	13.132	1354.239	1021.942
61.432	13.058	1353.122	1020.557
62.447	13.001	1352.256	1019.456
63.461	13.048	1350.915	1018.644
64.476	13.109	1349.948	1018.204
65.490	13.042	1349.197	1017.131
66.505	13.090	1346.769	1015.508
67.520	13.185	1345.538	1015.073
68.534	13.210	1344.768	1014.555
69.549	13.127	1343.780	1013.211
70.563	13.083	1342.980	1012.247
71.578	13.119	1341.180	1011.026
72.593	12.971	1341.097	1009.967
73.607	12.953	1340.543	1009.351
74.622	12.966	1339.003	1008.178
75.636	13.102	1338.267	1008.367
76.651	13.056	1337.361	1007.317
77.666	12.993	1336.819	1006.432
78.680	13.116	1336.354	1006.742
79.695	13.061	1335.730	1005.852
80.709	13.072	1334.989	1005.271
81.724	13.150	1334.222	1005.077
82.739	13.198	1332.945	1004.321
83.753	13.223	1332.171	1003.802
84.768	13.298	1330.724	1003.074
85.782	13.266	1329.900	1002.173
86.797	13.242	1328.327	1000.750
87.812	13.166	1327.284	999.417
88.826	13.185	1326.525	998.874
89.841	13.228	1325.305	998.123
90.855	13.348	1324.145	997.885
91.870	13.208	1323.552	996.507
92.884	13.265	1322.349	995.857
93.899	13.330	1321.768	995.720
94.914	13.392	1320.662	995.171
95.928	13.375	1319.828	994.358
96.943	13.339	1319.086	993.491
97.957	13.228	1318.439	992.253
98.972	13.237	1317.444	991.471
99.987	13.342	1315.915	990.859
101.001	13.362	1314.820	990.066
102.016	13.208	1314.195	988.585
103.030	13.340	1313.216	988.551
104.045	13.322	1312.268	987.645
105.060	13.275	1311.152	986.433
106.074	13.230	1309.752	985.024
107.089	13.142	1308.709	983.633
108.103	13.150	1306.793	982.149
109.118	13.178	1305.760	981.452
110.133	13.066	1304.866	980.029
111.147	13.215	1302.974	979.407
112.162	13.116	1301.654	977.742
113.176	13.227	1300.511	977.456
114.191	13.270	1299.555	976.903
115.206	13.284	1298.218	975.892
116.220	13.277	1297.100	974.924
117.235	13.220	1296.221	973.841
118.249	13.169	1295.290	972.754
119.264	13.119	1294.295	971.630
120.279	13.160	1292.650	970.548
121.293	13.210	1291.748	970.079
122.308	13.201	1291.019	969.395
123.322	13.157	1289.605	967.991
124.337	13.134	1289.054	967.357
125.352	13.256	1287.462	966.785
126.366	13.239	1286.057	965.549
127.381	13.178	1285.361	964.583
128.395	13.166	1284.224	963.578
129.410	13.195	1283.256	962.932
130.424	13.203	1282.309	962.185
131.439	13.152	1281.632	961.292
132.454	13.328	1279.839	960.885
133.468	13.288	1278.982	959.927
134.483	13.231	1278.737	959.325
135.497	13.230	1277.687	958.449
136.512	13.220	1276.217	957.204
137.527	13.283	1275.065	956.618
138.541	13.333	1273.229	955.446
139.556	13.247	1272.352	954.209
140.570	13.259	1271.089	953.244
141.585	13.284	1269.810	952.343
142.600	13.413	1268.619	952.110
143.614	13.415	1267.821	951.435
144.629	13.483	1266.628	950.850
145.643	13.396	1265.600	949.492
146.658	13.388	1264.322	948.405
147.673	13.297	1263.010	946.814
148.687	13.441	1261.434	946.372
149.702	13.414	1259.929	945.006
150.716	13.316	1258.703	943.442
151.731	13.365	1257.535	942.765
152.746	13.364	1256.698	942.050
153.760	13.366	1255.800	941.306
154.775	13.520	1254.291	940.965
155.789	13.477	1253.258	939.859
156.804	13.442	1252.703	939.166
157.819	13.496	1251.187	938.251
158.833	13.549	1250.754	938.144
159.848	13.670	1249.056	937.468
160.862	13.705	1247.845	936.673
161.877	13.607	1247.220	935.571
162.892	13.499	1245.900	933.891
163.906	13.457	1245.246	933.077
164.921	13.573	1244.157	932.835
165.935	13.573	1243.477	932.242
166.950	13.529	1242.873	931.456
167.964	13.591	1242.270	931.271
168.979	13.564	1241.419	930.402
169.994	13.466	1240.753	929.271
171.008	13.616	1240.167	929.592
172.023	13.610	1238.931	928.548
173.037	13.628	1238.198	928.017
174.052	13.640	1237.381	927.391
175.067	13.652	1236.091	926.410
176.081	13.637	1235.210	925.582
177.096	13.693	1234.066	924.952
178.110	13.663	1233.134	924.005
179.125	13.639	1231.938	922.896
180.140	13.689	1230.203	921.792
181.154	13.769	1229.256	921.445
182.169	13.757	1227.550	920.021
183.183	13.815	1226.544	919.502
184.198	13.735	1225.642	918.302
185.213	13.745	1224.589	917.490
186.227	13.739	1223.605	916.639
187.242	13.876	1222.745	916.670
188.256	13.906	1221.590	915.887
189.271	13.724	1220.983	914.349
190.286	13.779	1219.318	913.324
191.300	13.671	1219.169	912.536
192.315	13.733	1217.953	911.888
193.329	13.719	1217.482	911.377
194.344	13.691	1216.739	910.585
195.359	13.854	1215.898	910.767
196.373	13.888	1215.918	910.891
197.388	13.846	1215.436	910.219
198.402	13.877	1215.066	910.033
199.417	13.963	1214.158	909.742
200.432	14.005	1213.112	909.108
201.446	14.031	1212.147	908.447
202.461	14.066	1211.266	907.897
203.475	14.060	1210.164	906.954
204.490	14.081	1208.641	905.848
205.504	14.091	1207.532	904.994
206.519	14.007	1206.516	903.692
207.534	14.077	1205.002	902.861
208.548	14.025	1204.306	901.975
209.563	14.130	1203.402	901.787
210.577	14.050	1202.979	900.957
211.592	14.040	1202.405	900.396
212.607	14.184	1200.727	899.837
213.621	14.131	1200.472	899.283
214.636	14.176	1199.539	898.743
215.650	14.180	1198.537	897.936
216.665	14.363	1197.226	897.861
217.680	14.216	1196.618	896.535
218.694	14.321	1195.623	896.274
219.709	14.287	1194.692	895.312
220.723	14.311	1194.429	895.165
221.738	14.214	1193.588	893.935
222.753	14.237	1192.859	893.433
223.767	14.424	1191.893	893.634
224.782	14.380	1191.471	893.005
225.796	14.431	1190.796	892.691
226.811	14.335	1190.470	891.855
227.826	14.371	1189.312	891.099
228.840	14.409	1188.485	890.606
229.855	14.379	1187.947	889.962
230.869	14.368	1187.061	889.160
231.884	14.339	1186.277	888.341
232.899	14.315	1185.736	887.731
233.913	14.292	1185.157	887.094
234.928	14.306	1184.281	886.435
235.942	14.415	1183.614	886.440
236.957	14.350	1182.675	885.311
237.972	14.367	1181.597	884.513
238.986	14.358	1180.946	883.902
240.001	14.407	1180.236	883.554
241.015	14.371	1179.652	882.846
242.030	14.468	1178.644	882.525
243.045	14.439	1178.003	881.814
244.059	14.501	1176.988	881.303
245.074	14.537	1176.582	881.112
246.088	14.661	1175.606	880.961
247.103	14.728	1174.455	880.371
248.117	14.655	1173.943	879.523
249.132	14.600	1173.126	878.547
250.147	14.693	1172.334	878.364
251.161	14.676	1172.123	878.041
252.176	14.786	1171.120	877.788
253.190	14.809	1170.351	877.253
254.205	14.833	1170.257	877.233
255.220	14.885	1169.125	876.580
256.234	14.861	1168.905	876.213
257.249	14.958	1167.782	875.799
258.263	14.887	1167.536	875.164
259.278	14.920	1166.887	874.774
260.293	14.954	1166.247	874.395
261.307	14.997	1165.366	873.882
262.322	14.984	1165.026	873.483
263.336	15.085	1163.782	872.998
264.351	14.956	1163.858	872.305
265.366	14.957	1163.188	871.732
266.380	15.037	1162.000	871.178
267.395	14.986	1161.381	870.374
268.409	15.015	1160.353	869.679
269.424	14.998	1159.916	869.184
270.439	14.911	1159.398	868.268
271.453	15.099	1158.478	868.475
272.468	15.064	1157.449	867.447
273.482	15.038	1157.179	867.035
274.497	14.980	1156.797	866.369
275.512	15.151	1155.442	866.162
276.526	15.091	1155.008	865.451
277.541	15.250	1153.726	865.235
278.555	15.184	1153.402	864.577
279.570	15.244	1152.658	864.249
280.585	15.260	1151.733	863.561
281.599	15.320	1150.619	862.957
282.614	15.176	1150.027	861.697
283.628	15.196	1148.781	860.791
284.643	15.303	1147.620	860.395
285.657	15.295	1146.995	859.808
286.672	15.346	1146.067	859.296
287.687	15.287	1145.333	858.367
288.701	15.336	1144.494	857.916
289.716	15.239	1144.049	857.011
290.730	15.380	1143.131	856.968
291.745	15.275	1142.431	855.830
292.760	15.432	1142.050	856.268
293.774	15.396	1141.280	855.434
294.789	15.439	1140.704	855.146
295.803	15.489	1140.104	854.874
296.818	15.364	1139.258	853.529
297.833	15.351	1138.423	852.762
298.847	15.477	1137.334	852.512
299.862	15.495	1136.522	851.919
300.876	15.487	1136.027	851.431
301.891	15.595	1135.047	851.168
302.906	15.487	1134.551	850.176
303.920	15.570	1134.458	850.448
304.935	15.631	1133.163	849.712
305.949	15.612	1132.756	849.234
306.964	15.702	1132.094	849.118
307.979	15.703	1131.258	848.421
308.993	15.675	1130.529	847.655
310.008	15.718	1129.990	847.394
311.022	15.672	1129.033	846.370
312.037	15.817	1128.027	846.269
313.052	15.654	1127.753	845.169
314.066	15.751	1125.921	844.211
315.081	15.625	1125.459	843.158
316.095	15.642	1125.143	842.930
317.110	15.675	1124.335	842.418
318.125	15.693	1123.248	841.616
319.139	15.670	1122.736	841.046
320.154	15.763	1121.976	840.867
321.168	15.698	1121.644	840.217
322.183	15.809	1120.979	840.198
323.197	15.766	1120.519	839.566
324.212	15.760	1119.671	838.828
325.227	15.694	1119.273	838.125
326.241	15.785	1118.231	837.724
327.256	15.745	1117.764	837.102
328.270	15.792	1116.643	836.419
329.285	15.803	1115.601	835.621
330.300	15.947	1114.498	835.437
331.314	15.917	1113.633	834.563
332.329	15.896	1112.984	833.900
333.343	15.936	1112.011	833.296
334.358	16.015	1110.767	832.679
335.373	16.010	1110.774	832.584
336.387	15.885	1109.701	831.091
337.402	16.042	1109.294	831.486
338.416	15.982	1108.344	830.408
339.431	16.063	1107.729	830.270
340.446	15.972	1107.188	829.343
341.460	16.156	1106.592	829.731
342.475	16.178	1105.545	828.976
343.489	16.076	1104.802	827.846
344.504	16.183	1103.619	827.411
345.519	16.315	1102.958	827.490
346.533	16.244	1102.235	826.527
347.548	16.255	1101.179	825.714
348.562	16.319	1100.604	825.527
349.577	16.201	1099.848	824.310
350.592	16.119	1099.035	823.224
351.606	16.080	1098.440	822.517
352.621	16.093	1098.069	822.230
353.635	16.147	1097.338	821.872
354.650	16.187	1096.222	821.158
355.665	16.218	1095.392	820.617
356.679	16.242	1095.182	820.504
357.694	16.272	1094.391	819.983
358.708	16.454	1093.879	820.411
359.723	16.412	1093.209	819.629
360.738	16.412	1092.468	819.005
361.752	16.305	1092.058	818.103
362.767	16.370	1091.428	817.877
363.781	16.407	1090.347	817.171
364.796	16.364	1090.233	816.805
365.810	16.419	1089.626	816.546
366.825	16.541	1088.762	816.414
367.840	16.483	1088.588	815.933
368.854	16.594	1087.656	815.695
369.869	16.626	1086.574	814.966
370.883	16.508	1086.226	814.063
371.898	16.518	1085.421	813.435
372.913	16.544	1084.584	812.865
373.927	16.634	1084.282	812.996
374.942	16.647	1083.541	812.431
375.956	16.633	1083.442	812.217
376.971	16.681	1082.708	811.825
377.986	16.604	1081.935	810.808
379.000	16.710	1081.364	810.814
380.015	16.786	1080.896	810.756
381.029	16.709	1080.514	810.028
382.044	16.803	1079.723	809.812
383.059	16.891	1078.535	809.272
384.073	16.865	1077.452	808.263
385.088	16.769	1077.192	807.537
386.102	16.850	1076.110	807.042
387.117	16.865	1074.958	806.179
388.132	16.923	1073.877	805.570
389.146	16.771	1073.303	804.348
390.161	16.874	1072.440	804.118
391.175	16.891	1071.955	803.765
392.190	16.911	1071.410	803.379
393.205	16.877	1070.745	802.647
394.219	17.069	1069.750	802.740
395.234	17.029	1069.001	801.919
396.248	16.932	1067.778	800.472
397.263	17.014	1066.747	800.013
398.278	16.872	1066.609	799.170
399.292	16.959	1066.031	799.075
400.307	16.882	1064.675	797.626
401.321	16.973	1063.856	797.370
402.336	17.065	1063.109	797.175
403.350	16.826	1063.133	795.997
404.365	16.981	1062.352	796.071
405.380	17.074	1061.444	795.754
406.394	17.144	1060.344	795.186
407.409	16.999	1060.403	794.484
408.423	17.190	1059.233	794.428
409.438	17.195	1058.641	793.939
410.453	17.176	1058.187	793.441
411.467	17.255	1057.347	793.108
412.482	17.247	1056.737	792.542
413.496	17.255	1055.637	791.682
414.511	17.242	1055.385	791.366
415.526	17.253	1054.933	791.006
416.540	17.298	1054.350	790.708
417.555	17.282	1053.782	790.137
418.569	17.432	1053.155	790.296
419.584	17.372	1052.931	789.778
420.599	17.399	1052.309	789.367
421.613	105.105	1327.198	1479.161
422.628	96.772	1367.216	1479.258
