DTS Sentinel unit serial number:	SN413079Multiplexer serial number:	ORYXHardware model number:	OX4-SRSoftware version number:	ORYX F/W v4.00 Oryx Data Collector v3.7.2.0data status	okinstallation	princeton_trtdifferential loss correction	single-endedforward channel	channel 2reverse channel	N/Adate	2019/09/13time	12:15:34forward acquisition time	60.00reverse acquisition time	0.00gamma	496.2192k internal	0.2315k external	0.2315temperature offset calibration	1.0221default loss term (dB/km)	0.3790temperature slope calibration	1.0000multiplexer offset coefficient	1.0000multiplexer slope coefficient	1.0000fibre end	0.00T internal ref (°C)	34.00T ext. ref 1 (°C)	4.62T ext. ref 2 (°C)	31.23length (m)	temperature (°C)	Stokes	anti-Stokes-747.200	800.000	0.062	-0.192
-746.185	800.000	-0.057	-0.231
-745.171	-72.433	-0.091	-0.034
-744.156	-176.949	-0.201	0.005
-743.142	13.508	-0.125	0.098
-742.127	-200.000	0.014	0.163
-741.112	800.000	0.152	0.474
-740.098	15.840	0.165	0.131
-739.083	384.169	-0.155	-0.323
-738.069	370.420	0.060	0.123
-737.054	-30.187	0.138	-0.079
-736.039	134.336	-0.158	-0.207
-735.025	-99.423	-0.199	-0.051
-734.010	203.001	0.075	-0.117
-732.996	-200.000	-0.066	-0.328
-731.981	256.639	0.181	-0.314
-730.966	-33.658	0.133	0.074
-729.952	800.000	-0.142	-0.419
-728.937	-142.457	0.298	-0.030
-727.923	-59.257	-0.318	-0.139
-726.908	-200.000	-0.208	-0.001
-725.894	129.477	-0.207	0.268
-724.879	-200.000	-0.039	0.197
-723.864	431.003	0.013	0.030
-722.850	-176.249	0.112	-0.003
-721.835	2.981	-0.193	0.142
-720.821	-200.000	-0.238	0.001
-719.806	-78.022	-0.343	-0.120
-718.791	-177.111	-0.205	-0.005
-717.777	-2.606	-0.085	0.060
-716.762	255.735	-0.254	0.441
-715.748	25.081	-0.271	0.228
-714.733	-200.000	0.008	-0.183
-713.718	-115.243	-0.136	0.026
-712.704	111.960	0.122	0.149
-711.689	-200.000	-0.003	-0.196
-710.675	800.000	-0.095	0.346
-709.660	-112.773	-0.035	-0.007
-708.645	722.841	0.065	-0.174
-707.631	-55.782	0.166	0.075
-706.616	7.197	-0.096	0.073
-705.602	800.000	0.099	0.304
-704.587	178.176	-0.208	-0.307
-703.572	-90.661	-0.052	0.015
-702.558	-82.525	0.038	-0.012
-701.543	51.559	0.079	-0.076
-700.529	312.764	-0.093	-0.177
-699.514	342.762	0.073	-0.144
-698.499	800.000	0.020	0.059
-697.485	678.209	-0.151	-0.397
-696.470	165.344	-0.149	-0.213
-695.456	60.297	0.096	-0.096
-694.441	-200.000	-0.034	0.397
-693.426	-14.796	0.108	0.070
-692.412	-12.018	0.214	-0.142
-691.397	-117.273	0.055	0.010
-690.383	-155.895	-0.244	-0.016
-689.368	252.605	0.161	-0.278
-688.354	-20.424	0.067	-0.042
-687.339	-200.000	-0.003	-0.208
-686.324	800.000	-0.089	-0.255
-685.310	3.419	0.372	-0.274
-684.295	177.089	0.135	0.199
-683.281	49.179	-0.335	-0.318
-682.266	-103.018	-0.306	0.073
-681.251	268.676	0.025	0.044
-680.237	-76.132	-0.225	0.080
-679.222	-57.105	0.061	-0.027
-678.208	-150.938	-0.194	0.015
-677.193	-64.877	-0.272	0.111
-676.178	12.002	0.189	0.147
-675.164	620.912	-0.083	0.212
-674.149	1.853	-0.321	-0.234
-673.135	-200.000	0.030	-0.179
-672.120	-200.000	-0.002	-0.195
-671.105	-166.035	-0.171	0.007
-670.091	4.367	-0.158	-0.117
-669.076	-48.996	-0.437	-0.211
-668.062	94.617	-0.315	-0.362
-667.047	-200.000	0.040	0.260
-666.032	-103.877	0.134	0.032
-665.018	176.332	0.114	0.167
-664.003	262.929	-0.111	-0.194
-662.989	-70.639	-0.311	-0.119
-661.974	-163.140	0.079	0.004
-660.959	-86.162	-0.124	-0.039
-659.945	93.935	-0.139	-0.159
-658.930	-154.630	0.142	-0.010
-657.916	238.812	-0.098	0.164
-656.901	27.791	-0.145	0.124
-655.886	800.000	-0.022	0.088
-654.872	244.613	-0.069	-0.118
-653.857	-93.401	-0.055	0.015
-652.843	209.083	0.237	-0.374
-651.828	-200.000	-0.009	-0.119
-650.814	356.176	0.060	-0.121
-649.799	-200.000	0.048	-0.224
-648.784	119.275	-0.112	0.139
-647.770	-0.546	0.074	0.053
-646.755	225.591	0.043	0.071
-645.741	75.997	0.123	0.132
-644.726	124.761	-0.040	0.051
-643.711	189.415	-0.152	0.230
-642.697	195.539	0.200	0.307
-641.682	698.346	-0.097	0.259
-640.668	-147.926	-0.348	0.029
-639.653	800.000	-0.074	-0.309
-638.638	-159.258	0.216	0.012
-637.624	19.006	0.031	0.025
-636.609	800.000	-0.122	-0.358
-635.595	800.000	0.097	-0.383
-634.580	-200.000	-0.031	0.213
-633.565	60.331	-0.209	-0.209
-632.551	-62.276	0.243	0.102
-631.536	-113.475	0.105	0.021
-630.522	-9.754	-0.117	-0.079
-629.507	-200.000	-0.011	-0.113
-628.492	23.410	-0.140	-0.116
-627.478	-200.000	-0.006	-0.183
-626.463	339.142	0.096	0.189
-625.449	268.043	-0.095	-0.168
-624.434	-200.000	0.002	-0.175
-623.419	45.128	0.107	0.099
-622.405	145.406	0.173	0.234
-621.390	-106.491	0.171	0.039
-620.376	48.169	-0.028	-0.026
-619.361	354.531	0.158	-0.317
-618.346	-200.000	-0.014	-0.146
-617.332	-200.000	-0.005	0.087
-616.317	17.083	-0.157	-0.126
-615.303	-54.116	-0.200	0.092
-614.288	-172.860	0.059	-0.002
-613.273	-132.128	0.178	-0.023
-612.259	-200.000	-0.019	-0.177
-611.244	-142.625	0.045	0.004
-610.230	-200.000	-0.000	-0.085
-609.215	-66.008	-0.111	-0.044
-608.201	-200.000	0.019	0.209
-607.186	108.740	0.138	-0.166
-606.171	-189.379	-0.183	0.002
-605.157	-200.000	0.004	-0.033
-604.142	148.627	-0.022	-0.029
-603.128	800.000	-0.124	-0.396
-602.113	33.886	-0.089	-0.078
-601.098	15.929	0.133	0.105
-600.084	124.938	-0.158	-0.201
-599.069	-108.385	0.109	0.024
-598.055	-141.927	0.248	-0.025
-597.040	534.745	-0.155	-0.370
-596.025	800.000	0.042	-0.156
-595.011	-14.933	-0.068	0.044
-593.996	-26.830	-0.214	0.126
-592.982	790.119	0.053	-0.147
-591.967	-77.032	-0.277	0.097
-590.952	-123.571	0.097	0.016
-589.938	800.000	0.061	-0.238
-588.923	-200.000	0.001	-0.067
-587.909	394.844	-0.142	-0.299
-586.894	-97.621	0.199	-0.052
-585.879	34.167	-0.149	-0.131
-584.865	-200.000	0.013	-0.204
-583.850	-84.001	-0.076	0.024
-582.836	800.000	-0.063	0.219
-581.821	-200.000	0.002	-0.142
-580.806	174.841	-0.068	-0.099
-579.792	-200.000	-0.068	0.306
-578.777	34.655	-0.183	0.161
-577.763	-99.446	-0.147	-0.037
-576.748	-92.770	0.201	-0.057
-575.733	-54.744	0.084	-0.038
-574.719	-200.000	-0.012	-0.081
-573.704	175.100	0.022	-0.031
-572.690	282.600	-0.045	0.081
-571.675	159.441	0.216	0.303
-570.661	33.185	-0.098	-0.086
-569.646	-200.000	-0.030	-0.271
-568.631	-39.877	-0.389	0.205
-567.617	-34.393	0.109	0.060
-566.602	41.727	-0.273	-0.249
-565.588	-47.882	0.161	0.079
-564.573	-68.847	-0.320	-0.124
-563.558	-200.000	0.002	0.057
-562.544	-200.000	0.042	-0.191
-561.529	3.008	-0.107	0.078
-560.515	445.587	-0.052	-0.114
-559.500	120.010	-0.108	0.134
-558.485	-82.047	-0.271	-0.089
-557.471	-129.692	0.117	-0.016
-556.456	-35.101	0.344	-0.188
-555.442	-126.431	0.049	-0.007
-554.427	-200.000	-0.038	-0.290
-553.412	-108.037	-0.171	-0.037
-552.398	-131.984	0.497	-0.065
-551.383	205.354	0.093	-0.145
-550.369	-59.597	-0.121	0.052
-549.354	-150.661	0.123	-0.009
-548.339	-108.899	0.244	0.052
-547.325	-66.319	0.042	-0.017
-546.310	-19.565	0.224	-0.139
-545.296	-59.618	0.217	-0.094
-544.281	-32.023	0.180	0.101
-543.266	-200.000	-0.029	-0.170
-542.252	-14.580	0.138	-0.089
-541.237	-200.000	-0.023	-0.211
-540.223	-200.000	0.084	0.421
-539.208	800.000	-0.048	-0.144
-538.193	-97.558	0.399	-0.104
-537.179	85.606	0.087	0.096
-536.164	-2.503	0.118	-0.083
-535.150	96.238	0.105	-0.120
-534.135	-1.352	0.097	-0.069
-533.121	-70.384	-0.244	0.093
-532.106	64.010	0.143	0.145
-531.091	-90.180	-0.181	0.053
-530.077	-39.056	0.301	0.159
-529.062	-200.000	-0.007	0.430
-528.048	-25.187	0.213	0.127
-527.033	720.463	0.187	0.499
-526.018	-36.004	0.265	0.144
-525.004	-200.000	-0.021	-0.146
-523.989	83.809	-0.089	0.098
-522.975	800.000	-0.104	-0.325
-521.960	-24.616	0.038	0.023
-520.945	-6.461	-0.121	-0.083
-519.931	-92.273	-0.231	0.065
-518.916	378.461	0.079	0.163
-517.902	-96.446	-0.152	-0.040
-516.887	-200.000	-0.000	-0.048
-515.872	-192.757	0.195	0.002
-514.858	237.355	-0.187	0.312
-513.843	-48.157	-0.272	-0.132
-512.829	-200.000	0.032	0.144
-511.814	365.043	0.165	-0.335
-510.799	-32.418	-0.262	0.147
-509.785	800.000	0.041	-0.156
-508.770	17.282	0.367	-0.292
-507.756	-152.311	-0.268	0.019
-506.741	800.000	-0.043	-0.171
-505.726	80.462	0.207	0.224
-504.712	-90.592	0.236	0.068
-503.697	-164.666	0.033	0.001
-502.683	-46.541	-0.225	-0.111
-501.668	-200.000	-0.009	-0.234
-500.653	-200.000	0.003	0.149
-499.639	800.000	0.083	-0.305
-498.624	-200.000	0.031	0.221
-497.610	-155.458	0.071	0.005
-496.595	19.220	0.139	-0.112
-495.581	800.000	-0.030	-0.084
-494.566	-173.343	-0.153	-0.005
-493.551	21.633	0.175	0.143
-492.537	134.608	-0.130	-0.170
-491.522	-200.000	-0.002	0.117
-490.508	-200.000	-0.005	0.236
-489.493	-26.419	-0.304	0.179
-488.478	-19.741	0.301	-0.186
-487.464	-35.279	0.177	-0.096
-486.449	-55.486	0.328	-0.147
-485.435	-136.611	-0.118	0.014
-484.420	-53.077	-0.304	0.140
-483.405	3.551	-0.093	-0.068
-482.391	-148.148	0.173	0.014
-481.376	321.359	-0.079	-0.151
-480.362	409.493	-0.117	-0.249
-479.347	-200.000	-0.017	0.095
-478.332	-46.983	0.248	-0.122
-477.318	800.000	-0.015	0.065
-476.303	-200.000	-0.012	0.089
-475.289	476.692	-0.165	0.374
-474.274	71.965	-0.160	0.167
-473.259	108.317	-0.023	-0.028
-472.245	175.385	-0.099	0.144
-471.230	-59.570	0.240	0.103
-470.216	-200.000	0.012	0.060
-469.201	-70.521	0.263	-0.100
-468.186	-200.000	0.014	-0.404
-467.172	146.123	-0.048	0.064
-466.157	147.756	-0.121	-0.163
-465.143	-131.282	0.154	-0.020
-464.128	-200.000	-0.073	0.389
-463.113	-39.654	-0.093	-0.049
-462.099	115.084	0.189	-0.231
-461.084	367.683	-0.082	0.167
-460.070	708.300	-0.068	0.180
-459.055	78.783	-0.162	0.174
-458.040	359.773	-0.020	0.039
-457.026	800.000	0.080	0.286
-456.011	-72.956	0.309	0.114
-454.997	-200.000	-0.030	-0.151
-453.982	-200.000	-0.051	-0.496
-452.968	-30.507	-0.347	-0.197
-451.953	110.934	-0.279	-0.336
-450.938	52.243	-0.209	0.200
-449.924	-200.000	0.005	-0.075
-448.909	-200.000	0.040	0.000
-447.895	-2.527	-0.230	-0.162
-446.880	-26.930	0.245	-0.143
-445.865	60.958	-0.106	0.105
-444.851	-200.000	-0.007	-0.136
-443.836	-17.235	0.278	0.176
-442.822	270.161	-0.177	-0.312
-441.807	-139.704	0.146	0.016
-440.792	-114.484	-0.180	-0.035
-439.778	-153.929	0.394	-0.027
-438.763	-40.574	0.088	-0.046
-437.749	-43.064	0.357	-0.181
-436.734	800.000	0.018	-0.060
-435.719	-200.000	0.029	0.311
-434.705	13.186	-0.097	0.075
-433.690	-61.446	-0.314	-0.132
-432.676	-85.427	0.168	0.052
-431.661	179.072	-0.140	0.204
-430.646	-200.000	0.031	-0.255
-429.632	-200.000	0.012	-0.088
-428.617	-122.629	0.177	0.029
-427.603	53.316	0.078	-0.075
-426.588	-143.158	0.274	0.026
-425.573	202.906	-0.060	0.092
-424.559	189.959	-0.086	-0.129
-423.544	-200.000	0.022	0.144
-422.530	-106.100	0.202	-0.045
-421.515	124.340	-0.224	0.282
-420.500	-200.000	-0.025	-0.172
-419.486	-56.106	0.318	-0.142
-418.471	-200.000	-0.013	-0.330
-417.457	418.447	0.138	-0.295
-416.442	367.886	0.115	0.233
-415.428	-200.000	-0.061	-0.337
-414.413	-58.263	-0.151	-0.066
-413.398	-200.000	-0.112	-0.519
-412.384	106.201	-0.066	-0.079
-411.369	-92.046	0.203	0.057
-410.355	242.269	0.150	0.251
-409.340	-199.394	0.299	0.002
-408.325	-200.000	0.060	-0.313
-407.311	148.903	-0.060	0.081
-406.296	-200.000	0.012	-0.240
-405.282	800.000	-0.026	0.099
-404.267	-21.434	0.246	-0.150
-403.252	27.202	-0.214	0.180
-402.238	3.219	-0.161	-0.117
-401.223	-43.242	-0.304	-0.154
-400.209	-5.500	-0.058	0.040
-399.194	125.714	-0.066	0.084
-398.179	-200.000	-0.015	-0.121
-397.165	-144.473	-0.129	0.012
-396.150	145.531	-0.037	0.049
-395.136	-200.000	-0.004	-0.031
-394.121	-20.076	0.078	-0.048
-393.106	46.463	-0.158	-0.146
-392.092	-200.000	-0.012	-0.060
-391.077	-79.502	-0.230	-0.078
-390.063	-94.013	-0.355	-0.097
-389.048	-17.448	0.271	0.170
-388.033	472.224	-0.188	0.424
-387.019	-7.379	-0.111	0.075
-386.004	-200.000	0.040	-0.387
-384.990	-114.593	0.317	0.061
-383.975	800.000	-0.062	0.233
-382.960	263.487	0.139	0.242
-381.946	-17.141	0.136	0.086
-380.931	-36.561	-0.162	-0.087
-379.917	-102.670	0.373	-0.089
-378.902	-11.457	0.160	-0.105
-377.888	534.989	0.101	0.239
-376.873	-57.389	0.193	-0.085
-375.858	-200.000	-0.009	0.042
-374.844	-119.326	-0.357	0.062
-373.829	114.763	-0.331	0.403
-372.815	-200.000	0.011	-0.059
-371.800	40.342	0.143	-0.129
-370.785	-200.000	0.031	-0.259
-369.771	-54.478	-0.235	0.106
-368.756	-46.567	-0.295	-0.145
-367.742	50.861	0.051	0.049
-366.727	127.891	0.171	-0.217
-365.712	-200.000	0.003	0.039
-364.698	-200.000	0.019	0.106
-363.683	-63.486	0.246	-0.101
-362.669	-104.167	0.499	-0.116
-361.654	91.722	0.105	-0.118
-360.639	-134.098	0.270	0.033
-359.625	-200.000	0.009	0.116
-358.610	-200.000	0.028	0.332
-357.596	-114.918	-0.204	-0.039
-356.581	-72.116	0.351	-0.130
-355.566	-200.000	0.004	0.112
-354.552	-89.611	0.271	0.079
-353.537	-81.762	-0.507	-0.166
-352.523	692.819	0.126	-0.329
-351.508	800.000	0.070	-0.283
-350.493	284.095	-0.132	0.236
-349.479	-200.000	0.024	-0.138
-348.464	-47.329	-0.154	0.075
-347.450	-86.334	-0.221	0.068
-346.435	610.068	-0.011	-0.027
-345.420	29.828	-0.214	0.182
-344.406	800.000	0.057	0.189
-343.391	-155.671	-0.320	0.020
-342.377	58.741	0.026	0.025
-341.362	-200.000	-0.066	0.305
-340.348	247.358	-0.165	0.278
-339.333	-64.619	0.146	0.059
-338.318	64.009	-0.217	-0.217
-337.304	-37.991	-0.538	0.285
-336.289	-113.926	-0.111	-0.022
-335.275	-102.017	0.407	-0.098
-334.260	800.000	0.054	0.212
-333.245	-112.201	-0.316	0.063
-332.231	-200.000	-0.039	-0.344
-331.216	-23.563	0.238	-0.142
-330.202	-6.242	0.089	-0.061
-329.187	800.000	0.121	0.392
-328.172	37.220	-0.056	-0.050
-327.158	-200.000	-0.021	0.525
-326.143	256.096	-0.146	-0.250
-325.129	369.037	-0.049	0.098
-324.114	-69.151	0.159	0.061
-323.099	-200.000	-0.015	0.173
-322.085	161.052	-0.157	0.219
-321.070	171.756	-0.188	0.269
-320.056	-98.299	-0.303	0.077
-319.041	-95.655	0.310	0.083
-318.026	-146.794	0.308	0.026
-317.012	-72.025	0.427	-0.158
-315.997	800.000	-0.023	0.088
-314.983	800.000	-0.043	-0.164
-313.968	49.704	0.200	-0.188
-312.953	800.000	-0.097	0.323
-311.939	-15.726	-0.051	0.032
-310.924	-114.167	-0.229	-0.044
-309.910	47.380	0.047	-0.043
-308.895	-200.000	-0.021	0.191
-307.880	-60.474	-0.145	0.061
-306.866	-186.640	0.316	0.004
-305.851	30.636	-0.094	0.080
-304.837	-70.180	0.094	0.036
-303.822	-113.648	-0.086	0.017
-302.807	141.462	-0.018	-0.023
-301.793	123.066	-0.140	-0.175
-300.778	13.834	0.247	0.191
-299.764	-7.209	0.165	0.111
-298.749	-200.000	-0.009	-0.072
-297.735	-38.453	0.095	0.050
-296.720	-123.921	0.120	0.019
-295.705	203.688	0.131	-0.202
-294.691	16.088	0.099	-0.078
-293.676	219.452	0.243	0.387
-292.662	-123.897	-0.152	-0.024
-291.647	-77.853	-0.163	-0.056
-290.632	128.336	-0.187	0.237
-289.618	-54.819	0.093	-0.042
-288.603	540.112	0.070	0.165
-287.589	-19.472	-0.372	-0.229
-286.574	14.481	0.090	-0.070
-285.559	-99.237	0.239	0.060
-284.545	483.441	-0.050	0.113
-283.530	-141.826	-0.169	-0.017
-282.516	110.078	-0.192	0.229
-281.501	-133.790	0.114	-0.014
-280.486	-97.363	0.045	-0.012
-279.472	-46.913	0.147	-0.072
-278.457	42.906	-0.296	-0.268
-277.443	-66.008	-0.009	-0.004
-276.428	54.223	-0.144	0.138
-275.413	91.496	-0.116	0.130
-274.399	-120.710	-0.135	0.023
-273.384	-66.677	-0.227	-0.089
-272.370	248.565	0.076	0.128
-271.355	103.909	-0.144	-0.169
-270.340	-87.929	0.215	-0.064
-269.326	-48.104	-0.324	-0.156
-268.311	-127.167	0.327	-0.048
-267.297	-200.000	0.008	0.293
-266.282	37.294	-0.139	-0.122
-265.267	251.524	-0.168	0.285
-264.253	-200.000	-0.032	0.212
-263.238	-200.000	0.007	0.178
-262.224	347.627	0.074	-0.146
-261.209	148.128	0.049	-0.065
-260.195	37.841	-0.039	-0.034
-259.180	112.335	0.056	0.067
-258.165	-200.000	0.030	0.000
-257.151	110.373	-0.136	0.163
-256.136	-59.921	-0.224	0.095
-255.122	68.502	-0.112	0.114
-254.107	144.775	-0.076	-0.101
-253.092	-200.000	0.006	-0.284
-252.078	-57.112	0.086	-0.038
-251.063	-200.000	0.007	0.139
-250.049	136.964	-0.093	-0.121
-249.034	-120.744	0.340	-0.057
-248.019	-32.792	-0.190	-0.105
-247.005	-52.321	0.312	0.143
-245.990	18.897	0.243	-0.193
-244.976	-200.000	-0.080	-0.391
-243.961	-42.175	0.319	0.162
-242.946	800.000	-0.014	-0.058
-241.932	58.256	-0.225	-0.219
-240.917	-68.320	0.064	0.025
-239.903	259.691	-0.115	0.198
-238.888	38.075	-0.199	-0.175
-237.873	-200.000	-0.057	0.353
-236.859	-200.000	-0.035	0.286
-235.844	-165.677	-0.231	0.010
-234.830	41.134	0.172	-0.154
-233.815	6.038	-0.170	0.125
-232.800	-200.000	0.037	0.177
-231.786	-200.000	0.156	-0.001
-230.771	-108.279	-0.074	-0.016
-229.757	664.836	-0.056	-0.145
-228.742	45.535	-0.316	-0.290
-227.727	-41.295	-0.162	0.083
-226.713	-109.499	-0.031	-0.006
-225.698	-84.959	0.043	-0.013
-224.684	-106.701	0.173	0.038
-223.669	-154.454	-0.288	0.019
-222.655	421.383	-0.067	-0.143
-221.640	-200.000	-0.011	-0.102
-220.625	199.577	0.140	-0.213
-219.611	-145.193	-0.188	0.017
-218.596	-79.492	0.086	0.029
-217.582	-200.000	0.011	0.064
-216.567	-37.272	-0.264	0.140
-215.552	44.319	0.217	-0.197
-214.538	195.126	0.162	-0.244
-213.523	-200.000	0.001	-0.080
-212.509	-85.712	0.145	0.045
-211.494	-53.202	-0.174	-0.079
-210.479	-200.000	0.044	0.218
-209.465	57.378	0.070	0.068
-208.450	739.299	-0.182	0.485
-207.436	-110.541	-0.096	0.020
-206.421	-137.156	0.197	0.022
-205.406	-100.864	-0.154	0.038
-204.392	28.752	-0.293	0.246
-203.377	161.896	0.129	0.179
-202.363	27.185	0.111	0.093
-201.348	199.962	0.078	0.118
-200.333	-60.739	-0.179	0.075
-199.319	-51.374	0.384	-0.178
-198.304	-156.571	-0.095	-0.006
-197.290	-153.027	-0.187	-0.013
-196.275	-200.000	-0.023	-0.215
-195.260	95.751	-0.178	-0.202
-194.246	-98.711	-0.119	-0.030
-193.231	800.000	-0.056	-0.186
-192.217	-179.389	0.118	-0.003
-191.202	800.000	-0.158	0.470
-190.187	-200.000	-0.006	-0.217
-189.173	-45.725	-0.374	-0.183
-188.158	-145.775	0.144	0.013
-187.144	-200.000	0.044	0.403
-186.129	126.468	0.174	0.218
-185.114	-118.607	-0.257	-0.045
-184.100	43.542	0.177	-0.161
-183.085	800.000	0.120	0.490
-182.071	-42.021	0.268	0.136
-181.056	183.779	-0.052	-0.077
-180.042	-35.037	-0.090	0.049
-179.027	260.101	0.079	-0.135
-178.012	-120.713	0.161	-0.027
-176.998	-148.150	0.201	0.016
-175.983	-163.787	-0.260	-0.012
-174.969	-25.423	0.327	0.191
-173.954	-174.389	-0.133	0.004
-172.939	-37.750	-0.110	-0.058
-171.925	16.137	0.267	0.209
-170.910	-200.000	-0.049	0.264
-169.896	-200.000	-0.007	0.140
-168.881	221.493	0.135	0.215
-167.866	-67.225	-0.137	0.053
-166.852	677.950	-0.100	-0.257
-165.837	-121.179	-0.095	-0.016
-164.823	-9.340	0.271	0.179
-163.808	-85.811	-0.213	0.065
-162.793	325.972	0.056	-0.107
-161.779	-37.591	0.092	-0.049
-160.764	463.803	-0.033	-0.073
-159.750	42.916	0.019	0.017
-158.735	-200.000	-0.044	-0.198
-157.720	-118.269	-0.289	0.051
-156.706	-143.194	-0.188	0.018
-155.691	200.547	0.151	0.230
-154.677	127.160	0.125	0.157
-153.662	82.412	-0.071	0.076
-152.647	800.000	0.036	0.151
-151.633	33.571	0.291	0.250
-150.618	-200.000	-0.025	0.132
-149.604	204.582	0.175	0.268
-148.589	-11.929	0.284	0.184
-147.574	-189.026	0.242	-0.003
-146.560	-200.000	0.004	0.412
-145.545	-200.000	-0.007	0.028
-144.531	-64.717	-0.180	0.072
-143.516	800.000	0.067	-0.284
-142.502	13.511	0.199	0.153
-141.487	-200.000	0.034	0.230
-140.472	7.254	-0.215	0.159
-139.458	47.852	0.299	-0.276
-138.443	-50.428	-0.098	-0.046
-137.429	-112.090	-0.385	-0.077
-136.414	-200.000	0.074	0.336
-135.399	-41.609	0.077	-0.039
-134.385	60.129	-0.016	-0.015
-133.370	505.175	0.042	-0.097
-132.356	-40.433	0.145	0.075
-131.341	-30.943	0.261	-0.146
-130.326	-31.602	0.222	0.123
-129.312	-24.955	-0.141	-0.083
-128.297	-132.670	-0.153	-0.019
-127.283	-40.579	0.164	0.084
-126.268	101.706	0.143	0.165
-125.253	-69.522	-0.229	-0.087
-124.239	-50.838	-0.215	-0.100
-123.224	77.156	-0.152	-0.160
-122.210	23.676	-0.091	-0.074
-121.195	-200.000	0.003	0.092
-120.180	-49.846	-0.174	-0.082
-119.166	-76.975	0.180	0.062
-118.151	290.601	-0.060	-0.108
-117.137	-200.000	0.016	0.104
-116.122	-117.018	-0.194	-0.035
-115.107	132.348	0.183	0.233
-114.093	475.419	-0.201	-0.448
-113.078	-94.055	-0.105	0.029
-112.064	-127.769	-0.198	0.028
-111.049	627.503	-0.068	-0.170
-110.034	800.000	-0.056	-0.195
-109.020	800.000	0.059	0.174
-108.005	96.234	-0.100	0.113
-106.991	800.000	-0.036	-0.117
-105.976	800.000	-0.025	-0.079
-104.962	238.367	-0.063	0.103
-103.947	-162.196	0.177	-0.009
-102.932	-16.914	-0.488	0.305
-101.918	152.714	0.067	-0.090
-100.903	-88.659	-0.138	-0.041
-99.889	-0.000	-0.399	-0.281
-98.874	79.038	-0.116	0.123
-97.859	586.831	-0.114	0.278
-96.845	800.000	-0.026	0.095
-95.830	-182.500	0.148	0.003
-94.816	-125.798	0.159	-0.024
-93.801	23.565	0.383	0.311
-92.786	-200.000	-0.055	0.257
-91.772	603.046	-0.130	0.320
-90.757	57.662	0.093	0.090
-89.743	800.000	-0.064	0.208
-88.728	-116.701	0.061	0.011
-87.713	-200.000	0.003	0.111
-86.699	-54.942	-0.201	-0.089
-85.684	148.181	0.082	-0.109
-84.670	225.629	0.144	-0.231
-83.655	800.000	-0.166	0.458
-82.640	-85.226	-0.401	-0.124
-81.626	-36.361	-0.240	0.128
-80.611	-119.104	0.068	-0.012
-79.597	-200.000	0.014	-0.295
-78.582	-200.000	-0.036	-0.304
-77.567	800.000	-0.052	0.167
-76.553	105.627	-0.224	0.262
-75.538	189.420	0.230	-0.340
-74.524	119.553	-0.231	0.282
-73.509	192.157	-0.044	0.066
-72.494	-94.288	-0.189	0.051
-71.480	-143.227	-0.305	-0.029
-70.465	-200.000	0.034	-0.275
-69.451	800.000	-0.132	0.394
-68.436	-166.789	0.162	-0.007
-67.422	40.994	-0.097	0.086
-66.407	-200.000	-0.007	0.146
-65.392	-98.683	0.321	0.081
-64.378	800.000	0.030	0.107
-63.363	0.310	0.043	0.030
-62.349	574.337	-0.037	0.090
-61.334	95.095	-0.875	-0.983
-60.319	-13.669	0.473	0.302
-59.305	800.000	-0.255	-1.041
-58.290	99.226	0.793	0.904
-57.276	649.437	0.733	1.849
-56.261	-200.000	96.712	569.059
-55.246	621.413	1406.711	3491.263
-54.232	182.407	2638.703	3837.055
-53.217	113.484	2326.531	2785.926
-52.203	43.492	1934.144	1743.914
-51.188	37.302	1720.428	1503.433
-50.173	34.414	1675.686	1442.466
-49.159	51.443	1724.067	1615.133
-48.144	54.613	1741.716	1655.907
-47.130	36.950	1697.705	1480.650
-46.115	34.053	1682.335	1445.219
-45.100	33.863	1678.180	1440.148
-44.086	33.845	1675.102	1437.312
-43.071	33.865	1672.600	1435.262
-42.057	33.863	1670.244	1433.171
-41.042	33.843	1668.385	1431.364
-40.027	33.858	1665.802	1429.206
-39.013	33.907	1663.780	1427.780
-37.998	33.865	1662.392	1426.219
-36.984	34.000	1660.559	1425.599
-35.969	34.039	1659.032	1424.524
-34.954	33.991	1657.869	1423.112
-33.940	33.998	1655.844	1421.369
-32.925	33.887	1654.350	1419.199
-31.911	33.856	1653.076	1417.821
-30.896	34.004	1650.639	1416.775
-29.881	33.968	1648.944	1414.999
-28.867	33.987	1647.093	1413.495
-27.852	34.011	1645.129	1411.933
-26.838	34.020	1643.841	1410.837
-25.823	34.008	1642.608	1409.631
-24.809	34.037	1641.421	1408.777
-23.794	34.030	1639.766	1407.248
-22.779	34.034	1638.260	1405.924
-21.765	33.986	1636.821	1404.279
-20.750	33.968	1635.357	1402.839
-19.736	34.030	1633.569	1401.708
-18.721	34.134	1631.873	1400.957
-17.706	33.954	1631.066	1398.889
-16.692	34.031	1629.096	1397.708
-15.677	33.965	1627.325	1395.646
-14.663	34.035	1626.544	1395.436
-13.648	34.030	1625.136	1394.134
-12.633	34.017	1623.685	1392.741
-11.619	34.049	1621.772	1391.280
-10.604	34.043	1620.046	1389.698
-9.590	34.000	1619.300	1388.691
-8.575	34.162	1617.710	1388.457
-7.560	34.129	1616.248	1386.904
-6.546	34.057	1615.470	1385.653
-5.531	34.031	1614.229	1384.345
-4.517	34.019	1613.061	1383.203
-3.502	34.018	1611.652	1381.937
-2.487	34.186	1609.900	1381.600
-1.473	34.000	1598.949	1370.800
-0.458	31.265	1579.748	1334.772
0.556	30.223	1579.118	1300.094
1.571	27.525	1603.062	1300.464
2.586	26.302	1615.293	1301.465
3.600	22.737	1560.015	1231.973
4.615	13.943	1448.199	1086.303
5.629	6.125	1383.037	988.340
6.644	4.659	1374.398	972.913
7.659	4.544	1373.363	971.377
8.673	4.710	1372.473	971.696
9.688	4.587	1371.029	969.821
10.702	4.617	1368.129	967.868
11.717	8.343	1375.312	996.144
12.731	17.161	1391.093	1062.903
13.746	22.702	1400.113	1104.499
14.761	22.935	1399.037	1105.009
15.775	22.262	1396.575	1098.760
16.790	21.201	1393.967	1089.993
17.804	20.413	1391.904	1083.371
18.819	20.030	1390.981	1080.171
19.834	19.935	1389.411	1078.263
20.848	19.766	1388.661	1076.531
21.863	19.563	1387.768	1074.484
22.877	19.463	1386.034	1072.425
23.892	19.484	1385.567	1072.099
24.907	19.536	1384.591	1071.572
25.921	19.517	1383.454	1070.477
26.936	19.426	1382.628	1069.182
27.950	19.483	1381.653	1068.685
28.965	19.572	1380.784	1068.469
29.980	19.653	1379.680	1068.020
30.994	19.742	1378.786	1067.786
32.009	19.819	1377.506	1067.175
33.023	19.871	1376.096	1066.303
34.038	19.624	1375.137	1063.950
35.053	19.600	1373.845	1062.708
36.067	19.578	1372.816	1061.682
37.082	19.652	1371.747	1061.214
38.096	19.686	1370.849	1060.633
39.111	19.772	1369.941	1060.365
40.126	19.624	1368.859	1058.530
41.140	19.363	1367.412	1055.715
42.155	19.133	1367.181	1054.039
43.169	19.201	1367.309	1054.461
44.184	19.186	1366.616	1053.738
45.199	19.314	1365.999	1053.957
46.213	19.440	1366.022	1054.647
47.228	19.567	1365.025	1054.560
48.242	19.535	1364.098	1053.557
49.257	19.605	1362.728	1052.832
50.271	19.577	1360.751	1051.044
51.286	19.635	1359.562	1050.383
52.301	19.578	1358.440	1049.079
53.315	19.396	1357.264	1046.973
54.330	19.283	1356.666	1045.729
55.344	19.321	1354.805	1044.431
56.359	19.315	1353.721	1043.468
57.374	19.274	1352.954	1042.536
58.388	19.139	1352.360	1041.170
59.403	19.089	1351.970	1040.476
60.417	19.032	1351.078	1039.357
61.432	19.012	1349.987	1038.304
62.447	18.917	1349.286	1037.100
63.461	18.905	1347.714	1035.726
64.476	19.011	1346.241	1035.139
65.490	18.903	1345.460	1033.796
66.505	18.849	1343.865	1032.158
67.520	18.893	1343.084	1031.729
68.534	18.996	1341.637	1031.147
69.549	18.877	1341.162	1029.976
70.563	18.838	1339.566	1028.426
71.578	18.735	1338.479	1026.886
72.593	18.699	1337.606	1025.908
73.607	18.601	1337.251	1024.956
74.622	18.649	1336.281	1024.410
75.636	18.754	1335.829	1024.600
76.651	18.777	1335.042	1024.045
77.666	18.839	1334.396	1023.829
78.680	18.920	1334.200	1024.071
79.695	19.011	1333.448	1023.941
80.709	19.185	1332.351	1024.047
81.724	19.186	1331.811	1023.543
82.739	19.323	1331.161	1023.770
83.753	19.404	1330.787	1023.873
84.768	19.665	1329.667	1024.465
85.782	19.733	1328.643	1023.991
86.797	19.790	1327.021	1022.989
87.812	19.547	1326.036	1020.700
88.826	19.571	1324.923	1019.893
89.841	19.607	1323.811	1019.163
90.855	19.690	1322.926	1018.881
91.870	19.786	1322.232	1018.818
92.884	19.762	1321.285	1017.858
93.899	19.802	1320.307	1017.251
94.914	19.880	1319.847	1017.265
95.928	19.844	1318.864	1016.202
96.943	19.765	1318.187	1015.129
97.957	19.684	1316.985	1013.640
98.972	19.752	1316.047	1013.225
99.987	19.640	1315.325	1011.926
101.001	19.698	1314.165	1011.280
102.016	19.670	1313.177	1010.270
103.030	19.701	1312.344	1009.719
104.045	19.656	1311.325	1008.584
105.060	19.537	1309.833	1006.650
106.074	19.272	1308.202	1003.766
107.089	19.049	1306.689	1001.219
108.103	18.954	1305.504	999.671
109.118	18.931	1304.250	998.487
110.133	18.986	1302.434	997.328
111.147	19.071	1301.097	996.709
112.162	19.016	1300.274	995.671
113.176	19.132	1299.002	995.278
114.191	19.197	1297.981	994.789
115.206	19.180	1296.968	993.827
116.220	19.132	1295.642	992.442
117.235	19.096	1294.807	991.510
118.249	19.127	1293.296	990.442
119.264	19.016	1291.749	988.531
120.279	18.794	1291.464	986.951
121.293	18.881	1290.196	986.396
122.308	18.815	1288.933	984.960
123.322	18.940	1287.379	984.402
124.337	18.643	1287.064	982.373
125.352	18.641	1285.933	981.412
126.366	18.699	1284.980	980.934
127.381	18.852	1283.501	980.588
128.395	18.801	1282.404	979.374
129.410	18.885	1281.824	979.322
130.424	18.920	1281.188	978.949
131.439	18.942	1280.257	978.274
132.454	19.052	1279.384	978.145
133.468	19.025	1278.737	977.415
134.483	19.169	1277.522	977.214
135.497	19.194	1276.587	976.556
136.512	19.167	1275.680	975.622
137.527	19.230	1273.880	974.514
138.541	19.371	1272.385	974.083
139.556	19.287	1272.029	973.251
140.570	19.467	1270.932	973.340
141.585	19.502	1270.005	972.743
142.600	19.626	1268.164	971.944
143.614	19.706	1267.645	971.906
144.629	19.753	1267.105	971.672
145.643	19.662	1265.412	969.780
146.658	19.405	1264.417	967.486
147.673	19.406	1262.774	966.148
148.687	19.231	1261.893	964.414
149.702	19.156	1259.543	962.109
150.716	19.206	1258.142	961.232
151.731	19.252	1257.203	960.688
152.746	19.187	1256.076	959.382
153.760	19.267	1254.936	958.870
154.775	19.378	1253.995	958.686
155.789	19.434	1253.429	958.478
156.804	19.418	1252.566	957.644
157.819	19.583	1251.389	957.575
158.833	19.691	1250.371	957.306
159.848	19.804	1249.670	957.315
160.862	19.762	1248.853	956.372
161.877	19.454	1247.063	953.212
162.892	19.231	1245.945	951.045
163.906	19.040	1245.383	949.479
164.921	19.236	1244.187	949.562
165.935	19.345	1243.461	949.525
166.950	19.355	1242.980	949.127
167.964	19.366	1242.045	948.389
168.979	19.352	1241.277	947.639
169.994	19.456	1239.873	947.056
171.008	19.403	1239.371	946.299
172.023	19.474	1238.541	945.971
173.037	19.648	1238.182	946.567
174.052	19.566	1237.579	945.572
175.067	19.421	1235.633	943.210
176.081	19.277	1234.764	941.675
177.096	19.167	1234.284	940.628
178.110	19.291	1233.238	940.422
179.125	19.387	1231.817	939.780
180.140	19.477	1230.699	939.334
181.154	19.474	1229.924	938.639
182.169	19.629	1228.565	938.365
183.183	19.617	1228.060	937.828
184.198	19.713	1226.424	937.017
185.213	19.794	1225.374	936.572
186.227	19.794	1224.578	935.878
187.242	19.906	1223.165	935.320
188.256	19.937	1222.407	934.826
189.271	19.989	1221.523	934.350
190.286	19.812	1219.980	932.133
191.300	19.302	1219.138	928.661
192.315	19.111	1218.517	927.074
193.329	19.228	1217.636	926.953
194.344	19.281	1217.393	926.970
195.359	19.438	1216.927	927.380
196.373	19.486	1216.452	927.190
197.388	19.679	1215.961	927.771
198.402	19.834	1215.941	928.505
199.417	20.079	1215.272	929.228
200.432	20.203	1214.438	929.171
201.446	20.194	1214.142	928.814
202.461	20.177	1213.323	928.013
203.475	20.095	1212.343	926.748
204.490	19.982	1210.679	924.788
205.504	19.871	1209.019	922.847
206.519	19.772	1207.814	921.316
207.534	19.679	1206.953	920.086
208.548	19.746	1206.011	919.639
209.563	19.853	1205.094	919.429
210.577	19.737	1204.665	918.403
211.592	19.881	1203.997	918.580
212.607	20.069	1203.007	918.740
213.621	20.067	1201.919	917.816
214.636	19.962	1201.165	916.601
215.650	20.116	1199.747	916.253
216.665	20.151	1199.496	916.168
217.680	20.293	1198.461	916.046
218.694	20.345	1197.369	915.401
219.709	20.197	1197.091	914.328
220.723	20.234	1196.139	913.715
221.738	20.180	1195.401	912.788
222.753	20.205	1194.322	912.013
223.767	20.167	1194.031	911.512
224.782	20.304	1193.560	911.792
225.796	20.428	1193.009	911.942
226.811	20.335	1192.037	910.627
227.826	20.279	1191.210	909.624
228.840	20.163	1190.388	908.306
229.855	20.092	1189.868	907.457
230.869	20.087	1189.081	906.753
231.884	20.067	1188.266	905.943
232.899	20.020	1187.283	904.872
233.913	19.981	1186.170	903.738
234.928	19.996	1185.281	903.058
235.942	20.003	1184.485	902.409
236.957	19.783	1184.042	900.848
237.972	19.772	1183.446	900.254
238.986	19.932	1182.381	900.200
240.001	19.903	1181.629	899.395
241.015	20.071	1180.827	899.575
242.030	20.050	1180.448	899.098
243.045	20.115	1179.409	898.566
244.059	20.176	1178.773	898.318
245.074	20.170	1178.086	897.686
246.088	20.203	1177.467	897.301
247.103	20.392	1176.658	897.586
248.117	20.465	1176.023	897.397
249.132	20.711	1175.351	898.074
250.147	20.948	1174.718	898.732
251.161	21.005	1174.309	898.635
252.176	21.053	1173.495	898.182
253.190	20.954	1173.897	897.899
254.205	21.075	1172.820	897.616
255.220	21.160	1172.022	897.363
256.234	21.057	1171.656	896.477
257.249	21.066	1170.500	895.557
258.263	21.074	1169.483	894.740
259.278	21.087	1169.374	894.648
260.293	20.937	1168.959	893.481
261.307	21.072	1168.313	893.601
262.322	21.086	1167.769	893.174
263.336	21.146	1166.768	892.641
264.351	21.189	1166.492	892.569
265.366	21.171	1165.833	891.892
266.380	21.215	1165.014	891.414
267.395	21.230	1164.236	890.815
268.409	21.080	1163.244	889.211
269.424	20.996	1162.304	887.987
270.439	21.058	1161.574	887.667
271.453	21.014	1160.726	886.714
272.468	20.854	1159.845	885.154
273.482	20.841	1159.078	884.421
274.497	20.914	1158.491	884.265
275.512	20.929	1157.952	883.851
276.526	20.870	1157.252	882.942
277.541	20.847	1156.502	882.175
278.555	20.965	1155.909	882.243
279.570	21.164	1155.187	882.619
280.585	21.342	1154.405	882.843
281.599	21.291	1153.737	881.995
282.614	21.087	1152.566	879.996
283.628	20.951	1151.529	878.437
284.643	20.981	1150.519	877.739
285.657	21.090	1149.495	877.428
286.672	21.037	1148.855	876.597
287.687	21.121	1147.604	875.985
288.701	20.986	1147.388	875.066
289.716	21.091	1146.284	874.676
290.730	21.147	1145.337	874.153
291.745	21.123	1144.683	873.457
292.760	21.220	1143.936	873.296
293.774	21.267	1143.607	873.203
294.789	21.389	1143.714	873.814
295.803	21.328	1142.454	872.474
296.818	21.195	1141.397	870.927
297.833	21.202	1140.299	870.044
298.847	21.128	1140.202	869.526
299.862	21.310	1138.934	869.386
300.876	21.253	1138.333	868.569
301.891	21.312	1138.116	868.618
302.906	21.327	1137.576	868.206
303.920	21.503	1137.264	868.764
304.935	21.638	1136.328	868.642
305.949	21.708	1135.901	868.586
306.964	21.696	1135.318	868.002
307.979	21.464	1133.791	865.608
308.993	21.595	1133.258	865.776
310.008	21.658	1132.590	865.499
311.022	21.674	1132.244	865.236
312.037	21.573	1131.271	863.917
313.052	21.617	1129.705	862.865
314.066	21.438	1128.886	861.281
315.081	21.125	1128.042	859.021
316.095	21.156	1127.181	858.440
317.110	21.180	1127.017	858.357
318.125	21.179	1126.311	857.739
319.139	21.141	1125.365	856.755
320.154	21.251	1124.654	856.677
321.168	21.289	1123.786	856.125
322.183	21.285	1123.568	855.864
323.197	21.301	1123.188	855.579
324.212	21.349	1122.478	855.195
325.227	21.393	1121.900	854.895
326.241	21.287	1121.525	854.019
327.256	21.418	1120.414	853.736
328.270	21.310	1119.560	852.483
329.285	21.441	1118.417	852.175
330.300	21.332	1117.268	850.693
331.314	21.254	1116.315	849.514
332.329	21.301	1115.986	849.417
333.343	21.378	1115.459	849.314
334.358	21.634	1114.126	849.464
335.373	21.623	1113.894	849.158
336.387	21.629	1112.996	848.430
337.402	21.737	1112.296	848.342
338.416	21.663	1111.811	847.539
339.431	21.792	1111.163	847.597
340.446	21.840	1110.616	847.336
341.460	22.028	1110.016	847.709
342.475	22.137	1109.049	847.423
343.489	22.139	1108.161	846.678
344.504	22.171	1107.251	846.064
345.519	22.176	1106.754	845.632
346.533	22.230	1106.222	845.411
347.548	22.250	1105.391	844.797
348.562	22.211	1104.269	843.676
349.577	22.049	1103.056	841.900
350.592	21.898	1102.564	840.726
351.606	21.727	1101.590	839.090
352.621	21.718	1100.653	838.260
353.635	21.521	1100.655	837.241
354.650	21.658	1099.749	837.136
355.665	21.847	1098.826	837.259
356.679	21.856	1098.411	836.915
357.694	21.961	1097.952	836.990
358.708	21.891	1097.279	836.067
359.723	22.027	1096.487	836.042
360.738	22.047	1095.736	835.487
361.752	22.019	1095.282	834.934
362.767	21.949	1094.834	834.189
363.781	21.988	1094.475	834.025
364.796	22.143	1094.188	834.467
365.810	22.304	1093.586	834.700
366.825	22.545	1092.497	834.936
367.840	22.400	1092.821	834.422
368.854	22.645	1091.767	834.705
369.869	22.508	1091.200	833.546
370.883	22.432	1090.218	832.367
371.898	22.427	1089.126	831.433
372.913	22.378	1088.567	830.703
373.927	22.450	1087.761	830.355
374.942	22.575	1087.419	830.609
375.956	22.509	1086.967	829.879
376.971	22.515	1086.233	829.273
377.986	22.443	1086.034	828.710
379.000	22.589	1085.471	828.893
380.015	22.806	1084.798	829.324
381.029	22.834	1083.933	828.720
382.044	22.868	1083.326	828.343
383.059	22.681	1083.032	827.169
384.073	22.611	1082.032	826.002
385.088	22.743	1081.116	825.852
386.102	22.779	1079.942	825.048
387.117	22.584	1078.943	823.301
388.132	22.544	1077.637	822.045
389.146	22.418	1077.349	821.166
390.161	22.237	1076.667	819.729
391.175	22.485	1075.727	820.096
392.190	22.543	1075.311	819.976
393.205	22.669	1074.656	819.988
394.219	22.581	1073.912	818.942
395.234	22.562	1072.814	817.941
396.248	22.463	1071.704	816.566
397.263	22.445	1070.681	815.628
398.278	22.204	1069.821	813.788
399.292	22.181	1069.018	812.997
400.307	22.251	1068.094	812.546
401.321	22.266	1067.822	812.337
402.336	22.181	1067.213	811.410
403.350	22.359	1065.975	811.219
404.365	22.352	1065.594	810.824
405.380	22.475	1065.050	810.905
406.394	22.492	1064.527	810.513
407.409	22.698	1063.755	810.799
408.423	22.713	1063.522	810.618
409.438	22.886	1062.463	810.534
410.453	22.924	1061.989	810.275
411.467	22.888	1061.321	809.527
412.482	22.992	1060.698	809.458
413.496	22.999	1060.390	809.182
414.511	23.041	1059.828	808.876
415.526	23.060	1059.410	808.570
416.540	23.296	1058.667	809.009
417.555	23.283	1057.872	808.273
418.569	23.109	1057.489	807.114
419.584	23.147	1056.628	806.558
420.599	23.058	1056.783	806.200
421.613	154.537	1401.731	1789.553
422.628	141.983	1451.982	1789.637
