DTS Sentinel unit serial number:	SN413079Multiplexer serial number:	ORYXHardware model number:	OX4-SRSoftware version number:	ORYX F/W v4.00 Oryx Data Collector v3.7.2.0data status	okinstallation	princeton_trtdifferential loss correction	single-endedforward channel	channel 2reverse channel	N/Adate	2019/09/10time	18:57:10forward acquisition time	60.00reverse acquisition time	0.00gamma	496.2192k internal	0.2323k external	0.2323temperature offset calibration	0.9937default loss term (dB/km)	0.3790temperature slope calibration	1.0000multiplexer offset coefficient	1.0000multiplexer slope coefficient	1.0000fibre end	0.00T internal ref (°C)	34.69T ext. ref 1 (°C)	-0.43T ext. ref 2 (°C)	26.87length (m)	temperature (°C)	Stokes	anti-Stokes-747.200	78.926	-0.253	0.274
-746.185	-200.000	-0.024	0.310
-745.171	101.855	0.206	-0.243
-744.156	303.094	-0.203	0.379
-743.142	-200.000	0.026	0.268
-742.127	49.874	-0.140	0.133
-741.112	-200.000	-0.066	0.330
-740.098	800.000	0.049	0.175
-739.083	183.859	-0.148	0.221
-738.069	-107.844	-0.127	0.028
-737.054	28.738	-0.388	-0.331
-736.039	800.000	0.030	-0.090
-735.025	134.465	0.132	-0.173
-734.010	-2.566	0.171	0.121
-732.996	130.715	-0.233	-0.302
-731.981	-200.000	0.037	0.265
-730.966	144.153	-0.160	-0.216
-729.952	3.887	0.081	0.060
-728.937	-200.000	0.010	-0.366
-727.923	555.215	-0.075	-0.182
-726.908	-40.169	-0.173	-0.091
-725.894	800.000	-0.051	-0.189
-724.879	-88.486	0.255	-0.077
-723.864	800.000	-0.044	0.186
-722.850	-54.339	0.197	0.090
-721.835	145.372	-0.238	-0.321
-720.821	467.311	0.116	-0.262
-719.806	69.907	0.167	-0.174
-718.791	-99.934	0.199	0.050
-717.777	-87.453	-0.059	0.018
-716.762	134.290	-0.082	-0.107
-715.748	-200.000	-0.023	-0.101
-714.733	727.687	0.108	0.292
-713.718	124.136	0.065	-0.082
-712.704	104.664	0.166	-0.197
-711.689	106.466	-0.032	-0.038
-710.675	-42.928	-0.263	-0.135
-709.660	288.299	-0.046	0.084
-708.645	800.000	0.039	-0.127
-707.631	176.281	0.017	-0.025
-706.616	-100.766	-0.104	0.026
-705.602	0.686	0.116	-0.084
-704.587	111.917	0.109	0.132
-703.572	458.330	0.041	-0.092
-702.558	-106.095	-0.413	-0.094
-701.543	768.011	-0.135	-0.370
-700.529	-70.548	0.225	-0.086
-699.514	-18.830	0.155	-0.097
-698.499	212.149	-0.176	0.279
-697.485	800.000	-0.039	0.157
-696.470	-23.868	-0.049	0.029
-695.456	-200.000	0.001	-0.144
-694.441	-24.953	0.128	0.077
-693.426	74.933	-0.186	-0.197
-692.412	800.000	-0.058	-0.242
-691.397	-200.000	0.018	-0.198
-690.383	800.000	-0.038	0.147
-689.368	-200.000	0.008	0.164
-688.354	-131.740	0.212	0.028
-687.339	-200.000	-0.036	-0.370
-686.324	-200.000	0.006	0.238
-685.310	-200.000	0.025	-0.148
-684.295	-142.015	0.305	0.031
-683.281	-1.017	-0.124	-0.088
-682.266	-106.238	-0.381	0.086
-681.251	138.431	-0.124	-0.164
-680.237	59.928	-0.160	0.159
-679.222	-200.000	-0.037	-0.202
-678.208	-78.990	-0.177	-0.061
-677.193	-200.000	0.007	0.296
-676.178	-156.508	-0.231	-0.014
-675.164	-200.000	0.039	-0.262
-674.149	230.846	0.034	0.056
-673.135	-145.891	0.405	-0.036
-672.120	-200.000	0.009	-0.292
-671.105	-57.698	0.093	-0.041
-670.091	-106.192	0.249	-0.056
-669.076	111.459	-0.113	0.138
-668.062	49.682	-0.219	-0.208
-667.047	490.031	-0.066	-0.152
-666.032	-146.627	-0.398	0.035
-665.018	267.224	-0.065	-0.114
-664.003	-200.000	0.005	-0.330
-662.989	509.286	0.129	0.301
-661.974	-200.000	0.037	-0.172
-660.959	-111.070	-0.191	-0.039
-659.945	-200.000	-0.001	-0.198
-658.930	119.431	0.235	0.293
-657.916	9.282	-0.223	-0.170
-656.901	90.190	0.170	-0.191
-655.886	-53.912	-0.242	-0.111
-654.872	40.304	0.184	-0.166
-653.857	33.160	-0.145	0.126
-652.843	-200.000	-0.023	-0.179
-651.828	-56.238	0.177	-0.079
-650.814	53.111	-0.372	-0.359
-649.799	-89.595	-0.357	-0.105
-648.784	303.538	0.090	0.169
-647.770	-85.346	0.276	0.087
-646.755	11.106	0.031	-0.024
-645.741	-146.606	-0.086	-0.008
-644.726	-130.551	-0.063	0.009
-643.711	71.814	0.257	0.269
-642.697	27.203	0.120	0.101
-641.682	456.157	0.146	-0.325
-640.668	800.000	0.054	0.193
-639.653	26.202	0.158	0.132
-638.638	-200.000	0.004	0.162
-637.624	428.793	0.098	-0.214
-636.609	-200.000	-0.020	0.252
-635.595	-200.000	-0.056	0.317
-634.580	-29.607	0.251	0.144
-633.565	-99.540	-0.137	-0.035
-632.551	-84.849	0.175	0.055
-631.536	-63.514	-0.247	0.102
-630.522	-200.000	-0.032	-0.176
-629.507	-200.000	-0.090	-0.497
-628.492	3.566	-0.240	-0.176
-627.478	-61.390	-0.180	-0.076
-626.463	800.000	0.054	0.209
-625.449	-115.360	0.249	0.047
-624.434	714.329	0.166	-0.443
-623.419	89.344	0.050	-0.056
-622.405	422.268	0.116	-0.251
-621.390	228.122	0.143	-0.235
-620.376	434.651	0.104	-0.228
-619.361	-200.000	0.034	-0.507
-618.346	-200.000	-0.025	-0.117
-617.332	-95.374	-0.185	0.050
-616.317	130.021	0.045	-0.058
-615.303	-200.000	0.013	0.312
-614.288	-200.000	-0.031	0.305
-613.273	-110.726	-0.501	-0.104
-612.259	42.525	0.313	0.286
-611.244	-148.531	-0.030	-0.002
-610.230	800.000	0.059	-0.214
-609.215	-8.875	-0.281	0.189
-608.201	-134.066	0.366	0.046
-607.186	-200.000	-0.014	-0.279
-606.171	-134.454	0.342	0.042
-605.157	800.000	-0.102	-0.303
-604.142	-85.557	-0.167	0.052
-603.128	46.574	0.102	-0.095
-602.113	172.663	0.162	0.234
-601.098	-200.000	0.010	-0.081
-600.084	70.423	0.175	-0.182
-599.069	-38.658	-0.127	-0.067
-598.055	22.170	-0.215	-0.177
-597.040	-105.347	0.081	-0.018
-596.025	-165.373	-0.361	-0.016
-595.011	-62.381	-0.314	0.131
-593.996	199.902	-0.109	-0.169
-592.982	-134.962	0.234	-0.028
-591.967	800.000	0.085	-0.363
-590.952	-200.000	0.012	-0.301
-589.938	-92.588	0.145	0.041
-588.923	-60.475	-0.147	0.063
-587.909	-138.501	-0.186	-0.020
-586.894	138.112	-0.188	0.247
-585.879	396.161	0.105	0.220
-584.865	-83.545	0.280	-0.090
-583.850	-22.338	-0.194	-0.118
-582.836	264.370	-0.102	-0.178
-581.821	-131.167	-0.291	0.039
-580.806	239.354	-0.080	-0.134
-579.792	-79.376	0.206	-0.070
-578.777	-200.000	0.065	-0.385
-577.763	-159.762	0.277	-0.015
-576.748	32.303	-0.387	0.335
-575.733	-65.972	-0.456	-0.183
-574.719	-115.361	0.259	-0.049
-573.704	383.929	0.108	-0.223
-572.690	-69.189	0.227	-0.088
-571.675	800.000	0.120	-0.490
-570.661	16.876	-0.227	0.180
-569.646	-200.000	-0.037	-0.224
-568.631	-200.000	-0.029	0.171
-567.617	-200.000	0.038	0.249
-566.602	128.807	-0.326	0.417
-565.588	-200.000	-0.022	0.314
-564.573	-38.731	0.107	0.057
-563.558	121.674	0.053	0.066
-562.544	-50.177	-0.255	-0.121
-561.529	-136.467	-0.140	-0.016
-560.515	-52.559	0.109	0.050
-559.500	154.845	-0.286	-0.394
-558.485	-66.644	0.129	-0.051
-557.471	-200.000	0.009	-0.142
-556.456	1.655	0.164	-0.118
-555.442	-86.708	-0.174	-0.053
-554.427	-47.373	-0.231	0.113
-553.412	164.498	0.147	0.208
-552.398	-200.000	-0.011	0.158
-551.383	-51.839	-0.290	-0.135
-550.369	-78.868	-0.140	0.048
-549.354	148.727	0.139	-0.188
-548.339	169.058	-0.069	-0.099
-547.325	-101.819	-0.460	0.111
-546.310	-127.611	-0.408	0.059
-545.296	154.167	0.123	0.168
-544.281	-200.000	0.025	-0.155
-543.266	35.663	0.089	-0.079
-542.252	47.793	-0.118	0.110
-541.237	-200.000	0.000	-0.204
-540.223	-170.993	0.260	-0.009
-539.208	-125.618	-0.156	0.024
-538.193	726.422	0.034	-0.090
-537.179	-91.222	-0.105	-0.030
-536.164	-36.110	0.395	-0.214
-535.150	-200.000	0.000	-0.140
-534.135	535.943	-0.120	0.284
-533.121	-48.474	0.307	-0.148
-532.106	-200.000	-0.052	-0.273
-531.091	-13.664	0.335	-0.217
-530.077	800.000	-0.015	-0.055
-529.062	-50.316	0.180	-0.085
-528.048	108.597	0.091	-0.109
-527.033	-77.199	-0.076	0.027
-526.018	-129.353	0.285	0.040
-525.004	-119.295	0.278	0.048
-523.989	-152.504	-0.321	0.023
-522.975	-200.000	-0.001	0.128
-521.960	11.258	-0.163	-0.125
-520.945	-200.000	-0.015	0.167
-519.931	-18.404	-0.099	0.062
-518.916	-29.742	-0.360	-0.206
-517.902	-93.239	0.151	-0.042
-516.887	-200.000	0.031	-0.280
-515.872	49.322	0.266	0.251
-514.858	277.189	0.020	-0.036
-513.843	-200.000	-0.002	0.308
-512.829	1.650	-0.117	-0.084
-511.814	-200.000	0.007	-0.112
-510.799	-61.940	-0.177	0.074
-509.785	-82.531	0.053	-0.017
-508.770	-172.628	0.095	-0.003
-507.756	800.000	0.019	0.071
-506.741	-200.000	-0.005	-0.038
-505.726	800.000	0.038	-0.132
-504.712	-200.000	-0.039	-0.264
-503.697	-49.974	0.165	0.078
-502.683	800.000	-0.050	0.194
-501.668	191.115	-0.025	0.038
-500.653	-161.979	-0.428	0.022
-499.639	62.959	-0.116	-0.116
-498.624	-200.000	0.030	-0.141
-497.610	-67.130	0.228	0.090
-496.595	-117.724	-0.110	-0.020
-495.581	-200.000	0.008	0.143
-494.566	72.857	0.040	-0.042
-493.551	-96.747	0.112	-0.029
-492.537	-200.000	-0.026	0.143
-491.522	-200.000	-0.005	-0.042
-490.508	-109.767	-0.107	-0.023
-489.493	-18.149	-0.209	0.131
-488.478	-75.367	0.108	0.038
-487.464	-200.000	0.023	-0.220
-486.449	149.307	0.108	0.146
-485.435	181.667	-0.195	-0.287
-484.420	-6.756	-0.352	-0.240
-483.405	656.285	0.068	-0.173
-482.391	130.419	0.174	0.222
-481.376	-114.417	0.057	0.011
-480.362	-55.389	0.194	-0.087
-479.347	163.062	-0.167	-0.234
-478.332	-200.000	0.008	-0.151
-477.318	-200.000	0.006	-0.068
-476.303	-99.558	-0.080	0.020
-475.289	800.000	-0.024	-0.104
-474.274	297.015	-0.095	0.173
-473.259	-51.520	0.173	-0.081
-472.245	-62.406	0.367	0.153
-471.230	-64.386	-0.359	-0.146
-470.216	263.145	-0.115	-0.199
-469.201	288.684	0.066	-0.120
-468.186	-48.285	0.097	-0.047
-467.172	11.200	-0.210	-0.161
-466.157	-109.641	0.334	0.070
-465.143	-200.000	-0.016	0.332
-464.128	-113.725	-0.448	0.087
-463.113	84.093	0.213	0.232
-462.099	-95.413	0.147	-0.039
-461.084	-200.000	0.033	0.150
-460.070	-160.747	-0.176	0.009
-459.055	306.584	-0.096	0.178
-458.040	206.362	0.058	-0.090
-457.026	176.570	0.242	0.352
-456.011	207.154	0.126	0.196
-454.997	60.858	-0.020	0.020
-453.982	-86.060	0.255	-0.079
-452.968	-43.353	0.197	-0.099
-451.953	-139.351	-0.124	0.013
-450.938	38.762	-0.099	0.088
-449.924	122.871	0.012	-0.015
-448.909	281.587	-0.065	-0.117
-447.895	226.709	0.137	0.222
-446.880	6.334	-0.242	0.179
-445.865	-200.000	-0.024	-0.255
-444.851	111.089	0.104	-0.125
-443.836	-150.298	-0.326	-0.025
-442.822	-94.169	0.319	-0.087
-441.807	-200.000	0.033	-0.191
-440.792	800.000	0.082	-0.271
-439.778	84.167	-0.115	-0.125
-438.763	-200.000	-0.021	0.138
-437.749	155.337	0.094	0.129
-436.734	281.002	0.104	0.185
-435.719	-46.013	0.216	0.106
-434.705	-45.948	-0.154	-0.076
-433.690	-42.372	0.203	-0.104
-432.676	800.000	-0.039	-0.144
-431.661	111.615	0.210	-0.252
-430.646	-89.107	0.277	-0.082
-429.632	-28.924	0.327	-0.187
-428.617	-57.397	-0.112	-0.049
-427.603	-35.692	-0.098	0.053
-426.588	-200.000	0.036	-0.310
-425.573	-58.133	0.128	-0.056
-424.559	-111.758	-0.028	0.006
-423.544	-47.285	0.246	0.120
-422.530	152.040	-0.254	-0.345
-421.515	-200.000	-0.020	-0.318
-420.500	30.247	0.073	-0.062
-419.486	-10.703	-0.107	0.070
-418.471	-73.815	0.069	-0.025
-417.457	180.333	-0.105	0.154
-416.442	719.215	0.058	0.153
-415.428	53.864	0.114	0.109
-414.413	358.442	0.044	0.088
-413.398	800.000	-0.085	0.276
-412.384	-200.000	-0.066	-0.300
-411.369	-65.154	0.239	0.096
-410.355	-8.338	-0.083	0.056
-409.340	72.424	-0.053	0.055
-408.325	-85.221	0.258	0.080
-407.311	800.000	-0.056	0.243
-406.296	36.356	0.225	0.198
-405.282	-57.374	0.278	0.122
-404.267	-23.681	0.010	0.006
-403.252	48.565	-0.058	-0.054
-402.238	-3.718	-0.258	-0.179
-401.223	-78.070	-0.357	-0.123
-400.209	-101.206	0.066	0.016
-399.194	40.424	0.353	-0.317
-398.179	-38.356	-0.199	0.105
-397.165	50.532	-0.199	0.187
-396.150	555.148	0.215	0.516
-395.136	-45.390	0.187	-0.093
-394.121	-117.632	0.176	-0.032
-393.106	72.698	0.152	0.158
-392.092	-200.000	-0.014	0.087
-391.077	19.129	-0.164	-0.131
-390.063	31.178	-0.004	-0.003
-389.048	53.938	-0.021	0.020
-388.033	409.406	0.169	-0.357
-387.019	-163.381	-0.091	-0.004
-386.004	-96.504	-0.059	0.015
-384.990	120.345	0.185	0.228
-383.975	-73.468	0.360	0.131
-382.960	-78.304	0.316	-0.108
-381.946	800.000	0.041	0.143
-380.931	-137.426	-0.232	-0.026
-379.917	-200.000	-0.011	-0.106
-378.902	-200.000	-0.077	0.466
-377.888	45.027	0.243	-0.223
-376.873	272.390	0.058	0.101
-375.858	577.505	-0.116	0.284
-374.844	362.457	-0.070	0.140
-373.829	-200.000	-0.014	0.222
-372.815	-139.694	-0.153	-0.016
-371.800	-19.212	0.197	-0.122
-370.785	-200.000	-0.006	0.079
-369.771	-66.409	-0.172	0.068
-368.756	35.726	0.088	0.077
-367.742	-42.974	0.281	-0.142
-366.727	800.000	-0.021	0.067
-365.712	-180.595	-0.121	-0.002
-364.698	-200.000	0.036	-0.219
-363.683	800.000	0.039	-0.157
-362.669	-200.000	0.003	-0.058
-361.654	158.872	-0.211	-0.292
-360.639	-46.845	-0.390	-0.190
-359.625	378.765	-0.164	0.333
-358.610	-102.875	0.317	0.075
-357.596	800.000	-0.046	0.193
-356.581	-32.851	0.151	-0.083
-355.566	800.000	0.085	0.246
-354.552	81.650	0.172	0.185
-353.537	-200.000	-0.017	0.209
-352.523	-91.656	0.138	-0.039
-351.508	-25.511	0.455	0.267
-350.493	447.935	0.109	0.239
-349.479	-122.876	-0.043	0.007
-348.464	113.423	-0.013	0.016
-347.450	172.879	-0.218	0.313
-346.435	8.490	0.141	-0.106
-345.420	-119.427	-0.052	-0.009
-344.406	-110.416	0.117	-0.024
-343.391	-82.072	0.426	0.138
-342.377	800.000	0.066	-0.281
-341.362	-135.680	-0.097	0.011
-340.348	-73.934	0.249	0.090
-339.333	16.557	-0.144	-0.113
-338.318	-95.905	0.169	0.045
-337.304	-200.000	0.017	-0.202
-336.289	800.000	0.056	0.191
-335.275	-49.249	0.067	0.032
-334.260	-15.539	0.086	0.054
-333.245	382.719	0.076	0.156
-332.231	800.000	-0.082	0.325
-331.216	152.756	0.176	-0.239
-330.202	-127.823	-0.232	0.033
-329.187	-7.934	0.044	-0.029
-328.172	-55.020	0.107	-0.048
-327.158	555.760	0.084	0.201
-326.143	-24.548	0.155	0.092
-325.129	-20.360	-0.293	0.179
-324.114	547.178	0.030	0.071
-323.099	219.485	-0.094	0.149
-322.085	64.498	0.241	-0.241
-321.070	800.000	0.046	-0.165
-320.056	19.908	-0.073	-0.059
-319.041	-200.000	-0.007	0.115
-318.026	800.000	-0.073	-0.228
-317.012	131.441	0.060	0.077
-315.997	4.963	0.191	0.140
-314.983	-93.562	-0.177	0.049
-313.968	-126.779	-0.340	0.050
-312.953	523.725	0.175	-0.409
-311.939	800.000	0.011	-0.046
-310.924	800.000	-0.129	0.413
-309.910	-61.651	-0.270	0.113
-308.895	800.000	-0.141	0.432
-307.880	-80.834	-0.242	0.080
-306.866	-2.240	-0.230	0.160
-305.851	800.000	-0.058	-0.163
-304.837	-200.000	-0.022	-0.184
-303.822	-13.480	0.271	-0.174
-302.807	-5.380	-0.193	-0.131
-301.793	51.364	-0.080	0.076
-300.778	-145.125	0.191	0.017
-299.764	-87.118	-0.157	0.047
-298.749	-23.103	0.224	0.134
-297.735	85.291	-0.138	-0.151
-296.720	-200.000	-0.061	0.310
-295.705	-117.495	-0.235	-0.042
-294.691	800.000	0.035	0.131
-293.676	-112.980	-0.199	-0.039
-292.662	-87.020	-0.154	0.047
-291.647	-134.704	-0.046	-0.006
-290.632	-158.381	0.379	0.022
-289.618	-90.514	-0.182	0.052
-288.603	-200.000	-0.022	0.299
-287.589	-200.000	0.032	0.182
-286.574	-69.655	-0.376	0.143
-285.559	691.396	0.122	0.316
-284.545	-98.662	0.118	-0.030
-283.530	800.000	-0.040	0.110
-282.516	96.836	-0.143	-0.163
-281.501	-77.417	-0.186	0.064
-280.486	224.067	0.152	-0.244
-279.472	-18.655	-0.091	0.056
-278.457	65.733	-0.021	0.022
-277.443	800.000	0.021	0.070
-276.428	800.000	-0.079	-0.283
-275.413	-31.331	0.110	0.062
-274.399	-166.034	0.241	-0.010
-273.384	-200.000	-0.015	-0.309
-272.370	-130.895	-0.091	-0.012
-271.355	408.502	-0.023	-0.049
-270.340	521.398	0.065	0.151
-269.326	-55.631	-0.310	0.138
-268.311	-94.691	-0.471	0.127
-267.297	-200.000	0.024	-0.326
-266.282	357.417	-0.088	-0.174
-265.267	479.867	-0.030	0.068
-264.253	-200.000	-0.011	0.436
-263.238	25.062	0.056	0.046
-262.224	-121.337	-0.238	-0.039
-261.209	800.000	-0.072	0.235
-260.195	75.089	-0.266	0.278
-259.180	42.340	-0.248	0.224
-258.165	215.097	-0.164	0.257
-257.151	-144.858	0.128	-0.012
-256.136	-106.913	0.267	0.059
-255.122	-108.108	-0.246	0.053
-254.107	-89.179	0.118	-0.035
-253.092	24.856	0.018	0.015
-252.078	139.609	0.127	-0.165
-251.063	-116.569	0.146	-0.027
-250.049	569.491	-0.075	0.181
-249.034	-89.757	-0.354	0.103
-248.019	33.275	-0.041	-0.035
-247.005	23.128	-0.053	-0.043
-245.990	-159.528	-0.073	0.004
-244.976	800.000	-0.045	0.181
-243.961	-159.250	0.138	-0.008
-242.946	97.997	-0.215	0.246
-241.932	324.355	-0.102	-0.192
-240.917	-36.356	-0.354	0.189
-239.903	-200.000	0.014	-0.137
-238.888	-129.628	0.194	0.027
-237.873	-139.373	-0.212	-0.022
-236.859	-186.921	-0.171	0.002
-235.844	-86.767	0.167	-0.051
-234.830	203.065	-0.156	-0.239
-233.815	64.548	0.127	-0.126
-232.800	95.683	-0.035	0.040
-231.786	-72.755	0.030	-0.011
-230.771	-99.944	-0.230	0.057
-229.757	-141.101	-0.228	-0.023
-228.742	3.466	0.070	0.050
-227.727	546.236	-0.079	0.188
-226.713	-75.639	-0.148	-0.052
-225.698	-62.147	-0.109	0.045
-224.684	117.905	0.191	0.233
-223.669	61.177	-0.190	-0.187
-222.655	456.247	0.153	0.336
-221.640	800.000	0.039	-0.123
-220.625	-200.000	-0.004	-0.082
-219.611	773.069	0.073	-0.198
-218.596	-200.000	-0.000	0.282
-217.582	240.527	0.107	0.177
-216.567	-13.076	0.101	0.065
-215.552	-200.000	-0.049	-0.226
-214.538	800.000	0.070	0.235
-213.523	-200.000	0.011	0.452
-212.509	73.545	-0.454	0.470
-211.494	-200.000	0.035	-0.292
-210.479	800.000	0.078	-0.234
-209.465	-200.000	-0.008	0.139
-208.450	-124.241	0.123	0.019
-207.436	32.273	0.098	0.084
-206.421	-200.000	-0.002	-0.069
-205.406	-200.000	0.054	-0.324
-204.392	-124.099	-0.194	-0.030
-203.377	-11.518	0.006	0.004
-202.363	800.000	0.177	-0.491
-201.348	-31.670	0.081	-0.045
-200.333	-200.000	-0.012	-0.109
-199.319	-58.670	0.274	0.117
-198.304	800.000	-0.126	0.391
-197.290	-9.388	0.194	-0.128
-196.275	-122.763	0.297	-0.047
-195.260	-200.000	0.038	-0.241
-194.246	-117.329	0.391	0.070
-193.231	-200.000	-0.033	-0.270
-192.217	8.772	0.053	0.039
-191.202	-140.076	0.165	-0.017
-190.187	800.000	0.051	0.199
-189.173	-81.652	0.070	0.023
-188.158	319.685	-0.040	0.075
-187.144	-20.197	0.315	-0.192
-186.129	-200.000	-0.011	-0.297
-185.114	-106.974	0.160	0.035
-184.100	2.261	-0.123	-0.088
-183.085	-62.922	-0.259	0.106
-182.071	-88.553	-0.096	-0.028
-181.056	-46.074	-0.248	-0.121
-180.042	-200.000	-0.016	-0.305
-179.027	-193.869	-0.202	0.002
-178.012	329.043	-0.130	0.247
-176.998	800.000	-0.006	-0.016
-175.983	306.025	0.200	-0.367
-174.969	-58.869	-0.174	-0.074
-173.954	-25.953	-0.218	-0.127
-172.939	800.000	0.040	0.134
-171.925	-67.893	0.163	-0.063
-170.910	73.160	0.104	0.107
-169.896	-186.861	-0.422	-0.006
-168.881	292.690	0.082	0.148
-167.866	-200.000	0.014	0.184
-166.852	-112.029	-0.080	-0.016
-165.837	800.000	0.065	0.217
-164.823	51.573	0.274	-0.258
-163.808	-21.195	0.072	0.043
-162.793	-5.272	0.062	0.042
-161.779	169.742	-0.169	-0.238
-160.764	11.407	-0.100	-0.076
-159.750	20.416	0.249	-0.198
-158.735	14.701	0.077	0.060
-157.720	-200.000	0.015	0.119
-156.706	-200.000	0.049	-0.216
-155.691	-200.000	0.040	-0.436
-154.677	-200.000	0.048	0.376
-153.662	-125.174	-0.327	0.050
-152.647	-148.416	0.082	-0.007
-151.633	-148.922	0.201	0.016
-150.618	238.407	-0.088	0.144
-149.604	118.962	0.098	0.120
-148.589	-22.887	0.105	-0.063
-147.574	-143.223	-0.380	-0.036
-146.560	-200.000	0.009	-0.157
-145.545	627.918	0.122	-0.303
-144.531	108.465	0.173	0.204
-143.516	95.764	-0.163	0.184
-142.502	378.083	0.100	-0.203
-141.487	-200.000	-0.066	0.386
-140.472	63.062	0.267	-0.263
-139.458	224.059	0.227	-0.361
-138.443	800.000	-0.023	0.091
-137.429	9.329	0.221	-0.165
-136.414	127.718	0.126	0.158
-135.399	45.378	-0.069	0.063
-134.385	759.715	-0.062	-0.165
-133.370	800.000	-0.071	0.197
-132.356	444.840	0.102	0.221
-131.341	-116.092	-0.362	0.066
-130.326	-200.000	-0.014	0.178
-129.312	214.626	-0.171	-0.266
-128.297	481.767	0.112	0.251
-127.283	-200.000	-0.015	0.112
-126.268	-182.397	-0.315	-0.006
-125.253	482.184	-0.049	-0.110
-124.239	8.138	0.095	-0.070
-123.224	-35.809	0.333	-0.178
-122.210	590.476	-0.091	-0.222
-121.195	-28.806	0.061	-0.035
-120.180	60.607	0.291	0.284
-119.166	800.000	0.109	0.346
-118.151	-200.000	0.001	-0.020
-117.137	-48.216	0.089	0.043
-116.122	800.000	0.064	0.253
-115.107	333.460	-0.025	0.047
-114.093	-100.114	-0.052	0.013
-113.078	-92.909	-0.126	0.035
-112.064	-77.636	0.274	0.093
-111.049	24.493	-0.179	-0.145
-110.034	-200.000	-0.055	-0.250
-109.020	20.491	0.091	0.073
-108.005	-162.527	-0.120	0.006
-106.991	357.361	-0.108	-0.212
-105.976	35.712	-0.127	0.110
-104.962	-124.990	0.300	-0.045
-103.947	145.432	-0.145	-0.191
-102.932	146.504	0.181	-0.239
-101.918	-200.000	-0.005	0.261
-100.903	-180.782	-0.324	0.007
-99.889	140.180	-0.052	-0.068
-98.874	-200.000	-0.042	-0.334
-97.859	-77.102	0.147	-0.050
-96.845	50.933	0.280	-0.261
-95.830	-200.000	0.036	-0.171
-94.816	-101.971	-0.176	0.042
-93.801	2.177	-0.144	-0.103
-92.786	-100.820	-0.253	0.061
-91.772	-200.000	0.017	0.125
-90.757	267.619	0.010	-0.018
-89.743	170.644	-0.060	-0.085
-88.728	129.303	-0.181	-0.228
-87.713	-130.908	-0.259	-0.034
-86.699	222.749	0.108	0.171
-85.684	-200.000	0.007	0.079
-84.670	465.046	0.194	-0.428
-83.655	-200.000	0.016	-0.219
-82.640	800.000	-0.123	0.371
-81.626	-65.916	-0.364	-0.143
-80.611	800.000	0.014	0.054
-79.597	800.000	0.081	-0.322
-78.582	48.029	0.098	0.091
-77.567	310.869	0.046	-0.084
-76.553	39.634	0.137	-0.121
-75.538	80.892	0.042	-0.044
-74.524	494.169	-0.147	0.331
-73.509	-200.000	-0.090	0.408
-72.494	-200.000	-0.046	0.264
-71.480	17.632	0.182	0.142
-70.465	-65.768	0.273	-0.108
-69.451	-48.533	0.157	0.074
-68.436	71.450	-0.224	0.229
-67.422	504.978	0.079	0.181
-66.407	226.385	0.181	-0.288
-65.392	-79.780	0.271	-0.090
-64.378	-100.367	0.203	-0.049
-63.363	201.907	-0.160	0.242
-62.349	800.000	-0.058	-0.204
-61.334	508.563	-0.431	-0.984
-60.319	197.771	0.559	0.840
-59.305	98.203	-0.475	-0.538
-58.290	24.269	0.840	0.682
-57.276	743.871	0.525	1.389
-56.261	-200.000	100.893	589.243
-55.246	612.028	1421.133	3494.850
-54.232	182.231	2649.869	3839.013
-53.217	114.928	2315.130	2776.392
-52.203	44.321	1923.857	1736.028
-51.188	38.134	1708.716	1494.664
-50.173	35.241	1663.528	1433.484
-49.159	52.488	1714.580	1608.846
-48.144	55.738	1731.896	1649.684
-47.130	37.656	1686.221	1471.142
-46.115	34.727	1670.873	1435.719
-45.100	34.624	1666.146	1430.827
-44.086	34.559	1663.029	1427.608
-43.071	34.480	1660.731	1424.991
-42.057	34.524	1658.532	1423.376
-41.042	34.563	1656.476	1421.842
-40.027	34.609	1654.546	1420.476
-39.013	34.537	1652.498	1418.125
-37.998	34.518	1651.203	1416.815
-36.984	34.590	1649.303	1415.664
-35.969	34.672	1647.670	1414.818
-34.954	34.662	1646.254	1413.466
-33.940	34.728	1644.367	1412.279
-32.925	34.575	1643.098	1410.001
-31.911	34.673	1640.889	1408.777
-30.896	34.624	1639.545	1407.201
-29.881	34.655	1637.555	1405.670
-28.867	34.613	1636.572	1404.462
-27.852	34.680	1634.771	1403.350
-26.838	34.666	1633.009	1401.679
-25.823	34.759	1631.112	1400.679
-24.809	34.695	1630.310	1399.461
-23.794	34.810	1628.672	1398.844
-22.779	34.734	1627.437	1397.171
-21.765	34.655	1625.847	1395.175
-20.750	34.716	1623.875	1393.873
-19.736	34.675	1622.571	1392.396
-18.721	34.717	1620.495	1390.866
-17.706	34.800	1619.134	1390.246
-16.692	34.738	1617.648	1388.465
-15.677	34.787	1616.233	1387.551
-14.663	34.747	1615.230	1386.348
-13.648	34.713	1613.710	1384.738
-12.633	34.663	1612.289	1383.100
-11.619	34.683	1610.452	1381.617
-10.604	34.687	1609.164	1380.486
-9.590	34.770	1607.418	1379.530
-8.575	34.725	1606.550	1378.407
-7.560	34.776	1605.298	1377.644
-6.546	34.782	1603.822	1376.367
-5.531	34.798	1602.924	1375.658
-4.517	34.665	1602.299	1374.109
-3.502	34.711	1600.813	1373.113
-2.487	34.797	1599.025	1372.141
-1.473	34.205	1587.260	1357.772
-0.458	30.893	1565.585	1315.828
0.556	24.170	1564.530	1277.207
1.571	21.482	1587.983	1276.648
2.586	20.964	1600.929	1283.132
3.600	19.008	1549.499	1227.854
4.615	10.361	1437.776	1081.707
5.629	1.491	1369.763	973.815
6.644	-0.271	1360.560	955.964
7.659	-0.417	1359.086	953.916
8.673	-0.491	1358.064	952.643
9.688	-0.540	1356.291	951.007
10.702	-0.672	1353.311	947.999
11.717	2.571	1359.776	973.063
12.731	11.653	1377.218	1043.667
13.746	17.968	1387.384	1091.772
14.761	18.495	1387.177	1094.880
15.775	18.507	1386.528	1094.348
16.790	18.541	1386.229	1094.228
17.804	18.619	1385.571	1094.111
18.819	18.904	1385.440	1095.730
19.834	18.886	1384.770	1094.986
20.848	18.877	1383.388	1093.740
21.863	18.988	1382.753	1093.849
22.877	18.975	1381.623	1092.775
23.892	18.891	1381.097	1091.724
24.907	18.915	1380.123	1091.014
25.921	18.984	1379.222	1090.639
26.936	18.949	1378.187	1089.505
27.950	18.916	1377.111	1088.349
28.965	18.908	1375.776	1087.145
29.980	18.974	1374.620	1086.557
30.994	19.013	1372.885	1085.335
32.009	18.871	1372.215	1083.809
33.023	18.977	1370.828	1083.287
34.038	18.940	1369.835	1082.175
35.053	18.944	1369.300	1081.683
36.067	18.939	1367.751	1080.333
37.082	18.863	1366.904	1079.086
38.096	18.860	1366.263	1078.467
39.111	18.948	1365.328	1078.188
40.126	18.856	1364.627	1076.964
41.140	18.904	1363.855	1076.557
42.155	18.993	1363.413	1076.669
43.169	18.900	1363.782	1076.286
44.184	18.884	1363.172	1075.606
45.199	18.860	1362.857	1075.115
46.213	18.970	1362.127	1075.132
47.228	18.997	1360.919	1074.248
48.242	18.980	1359.517	1072.943
49.257	18.883	1358.576	1071.503
50.271	18.951	1356.833	1070.456
51.286	18.849	1355.702	1068.836
52.301	18.898	1354.630	1068.196
53.315	18.951	1353.486	1067.527
54.330	18.946	1352.968	1066.993
55.344	18.901	1351.558	1065.510
56.359	18.912	1350.208	1064.417
57.374	18.966	1349.821	1064.353
58.388	18.940	1348.934	1063.399
59.403	18.842	1349.470	1063.125
60.417	18.863	1348.276	1062.215
61.432	18.951	1347.251	1061.858
62.447	18.984	1345.614	1060.682
63.461	18.893	1345.414	1059.864
64.476	18.919	1344.463	1059.186
65.490	18.905	1343.171	1057.989
66.505	18.978	1341.289	1056.858
67.520	18.938	1340.363	1055.790
68.534	18.935	1339.179	1054.745
69.549	18.969	1338.183	1054.079
70.563	18.907	1337.391	1052.982
71.578	18.970	1336.088	1052.245
72.593	18.845	1335.736	1051.113
73.607	18.936	1334.695	1050.757
74.622	18.848	1334.025	1049.600
75.636	19.009	1332.861	1049.570
76.651	19.080	1332.170	1049.364
77.666	18.916	1331.889	1048.053
78.680	18.911	1331.117	1047.321
79.695	18.967	1330.091	1046.765
80.709	18.950	1329.508	1046.105
81.724	19.066	1328.111	1045.622
82.739	18.970	1327.091	1044.141
83.753	18.819	1326.646	1042.782
84.768	18.988	1325.155	1042.547
85.782	18.967	1323.813	1041.267
86.797	19.013	1322.588	1040.494
87.812	19.044	1321.289	1039.566
88.826	19.011	1320.449	1038.612
89.841	18.978	1319.767	1037.786
90.855	19.019	1318.145	1036.664
91.870	19.014	1317.645	1036.149
92.884	19.078	1316.592	1035.617
93.899	18.994	1315.792	1034.392
94.914	19.058	1314.744	1033.860
95.928	18.975	1314.344	1032.951
96.943	18.974	1313.405	1032.119
97.957	19.001	1312.862	1031.765
98.972	19.100	1311.405	1031.121
99.987	19.042	1310.885	1030.270
101.001	18.954	1309.445	1028.525
102.016	18.842	1308.540	1027.049
103.030	19.010	1307.615	1027.236
104.045	19.023	1306.293	1026.187
105.060	19.017	1305.732	1025.617
106.074	19.015	1304.366	1024.444
107.089	19.046	1303.221	1023.636
108.103	19.050	1302.237	1022.796
109.118	19.086	1301.136	1022.056
110.133	19.018	1299.805	1020.520
111.147	19.139	1298.143	1019.837
112.162	19.014	1297.159	1018.236
113.176	19.026	1296.217	1017.477
114.191	19.107	1294.984	1016.899
115.206	19.060	1294.168	1015.891
116.220	18.993	1292.889	1014.404
117.235	19.032	1291.846	1013.722
118.249	19.057	1290.932	1013.060
119.264	19.091	1289.675	1012.185
120.279	19.154	1288.792	1011.776
121.293	19.181	1287.750	1011.024
122.308	19.073	1287.109	1009.801
123.322	19.114	1285.718	1008.860
124.337	19.130	1285.101	1008.377
125.352	19.179	1283.417	1007.255
126.366	19.126	1282.704	1006.299
127.381	19.204	1281.442	1005.672
128.395	19.236	1280.680	1005.171
129.410	19.117	1280.043	1003.887
130.424	19.124	1279.291	1003.250
131.439	19.158	1277.953	1002.313
132.454	19.104	1277.129	1001.263
133.468	19.198	1276.095	1000.910
134.483	19.214	1275.483	1000.437
135.497	19.075	1274.926	999.102
136.512	19.053	1273.630	997.869
137.527	19.099	1272.454	997.124
138.541	19.166	1271.150	996.405
139.556	19.130	1269.602	994.895
140.570	19.092	1268.976	994.095
141.585	19.121	1267.126	992.728
142.600	18.994	1266.061	991.074
143.614	19.148	1265.290	991.271
144.629	19.105	1264.613	990.402
145.643	18.973	1263.586	988.752
146.658	19.109	1262.017	988.216
147.673	19.130	1261.033	987.478
148.687	19.010	1260.177	986.034
149.702	19.006	1259.020	985.019
150.716	19.019	1257.913	984.139
151.731	19.085	1256.895	983.634
152.746	19.062	1255.401	982.247
153.760	19.092	1254.707	981.785
154.775	19.122	1253.386	980.839
155.789	19.204	1252.438	980.476
156.804	19.039	1251.856	978.996
157.819	19.175	1250.718	978.792
158.833	19.097	1249.934	977.648
159.848	19.086	1248.976	976.751
160.862	19.134	1248.383	976.473
161.877	19.123	1247.324	975.496
162.892	19.270	1246.251	975.400
163.906	19.168	1245.802	974.386
164.921	19.165	1244.819	973.516
165.935	19.179	1244.227	973.046
166.950	19.203	1243.213	972.303
167.964	19.259	1242.613	972.065
168.979	19.204	1242.042	971.221
169.994	19.184	1241.787	970.823
171.008	19.131	1240.807	969.669
172.023	19.281	1239.931	969.744
173.037	19.227	1239.422	968.955
174.052	19.214	1238.570	968.132
175.067	19.260	1237.652	967.590
176.081	19.286	1236.743	966.935
177.096	19.169	1236.367	965.898
178.110	19.224	1235.038	965.087
179.125	19.298	1233.760	964.414
180.140	19.220	1232.843	963.180
181.154	19.147	1231.891	961.938
182.169	19.200	1230.749	961.261
183.183	19.226	1229.827	960.600
184.198	19.231	1229.035	959.926
185.213	19.236	1228.166	959.188
186.227	19.333	1227.189	958.877
187.242	19.283	1226.199	957.745
188.256	19.403	1224.707	957.159
189.271	19.360	1224.040	956.313
190.286	19.296	1223.575	955.510
191.300	19.349	1222.860	955.161
192.315	19.284	1222.416	954.371
193.329	19.226	1222.213	953.807
194.344	19.361	1221.623	954.012
195.359	19.244	1221.124	952.891
196.373	19.251	1220.124	952.061
197.388	19.270	1219.923	951.925
198.402	19.261	1219.900	951.775
199.417	19.328	1219.131	951.459
200.432	19.384	1218.413	951.123
201.446	19.228	1217.936	949.810
202.461	19.369	1216.920	949.708
203.475	19.285	1215.722	948.225
204.490	19.343	1214.945	947.855
205.504	19.300	1213.925	946.737
206.519	19.391	1212.935	946.385
207.534	19.445	1211.936	945.818
208.548	19.395	1210.967	944.700
209.563	19.312	1210.511	943.807
210.577	19.336	1209.630	943.167
211.592	19.396	1208.636	942.641
212.607	19.355	1208.157	941.959
213.621	19.367	1207.408	941.355
214.636	19.456	1206.202	940.818
215.650	19.359	1205.724	939.833
216.665	19.389	1204.802	939.197
217.680	19.518	1203.195	938.560
218.694	19.458	1202.630	937.710
219.709	19.389	1202.433	937.098
220.723	19.572	1201.602	937.360
221.738	19.403	1200.545	935.540
222.753	19.398	1199.871	934.903
223.767	19.392	1199.296	934.340
224.782	19.552	1198.837	934.767
225.796	19.419	1198.204	933.467
226.811	19.508	1197.565	933.368
227.826	19.453	1196.881	932.455
228.840	19.393	1196.328	931.618
229.855	19.528	1195.750	931.815
230.869	19.612	1194.823	931.467
231.884	19.548	1194.150	930.514
232.899	19.498	1193.779	929.871
233.913	19.523	1193.156	929.437
234.928	19.601	1192.250	929.071
235.942	19.790	1190.958	928.997
236.957	19.627	1190.703	927.842
237.972	19.637	1190.253	927.460
238.986	19.620	1189.455	926.668
240.001	19.597	1189.018	926.121
241.015	19.655	1188.429	925.891
242.030	19.576	1187.423	924.599
243.045	19.678	1186.656	924.467
244.059	19.675	1186.097	923.935
245.074	19.620	1185.409	923.024
246.088	19.700	1184.336	922.534
247.103	19.779	1183.259	922.034
248.117	19.696	1182.484	920.907
249.132	19.719	1182.166	920.698
250.147	19.658	1181.621	919.867
251.161	19.727	1180.867	919.566
252.176	19.776	1179.587	918.751
253.190	19.729	1179.336	918.222
254.205	19.712	1178.788	917.627
255.220	19.613	1178.116	916.495
256.234	19.819	1177.494	917.021
257.249	19.838	1176.815	916.514
258.263	19.630	1176.391	915.001
259.278	19.741	1176.160	915.326
260.293	19.714	1175.494	914.588
261.307	19.632	1175.060	913.735
262.322	19.856	1174.276	914.225
263.336	19.829	1173.384	913.310
264.351	19.850	1172.810	912.890
265.366	19.730	1172.240	911.735
266.380	19.827	1171.146	911.315
267.395	19.680	1170.889	910.260
268.409	19.739	1169.858	909.687
269.424	19.744	1169.942	909.698
270.439	19.816	1169.164	909.391
271.453	19.801	1168.594	908.791
272.468	19.752	1167.637	907.707
273.482	19.855	1166.807	907.523
274.497	19.923	1166.466	907.533
275.512	19.892	1165.974	906.906
276.526	19.874	1165.210	906.141
277.541	19.997	1164.622	906.246
278.555	19.922	1163.776	905.113
279.570	19.875	1163.356	904.465
280.585	19.910	1162.261	903.711
281.599	19.822	1161.610	902.669
282.614	19.780	1160.783	901.725
283.628	19.962	1159.410	901.531
284.643	19.897	1158.851	900.678
285.657	20.051	1157.701	900.503
286.672	20.010	1156.874	899.564
287.687	19.995	1156.139	898.838
288.701	20.084	1155.216	898.501
289.716	20.104	1154.824	898.219
290.730	19.999	1154.563	897.397
291.745	20.028	1153.576	896.699
292.760	19.997	1153.361	896.290
293.774	20.069	1152.206	895.686
294.789	20.090	1151.936	895.504
295.803	20.171	1150.928	895.061
296.818	20.200	1150.626	894.897
297.833	20.095	1149.615	893.491
298.847	20.150	1149.007	893.222
299.862	20.181	1147.773	892.346
300.876	20.193	1147.812	892.357
301.891	20.211	1147.016	891.753
302.906	20.274	1146.531	891.620
303.920	20.127	1146.045	890.405
304.935	20.152	1144.825	889.510
305.949	20.136	1144.604	889.178
306.964	20.182	1143.819	888.721
307.979	20.223	1143.207	888.379
308.993	20.280	1142.244	887.841
310.008	20.416	1141.583	887.945
311.022	20.180	1141.116	886.297
312.037	20.215	1140.534	885.949
313.052	20.234	1139.541	885.192
314.066	20.250	1138.556	884.432
315.081	20.211	1137.870	883.624
316.095	20.226	1137.156	883.067
317.110	20.311	1136.692	883.062
318.125	20.198	1136.399	882.181
319.139	20.370	1135.040	881.921
320.154	20.333	1134.727	881.412
321.168	20.310	1134.374	880.941
322.183	20.224	1133.651	879.868
323.197	20.153	1133.265	879.127
324.212	20.182	1132.230	878.397
325.227	20.224	1131.900	878.273
326.241	20.396	1131.271	878.579
327.256	20.371	1130.379	877.684
328.270	20.344	1129.456	876.751
329.285	20.386	1128.887	876.444
330.300	20.213	1128.522	875.212
331.314	20.409	1126.988	874.932
332.329	20.481	1126.590	874.907
333.343	20.476	1125.743	874.149
334.358	20.609	1124.278	873.600
335.373	20.448	1124.334	872.755
336.387	20.382	1123.851	871.974
337.402	20.441	1123.062	871.579
338.416	20.438	1122.480	871.036
339.431	20.439	1121.713	870.371
340.446	20.533	1120.977	870.193
341.460	20.569	1120.634	870.030
342.475	20.463	1119.489	868.534
343.489	20.454	1119.048	868.068
344.504	20.570	1117.712	867.533
345.519	20.501	1117.088	866.627
346.533	20.521	1116.173	865.944
347.548	20.546	1115.334	865.339
348.562	20.563	1114.798	864.932
349.577	20.589	1114.019	864.383
350.592	20.510	1113.569	863.560
351.606	20.598	1112.526	863.112
352.621	20.733	1112.063	863.349
353.635	20.669	1111.472	862.493
354.650	20.649	1110.889	861.867
355.665	20.644	1110.371	861.362
356.679	20.697	1109.753	861.072
357.694	20.668	1109.577	860.716
358.708	20.656	1108.497	859.740
359.723	20.676	1107.677	859.128
360.738	20.599	1107.127	858.244
361.752	20.702	1106.540	858.223
362.767	20.714	1105.965	857.762
363.781	20.733	1105.317	857.274
364.796	20.849	1104.945	857.481
365.810	20.760	1104.230	856.413
366.825	20.810	1103.590	856.087
367.840	20.808	1103.298	855.774
368.854	20.790	1102.834	855.248
369.869	20.815	1101.744	854.450
370.883	20.879	1100.911	854.047
371.898	20.840	1100.176	853.210
372.913	20.811	1099.707	852.628
373.927	20.807	1099.431	852.319
374.942	20.823	1098.948	851.944
375.956	20.858	1098.449	851.656
376.971	20.847	1097.907	851.105
377.986	20.868	1097.109	850.513
379.000	21.015	1096.481	850.667
380.015	20.894	1096.236	849.812
381.029	20.913	1095.317	849.121
382.044	20.885	1094.753	848.471
383.059	21.034	1093.884	848.445
384.073	20.945	1093.205	847.410
385.088	20.931	1092.400	846.645
386.102	21.064	1091.204	846.290
387.117	21.055	1090.174	845.369
388.132	20.966	1089.426	844.285
389.146	21.009	1089.012	844.099
390.161	21.081	1088.353	843.862
391.175	21.005	1087.903	843.069
392.190	21.008	1087.178	842.447
393.205	21.102	1086.043	841.949
394.219	20.999	1085.692	841.104
395.234	21.087	1085.026	840.937
396.248	21.190	1083.983	840.549
397.263	21.214	1082.428	839.387
398.278	21.233	1081.966	839.043
399.292	21.266	1081.627	838.868
400.307	21.166	1081.162	837.950
401.321	21.261	1080.074	837.489
402.336	21.170	1079.871	836.820
403.350	21.160	1079.309	836.265
404.365	21.292	1078.624	836.290
405.380	21.172	1077.948	835.120
406.394	21.220	1077.259	834.740
407.409	21.275	1076.423	834.280
408.423	21.293	1075.553	833.619
409.438	21.406	1074.334	833.141
410.453	21.318	1074.390	832.688
411.467	21.277	1073.476	831.711
412.482	21.425	1072.550	831.624
413.496	21.360	1071.736	830.612
414.511	21.413	1071.075	830.277
415.526	21.332	1070.869	829.661
416.540	21.411	1070.800	829.907
417.555	21.408	1070.196	829.351
418.569	21.310	1069.841	828.538
419.584	21.270	1069.273	827.837
420.599	21.381	1068.586	827.758
421.613	147.486	1395.826	1791.611
422.628	135.890	1443.489	1791.691
