DTS Sentinel unit serial number:	SN413079Multiplexer serial number:	ORYXHardware model number:	OX4-SRSoftware version number:	ORYX F/W v4.00 Oryx Data Collector v3.7.2.0data status	okinstallation	princeton_trtdifferential loss correction	single-endedforward channel	channel 2reverse channel	N/Adate	2019/09/14time	03:31:35forward acquisition time	60.00reverse acquisition time	0.00gamma	496.2192k internal	0.2337k external	0.2337temperature offset calibration	1.0122default loss term (dB/km)	0.3790temperature slope calibration	1.0000multiplexer offset coefficient	1.0000multiplexer slope coefficient	1.0000fibre end	0.00T internal ref (°C)	26.62T ext. ref 1 (°C)	3.28T ext. ref 2 (°C)	21.56length (m)	temperature (°C)	Stokes	anti-Stokes-747.200	356.777	-0.156	-0.312
-746.185	800.000	0.026	-0.096
-745.171	427.165	0.082	-0.177
-744.156	-107.772	-0.377	0.083
-743.142	722.366	-0.070	-0.188
-742.127	-200.000	-0.006	-0.122
-741.112	-124.448	0.206	0.032
-740.098	-200.000	-0.055	0.310
-739.083	136.915	-0.149	-0.195
-738.069	-30.046	-0.117	0.067
-737.054	-102.447	0.293	0.070
-736.039	154.485	0.074	-0.102
-735.025	-132.152	0.180	-0.023
-734.010	10.317	0.162	0.124
-732.996	-200.000	-0.052	-0.238
-731.981	-101.517	-0.378	-0.092
-730.966	114.050	0.192	-0.234
-729.952	800.000	0.160	0.595
-728.937	179.518	0.076	0.111
-727.923	-200.000	0.017	0.157
-726.908	800.000	-0.018	-0.054
-725.894	-88.606	0.124	0.037
-724.879	-103.946	0.083	0.019
-723.864	34.507	-0.219	0.192
-722.850	345.179	0.037	-0.074
-721.835	-200.000	0.030	-0.158
-720.821	164.439	-0.077	-0.109
-719.806	150.347	0.082	0.112
-718.791	-44.523	0.250	0.126
-717.777	9.151	-0.126	0.095
-716.762	586.306	0.128	-0.315
-715.748	-39.505	0.105	-0.055
-714.733	800.000	0.041	-0.155
-713.718	59.419	0.221	-0.219
-712.704	-149.049	-0.385	-0.031
-711.689	800.000	-0.054	0.205
-710.675	-40.596	-0.301	-0.157
-709.660	132.666	-0.072	-0.093
-708.645	106.268	0.168	-0.200
-707.631	-200.000	-0.018	-0.316
-706.616	479.463	0.093	-0.211
-705.602	40.229	0.092	0.083
-704.587	800.000	0.028	0.092
-703.572	-200.000	-0.017	-0.096
-702.558	230.032	0.054	0.088
-701.543	26.462	0.168	0.141
-700.529	145.915	0.187	0.251
-699.514	-65.676	-0.253	0.102
-698.499	-58.710	-0.149	0.065
-697.485	18.064	-0.299	-0.239
-696.470	-103.837	0.072	-0.017
-695.456	55.037	-0.163	-0.158
-694.441	195.654	0.115	0.175
-693.426	-200.000	-0.038	0.284
-692.412	-93.746	-0.054	-0.015
-691.397	-200.000	-0.002	-0.022
-690.383	-54.229	-0.353	-0.161
-689.368	800.000	0.074	-0.224
-688.354	84.836	-0.299	-0.328
-687.339	247.986	0.146	0.247
-686.324	29.297	0.182	-0.154
-685.310	74.921	-0.215	0.227
-684.295	-200.000	-0.037	-0.302
-683.281	800.000	-0.094	-0.302
-682.266	-200.000	-0.016	-0.277
-681.251	800.000	0.055	0.155
-680.237	800.000	-0.063	-0.206
-679.222	-165.611	0.100	0.004
-678.208	-200.000	-0.020	-0.365
-677.193	-200.000	-0.010	0.142
-676.178	800.000	-0.069	-0.211
-675.164	26.799	0.064	-0.054
-674.149	51.078	0.213	0.202
-673.135	800.000	-0.007	-0.021
-672.120	-200.000	0.022	-0.412
-671.105	-158.836	-0.391	-0.022
-670.091	-68.542	0.121	-0.047
-669.076	-200.000	-0.042	0.262
-668.062	-78.253	-0.335	-0.115
-667.047	-200.000	-0.023	-0.102
-666.032	73.774	0.276	0.290
-665.018	-25.110	0.155	-0.092
-664.003	161.739	-0.219	0.306
-662.989	-200.000	-0.006	-0.055
-661.974	800.000	-0.079	-0.325
-660.959	455.022	0.069	-0.154
-659.945	-32.772	0.204	0.114
-658.930	57.989	0.079	0.078
-657.916	-35.996	0.124	0.067
-656.901	-200.000	0.022	-0.116
-655.886	53.254	-0.145	-0.139
-654.872	-82.861	-0.268	0.087
-653.857	354.647	-0.048	-0.096
-652.843	14.441	0.170	-0.133
-651.828	-200.000	-0.170	0.000
-650.814	16.705	0.373	0.295
-649.799	800.000	0.135	-0.433
-648.784	-200.000	0.028	0.146
-647.770	-162.992	0.218	-0.011
-646.755	120.350	-0.227	0.282
-645.741	122.472	-0.073	0.092
-644.726	27.727	0.314	-0.264
-643.711	-165.577	-0.251	0.011
-642.697	-32.099	-0.216	-0.121
-641.682	221.505	-0.100	0.161
-640.668	-43.242	-0.138	-0.070
-639.653	800.000	-0.060	-0.234
-638.638	39.065	0.096	-0.086
-637.624	-127.004	0.191	0.028
-636.609	-200.000	-0.005	0.047
-635.595	266.636	0.148	0.259
-634.580	303.360	0.103	0.192
-633.565	-22.679	0.133	0.080
-632.551	-38.125	0.126	0.067
-631.536	800.000	0.041	0.119
-630.522	-111.604	-0.243	0.049
-629.507	-200.000	-0.038	0.200
-628.492	227.920	-0.084	-0.137
-627.478	-66.473	0.114	-0.045
-626.463	24.046	0.197	0.162
-625.449	-94.524	-0.084	0.023
-624.434	-200.000	0.015	-0.172
-623.419	736.619	-0.132	0.354
-622.405	52.256	0.238	0.227
-621.390	-39.583	-0.127	-0.067
-620.376	-64.190	-0.225	0.092
-619.361	-104.683	0.221	0.051
-618.346	-97.436	-0.077	-0.020
-617.332	-200.000	0.007	0.113
-616.317	-27.166	-0.186	0.108
-615.303	800.000	0.022	0.089
-614.288	-200.000	-0.053	-0.290
-613.273	800.000	0.100	-0.359
-612.259	-101.623	0.404	0.098
-611.244	73.365	0.064	-0.067
-610.230	202.748	0.105	0.162
-609.215	158.958	0.073	-0.101
-608.201	-119.119	0.098	-0.017
-607.186	-8.567	-0.075	-0.050
-606.171	173.164	-0.256	0.369
-605.157	44.164	0.147	0.135
-604.142	391.125	0.106	-0.220
-603.128	-150.856	0.232	-0.018
-602.113	-81.139	-0.220	0.073
-601.098	-35.847	-0.117	-0.063
-600.084	-200.000	0.005	-0.244
-599.069	-65.040	-0.057	-0.023
-598.055	9.233	0.282	0.213
-597.040	45.007	0.167	-0.153
-596.025	-109.100	-0.278	-0.059
-595.011	-200.000	0.055	0.348
-593.996	52.082	0.223	-0.212
-592.982	91.420	0.216	-0.242
-591.967	561.181	0.095	0.230
-590.952	596.272	-0.056	0.139
-589.938	190.625	-0.107	-0.160
-588.923	7.824	0.168	0.126
-587.909	529.676	-0.056	-0.132
-586.894	41.678	0.078	-0.071
-585.879	-4.186	0.303	0.209
-584.865	-106.614	-0.291	-0.065
-583.850	800.000	0.042	0.125
-582.836	-105.183	-0.113	-0.026
-581.821	-78.004	-0.068	0.023
-580.806	570.921	-0.057	0.138
-579.792	800.000	-0.040	0.129
-578.777	298.910	-0.118	-0.217
-577.763	196.063	-0.095	-0.144
-576.748	457.927	0.092	-0.204
-575.733	-154.665	-0.167	-0.011
-574.719	-120.005	0.110	0.019
-573.704	391.913	-0.100	0.208
-572.690	-200.000	0.006	-0.054
-571.675	-200.000	0.025	-0.120
-570.661	142.750	0.040	-0.053
-569.646	-39.870	-0.234	-0.122
-568.631	-125.916	0.063	-0.009
-567.617	-25.197	0.230	-0.136
-566.602	71.372	-0.190	0.197
-565.588	-94.250	0.147	-0.040
-564.573	-125.574	0.270	0.041
-563.558	-200.000	0.004	-0.129
-562.544	2.895	-0.220	0.159
-561.529	9.998	-0.016	-0.012
-560.515	-200.000	0.018	-0.181
-559.500	800.000	0.031	0.100
-558.485	-5.976	-0.125	-0.085
-557.471	-200.000	-0.096	-0.429
-556.456	-200.000	-0.007	-0.359
-555.442	-200.000	-0.010	0.074
-554.427	800.000	0.115	0.423
-553.412	-200.000	-0.002	0.114
-552.398	-200.000	-0.020	-0.163
-551.383	351.084	-0.174	0.343
-550.369	-15.319	-0.186	0.119
-549.354	6.863	0.112	0.083
-548.339	440.625	0.057	-0.124
-547.325	-200.000	-0.019	-0.198
-546.310	-200.000	0.037	0.186
-545.296	-63.347	0.401	-0.165
-544.281	73.834	0.238	-0.249
-543.266	100.572	-0.093	-0.108
-542.252	281.725	-0.265	-0.473
-541.237	77.395	0.212	0.225
-540.223	-74.489	-0.256	-0.092
-539.208	116.365	-0.111	-0.135
-538.193	29.007	-0.255	-0.216
-537.179	110.012	-0.089	0.106
-536.164	-69.147	-0.287	-0.110
-535.150	-133.677	0.243	-0.030
-534.135	188.837	-0.080	-0.120
-533.121	-183.364	0.260	0.005
-532.106	800.000	-0.021	-0.079
-531.091	-200.000	-0.022	-0.340
-530.077	49.116	0.265	0.248
-529.062	46.253	-0.056	-0.052
-528.048	-26.455	-0.192	0.112
-527.033	527.154	-0.184	-0.431
-526.018	-24.831	0.122	-0.072
-525.004	-126.406	-0.258	0.038
-523.989	-115.583	0.178	0.033
-522.975	800.000	-0.010	-0.042
-521.960	-200.000	-0.009	0.206
-520.945	43.769	0.103	-0.094
-519.931	-200.000	-0.021	-0.105
-518.916	-32.664	0.261	-0.145
-517.902	-200.000	-0.015	-0.178
-516.887	403.805	0.152	-0.318
-515.872	800.000	-0.036	-0.133
-514.858	800.000	-0.086	-0.267
-513.843	414.726	0.039	0.084
-512.829	-47.801	-0.168	-0.081
-511.814	13.258	-0.180	-0.139
-510.799	-200.000	-0.023	0.265
-509.785	57.751	-0.185	-0.180
-508.770	26.705	0.127	-0.106
-507.756	-200.000	0.066	0.334
-506.741	101.062	0.145	-0.167
-505.726	-139.823	-0.656	0.069
-504.712	-200.000	0.004	0.187
-503.697	-51.341	-0.116	-0.054
-502.683	-52.669	-0.318	0.146
-501.668	96.143	0.326	0.371
-500.653	39.191	0.095	0.085
-499.639	357.702	0.059	0.118
-498.624	800.000	-0.058	0.208
-497.610	-71.033	0.114	-0.043
-496.595	631.297	-0.167	-0.421
-495.581	-33.806	-0.144	0.079
-494.566	7.716	-0.080	-0.059
-493.551	800.000	0.031	-0.110
-492.537	-68.676	0.135	0.052
-491.522	800.000	-0.088	0.297
-490.508	-109.020	-0.238	0.050
-489.493	-120.880	0.195	0.033
-488.478	62.648	0.273	-0.271
-487.464	-200.000	0.034	0.265
-486.449	-200.000	0.007	0.184
-485.435	-200.000	0.057	0.504
-484.420	308.213	-0.129	0.239
-483.405	-85.283	-0.051	-0.016
-482.391	-10.209	0.115	0.076
-481.376	-24.298	-0.148	0.088
-480.362	-8.213	-0.159	0.106
-479.347	-107.561	-0.124	-0.027
-478.332	538.032	0.045	0.107
-477.318	141.392	-0.179	-0.235
-476.303	249.672	0.135	0.227
-475.289	-200.000	0.025	-0.179
-474.274	34.616	-0.226	-0.196
-473.259	272.815	0.155	-0.271
-472.245	-94.126	0.087	-0.024
-471.230	800.000	-0.078	0.317
-470.216	-82.536	0.209	0.067
-469.201	221.464	-0.150	0.240
-468.186	219.597	-0.078	-0.125
-467.172	-184.740	-0.312	-0.005
-466.157	-200.000	-0.038	-0.202
-465.143	-33.631	-0.374	-0.205
-464.128	618.346	0.083	-0.208
-463.113	800.000	0.050	-0.193
-462.099	-51.963	-0.133	0.061
-461.084	171.277	-0.183	-0.260
-460.070	15.368	-0.074	-0.058
-459.055	-200.000	-0.012	-0.061
-458.040	800.000	0.054	-0.194
-457.026	487.919	-0.066	-0.151
-456.011	30.405	0.089	-0.075
-454.997	-15.389	-0.425	-0.269
-453.982	-21.111	0.336	-0.204
-452.968	800.000	0.032	-0.125
-451.953	92.603	-0.262	0.293
-450.938	-82.549	0.268	0.086
-449.924	183.058	-0.125	-0.183
-448.909	-122.725	-0.259	-0.042
-447.895	422.261	0.058	0.124
-446.880	191.879	0.038	-0.057
-445.865	202.625	-0.045	0.069
-444.851	-182.036	-0.416	0.008
-443.836	70.110	-0.176	-0.180
-442.822	162.285	0.193	0.268
-441.807	124.383	0.301	0.375
-440.792	149.645	0.137	-0.184
-439.778	-91.049	0.143	-0.041
-438.763	-107.204	0.141	-0.031
-437.749	-102.434	0.076	0.018
-436.734	164.651	0.260	0.364
-435.719	-10.103	0.117	0.077
-434.705	2.325	0.172	-0.124
-433.690	225.120	0.123	0.197
-432.676	169.894	0.121	-0.172
-431.661	-113.460	0.205	-0.040
-430.646	-200.000	0.045	0.284
-429.632	800.000	-0.103	-0.365
-428.617	60.599	-0.182	-0.179
-427.603	-51.462	0.093	-0.043
-426.588	-200.000	-0.044	0.218
-425.573	-200.000	0.015	-0.093
-424.559	0.415	-0.120	-0.085
-423.544	-200.000	0.084	0.465
-422.530	-90.606	-0.052	0.015
-421.515	75.688	0.204	0.214
-420.500	-27.305	0.040	-0.023
-419.486	-107.588	-0.148	-0.032
-418.471	90.244	-0.233	-0.258
-417.457	-111.585	-0.225	0.045
-416.442	-200.000	0.006	-0.123
-415.428	33.931	0.221	0.190
-414.413	69.417	-0.120	-0.123
-413.398	-200.000	-0.004	-0.175
-412.384	-200.000	0.011	0.122
-411.369	-71.253	-0.093	0.035
-410.355	-2.794	0.139	-0.096
-409.340	-75.368	-0.045	-0.016
-408.325	-121.704	-0.097	-0.016
-407.311	-113.646	-0.220	0.043
-406.296	578.193	-0.043	-0.105
-405.282	210.739	-0.010	0.015
-404.267	-122.577	0.113	-0.018
-403.252	-61.960	0.123	0.051
-402.238	-200.000	0.031	-0.333
-401.223	-194.244	-0.283	0.002
-400.209	-174.416	-0.038	-0.001
-399.194	-121.392	0.200	-0.033
-398.179	132.539	-0.244	-0.312
-397.165	164.080	-0.103	0.144
-396.150	-99.183	0.305	0.076
-395.136	179.855	0.202	0.292
-394.121	4.622	-0.268	-0.195
-393.106	-79.709	-0.202	0.068
-392.092	-2.211	0.239	-0.166
-391.077	20.744	0.277	-0.222
-390.063	-153.165	-0.086	-0.006
-389.048	800.000	-0.029	-0.099
-388.033	-200.000	-0.007	0.234
-387.019	124.291	-0.157	-0.195
-386.004	-103.200	-0.194	-0.045
-384.990	203.581	-0.163	-0.249
-383.975	91.205	-0.136	0.151
-382.960	-200.000	0.008	0.340
-381.946	800.000	0.055	0.196
-380.931	279.082	-0.139	0.245
-379.917	800.000	0.057	-0.212
-378.902	-85.631	-0.068	0.021
-377.888	24.023	0.275	-0.225
-376.873	-134.465	0.029	0.003
-375.858	-200.000	-0.026	0.137
-374.844	591.781	-0.043	-0.104
-373.829	-200.000	-0.073	0.453
-372.815	-35.976	0.058	0.031
-371.800	40.464	-0.058	0.051
-370.785	-200.000	-0.021	-0.167
-369.771	-13.107	-0.158	0.101
-368.756	16.243	-0.224	0.175
-367.742	-112.662	0.067	-0.013
-366.727	-56.996	0.125	-0.055
-365.712	206.851	0.094	-0.145
-364.698	-200.000	-0.103	-0.000
-363.683	591.675	-0.076	-0.185
-362.669	414.355	-0.038	0.079
-361.654	-128.140	-0.269	-0.038
-360.639	-18.803	0.225	0.139
-359.625	800.000	0.062	0.193
-358.610	198.797	0.231	0.349
-357.596	-146.972	-0.059	0.005
-356.581	-200.000	0.045	-0.348
-355.566	800.000	0.009	-0.034
-354.552	800.000	-0.075	-0.255
-353.537	170.103	0.057	0.080
-352.523	-137.516	-0.266	-0.030
-351.508	-200.000	-0.006	-0.117
-350.493	168.701	0.080	0.112
-349.479	-47.279	-0.157	-0.076
-348.464	294.223	-0.168	0.303
-347.450	457.150	-0.067	0.147
-346.435	-66.476	0.164	0.065
-345.420	-200.000	0.078	0.367
-344.406	-51.235	0.077	0.036
-343.391	-71.013	0.219	-0.082
-342.377	-49.922	0.314	0.147
-341.362	97.747	0.162	0.184
-340.348	252.704	0.032	0.054
-339.333	-200.000	-0.074	-0.325
-338.318	-93.655	-0.234	-0.064
-337.304	-75.067	0.009	0.003
-336.289	36.549	0.211	-0.184
-335.275	-98.294	-0.282	0.071
-334.260	-19.040	0.078	-0.048
-333.245	-200.000	0.060	0.283
-332.231	-168.214	-0.417	-0.016
-331.216	43.644	0.150	0.136
-330.202	-138.682	0.237	-0.026
-329.187	-108.517	-0.209	-0.044
-328.172	166.320	-0.063	-0.088
-327.158	-5.771	-0.201	-0.136
-326.143	-127.098	-0.037	-0.005
-325.129	-104.777	-0.192	0.044
-324.114	-200.000	-0.013	0.109
-323.099	576.212	0.086	-0.207
-322.085	-18.832	-0.175	-0.107
-321.070	-34.488	0.275	0.149
-320.056	800.000	0.018	0.069
-319.041	170.059	0.105	-0.148
-318.026	-20.193	-0.247	-0.150
-317.012	30.464	-0.119	-0.101
-315.997	157.375	0.080	-0.109
-314.983	8.701	-0.087	-0.065
-313.968	103.123	-0.129	-0.150
-312.953	451.403	-0.093	-0.203
-311.939	-200.000	0.009	-0.090
-310.924	-54.038	0.203	0.091
-309.910	268.833	-0.128	0.222
-308.895	-125.802	-0.220	-0.033
-307.880	15.660	0.235	0.183
-306.866	800.000	-0.100	-0.426
-305.851	800.000	0.040	0.162
-304.837	-200.000	-0.032	0.283
-303.822	57.877	0.081	0.079
-302.807	-86.086	-0.196	-0.060
-301.793	-55.970	-0.082	-0.036
-300.778	-98.599	0.227	-0.057
-299.764	-200.000	0.019	-0.120
-298.749	-200.000	-0.008	0.085
-297.735	498.584	-0.114	0.259
-296.720	420.028	-0.095	-0.201
-295.705	-100.775	0.156	0.038
-294.691	-20.689	0.336	0.204
-293.676	-108.608	-0.254	-0.054
-292.662	285.137	0.078	0.139
-291.647	-200.000	-0.051	-0.455
-290.632	-55.799	-0.187	0.083
-289.618	-146.856	-0.343	-0.029
-288.603	-197.097	0.430	-0.003
-287.589	-200.000	-0.011	-0.415
-286.574	24.108	-0.104	0.085
-285.559	-194.111	-0.190	0.002
-284.545	-157.538	-0.147	-0.009
-283.530	-22.462	-0.221	-0.132
-282.516	-52.832	0.393	-0.179
-281.501	122.380	0.173	-0.214
-280.486	-51.824	0.207	0.095
-279.472	417.825	0.046	0.097
-278.457	368.220	0.092	-0.184
-277.443	344.821	-0.071	-0.137
-276.428	431.215	-0.037	0.079
-275.413	800.000	-0.065	0.228
-274.399	111.341	-0.086	0.102
-273.384	-200.000	-0.038	-0.220
-272.370	-91.384	0.268	-0.075
-271.355	331.713	0.057	0.109
-270.340	598.187	-0.090	0.220
-269.326	310.181	-0.083	-0.153
-268.311	76.189	-0.246	0.256
-267.297	-2.764	0.300	0.207
-266.282	262.121	0.145	0.248
-265.267	-84.201	-0.097	-0.030
-264.253	-132.683	0.094	0.012
-263.238	-173.875	0.150	0.004
-262.224	114.342	0.188	-0.225
-261.209	0.263	-0.097	-0.068
-260.195	335.575	0.151	-0.289
-259.180	374.402	0.124	0.248
-258.165	40.820	0.191	0.170
-257.151	-200.000	-0.028	-0.159
-256.136	-114.898	-0.139	0.026
-255.122	-157.568	-0.223	-0.013
-254.107	399.389	0.050	-0.103
-253.092	800.000	0.021	-0.087
-252.078	23.649	-0.206	0.167
-251.063	-26.952	0.151	-0.087
-250.049	800.000	0.049	0.149
-249.034	482.111	0.071	0.158
-248.019	129.200	-0.157	0.197
-247.005	-46.713	-0.106	-0.051
-245.990	178.849	0.222	-0.319
-244.976	-109.716	0.165	-0.034
-243.961	-9.767	-0.053	-0.035
-242.946	91.616	0.228	-0.253
-241.932	-138.153	0.261	0.029
-240.917	800.000	0.064	-0.241
-239.903	-74.590	-0.333	0.118
-238.888	-92.371	0.024	0.007
-237.873	-200.000	-0.012	-0.247
-236.859	-200.000	0.011	-0.106
-235.844	-66.286	0.189	0.074
-234.830	245.756	-0.027	-0.044
-233.815	-200.000	-0.106	0.508
-232.800	419.678	-0.058	-0.123
-231.786	297.287	0.149	-0.270
-230.771	-170.121	-0.138	-0.005
-229.757	173.736	-0.125	0.178
-228.742	0.301	-0.272	0.191
-227.727	-17.356	-0.117	0.072
-226.713	133.812	0.150	0.191
-225.698	800.000	-0.079	0.256
-224.684	-200.000	0.016	0.096
-223.669	-70.912	0.211	0.078
-222.655	166.190	0.024	-0.033
-221.640	-119.331	-0.212	0.036
-220.625	82.251	-0.234	0.250
-219.611	24.441	-0.135	0.110
-218.596	800.000	0.072	0.282
-217.582	-200.000	0.013	0.197
-216.567	-124.310	-0.152	-0.023
-215.552	-116.386	0.291	-0.053
-214.538	-159.495	0.109	0.006
-213.523	-200.000	-0.036	-0.308
-212.509	-200.000	-0.007	0.329
-211.494	144.525	0.211	-0.277
-210.479	-60.467	0.154	0.064
-209.465	277.055	0.068	0.119
-208.450	71.965	-0.232	-0.238
-207.436	-190.899	0.210	0.002
-206.421	41.538	-0.149	-0.132
-205.406	622.393	-0.093	-0.230
-204.392	280.946	0.095	0.168
-203.377	18.944	0.104	-0.082
-202.363	-200.000	-0.003	0.142
-201.348	-200.000	0.038	-0.178
-200.333	-124.002	-0.343	0.053
-199.319	372.569	-0.021	0.043
-198.304	-58.286	-0.221	0.095
-197.290	421.992	0.051	-0.108
-196.275	113.015	0.166	-0.198
-195.260	-161.065	-0.258	0.013
-194.246	-45.721	0.018	0.009
-193.231	218.292	0.101	-0.158
-192.217	-71.471	0.241	-0.089
-191.202	-117.094	0.224	-0.040
-190.187	800.000	-0.072	0.238
-189.173	-200.000	-0.061	0.279
-188.158	-177.860	0.254	0.006
-187.144	-5.548	0.029	-0.019
-186.129	-137.201	-0.304	0.034
-185.114	-47.560	-0.112	0.054
-184.100	-140.318	0.332	-0.034
-183.085	-149.699	0.216	-0.017
-182.071	-10.444	-0.130	-0.085
-181.056	-134.337	0.319	-0.038
-180.042	-200.000	-0.023	0.175
-179.027	116.569	0.223	0.269
-178.012	-24.370	0.048	0.028
-176.998	130.079	-0.209	-0.262
-175.983	800.000	-0.059	-0.227
-174.969	57.223	-0.172	-0.165
-173.954	348.555	-0.154	-0.299
-172.939	162.167	-0.190	0.261
-171.925	112.708	0.139	0.165
-170.910	-200.000	0.007	-0.080
-169.896	435.453	0.072	0.154
-168.881	-80.598	0.177	0.058
-167.866	-41.291	0.249	-0.126
-166.852	-66.591	0.315	-0.123
-165.837	313.847	-0.094	0.174
-164.823	523.722	0.022	-0.051
-163.808	-79.877	0.153	-0.051
-162.793	8.835	0.172	-0.127
-161.779	-26.179	-0.175	0.101
-160.764	-138.621	-0.214	-0.023
-159.750	228.379	-0.087	0.139
-158.735	-48.271	-0.246	0.117
-157.720	-27.626	0.310	0.177
-156.706	353.272	0.160	0.312
-155.691	340.725	0.072	0.138
-154.677	217.776	0.278	0.434
-153.662	-125.416	-0.362	0.054
-152.647	35.403	0.215	0.185
-151.633	-172.628	0.386	0.012
-150.618	20.986	-0.040	-0.032
-149.604	-71.010	0.160	-0.059
-148.589	-200.000	-0.017	0.250
-147.574	102.636	0.106	0.121
-146.560	-183.790	0.226	-0.004
-145.545	800.000	-0.071	0.283
-144.531	-41.688	0.159	-0.080
-143.516	-56.289	-0.111	0.048
-142.502	117.674	0.152	-0.184
-141.487	543.335	-0.129	0.301
-140.472	171.819	-0.100	0.140
-139.458	212.031	0.137	0.212
-138.443	-200.000	-0.027	0.141
-137.429	-200.000	-0.034	-0.196
-136.414	-129.603	-0.092	-0.013
-135.399	173.623	-0.052	0.073
-134.385	85.259	-0.151	-0.163
-133.370	-188.423	0.270	0.003
-132.356	-123.525	-0.155	-0.024
-131.341	88.744	0.180	0.196
-130.326	-26.900	0.048	0.028
-129.312	80.814	-0.085	-0.090
-128.297	-29.866	0.058	-0.032
-127.283	-200.000	-0.025	-0.111
-126.268	224.465	-0.210	-0.332
-125.253	49.056	-0.067	-0.062
-124.239	447.796	0.123	0.266
-123.224	-146.312	-0.110	-0.009
-122.210	493.789	-0.088	-0.198
-121.195	66.990	0.130	-0.130
-120.180	-143.149	-0.061	0.006
-119.166	-119.760	-0.116	-0.020
-118.151	238.093	0.140	-0.228
-117.137	-106.233	0.263	-0.058
-116.122	-171.710	0.177	-0.006
-115.107	-200.000	-0.051	0.307
-114.093	230.606	0.144	-0.231
-113.078	-200.000	0.041	-0.210
-112.064	-200.000	0.001	0.176
-111.049	679.097	-0.043	0.109
-110.034	-76.727	-0.120	0.041
-109.020	5.138	-0.368	-0.265
-108.005	387.988	0.056	0.113
-106.991	-82.521	0.292	-0.093
-105.976	-130.973	0.380	0.050
-104.962	134.807	-0.133	-0.169
-103.947	-65.019	-0.330	0.130
-102.932	800.000	0.077	0.302
-101.918	-39.445	-0.287	0.147
-100.903	223.103	-0.132	0.209
-99.889	-200.000	0.009	0.123
-98.874	800.000	0.092	-0.301
-97.859	276.800	0.085	0.148
-96.845	-47.055	0.365	0.174
-95.830	-200.000	0.040	0.219
-94.816	800.000	-0.091	0.310
-93.801	-200.000	-0.055	-0.278
-92.786	477.945	0.104	0.231
-91.772	-121.913	-0.193	-0.031
-90.757	31.621	0.244	-0.205
-89.743	800.000	0.069	-0.189
-88.728	292.752	-0.043	0.076
-87.713	-156.065	0.437	-0.027
-86.699	789.783	-0.052	-0.140
-85.684	-27.740	0.229	0.130
-84.670	50.284	0.313	0.290
-83.655	-94.981	-0.319	0.084
-82.640	-24.827	-0.074	-0.043
-81.626	-200.000	-0.040	0.365
-80.611	-200.000	0.024	0.122
-79.597	-43.831	0.066	0.032
-78.582	-38.878	0.373	0.192
-77.567	126.444	-0.209	0.259
-76.553	-200.000	-0.002	-0.103
-75.538	-49.191	0.212	-0.099
-74.524	130.580	0.055	0.069
-73.509	40.381	-0.109	-0.096
-72.494	-4.457	0.141	-0.095
-71.480	263.413	-0.227	-0.385
-70.465	-200.000	-0.076	0.400
-69.451	-142.398	-0.138	-0.013
-68.436	433.204	-0.033	0.069
-67.422	-20.616	-0.064	0.038
-66.407	-200.000	-0.077	0.395
-65.392	-42.237	0.264	0.132
-64.378	242.208	0.054	0.088
-63.363	-134.001	0.203	-0.025
-62.349	-200.000	0.014	0.219
-61.334	206.049	-0.634	-0.964
-60.319	137.416	0.570	0.729
-59.305	446.430	-0.499	-1.072
-58.290	132.019	0.993	1.250
-57.276	679.464	0.417	1.060
-56.261	-200.000	116.221	649.056
-55.246	513.876	1537.546	3504.746
-54.232	174.354	2720.033	3842.700
-53.217	100.037	2300.313	2605.734
-52.203	35.788	1905.898	1637.310
-51.188	29.744	1696.588	1411.469
-50.173	27.279	1654.847	1358.308
-49.159	48.060	1711.905	1563.546
-48.144	46.605	1725.599	1564.952
-47.130	29.301	1683.102	1396.671
-46.115	26.775	1668.143	1365.208
-45.100	26.534	1663.861	1359.837
-44.086	26.531	1661.058	1357.471
-43.071	26.526	1658.543	1355.320
-42.057	26.375	1656.402	1352.392
-41.042	26.534	1654.060	1351.616
-40.027	26.529	1652.103	1349.926
-39.013	26.503	1650.224	1348.141
-37.998	26.447	1648.660	1346.395
-36.984	26.460	1647.319	1345.340
-35.969	26.619	1645.842	1345.258
-34.954	26.683	1643.841	1344.044
-33.940	26.590	1642.213	1341.978
-32.925	26.609	1640.651	1340.786
-31.911	26.554	1639.355	1339.269
-30.896	26.616	1637.609	1338.244
-29.881	26.685	1635.585	1337.047
-28.867	26.668	1634.443	1335.932
-27.852	26.584	1632.920	1334.020
-26.838	26.691	1631.222	1333.364
-25.823	26.525	1630.311	1331.344
-24.809	26.715	1628.160	1330.934
-23.794	26.567	1627.423	1329.189
-22.779	26.685	1625.903	1328.764
-21.765	26.648	1623.920	1326.817
-20.750	26.603	1622.091	1324.939
-19.736	26.567	1621.305	1323.986
-18.721	26.648	1619.890	1323.367
-17.706	26.628	1618.189	1321.781
-16.692	26.657	1616.800	1320.803
-15.677	26.681	1615.274	1319.681
-14.663	26.676	1613.835	1318.415
-13.648	26.655	1612.529	1317.145
-12.633	26.712	1610.882	1316.158
-11.619	26.683	1609.210	1314.530
-10.604	26.653	1608.195	1313.432
-9.590	26.653	1606.424	1311.934
-8.575	26.666	1605.600	1311.306
-7.560	26.826	1603.689	1310.848
-6.546	26.726	1602.676	1309.246
-5.531	26.614	1602.195	1307.994
-4.517	26.656	1600.593	1306.930
-3.502	26.630	1599.870	1306.107
-2.487	26.726	1598.025	1305.239
-1.473	26.390	1585.870	1292.857
-0.458	23.626	1566.831	1257.727
0.556	20.983	1569.167	1227.765
1.571	18.764	1593.231	1230.596
2.586	18.392	1605.984	1237.652
3.600	16.221	1550.410	1179.559
4.615	9.488	1442.860	1053.701
5.629	4.084	1383.894	976.549
6.644	3.306	1376.998	966.717
7.659	3.179	1375.273	964.623
8.673	3.327	1373.998	964.572
9.688	3.288	1372.226	963.001
10.702	3.235	1369.308	960.532
11.717	5.768	1374.032	979.609
12.731	12.832	1387.333	1033.429
13.746	18.888	1397.286	1078.885
14.761	20.239	1398.288	1088.041
15.775	19.647	1396.326	1082.708
16.790	18.596	1394.002	1074.237
17.804	17.825	1391.769	1067.595
18.819	17.468	1390.548	1064.335
19.834	17.294	1389.090	1062.038
20.848	17.169	1388.069	1060.385
21.863	16.914	1386.746	1057.688
22.877	16.734	1385.888	1055.813
23.892	16.761	1384.783	1055.047
24.907	16.652	1384.727	1054.236
25.921	16.816	1383.022	1053.865
26.936	16.778	1382.248	1052.944
27.950	16.672	1381.836	1051.880
28.965	16.934	1380.164	1052.137
29.980	17.044	1378.875	1051.746
30.994	16.992	1377.929	1050.608
32.009	17.232	1376.694	1051.059
33.023	17.112	1375.602	1049.391
34.038	16.988	1374.008	1047.317
35.053	16.995	1372.785	1046.334
36.067	16.900	1371.856	1044.945
37.082	16.964	1370.535	1044.240
38.096	16.969	1370.104	1043.851
39.111	17.095	1368.814	1043.549
40.126	16.867	1368.314	1041.676
41.140	16.651	1367.355	1039.529
42.155	16.641	1366.384	1038.635
43.169	16.507	1366.460	1037.781
44.184	16.657	1365.870	1038.161
45.199	16.674	1365.294	1037.736
46.213	16.728	1364.901	1037.674
47.228	17.004	1364.263	1038.791
48.242	16.947	1363.378	1037.672
49.257	16.888	1361.631	1035.892
50.271	16.846	1360.179	1034.438
51.286	16.943	1358.538	1033.691
52.301	16.987	1357.449	1033.042
53.315	16.762	1356.535	1030.886
54.330	16.725	1355.457	1029.746
55.344	16.611	1354.371	1028.139
56.359	16.845	1352.831	1028.300
57.374	16.602	1352.514	1026.490
58.388	16.595	1351.324	1025.455
59.403	16.493	1351.132	1024.602
60.417	16.584	1350.365	1024.478
61.432	16.447	1349.425	1022.845
62.447	16.437	1348.311	1021.854
63.461	16.381	1347.137	1020.535
64.476	16.249	1346.353	1019.050
65.490	16.378	1345.093	1018.789
66.505	16.452	1343.483	1017.924
67.520	16.427	1342.084	1016.623
68.534	16.440	1341.315	1016.028
69.549	16.418	1340.314	1015.047
70.563	16.409	1338.952	1013.873
71.578	16.307	1338.240	1012.635
72.593	16.295	1337.126	1011.630
73.607	16.295	1336.303	1010.916
74.622	16.368	1335.491	1010.646
75.636	16.340	1334.852	1009.911
76.651	16.380	1333.944	1009.370
77.666	16.318	1333.765	1008.776
78.680	16.439	1333.319	1009.075
79.695	16.507	1332.067	1008.442
80.709	16.471	1331.950	1008.050
81.724	16.573	1331.072	1007.903
82.739	16.652	1330.065	1007.522
83.753	16.786	1329.458	1007.766
84.768	16.890	1328.207	1007.349
85.782	16.917	1327.514	1006.893
86.797	16.984	1326.365	1006.333
87.812	16.865	1324.936	1004.454
88.826	16.813	1323.567	1003.020
89.841	16.990	1322.456	1003.133
90.855	16.964	1322.131	1002.646
91.870	17.008	1320.804	1001.809
92.884	17.022	1320.080	1001.257
93.899	16.962	1319.420	1000.316
94.914	17.122	1318.541	1000.501
95.928	17.117	1317.466	999.567
96.943	17.046	1316.331	998.197
97.957	16.950	1315.606	996.998
98.972	17.045	1314.609	996.711
99.987	17.019	1313.917	995.947
101.001	17.102	1312.554	995.313
102.016	17.039	1311.433	994.002
103.030	17.051	1310.731	993.452
104.045	16.971	1309.930	992.290
105.060	16.904	1308.379	990.635
106.074	16.726	1306.841	988.346
107.089	16.527	1305.605	986.166
108.103	16.555	1304.022	985.046
109.118	16.554	1303.083	984.239
110.133	16.584	1301.909	983.440
111.147	16.562	1300.213	981.949
112.162	16.513	1299.030	980.685
113.176	16.530	1298.217	980.078
114.191	16.659	1297.113	979.909
115.206	16.578	1295.968	978.487
116.220	16.622	1294.513	977.558
117.235	16.726	1293.642	977.414
118.249	16.619	1292.670	975.973
119.264	16.572	1291.470	974.711
120.279	16.570	1290.050	973.543
121.293	16.494	1289.053	972.265
122.308	16.386	1288.026	970.785
123.322	16.429	1286.673	969.928
124.337	16.381	1286.001	969.060
125.352	16.484	1284.782	968.644
126.366	16.439	1283.580	967.395
127.381	16.322	1283.463	966.552
128.395	16.454	1281.511	965.748
129.410	16.384	1281.167	965.008
130.424	16.479	1280.406	964.891
131.439	16.498	1279.571	964.280
132.454	16.570	1278.307	963.653
133.468	16.573	1277.793	963.200
134.483	16.554	1277.213	962.569
135.497	16.617	1275.936	961.880
136.512	16.595	1274.930	960.910
137.527	16.653	1273.143	959.808
138.541	16.629	1271.928	958.673
139.556	16.657	1270.677	957.802
140.570	16.912	1269.668	958.398
141.585	16.834	1268.832	957.245
142.600	16.883	1268.095	956.879
143.614	17.058	1266.855	956.844
144.629	17.028	1265.784	955.781
145.643	17.069	1264.710	955.119
146.658	16.953	1263.440	953.422
147.673	16.863	1261.736	951.545
148.687	16.785	1260.629	950.186
149.702	16.638	1259.550	948.465
150.716	16.564	1258.360	947.075
151.731	16.695	1257.451	947.039
152.746	16.695	1256.009	945.867
153.760	16.721	1254.789	945.013
154.775	16.872	1253.858	945.070
155.789	16.932	1252.426	944.242
156.804	16.972	1251.679	943.815
157.819	16.997	1250.836	943.235
158.833	17.116	1249.820	943.049
159.848	17.216	1248.717	942.688
160.862	17.086	1248.037	941.369
161.877	16.919	1246.607	939.281
162.892	16.867	1245.482	938.063
163.906	16.824	1244.477	936.987
164.921	16.686	1244.026	935.803
165.935	16.768	1243.354	935.664
166.950	16.901	1242.797	935.897
167.964	17.050	1241.410	935.590
168.979	16.958	1240.944	934.648
169.994	16.919	1240.006	933.645
171.008	16.999	1239.175	933.376
172.023	17.083	1239.017	933.637
173.037	17.206	1237.910	933.396
174.052	17.013	1237.255	931.760
175.067	16.904	1236.034	930.159
176.081	16.797	1235.193	928.859
177.096	16.768	1233.894	927.640
178.110	16.818	1232.742	926.967
179.125	17.024	1231.272	926.908
180.140	16.980	1230.259	925.822
181.154	16.980	1229.224	924.962
182.169	17.109	1227.764	924.483
183.183	17.227	1226.601	924.164
184.198	17.128	1225.957	923.061
185.213	17.132	1224.744	922.087
186.227	17.223	1223.694	921.712
187.242	17.332	1222.523	921.337
188.256	17.323	1221.809	920.668
189.271	17.316	1220.853	919.830
190.286	17.166	1219.563	917.967
191.300	16.953	1218.559	915.976
192.315	16.769	1218.299	914.710
193.329	16.817	1217.275	914.114
194.344	16.920	1216.615	914.096
195.359	17.108	1215.906	914.494
196.373	17.123	1215.443	914.145
197.388	17.354	1214.759	914.792
198.402	17.440	1214.685	915.118
199.417	17.478	1213.858	914.617
200.432	17.554	1213.124	914.392
201.446	17.567	1212.742	914.096
202.461	17.632	1211.669	913.553
203.475	17.650	1210.776	912.898
204.490	17.520	1209.482	911.143
205.504	17.426	1207.547	909.103
206.519	17.317	1207.150	908.142
207.534	17.320	1205.722	907.001
208.548	17.381	1204.736	906.505
209.563	17.412	1203.972	906.016
210.577	17.383	1203.193	905.195
211.592	17.427	1202.465	904.802
212.607	17.552	1201.606	904.742
213.621	17.561	1200.639	903.980
214.636	17.553	1199.712	903.160
215.650	17.393	1198.896	901.616
216.665	17.595	1197.819	901.799
217.680	17.784	1196.881	902.008
218.694	17.767	1196.179	901.310
219.709	17.639	1195.693	900.189
220.723	17.748	1194.437	899.737
221.738	17.754	1193.780	899.197
222.753	17.678	1193.204	898.285
223.767	17.610	1192.657	897.434
224.782	17.928	1191.743	898.338
225.796	17.840	1191.532	897.639
226.811	17.832	1190.906	897.042
227.826	17.730	1190.135	895.847
228.840	17.677	1189.234	894.810
229.855	17.772	1188.015	894.313
230.869	17.685	1187.860	893.664
231.884	17.616	1187.051	892.614
232.899	17.620	1185.922	891.707
233.913	17.478	1185.336	890.443
234.928	17.556	1184.207	889.924
235.942	17.578	1183.510	889.439
236.957	17.636	1182.396	888.825
237.972	17.487	1182.433	887.997
238.986	17.450	1181.376	886.928
240.001	17.675	1180.310	887.222
241.015	17.689	1179.653	886.722
242.030	17.715	1178.882	886.201
243.045	17.730	1178.136	885.642
244.059	17.841	1176.899	885.205
245.074	17.823	1176.763	884.931
246.088	17.928	1175.878	884.733
247.103	17.917	1175.252	884.128
248.117	17.932	1174.802	883.789
249.132	18.162	1173.942	884.252
250.147	18.215	1173.652	884.228
251.161	18.355	1173.056	884.425
252.176	18.428	1171.886	883.840
253.190	18.516	1171.413	883.858
254.205	18.592	1170.776	883.695
255.220	18.488	1170.186	882.636
256.234	18.541	1169.487	882.300
257.249	18.588	1168.697	881.867
258.263	18.423	1168.198	880.568
259.278	18.505	1167.259	880.199
260.293	18.505	1167.343	880.188
261.307	18.499	1166.722	879.609
262.322	18.530	1165.993	879.140
263.336	18.577	1165.094	878.627
264.351	18.625	1164.388	878.264
265.366	18.718	1163.702	878.144
266.380	18.576	1162.896	876.733
267.395	18.575	1162.233	876.148
268.409	18.467	1161.437	874.918
269.424	18.533	1160.742	874.655
270.439	18.457	1160.132	873.732
271.453	18.491	1158.975	872.957
272.468	18.496	1158.238	872.348
273.482	18.314	1157.619	870.881
274.497	18.417	1157.019	870.873
275.512	18.455	1156.347	870.483
276.526	18.494	1155.345	869.850
277.541	18.493	1154.620	869.223
278.555	18.420	1154.307	868.539
279.570	18.680	1153.569	869.228
280.585	18.791	1152.808	869.137
281.599	18.803	1151.732	868.311
282.614	18.599	1150.787	866.492
283.628	18.547	1149.838	865.437
284.643	18.590	1148.793	864.790
285.657	18.646	1147.866	864.299
286.672	18.634	1147.107	863.591
287.687	18.635	1146.177	862.817
288.701	18.609	1145.186	861.865
289.716	18.587	1144.763	861.360
290.730	18.690	1143.825	861.094
291.745	18.620	1143.159	860.167
292.760	18.838	1142.456	860.653
293.774	18.862	1142.176	860.488
294.789	18.956	1141.647	860.483
295.803	18.880	1140.832	859.410
296.818	18.749	1140.467	858.408
297.833	18.694	1138.976	856.935
298.847	18.838	1138.206	856.999
299.862	18.673	1138.009	855.951
300.876	18.746	1137.390	855.771
301.891	18.911	1136.779	856.060
302.906	18.888	1135.919	855.219
303.920	18.988	1135.163	855.074
304.935	19.125	1134.637	855.282
305.949	19.260	1133.887	855.308
306.964	19.318	1132.918	854.789
307.979	19.036	1132.290	852.842
308.993	19.120	1131.476	852.571
310.008	19.049	1130.775	851.619
311.022	19.157	1129.990	851.483
312.037	19.196	1129.335	851.108
313.052	19.001	1128.179	849.201
314.066	18.960	1127.152	848.150
315.081	18.972	1126.054	847.304
316.095	18.855	1125.284	846.074
317.110	18.789	1124.952	845.429
318.125	18.839	1124.102	844.959
319.139	18.875	1123.464	844.581
320.154	18.981	1122.141	844.033
321.168	18.905	1122.097	843.551
322.183	18.887	1121.511	842.946
323.197	18.973	1121.193	843.055
324.212	18.944	1120.339	842.197
325.227	19.012	1119.780	842.036
326.241	19.021	1119.046	841.453
327.256	18.933	1118.378	840.447
328.270	19.053	1116.980	839.906
329.285	18.974	1116.127	838.807
330.300	18.950	1115.501	838.144
331.314	18.932	1114.719	837.397
332.329	19.084	1113.447	837.106
333.343	18.976	1112.789	836.009
334.358	19.091	1112.173	836.034
335.373	19.105	1111.787	835.735
336.387	19.221	1110.903	835.559
337.402	19.272	1109.828	834.924
338.416	19.362	1109.175	834.794
339.431	19.297	1108.723	834.065
340.446	19.362	1108.378	834.047
341.460	19.467	1107.674	833.952
342.475	19.456	1106.737	833.120
343.489	19.511	1106.036	832.785
344.504	19.684	1104.662	832.508
345.519	19.762	1104.299	832.539
346.533	19.715	1103.308	831.488
347.548	19.800	1102.754	831.407
348.562	19.672	1101.461	829.747
349.577	19.540	1100.599	828.388
350.592	19.529	1099.662	827.556
351.606	19.390	1099.300	826.547
352.621	19.365	1098.662	825.874
353.635	19.405	1097.528	825.140
354.650	19.452	1096.864	824.794
355.665	19.466	1096.456	824.478
356.679	19.532	1095.768	824.205
357.694	19.510	1095.397	823.746
358.708	19.593	1094.845	823.657
359.723	19.575	1093.977	822.842
360.738	19.569	1093.468	822.359
361.752	19.606	1092.705	821.888
362.767	19.736	1092.487	822.271
363.781	19.721	1091.744	821.565
364.796	19.732	1091.092	821.054
365.810	19.803	1091.113	821.334
366.825	19.987	1090.168	821.425
367.840	20.052	1089.997	821.533
368.854	20.121	1088.704	820.811
369.869	19.977	1088.421	819.844
370.883	20.035	1086.963	818.947
371.898	19.870	1086.555	817.785
372.913	19.887	1085.821	817.242
373.927	20.046	1085.484	817.667
374.942	20.090	1084.706	817.215
375.956	19.959	1084.401	816.296
376.971	19.949	1083.676	815.632
377.986	20.070	1083.622	816.091
379.000	20.186	1082.927	816.041
380.015	20.145	1082.355	815.345
381.029	20.266	1080.987	814.807
382.044	20.310	1080.407	814.508
383.059	20.244	1080.231	813.990
384.073	20.180	1079.253	812.883
385.088	20.156	1078.072	811.810
386.102	20.327	1077.034	811.754
387.117	20.213	1076.147	810.480
388.132	19.983	1075.120	808.562
389.146	20.044	1074.407	808.241
390.161	20.102	1073.526	807.776
391.175	19.959	1073.032	806.669
392.190	20.209	1072.297	807.206
393.205	20.201	1071.752	806.687
394.219	20.255	1071.032	806.327
395.234	20.139	1070.233	805.115
396.248	20.168	1068.693	804.019
397.263	20.242	1067.582	803.453
398.278	20.079	1067.182	802.325
399.292	20.035	1066.605	801.620
400.307	19.919	1065.959	800.525
401.321	19.968	1065.302	800.189
402.336	19.961	1064.872	799.763
403.350	19.969	1063.964	799.044
404.365	20.128	1063.030	799.005
405.380	20.194	1062.085	798.532
406.394	20.149	1061.584	797.875
407.409	20.231	1061.046	797.777
408.423	20.337	1060.515	797.796
409.438	20.411	1059.857	797.568
410.453	20.453	1059.324	797.289
411.467	20.520	1058.423	796.849
412.482	20.498	1057.654	796.101
413.496	20.508	1057.104	795.661
414.511	20.581	1056.803	795.698
415.526	20.699	1056.514	795.950
416.540	20.852	1055.812	796.047
417.555	20.949	1054.910	795.739
418.569	20.634	1054.414	793.859
419.584	20.712	1054.066	793.881
420.599	20.624	1053.507	792.990
421.613	155.148	1404.589	1797.008
422.628	142.374	1455.727	1797.105
