DTS Sentinel unit serial number:	SN413079Multiplexer serial number:	ORYXHardware model number:	OX4-SRSoftware version number:	ORYX F/W v4.00 Oryx Data Collector v3.7.2.0data status	okinstallation	princeton_trtdifferential loss correction	single-endedforward channel	channel 2reverse channel	N/Adate	2019/09/14time	10:11:35forward acquisition time	60.00reverse acquisition time	0.00gamma	496.2192k internal	0.2317k external	0.2317temperature offset calibration	1.0132default loss term (dB/km)	0.3790temperature slope calibration	1.0000multiplexer offset coefficient	1.0000multiplexer slope coefficient	1.0000fibre end	0.00T internal ref (°C)	33.70T ext. ref 1 (°C)	4.07T ext. ref 2 (°C)	32.01length (m)	temperature (°C)	Stokes	anti-Stokes-747.200	-57.514	-0.293	0.130
-746.185	442.371	0.110	0.245
-745.171	301.329	0.073	0.136
-744.156	-4.685	0.076	-0.053
-743.142	800.000	-0.148	0.616
-742.127	-200.000	-0.031	0.785
-741.112	-174.289	0.093	-0.003
-740.098	-61.554	-0.157	-0.067
-739.083	246.690	0.118	-0.201
-738.069	32.223	-0.194	0.169
-737.054	-94.939	0.298	-0.082
-736.039	-112.139	-0.249	-0.051
-735.025	20.481	0.091	-0.075
-734.010	-118.133	-0.244	0.044
-732.996	-200.000	-0.046	-0.452
-731.981	83.145	-0.135	-0.149
-730.966	-115.519	-0.229	-0.044
-729.952	-30.531	-0.172	0.099
-728.937	60.820	-0.153	0.154
-727.923	-200.000	-0.001	0.061
-726.908	627.570	-0.039	-0.099
-725.894	-200.000	-0.002	-0.180
-724.879	-200.000	-0.005	0.177
-723.864	-70.840	-0.136	0.052
-722.850	-161.755	-0.134	0.007
-721.835	-200.000	0.028	-0.177
-720.821	-67.261	-0.185	0.073
-719.806	408.020	-0.163	-0.348
-718.791	-58.861	-0.241	0.105
-717.777	-22.422	-0.077	0.047
-716.762	800.000	0.068	-0.287
-715.748	108.953	0.213	-0.257
-714.733	792.169	-0.088	0.246
-713.718	165.400	-0.142	-0.203
-712.704	-109.100	-0.152	0.033
-711.689	325.417	-0.063	-0.122
-710.675	239.062	-0.112	0.188
-709.660	-159.018	0.203	-0.012
-708.645	-50.344	-0.190	0.091
-707.631	-33.809	-0.166	-0.093
-706.616	-60.610	-0.190	-0.082
-705.602	111.937	-0.017	-0.020
-704.587	101.772	-0.255	0.301
-703.572	387.712	-0.065	-0.136
-702.558	-145.075	-0.194	0.018
-701.543	47.655	-0.089	-0.084
-700.529	-60.180	0.272	-0.117
-699.514	-144.608	-0.379	0.035
-698.499	-200.000	-0.016	0.114
-697.485	82.611	-0.172	-0.189
-696.470	-173.825	-0.087	0.003
-695.456	-51.550	-0.239	0.113
-694.441	745.487	0.071	-0.193
-693.426	26.272	-0.197	-0.167
-692.412	-63.035	0.213	-0.089
-691.397	28.128	0.089	0.076
-690.383	-200.000	-0.001	0.051
-689.368	-200.000	-0.033	-0.208
-688.354	-33.037	0.196	-0.110
-687.339	371.875	0.133	0.274
-686.324	-25.933	0.133	0.079
-685.310	104.911	0.161	0.192
-684.295	196.512	-0.130	-0.200
-683.281	138.551	-0.153	0.202
-682.266	-200.000	0.031	0.292
-681.251	-29.371	-0.122	0.071
-680.237	-200.000	0.022	-0.099
-679.222	-16.844	0.185	-0.118
-678.208	-6.816	-0.144	-0.099
-677.193	-13.319	-0.090	0.059
-676.178	-200.000	0.013	-0.325
-675.164	-200.000	0.030	-0.309
-674.149	-200.000	-0.003	-0.138
-673.135	92.883	-0.061	-0.069
-672.120	-80.913	-0.094	0.032
-671.105	663.522	0.043	-0.113
-670.091	-24.041	0.148	0.089
-669.076	-88.566	0.049	0.015
-668.062	135.832	0.040	-0.053
-667.047	-200.000	0.015	0.679
-666.032	-11.094	-0.191	0.127
-665.018	193.935	0.043	-0.066
-664.003	-52.637	0.314	0.146
-662.989	319.182	0.191	0.365
-661.974	21.984	-0.093	-0.076
-660.959	562.982	0.093	-0.228
-659.945	-200.000	-0.030	-0.148
-658.930	-200.000	-0.023	-0.114
-657.916	-200.000	0.052	-0.326
-656.901	-200.000	0.058	-0.380
-655.886	-200.000	-0.009	0.140
-654.872	-162.063	0.440	-0.022
-653.857	800.000	0.043	0.132
-652.843	24.609	0.051	-0.043
-651.828	-20.832	-0.246	0.152
-650.814	800.000	-0.078	-0.268
-649.799	-148.582	0.098	-0.008
-648.784	-43.919	0.221	-0.112
-647.770	-200.000	-0.069	0.000
-646.755	308.377	-0.144	0.270
-645.741	92.564	0.138	-0.157
-644.726	-21.499	0.126	0.077
-643.711	-92.446	-0.151	0.043
-642.697	278.884	-0.109	0.195
-641.682	-60.246	0.056	0.024
-640.668	-200.000	0.017	0.145
-639.653	-200.000	-0.034	-0.245
-638.638	800.000	0.159	0.449
-637.624	-94.873	0.039	-0.011
-636.609	86.636	0.185	-0.206
-635.595	376.856	0.079	0.162
-634.580	177.982	0.103	0.151
-633.565	224.718	-0.170	-0.278
-632.551	-90.557	-0.181	0.053
-631.536	569.711	-0.090	0.220
-630.522	-186.184	-0.127	-0.002
-629.507	574.266	0.031	0.077
-628.492	57.514	0.096	0.094
-627.478	-99.546	0.194	-0.049
-626.463	800.000	0.064	0.209
-625.449	57.529	-0.259	-0.255
-624.434	669.430	-0.113	-0.295
-623.419	-200.000	0.026	0.201
-622.405	476.451	0.068	-0.155
-621.390	484.649	0.039	-0.091
-620.376	-44.294	0.089	-0.045
-619.361	-200.000	0.024	0.225
-618.346	-135.323	0.229	-0.028
-617.332	351.903	-0.015	-0.031
-616.317	148.410	-0.272	-0.370
-615.303	-120.524	0.284	-0.049
-614.288	-22.730	-0.279	-0.170
-613.273	-28.494	-0.089	-0.052
-612.259	499.607	-0.133	-0.310
-611.244	-30.730	0.122	-0.069
-610.230	-160.426	0.270	-0.015
-609.215	-18.698	-0.103	-0.064
-608.201	96.717	-0.294	0.339
-607.186	-200.000	-0.014	-0.217
-606.171	264.700	0.120	-0.210
-605.157	-76.156	0.146	-0.052
-604.142	26.223	-0.068	0.057
-603.128	50.896	0.151	0.144
-602.113	216.856	-0.034	-0.055
-601.098	172.220	0.140	0.203
-600.084	423.151	-0.063	-0.137
-599.069	-196.317	0.288	-0.002
-598.055	-200.000	0.039	-0.197
-597.040	517.663	0.049	-0.114
-596.025	800.000	0.038	0.143
-595.011	-155.640	0.169	0.011
-593.996	-53.287	0.264	0.122
-592.982	-74.037	-0.264	-0.096
-591.967	-200.000	0.005	-0.112
-590.952	-91.465	-0.057	0.016
-589.938	-88.656	-0.047	-0.014
-588.923	397.830	0.086	-0.182
-587.909	-200.000	0.016	0.208
-586.894	603.737	0.105	0.263
-585.879	-21.914	-0.253	0.155
-584.865	95.940	0.062	-0.071
-583.850	114.638	0.107	0.131
-582.836	800.000	-0.027	-0.077
-581.821	-110.731	0.150	0.031
-580.806	-96.232	0.136	-0.036
-579.792	10.889	0.131	-0.101
-578.777	231.789	0.086	-0.142
-577.763	135.016	0.164	0.214
-576.748	9.003	-0.214	-0.162
-575.733	149.728	0.081	-0.110
-574.719	39.046	0.127	0.115
-573.704	-86.239	0.061	0.019
-572.690	-108.407	0.042	0.009
-571.675	800.000	-0.084	-0.293
-570.661	-2.111	-0.130	-0.092
-569.646	-140.059	-0.174	0.018
-568.631	134.465	0.041	-0.054
-567.617	-43.848	-0.125	-0.063
-566.602	117.390	0.085	-0.106
-565.588	-79.009	-0.234	-0.080
-564.573	378.973	-0.098	-0.201
-563.558	-8.590	0.101	-0.068
-562.544	-200.000	0.029	-0.163
-561.529	-200.000	0.002	-0.462
-560.515	702.626	0.103	-0.272
-559.500	-74.619	0.131	-0.048
-558.485	166.028	0.069	-0.098
-557.471	-200.000	-0.005	-0.145
-556.456	119.487	0.165	0.205
-555.442	-80.173	0.265	-0.089
-554.427	-59.775	0.181	-0.078
-553.412	-40.084	-0.199	0.104
-552.398	733.911	-0.053	0.142
-551.383	579.063	-0.032	-0.078
-550.369	280.453	-0.189	-0.340
-549.354	800.000	0.135	0.420
-548.339	-93.208	0.319	-0.089
-547.325	-94.625	-0.147	-0.040
-546.310	800.000	0.082	-0.316
-545.296	-200.000	0.011	-0.198
-544.281	-200.000	-0.010	0.058
-543.266	-129.210	-0.278	0.039
-542.252	-21.851	-0.089	0.054
-541.237	-49.720	0.044	0.021
-540.223	784.089	-0.029	0.081
-539.208	-200.000	-0.016	-0.107
-538.193	-200.000	-0.040	-0.347
-537.179	800.000	-0.006	0.019
-536.164	-17.199	0.100	0.063
-535.150	20.533	0.276	0.224
-534.135	-3.793	-0.164	0.115
-533.121	-81.955	-0.070	-0.023
-532.106	-200.000	0.090	-0.397
-531.091	-200.000	0.047	0.237
-530.077	124.762	0.104	0.131
-529.062	-104.924	-0.140	0.032
-528.048	168.766	-0.127	-0.182
-527.033	-35.294	0.100	-0.054
-526.018	49.383	-0.228	0.215
-525.004	-117.445	0.078	-0.014
-523.989	-41.826	0.180	0.092
-522.975	226.107	0.108	-0.175
-521.960	-73.766	0.046	0.017
-520.945	800.000	-0.185	0.551
-519.931	800.000	0.105	0.341
-518.916	-76.928	-0.064	0.022
-517.902	-16.037	-0.108	0.069
-516.887	800.000	-0.054	-0.208
-515.872	8.219	-0.198	0.150
-514.858	-200.000	0.023	0.264
-513.843	17.119	-0.327	0.260
-512.829	-200.000	-0.000	-0.219
-511.814	-19.277	-0.153	-0.096
-510.799	800.000	-0.159	-0.659
-509.785	-200.000	0.068	0.437
-508.770	253.951	0.221	0.379
-507.756	274.198	-0.082	-0.145
-506.741	-11.632	0.132	0.087
-505.726	242.721	-0.107	-0.180
-504.712	-86.167	-0.150	0.046
-503.697	800.000	0.055	0.183
-502.683	1.298	0.243	-0.175
-501.668	15.466	-0.168	0.133
-500.653	-162.480	0.438	-0.022
-499.639	-13.458	0.069	-0.045
-498.624	-16.921	-0.230	0.146
-497.610	233.878	-0.071	0.117
-496.595	-200.000	0.020	-0.113
-495.581	-133.979	-0.244	-0.030
-494.566	-200.000	0.060	0.277
-493.551	-200.000	0.044	0.217
-492.537	800.000	-0.028	-0.117
-491.522	189.399	-0.111	-0.167
-490.508	-178.939	0.063	-0.001
-489.493	352.518	-0.169	0.337
-488.478	800.000	0.147	0.501
-487.464	185.114	0.101	0.150
-486.449	-200.000	-0.030	0.184
-485.435	-176.000	-0.181	-0.005
-484.420	-187.176	0.115	-0.002
-483.405	217.801	0.067	-0.108
-482.391	173.799	-0.148	0.214
-481.376	25.403	-0.037	-0.031
-480.362	-59.515	-0.266	-0.114
-479.347	-150.691	-0.104	0.008
-478.332	-0.195	0.230	0.164
-477.318	-158.538	-0.071	0.004
-476.303	-42.254	0.436	-0.223
-475.289	-53.784	-0.263	0.120
-474.274	-6.334	0.207	0.142
-473.259	-166.865	-0.171	-0.007
-472.245	800.000	-0.028	-0.112
-471.230	-128.090	0.068	0.010
-470.216	101.380	0.046	0.054
-469.201	800.000	0.040	0.176
-468.186	-53.707	-0.202	-0.092
-467.172	-32.941	-0.109	-0.061
-466.157	-87.002	0.248	0.076
-465.143	141.739	0.191	-0.254
-464.128	-110.761	0.017	-0.003
-463.113	-17.718	-0.071	0.045
-462.099	-200.000	0.008	-0.064
-461.084	-86.814	-0.090	-0.027
-460.070	68.893	-0.139	-0.143
-459.055	-200.000	-0.006	0.282
-458.040	-174.842	-0.260	0.007
-457.026	46.405	-0.088	-0.082
-456.011	-21.299	0.073	0.045
-454.997	800.000	-0.032	-0.097
-453.982	94.730	-0.189	-0.215
-452.968	-200.000	0.026	0.223
-451.953	-128.655	-0.210	-0.030
-450.938	-200.000	-0.009	-0.163
-449.924	10.300	-0.102	0.077
-448.909	-50.243	-0.525	-0.249
-447.895	-70.696	0.164	-0.062
-446.880	-96.403	-0.115	0.030
-445.865	-54.847	-0.069	0.031
-444.851	589.537	0.041	0.101
-443.836	-82.090	-0.162	-0.053
-442.822	116.716	0.150	0.184
-441.807	22.546	0.027	-0.022
-440.792	-142.160	0.255	-0.025
-439.778	-200.000	-0.181	0.001
-438.763	367.085	-0.073	0.148
-437.749	-21.687	0.062	0.038
-436.734	533.970	0.170	0.404
-435.719	-200.000	-0.007	-0.128
-434.705	371.945	-0.041	-0.083
-433.690	30.371	-0.152	-0.130
-432.676	800.000	-0.097	0.294
-431.661	175.979	-0.255	0.371
-430.646	6.081	0.097	0.072
-429.632	337.453	0.136	0.264
-428.617	659.811	-0.074	-0.190
-427.603	171.221	0.020	-0.028
-426.588	643.960	0.065	-0.165
-425.573	352.001	0.116	-0.231
-424.559	-89.818	-0.156	0.046
-423.544	-200.000	0.006	-0.039
-422.530	177.120	-0.101	-0.148
-421.515	42.113	-0.088	0.080
-420.500	673.135	0.044	0.115
-419.486	203.978	-0.091	-0.141
-418.471	52.780	-0.139	-0.133
-417.457	21.962	-0.060	0.049
-416.442	508.430	-0.118	-0.275
-415.428	-200.000	-0.004	-0.135
-414.413	18.341	0.420	0.335
-413.398	800.000	-0.171	0.477
-412.384	-136.570	0.195	0.023
-411.369	-200.000	0.044	0.396
-410.355	-108.439	-0.233	-0.050
-409.340	800.000	0.059	-0.165
-408.325	102.317	0.179	-0.209
-407.311	177.972	0.040	0.058
-406.296	443.916	-0.124	0.271
-405.282	-97.217	-0.196	-0.051
-404.267	87.561	-0.210	0.233
-403.252	-200.000	0.014	0.148
-402.238	114.056	-0.121	-0.147
-401.223	-157.874	-0.292	0.017
-400.209	-200.000	-0.005	-0.127
-399.194	-200.000	-0.030	-0.148
-398.179	-82.521	-0.162	0.052
-397.165	795.029	-0.062	-0.172
-396.150	230.860	-0.074	0.121
-395.136	175.782	-0.057	-0.083
-394.121	692.926	0.024	-0.063
-393.106	318.691	0.062	-0.117
-392.092	-21.967	-0.151	0.091
-391.077	3.243	0.217	-0.158
-390.063	-31.714	-0.363	0.203
-389.048	-40.565	0.227	0.118
-388.033	66.472	0.161	-0.163
-387.019	-35.799	0.176	0.095
-386.004	487.299	0.197	-0.448
-384.990	-130.628	0.080	0.011
-383.975	-21.100	0.218	-0.133
-382.960	-9.462	0.143	0.096
-381.946	102.070	-0.073	0.085
-380.931	465.846	0.102	-0.227
-379.917	-29.791	-0.127	-0.072
-378.902	-200.000	0.022	-0.130
-377.888	-57.556	-0.166	-0.073
-376.873	198.182	-0.220	-0.335
-375.858	-12.998	0.165	-0.107
-374.844	147.821	-0.079	-0.106
-373.829	76.366	0.211	0.223
-372.815	-200.000	-0.001	-0.037
-371.800	65.376	-0.087	0.088
-370.785	800.000	-0.063	0.196
-369.771	-77.955	-0.388	-0.133
-368.756	-200.000	-0.081	0.387
-367.742	-200.000	0.030	0.167
-366.727	-5.215	-0.093	0.064
-365.712	-22.505	-0.097	0.058
-364.698	-200.000	-0.068	-0.316
-363.683	-75.083	0.201	0.072
-362.669	-21.090	-0.184	-0.112
-361.654	-193.836	-0.276	0.002
-360.639	-4.201	-0.281	0.194
-359.625	-99.241	0.349	-0.088
-358.610	-200.000	0.005	-0.223
-357.596	-200.000	-0.007	0.175
-356.581	167.600	0.226	0.321
-355.566	-163.843	0.421	-0.020
-354.552	800.000	0.065	-0.218
-353.537	87.322	-0.202	0.223
-352.523	800.000	-0.090	0.334
-351.508	-200.000	-0.022	0.312
-350.493	282.793	0.120	0.216
-349.479	42.271	0.269	-0.244
-348.464	-200.000	0.059	0.358
-347.450	-30.200	0.130	-0.074
-346.435	-128.797	0.324	0.045
-345.420	-200.000	-0.059	-0.347
-344.406	240.446	0.122	-0.203
-343.391	199.022	-0.100	0.152
-342.377	723.956	-0.031	-0.081
-341.362	383.480	-0.059	-0.122
-340.348	-140.481	0.028	0.003
-339.333	-99.068	0.515	-0.130
-338.318	-200.000	0.025	-0.440
-337.304	-178.383	-0.315	-0.007
-336.289	54.490	-0.031	-0.030
-335.275	-53.085	-0.125	0.057
-334.260	176.650	0.131	-0.189
-333.245	800.000	-0.080	-0.294
-332.231	313.871	-0.043	0.081
-331.216	258.168	0.031	0.052
-330.202	121.091	0.093	0.115
-329.187	-102.928	0.267	-0.063
-328.172	-200.000	-0.066	0.434
-327.158	-128.437	-0.332	-0.047
-326.143	312.693	-0.088	-0.164
-325.129	234.699	0.109	0.180
-324.114	-91.888	0.254	0.072
-323.099	-100.596	-0.296	0.073
-322.085	182.241	-0.130	-0.191
-321.070	339.768	0.066	-0.128
-320.056	-150.954	-0.161	-0.012
-319.041	-200.000	0.005	0.180
-318.026	-165.088	0.354	-0.016
-317.012	-194.067	-0.029	0.000
-315.997	117.563	0.041	-0.050
-314.983	800.000	-0.031	-0.119
-313.968	-59.639	-0.306	0.131
-312.953	239.241	-0.184	-0.306
-311.939	-186.311	-0.130	-0.002
-310.924	-200.000	-0.013	0.090
-309.910	-6.413	0.109	0.074
-308.895	800.000	0.035	-0.134
-307.880	-60.928	0.419	0.177
-306.866	-200.000	0.085	-0.400
-305.851	-22.809	-0.085	0.051
-304.837	-50.143	0.243	-0.115
-303.822	-27.484	-0.182	0.105
-302.807	82.465	0.233	0.252
-301.793	-24.031	0.073	0.044
-300.778	-19.777	-0.094	0.058
-299.764	25.202	-0.103	-0.085
-298.749	103.543	0.236	-0.276
-297.735	63.021	-0.216	-0.216
-296.720	95.795	0.186	0.211
-295.705	-200.000	0.016	-0.138
-294.691	269.494	0.153	0.267
-293.676	326.898	-0.091	-0.173
-292.662	-127.305	-0.139	-0.020
-291.647	270.023	-0.081	-0.142
-290.632	-22.253	0.185	0.111
-289.618	-29.051	-0.120	0.069
-288.603	-160.195	-0.051	0.003
-287.589	3.226	-0.020	-0.014
-286.574	-200.000	0.011	0.099
-285.559	800.000	-0.082	0.285
-284.545	-117.138	-0.253	0.046
-283.530	51.835	-0.159	0.151
-282.516	621.759	0.038	-0.095
-281.501	10.625	0.306	-0.232
-280.486	-98.568	-0.079	0.020
-279.472	94.020	-0.063	0.071
-278.457	-200.000	0.016	0.290
-277.443	116.941	-0.125	0.152
-276.428	-200.000	0.016	0.082
-275.413	-200.000	0.012	0.263
-274.399	-161.718	0.089	0.005
-273.384	-200.000	0.069	0.337
-272.370	13.847	0.234	0.181
-271.355	-125.519	-0.051	0.008
-270.340	-91.551	-0.087	0.025
-269.326	3.076	0.112	-0.081
-268.311	-102.087	0.128	-0.031
-267.297	-148.061	-0.136	-0.011
-266.282	-27.954	0.181	0.104
-265.267	-18.879	-0.132	-0.081
-264.253	-34.738	-0.203	0.110
-263.238	212.601	0.055	0.087
-262.224	800.000	-0.024	0.077
-261.209	800.000	0.103	0.369
-260.195	-50.357	-0.189	-0.089
-259.180	-99.002	0.516	0.130
-258.165	-33.709	0.053	0.029
-257.151	-200.000	-0.005	-0.252
-256.136	-200.000	0.011	0.209
-255.122	-79.923	-0.258	0.086
-254.107	342.436	0.149	0.291
-253.092	179.743	0.123	-0.178
-252.078	-77.311	0.300	-0.104
-251.063	-64.897	0.118	-0.047
-250.049	-38.067	-0.114	-0.060
-249.034	-110.574	0.373	0.077
-248.019	688.314	0.084	-0.219
-247.005	658.277	0.139	-0.354
-245.990	182.129	-0.106	0.154
-244.976	-200.000	0.032	-0.277
-243.961	-200.000	0.024	0.263
-242.946	-200.000	-0.011	0.150
-241.932	-135.270	-0.407	-0.048
-240.917	19.211	-0.215	-0.171
-239.903	570.524	-0.056	-0.136
-238.888	179.838	-0.171	-0.248
-237.873	-200.000	-0.010	0.072
-236.859	482.581	0.027	0.062
-235.844	-58.020	-0.253	0.110
-234.830	151.772	-0.186	-0.251
-233.815	81.422	0.043	-0.046
-232.800	155.410	-0.164	-0.224
-231.786	129.426	0.152	-0.193
-230.771	101.139	0.238	0.275
-229.757	-44.436	-0.219	0.109
-228.742	214.796	0.103	-0.161
-227.727	-7.665	0.177	0.119
-226.713	-190.369	0.460	-0.005
-225.698	263.498	-0.121	-0.208
-224.684	-200.000	0.007	0.225
-223.669	-35.943	0.251	0.135
-222.655	126.991	-0.128	-0.160
-221.640	-200.000	0.007	-0.303
-220.625	-143.985	-0.198	-0.018
-219.611	61.714	0.030	0.030
-218.596	-166.620	-0.282	0.012
-217.582	-127.082	0.413	-0.060
-216.567	-153.259	-0.185	-0.013
-215.552	63.301	0.279	0.277
-214.538	-113.564	0.265	0.051
-213.523	-130.948	0.191	-0.025
-212.509	180.842	-0.218	0.318
-211.494	-24.512	-0.148	0.087
-210.479	-104.649	0.104	-0.024
-209.465	-200.000	-0.021	-0.279
-208.450	-81.949	-0.147	-0.048
-207.436	278.007	-0.211	-0.373
-206.421	440.789	-0.060	-0.130
-205.406	800.000	0.060	0.255
-204.392	248.361	-0.052	-0.088
-203.377	229.284	0.035	0.057
-202.363	435.033	0.095	-0.204
-201.348	-184.072	-0.335	-0.006
-200.333	-200.000	-0.022	0.207
-199.319	15.953	-0.047	0.037
-198.304	217.573	-0.183	0.289
-197.290	90.464	-0.223	-0.247
-196.275	-23.705	-0.287	0.170
-195.260	13.233	-0.028	0.022
-194.246	-113.184	0.268	0.052
-193.231	-181.974	0.478	0.009
-192.217	144.495	0.234	-0.309
-191.202	-123.702	0.283	-0.044
-190.187	9.757	0.225	-0.169
-189.173	225.509	-0.270	0.433
-188.158	800.000	0.064	-0.223
-187.144	22.273	0.119	0.097
-186.129	-200.000	0.012	-0.055
-185.114	-90.169	-0.191	0.055
-184.100	668.045	0.083	-0.212
-183.085	-106.905	0.023	0.005
-182.071	-40.820	-0.129	-0.066
-181.056	-142.999	-0.387	-0.037
-180.042	150.433	-0.150	-0.202
-179.027	-97.946	0.185	-0.047
-178.012	101.607	-0.033	-0.038
-176.998	-188.354	0.064	-0.001
-175.983	255.595	0.047	0.080
-174.969	-1.339	-0.078	0.054
-173.954	-35.026	-0.161	0.087
-172.939	-124.346	0.118	0.018
-171.925	800.000	-0.026	-0.082
-170.910	-200.000	-0.021	0.185
-169.896	-16.202	0.163	0.102
-168.881	149.371	-0.052	-0.070
-167.866	800.000	-0.075	0.219
-166.852	-16.894	0.218	-0.136
-165.837	221.064	-0.019	-0.030
-164.823	800.000	0.049	-0.155
-163.808	-0.869	-0.072	-0.051
-162.793	-85.203	0.105	-0.033
-161.779	3.034	0.048	-0.035
-160.764	10.698	-0.290	-0.219
-159.750	13.988	-0.354	0.273
-158.735	502.794	0.030	0.069
-157.720	-6.120	-0.083	-0.056
-156.706	432.331	0.087	-0.186
-155.691	-46.359	0.231	-0.112
-154.677	186.685	0.135	0.200
-153.662	-78.890	0.088	-0.030
-152.647	-200.000	-0.009	-0.261
-151.633	-119.307	-0.113	0.019
-150.618	135.830	-0.271	-0.349
-149.604	-15.541	0.257	-0.162
-148.589	-29.063	0.179	0.102
-147.574	70.139	-0.122	0.125
-146.560	-200.000	0.055	0.290
-145.545	34.150	0.209	-0.181
-144.531	602.389	-0.122	0.299
-143.516	27.849	-0.199	-0.166
-142.502	800.000	0.029	-0.113
-141.487	80.931	0.155	0.166
-140.472	-200.000	0.028	0.180
-139.458	800.000	0.043	-0.126
-138.443	-14.690	0.228	-0.145
-137.429	800.000	0.030	0.087
-136.414	-200.000	0.007	-0.264
-135.399	-43.495	-0.209	0.104
-134.385	4.283	-0.077	-0.056
-133.370	-200.000	0.015	0.069
-132.356	-75.080	0.344	0.122
-131.341	800.000	-0.029	0.086
-130.326	99.058	0.161	-0.184
-129.312	353.995	-0.057	-0.112
-128.297	-160.155	0.272	-0.015
-127.283	-200.000	-0.001	0.121
-126.268	-115.272	-0.242	-0.045
-125.253	-200.000	-0.011	0.137
-124.239	519.938	-0.060	0.140
-123.224	-75.255	-0.132	-0.047
-122.210	-104.413	-0.130	0.030
-121.195	800.000	-0.105	-0.286
-120.180	-76.278	-0.334	-0.116
-119.166	23.208	-0.051	-0.041
-118.151	-179.662	0.217	-0.005
-117.137	-40.952	0.273	-0.139
-116.122	369.328	-0.151	0.302
-115.107	27.313	-0.306	-0.254
-114.093	-200.000	0.023	-0.151
-113.078	-96.741	0.194	0.050
-112.064	133.194	-0.087	0.111
-111.049	-161.514	0.384	-0.020
-110.034	21.387	0.217	-0.174
-109.020	174.349	0.088	0.126
-108.005	-200.000	-0.036	-0.297
-106.991	-31.624	0.198	-0.110
-105.976	100.191	0.108	0.123
-104.962	-138.139	0.224	-0.025
-103.947	-99.775	0.142	-0.035
-102.932	8.014	0.084	0.062
-101.918	-95.522	0.464	0.123
-100.903	105.012	0.117	0.136
-99.889	800.000	0.035	0.096
-98.874	625.503	-0.019	0.047
-97.859	-37.157	-0.108	0.057
-96.845	60.823	-0.179	-0.175
-95.830	800.000	-0.070	0.216
-94.816	800.000	-0.050	-0.164
-93.801	-200.000	0.001	0.080
-92.786	14.921	0.051	0.040
-91.772	800.000	0.054	-0.228
-90.757	800.000	0.042	0.173
-89.743	-193.960	0.227	0.002
-88.728	115.993	0.123	-0.148
-87.713	-126.902	0.084	-0.012
-86.699	-119.188	0.152	-0.026
-85.684	-78.913	0.177	0.059
-84.670	-143.660	-0.335	-0.031
-83.655	-127.363	0.094	0.014
-82.640	-20.676	0.122	-0.074
-81.626	-200.000	-0.016	-0.255
-80.611	-49.836	-0.163	0.076
-79.597	-34.173	0.273	-0.148
-78.582	88.925	-0.208	0.229
-77.567	28.508	0.198	-0.165
-76.553	-200.000	0.047	-0.374
-75.538	113.807	-0.177	-0.212
-74.524	-116.089	0.131	-0.024
-73.509	-30.788	0.181	0.101
-72.494	366.399	-0.142	0.283
-71.480	-70.060	-0.202	-0.076
-70.465	-137.958	0.044	-0.005
-69.451	141.451	0.166	-0.217
-68.436	-49.637	-0.163	-0.077
-67.422	800.000	0.131	0.405
-66.407	-99.808	-0.190	-0.047
-65.392	-200.000	0.020	0.224
-64.378	293.851	0.027	0.049
-63.363	800.000	0.145	0.458
-62.349	429.165	-0.168	0.358
-61.334	-38.086	-0.881	-0.461
-60.319	123.762	0.356	0.440
-59.305	-200.000	-0.127	-0.955
-58.290	466.501	0.394	0.870
-57.276	568.711	0.514	1.232
-56.261	-200.000	96.303	562.355
-55.246	607.595	1411.619	3470.575
-54.232	180.840	2650.223	3836.567
-53.217	112.462	2340.506	2791.124
-52.203	43.114	1946.419	1750.433
-51.188	36.986	1731.794	1509.810
-50.173	34.199	1686.689	1449.248
-49.159	50.958	1735.156	1620.637
-48.144	54.064	1752.706	1660.928
-47.130	36.660	1708.716	1486.953
-46.115	33.749	1693.634	1451.547
-45.100	33.474	1689.306	1445.681
-44.086	33.620	1685.606	1443.573
-43.071	33.654	1682.631	1441.223
-42.057	33.573	1680.797	1438.984
-41.042	33.686	1678.131	1437.493
-40.027	33.587	1676.857	1435.597
-39.013	33.533	1674.677	1433.270
-37.998	33.587	1672.873	1432.078
-36.984	33.567	1671.944	1431.075
-35.969	33.687	1669.930	1430.198
-34.954	33.822	1668.271	1429.738
-33.940	33.713	1666.643	1427.465
-32.925	33.725	1664.132	1425.347
-31.911	33.734	1662.933	1424.327
-30.896	33.718	1661.113	1422.595
-29.881	33.695	1659.288	1420.802
-28.867	33.709	1657.652	1419.454
-27.852	33.681	1656.521	1418.216
-26.838	33.707	1654.262	1416.420
-25.823	33.643	1653.406	1415.153
-24.809	33.735	1651.904	1414.498
-23.794	33.659	1650.428	1412.612
-22.779	33.745	1648.782	1411.789
-21.765	33.734	1647.196	1410.288
-20.750	33.755	1645.014	1408.526
-19.736	33.716	1643.952	1407.265
-18.721	33.746	1642.754	1406.412
-17.706	33.692	1641.174	1404.600
-16.692	33.768	1638.835	1403.101
-15.677	33.740	1637.808	1401.959
-14.663	33.728	1636.547	1400.740
-13.648	33.613	1635.696	1399.104
-12.633	33.752	1633.522	1398.219
-11.619	33.724	1632.246	1396.865
-10.604	33.750	1630.738	1395.705
-9.590	33.743	1629.045	1394.148
-8.575	33.744	1627.979	1393.193
-7.560	33.711	1626.699	1391.795
-6.546	33.863	1625.186	1391.562
-5.531	33.709	1624.844	1390.086
-4.517	33.749	1622.974	1388.722
-3.502	33.676	1622.274	1387.539
-2.487	33.801	1620.799	1387.136
-1.473	33.838	1609.922	1378.036
-0.458	31.897	1591.764	1348.499
0.556	29.881	1592.645	1319.362
1.571	27.689	1617.537	1323.970
2.586	26.698	1630.745	1327.409
3.600	22.962	1574.279	1254.857
4.615	13.256	1458.829	1098.537
5.629	5.400	1392.441	998.449
6.644	4.197	1383.724	984.479
7.659	4.061	1382.156	982.411
8.673	3.977	1381.428	981.272
9.688	4.025	1379.221	979.923
10.702	4.021	1377.263	978.420
11.717	7.486	1383.964	1005.064
12.731	16.369	1399.519	1072.929
13.746	21.276	1407.333	1110.089
14.761	20.714	1405.662	1105.103
15.775	19.873	1402.801	1097.425
16.790	18.717	1400.331	1088.071
17.804	17.970	1397.729	1081.227
18.819	17.658	1396.387	1078.123
19.834	17.424	1395.056	1075.516
20.848	17.158	1394.531	1073.338
21.863	16.936	1393.001	1070.661
22.877	16.906	1391.567	1069.276
23.892	16.750	1391.225	1067.936
24.907	16.779	1390.269	1067.289
25.921	16.763	1389.183	1066.260
26.936	16.810	1388.191	1065.701
27.950	16.799	1387.677	1065.147
28.965	16.882	1386.603	1064.748
29.980	17.047	1384.829	1064.324
30.994	17.067	1384.012	1063.726
32.009	17.144	1382.819	1063.202
33.023	17.165	1381.743	1062.406
34.038	17.034	1380.192	1060.307
35.053	17.011	1379.086	1059.220
36.067	16.912	1377.897	1057.592
37.082	16.941	1377.069	1057.047
38.096	17.023	1376.084	1056.706
39.111	17.043	1375.157	1056.026
40.126	16.986	1374.269	1054.898
41.140	16.767	1373.601	1052.929
42.155	16.707	1372.519	1051.634
43.169	16.530	1372.777	1050.635
44.184	16.618	1372.001	1050.499
45.199	16.648	1371.816	1050.451
46.213	16.719	1371.432	1050.500
47.228	16.935	1370.089	1050.719
48.242	17.012	1369.276	1050.482
49.257	16.865	1367.645	1048.225
50.271	16.823	1366.606	1047.079
51.286	16.951	1364.722	1046.329
52.301	16.876	1362.999	1044.453
53.315	16.789	1362.662	1043.569
54.330	16.760	1361.186	1042.170
55.344	16.779	1359.623	1040.996
56.359	16.717	1358.986	1040.035
57.374	16.661	1358.592	1039.297
58.388	16.545	1358.048	1038.075
59.403	16.592	1356.893	1037.388
60.417	16.582	1356.216	1036.720
61.432	16.505	1355.231	1035.407
62.447	16.556	1354.435	1035.016
63.461	16.454	1353.287	1033.421
64.476	16.363	1352.128	1031.889
65.490	16.396	1350.298	1030.602
66.505	16.425	1349.191	1029.844
67.520	16.458	1348.148	1029.158
68.534	16.538	1347.742	1029.244
69.549	16.582	1346.222	1028.260
70.563	16.386	1345.304	1026.281
71.578	16.370	1343.886	1025.008
72.593	16.361	1343.127	1024.282
73.607	16.409	1341.997	1023.623
74.622	16.341	1341.765	1022.942
75.636	16.358	1340.568	1022.042
76.651	16.403	1340.184	1021.934
77.666	16.410	1339.535	1021.391
78.680	16.464	1339.111	1021.299
79.695	16.529	1338.114	1020.842
80.709	16.616	1337.174	1020.563
81.724	16.594	1336.877	1020.111
82.739	16.752	1335.750	1020.113
83.753	16.806	1334.851	1019.661
84.768	16.847	1334.266	1019.367
85.782	16.966	1333.139	1019.133
86.797	16.996	1331.834	1018.226
87.812	16.846	1330.638	1016.321
88.826	16.791	1329.559	1015.082
89.841	16.812	1328.271	1014.134
90.855	16.950	1327.212	1014.060
91.870	16.903	1326.314	1013.002
92.884	17.007	1325.522	1012.931
93.899	16.929	1324.844	1011.853
94.914	17.058	1324.133	1011.992
95.928	17.107	1322.820	1011.193
96.943	17.075	1321.968	1010.261
97.957	17.021	1321.267	1009.314
98.972	16.909	1320.343	1007.851
99.987	16.853	1319.536	1006.813
101.001	17.083	1318.014	1006.927
102.016	16.960	1317.155	1005.457
103.030	16.987	1316.470	1005.000
104.045	16.956	1315.875	1004.277
105.060	16.833	1314.301	1002.260
106.074	16.751	1313.206	1000.851
107.089	16.612	1311.272	998.466
108.103	16.465	1310.607	997.004
109.118	16.577	1308.786	996.189
110.133	16.560	1307.307	994.877
111.147	16.574	1305.689	993.642
112.162	16.642	1304.775	993.257
113.176	16.714	1303.260	992.435
114.191	16.707	1302.825	991.978
115.206	16.724	1301.765	991.184
116.220	16.635	1300.329	989.483
117.235	16.624	1299.432	988.645
118.249	16.639	1297.897	987.479
119.264	16.613	1297.056	986.600
120.279	16.580	1295.938	985.472
121.293	16.535	1294.472	984.006
122.308	16.519	1293.707	983.244
123.322	16.474	1292.778	982.190
124.337	16.387	1291.471	980.605
125.352	16.392	1290.322	979.672
126.366	16.525	1289.002	979.357
127.381	16.479	1287.644	977.973
128.395	16.477	1286.710	977.162
129.410	16.445	1286.212	976.517
130.424	16.520	1285.296	976.163
131.439	16.606	1284.032	975.618
132.454	16.633	1283.114	974.989
133.468	16.639	1282.252	974.283
134.483	16.683	1281.778	974.086
135.497	16.644	1280.760	973.005
136.512	16.697	1279.343	972.143
137.527	16.760	1277.730	971.196
138.541	16.792	1276.296	970.202
139.556	16.759	1275.420	969.260
140.570	16.841	1274.201	968.719
141.585	16.857	1273.602	968.266
142.600	16.845	1272.318	967.138
143.614	16.939	1271.864	967.244
144.629	17.061	1270.291	966.658
145.643	17.056	1269.298	965.784
146.658	16.950	1267.579	963.789
147.673	16.852	1265.907	961.881
148.687	16.789	1265.351	961.015
149.702	16.808	1263.693	959.775
150.716	16.734	1262.875	958.650
151.731	16.691	1261.627	957.376
152.746	16.763	1259.786	956.304
153.760	16.850	1259.003	956.111
154.775	17.045	1257.703	956.141
155.789	16.872	1256.865	954.446
156.804	16.926	1255.880	953.914
157.819	17.011	1254.938	953.591
158.833	17.029	1254.328	953.144
159.848	17.047	1253.674	952.666
160.862	17.135	1252.096	951.874
161.877	16.891	1250.964	949.566
162.892	16.834	1249.554	948.092
163.906	16.853	1248.645	947.424
164.921	16.785	1247.887	946.384
165.935	16.888	1246.940	946.156
166.950	17.041	1246.023	946.230
167.964	16.893	1245.605	945.007
168.979	16.926	1244.784	944.482
169.994	16.937	1244.251	944.059
171.008	16.989	1243.398	943.616
172.023	17.001	1242.568	942.971
173.037	17.101	1242.100	943.083
174.052	17.055	1240.968	941.889
175.067	16.880	1240.099	940.173
176.081	16.924	1239.008	939.505
177.096	16.858	1237.631	938.013
178.110	16.919	1236.612	937.497
179.125	16.911	1235.453	936.491
180.140	16.867	1234.561	935.488
181.154	17.011	1232.826	934.886
182.169	17.057	1231.994	934.425
183.183	17.166	1230.977	934.170
184.198	17.167	1230.134	933.455
185.213	17.195	1228.922	932.603
186.227	17.188	1228.020	931.802
187.242	17.268	1226.870	931.283
188.256	17.320	1226.061	930.869
189.271	17.306	1225.002	929.906
190.286	17.088	1224.052	927.915
191.300	16.850	1222.931	925.680
192.315	16.709	1222.515	924.513
193.329	16.925	1221.137	924.567
194.344	16.983	1220.381	924.231
195.359	17.045	1220.046	924.234
196.373	17.103	1219.493	924.047
197.388	17.145	1219.667	924.325
198.402	17.445	1218.430	924.938
199.417	17.467	1218.261	924.845
200.432	17.474	1217.490	924.216
201.446	17.630	1216.654	924.346
202.461	17.662	1215.670	923.692
203.475	17.660	1214.928	923.033
204.490	17.532	1213.197	920.950
205.504	17.421	1211.739	919.162
206.519	17.444	1210.731	918.437
207.534	17.223	1209.978	916.590
208.548	17.358	1208.828	916.368
209.563	17.308	1208.230	915.564
210.577	17.345	1207.161	914.871
211.592	17.543	1206.072	915.028
212.607	17.545	1205.520	914.542
213.621	17.577	1204.716	914.021
214.636	17.554	1203.717	913.057
215.650	17.488	1202.755	911.895
216.665	17.504	1201.913	911.262
217.680	17.661	1200.827	911.199
218.694	17.692	1200.261	910.851
219.709	17.749	1199.339	910.376
220.723	17.751	1198.316	909.534
221.738	17.647	1197.624	908.373
222.753	17.717	1196.839	908.070
223.767	17.656	1196.378	907.311
224.782	17.816	1196.082	907.859
225.796	17.913	1195.286	907.693
226.811	17.874	1194.224	906.595
227.826	17.707	1193.451	905.041
228.840	17.712	1192.773	904.477
229.855	17.645	1192.344	903.713
230.869	17.762	1191.017	903.252
231.884	17.749	1190.690	902.855
232.899	17.571	1189.304	900.781
233.913	17.569	1188.888	900.377
234.928	17.643	1188.050	900.050
235.942	17.647	1186.794	899.040
236.957	17.628	1186.399	898.565
237.972	17.667	1185.029	897.653
238.986	17.584	1185.246	897.300
240.001	17.573	1184.359	896.490
241.015	17.604	1183.365	895.819
242.030	17.751	1182.379	895.769
243.045	17.773	1181.802	895.368
244.059	17.912	1180.730	895.206
245.074	17.825	1180.214	894.278
246.088	17.900	1179.132	893.774
247.103	17.813	1178.442	892.716
248.117	17.984	1177.972	893.173
249.132	18.145	1177.579	893.635
250.147	18.266	1176.876	893.659
251.161	18.318	1175.945	893.141
252.176	18.383	1175.243	892.868
253.190	18.352	1175.014	892.456
254.205	18.467	1174.293	892.427
255.220	18.479	1173.902	892.113
256.234	18.376	1173.102	890.892
257.249	18.394	1172.579	890.509
258.263	18.451	1171.593	889.974
259.278	18.481	1170.717	889.389
260.293	18.572	1169.607	888.939
261.307	18.477	1169.722	888.456
262.322	18.505	1169.320	888.215
263.336	18.673	1168.357	888.276
264.351	18.607	1167.726	887.376
265.366	18.564	1167.251	886.713
266.380	18.701	1166.076	886.449
267.395	18.496	1165.374	884.779
268.409	18.426	1164.879	883.962
269.424	18.497	1163.860	883.479
270.439	18.480	1163.713	883.199
271.453	18.491	1162.911	882.571
272.468	18.529	1161.676	881.750
273.482	18.501	1160.773	880.845
274.497	18.355	1160.526	879.830
275.512	18.451	1159.748	879.655
276.526	18.522	1158.665	879.118
277.541	18.607	1157.719	878.760
278.555	18.556	1157.384	878.164
279.570	18.622	1156.825	878.003
280.585	18.684	1156.215	877.779
281.599	18.614	1155.444	876.756
282.614	18.652	1154.121	875.868
283.628	18.500	1153.044	874.200
284.643	18.572	1151.875	873.602
285.657	18.604	1151.461	873.373
286.672	18.538	1150.408	872.160
287.687	18.705	1149.275	872.077
288.701	18.668	1148.981	871.588
289.716	18.900	1147.544	871.599
290.730	18.624	1147.586	870.152
291.745	18.749	1146.450	869.845
292.760	18.767	1145.757	869.334
293.774	18.864	1145.393	869.473
294.789	18.961	1144.516	869.221
295.803	18.994	1143.812	868.775
296.818	18.804	1142.839	866.998
297.833	18.687	1142.368	865.974
298.847	18.695	1141.529	865.301
299.862	18.777	1140.707	865.015
300.876	18.909	1139.967	865.042
301.891	18.864	1139.415	864.324
302.906	18.953	1138.901	864.301
303.920	19.060	1138.185	864.221
304.935	19.076	1137.942	864.038
305.949	19.165	1137.123	863.790
306.964	19.252	1136.230	863.468
307.979	19.211	1135.197	862.402
308.993	19.097	1134.661	861.350
310.008	19.247	1133.715	861.302
311.022	19.099	1133.484	860.312
312.037	19.136	1132.161	859.418
313.052	19.082	1131.158	858.308
314.066	19.018	1130.150	857.149
315.081	18.831	1129.739	855.833
316.095	18.909	1128.463	855.180
317.110	18.989	1127.680	854.907
318.125	19.022	1127.105	854.559
319.139	18.930	1126.787	853.785
320.154	18.885	1126.224	853.059
321.168	19.003	1125.157	852.760
322.183	19.044	1124.733	852.565
323.197	18.998	1124.231	851.881
324.212	19.090	1123.928	852.032
325.227	19.087	1123.224	851.409
326.241	18.989	1122.528	850.324
327.256	19.083	1121.528	849.954
328.270	19.018	1120.431	848.725
329.285	19.004	1119.409	847.810
330.300	19.084	1118.620	847.528
331.314	19.059	1117.639	846.590
332.329	19.182	1116.492	846.249
333.343	19.105	1115.829	845.295
334.358	19.180	1115.317	845.200
335.373	19.274	1114.250	844.774
336.387	19.340	1113.528	844.478
337.402	19.340	1112.975	843.986
338.416	19.405	1112.641	843.971
339.431	19.494	1111.749	843.660
340.446	19.431	1111.383	842.995
341.460	19.673	1110.440	843.391
342.475	19.625	1109.697	842.513
343.489	19.572	1108.750	841.464
344.504	19.650	1108.122	841.294
345.519	19.660	1107.329	840.664
346.533	19.820	1106.168	840.487
347.548	19.775	1105.646	839.796
348.562	19.699	1104.707	838.639
349.577	19.563	1103.985	837.359
350.592	19.434	1103.014	835.923
351.606	19.485	1102.273	835.533
352.621	19.420	1101.607	834.639
353.635	19.397	1101.075	834.053
354.650	19.375	1100.759	833.633
355.665	19.454	1099.589	833.057
356.679	19.440	1099.137	832.571
357.694	19.488	1098.618	832.338
358.708	19.698	1097.825	832.676
359.723	19.626	1097.137	831.734
360.738	19.649	1096.213	831.071
361.752	19.600	1096.035	830.623
362.767	19.660	1095.216	830.219
363.781	19.709	1094.578	829.898
364.796	19.644	1094.503	829.454
365.810	19.772	1093.885	829.527
366.825	19.854	1093.086	829.240
367.840	19.968	1092.791	829.489
368.854	20.056	1091.840	829.116
369.869	20.041	1091.036	828.360
370.883	19.953	1090.187	827.220
371.898	19.905	1090.047	826.813
372.913	19.927	1088.889	825.967
373.927	19.834	1088.482	825.140
374.942	20.008	1087.802	825.379
375.956	20.084	1087.407	825.370
376.971	20.059	1086.914	824.806
377.986	20.134	1086.361	824.669
379.000	20.115	1085.979	824.216
380.015	20.315	1085.134	824.453
381.029	20.338	1084.114	823.711
382.044	20.331	1083.498	823.140
383.059	20.259	1083.016	822.358
384.073	20.228	1082.520	821.762
385.088	20.321	1081.513	821.364
386.102	20.208	1080.579	820.049
387.117	20.193	1079.257	818.903
388.132	19.993	1078.690	817.454
389.146	20.023	1077.815	816.862
390.161	20.092	1077.108	816.577
391.175	20.209	1076.265	816.416
392.190	20.087	1075.465	815.165
393.205	20.212	1075.107	815.408
394.219	20.365	1073.986	815.205
395.234	20.293	1073.080	814.109
396.248	20.120	1072.277	812.615
397.263	20.077	1071.265	811.574
398.278	20.094	1070.481	810.987
399.292	20.087	1069.453	810.107
400.307	20.035	1069.011	809.457
401.321	20.064	1067.969	808.729
402.336	20.092	1067.625	808.532
403.350	20.110	1067.111	808.155
404.365	20.122	1066.036	807.321
405.380	20.229	1065.286	807.183
406.394	20.234	1064.967	806.892
407.409	20.373	1064.147	806.844
408.423	20.511	1063.002	806.546
409.438	20.502	1062.561	806.100
410.453	20.488	1062.370	805.818
411.467	20.540	1061.748	805.514
412.482	20.754	1060.313	805.346
413.496	20.714	1059.919	804.792
414.511	20.602	1059.566	803.931
415.526	20.780	1058.999	804.255
416.540	20.812	1058.653	804.068
417.555	20.906	1057.482	803.541
418.569	20.655	1057.783	802.541
419.584	20.676	1056.730	801.768
420.599	20.815	1056.198	801.933
421.613	151.366	1402.227	1789.048
422.628	138.962	1452.652	1789.148
