DTS Sentinel unit serial number:	SN413079Multiplexer serial number:	ORYXHardware model number:	OX4-SRSoftware version number:	ORYX F/W v4.00 Oryx Data Collector v3.7.2.0data status	okinstallation	princeton_trtdifferential loss correction	single-endedforward channel	channel 2reverse channel	N/Adate	2019/09/16time	18:39:35forward acquisition time	60.00reverse acquisition time	0.00gamma	496.2192k internal	0.2322k external	0.2322temperature offset calibration	0.9962default loss term (dB/km)	0.3790temperature slope calibration	1.0000multiplexer offset coefficient	1.0000multiplexer slope coefficient	1.0000fibre end	0.00T internal ref (°C)	36.31T ext. ref 1 (°C)	0.05T ext. ref 2 (°C)	29.72length (m)	temperature (°C)	Stokes	anti-Stokes-747.200	-115.956	-0.163	0.031
-746.185	-112.132	-0.314	-0.064
-745.171	-200.000	0.001	-0.174
-744.156	-100.161	-0.273	0.069
-743.142	549.761	0.118	-0.285
-742.127	144.289	-0.299	0.403
-741.112	800.000	-0.039	0.110
-740.098	-20.851	0.118	-0.073
-739.083	195.510	-0.267	-0.410
-738.069	27.116	0.195	-0.165
-737.054	117.051	0.112	0.139
-736.039	-142.695	-0.213	-0.021
-735.025	106.410	-0.039	0.046
-734.010	71.560	0.129	0.135
-732.996	-99.086	-0.215	-0.055
-731.981	-99.502	0.426	-0.108
-730.966	-8.117	0.048	-0.033
-729.952	-20.781	-0.285	0.176
-728.937	-141.855	-0.354	0.036
-727.923	15.128	-0.202	-0.160
-726.908	-200.000	0.026	-0.286
-725.894	-83.203	-0.191	0.062
-724.879	476.901	-0.153	-0.350
-723.864	438.396	-0.098	-0.215
-722.850	-10.455	0.206	-0.138
-721.835	800.000	-0.056	-0.200
-720.821	-165.337	0.269	0.012
-719.806	93.639	-0.153	-0.175
-718.791	-95.988	0.151	-0.041
-717.777	501.788	-0.095	-0.222
-716.762	163.036	0.150	0.213
-715.748	59.455	0.123	0.122
-714.733	-200.000	0.008	0.172
-713.718	64.907	0.074	-0.075
-712.704	-13.513	0.189	-0.123
-711.689	109.006	0.186	0.225
-710.675	-90.080	-0.472	-0.139
-709.660	800.000	-0.008	0.028
-708.645	-14.191	-0.203	0.132
-707.631	-200.000	-0.015	-0.190
-706.616	413.615	-0.031	0.067
-705.602	159.936	-0.304	-0.427
-704.587	-4.613	0.103	-0.072
-703.572	81.384	0.283	-0.309
-702.558	-56.416	0.131	-0.059
-701.543	800.000	-0.057	0.225
-700.529	800.000	0.074	0.219
-699.514	361.323	0.199	-0.402
-698.499	-200.000	-0.000	0.117
-697.485	800.000	0.044	-0.136
-696.470	147.038	-0.056	-0.077
-695.456	-88.958	-0.145	-0.043
-694.441	-3.359	-0.086	0.060
-693.426	121.823	-0.087	0.110
-692.412	-160.727	0.112	-0.006
-691.397	-180.899	-0.379	0.008
-690.383	-200.000	-0.012	0.131
-689.368	2.645	-0.152	0.111
-688.354	-42.478	0.132	0.068
-687.339	37.738	0.116	-0.104
-686.324	9.315	0.133	0.101
-685.310	-65.741	0.155	-0.062
-684.295	698.200	0.111	0.295
-683.281	-86.639	0.256	0.079
-682.266	-101.812	-0.101	-0.025
-681.251	-156.376	-0.398	0.025
-680.237	65.030	0.101	0.103
-679.222	-79.345	-0.146	-0.050
-678.208	-200.000	-0.039	0.282
-677.193	-88.693	0.320	0.096
-676.178	-147.413	0.189	0.016
-675.164	24.239	-0.353	0.294
-674.149	194.633	0.085	-0.131
-673.135	45.613	-0.226	-0.210
-672.120	-20.509	0.014	-0.009
-671.105	277.693	0.154	-0.277
-670.091	-51.640	-0.275	-0.129
-669.076	-117.734	-0.382	-0.069
-668.062	425.413	0.040	-0.086
-667.047	-102.393	-0.430	0.104
-666.032	-107.062	0.196	-0.044
-665.018	148.220	-0.074	-0.101
-664.003	-67.674	-0.092	0.036
-662.989	-143.190	-0.083	0.008
-661.974	506.313	0.043	0.099
-660.959	80.683	0.094	-0.102
-659.945	-140.427	-0.245	0.026
-658.930	-98.317	-0.338	-0.087
-657.916	10.171	0.450	-0.344
-656.901	-104.626	-0.227	-0.053
-655.886	800.000	-0.074	-0.316
-654.872	-71.964	0.089	0.033
-653.857	-62.622	-0.427	0.179
-652.843	800.000	0.039	0.138
-651.828	149.444	0.078	-0.106
-650.814	124.155	-0.219	0.277
-649.799	178.111	0.153	0.225
-648.784	-17.612	-0.278	0.176
-647.770	385.494	0.086	0.178
-646.755	-58.252	0.076	0.033
-645.741	185.808	0.186	0.278
-644.726	-200.000	0.038	0.264
-643.711	32.056	-0.169	-0.147
-642.697	211.416	0.066	0.105
-641.682	107.307	-0.090	0.108
-640.668	-90.806	-0.104	-0.030
-639.653	-162.128	-0.201	-0.010
-638.638	-86.914	-0.329	0.101
-637.624	-200.000	-0.039	-0.259
-636.609	713.604	0.062	-0.166
-635.595	-113.395	-0.232	0.046
-634.580	555.815	-0.102	-0.247
-633.565	-159.801	0.331	-0.018
-632.551	800.000	0.062	-0.223
-631.536	-62.976	0.016	-0.007
-630.522	-9.143	0.134	-0.090
-629.507	441.920	-0.107	0.236
-628.492	-145.057	-0.248	0.023
-627.478	-12.320	0.124	0.081
-626.463	36.291	-0.086	-0.076
-625.449	205.972	0.189	-0.296
-624.434	-51.342	-0.127	-0.060
-623.419	-116.601	-0.087	0.016
-622.405	335.062	-0.166	0.324
-621.390	175.028	0.031	-0.045
-620.376	483.631	-0.142	0.324
-619.361	-185.085	0.174	0.003
-618.346	-200.000	-0.024	0.231
-617.332	40.939	-0.169	-0.153
-616.317	-42.250	0.269	-0.138
-615.303	-19.319	-0.034	-0.021
-614.288	79.465	-0.325	0.351
-613.273	-71.885	-0.301	0.112
-612.259	-37.618	-0.281	0.150
-611.244	-131.442	-0.245	-0.033
-610.230	-31.982	-0.154	0.086
-609.215	-63.054	0.160	0.066
-608.201	-200.000	-0.007	0.091
-607.186	800.000	0.072	0.222
-606.171	59.783	0.213	-0.211
-605.157	-118.915	-0.324	-0.057
-604.142	17.627	0.120	-0.096
-603.128	-79.037	0.157	0.054
-602.113	-105.967	-0.142	-0.032
-601.098	-162.052	0.286	-0.014
-600.084	-99.219	-0.327	0.083
-599.069	-98.377	0.222	-0.057
-598.055	800.000	0.017	0.062
-597.040	372.724	0.069	-0.141
-596.025	800.000	-0.081	0.319
-595.011	11.852	-0.218	0.169
-593.996	-44.551	0.181	-0.091
-592.982	-43.152	-0.482	0.245
-591.967	188.529	-0.136	0.204
-590.952	156.243	0.020	0.028
-589.938	25.667	-0.062	-0.052
-588.923	289.651	-0.082	-0.149
-587.909	-156.718	0.378	-0.023
-586.894	139.203	-0.027	0.036
-585.879	-109.033	0.324	0.069
-584.865	-36.622	0.175	-0.094
-583.850	-52.717	-0.242	0.112
-582.836	-38.780	-0.187	-0.099
-581.821	109.753	-0.129	0.156
-580.806	345.820	-0.160	-0.316
-579.792	-59.585	0.230	-0.099
-578.777	95.940	0.060	-0.069
-577.763	49.310	-0.062	-0.059
-576.748	800.000	0.019	0.074
-575.733	15.875	0.153	-0.121
-574.719	-101.281	0.192	0.047
-573.704	-89.617	-0.183	-0.054
-572.690	-42.092	-0.189	-0.097
-571.675	-79.854	-0.192	-0.065
-570.661	237.993	-0.267	0.445
-569.646	-200.000	-0.032	-0.222
-568.631	313.303	-0.065	-0.123
-567.617	-200.000	0.039	-0.262
-566.602	-200.000	0.107	0.000
-565.588	-184.241	0.091	0.002
-564.573	-162.594	-0.335	0.017
-563.558	-44.535	-0.269	0.135
-562.544	735.461	0.152	0.409
-561.529	-10.937	0.318	-0.210
-560.515	170.531	0.132	-0.190
-559.500	102.635	0.169	-0.198
-558.485	-200.000	0.016	0.130
-557.471	69.325	-0.211	-0.218
-556.456	-42.359	-0.289	0.148
-555.442	-5.051	-0.165	-0.114
-554.427	139.639	0.082	-0.108
-553.412	-10.619	0.208	-0.138
-552.398	57.846	-0.128	-0.126
-551.383	748.161	0.045	0.122
-550.369	660.812	-0.081	0.208
-549.354	127.310	-0.159	-0.203
-548.339	-114.855	-0.251	-0.048
-547.325	108.495	0.164	-0.196
-546.310	-57.806	-0.345	0.151
-545.296	186.403	-0.111	0.166
-544.281	-6.948	-0.321	-0.219
-543.266	67.965	0.266	0.273
-542.252	-44.901	-0.124	0.062
-541.237	-200.000	0.049	-0.225
-540.223	20.079	0.189	-0.153
-539.208	-66.937	0.319	0.126
-538.193	800.000	0.064	-0.213
-537.179	-32.258	-0.364	-0.204
-536.164	-11.215	0.289	-0.191
-535.150	800.000	0.032	-0.109
-534.135	32.771	-0.183	0.159
-533.121	-96.758	-0.388	0.102
-532.106	11.675	0.147	-0.113
-531.091	-200.000	-0.018	0.244
-530.077	-143.218	0.133	0.013
-529.062	800.000	-0.096	-0.276
-528.048	-200.000	-0.004	-0.119
-527.033	302.043	0.081	-0.149
-526.018	378.764	0.057	-0.116
-525.004	514.770	0.058	0.135
-523.989	138.248	-0.186	-0.244
-522.975	36.483	-0.335	-0.296
-521.960	57.308	-0.022	-0.021
-520.945	-39.570	-0.180	-0.094
-519.931	800.000	-0.033	0.125
-518.916	800.000	0.089	0.293
-517.902	-200.000	0.003	-0.192
-516.887	141.782	-0.126	0.168
-515.872	-73.889	0.171	0.062
-514.858	138.648	-0.092	0.121
-513.843	-110.181	-0.142	0.030
-512.829	-27.049	0.175	0.102
-511.814	-55.402	0.532	0.239
-510.799	-200.000	-0.011	-0.159
-509.785	-200.000	-0.015	0.137
-508.770	-40.191	0.247	0.129
-507.756	-157.416	0.112	0.007
-506.741	-112.863	-0.095	-0.019
-505.726	-200.000	0.019	-0.209
-504.712	-66.213	0.077	0.031
-503.697	-48.207	0.254	0.123
-502.683	-200.000	-0.019	0.247
-501.668	60.704	0.194	-0.192
-500.653	800.000	-0.044	-0.124
-499.639	105.113	-0.224	-0.264
-498.624	140.557	-0.182	0.241
-497.610	166.040	0.106	0.150
-496.595	376.912	0.031	0.063
-495.581	800.000	-0.082	-0.348
-494.566	800.000	0.087	-0.342
-493.551	45.828	0.075	0.069
-492.537	-200.000	-0.018	0.117
-491.522	-122.764	0.153	0.025
-490.508	335.229	0.066	-0.128
-489.493	169.204	0.117	-0.167
-488.478	800.000	0.052	0.175
-487.464	-85.124	0.092	0.029
-486.449	-20.048	-0.291	-0.179
-485.435	-200.000	0.019	0.106
-484.420	-168.160	0.416	-0.016
-483.405	47.167	-0.236	-0.220
-482.391	56.390	-0.352	0.342
-481.376	-112.240	0.349	0.070
-480.362	216.746	0.154	-0.245
-479.347	800.000	0.059	0.211
-478.332	150.614	-0.134	0.181
-477.318	-160.777	-0.116	0.006
-476.303	652.681	-0.094	0.241
-475.289	60.143	0.162	0.161
-474.274	-123.235	0.113	0.018
-473.259	36.824	-0.030	-0.026
-472.245	-174.713	-0.052	-0.001
-471.230	-200.000	0.003	0.055
-470.216	45.590	0.219	0.202
-469.201	-143.645	0.124	-0.012
-468.186	-125.138	-0.290	0.045
-467.172	-11.364	-0.169	-0.111
-466.157	-103.330	-0.098	0.023
-465.143	-35.237	0.174	-0.095
-464.128	9.503	0.128	0.097
-463.113	39.150	0.166	-0.148
-462.099	187.257	0.179	-0.267
-461.084	105.601	-0.196	-0.232
-460.070	-154.311	-0.108	-0.007
-459.055	423.557	-0.035	-0.075
-458.040	-79.519	0.477	-0.161
-457.026	693.120	0.052	0.137
-456.011	-2.062	0.178	-0.125
-454.997	-53.164	-0.301	-0.138
-453.982	304.487	0.162	0.301
-452.968	18.908	-0.294	0.236
-451.953	24.737	-0.255	-0.211
-450.938	35.894	0.194	-0.170
-449.924	84.592	0.222	-0.242
-448.909	-117.851	0.200	0.036
-447.895	-200.000	-0.012	-0.179
-446.880	226.025	-0.184	-0.298
-445.865	-36.312	-0.109	-0.059
-444.851	385.786	-0.122	0.252
-443.836	800.000	-0.038	-0.129
-442.822	-99.412	0.285	0.072
-441.807	-200.000	-0.041	-0.402
-440.792	-72.532	-0.361	-0.133
-439.778	-200.000	-0.010	-0.291
-438.763	87.700	-0.063	-0.069
-437.749	111.705	0.093	-0.112
-436.734	-200.000	0.029	-0.149
-435.719	9.325	-0.210	-0.159
-434.705	168.669	0.244	0.347
-433.690	-200.000	-0.050	-0.454
-432.676	-200.000	-0.020	-0.181
-431.661	800.000	-0.041	-0.116
-430.646	-29.193	0.245	0.140
-429.632	152.725	0.030	0.040
-428.617	-122.497	0.267	0.043
-427.603	-200.000	-0.016	0.186
-426.588	-100.778	0.134	0.033
-425.573	743.336	0.039	-0.105
-424.559	-140.150	-0.398	0.042
-423.544	617.420	-0.082	-0.206
-422.530	-200.000	0.030	0.184
-421.515	-200.000	0.022	0.278
-420.500	118.215	0.250	0.307
-419.486	164.614	0.153	0.215
-418.471	559.554	-0.123	0.297
-417.457	-162.843	0.156	0.008
-416.442	-123.582	-0.164	0.026
-415.428	35.378	-0.200	-0.175
-414.413	800.000	0.085	-0.362
-413.398	-88.759	-0.176	0.052
-412.384	46.911	0.329	0.305
-411.369	-115.504	0.277	-0.052
-410.355	800.000	-0.060	-0.243
-409.340	392.714	-0.034	-0.071
-408.325	323.244	-0.086	-0.163
-407.311	-200.000	0.044	0.258
-406.296	-183.621	0.230	-0.004
-405.282	-25.217	-0.184	0.108
-404.267	-30.275	0.215	0.122
-403.252	-148.789	0.180	0.015
-402.238	12.250	-0.197	-0.151
-401.223	37.028	-0.243	0.214
-400.209	-54.926	0.145	-0.065
-399.194	-200.000	0.023	-0.363
-398.179	-200.000	-0.009	0.222
-397.165	-93.108	-0.095	-0.026
-396.150	800.000	0.061	-0.234
-395.136	23.712	-0.277	-0.227
-394.121	-30.864	0.188	-0.106
-393.106	2.333	0.172	0.124
-392.092	-147.148	-0.125	0.011
-391.077	679.763	-0.054	-0.141
-390.063	-120.312	0.087	-0.015
-389.048	-96.468	-0.034	0.009
-388.033	800.000	0.042	-0.166
-387.019	-100.690	-0.121	-0.030
-386.004	800.000	-0.062	-0.210
-384.990	39.415	0.230	-0.205
-383.975	89.049	0.170	-0.189
-382.960	-200.000	-0.032	0.271
-381.946	-118.494	0.229	-0.040
-380.931	-153.305	-0.243	-0.017
-379.917	239.361	0.177	0.294
-378.902	63.348	0.165	0.164
-377.888	800.000	0.054	0.156
-376.873	800.000	0.048	-0.163
-375.858	-200.000	-0.022	0.139
-374.844	-12.978	-0.175	0.113
-373.829	800.000	0.110	-0.410
-372.815	79.216	0.216	0.230
-371.800	-110.152	-0.133	-0.028
-370.785	53.537	0.193	0.185
-369.771	-200.000	-0.039	0.329
-368.756	208.585	-0.276	0.430
-367.742	174.082	-0.158	-0.227
-366.727	-4.557	0.117	0.080
-365.712	79.494	-0.248	0.265
-364.698	256.888	0.165	0.283
-363.683	-14.739	-0.062	0.040
-362.669	-166.685	-0.363	-0.015
-361.654	-33.283	0.270	-0.149
-360.639	107.349	-0.138	-0.163
-359.625	-37.328	-0.225	-0.120
-358.610	207.558	-0.197	-0.306
-357.596	178.757	0.075	-0.109
-356.581	285.562	-0.080	-0.143
-355.566	-200.000	-0.016	0.181
-354.552	-200.000	-0.014	0.280
-353.537	-167.694	-0.420	-0.017
-352.523	155.169	-0.075	-0.103
-351.508	800.000	0.142	0.489
-350.493	-51.030	-0.389	-0.181
-349.479	-146.230	0.468	0.041
-348.464	-200.000	-0.115	-0.519
-347.450	800.000	-0.122	-0.369
-346.435	-68.973	-0.365	0.140
-345.420	-60.205	-0.220	0.093
-344.406	705.669	-0.100	0.262
-343.391	57.076	0.161	0.156
-342.377	473.661	0.132	-0.296
-341.362	192.676	-0.267	0.401
-340.348	-35.134	-0.157	-0.085
-339.333	-200.000	-0.000	0.162
-338.318	-3.024	0.233	0.162
-337.304	-200.000	-0.053	0.441
-336.289	800.000	0.049	-0.172
-335.275	634.792	0.161	-0.406
-334.260	248.762	0.097	-0.163
-333.245	-200.000	0.019	-0.149
-332.231	-200.000	0.082	0.369
-331.216	437.849	0.029	-0.064
-330.202	110.949	0.203	0.243
-329.187	-200.000	0.012	-0.071
-328.172	70.038	0.088	-0.090
-327.158	-29.021	-0.121	-0.069
-326.143	-200.000	-0.001	0.213
-325.129	142.474	-0.179	-0.236
-324.114	-162.666	-0.173	-0.008
-323.099	-64.964	-0.172	-0.069
-322.085	-200.000	-0.046	-0.206
-321.070	-200.000	0.004	0.279
-320.056	-80.144	0.218	-0.073
-319.041	-30.829	0.054	0.030
-318.026	37.781	0.121	0.106
-317.012	-200.000	-0.059	0.421
-315.997	21.964	-0.224	-0.181
-314.983	-127.895	-0.272	-0.039
-313.968	-200.000	0.213	-0.001
-312.953	-64.996	-0.037	0.015
-311.939	-169.571	0.230	0.008
-310.924	193.548	-0.234	0.352
-309.910	-200.000	-0.077	-0.342
-308.895	10.103	-0.033	0.025
-307.880	-69.915	-0.299	-0.113
-306.866	-44.728	0.155	-0.077
-305.851	37.080	-0.098	-0.086
-304.837	-75.965	-0.153	-0.054
-303.822	-33.523	0.120	0.066
-302.807	-200.000	-0.040	0.381
-301.793	204.722	-0.179	-0.276
-300.778	73.122	0.110	0.115
-299.764	555.912	0.100	0.239
-298.749	-158.958	-0.304	-0.017
-297.735	-15.405	0.128	0.081
-296.720	-1.791	-0.191	0.133
-295.705	-143.306	-0.063	0.006
-294.691	590.045	-0.125	0.307
-293.676	-40.030	-0.052	-0.027
-292.662	-200.000	-0.084	-0.554
-291.647	-41.423	-0.259	-0.132
-290.632	239.263	-0.041	0.068
-289.618	457.884	0.105	0.232
-288.603	108.903	0.105	0.125
-287.589	94.371	-0.108	0.122
-286.574	-200.000	-0.054	0.433
-285.559	800.000	0.026	0.081
-284.545	-97.853	0.091	0.023
-283.530	800.000	-0.055	-0.179
-282.516	-200.000	0.005	-0.161
-281.501	-200.000	-0.020	-0.147
-280.486	-67.268	0.105	0.041
-279.472	-60.806	-0.202	0.085
-278.457	-95.328	-0.249	0.066
-277.443	53.677	0.101	0.096
-276.428	-17.422	0.207	0.129
-275.413	-71.161	0.378	0.141
-274.399	262.089	0.139	-0.238
-273.384	139.504	0.337	-0.441
-272.370	32.725	-0.163	-0.140
-271.355	66.232	0.112	-0.112
-270.340	-79.860	-0.250	-0.083
-269.326	12.821	-0.198	-0.152
-268.311	20.238	-0.287	-0.230
-267.297	400.200	-0.086	-0.179
-266.282	-200.000	-0.005	-0.303
-265.267	800.000	0.032	-0.105
-264.253	130.839	-0.230	0.293
-263.238	220.312	0.071	0.113
-262.224	273.413	0.107	0.187
-261.209	-84.556	0.051	0.016
-260.195	-33.564	0.173	-0.095
-259.180	-5.843	-0.213	0.144
-258.165	544.732	0.142	0.337
-257.151	-132.736	0.047	0.006
-256.136	-183.550	0.161	-0.003
-255.122	-164.046	0.223	0.010
-254.107	800.000	-0.039	0.161
-253.092	800.000	-0.015	-0.064
-252.078	-200.000	0.062	-0.443
-251.063	-20.102	0.194	0.118
-250.049	-31.817	-0.056	-0.031
-249.034	-200.000	-0.021	-0.179
-248.019	99.506	-0.137	-0.158
-247.005	-112.287	0.235	-0.047
-245.990	25.868	0.206	0.170
-244.976	174.393	0.189	0.271
-243.961	5.318	0.139	0.102
-242.946	527.013	0.123	0.287
-241.932	-110.688	-0.114	-0.023
-240.917	-35.740	0.377	-0.203
-239.903	-179.207	0.084	0.002
-238.888	77.698	-0.265	-0.280
-237.873	-200.000	-0.119	-0.553
-236.859	-154.285	0.169	0.011
-235.844	20.507	0.082	0.066
-234.830	114.922	0.168	-0.203
-233.815	-94.462	-0.146	0.040
-232.800	139.292	-0.153	-0.199
-231.786	423.718	-0.052	-0.110
-230.771	-104.284	0.139	0.032
-229.757	-50.682	0.222	-0.104
-228.742	-200.000	0.031	-0.307
-227.727	800.000	0.061	-0.185
-226.713	2.543	0.209	0.150
-225.698	62.197	-0.150	0.148
-224.684	157.193	-0.276	0.378
-223.669	364.523	0.072	0.144
-222.655	103.699	0.192	0.224
-221.640	38.874	-0.107	-0.094
-220.625	701.384	0.033	-0.085
-219.611	-147.646	0.126	-0.010
-218.596	-200.000	-0.086	0.529
-217.582	-12.337	-0.093	0.060
-216.567	-133.339	0.408	-0.051
-215.552	498.166	-0.120	-0.273
-214.538	-4.515	-0.260	0.178
-213.523	311.208	-0.198	-0.367
-212.509	-183.373	-0.033	-0.001
-211.494	193.176	-0.204	-0.305
-210.479	-96.723	0.075	0.020
-209.465	800.000	0.142	0.514
-208.450	190.494	0.134	0.200
-207.436	-69.413	0.054	0.020
-206.421	-22.211	0.118	0.071
-205.406	-137.536	0.088	-0.010
-204.392	-5.609	-0.138	0.094
-203.377	-192.830	-0.075	-0.001
-202.363	72.563	-0.074	0.076
-201.348	-56.900	0.125	0.055
-200.333	-200.000	-0.017	0.154
-199.319	-75.173	0.210	0.074
-198.304	124.087	-0.132	0.164
-197.290	106.486	0.300	-0.351
-196.275	169.167	0.181	0.256
-195.260	-26.394	0.105	-0.061
-194.246	619.617	-0.050	0.123
-193.231	222.160	0.056	0.089
-192.217	-68.801	0.177	0.068
-191.202	-200.000	-0.001	-0.452
-190.187	-125.027	0.462	-0.070
-189.173	652.400	-0.102	-0.260
-188.158	598.229	-0.042	0.103
-187.144	-200.000	0.033	0.169
-186.129	-112.130	0.512	-0.102
-185.114	-73.376	0.142	0.051
-184.100	24.389	0.179	-0.146
-183.085	34.554	0.335	0.289
-182.071	246.095	-0.066	0.111
-181.056	-175.390	0.096	-0.003
-180.042	-3.902	0.050	0.034
-179.027	-89.070	0.054	-0.016
-178.012	129.956	-0.156	0.198
-176.998	-200.000	0.028	-0.279
-175.983	-96.424	0.049	0.013
-174.969	-200.000	0.030	0.259
-173.954	-156.310	-0.222	-0.014
-172.939	763.028	-0.145	0.389
-171.925	-39.536	-0.263	0.136
-170.910	-200.000	-0.036	-0.233
-169.896	276.583	0.121	0.212
-168.881	-81.527	0.096	-0.031
-167.866	-63.610	-0.347	-0.141
-166.852	-152.450	-0.359	-0.025
-165.837	-200.000	0.053	-0.257
-164.823	-14.180	-0.184	-0.117
-163.808	-83.948	0.307	-0.097
-162.793	-200.000	-0.001	0.126
-161.779	347.223	0.033	-0.064
-160.764	-78.623	0.260	0.088
-159.750	-90.407	0.240	-0.069
-158.735	-200.000	0.314	0.001
-157.720	61.933	0.059	0.058
-156.706	145.912	-0.094	0.124
-155.691	-45.702	0.099	-0.048
-154.677	425.196	0.116	-0.247
-153.662	-50.407	-0.080	-0.038
-152.647	-200.000	0.038	0.206
-151.633	800.000	-0.057	0.158
-150.618	-156.104	0.303	0.019
-149.604	498.735	-0.038	-0.086
-148.589	-127.516	-0.203	-0.029
-147.574	-14.279	0.088	-0.056
-146.560	443.377	-0.152	-0.330
-145.545	800.000	0.113	0.484
-144.531	596.343	0.041	0.100
-143.516	190.190	-0.019	-0.028
-142.502	-130.959	-0.588	0.077
-141.487	150.861	0.172	-0.231
-140.472	102.820	0.167	-0.193
-139.458	209.149	-0.052	0.081
-138.443	-100.129	-0.110	0.027
-137.429	-106.321	0.243	0.054
-136.414	3.308	0.186	0.134
-135.399	-112.952	-0.333	0.065
-134.385	-6.189	0.197	0.133
-133.370	-51.532	-0.081	0.037
-132.356	139.224	-0.117	-0.151
-131.341	-200.000	0.011	0.139
-130.326	-49.637	0.201	-0.094
-129.312	347.935	0.075	-0.145
-128.297	-60.780	0.223	0.093
-127.283	-95.057	0.079	-0.021
-126.268	800.000	-0.107	-0.311
-125.253	66.807	0.129	-0.130
-124.239	-25.792	0.242	0.141
-123.224	800.000	0.021	-0.061
-122.210	800.000	0.034	0.141
-121.195	6.243	-0.081	-0.060
-120.180	267.316	0.056	-0.096
-119.166	-199.093	0.199	0.001
-118.151	18.469	-0.202	-0.159
-117.137	-143.630	-0.260	0.024
-116.122	-200.000	-0.011	-0.245
-115.107	420.024	0.164	-0.346
-114.093	378.883	0.060	-0.122
-113.078	211.872	-0.076	0.118
-112.064	-3.072	-0.317	0.218
-111.049	-32.600	0.136	0.075
-110.034	157.018	0.110	-0.150
-109.020	61.052	0.073	-0.071
-108.005	37.649	-0.093	-0.081
-106.991	-79.703	-0.306	-0.102
-105.976	710.023	-0.010	-0.025
-104.962	-143.385	0.163	-0.015
-103.947	37.027	-0.240	-0.209
-102.932	-168.768	-0.232	0.009
-101.918	-66.101	0.341	0.134
-100.903	-156.638	0.141	0.009
-99.889	238.058	-0.054	-0.088
-98.874	57.057	0.219	0.210
-97.859	118.921	-0.052	0.063
-96.845	86.555	-0.292	0.317
-95.830	-200.000	-0.036	0.220
-94.816	17.813	0.200	-0.157
-93.801	-200.000	-0.002	0.074
-92.786	128.755	-0.294	0.369
-91.772	349.515	0.051	0.099
-90.757	-56.127	0.148	-0.065
-89.743	-88.590	0.349	0.102
-88.728	-109.765	0.165	-0.034
-87.713	587.160	0.169	-0.410
-86.699	-8.498	0.201	-0.133
-85.684	-48.089	-0.299	0.142
-84.670	-107.499	-0.094	-0.020
-83.655	-162.865	-0.190	-0.009
-82.640	207.399	-0.149	-0.229
-81.626	-200.000	-0.012	-0.233
-80.611	372.520	0.099	0.198
-79.597	90.564	-0.077	-0.084
-78.582	307.234	-0.189	0.346
-77.567	108.042	0.168	-0.197
-76.553	-91.527	0.222	-0.062
-75.538	-172.435	0.359	-0.011
-74.524	226.957	-0.148	-0.237
-73.509	-200.000	0.000	0.039
-72.494	-200.000	-0.031	-0.310
-71.480	800.000	0.029	-0.088
-70.465	-155.696	-0.221	0.014
-69.451	-33.547	0.048	-0.026
-68.436	44.994	-0.069	-0.062
-67.422	-200.000	0.008	-0.089
-66.407	554.475	0.063	-0.149
-65.392	1.076	-0.138	-0.097
-64.378	333.721	-0.159	-0.302
-63.363	-30.864	0.207	-0.115
-62.349	99.283	0.168	0.191
-61.334	11.692	-0.715	-0.540
-60.319	782.272	0.203	0.546
-59.305	-200.000	0.132	-0.731
-58.290	695.241	0.323	0.834
-57.276	322.796	0.918	1.720
-56.261	-200.000	93.380	547.717
-55.246	533.803	1381.208	3217.901
-54.232	153.415	2584.445	3479.471
-53.217	111.159	2303.230	2728.451
-52.203	46.107	1918.833	1747.181
-51.188	39.708	1706.637	1505.281
-50.173	36.692	1661.999	1443.398
-49.159	53.528	1709.029	1611.882
-48.144	57.256	1726.990	1656.910
-47.130	39.436	1684.160	1483.174
-46.115	36.453	1669.023	1447.479
-45.100	36.166	1664.499	1441.352
-44.086	36.248	1661.227	1439.069
-43.071	36.144	1658.998	1436.306
-42.057	36.212	1656.362	1434.474
-41.042	36.216	1654.352	1432.708
-40.027	36.134	1653.055	1430.921
-39.013	36.145	1651.002	1429.167
-37.998	36.129	1648.994	1427.256
-36.984	36.139	1647.970	1426.387
-35.969	36.239	1646.638	1425.912
-34.954	36.293	1645.176	1424.987
-33.940	36.338	1643.274	1423.619
-32.925	36.328	1641.007	1421.521
-31.911	36.220	1639.738	1419.576
-30.896	36.323	1637.480	1418.316
-29.881	36.319	1635.473	1416.494
-28.867	36.321	1634.191	1415.343
-27.852	36.295	1633.219	1414.257
-26.838	36.347	1631.194	1412.824
-25.823	36.334	1630.271	1411.876
-24.809	36.371	1628.626	1410.666
-23.794	36.342	1627.065	1409.043
-22.779	36.317	1625.313	1407.287
-21.765	36.291	1623.535	1405.507
-20.750	36.294	1622.282	1404.386
-19.736	36.360	1620.880	1403.599
-18.721	36.406	1619.665	1402.824
-17.706	36.355	1617.905	1400.873
-16.692	36.370	1616.237	1399.485
-15.677	36.399	1614.936	1398.508
-14.663	36.391	1613.506	1397.158
-13.648	36.364	1612.327	1395.886
-12.633	36.410	1610.657	1394.718
-11.619	36.281	1609.445	1392.685
-10.604	36.303	1607.950	1391.495
-9.590	36.400	1606.174	1390.599
-8.575	36.384	1604.833	1389.264
-7.560	36.429	1603.757	1388.605
-6.546	36.296	1602.955	1386.896
-5.531	36.340	1601.875	1386.226
-4.517	36.409	1600.514	1385.487
-3.502	36.326	1599.632	1384.071
-2.487	36.376	1598.072	1383.024
-1.473	35.934	1586.270	1369.615
-0.458	32.792	1565.483	1329.514
0.556	26.670	1564.711	1292.362
1.571	23.842	1587.835	1290.839
2.586	23.144	1600.525	1295.932
3.600	20.745	1548.563	1236.722
4.615	11.629	1435.470	1085.990
5.629	2.241	1365.799	973.604
6.644	0.255	1355.826	953.847
7.659	0.090	1354.337	951.671
8.673	-0.043	1353.686	950.289
9.688	-0.112	1352.116	948.665
10.702	-0.191	1349.053	945.935
11.717	3.889	1355.885	976.434
12.731	13.363	1371.496	1047.851
13.746	18.414	1376.841	1083.876
14.761	17.400	1374.310	1075.382
15.775	16.168	1371.600	1065.395
16.790	15.141	1368.701	1056.573
17.804	14.337	1365.846	1049.208
18.819	13.951	1365.077	1046.097
19.834	13.669	1363.590	1043.089
20.848	13.428	1362.306	1040.499
21.863	13.236	1360.907	1038.132
22.877	13.172	1359.124	1036.280
23.892	12.976	1359.086	1034.931
24.907	12.990	1357.880	1034.011
25.921	12.995	1357.213	1033.440
26.936	13.017	1356.116	1032.654
27.950	13.145	1355.196	1032.657
28.965	13.154	1354.191	1031.858
29.980	13.294	1353.078	1031.795
30.994	13.286	1352.337	1031.089
32.009	13.273	1351.966	1030.631
33.023	13.362	1350.322	1029.842
34.038	13.223	1349.374	1028.161
35.053	13.173	1348.271	1026.918
36.067	13.207	1347.400	1026.378
37.082	13.129	1346.481	1025.100
38.096	13.214	1345.655	1024.911
39.111	13.211	1344.629	1024.019
40.126	13.104	1343.749	1022.595
41.140	13.066	1343.226	1021.870
42.155	12.974	1342.729	1020.837
43.169	12.991	1342.566	1020.727
44.184	12.943	1342.161	1020.027
45.199	13.027	1341.706	1020.113
46.213	13.162	1340.443	1019.899
47.228	13.190	1340.384	1019.932
48.242	13.111	1339.070	1018.354
49.257	13.207	1337.139	1017.388
50.271	13.116	1336.155	1015.988
51.286	13.182	1334.877	1015.334
52.301	13.189	1333.551	1014.277
53.315	13.164	1332.163	1012.982
54.330	13.085	1331.843	1012.165
55.344	13.240	1329.671	1011.375
56.359	13.065	1329.344	1009.963
57.374	13.102	1328.364	1009.356
58.388	12.948	1327.849	1007.932
59.403	13.055	1326.854	1007.740
60.417	12.992	1326.950	1007.344
61.432	13.009	1325.900	1006.560
62.447	12.894	1324.984	1005.072
63.461	12.885	1323.195	1003.576
64.476	12.930	1322.150	1002.964
65.490	13.028	1320.944	1002.557
66.505	12.968	1319.543	1001.039
67.520	13.072	1318.022	1000.429
68.534	13.038	1317.019	999.371
69.549	13.003	1316.231	998.473
70.563	12.945	1315.623	997.576
71.578	12.821	1314.280	995.721
72.593	12.812	1313.530	995.010
73.607	12.916	1312.411	994.697
74.622	12.912	1311.338	993.776
75.636	12.902	1310.913	993.307
76.651	12.910	1310.231	992.748
77.666	12.892	1309.751	992.190
78.680	12.852	1309.293	991.514
79.695	12.972	1307.662	990.913
80.709	12.903	1307.712	990.449
81.724	12.917	1306.887	989.817
82.739	13.137	1305.229	989.796
83.753	13.165	1304.410	989.250
84.768	13.177	1303.434	988.495
85.782	13.251	1302.345	988.028
86.797	13.255	1300.837	986.817
87.812	13.115	1300.176	985.391
88.826	13.119	1298.738	984.243
89.841	13.128	1297.844	983.528
90.855	13.177	1296.949	983.055
91.870	13.219	1295.839	982.376
92.884	13.156	1295.514	981.669
93.899	13.245	1294.084	981.025
94.914	13.292	1293.569	980.832
95.928	13.344	1292.343	980.120
96.943	13.298	1291.940	979.454
97.957	13.163	1290.832	977.732
98.972	13.155	1290.012	976.975
99.987	13.280	1288.614	976.568
101.001	13.206	1287.652	975.314
102.016	13.163	1286.857	974.372
103.030	13.208	1285.913	973.838
104.045	13.184	1285.171	973.049
105.060	13.214	1284.159	972.373
106.074	13.153	1282.603	970.749
107.089	13.082	1280.908	968.967
108.103	13.065	1279.366	967.613
109.118	13.061	1278.702	967.002
110.133	13.032	1277.540	965.870
111.147	13.108	1276.012	965.074
112.162	13.122	1274.767	964.125
113.176	13.157	1273.877	963.574
114.191	13.048	1272.873	962.090
115.206	13.156	1271.606	961.679
116.220	13.103	1270.304	960.298
117.235	13.063	1269.492	959.369
118.249	13.088	1268.521	958.694
119.264	13.095	1267.349	957.766
120.279	13.026	1266.256	956.458
121.293	13.031	1265.502	955.829
122.308	13.061	1264.567	955.213
123.322	12.980	1263.578	953.914
124.337	12.922	1262.446	952.640
125.352	13.077	1261.315	952.596
126.366	12.972	1260.336	951.169
127.381	13.089	1259.128	950.842
128.395	13.051	1257.753	949.505
129.410	13.095	1257.005	949.105
130.424	13.077	1256.561	948.587
131.439	13.081	1255.560	947.768
132.454	13.130	1254.283	947.004
133.468	13.066	1253.765	946.159
134.483	13.112	1252.840	945.642
135.497	13.132	1251.729	944.831
136.512	13.165	1250.397	943.933
137.527	13.151	1249.316	942.955
138.541	13.239	1247.792	942.220
139.556	13.203	1246.770	941.164
140.570	13.282	1245.693	940.717
141.585	13.293	1244.556	939.835
142.600	13.307	1242.580	938.339
143.614	13.251	1242.446	937.837
144.629	13.404	1241.146	937.640
145.643	13.280	1240.418	936.305
146.658	13.199	1238.817	934.558
147.673	13.223	1237.403	933.542
148.687	13.262	1235.623	932.339
149.702	13.216	1234.774	931.353
150.716	13.137	1233.577	929.922
151.731	13.261	1232.535	929.755
152.746	13.174	1231.463	928.376
153.760	13.256	1230.058	927.693
154.775	13.237	1229.179	926.841
155.789	13.316	1227.956	926.280
156.804	13.266	1226.959	925.164
157.819	13.308	1225.901	924.521
158.833	13.294	1225.300	923.910
159.848	13.418	1223.805	923.390
160.862	13.421	1222.643	922.447
161.877	13.271	1222.074	921.101
162.892	13.241	1220.803	919.894
163.906	13.337	1219.961	919.716
164.921	13.343	1218.792	918.783
165.935	13.211	1218.307	917.607
166.950	13.393	1217.587	917.989
167.964	13.311	1217.061	917.060
168.979	13.327	1215.856	916.157
169.994	13.419	1215.105	916.023
171.008	13.368	1214.444	915.158
172.023	13.479	1213.274	914.809
173.037	13.440	1212.820	914.169
174.052	13.460	1212.007	913.588
175.067	13.485	1210.648	912.623
176.081	13.443	1209.469	911.420
177.096	13.364	1209.116	910.637
178.110	13.360	1207.985	909.687
179.125	13.502	1206.272	909.095
180.140	13.438	1205.106	907.783
181.154	13.467	1204.085	907.091
182.169	13.622	1202.362	906.560
183.183	13.494	1202.155	905.629
184.198	13.554	1200.608	904.708
185.213	13.699	1199.100	904.283
186.227	13.701	1198.172	903.515
187.242	13.766	1196.993	902.896
188.256	13.638	1196.072	901.428
189.271	13.717	1194.995	900.966
190.286	13.552	1194.757	899.812
191.300	13.454	1193.432	898.204
192.315	13.399	1192.707	897.275
193.329	13.398	1192.506	897.041
194.344	13.449	1191.655	896.597
195.359	13.526	1190.631	896.165
196.373	13.625	1190.662	896.646
197.388	13.661	1190.004	896.263
198.402	13.730	1189.561	896.227
199.417	13.852	1188.243	895.809
200.432	13.846	1187.922	895.457
201.446	13.841	1186.841	894.538
202.461	14.008	1185.814	894.581
203.475	13.983	1184.825	893.625
204.490	13.944	1183.729	892.505
205.504	13.912	1182.716	891.495
206.519	13.793	1181.931	890.184
207.534	13.806	1180.570	889.148
208.548	13.772	1179.919	888.397
209.563	13.847	1179.128	888.125
210.577	13.833	1178.369	887.399
211.592	13.896	1177.055	886.669
212.607	14.034	1176.345	886.793
213.621	14.082	1175.319	886.195
214.636	14.014	1174.440	885.090
215.650	13.981	1173.690	884.274
216.665	14.065	1173.026	884.141
217.680	14.100	1172.005	883.478
218.694	14.077	1171.350	882.785
219.709	14.114	1170.117	881.977
220.723	14.041	1169.511	881.052
221.738	14.087	1168.990	880.828
222.753	14.173	1168.358	880.727
223.767	14.183	1167.547	880.091
224.782	14.208	1167.176	879.865
225.796	14.311	1166.397	879.744
226.811	14.253	1165.311	878.542
227.826	14.237	1164.784	877.982
228.840	14.192	1164.070	877.128
229.855	14.078	1163.447	875.980
230.869	14.217	1162.554	875.963
231.884	14.218	1161.862	875.367
232.899	14.222	1160.688	874.428
233.913	14.250	1160.018	873.992
234.928	14.190	1159.443	873.169
235.942	13.984	1158.922	871.616
236.957	14.139	1158.024	871.680
237.972	14.163	1157.207	871.112
238.986	14.156	1156.699	870.616
240.001	14.194	1155.820	870.074
241.015	14.258	1154.995	869.712
242.030	14.211	1154.415	868.954
243.045	14.271	1153.484	868.490
244.059	14.310	1152.507	867.881
245.074	14.283	1152.029	867.302
246.088	14.346	1151.107	866.857
247.103	14.472	1150.087	866.671
248.117	14.400	1149.747	865.959
249.132	14.467	1149.412	865.978
250.147	14.611	1148.109	865.667
251.161	14.682	1147.231	865.297
252.176	14.652	1147.076	864.948
253.190	14.620	1146.636	864.378
254.205	14.699	1145.846	864.113
255.220	14.709	1145.154	863.565
256.234	14.645	1144.748	862.854
257.249	14.612	1144.401	862.342
258.263	14.652	1143.538	861.825
259.278	14.797	1142.569	861.767
260.293	14.670	1142.317	860.842
261.307	14.771	1141.418	860.609
262.322	14.863	1140.688	860.460
263.336	14.832	1140.466	860.053
264.351	14.840	1139.849	859.554
265.366	14.840	1138.749	858.650
266.380	14.937	1138.076	858.564
267.395	14.922	1137.237	857.777
268.409	14.978	1136.410	857.365
269.424	14.886	1135.669	856.261
270.439	14.803	1135.685	855.769
271.453	15.010	1134.233	855.656
272.468	14.830	1133.685	854.252
273.482	14.924	1132.677	853.894
274.497	14.973	1132.253	853.748
275.512	14.841	1132.212	852.969
276.526	14.890	1130.873	852.133
277.541	15.028	1130.214	852.266
278.555	14.947	1129.943	851.575
279.570	14.916	1129.110	850.712
280.585	15.081	1127.653	850.379
281.599	15.085	1127.052	849.870
282.614	15.008	1126.283	848.822
283.628	15.072	1125.183	848.246
284.643	14.988	1124.315	847.091
285.657	15.109	1123.400	846.936
286.672	15.113	1122.416	846.139
287.687	15.125	1121.991	845.808
288.701	15.149	1120.794	844.952
289.716	15.157	1119.667	844.068
290.730	15.134	1119.681	843.888
291.745	15.181	1118.901	843.461
292.760	15.204	1118.386	843.113
293.774	15.166	1117.804	842.409
294.789	15.388	1116.638	842.572
295.803	15.254	1116.484	841.704
296.818	15.258	1115.495	840.908
297.833	15.211	1114.889	840.142
298.847	15.238	1114.130	839.627
299.862	15.299	1113.206	839.164
300.876	15.316	1112.179	838.401
301.891	15.362	1111.769	838.244
302.906	15.468	1110.846	838.006
303.920	15.429	1110.390	837.394
304.935	15.563	1109.694	837.464
305.949	15.511	1109.355	836.872
306.964	15.474	1108.495	835.967
307.979	15.557	1107.718	835.720
308.993	15.389	1107.312	834.505
310.008	15.481	1106.449	834.237
311.022	15.623	1105.416	834.088
312.037	15.618	1104.644	833.405
313.052	15.484	1103.471	831.782
314.066	15.601	1102.769	831.759
315.081	15.410	1102.356	830.432
316.095	15.452	1101.333	829.793
317.110	15.559	1100.480	829.608
318.125	15.531	1099.971	829.010
319.139	15.416	1099.376	827.924
320.154	15.515	1098.587	827.744
321.168	15.504	1097.820	827.040
322.183	15.375	1097.929	826.412
323.197	15.496	1096.963	826.208
324.212	15.446	1096.093	825.231
325.227	15.565	1095.239	825.100
326.241	15.641	1094.768	825.047
327.256	15.550	1094.161	824.067
328.270	15.551	1093.412	823.436
329.285	15.648	1091.986	822.763
330.300	15.634	1091.296	822.103
331.314	15.529	1090.647	821.026
332.329	15.590	1089.620	820.479
333.343	15.767	1088.391	820.348
334.358	15.696	1087.912	819.566
335.373	15.645	1087.492	818.928
336.387	15.732	1086.380	818.440
337.402	15.730	1085.691	817.839
338.416	15.806	1085.075	817.675
339.431	15.793	1084.586	817.173
340.446	15.937	1083.829	817.227
341.460	15.986	1083.012	816.778
342.475	15.951	1082.149	815.882
343.489	15.830	1081.618	814.826
344.504	16.010	1080.613	814.866
345.519	16.071	1079.384	814.163
346.533	16.042	1078.753	813.472
347.548	16.049	1077.853	812.757
348.562	16.048	1077.632	812.515
349.577	16.031	1076.457	811.476
350.592	16.079	1075.681	811.045
351.606	15.945	1075.310	810.051
352.621	15.934	1074.466	809.294
353.635	15.963	1073.700	808.783
354.650	15.960	1073.361	808.439
355.665	15.958	1072.362	807.608
356.679	15.887	1072.189	807.064
357.694	16.018	1071.543	807.137
358.708	16.155	1070.332	806.807
359.723	16.107	1070.009	806.263
360.738	16.096	1069.203	805.533
361.752	16.096	1068.839	805.188
362.767	16.127	1068.450	804.969
363.781	16.109	1068.062	804.518
364.796	16.220	1067.050	804.217
365.810	16.171	1066.572	803.552
366.825	16.342	1065.564	803.535
367.840	16.383	1065.391	803.525
368.854	16.339	1064.436	802.525
369.869	16.356	1063.804	802.060
370.883	16.160	1063.544	800.862
371.898	16.428	1062.172	801.028
372.913	16.402	1061.478	800.312
373.927	16.380	1061.162	799.899
374.942	16.403	1060.916	799.751
375.956	16.417	1060.261	799.254
376.971	16.379	1059.766	798.629
377.986	16.595	1058.979	798.987
379.000	16.478	1058.650	798.116
380.015	16.594	1057.966	798.074
381.029	16.521	1057.526	797.327
382.044	16.561	1056.669	796.799
383.059	16.549	1056.072	796.226
384.073	16.664	1055.073	795.939
385.088	16.644	1054.321	795.208
386.102	16.662	1053.285	794.441
387.117	16.592	1052.238	793.253
388.132	16.597	1051.391	792.568
389.146	16.519	1050.791	791.682
390.161	16.660	1049.954	791.638
391.175	16.568	1049.207	790.578
392.190	16.708	1048.483	790.616
393.205	16.744	1047.761	790.169
394.219	16.682	1047.169	789.361
395.234	16.672	1046.333	788.615
396.248	16.697	1045.405	787.964
397.263	16.648	1044.160	786.726
398.278	16.656	1043.654	786.316
399.292	16.570	1043.256	785.544
400.307	16.531	1042.740	784.906
401.321	16.695	1041.960	785.008
402.336	16.767	1041.137	784.653
403.350	16.686	1040.459	783.701
404.365	16.770	1039.418	783.234
405.380	16.772	1039.054	782.897
406.394	16.770	1038.109	782.108
407.409	16.798	1037.148	781.447
408.423	16.904	1036.675	781.506
409.438	16.982	1036.203	781.443
410.453	16.872	1035.363	780.234
411.467	17.025	1034.527	780.239
412.482	17.022	1034.258	779.950
413.496	17.059	1033.278	779.315
414.511	17.094	1032.621	778.912
415.526	17.133	1032.535	778.953
416.540	17.216	1031.621	778.575
417.555	17.196	1031.072	778.001
418.569	17.117	1030.533	777.163
419.584	17.138	1030.219	776.954
420.599	17.298	1029.535	777.102
421.613	97.381	1310.989	1431.399
422.628	89.099	1351.968	1431.507
