DTS Sentinel unit serial number:	SN413079Multiplexer serial number:	ORYXHardware model number:	OX4-SRSoftware version number:	ORYX F/W v4.00 Oryx Data Collector v3.7.2.0data status	okinstallation	princeton_trtdifferential loss correction	single-endedforward channel	channel 2reverse channel	N/Adate	2019/09/19time	14:31:35forward acquisition time	60.00reverse acquisition time	0.00gamma	496.2192k internal	0.2323k external	0.2323temperature offset calibration	1.0022default loss term (dB/km)	0.3790temperature slope calibration	1.0000multiplexer offset coefficient	1.0000multiplexer slope coefficient	1.0000fibre end	0.00T internal ref (°C)	32.20T ext. ref 1 (°C)	1.06T ext. ref 2 (°C)	29.32length (m)	temperature (°C)	Stokes	anti-Stokes-747.200	-200.000	-0.036	0.187
-746.185	308.733	0.167	-0.316
-745.171	-116.264	0.428	-0.080
-744.156	66.414	-0.466	0.479
-743.142	-75.058	0.076	0.028
-742.127	-200.000	0.026	0.128
-741.112	27.000	-0.041	-0.034
-740.098	29.654	0.223	-0.192
-739.083	-74.621	-0.297	-0.108
-738.069	425.899	-0.069	0.151
-737.054	-116.846	-0.268	-0.050
-736.039	800.000	-0.026	-0.095
-735.025	-126.811	0.173	-0.026
-734.010	-26.159	-0.382	-0.227
-732.996	-21.400	-0.155	0.095
-731.981	-173.808	-0.346	-0.010
-730.966	-39.087	-0.293	-0.156
-729.952	322.253	0.063	0.121
-728.937	-200.000	-0.055	-0.342
-727.923	-81.895	0.097	0.032
-726.908	283.391	0.066	0.119
-725.894	91.309	-0.189	-0.214
-724.879	-16.958	-0.359	0.229
-723.864	-200.000	-0.024	0.121
-722.850	374.414	0.128	-0.262
-721.835	-200.000	-0.105	0.000
-720.821	-106.332	0.138	0.031
-719.806	-31.741	-0.261	-0.147
-718.791	205.624	-0.149	-0.234
-717.777	800.000	0.072	-0.222
-716.762	-84.143	-0.309	0.099
-715.748	-32.374	-0.306	-0.172
-714.733	800.000	-0.109	-0.416
-713.718	-200.000	0.033	0.336
-712.704	147.946	0.135	0.184
-711.689	800.000	0.058	0.183
-710.675	85.197	0.213	0.236
-709.660	207.191	-0.035	0.056
-708.645	-62.003	0.096	0.040
-707.631	-200.000	0.043	0.191
-706.616	-59.575	0.208	0.090
-705.602	-108.051	-0.153	0.034
-704.587	-116.488	0.174	-0.032
-703.572	-200.000	0.003	-0.241
-702.558	-200.000	0.072	-0.424
-701.543	-200.000	-0.025	0.264
-700.529	-9.135	0.048	0.032
-699.514	-115.454	-0.024	-0.005
-698.499	99.183	-0.245	-0.285
-697.485	-81.818	-0.289	0.095
-696.470	-200.000	0.019	0.086
-695.456	-186.289	-0.212	-0.003
-694.441	442.838	0.124	0.274
-693.426	347.228	-0.063	-0.124
-692.412	-116.591	-0.318	0.059
-691.397	34.307	0.221	-0.194
-690.383	30.644	0.120	0.103
-689.368	-31.269	-0.253	-0.144
-688.354	141.531	-0.206	-0.274
-687.339	61.307	-0.194	-0.194
-686.324	-103.499	-0.220	0.052
-685.310	246.729	-0.257	0.437
-684.295	800.000	-0.037	0.114
-683.281	-24.231	-0.301	-0.181
-682.266	60.473	0.190	-0.189
-681.251	-200.000	0.001	-0.081
-680.237	-200.000	0.008	-0.034
-679.222	49.434	-0.123	-0.117
-678.208	18.627	0.144	0.116
-677.193	24.936	-0.198	0.165
-676.178	367.806	-0.211	-0.429
-675.164	-200.000	-0.021	0.266
-674.149	54.419	-0.128	-0.124
-673.135	800.000	-0.011	0.047
-672.120	-200.000	0.006	0.049
-671.105	-176.383	-0.209	-0.005
-670.091	128.056	0.116	0.148
-669.076	-83.410	-0.185	-0.060
-668.062	-137.123	-0.336	-0.039
-667.047	39.799	-0.224	0.203
-666.032	41.570	-0.241	-0.220
-665.018	90.591	-0.153	0.172
-664.003	28.944	0.111	0.095
-662.989	363.459	-0.122	0.248
-661.974	125.140	-0.219	0.278
-660.959	-139.526	-0.227	-0.024
-659.945	-40.648	-0.386	-0.202
-658.930	-145.393	-0.206	-0.019
-657.916	466.376	-0.147	0.331
-656.901	80.446	-0.068	-0.074
-655.886	-44.037	-0.074	-0.037
-654.872	-102.034	0.133	-0.032
-653.857	-200.000	0.042	-0.244
-652.843	358.072	0.144	-0.290
-651.828	110.200	-0.160	-0.193
-650.814	800.000	-0.111	-0.373
-649.799	272.873	-0.064	0.113
-648.784	-98.354	0.102	-0.026
-647.770	-104.014	0.329	0.077
-646.755	-200.000	-0.041	0.206
-645.741	-93.284	-0.168	-0.047
-644.726	6.603	-0.220	0.165
-643.711	-57.199	0.191	0.085
-642.697	244.657	-0.222	0.376
-641.682	-59.247	0.332	0.144
-640.668	-200.000	-0.012	0.544
-639.653	800.000	-0.026	0.092
-638.638	-200.000	-0.036	0.163
-637.624	791.677	0.098	-0.270
-636.609	-7.060	0.324	-0.221
-635.595	-69.102	-0.140	-0.054
-634.580	-160.992	-0.303	-0.016
-633.565	307.181	-0.126	0.236
-632.551	61.719	-0.096	-0.097
-631.536	-129.169	-0.116	-0.016
-630.522	-200.000	0.040	0.184
-629.507	-106.384	0.070	-0.016
-628.492	24.427	-0.302	0.251
-627.478	-101.699	0.221	-0.054
-626.463	51.454	-0.243	0.232
-625.449	-162.430	-0.218	-0.011
-624.434	-132.406	-0.296	0.038
-623.419	359.896	0.111	0.224
-622.405	-0.624	-0.110	-0.079
-621.390	123.586	0.135	-0.171
-620.376	94.346	0.231	-0.264
-619.361	-200.000	0.072	-0.353
-618.346	-53.234	-0.256	-0.118
-617.332	31.416	-0.159	-0.137
-616.317	24.823	-0.227	0.189
-615.303	800.000	0.019	0.059
-614.288	-200.000	0.077	-0.343
-613.273	191.251	0.185	0.279
-612.259	-200.000	-0.052	-0.235
-611.244	48.667	-0.173	-0.163
-610.230	41.080	0.196	0.178
-609.215	-26.753	0.133	-0.078
-608.201	-120.374	0.267	0.046
-607.186	-200.000	-0.095	-0.423
-606.171	800.000	-0.050	0.158
-605.157	-58.646	-0.038	0.016
-604.142	-200.000	-0.002	-0.283
-603.128	-186.518	-0.110	0.002
-602.113	-200.000	0.019	0.113
-601.098	800.000	-0.106	-0.421
-600.084	-152.915	0.102	-0.007
-599.069	-109.356	0.137	0.029
-598.055	592.083	-0.090	-0.224
-597.040	800.000	0.055	-0.153
-596.025	800.000	-0.014	0.057
-595.011	-133.385	0.178	0.023
-593.996	-24.910	-0.314	0.187
-592.982	243.584	0.056	-0.094
-591.967	-200.000	-0.047	-0.274
-590.952	-111.148	-0.051	-0.010
-589.938	-84.235	0.130	0.041
-588.923	-15.870	-0.162	0.104
-587.909	27.480	-0.204	0.173
-586.894	-72.405	-0.218	0.081
-585.879	193.176	-0.077	0.117
-584.865	109.263	0.092	0.111
-583.850	300.611	-0.138	-0.256
-582.836	24.591	0.355	0.295
-581.821	51.005	-0.216	0.205
-580.806	5.719	0.360	0.267
-579.792	-76.332	-0.202	-0.071
-578.777	42.474	-0.178	-0.162
-577.763	126.645	-0.140	-0.177
-576.748	-2.078	-0.087	0.061
-575.733	800.000	-0.049	0.179
-574.719	-18.231	-0.116	0.073
-573.704	-200.000	-0.042	-0.241
-572.690	-200.000	-0.023	-0.216
-571.675	124.072	0.087	-0.109
-570.661	628.894	0.158	0.399
-569.646	441.420	-0.023	-0.051
-568.631	119.033	0.179	0.222
-567.617	-100.547	0.387	0.096
-566.602	65.764	0.060	-0.061
-565.588	-200.000	-0.018	-0.201
-564.573	-45.550	-0.252	0.125
-563.558	-51.128	-0.049	-0.023
-562.544	253.223	-0.092	-0.157
-561.529	-200.000	-0.071	0.341
-560.515	-103.119	-0.037	0.009
-559.500	148.716	0.242	0.327
-558.485	-200.000	-0.017	0.136
-557.471	-114.841	-0.266	0.051
-556.456	-162.757	0.320	0.016
-555.442	-104.046	-0.299	0.070
-554.427	-103.378	0.256	-0.060
-553.412	14.789	-0.275	-0.215
-552.398	-200.000	-0.021	0.277
-551.383	-200.000	0.022	0.203
-550.369	346.805	0.127	0.251
-549.354	-102.295	-0.061	0.015
-548.339	120.777	-0.198	-0.246
-547.325	-97.134	0.175	0.046
-546.310	800.000	0.146	0.455
-545.296	-200.000	-0.022	-0.107
-544.281	22.785	0.291	-0.239
-543.266	-200.000	0.002	-0.126
-542.252	800.000	-0.072	-0.245
-541.237	31.763	0.210	-0.181
-540.223	93.300	-0.115	0.131
-539.208	-25.900	0.135	-0.080
-538.193	50.557	-0.361	0.342
-537.179	23.964	-0.312	-0.257
-536.164	178.487	0.097	0.143
-535.150	-200.000	-0.021	-0.204
-534.135	-200.000	0.022	0.133
-533.121	-19.609	-0.167	0.103
-532.106	-61.370	0.134	0.057
-531.091	271.720	0.029	0.050
-530.077	800.000	-0.040	-0.143
-529.062	408.150	-0.092	-0.196
-528.048	-37.994	-0.186	-0.099
-527.033	-36.293	0.286	0.154
-526.018	800.000	0.014	0.041
-525.004	-115.460	-0.099	0.019
-523.989	-50.523	0.187	-0.088
-522.975	107.133	-0.126	-0.150
-521.960	108.386	0.110	-0.132
-520.945	124.896	-0.121	-0.152
-519.931	-68.300	0.184	-0.072
-518.916	218.374	-0.056	0.089
-517.902	-200.000	-0.033	-0.400
-516.887	78.665	-0.143	-0.153
-515.872	13.852	0.151	-0.118
-514.858	-200.000	-0.006	0.168
-513.843	40.661	-0.120	0.109
-512.829	-90.362	-0.221	-0.064
-511.814	287.836	-0.118	0.213
-510.799	-200.000	0.035	-0.192
-509.785	395.672	-0.086	-0.180
-508.770	-200.000	-0.019	-0.093
-507.756	413.802	-0.074	-0.157
-506.741	-200.000	0.018	0.173
-505.726	-24.091	-0.220	-0.131
-504.712	584.036	0.116	0.284
-503.697	123.716	0.068	0.085
-502.683	800.000	-0.075	-0.234
-501.668	800.000	-0.019	0.052
-500.653	-136.593	0.209	0.024
-499.639	-200.000	0.015	0.105
-498.624	-80.623	0.358	0.119
-497.610	-200.000	0.048	0.373
-496.595	-3.020	-0.269	0.188
-495.581	585.821	0.166	-0.408
-494.566	226.878	0.149	-0.242
-493.551	-128.925	-0.177	0.025
-492.537	165.755	-0.225	0.318
-491.522	-96.838	0.046	-0.012
-490.508	56.323	0.005	-0.005
-489.493	-141.466	-0.095	0.010
-488.478	-56.919	0.276	-0.122
-487.464	98.285	0.017	0.020
-486.449	-86.393	0.175	0.054
-485.435	800.000	-0.054	-0.232
-484.420	125.753	0.063	0.080
-483.405	197.390	-0.288	0.439
-482.391	57.999	0.101	0.099
-481.376	-91.441	-0.114	-0.032
-480.362	800.000	0.052	0.152
-479.347	93.910	-0.204	0.231
-478.332	-23.342	-0.103	0.062
-477.318	-49.250	-0.155	-0.074
-476.303	-109.391	-0.222	-0.047
-475.289	-168.515	-0.273	-0.010
-474.274	-21.078	0.346	-0.212
-473.259	-80.187	0.301	0.101
-472.245	-200.000	0.025	0.128
-471.230	-96.433	-0.307	0.081
-470.216	800.000	0.092	-0.317
-469.201	340.788	0.139	-0.270
-468.186	241.402	-0.039	0.065
-467.172	-19.300	0.326	-0.202
-466.157	-36.318	0.328	-0.176
-465.143	409.361	0.135	-0.286
-464.128	-64.707	0.109	-0.044
-463.113	-200.000	-0.010	0.327
-462.099	-110.809	0.229	0.047
-461.084	212.122	-0.132	-0.208
-460.070	5.958	0.177	0.131
-459.055	39.960	0.074	0.066
-458.040	-120.644	-0.368	-0.062
-457.026	374.519	0.150	-0.305
-456.011	800.000	-0.054	0.168
-454.997	8.645	0.039	-0.029
-453.982	205.214	0.076	-0.117
-452.968	-76.390	0.103	-0.036
-451.953	800.000	-0.129	0.374
-450.938	21.444	-0.234	-0.190
-449.924	21.051	-0.166	-0.134
-448.909	-110.276	0.163	-0.034
-447.895	-200.000	0.020	0.172
-446.880	-149.788	-0.158	0.012
-445.865	-58.958	-0.410	-0.177
-444.851	62.114	0.162	0.162
-443.836	207.708	0.038	-0.058
-442.822	-200.000	-0.012	-0.289
-441.807	800.000	-0.077	-0.332
-440.792	180.165	0.052	0.077
-439.778	-61.405	0.078	-0.033
-438.763	68.277	-0.259	0.265
-437.749	12.177	-0.239	-0.183
-436.734	-200.000	0.039	-0.197
-435.719	410.269	-0.154	-0.326
-434.705	-13.019	0.021	0.014
-433.690	317.733	-0.104	0.197
-432.676	294.235	0.114	0.207
-431.661	800.000	0.037	-0.103
-430.646	-1.676	0.017	0.012
-429.632	53.212	-0.156	0.149
-428.617	556.512	-0.158	0.381
-427.603	-147.600	0.182	-0.015
-426.588	-193.434	-0.251	0.002
-425.573	420.163	-0.091	-0.194
-424.559	194.016	-0.141	0.212
-423.544	-44.196	-0.160	-0.080
-422.530	47.988	0.102	0.095
-421.515	-117.121	-0.155	0.028
-420.500	-200.000	-0.043	0.264
-419.486	-200.000	-0.044	-0.252
-418.471	-200.000	-0.012	-0.111
-417.457	-64.163	-0.275	0.112
-416.442	800.000	-0.043	-0.172
-415.428	-88.976	0.252	0.074
-414.413	34.528	-0.143	0.124
-413.398	290.154	0.112	-0.203
-412.384	-23.566	-0.202	0.121
-411.369	-26.217	-0.058	0.034
-410.355	100.693	0.076	0.088
-409.340	515.569	0.060	-0.139
-408.325	-200.000	-0.025	-0.154
-407.311	-200.000	-0.014	0.063
-406.296	-34.439	0.383	0.209
-405.282	76.295	0.090	0.095
-404.267	-200.000	0.059	0.271
-403.252	-1.915	-0.121	0.085
-402.238	-49.790	-0.267	0.126
-401.223	159.150	0.081	0.112
-400.209	-200.000	-0.018	0.225
-399.194	800.000	0.060	-0.176
-398.179	-95.228	0.351	-0.094
-397.165	-169.475	0.309	-0.011
-396.150	493.867	0.082	-0.187
-395.136	28.333	0.310	-0.261
-394.121	243.813	-0.211	-0.352
-393.106	48.248	0.170	-0.158
-392.092	130.804	0.164	0.210
-391.077	-163.890	0.226	-0.011
-390.063	-200.000	0.009	-0.048
-389.048	-200.000	0.031	-0.225
-388.033	-63.075	-0.284	0.117
-387.019	96.194	0.183	0.208
-386.004	-83.215	-0.045	0.014
-384.990	-70.428	-0.308	0.116
-383.975	86.744	0.174	-0.191
-382.960	-141.955	-0.224	-0.022
-381.946	160.787	0.052	0.072
-380.931	800.000	0.060	-0.227
-379.917	-47.819	-0.350	0.169
-378.902	14.103	0.377	0.292
-377.888	611.825	-0.162	-0.404
-376.873	211.420	0.166	-0.260
-375.858	322.319	-0.309	-0.585
-374.844	800.000	-0.089	-0.308
-373.829	-200.000	-0.011	-0.096
-372.815	-200.000	-0.009	0.097
-371.800	348.851	0.195	0.383
-370.785	800.000	0.107	0.339
-369.771	180.809	0.291	-0.425
-368.756	302.238	0.129	0.237
-367.742	39.460	-0.090	-0.080
-366.727	-42.226	-0.189	-0.096
-365.712	-200.000	0.027	0.139
-364.698	142.497	-0.061	0.081
-363.683	-132.830	-0.453	0.058
-362.669	-100.522	-0.135	0.033
-361.654	-73.849	0.247	-0.089
-360.639	-200.000	0.003	0.039
-359.625	-55.773	0.356	-0.158
-358.610	228.912	0.192	-0.311
-357.596	295.145	-0.212	-0.385
-356.581	589.082	-0.043	0.106
-355.566	-200.000	-0.008	0.241
-354.552	353.270	-0.159	-0.314
-353.537	-200.000	-0.041	0.211
-352.523	-52.687	-0.050	0.023
-351.508	-164.326	-0.214	0.010
-350.493	199.959	-0.163	0.249
-349.479	-9.423	-0.324	0.215
-348.464	261.384	-0.052	-0.089
-347.450	-109.248	-0.134	-0.028
-346.435	-200.000	0.046	-0.512
-345.420	800.000	0.024	-0.082
-344.406	-50.544	-0.111	0.052
-343.391	-117.325	-0.157	-0.028
-342.377	15.098	-0.148	0.115
-341.362	-47.560	0.133	-0.064
-340.348	200.110	0.270	-0.412
-339.333	606.455	-0.069	-0.171
-338.318	-0.281	0.128	0.090
-337.304	157.176	-0.029	0.040
-336.289	495.045	0.042	0.097
-335.275	19.018	-0.173	0.138
-334.260	-181.737	-0.126	0.002
-333.245	153.155	-0.065	0.088
-332.231	276.856	-0.241	0.425
-331.216	800.000	-0.034	-0.106
-330.202	-44.667	0.156	-0.078
-329.187	-10.948	-0.173	0.113
-328.172	604.528	-0.139	-0.343
-327.158	19.646	-0.238	0.190
-326.143	76.554	0.226	-0.238
-325.129	0.352	0.384	0.272
-324.114	-116.329	0.207	-0.038
-323.099	-11.391	0.144	0.094
-322.085	800.000	-0.055	0.199
-321.070	-199.435	-0.104	0.001
-320.056	-7.241	0.232	-0.156
-319.041	-200.000	0.029	-0.170
-318.026	800.000	0.028	0.111
-317.012	-200.000	0.019	-0.344
-315.997	-67.547	-0.063	-0.024
-314.983	800.000	0.107	0.347
-313.968	-200.000	-0.007	-0.145
-312.953	-200.000	0.009	0.062
-311.939	20.577	-0.237	-0.190
-310.924	-11.393	0.192	-0.125
-309.910	-32.935	-0.182	-0.100
-308.895	-70.660	-0.199	-0.075
-307.880	81.132	0.162	0.174
-306.866	117.232	0.110	-0.134
-305.851	195.420	0.136	0.206
-304.837	-61.128	0.185	0.077
-303.822	202.989	-0.106	-0.162
-302.807	-133.021	0.529	-0.067
-301.793	28.362	0.103	-0.086
-300.778	800.000	-0.043	0.139
-299.764	-200.000	-0.038	0.275
-298.749	-200.000	-0.057	0.266
-297.735	25.570	0.209	0.173
-296.720	-200.000	0.010	-0.119
-295.705	11.323	0.158	0.120
-294.691	800.000	-0.032	-0.097
-293.676	-99.906	0.097	-0.024
-292.662	-13.956	-0.404	-0.259
-291.647	-130.766	-0.237	0.032
-290.632	198.567	0.059	-0.089
-289.618	199.376	0.008	-0.013
-288.603	-108.908	-0.101	0.021
-287.589	-3.149	-0.392	0.271
-286.574	-140.304	0.166	-0.017
-285.559	367.012	0.147	0.294
-284.545	-200.000	0.030	0.319
-283.530	200.310	0.190	0.289
-282.516	-12.590	0.220	0.143
-281.501	-64.317	0.198	0.080
-280.486	334.071	0.075	0.144
-279.472	-82.661	0.186	0.060
-278.457	179.910	0.115	0.167
-277.443	-60.222	-0.240	-0.101
-276.428	146.682	-0.035	0.047
-275.413	800.000	0.100	0.317
-274.399	62.025	-0.146	0.144
-273.384	800.000	-0.040	0.143
-272.370	-55.667	-0.100	-0.045
-271.355	544.400	0.197	-0.466
-270.340	800.000	0.005	0.017
-269.326	-88.110	-0.138	-0.041
-268.311	52.234	0.076	0.072
-267.297	145.832	0.190	0.253
-266.282	-124.302	0.056	0.009
-265.267	-200.000	-0.027	0.127
-264.253	-200.000	0.017	-0.313
-263.238	-19.234	0.283	0.174
-262.224	389.767	-0.095	0.194
-261.209	800.000	0.022	-0.064
-260.195	485.890	-0.080	0.181
-259.180	118.608	-0.133	-0.162
-258.165	800.000	0.011	-0.035
-257.151	-107.541	0.162	-0.035
-256.136	-200.000	-0.009	0.199
-255.122	32.074	-0.216	0.185
-254.107	19.685	0.191	0.152
-253.092	-112.532	-0.102	0.020
-252.078	-176.050	-0.219	0.006
-251.063	-200.000	-0.037	0.277
-250.049	27.315	-0.084	0.070
-249.034	302.208	0.035	0.064
-248.019	-128.748	0.206	-0.029
-247.005	-164.368	0.104	-0.005
-245.990	-37.827	-0.285	-0.150
-244.976	-22.668	0.080	0.048
-243.961	-24.059	0.131	0.077
-242.946	-51.406	0.398	0.184
-241.932	769.757	-0.134	-0.362
-240.917	676.078	0.130	0.333
-239.903	346.739	0.106	-0.207
-238.888	-200.000	-0.030	-0.281
-237.873	-30.816	0.071	0.040
-236.859	-177.008	0.130	-0.003
-235.844	-111.815	0.238	0.048
-234.830	-21.576	-0.066	-0.040
-233.815	517.996	0.076	-0.177
-232.800	-26.974	-0.369	-0.213
-231.786	-118.911	-0.108	-0.019
-230.771	800.000	-0.072	0.223
-229.757	-75.082	0.247	-0.087
-228.742	-200.000	-0.084	-0.445
-227.727	-180.459	-0.308	0.006
-226.713	-25.099	0.292	0.171
-225.698	-56.745	-0.424	-0.186
-224.684	436.882	-0.102	-0.219
-223.669	-95.907	0.035	0.009
-222.655	-78.541	0.284	0.096
-221.640	76.915	0.067	0.071
-220.625	584.204	-0.081	-0.197
-219.611	-39.542	0.162	0.084
-218.596	-200.000	-0.027	-0.123
-217.582	-200.000	-0.022	0.186
-216.567	215.469	0.062	0.097
-215.552	0.895	-0.309	-0.219
-214.538	-169.847	-0.438	-0.016
-213.523	-118.939	0.213	0.037
-212.509	254.204	0.262	0.443
-211.494	74.075	0.061	-0.063
-210.479	-11.230	-0.207	-0.135
-209.465	-8.686	-0.085	-0.056
-208.450	19.196	-0.344	-0.273
-207.436	-76.618	-0.146	-0.050
-206.421	-58.949	0.317	0.135
-205.406	-31.609	0.154	0.085
-204.392	752.162	-0.044	0.117
-203.377	-200.000	-0.019	0.195
-202.363	256.004	0.122	-0.206
-201.348	-0.529	0.098	-0.069
-200.333	-116.436	0.095	-0.017
-199.319	277.987	-0.238	-0.418
-198.304	800.000	-0.092	-0.266
-197.290	-112.768	0.104	-0.020
-196.275	-14.806	-0.066	-0.042
-195.260	-109.787	-0.033	-0.007
-194.246	-117.821	0.054	0.010
-193.231	800.000	0.122	0.364
-192.217	-200.000	-0.058	0.290
-191.202	347.170	-0.122	0.237
-190.187	113.801	0.226	0.272
-189.173	-38.654	0.281	-0.146
-188.158	-101.144	0.256	-0.062
-187.144	-102.924	-0.177	0.042
-186.129	-200.000	0.031	0.294
-185.114	283.004	0.146	-0.259
-184.100	-18.108	-0.153	-0.095
-183.085	-200.000	-0.012	-0.186
-182.071	-68.138	0.140	0.054
-181.056	-47.619	0.224	-0.107
-180.042	800.000	0.109	-0.323
-179.027	800.000	0.049	0.205
-178.012	-78.739	0.051	0.017
-176.998	130.716	0.065	0.082
-175.983	-200.000	-0.032	-0.146
-174.969	-76.535	0.104	-0.036
-173.954	800.000	0.072	0.290
-172.939	56.300	0.169	0.162
-171.925	-76.708	0.234	0.081
-170.910	24.921	-0.195	0.160
-169.896	-128.539	0.232	0.033
-168.881	-87.418	-0.299	0.089
-167.866	619.870	-0.102	-0.254
-166.852	133.887	0.214	-0.274
-165.837	-120.858	0.204	-0.034
-164.823	-200.000	-0.009	-0.171
-163.808	55.377	-0.202	-0.193
-162.793	104.772	0.071	-0.083
-161.779	-5.722	-0.103	-0.070
-160.764	-47.385	0.180	-0.086
-159.750	182.714	0.177	0.257
-158.735	-85.272	-0.061	0.019
-157.720	-12.707	-0.176	-0.113
-156.706	157.415	-0.252	-0.344
-155.691	-85.747	0.184	0.056
-154.677	130.531	-0.085	-0.107
-153.662	154.073	0.138	-0.186
-152.647	-92.611	0.204	0.056
-151.633	44.716	-0.056	0.051
-150.618	293.022	0.065	-0.117
-149.604	521.692	-0.063	0.146
-148.589	42.520	0.226	0.203
-147.574	-200.000	-0.021	-0.093
-146.560	259.723	-0.104	-0.178
-145.545	18.972	-0.129	-0.102
-144.531	-200.000	-0.009	0.259
-143.516	-14.788	-0.133	-0.084
-142.502	-119.929	-0.183	0.031
-141.487	-115.318	-0.340	0.063
-140.472	71.289	0.108	0.111
-139.458	-200.000	-0.019	0.241
-138.443	404.591	-0.073	0.152
-137.429	263.831	-0.143	-0.246
-136.414	-129.368	0.239	0.033
-135.399	-200.000	0.014	-0.124
-134.385	-99.664	-0.063	0.016
-133.370	-62.313	-0.185	-0.076
-132.356	-38.611	0.147	-0.076
-131.341	450.466	0.142	-0.309
-130.326	158.608	-0.205	-0.281
-129.312	-200.000	0.078	-0.463
-128.297	-109.737	-0.075	-0.016
-127.283	258.974	-0.075	-0.128
-126.268	16.025	0.018	-0.014
-125.253	-150.867	-0.348	0.026
-124.239	-27.975	-0.404	-0.231
-123.224	800.000	0.022	0.091
-122.210	-86.973	-0.493	0.148
-121.195	800.000	0.122	-0.467
-120.180	-102.975	-0.116	-0.027
-119.166	-57.596	0.021	-0.009
-118.151	-106.114	-0.082	0.018
-117.137	105.445	-0.152	0.177
-116.122	21.385	0.169	0.135
-115.107	-139.793	-0.193	0.020
-114.093	-166.838	0.181	-0.007
-113.078	-200.000	-0.088	0.419
-112.064	-200.000	-0.028	-0.209
-111.049	455.946	-0.033	-0.072
-110.034	239.300	-0.149	-0.244
-109.020	11.759	0.152	0.115
-108.005	800.000	0.089	-0.255
-106.991	39.756	0.116	-0.102
-105.976	-164.142	0.115	-0.005
-104.962	10.743	0.417	0.314
-103.947	-91.704	0.202	0.057
-102.932	590.695	0.151	0.368
-101.918	800.000	-0.077	-0.221
-100.903	279.436	0.012	0.021
-99.889	-64.176	-0.089	-0.036
-98.874	159.227	-0.048	-0.065
-97.859	20.331	-0.117	0.093
-96.845	-114.266	0.246	0.047
-95.830	-200.000	-0.012	-0.155
-94.816	348.582	0.072	0.140
-93.801	-101.573	0.259	-0.062
-92.786	-85.284	-0.180	0.055
-91.772	800.000	0.079	-0.228
-90.757	101.147	-0.137	0.157
-89.743	-90.639	-0.158	0.045
-88.728	-200.000	-0.013	0.385
-87.713	-38.766	0.197	0.102
-86.699	604.660	-0.041	0.101
-85.684	800.000	0.070	0.221
-84.670	-2.741	-0.247	-0.170
-83.655	36.285	0.338	-0.293
-82.640	-200.000	-0.002	0.163
-81.626	-112.028	-0.129	0.025
-80.611	-177.226	0.205	-0.005
-79.597	217.530	0.021	-0.033
-78.582	-200.000	0.079	0.396
-77.567	191.816	0.199	-0.295
-76.553	51.081	-0.195	0.181
-75.538	-143.687	0.240	0.022
-74.524	136.941	-0.193	-0.248
-73.509	800.000	-0.063	-0.224
-72.494	529.968	-0.112	0.260
-71.480	-92.890	-0.127	0.035
-70.465	-123.078	0.070	-0.011
-69.451	-200.000	-0.025	-0.219
-68.436	-200.000	0.017	-0.268
-67.422	-200.000	-0.022	0.182
-66.407	-200.000	0.027	-0.192
-65.392	-42.465	0.222	-0.111
-64.378	-115.617	0.185	-0.034
-63.363	-188.898	0.207	0.002
-62.349	-111.551	0.303	-0.061
-61.334	74.203	-0.970	-1.002
-60.319	-17.504	0.513	0.317
-59.305	-200.000	-0.308	-1.434
-58.290	154.680	0.770	1.040
-57.276	376.601	0.622	1.247
-56.261	-200.000	93.037	545.450
-55.246	499.374	1411.886	3198.581
-54.232	150.428	2629.159	3508.699
-53.217	103.671	2336.420	2696.087
-52.203	41.581	1951.359	1736.513
-51.188	35.461	1737.453	1498.502
-50.173	32.741	1692.792	1439.196
-49.159	50.050	1737.239	1610.980
-48.144	51.344	1754.148	1636.588
-47.130	35.046	1715.922	1476.500
-46.115	32.305	1701.901	1443.366
-45.100	32.138	1696.734	1437.648
-44.086	32.196	1693.087	1434.945
-43.071	32.218	1690.510	1432.872
-42.057	31.991	1689.061	1429.856
-41.042	32.055	1686.747	1428.333
-40.027	32.111	1684.647	1426.921
-39.013	32.159	1682.818	1425.677
-37.998	32.112	1681.032	1423.755
-36.984	32.080	1679.913	1422.505
-35.969	32.303	1678.438	1422.887
-34.954	32.263	1676.662	1421.026
-33.940	32.215	1675.238	1419.398
-32.925	32.161	1673.434	1417.408
-31.911	32.213	1671.716	1416.286
-30.896	32.257	1669.577	1414.750
-29.881	32.134	1668.478	1412.834
-28.867	32.201	1666.493	1411.607
-27.852	32.205	1664.679	1410.039
-26.838	32.156	1663.244	1408.399
-25.823	32.258	1661.551	1407.673
-24.809	32.200	1660.402	1406.215
-23.794	32.143	1659.077	1404.607
-22.779	32.227	1657.681	1404.000
-21.765	32.223	1655.699	1402.235
-20.750	32.102	1654.237	1400.041
-19.736	32.286	1652.300	1399.714
-18.721	32.282	1651.062	1398.579
-17.706	32.165	1650.189	1396.919
-16.692	32.245	1648.241	1395.805
-15.677	32.158	1646.994	1394.050
-14.663	32.286	1645.269	1393.485
-13.648	32.221	1644.035	1391.898
-12.633	32.194	1642.497	1390.344
-11.619	32.257	1640.462	1389.031
-10.604	32.270	1639.441	1388.210
-9.590	32.229	1638.378	1386.950
-8.575	32.237	1636.708	1385.540
-7.560	32.194	1635.540	1384.175
-6.546	32.298	1634.597	1384.094
-5.531	32.211	1633.466	1382.441
-4.517	32.184	1632.084	1381.015
-3.502	32.264	1630.385	1380.110
-2.487	32.346	1629.267	1379.711
-1.473	32.382	1617.719	1370.141
-0.458	29.924	1599.130	1336.620
0.556	25.110	1598.791	1300.621
1.571	22.110	1620.149	1295.792
2.586	20.702	1631.584	1294.357
3.600	18.295	1577.587	1234.080
4.615	10.415	1464.367	1092.474
5.629	2.694	1397.769	992.859
6.644	1.167	1389.483	977.051
7.659	1.045	1388.595	975.557
8.673	1.089	1386.783	974.477
9.688	0.939	1385.143	972.278
10.702	0.766	1382.276	969.072
11.717	3.987	1387.098	993.057
12.731	11.698	1398.781	1051.058
13.746	16.620	1405.905	1088.045
14.761	17.484	1405.442	1093.139
15.775	16.860	1403.750	1087.724
16.790	15.865	1401.499	1079.508
17.804	15.080	1398.861	1072.353
18.819	14.696	1397.699	1068.909
19.834	14.350	1396.178	1065.438
20.848	14.191	1394.698	1063.198
21.863	13.847	1393.783	1060.210
22.877	13.753	1392.123	1058.255
23.892	13.677	1391.352	1057.091
24.907	13.629	1390.446	1056.005
25.921	13.685	1389.181	1055.301
26.936	13.705	1388.413	1054.755
27.950	13.740	1387.569	1054.240
28.965	13.857	1387.010	1054.465
29.980	13.819	1385.851	1053.251
30.994	13.926	1384.290	1052.649
32.009	13.930	1383.653	1052.100
33.023	13.892	1382.572	1050.941
34.038	13.921	1381.207	1049.995
35.053	13.910	1379.837	1048.790
36.067	13.870	1379.235	1047.989
37.082	13.881	1377.957	1046.994
38.096	13.946	1376.891	1046.504
39.111	13.901	1376.555	1045.869
40.126	13.773	1375.891	1044.465
41.140	13.664	1375.269	1043.220
42.155	13.642	1374.946	1042.743
43.169	13.615	1374.855	1042.409
44.184	13.668	1374.124	1042.097
45.199	13.784	1373.575	1042.320
46.213	13.728	1372.917	1041.372
47.228	13.819	1371.799	1041.003
48.242	13.783	1370.729	1039.877
49.257	13.778	1369.313	1038.674
50.271	13.688	1367.889	1036.941
51.286	13.860	1366.487	1036.861
52.301	13.828	1365.299	1035.666
53.315	13.713	1364.036	1033.905
54.330	13.677	1363.472	1033.160
55.344	13.725	1362.047	1032.290
56.359	13.690	1360.896	1031.106
57.374	13.744	1359.896	1030.592
58.388	13.849	1358.971	1030.450
59.403	13.620	1358.749	1028.773
60.417	13.661	1357.670	1028.118
61.432	13.602	1357.196	1027.302
62.447	13.617	1356.153	1026.515
63.461	13.592	1354.555	1025.063
64.476	13.667	1353.274	1024.462
65.490	13.536	1352.711	1023.140
66.505	13.655	1350.846	1022.372
67.520	13.646	1349.558	1021.248
68.534	13.703	1348.231	1020.505
69.549	13.658	1347.596	1019.657
70.563	13.638	1346.585	1018.678
71.578	13.640	1345.138	1017.507
72.593	13.602	1344.380	1016.610
73.607	13.556	1343.675	1015.706
74.622	13.607	1342.648	1015.151
75.636	13.522	1341.800	1013.900
76.651	13.515	1341.151	1013.277
77.666	13.650	1340.141	1013.249
78.680	13.489	1340.049	1012.106
79.695	13.524	1339.061	1011.482
80.709	13.548	1338.411	1011.049
81.724	13.660	1337.539	1010.988
82.739	13.723	1335.889	1010.036
83.753	13.684	1335.258	1009.231
84.768	13.663	1334.383	1008.353
85.782	13.793	1333.241	1008.188
86.797	13.851	1331.824	1007.377
87.812	13.669	1330.858	1005.458
88.826	13.668	1329.680	1004.469
89.841	13.783	1328.274	1004.013
90.855	13.777	1327.642	1003.415
91.870	13.749	1326.800	1002.520
92.884	13.789	1325.661	1001.808
93.899	13.818	1324.720	1001.187
94.914	13.867	1323.834	1000.722
95.928	13.888	1323.226	1000.299
96.943	13.810	1322.374	999.098
97.957	13.803	1321.355	998.198
98.972	13.914	1319.959	997.725
99.987	13.810	1319.412	996.596
101.001	13.791	1318.687	995.848
102.016	13.824	1317.449	995.025
103.030	13.863	1317.073	994.880
104.045	13.906	1315.637	993.968
105.060	13.767	1314.535	992.216
106.074	13.821	1313.189	991.438
107.089	13.709	1312.120	989.872
108.103	13.688	1310.681	988.572
109.118	13.758	1308.942	987.592
110.133	13.764	1307.669	986.578
111.147	13.779	1306.383	985.608
112.162	13.716	1305.292	984.329
113.176	13.726	1304.382	983.610
114.191	13.783	1303.122	982.915
115.206	13.825	1302.505	982.611
116.220	13.790	1300.620	980.892
117.235	13.813	1299.703	980.249
118.249	13.780	1298.762	979.259
119.264	13.791	1298.094	978.736
120.279	13.805	1296.505	977.534
121.293	13.754	1295.259	976.207
122.308	13.718	1294.266	975.160
123.322	13.696	1293.476	974.349
124.337	13.818	1292.164	973.992
125.352	13.721	1291.285	972.675
126.366	13.766	1289.889	971.801
127.381	13.771	1288.762	970.896
128.395	13.777	1287.572	969.944
129.410	13.780	1286.697	969.217
130.424	13.747	1285.707	968.194
131.439	13.769	1285.041	967.738
132.454	13.792	1284.076	967.057
133.468	13.784	1283.310	966.347
134.483	13.840	1282.074	965.660
135.497	13.985	1280.741	965.413
136.512	13.941	1279.679	964.268
137.527	13.926	1278.242	963.014
138.541	13.818	1277.063	961.414
139.556	13.850	1275.604	960.418
140.570	13.890	1274.564	959.783
141.585	13.922	1273.189	958.845
142.600	13.984	1272.296	958.444
143.614	13.992	1271.488	957.797
144.629	13.975	1270.274	956.702
145.643	13.927	1268.929	955.328
146.658	13.860	1267.908	954.092
147.673	13.919	1266.769	953.486
148.687	13.927	1265.683	952.631
149.702	13.826	1264.173	950.833
150.716	13.884	1262.698	949.968
151.731	13.976	1261.244	949.316
152.746	13.796	1260.532	947.666
153.760	13.985	1258.656	947.250
154.775	13.894	1257.874	946.065
155.789	14.017	1256.732	945.818
156.804	14.100	1255.353	945.171
157.819	14.068	1254.689	944.403
158.833	14.002	1253.765	943.251
159.848	14.087	1252.850	942.960
160.862	14.118	1251.690	942.179
161.877	14.027	1250.850	940.951
162.892	13.994	1249.926	939.986
163.906	13.998	1248.881	939.138
164.921	14.016	1247.893	938.415
165.935	14.027	1246.945	937.679
166.950	14.067	1246.123	937.203
167.964	14.103	1245.243	936.659
168.979	14.073	1244.658	935.969
169.994	14.110	1243.758	935.417
171.008	14.152	1242.898	934.923
172.023	14.120	1242.386	934.279
173.037	14.134	1241.734	933.785
174.052	14.158	1240.589	932.974
175.067	14.222	1239.410	932.364
176.081	14.178	1238.404	931.280
177.096	14.161	1237.704	930.576
178.110	14.224	1236.238	929.741
179.125	14.147	1235.579	928.731
180.140	14.236	1234.111	928.046
181.154	14.354	1232.290	927.249
182.169	14.217	1231.690	925.955
183.183	14.250	1230.667	925.285
184.198	14.321	1229.205	924.500
185.213	14.351	1228.156	923.793
186.227	14.418	1226.933	923.162
187.242	14.355	1226.078	922.091
188.256	14.399	1225.265	921.643
189.271	14.382	1224.288	920.730
190.286	14.371	1223.071	919.672
191.300	14.260	1222.188	918.315
192.315	14.226	1221.804	917.758
193.329	14.325	1220.729	917.413
194.344	14.301	1220.440	916.986
195.359	14.264	1220.016	916.381
196.373	14.322	1219.523	916.248
197.388	14.431	1218.665	916.125
198.402	14.570	1218.354	916.572
199.417	14.582	1217.535	915.940
200.432	14.583	1216.593	915.155
201.446	14.602	1215.729	914.527
202.461	14.578	1214.976	913.749
203.475	14.652	1214.000	913.341
204.490	14.665	1212.638	912.305
205.504	14.613	1211.384	911.000
206.519	14.685	1210.087	910.336
207.534	14.684	1208.650	909.169
208.548	14.622	1208.215	908.422
209.563	14.515	1208.073	907.653
210.577	14.665	1206.703	907.356
211.592	14.627	1205.725	906.337
212.607	14.738	1204.984	906.302
213.621	14.688	1204.150	905.323
214.636	14.697	1203.140	904.531
215.650	14.705	1202.236	903.818
216.665	14.798	1201.302	903.537
217.680	14.735	1200.653	902.626
218.694	14.772	1199.285	901.719
219.709	14.793	1198.830	901.410
220.723	14.854	1197.646	900.768
221.738	14.838	1197.185	900.258
222.753	14.776	1196.844	899.588
223.767	14.822	1195.876	899.029
224.782	14.960	1194.709	898.812
225.796	14.915	1194.529	898.358
226.811	14.851	1194.100	897.607
227.826	14.985	1192.808	897.276
228.840	15.010	1191.951	896.689
229.855	14.952	1191.525	895.978
230.869	14.943	1190.551	895.119
231.884	14.881	1189.836	894.170
232.899	14.962	1188.805	893.747
233.913	14.857	1188.221	892.671
234.928	14.924	1187.685	892.545
235.942	14.880	1187.036	891.741
236.957	14.849	1186.162	890.843
237.972	14.916	1185.049	890.285
238.986	14.905	1184.862	890.004
240.001	14.890	1183.957	889.168
241.015	14.999	1182.948	888.912
242.030	14.999	1182.650	888.610
243.045	15.061	1181.181	887.754
244.059	15.031	1180.979	887.365
245.074	15.055	1179.811	886.535
246.088	15.074	1178.793	885.795
247.103	15.166	1177.827	885.477
248.117	15.145	1177.501	885.042
249.132	15.168	1177.089	884.774
250.147	15.262	1175.938	884.326
251.161	15.318	1175.128	883.933
252.176	15.236	1174.739	883.130
253.190	15.323	1173.617	882.668
254.205	15.244	1173.577	882.147
255.220	15.300	1172.736	881.730
256.234	15.381	1171.972	881.502
257.249	15.428	1171.089	881.009
258.263	15.403	1170.544	880.387
259.278	15.397	1169.793	879.713
260.293	15.399	1169.654	879.541
261.307	15.417	1168.785	878.903
262.322	15.469	1167.875	878.418
263.336	15.460	1167.371	877.909
264.351	15.604	1166.703	878.085
265.366	15.595	1166.029	877.451
266.380	15.553	1165.390	876.674
267.395	15.513	1164.721	875.885
268.409	15.541	1163.908	875.342
269.424	15.482	1163.273	874.477
270.439	15.462	1163.079	874.152
271.453	15.565	1161.484	873.410
272.468	15.591	1161.002	873.107
273.482	15.526	1160.645	872.424
274.497	15.592	1159.802	872.057
275.512	15.710	1158.843	871.870
276.526	15.677	1158.125	871.083
277.541	15.626	1157.526	870.291
278.555	15.653	1156.825	869.826
279.570	15.775	1155.893	869.674
280.585	15.669	1155.231	868.555
281.599	15.827	1154.030	868.388
282.614	15.776	1153.088	867.340
283.628	15.621	1152.218	865.812
284.643	15.761	1151.374	865.824
285.657	15.777	1150.368	865.073
286.672	15.841	1149.355	864.559
287.687	15.824	1148.713	863.917
288.701	15.925	1147.601	863.522
289.716	15.945	1147.308	863.327
290.730	15.874	1146.439	862.230
291.745	15.974	1145.605	862.040
292.760	15.925	1144.806	861.111
293.774	15.995	1144.146	860.898
294.789	15.926	1144.011	860.368
295.803	16.002	1142.845	859.803
296.818	16.006	1142.228	859.282
297.833	15.978	1141.422	858.455
298.847	16.046	1140.804	858.260
299.862	15.924	1140.211	857.119
300.876	16.031	1139.674	857.185
301.891	16.060	1138.924	856.688
302.906	16.201	1137.878	856.546
303.920	16.128	1137.208	855.595
304.935	16.185	1136.486	855.264
305.949	16.188	1136.119	854.929
306.964	16.179	1135.343	854.223
307.979	16.227	1134.533	853.781
308.993	16.178	1133.844	852.936
310.008	16.253	1133.334	852.858
311.022	16.342	1131.750	852.038
312.037	16.200	1131.141	850.788
313.052	16.285	1130.392	850.579
314.066	16.254	1129.327	849.549
315.081	16.278	1128.484	848.957
316.095	16.231	1128.311	848.516
317.110	16.203	1127.591	847.760
318.125	16.198	1126.603	846.918
319.139	16.219	1125.636	846.218
320.154	16.300	1124.848	845.958
321.168	16.282	1124.598	845.607
322.183	16.320	1123.866	845.169
323.197	16.218	1123.321	844.175
324.212	16.320	1122.893	844.290
325.227	16.296	1122.102	843.500
326.241	16.341	1121.461	843.168
327.256	16.359	1120.577	842.519
328.270	16.208	1120.096	841.331
329.285	16.392	1118.798	841.194
330.300	16.428	1117.913	840.634
331.314	16.462	1116.451	839.630
332.329	16.330	1116.068	838.611
333.343	16.383	1115.388	838.292
334.358	16.391	1114.294	837.433
335.373	16.413	1113.588	836.937
336.387	16.488	1112.984	836.781
337.402	16.618	1111.870	836.513
338.416	16.611	1111.016	835.764
339.431	16.588	1110.706	835.342
340.446	16.573	1109.928	834.610
341.460	16.585	1109.341	834.150
342.475	16.677	1108.234	833.696
343.489	16.742	1107.288	833.236
344.504	16.730	1106.550	832.546
345.519	16.756	1105.648	831.918
346.533	16.794	1104.660	831.291
347.548	16.831	1104.095	830.974
348.562	16.900	1103.403	830.715
349.577	16.745	1102.502	829.208
350.592	16.815	1101.580	828.783
351.606	16.745	1101.594	828.376
352.621	16.695	1100.822	827.479
353.635	16.716	1099.988	826.881
354.650	16.795	1099.128	826.548
355.665	16.804	1098.134	825.772
356.679	16.898	1097.601	825.751
357.694	16.813	1097.238	824.992
358.708	16.838	1096.593	824.557
359.723	16.854	1095.715	823.903
360.738	16.839	1095.289	823.437
361.752	16.941	1094.177	823.021
362.767	16.898	1094.033	822.630
363.781	17.039	1093.384	822.756
364.796	17.026	1092.802	822.181
365.810	17.070	1092.128	821.814
366.825	17.120	1091.620	821.604
367.840	17.123	1091.027	821.095
368.854	17.088	1090.590	820.529
369.869	17.109	1089.742	819.915
370.883	17.294	1088.263	819.622
371.898	17.205	1087.758	818.742
372.913	17.073	1087.517	817.850
373.927	17.305	1086.788	818.350
374.942	17.150	1086.231	817.113
375.956	17.240	1085.675	817.053
376.971	17.365	1084.954	817.037
377.986	17.132	1084.835	815.757
379.000	17.225	1084.590	815.946
380.015	17.280	1083.678	815.455
381.029	17.212	1082.734	814.344
382.044	17.266	1081.978	813.964
383.059	17.443	1081.296	814.223
384.073	17.455	1080.189	813.376
385.088	17.426	1079.604	812.724
386.102	17.399	1078.537	811.722
387.117	17.416	1077.520	810.966
388.132	17.350	1077.007	810.191
389.146	17.427	1075.892	809.649
390.161	17.355	1075.507	808.943
391.175	17.384	1074.942	808.588
392.190	17.430	1074.107	808.106
393.205	17.416	1073.292	807.353
394.219	17.466	1072.375	806.831
395.234	17.575	1071.589	806.682
396.248	17.461	1070.705	805.407
397.263	17.467	1069.570	804.511
398.278	17.509	1068.926	804.151
399.292	17.489	1068.067	803.340
400.307	17.521	1066.986	802.608
401.321	17.470	1066.844	802.189
402.336	17.550	1066.269	802.061
403.350	17.523	1065.792	801.507
404.365	17.571	1065.205	801.219
405.380	17.636	1063.871	800.451
406.394	17.680	1063.340	800.186
407.409	17.626	1062.518	799.246
408.423	17.641	1061.996	798.852
409.438	17.699	1061.495	798.675
410.453	17.776	1060.624	798.309
411.467	17.709	1060.065	797.506
412.482	17.690	1059.258	796.741
413.496	17.871	1058.410	796.873
414.511	17.866	1057.799	796.322
415.526	17.934	1057.352	796.233
416.540	17.966	1057.020	796.062
417.555	17.809	1056.792	795.087
418.569	17.892	1055.942	794.763
419.584	17.895	1055.679	794.511
420.599	17.882	1054.973	793.849
421.613	102.720	1321.227	1460.732
422.628	94.709	1359.981	1460.837
