DTS Sentinel unit serial number:	SN413079Multiplexer serial number:	ORYXHardware model number:	OX4-SRSoftware version number:	ORYX F/W v4.00 Oryx Data Collector v3.7.2.0data status	okinstallation	princeton_trtdifferential loss correction	single-endedforward channel	channel 2reverse channel	N/Adate	2019/09/19time	10:43:34forward acquisition time	60.00reverse acquisition time	0.00gamma	496.2192k internal	0.2341k external	0.2341temperature offset calibration	1.0005default loss term (dB/km)	0.3790temperature slope calibration	1.0000multiplexer offset coefficient	1.0000multiplexer slope coefficient	1.0000fibre end	0.00T internal ref (°C)	24.62T ext. ref 1 (°C)	0.74T ext. ref 2 (°C)	20.14length (m)	temperature (°C)	Stokes	anti-Stokes-747.200	326.772	0.078	-0.150
-746.185	275.838	-0.159	0.283
-745.171	-140.116	0.272	0.029
-744.156	92.319	-0.217	0.246
-743.142	-108.611	-0.395	0.085
-742.127	-113.137	0.174	-0.034
-741.112	-200.000	0.022	-0.202
-740.098	95.692	-0.223	-0.255
-739.083	-200.000	0.055	-0.313
-738.069	-141.645	-0.266	0.027
-737.054	143.521	-0.028	0.037
-736.039	-200.000	-0.042	-0.187
-735.025	132.740	0.227	-0.294
-734.010	800.000	-0.117	-0.504
-732.996	-151.347	0.134	0.010
-731.981	131.243	-0.130	-0.167
-730.966	18.539	-0.146	0.117
-729.952	233.227	0.019	-0.031
-728.937	-172.113	0.049	-0.002
-727.923	-66.561	-0.373	-0.148
-726.908	-55.549	0.119	0.053
-725.894	292.021	0.099	-0.181
-724.879	-200.000	0.006	-0.033
-723.864	138.462	-0.161	0.212
-722.850	-200.000	-0.012	-0.168
-721.835	-156.171	-0.170	-0.011
-720.821	-112.085	-0.134	0.027
-719.806	-22.091	-0.336	-0.204
-718.791	-200.000	0.000	-0.169
-717.777	150.061	0.166	-0.226
-716.762	-57.649	-0.144	-0.063
-715.748	-200.000	-0.010	-0.118
-714.733	-160.323	0.194	-0.010
-713.718	-50.645	0.058	-0.027
-712.704	-76.345	-0.148	-0.052
-711.689	-200.000	0.003	-0.107
-710.675	-7.165	0.214	-0.145
-709.660	-200.000	0.034	-0.420
-708.645	-200.000	-0.050	0.252
-707.631	-85.502	0.307	0.096
-706.616	-200.000	0.006	-0.146
-705.602	44.426	-0.190	-0.174
-704.587	-200.000	0.061	-0.320
-703.572	-183.264	0.256	-0.004
-702.558	78.644	-0.083	-0.089
-701.543	427.419	0.059	0.127
-700.529	2.694	-0.248	0.180
-699.514	-123.450	-0.030	0.005
-698.499	800.000	0.058	-0.190
-697.485	-200.000	0.043	0.485
-696.470	507.173	-0.024	-0.055
-695.456	-76.362	0.218	0.077
-694.441	95.705	-0.064	-0.073
-693.426	-72.105	0.364	0.135
-692.412	-68.106	-0.292	-0.114
-691.397	-163.387	-0.138	-0.007
-690.383	78.171	0.182	0.194
-689.368	-70.278	0.169	-0.064
-688.354	-142.739	0.170	-0.017
-687.339	800.000	-0.057	-0.173
-686.324	-200.000	-0.028	-0.270
-685.310	-92.110	-0.277	-0.078
-684.295	-114.999	0.159	-0.030
-683.281	8.757	0.137	-0.104
-682.266	159.947	-0.280	-0.390
-681.251	800.000	-0.013	0.055
-680.237	121.687	-0.091	-0.114
-679.222	-88.080	0.319	-0.096
-678.208	-168.255	0.367	-0.014
-677.193	-25.623	0.176	-0.104
-676.178	-200.000	0.034	-0.282
-675.164	118.921	-0.169	-0.208
-674.149	91.307	-0.148	-0.166
-673.135	-59.436	0.325	-0.140
-672.120	-108.569	-0.198	-0.042
-671.105	379.164	-0.118	0.242
-670.091	113.324	0.169	-0.205
-669.076	68.637	-0.111	0.114
-668.062	5.093	-0.369	-0.272
-667.047	-200.000	-0.008	-0.343
-666.032	-35.589	0.369	-0.200
-665.018	800.000	0.082	0.230
-664.003	404.230	-0.010	-0.021
-662.989	-175.182	0.256	0.007
-661.974	163.050	0.022	0.031
-660.959	-200.000	0.007	-0.222
-659.945	-200.000	-0.039	0.274
-658.930	733.355	0.148	-0.395
-657.916	275.457	0.128	-0.227
-656.901	-191.282	-0.185	0.002
-655.886	-200.000	0.006	-0.046
-654.872	-179.503	-0.212	-0.005
-653.857	-200.000	-0.053	-0.256
-652.843	164.329	-0.282	-0.397
-651.828	-200.000	-0.071	-0.357
-650.814	41.381	0.172	0.155
-649.799	-71.940	-0.066	0.024
-648.784	395.267	0.061	-0.126
-647.770	645.282	-0.047	-0.120
-646.755	-17.176	0.077	0.048
-645.741	116.025	-0.222	0.272
-644.726	800.000	0.138	0.591
-643.711	40.731	0.207	0.186
-642.697	-20.969	0.066	0.040
-641.682	-101.846	-0.134	0.032
-640.668	54.238	0.173	0.166
-639.653	800.000	-0.103	0.334
-638.638	530.449	0.046	0.108
-637.624	-114.945	-0.284	-0.054
-636.609	-91.787	-0.323	-0.092
-635.595	-200.000	0.035	0.240
-634.580	282.318	-0.051	-0.091
-633.565	667.352	-0.212	0.547
-632.551	86.060	-0.134	0.147
-631.536	75.220	-0.068	-0.072
-630.522	237.620	0.050	0.082
-629.507	4.892	0.199	0.146
-628.492	-159.489	-0.077	0.004
-627.478	189.865	-0.084	-0.126
-626.463	-91.595	-0.175	0.050
-625.449	800.000	0.047	-0.170
-624.434	-200.000	0.011	0.118
-623.419	731.782	0.026	0.071
-622.405	800.000	0.078	-0.285
-621.390	-200.000	-0.004	-0.212
-620.376	135.393	0.116	0.150
-619.361	-53.178	0.049	-0.023
-618.346	-7.072	-0.190	-0.128
-617.332	-177.123	-0.199	0.005
-616.317	203.997	0.082	0.127
-615.303	-200.000	-0.054	0.290
-614.288	63.566	0.199	0.200
-613.273	123.627	0.079	0.099
-612.259	494.640	-0.136	0.312
-611.244	800.000	-0.044	-0.162
-610.230	44.180	-0.155	0.141
-609.215	-68.328	-0.136	0.053
-608.201	46.262	0.074	0.068
-607.186	-41.132	-0.335	0.172
-606.171	-139.559	-0.118	0.013
-605.157	-60.415	-0.427	0.181
-604.142	-71.674	0.182	0.068
-603.128	-54.491	-0.164	0.074
-602.113	-143.644	0.137	0.013
-601.098	-142.153	0.244	0.024
-600.084	23.910	0.048	0.040
-599.069	13.812	-0.222	-0.172
-598.055	-200.000	0.042	0.263
-597.040	-137.057	0.086	0.010
-596.025	-200.000	-0.020	0.260
-595.011	-50.355	-0.116	0.054
-593.996	800.000	0.094	-0.356
-592.982	-3.251	0.205	0.142
-591.967	-200.000	-0.023	0.137
-590.952	355.229	-0.117	-0.233
-589.938	-171.166	0.140	0.005
-588.923	-64.823	-0.312	-0.126
-587.909	-106.862	0.214	0.047
-586.894	-164.690	-0.361	0.016
-585.879	-156.491	-0.014	0.001
-584.865	-58.696	0.189	0.081
-583.850	-71.354	0.059	0.022
-582.836	238.992	0.088	-0.145
-581.821	-66.908	0.284	-0.112
-580.806	-200.000	-0.030	-0.309
-579.792	227.412	0.202	-0.326
-578.777	537.480	0.081	-0.191
-577.763	777.796	0.067	0.183
-576.748	-200.000	-0.018	0.111
-575.733	-30.181	0.074	0.042
-574.719	77.076	0.119	-0.126
-573.704	166.303	0.046	0.064
-572.690	37.490	0.095	0.084
-571.675	-200.000	-0.050	-0.239
-570.661	-157.808	0.019	-0.001
-569.646	-164.126	-0.286	0.013
-568.631	41.669	-0.125	0.113
-567.617	-97.740	-0.304	-0.078
-566.602	-200.000	-0.034	0.173
-565.588	-8.349	0.039	-0.026
-564.573	103.611	-0.007	-0.008
-563.558	-119.389	0.059	-0.010
-562.544	34.034	-0.191	0.165
-561.529	76.780	0.239	0.253
-560.515	-95.151	0.414	0.111
-559.500	-119.986	-0.299	0.051
-558.485	-60.352	0.187	0.079
-557.471	124.937	0.090	0.112
-556.456	124.729	-0.155	0.194
-555.442	12.484	0.240	0.184
-554.427	44.584	-0.083	-0.076
-553.412	131.189	0.103	0.131
-552.398	-158.673	0.064	-0.004
-551.383	800.000	-0.034	-0.124
-550.369	401.469	0.062	-0.130
-549.354	-200.000	-0.002	0.146
-548.339	-74.798	0.272	-0.097
-547.325	582.317	0.084	-0.205
-546.310	-14.343	-0.105	-0.067
-545.296	156.658	-0.103	0.141
-544.281	800.000	0.058	0.208
-543.266	365.295	-0.071	-0.142
-542.252	800.000	0.089	-0.320
-541.237	-168.145	-0.168	0.006
-540.223	198.640	0.046	-0.070
-539.208	46.870	-0.077	0.071
-538.193	422.010	0.084	-0.178
-537.179	-184.011	-0.101	-0.002
-536.164	81.795	-0.310	-0.334
-535.150	-65.950	0.154	0.061
-534.135	-66.460	-0.121	-0.048
-533.121	-60.617	-0.108	0.045
-532.106	800.000	0.040	-0.149
-531.091	450.046	-0.097	-0.213
-530.077	-66.525	-0.389	0.154
-529.062	-113.615	0.112	0.022
-528.048	-70.403	-0.234	0.088
-527.033	-96.481	-0.238	0.063
-526.018	-26.827	-0.256	-0.149
-525.004	-51.511	0.268	0.124
-523.989	-29.031	-0.175	-0.100
-522.975	-200.000	0.020	-0.204
-521.960	561.902	0.082	-0.197
-520.945	458.445	0.081	-0.178
-519.931	-126.432	-0.175	0.026
-518.916	-200.000	-0.288	-0.000
-517.902	-161.400	-0.129	-0.007
-516.887	-66.544	0.071	0.028
-515.872	7.218	0.419	0.311
-514.858	-60.666	0.062	0.026
-513.843	-48.129	-0.170	0.082
-512.829	-200.000	-0.002	-0.077
-511.814	-135.231	-0.404	-0.048
-510.799	800.000	0.064	-0.238
-509.785	15.588	0.179	0.139
-508.770	-81.693	-0.210	-0.068
-507.756	604.473	-0.058	-0.143
-506.741	115.870	0.014	0.017
-505.726	-78.216	-0.038	-0.013
-504.712	16.156	-0.131	-0.102
-503.697	800.000	-0.057	-0.209
-502.683	82.207	0.044	0.048
-501.668	-12.243	-0.028	-0.018
-500.653	440.112	-0.100	-0.217
-499.639	-200.000	-0.012	-0.169
-498.624	-44.559	-0.105	-0.052
-497.610	-144.628	-0.244	0.022
-496.595	131.914	0.125	0.159
-495.581	39.104	0.196	-0.174
-494.566	13.308	-0.333	-0.256
-493.551	-85.900	0.137	-0.042
-492.537	-140.693	0.216	0.022
-491.522	-200.000	0.000	0.028
-490.508	3.887	0.242	0.176
-489.493	-88.464	-0.207	0.061
-488.478	-53.639	0.323	0.146
-487.464	0.125	-0.061	-0.043
-486.449	189.162	-0.234	-0.347
-485.435	-200.000	-0.005	0.031
-484.420	87.218	0.225	-0.246
-483.405	-200.000	0.022	-0.300
-482.391	173.402	0.310	-0.443
-481.376	-111.425	-0.189	-0.038
-480.362	-37.417	-0.079	0.042
-479.347	-42.905	0.245	0.123
-478.332	260.286	0.193	0.331
-477.318	-62.902	-0.273	-0.112
-476.303	359.292	-0.046	0.091
-475.289	-200.000	0.048	-0.234
-474.274	-64.728	-0.074	-0.030
-473.259	-50.160	-0.265	-0.124
-472.245	-114.319	-0.328	0.063
-471.230	-145.128	-0.142	0.013
-470.216	-200.000	0.011	0.077
-469.201	-8.866	-0.194	0.129
-468.186	139.927	0.079	-0.103
-467.172	-200.000	-0.028	0.369
-466.157	-112.035	-0.344	0.069
-465.143	-200.000	-0.014	-0.141
-464.128	-109.287	0.287	-0.060
-463.113	-172.949	0.195	0.006
-462.099	40.063	0.315	-0.281
-461.084	125.936	0.149	-0.186
-460.070	14.782	0.094	0.073
-459.055	-200.000	-0.030	0.397
-458.040	110.748	-0.060	-0.071
-457.026	-200.000	-0.016	0.194
-456.011	-71.286	-0.417	0.155
-454.997	-13.680	0.212	-0.136
-453.982	-162.179	0.345	-0.017
-452.968	-48.212	0.437	0.209
-451.953	213.500	0.065	-0.102
-450.938	-29.260	0.085	-0.048
-449.924	-13.298	0.185	-0.119
-448.909	-77.502	0.147	-0.051
-447.895	242.617	-0.031	0.051
-446.880	-24.905	0.140	-0.082
-445.865	-200.000	-0.000	-0.053
-444.851	-200.000	0.012	-0.228
-443.836	-200.000	0.015	-0.119
-442.822	-104.212	0.020	-0.005
-441.807	-167.109	-0.152	-0.006
-440.792	73.812	-0.194	0.201
-439.778	-125.947	0.356	-0.053
-438.763	800.000	-0.026	0.092
-437.749	-162.774	-0.136	-0.007
-436.734	443.937	-0.074	-0.160
-435.719	216.407	0.087	-0.137
-434.705	120.788	-0.096	0.118
-433.690	-200.000	0.002	0.022
-432.676	-32.798	0.209	-0.115
-431.661	-200.000	0.000	-0.312
-430.646	268.351	-0.122	-0.211
-429.632	-200.000	0.024	0.110
-428.617	-61.834	0.333	0.138
-427.603	110.487	-0.119	-0.142
-426.588	-105.729	0.058	-0.013
-425.573	-149.433	0.016	0.001
-424.559	-200.000	0.015	-0.400
-423.544	-32.921	-0.323	-0.177
-422.530	-200.000	0.001	-0.193
-421.515	75.401	0.173	-0.181
-420.500	-34.591	-0.169	-0.091
-419.486	52.703	0.137	-0.130
-418.471	-200.000	-0.009	-0.249
-417.457	-24.304	0.126	-0.075
-416.442	-44.241	0.304	0.151
-415.428	-111.663	-0.158	-0.032
-414.413	-120.678	0.204	-0.034
-413.398	276.566	-0.031	0.055
-412.384	11.250	0.008	-0.006
-411.369	86.700	0.106	-0.116
-410.355	-97.269	-0.278	-0.072
-409.340	-100.021	0.162	-0.040
-408.325	211.950	0.092	0.144
-407.311	-170.628	-0.527	0.018
-406.296	41.489	-0.050	-0.044
-405.282	-70.765	-0.087	0.032
-404.267	195.707	-0.305	-0.459
-403.252	6.735	-0.048	0.035
-402.238	-84.962	0.266	0.083
-401.223	-200.000	-0.010	0.292
-400.209	90.021	0.121	0.133
-399.194	-200.000	0.063	0.275
-398.179	-100.183	0.009	-0.002
-397.165	465.186	0.040	0.088
-396.150	477.060	0.223	-0.499
-395.136	-28.970	-0.078	0.044
-394.121	-40.992	0.127	0.065
-393.106	63.120	-0.086	-0.086
-392.092	-38.469	0.074	0.039
-391.077	800.000	0.052	0.218
-390.063	-74.090	0.059	-0.021
-389.048	116.972	0.478	0.581
-388.033	-62.610	-0.353	0.145
-387.019	170.136	-0.250	0.353
-386.004	220.320	0.077	-0.122
-384.990	260.705	-0.094	0.161
-383.975	145.805	0.065	0.085
-382.960	-63.055	-0.300	0.122
-381.946	136.166	0.255	-0.329
-380.931	44.777	-0.054	0.049
-379.917	-77.373	-0.068	0.023
-378.902	800.000	0.060	-0.225
-377.888	-165.123	0.157	0.007
-376.873	-39.745	-0.079	0.041
-375.858	-171.871	0.136	-0.004
-374.844	203.283	-0.156	-0.239
-373.829	-56.274	0.215	0.094
-372.815	249.942	0.221	-0.370
-371.800	139.999	0.208	-0.270
-370.785	-34.464	0.176	-0.095
-369.771	-58.787	0.225	0.096
-368.756	800.000	-0.053	0.149
-367.742	-134.704	-0.390	0.047
-366.727	-11.423	-0.323	-0.210
-365.712	-156.975	-0.144	-0.009
-364.698	56.433	-0.029	-0.028
-363.683	40.007	0.076	0.067
-362.669	403.120	0.104	-0.215
-361.654	325.046	-0.035	0.067
-360.639	117.357	0.095	-0.116
-359.625	-166.375	0.152	0.006
-358.610	-104.816	0.059	0.013
-357.596	329.112	-0.161	0.306
-356.581	-200.000	0.013	0.245
-355.566	139.537	-0.212	0.276
-354.552	-113.429	-0.216	-0.042
-353.537	-167.872	0.044	-0.002
-352.523	226.224	-0.189	0.302
-351.508	-200.000	0.045	0.239
-350.493	-17.220	-0.056	-0.035
-349.479	-191.744	-0.159	0.002
-348.464	102.695	-0.119	-0.138
-347.450	-200.000	0.011	-0.324
-346.435	6.516	0.431	0.316
-345.420	547.006	-0.028	0.066
-344.406	-141.424	-0.197	0.020
-343.391	19.837	0.289	0.230
-342.377	-48.574	-0.034	0.016
-341.362	800.000	-0.056	0.172
-340.348	-107.429	-0.120	-0.026
-339.333	71.998	0.216	0.222
-338.318	-200.000	0.110	0.596
-337.304	31.625	-0.060	-0.051
-336.289	-76.112	0.071	0.025
-335.275	383.016	-0.059	-0.119
-334.260	81.227	0.097	-0.103
-333.245	800.000	-0.051	-0.142
-332.231	-200.000	-0.022	0.122
-331.216	-46.700	0.226	0.109
-330.202	-200.000	-0.012	-0.367
-329.187	122.174	-0.129	0.159
-328.172	-200.000	0.308	0.001
-327.158	196.893	-0.077	-0.116
-326.143	-200.000	0.063	-0.355
-325.129	344.774	-0.120	0.233
-324.114	-88.198	0.208	-0.061
-323.099	-116.303	-0.193	0.035
-322.085	-200.000	0.008	0.113
-321.070	-169.189	-0.229	0.008
-320.056	12.518	-0.086	0.066
-319.041	-126.324	0.185	-0.027
-318.026	168.116	0.078	0.109
-317.012	-200.000	-0.007	-0.158
-315.997	-0.156	-0.410	-0.287
-314.983	230.596	0.188	-0.303
-313.968	209.533	-0.030	0.047
-312.953	265.302	0.080	0.138
-311.939	-37.600	0.099	-0.052
-310.924	-89.740	0.148	-0.043
-309.910	17.390	0.092	-0.072
-308.895	-83.684	-0.106	0.033
-307.880	162.517	0.018	-0.024
-306.866	-114.481	0.228	0.043
-305.851	229.353	-0.077	0.124
-304.837	800.000	-0.107	0.303
-303.822	-200.000	-0.013	-0.118
-302.807	250.026	0.098	-0.164
-301.793	800.000	0.022	-0.071
-300.778	-110.934	-0.108	-0.022
-299.764	-158.337	0.269	0.015
-298.749	48.216	0.218	-0.200
-297.735	-57.261	-0.205	0.089
-296.720	27.832	0.179	-0.149
-295.705	-200.000	-0.010	0.249
-294.691	-54.672	0.245	0.109
-293.676	91.612	-0.306	-0.339
-292.662	219.701	0.149	-0.234
-291.647	516.432	0.045	-0.103
-290.632	-200.000	0.022	-0.144
-289.618	-16.668	-0.179	0.112
-288.603	-53.163	0.169	-0.076
-287.589	223.353	0.074	0.118
-286.574	-111.714	-0.185	0.037
-285.559	92.228	0.157	-0.174
-284.545	-145.812	0.394	-0.034
-283.530	37.530	-0.092	0.080
-282.516	-39.827	-0.201	0.103
-281.501	253.097	0.005	-0.009
-280.486	364.198	-0.057	0.113
-279.472	665.607	0.148	0.375
-278.457	-200.000	-0.016	-0.096
-277.443	-10.926	-0.190	-0.124
-276.428	-150.114	0.059	-0.005
-275.413	400.900	0.128	-0.264
-274.399	-12.273	0.357	-0.230
-273.384	178.622	-0.110	-0.159
-272.370	-88.342	-0.073	-0.021
-271.355	48.251	-0.144	0.133
-270.340	280.935	0.223	0.393
-269.326	-82.067	0.229	0.074
-268.311	-148.827	-0.407	0.032
-267.297	-37.374	-0.069	-0.036
-266.282	-33.265	-0.212	-0.116
-265.267	305.885	0.091	0.166
-264.253	316.308	0.069	-0.129
-263.238	-200.000	0.008	-0.213
-262.224	291.596	-0.037	0.067
-261.209	-200.000	0.003	-0.245
-260.195	-91.260	-0.297	-0.084
-259.180	363.312	-0.141	0.279
-258.165	493.368	-0.070	-0.158
-257.151	-5.822	0.388	0.261
-256.136	9.571	-0.082	-0.061
-255.122	-40.336	0.097	0.049
-254.107	800.000	0.093	0.287
-253.092	800.000	-0.071	0.232
-252.078	49.953	0.122	0.113
-251.063	322.541	-0.130	-0.243
-250.049	-165.012	-0.350	0.015
-249.034	-200.000	-0.010	-0.519
-248.019	117.879	0.278	0.336
-247.005	47.435	0.080	-0.074
-245.990	800.000	-0.043	0.137
-244.976	-1.726	0.243	-0.168
-243.961	-29.162	0.221	-0.125
-242.946	171.603	-0.144	-0.203
-241.932	581.061	0.047	0.114
-240.917	-200.000	0.008	-0.154
-239.903	-200.000	-0.021	-0.221
-238.888	-128.990	0.272	-0.037
-237.873	-200.000	-0.015	-0.176
-236.859	-200.000	-0.003	-0.060
-235.844	56.024	0.186	0.178
-234.830	-72.342	0.282	-0.103
-233.815	800.000	-0.136	-0.426
-232.800	-109.205	-0.109	0.023
-231.786	-101.139	0.438	0.105
-230.771	-173.995	-0.142	0.004
-229.757	-78.858	0.076	0.026
-228.742	111.067	-0.227	-0.268
-227.727	-65.428	-0.102	0.040
-226.713	800.000	-0.094	-0.341
-225.698	-144.498	-0.066	0.006
-224.684	-64.958	-0.290	0.115
-223.669	-92.950	0.160	0.044
-222.655	239.173	0.092	-0.150
-221.640	-70.564	-0.173	-0.064
-220.625	-200.000	-0.057	-0.277
-219.611	132.292	0.047	-0.060
-218.596	-30.490	-0.104	0.058
-217.582	-200.000	-0.011	-0.131
-216.567	-108.389	0.201	0.043
-215.552	37.139	-0.261	0.226
-214.538	-200.000	-0.035	0.270
-213.523	-82.928	-0.146	0.046
-212.509	60.789	-0.037	-0.036
-211.494	800.000	-0.020	0.062
-210.479	-165.942	-0.147	0.006
-209.465	-80.882	0.177	0.057
-208.450	800.000	0.082	-0.228
-207.436	800.000	-0.047	-0.203
-206.421	-126.558	-0.267	-0.039
-205.406	-200.000	0.002	-0.294
-204.392	-76.217	-0.200	0.069
-203.377	6.569	0.146	-0.106
-202.363	-110.730	0.125	-0.025
-201.348	-200.000	-0.005	-0.117
-200.333	-145.981	-0.164	-0.014
-199.319	212.653	0.187	0.290
-198.304	-125.851	-0.170	-0.025
-197.290	213.080	0.188	-0.291
-196.275	83.591	0.095	-0.102
-195.260	-131.037	-0.177	-0.023
-194.246	-57.489	0.085	0.036
-193.231	-10.390	0.083	-0.054
-192.217	153.588	0.052	-0.070
-191.202	-183.500	-0.075	-0.001
-190.187	-92.840	-0.208	-0.057
-189.173	320.497	0.110	-0.204
-188.158	-135.763	-0.245	-0.028
-187.144	115.615	0.185	0.222
-186.129	-89.414	0.217	-0.063
-185.114	248.046	-0.093	-0.154
-184.100	-200.000	0.015	-0.121
-183.085	-90.160	-0.119	0.034
-182.071	-92.738	0.176	0.048
-181.056	-200.000	-0.003	-0.014
-180.042	-128.704	-0.174	-0.024
-179.027	188.940	0.183	0.269
-178.012	-88.935	-0.067	0.019
-176.998	138.074	0.314	0.403
-175.983	289.002	0.160	0.284
-174.969	121.354	-0.127	0.155
-173.954	-200.000	-0.015	0.388
-172.939	5.294	0.092	-0.067
-171.925	-200.000	0.011	0.099
-170.910	-11.412	0.093	0.060
-169.896	187.935	0.039	0.057
-168.881	67.289	-0.269	0.269
-167.866	-103.194	0.299	-0.069
-166.852	-107.456	-0.279	0.060
-165.837	800.000	0.066	0.248
-164.823	623.429	-0.080	0.196
-163.808	37.470	-0.204	0.177
-162.793	-2.981	0.113	-0.077
-161.779	50.165	-0.174	0.161
-160.764	-200.000	0.019	0.254
-159.750	800.000	0.018	0.064
-158.735	-72.453	-0.196	0.071
-157.720	78.471	-0.210	0.220
-156.706	-39.959	0.108	-0.055
-155.691	-82.240	0.264	-0.084
-154.677	-51.025	0.323	0.148
-153.662	-31.631	0.020	0.011
-152.647	-200.000	-0.003	-0.034
-151.633	-149.260	-0.280	0.022
-150.618	95.348	0.199	-0.222
-149.604	-88.699	0.056	0.016
-148.589	-194.374	0.067	-0.001
-147.574	419.219	-0.074	-0.155
-146.560	252.536	0.143	0.238
-145.545	-1.250	-0.170	0.117
-144.531	-200.000	-0.001	0.063
-143.516	128.782	-0.246	-0.306
-142.502	-35.739	0.362	-0.192
-141.487	10.183	0.144	0.107
-140.472	42.497	-0.143	-0.128
-139.458	148.461	0.153	-0.203
-138.443	664.163	0.097	-0.245
-137.429	-46.678	0.109	0.052
-136.414	-200.000	-0.008	-0.056
-135.399	14.551	0.261	-0.200
-134.385	-200.000	0.002	-0.452
-133.370	-178.150	-0.056	0.001
-132.356	-100.737	0.411	-0.099
-131.341	-55.773	0.249	0.109
-130.326	-182.995	-0.345	-0.006
-129.312	-121.830	0.228	0.037
-128.297	257.940	0.087	0.147
-127.283	-127.429	0.070	0.010
-126.268	418.440	-0.137	0.286
-125.253	-125.213	0.248	-0.037
-124.239	-48.835	0.114	0.053
-123.224	-165.852	-0.052	0.002
-122.210	462.728	-0.070	0.152
-121.195	284.449	0.130	0.228
-120.180	-85.840	-0.114	-0.034
-119.166	-200.000	-0.008	-0.224
-118.151	-124.132	0.321	0.049
-117.137	10.806	0.137	0.103
-116.122	-200.000	0.047	0.203
-115.107	-54.479	0.190	0.084
-114.093	4.834	-0.064	0.046
-113.078	54.758	0.140	-0.132
-112.064	-144.678	-0.286	0.026
-111.049	-17.262	0.093	-0.057
-110.034	-8.767	0.165	0.108
-109.020	151.405	-0.157	0.209
-108.005	-20.032	0.212	-0.128
-106.991	-200.000	0.041	-0.239
-105.976	-200.000	0.007	0.133
-104.962	-159.886	0.179	0.010
-103.947	-200.000	0.051	0.512
-102.932	140.279	0.157	-0.202
-101.918	800.000	0.045	0.153
-100.903	-98.945	0.169	0.042
-99.889	582.139	-0.116	-0.277
-98.874	-22.757	-0.287	0.169
-97.859	311.551	0.180	-0.330
-96.845	-200.000	0.041	0.352
-95.830	-200.000	-0.050	-0.373
-94.816	-40.167	-0.370	-0.188
-93.801	6.883	0.197	-0.144
-92.786	91.695	-0.190	-0.209
-91.772	-200.000	0.003	0.053
-90.757	138.780	0.242	0.310
-89.743	-200.000	-0.023	0.208
-88.728	139.640	0.153	0.197
-87.713	-6.285	0.219	-0.146
-86.699	-99.915	0.330	-0.080
-85.684	573.657	-0.115	0.273
-84.670	-103.646	0.183	-0.042
-83.655	-137.026	0.134	-0.015
-82.640	-200.000	0.015	0.161
-81.626	321.272	-0.072	-0.134
-80.611	-200.000	-0.012	-0.366
-79.597	-59.978	0.356	0.149
-78.582	683.128	0.070	0.177
-77.567	442.169	0.179	-0.383
-76.553	-139.622	-0.158	0.016
-75.538	74.407	0.127	0.131
-74.524	-200.000	0.027	0.363
-73.509	-200.000	0.032	-0.159
-72.494	-110.472	0.334	0.068
-71.480	-82.349	0.247	-0.078
-70.465	-200.000	-0.024	-0.341
-69.451	-200.000	-0.008	0.047
-68.436	353.661	0.096	-0.186
-67.422	413.700	0.097	0.202
-66.407	-200.000	-0.020	0.124
-65.392	-125.062	0.292	-0.044
-64.378	-46.439	-0.112	0.054
-63.363	-200.000	0.031	-0.248
-62.349	117.551	0.246	-0.295
-61.334	200.777	-0.625	-0.938
-60.319	250.625	0.411	0.682
-59.305	800.000	-0.275	-1.148
-58.290	461.714	0.541	1.176
-57.276	616.012	0.563	1.377
-56.261	-200.000	121.413	614.590
-55.246	380.042	1579.600	3157.905
-54.232	138.332	2761.852	3533.723
-53.217	88.913	2329.017	2527.566
-52.203	33.578	1927.435	1633.475
-51.188	27.649	1717.936	1410.178
-50.173	25.358	1677.333	1359.473
-49.159	44.979	1742.184	1564.425
-48.144	43.496	1755.725	1565.041
-47.130	27.190	1707.685	1398.013
-46.115	24.757	1692.090	1366.624
-45.100	24.595	1687.152	1361.350
-44.086	24.441	1684.679	1358.123
-43.071	24.393	1682.788	1356.179
-42.057	24.451	1679.431	1353.862
-41.042	24.448	1677.593	1352.302
-40.027	24.510	1675.637	1351.141
-39.013	24.522	1673.422	1349.395
-37.998	24.471	1672.446	1348.172
-36.984	24.547	1670.699	1347.278
-35.969	24.561	1669.375	1346.262
-34.954	24.615	1667.360	1344.996
-33.940	24.604	1666.349	1344.044
-32.925	24.734	1663.889	1342.978
-31.911	24.658	1662.871	1341.531
-30.896	24.711	1660.850	1340.250
-29.881	24.659	1659.722	1338.893
-28.867	24.597	1658.361	1337.282
-27.852	24.573	1656.965	1335.922
-26.838	24.548	1655.250	1334.303
-25.823	24.672	1654.148	1334.287
-24.809	24.673	1652.881	1333.216
-23.794	24.665	1650.786	1331.414
-22.779	24.622	1649.515	1330.013
-21.765	24.613	1648.533	1329.108
-20.750	24.625	1646.333	1327.365
-19.736	24.580	1645.170	1326.042
-18.721	24.689	1643.452	1325.418
-17.706	24.704	1642.054	1324.349
-16.692	24.693	1640.450	1322.916
-15.677	24.630	1639.784	1321.862
-14.663	24.710	1637.971	1320.940
-13.648	24.572	1637.358	1319.373
-12.633	24.634	1635.397	1318.197
-11.619	24.648	1633.442	1316.670
-10.604	24.620	1632.408	1315.579
-9.590	24.603	1630.838	1314.136
-8.575	24.696	1629.146	1313.403
-7.560	24.712	1627.929	1312.490
-6.546	24.655	1626.898	1311.186
-5.531	24.676	1625.974	1310.543
-4.517	24.602	1624.820	1309.020
-3.502	24.593	1623.549	1307.883
-2.487	24.778	1622.089	1308.009
-1.473	24.515	1610.067	1296.353
-0.458	21.830	1591.177	1261.798
0.556	17.183	1592.416	1230.469
1.571	14.825	1617.195	1232.139
2.586	14.453	1628.963	1238.232
3.600	13.333	1574.766	1188.887
4.615	7.665	1466.286	1068.860
5.629	1.853	1405.717	987.055
6.644	0.834	1398.174	975.107
7.659	0.725	1397.514	973.858
8.673	0.741	1396.538	973.195
9.688	0.640	1394.515	971.049
10.702	0.536	1390.907	967.787
11.717	3.302	1394.565	988.005
12.731	9.997	1405.214	1038.621
13.746	15.443	1413.144	1079.507
14.761	17.054	1414.645	1090.921
15.775	16.579	1412.623	1086.215
16.790	15.696	1409.894	1078.359
17.804	14.892	1407.814	1071.526
18.819	14.476	1406.608	1067.849
19.834	14.157	1404.943	1064.444
20.848	13.935	1403.954	1062.186
21.863	13.788	1402.405	1059.978
22.877	13.582	1401.342	1057.768
23.892	13.481	1400.600	1056.466
24.907	13.396	1399.557	1055.046
25.921	13.496	1398.486	1054.782
26.936	13.537	1397.616	1054.294
27.950	13.558	1396.702	1053.645
28.965	13.587	1395.645	1052.940
29.980	13.593	1394.797	1052.247
30.994	13.584	1393.701	1051.268
32.009	13.693	1392.509	1050.965
33.023	13.715	1391.371	1050.154
34.038	13.733	1390.378	1049.422
35.053	13.592	1389.400	1047.701
36.067	13.572	1388.342	1046.683
37.082	13.659	1386.805	1045.984
38.096	13.696	1386.114	1045.601
39.111	13.658	1385.312	1044.664
40.126	13.562	1384.697	1043.504
41.140	13.495	1384.271	1042.668
42.155	13.527	1383.072	1041.873
43.169	13.456	1383.112	1041.369
44.184	13.464	1382.849	1041.126
45.199	13.422	1382.658	1040.626
46.213	13.467	1381.595	1040.019
47.228	13.606	1380.373	1039.876
48.242	13.573	1380.048	1039.333
49.257	13.614	1377.650	1037.694
50.271	13.589	1376.035	1036.229
51.286	13.598	1375.245	1035.601
52.301	13.595	1373.989	1034.544
53.315	13.593	1372.638	1033.421
54.330	13.540	1371.919	1032.457
55.344	13.367	1370.429	1030.170
56.359	13.558	1369.664	1030.689
57.374	13.458	1367.981	1028.709
58.388	13.386	1367.980	1028.169
59.403	13.419	1367.331	1027.800
60.417	13.366	1366.688	1026.895
61.432	13.476	1365.359	1026.488
62.447	13.455	1364.612	1025.704
63.461	13.408	1363.547	1024.520
64.476	13.355	1362.367	1023.220
65.490	13.398	1360.789	1022.207
66.505	13.425	1359.062	1020.988
67.520	13.423	1357.915	1020.023
68.534	13.473	1356.817	1019.413
69.549	13.469	1355.911	1018.617
70.563	13.482	1354.962	1017.895
71.578	13.427	1353.676	1016.504
72.593	13.367	1353.024	1015.556
73.607	13.416	1351.920	1014.938
74.622	13.343	1351.648	1014.196
75.636	13.413	1350.726	1013.842
76.651	13.313	1349.723	1012.386
77.666	13.346	1349.536	1012.362
78.680	13.337	1349.044	1011.844
79.695	13.406	1347.892	1011.313
80.709	13.360	1346.738	1010.080
81.724	13.439	1346.475	1010.271
82.739	13.399	1345.158	1008.955
83.753	13.555	1343.851	1008.834
84.768	13.601	1343.023	1008.400
85.782	13.618	1341.812	1007.508
86.797	13.510	1340.544	1005.809
87.812	13.503	1339.244	1004.701
88.826	13.486	1338.290	1003.797
89.841	13.485	1337.327	1002.980
90.855	13.649	1336.080	1002.949
91.870	13.671	1334.795	1002.024
92.884	13.638	1334.471	1001.493
93.899	13.621	1333.213	1000.356
94.914	13.622	1332.419	999.680
95.928	13.603	1331.955	999.128
96.943	13.634	1331.186	998.649
97.957	13.626	1329.863	997.519
98.972	13.582	1328.957	996.490
99.987	13.642	1327.853	995.937
101.001	13.635	1326.895	995.084
102.016	13.627	1325.632	994.005
103.030	13.648	1324.620	993.284
104.045	13.672	1323.763	992.697
105.060	13.603	1322.476	991.229
106.074	13.606	1321.064	990.102
107.089	13.491	1319.732	988.328
108.103	13.428	1318.589	987.010
109.118	13.459	1317.174	986.047
110.133	13.431	1316.059	984.960
111.147	13.516	1314.420	984.150
112.162	13.541	1313.217	983.309
113.176	13.586	1311.843	982.463
114.191	13.591	1310.870	981.675
115.206	13.481	1310.041	980.317
116.220	13.496	1308.618	979.254
117.235	13.588	1307.556	978.918
118.249	13.605	1306.686	978.281
119.264	13.484	1305.858	976.859
120.279	13.531	1304.560	976.077
121.293	13.560	1303.333	975.243
122.308	13.543	1302.242	974.244
123.322	13.480	1301.576	973.288
124.337	13.512	1300.816	972.821
125.352	13.514	1298.931	971.337
126.366	13.560	1297.482	970.440
127.381	13.499	1297.207	969.788
128.395	13.474	1296.053	968.695
129.410	13.486	1295.299	968.115
130.424	13.517	1294.070	967.291
131.439	13.551	1293.134	966.705
132.454	13.682	1291.853	966.425
133.468	13.677	1290.818	965.537
134.483	13.563	1290.478	964.530
135.497	13.562	1289.338	963.588
136.512	13.635	1287.838	962.805
137.527	13.560	1286.660	961.403
138.541	13.547	1285.234	960.179
139.556	13.565	1283.573	958.958
140.570	13.590	1283.289	958.805
141.585	13.691	1281.429	957.916
142.600	13.687	1280.233	956.916
143.614	13.666	1279.997	956.530
144.629	13.715	1278.260	955.433
145.643	13.566	1277.431	953.869
146.658	13.668	1275.667	953.056
147.673	13.711	1274.640	952.451
148.687	13.739	1273.531	951.694
149.702	13.670	1272.088	950.141
150.716	13.637	1270.993	949.047
151.731	13.615	1269.946	948.058
152.746	13.761	1268.217	947.517
153.760	13.740	1267.272	946.605
154.775	13.731	1266.108	945.600
155.789	13.861	1264.820	945.294
156.804	13.791	1263.532	943.849
157.819	13.744	1262.508	942.735
158.833	13.818	1261.919	942.636
159.848	13.871	1260.848	942.048
160.862	13.864	1259.529	940.942
161.877	13.768	1258.657	939.664
162.892	13.865	1256.993	938.885
163.906	13.755	1256.254	937.630
164.921	13.730	1255.591	936.909
165.935	13.848	1254.642	936.786
166.950	13.831	1254.050	936.165
167.964	13.892	1253.047	935.678
168.979	13.802	1252.430	934.629
169.994	13.941	1251.430	934.582
171.008	13.876	1250.899	933.735
172.023	13.899	1250.229	933.280
173.037	13.892	1249.205	932.395
174.052	13.935	1247.996	931.652
175.067	13.876	1247.138	930.600
176.081	13.979	1246.036	930.270
177.096	13.988	1245.180	929.602
178.110	13.980	1244.155	928.707
179.125	13.959	1242.877	927.553
180.140	13.964	1241.923	926.790
181.154	13.974	1240.756	925.891
182.169	14.061	1239.026	924.999
183.183	14.032	1237.949	923.956
184.198	14.063	1237.121	923.429
185.213	14.096	1235.542	922.349
186.227	14.084	1234.750	921.613
187.242	14.194	1233.571	921.256
188.256	14.264	1232.623	920.854
189.271	14.129	1231.979	919.545
190.286	13.937	1231.215	917.836
191.300	14.059	1230.343	917.776
192.315	14.010	1229.501	916.799
193.329	14.021	1229.020	916.416
194.344	14.107	1227.948	916.009
195.359	14.150	1227.261	915.655
196.373	14.172	1226.758	915.321
197.388	14.211	1226.297	915.110
198.402	14.160	1226.178	914.657
199.417	14.252	1225.260	914.396
200.432	14.312	1224.917	914.389
201.446	14.179	1224.397	913.194
202.461	14.346	1222.508	912.620
203.475	14.308	1221.398	911.498
204.490	14.413	1220.024	910.966
205.504	14.309	1218.902	909.482
206.519	14.327	1217.927	908.773
207.534	14.411	1216.726	908.256
208.548	14.379	1215.370	906.984
209.563	14.375	1214.981	906.593
210.577	14.356	1214.212	905.835
211.592	14.413	1213.409	905.465
212.607	14.481	1212.535	905.106
213.621	14.482	1211.629	904.355
214.636	14.449	1210.598	903.327
215.650	14.501	1209.629	902.806
216.665	14.410	1208.834	901.637
217.680	14.467	1208.052	901.285
218.694	14.584	1206.716	900.838
219.709	14.618	1205.840	900.287
220.723	14.615	1204.921	899.509
221.738	14.572	1204.241	898.685
222.753	14.609	1203.814	898.486
223.767	14.521	1203.415	897.638
224.782	14.679	1202.549	897.763
225.796	14.753	1201.590	897.365
226.811	14.853	1200.888	897.299
227.826	14.685	1200.203	895.807
228.840	14.784	1199.361	895.628
229.855	14.659	1198.816	894.469
230.869	14.665	1198.111	893.900
231.884	14.674	1197.223	893.204
232.899	14.700	1196.309	892.583
233.913	14.704	1195.446	891.881
234.928	14.570	1195.176	890.884
235.942	14.685	1193.901	890.467
236.957	14.755	1192.704	889.871
237.972	14.726	1192.341	889.368
238.986	14.752	1191.764	888.994
240.001	14.769	1191.158	888.555
241.015	14.742	1190.269	887.673
242.030	14.796	1189.511	887.312
243.045	14.754	1188.616	886.344
244.059	14.832	1187.794	886.065
245.074	14.747	1186.822	884.814
246.088	14.857	1185.878	884.615
247.103	14.933	1185.398	884.582
248.117	14.906	1184.336	883.568
249.132	14.916	1183.702	883.066
250.147	14.972	1183.112	882.845
251.161	15.079	1181.936	882.455
252.176	15.133	1181.057	882.004
253.190	15.110	1181.176	881.891
254.205	15.093	1180.504	881.224
255.220	15.177	1179.709	880.995
256.234	15.098	1179.105	880.049
257.249	15.160	1178.196	879.616
258.263	15.122	1177.828	879.068
259.278	15.173	1177.190	878.780
260.293	15.227	1176.305	878.325
261.307	15.179	1176.238	877.946
262.322	15.271	1175.292	877.643
263.336	15.193	1174.691	876.709
264.351	15.258	1174.116	876.540
265.366	15.480	1172.711	876.576
266.380	15.367	1172.277	875.583
267.395	15.316	1171.703	874.812
268.409	15.328	1171.388	874.561
269.424	15.306	1170.375	873.613
270.439	15.406	1169.390	873.318
271.453	15.400	1168.962	872.891
272.468	15.370	1167.994	871.937
273.482	15.435	1167.248	871.639
274.497	15.337	1166.917	870.806
275.512	15.412	1166.094	870.505
276.526	15.382	1165.518	869.844
277.541	15.320	1164.576	868.740
278.555	15.461	1163.980	868.948
279.570	15.515	1163.062	868.468
280.585	15.608	1161.887	867.993
281.599	15.540	1160.865	866.800
282.614	15.504	1160.261	866.087
283.628	15.554	1159.279	865.534
284.643	15.528	1158.377	864.654
285.657	15.562	1157.352	863.986
286.672	15.636	1156.474	863.634
287.687	15.539	1155.628	862.425
288.701	15.664	1154.543	862.183
289.716	15.540	1154.136	861.169
290.730	15.693	1153.385	861.312
291.745	15.775	1152.500	860.995
292.760	15.682	1151.957	860.041
293.774	15.786	1151.034	859.803
294.789	15.867	1150.684	859.880
295.803	15.764	1150.075	858.825
296.818	15.705	1149.502	858.017
297.833	15.666	1148.670	857.122
298.847	15.774	1147.680	856.858
299.862	15.797	1146.571	856.071
300.876	15.891	1146.133	856.148
301.891	15.838	1145.652	855.441
302.906	15.906	1144.660	854.974
303.920	15.854	1144.137	854.240
304.935	15.881	1143.689	853.968
305.949	15.871	1143.227	853.499
306.964	16.131	1141.730	853.623
307.979	15.913	1141.692	852.416
308.993	15.827	1140.793	851.230
310.008	15.957	1139.687	850.988
311.022	16.013	1138.872	850.589
312.037	15.959	1138.614	850.049
313.052	16.083	1136.635	849.119
314.066	16.101	1135.767	848.487
315.081	16.018	1135.490	847.786
316.095	15.957	1134.816	846.900
317.110	15.975	1134.141	846.415
318.125	16.030	1132.792	845.609
319.139	15.939	1132.701	845.007
320.154	15.968	1132.204	844.710
321.168	16.018	1131.739	844.537
322.183	16.039	1130.749	843.828
323.197	16.031	1130.135	843.256
324.212	16.197	1128.989	843.157
325.227	16.039	1128.703	842.078
326.241	16.145	1128.341	842.263
327.256	16.031	1127.039	840.646
328.270	16.150	1126.229	840.563
329.285	16.155	1125.462	839.942
330.300	16.130	1124.545	839.056
331.314	16.158	1123.639	838.445
332.329	16.071	1122.912	837.398
333.343	16.180	1121.983	837.169
334.358	16.277	1120.950	836.805
335.373	16.146	1120.685	835.888
336.387	16.248	1119.523	835.451
337.402	16.244	1118.665	834.717
338.416	16.276	1118.506	834.681
339.431	16.258	1117.465	833.744
340.446	16.426	1116.188	833.544
341.460	16.435	1116.345	833.631
342.475	16.464	1115.128	832.793
343.489	16.386	1114.479	831.851
344.504	16.388	1113.413	830.994
345.519	16.466	1112.210	830.403
346.533	16.404	1111.870	829.772
347.548	16.544	1110.843	829.620
348.562	16.589	1110.061	829.180
349.577	16.598	1109.146	828.470
350.592	16.600	1108.326	827.794
351.606	16.563	1107.823	827.163
352.621	16.546	1107.093	826.464
353.635	16.568	1106.055	825.722
354.650	16.586	1105.592	825.390
355.665	16.582	1105.091	824.923
356.679	16.589	1104.435	824.394
357.694	16.565	1103.695	823.653
358.708	16.607	1103.049	823.300
359.723	16.532	1102.695	822.602
360.738	16.672	1101.651	822.430
361.752	16.682	1101.164	822.042
362.767	16.614	1100.803	821.368
363.781	16.736	1100.529	821.686
364.796	16.757	1099.678	821.077
365.810	16.720	1099.272	820.523
366.825	16.753	1098.022	819.678
367.840	16.810	1097.878	819.771
368.854	16.861	1097.478	819.647
369.869	16.822	1096.401	818.583
370.883	16.812	1095.670	817.914
371.898	16.768	1094.984	817.120
372.913	16.866	1094.224	816.954
373.927	16.870	1093.509	816.363
374.942	17.102	1092.619	816.746
375.956	16.984	1092.447	815.978
376.971	16.925	1091.784	815.127
377.986	16.887	1091.630	814.754
379.000	17.135	1090.504	815.034
380.015	17.118	1090.158	814.622
381.029	16.985	1089.391	813.337
382.044	17.146	1088.730	813.542
383.059	17.106	1088.150	812.845
384.073	17.068	1087.342	811.992
385.088	17.016	1086.285	810.881
386.102	17.183	1085.200	810.797
387.117	17.179	1084.282	810.020
388.132	17.208	1083.510	809.509
389.146	17.178	1082.742	808.722
390.161	17.087	1082.052	807.699
391.175	17.189	1081.336	807.580
392.190	17.209	1080.676	807.109
393.205	17.346	1079.847	807.071
394.219	17.351	1078.711	806.174
395.234	17.220	1078.109	805.030
396.248	17.256	1076.937	804.258
397.263	17.149	1076.365	803.251
398.278	17.135	1075.780	802.679
399.292	17.259	1074.852	802.499
400.307	17.261	1073.997	801.799
401.321	17.195	1073.834	801.297
402.336	17.271	1072.854	800.852
403.350	17.282	1072.169	800.320
404.365	17.242	1071.582	799.622
405.380	17.261	1071.050	799.244
406.394	17.375	1070.032	798.950
407.409	17.388	1069.273	798.376
408.423	17.527	1068.429	798.324
409.438	17.425	1067.973	797.434
410.453	17.456	1067.185	796.922
411.467	17.535	1066.151	796.450
412.482	17.563	1065.529	796.043
413.496	17.481	1065.121	795.285
414.511	17.642	1064.460	795.473
415.526	17.662	1064.047	795.187
416.540	17.709	1063.412	794.861
417.555	17.476	1063.331	793.647
418.569	17.598	1062.471	793.500
419.584	17.622	1062.119	793.281
420.599	17.633	1061.864	793.071
421.613	107.583	1330.032	1486.484
422.628	99.367	1369.029	1486.580
