DTS Sentinel unit serial number:	SN413079Multiplexer serial number:	ORYXHardware model number:	OX4-SRSoftware version number:	ORYX F/W v4.00 Oryx Data Collector v3.7.2.0data status	okinstallation	princeton_trtdifferential loss correction	single-endedforward channel	channel 2reverse channel	N/Adate	2019/09/18time	15:51:35forward acquisition time	60.00reverse acquisition time	0.00gamma	496.2192k internal	0.2310k external	0.2310temperature offset calibration	1.0004default loss term (dB/km)	0.3790temperature slope calibration	1.0000multiplexer offset coefficient	1.0000multiplexer slope coefficient	1.0000fibre end	0.00T internal ref (°C)	36.72T ext. ref 1 (°C)	0.80T ext. ref 2 (°C)	35.35length (m)	temperature (°C)	Stokes	anti-Stokes-747.200	-55.748	0.207	0.094
-746.185	520.686	-0.165	0.393
-745.171	-200.000	0.002	0.187
-744.156	542.395	0.052	0.125
-743.142	800.000	0.179	-0.538
-742.127	751.576	-0.100	-0.275
-741.112	54.133	-0.159	0.155
-740.098	-105.141	0.179	-0.041
-739.083	65.028	0.328	0.337
-738.069	-200.000	0.013	0.114
-737.054	324.061	-0.171	0.332
-736.039	-65.809	-0.299	0.122
-735.025	-96.053	0.174	0.047
-734.010	-200.000	0.002	-0.209
-732.996	800.000	0.068	-0.215
-731.981	-95.146	0.246	0.067
-730.966	-48.556	-0.131	0.064
-729.952	155.715	-0.078	0.109
-728.937	-162.386	-0.197	0.010
-727.923	615.642	-0.117	0.298
-726.908	-190.043	-0.042	-0.000
-725.894	159.367	-0.087	-0.124
-724.879	485.458	0.034	-0.079
-723.864	74.038	-0.258	-0.274
-722.850	48.047	0.354	-0.336
-721.835	-200.000	-0.037	-0.176
-720.821	250.480	-0.075	-0.129
-719.806	423.405	-0.068	0.149
-718.791	572.834	-0.071	-0.176
-717.777	682.508	-0.164	-0.435
-716.762	-82.794	-0.175	0.057
-715.748	220.998	0.136	-0.221
-714.733	329.534	-0.092	0.179
-713.718	-200.000	0.012	0.061
-712.704	-2.032	-0.307	0.219
-711.689	-0.956	-0.265	-0.190
-710.675	-6.168	-0.363	-0.252
-709.660	-80.951	-0.295	-0.099
-708.645	-105.703	-0.282	-0.065
-707.631	-16.357	0.056	-0.036
-706.616	-47.911	0.386	-0.189
-705.602	86.140	0.168	-0.187
-704.587	356.613	0.033	0.066
-703.572	67.908	-0.167	-0.174
-702.558	47.139	-0.146	-0.138
-701.543	357.883	-0.170	-0.344
-700.529	-87.119	0.114	-0.035
-699.514	165.850	0.057	-0.082
-698.499	-183.786	0.139	-0.002
-697.485	67.897	-0.080	-0.083
-696.470	-200.000	0.006	0.096
-695.456	-112.639	-0.261	-0.053
-694.441	-132.921	0.063	-0.008
-693.426	-21.758	0.121	-0.075
-692.412	800.000	-0.036	-0.150
-691.397	-200.000	-0.010	0.135
-690.383	-200.000	0.038	-0.288
-689.368	-200.000	0.033	-0.199
-688.354	800.000	-0.062	-0.190
-687.339	-65.309	0.157	-0.064
-686.324	8.351	0.126	0.096
-685.310	800.000	0.059	0.236
-684.295	800.000	-0.026	0.091
-683.281	311.254	0.122	0.231
-682.266	339.997	0.154	0.305
-681.251	112.043	0.100	0.122
-680.237	5.123	0.135	0.101
-679.222	512.939	-0.092	0.217
-678.208	65.473	-0.096	0.098
-677.193	130.772	0.049	0.063
-676.178	-136.180	-0.175	0.021
-675.164	181.361	-0.324	0.482
-674.149	79.567	0.116	0.126
-673.135	207.036	-0.174	-0.274
-672.120	-200.000	-0.014	-0.226
-671.105	-58.919	0.128	-0.056
-670.091	309.727	0.135	0.256
-669.076	31.481	-0.052	-0.045
-668.062	262.761	0.101	-0.177
-667.047	800.000	-0.037	-0.163
-666.032	195.375	-0.087	-0.133
-665.018	-58.910	0.308	-0.135
-664.003	-11.217	-0.130	0.086
-662.989	-111.198	0.189	0.039
-661.974	486.164	-0.129	-0.297
-660.959	-23.063	0.122	0.075
-659.945	-200.000	0.236	0.000
-658.930	-200.000	0.063	-0.465
-657.916	16.006	-0.224	-0.179
-656.901	-72.477	-0.302	0.113
-655.886	29.947	-0.112	-0.096
-654.872	255.491	-0.154	-0.267
-653.857	800.000	-0.082	-0.329
-652.843	-30.181	-0.242	-0.139
-651.828	635.409	0.035	0.091
-650.814	65.664	-0.224	-0.230
-649.799	130.347	0.150	0.194
-648.784	298.365	0.055	0.102
-647.770	530.327	0.079	0.189
-646.755	-200.000	0.041	-0.246
-645.741	-200.000	-0.014	-0.406
-644.726	24.933	0.343	0.288
-643.711	-69.634	-0.089	-0.035
-642.697	-121.405	-0.085	0.014
-641.682	48.376	-0.312	-0.296
-640.668	-29.804	-0.496	-0.286
-639.653	107.057	-0.141	0.169
-638.638	647.754	0.059	0.154
-637.624	86.324	-0.054	0.060
-636.609	23.738	0.113	-0.094
-635.595	-23.742	-0.116	-0.070
-634.580	800.000	-0.022	0.065
-633.565	-135.377	-0.143	0.017
-632.551	89.838	0.098	0.110
-631.536	-200.000	-0.029	0.260
-630.522	800.000	0.110	-0.309
-629.507	-9.125	0.082	0.055
-628.492	333.312	0.113	0.221
-627.478	-40.728	0.159	0.083
-626.463	218.219	-0.202	0.325
-625.449	295.099	-0.077	-0.142
-624.434	248.395	-0.064	0.110
-623.419	-37.089	0.308	-0.167
-622.405	-113.418	0.221	0.044
-621.390	-91.153	-0.109	-0.032
-620.376	94.052	0.199	0.229
-619.361	111.260	0.061	0.075
-618.346	122.501	0.057	-0.073
-617.332	191.784	-0.311	-0.473
-616.317	70.238	0.220	-0.230
-615.303	800.000	0.080	0.337
-614.288	-77.767	-0.086	0.030
-613.273	-130.879	-0.353	-0.048
-612.259	-119.464	-0.187	-0.033
-611.244	372.879	0.146	-0.299
-610.230	514.446	-0.210	0.495
-609.215	261.650	0.038	-0.067
-608.201	309.134	0.157	0.296
-607.186	88.730	-0.140	0.157
-606.171	-110.563	0.244	0.051
-605.157	209.218	0.082	0.129
-604.142	800.000	0.059	-0.261
-603.128	432.620	0.103	0.225
-602.113	107.131	-0.257	-0.308
-601.098	-3.120	-0.112	0.079
-600.084	800.000	-0.063	0.242
-599.069	-12.552	-0.358	-0.236
-598.055	800.000	0.156	-0.489
-597.040	-200.000	-0.005	-0.175
-596.025	-200.000	0.003	0.083
-595.011	45.621	-0.057	0.053
-593.996	-73.441	0.187	0.069
-592.982	-200.000	0.039	0.185
-591.967	467.989	-0.046	0.104
-590.952	315.366	0.102	0.195
-589.938	800.000	0.025	-0.080
-588.923	349.401	-0.092	0.183
-587.909	-49.420	0.214	0.103
-586.894	169.880	0.084	0.121
-585.879	-31.058	-0.041	-0.023
-584.865	800.000	-0.125	0.363
-583.850	-74.198	-0.276	-0.101
-582.836	-200.000	0.011	-0.343
-581.821	140.864	-0.163	0.218
-580.806	-18.824	0.120	0.075
-579.792	98.162	0.201	0.234
-578.777	72.406	-0.184	0.194
-577.763	-200.000	-0.051	-0.306
-576.748	800.000	-0.085	-0.268
-575.733	-114.981	-0.082	0.016
-574.719	225.745	-0.015	-0.024
-573.704	396.537	-0.079	-0.167
-572.690	37.967	-0.299	-0.268
-571.675	153.243	-0.257	0.355
-570.661	-71.833	-0.249	-0.094
-569.646	-13.364	0.294	-0.192
-568.631	233.360	-0.065	-0.108
-567.617	-200.000	0.005	-0.328
-566.602	61.273	0.102	-0.102
-565.588	-198.060	0.237	-0.001
-564.573	343.231	0.125	0.247
-563.558	305.835	-0.076	-0.142
-562.544	754.951	-0.068	-0.185
-561.529	-28.896	-0.037	0.021
-560.515	-200.000	-0.005	0.113
-559.500	-49.693	0.259	-0.124
-558.485	-149.036	0.304	-0.025
-557.471	-200.000	0.014	0.255
-556.456	-49.556	-0.359	0.172
-555.442	37.308	-0.077	-0.068
-554.427	98.317	-0.111	-0.129
-553.412	-137.211	0.277	0.032
-552.398	122.727	0.158	-0.199
-551.383	-113.181	-0.197	0.039
-550.369	-172.245	0.171	-0.006
-549.354	41.379	0.224	-0.204
-548.339	319.972	-0.173	0.330
-547.325	-200.000	0.025	-0.286
-546.310	64.049	0.232	-0.235
-545.296	51.228	0.252	-0.241
-544.281	-82.634	0.319	0.104
-543.266	-37.901	-0.229	-0.123
-542.252	-200.000	-0.041	-0.295
-541.237	-200.000	0.024	-0.114
-540.223	534.948	-0.061	0.145
-539.208	331.504	-0.099	0.192
-538.193	42.091	0.074	-0.068
-537.179	58.910	-0.017	-0.016
-536.164	453.521	0.087	-0.194
-535.150	500.309	-0.062	0.145
-534.135	190.764	0.190	-0.288
-533.121	120.163	0.088	-0.110
-532.106	42.738	0.138	0.127
-531.091	175.076	-0.102	-0.149
-530.077	800.000	-0.017	0.052
-529.062	122.325	0.082	0.103
-528.048	-200.000	-0.030	0.162
-527.033	-200.000	0.017	0.340
-526.018	-200.000	0.040	-0.177
-525.004	311.786	0.109	0.206
-523.989	-31.032	-0.157	0.089
-522.975	-200.000	-0.019	0.373
-521.960	-172.203	-0.290	-0.009
-520.945	331.371	-0.017	0.033
-519.931	418.560	0.047	0.101
-518.916	-115.136	-0.156	-0.030
-517.902	-200.000	0.004	0.120
-516.887	-200.000	-0.002	0.117
-515.872	41.985	-0.378	0.345
-514.858	800.000	0.058	-0.174
-513.843	-68.021	0.433	-0.170
-512.829	-200.000	0.029	-0.143
-511.814	800.000	-0.049	0.160
-510.799	1.149	0.403	0.291
-509.785	179.646	-0.124	0.183
-508.770	-200.000	-0.016	-0.088
-507.756	36.469	-0.044	-0.039
-506.741	-16.717	-0.153	-0.098
-505.726	56.274	0.248	-0.243
-504.712	-113.359	0.135	0.027
-503.697	-115.230	-0.302	-0.057
-502.683	-124.402	0.171	0.027
-501.668	-118.048	-0.148	-0.027
-500.653	15.377	0.108	-0.085
-499.639	-12.759	0.164	0.108
-498.624	-107.819	-0.097	0.021
-497.610	-200.000	0.021	0.129
-496.595	302.932	-0.028	-0.052
-495.581	800.000	0.031	-0.111
-494.566	800.000	-0.076	-0.218
-493.551	360.907	0.144	0.290
-492.537	-31.472	-0.059	-0.034
-491.522	-53.156	0.446	-0.206
-490.508	-83.800	-0.190	-0.061
-489.493	138.794	0.142	-0.187
-488.478	-129.880	0.053	0.007
-487.464	-46.892	-0.264	-0.130
-486.449	800.000	0.075	0.221
-485.435	-132.264	-0.192	-0.025
-484.420	-144.481	-0.171	-0.016
-483.405	88.201	-0.116	0.129
-482.391	-32.957	0.279	0.156
-481.376	120.860	0.098	-0.123
-480.362	-200.000	0.014	-0.118
-479.347	78.834	-0.250	0.269
-478.332	-32.917	-0.135	0.076
-477.318	35.537	-0.180	0.159
-476.303	-200.000	-0.020	-0.101
-475.289	296.103	-0.033	0.061
-474.274	577.128	-0.093	-0.228
-473.259	-200.000	0.010	-0.074
-472.245	-200.000	-0.005	0.224
-471.230	800.000	-0.144	0.479
-470.216	-39.025	0.141	-0.074
-469.201	-92.633	0.305	0.086
-468.186	-6.101	-0.154	-0.106
-467.172	75.517	-0.064	0.068
-466.157	-5.445	-0.309	-0.213
-465.143	-200.000	0.005	0.224
-464.128	56.577	0.288	-0.282
-463.113	800.000	0.057	-0.164
-462.099	800.000	-0.046	-0.148
-461.084	160.193	0.241	-0.338
-460.070	3.168	0.205	0.150
-459.055	346.549	0.149	-0.295
-458.040	-5.548	0.041	0.028
-457.026	800.000	-0.053	0.234
-456.011	-129.624	0.257	-0.036
-454.997	800.000	0.066	-0.196
-453.982	-20.686	-0.178	0.110
-452.968	-200.000	0.013	-0.301
-451.953	800.000	-0.025	0.074
-450.938	-200.000	-0.010	0.080
-449.924	-47.039	-0.193	0.095
-448.909	800.000	-0.039	0.116
-447.895	-61.750	0.026	-0.011
-446.880	580.300	0.040	-0.098
-445.865	93.765	-0.091	0.104
-444.851	-139.802	0.086	0.009
-443.836	172.405	-0.065	-0.094
-442.822	41.138	-0.221	-0.200
-441.807	-126.562	-0.106	0.016
-440.792	27.577	0.467	-0.395
-439.778	-143.646	0.038	-0.004
-438.763	-120.621	0.423	-0.072
-437.749	-103.753	0.105	0.025
-436.734	-136.340	-0.373	0.044
-435.719	800.000	0.047	-0.203
-434.705	3.809	-0.040	-0.029
-433.690	42.514	0.167	-0.152
-432.676	-90.560	-0.119	0.035
-431.661	47.722	-0.154	-0.144
-430.646	56.402	-0.140	-0.136
-429.632	211.924	0.162	0.256
-428.617	126.153	-0.110	0.139
-427.603	192.047	0.096	0.146
-426.588	100.336	0.222	0.258
-425.573	800.000	-0.066	0.232
-424.559	-65.221	-0.223	0.090
-423.544	635.721	0.055	0.139
-422.530	58.960	0.107	0.105
-421.515	-86.099	0.150	0.047
-420.500	-63.370	-0.122	0.050
-419.486	370.768	-0.112	0.228
-418.471	578.106	0.091	0.223
-417.457	-68.721	0.262	-0.102
-416.442	800.000	0.032	0.096
-415.428	-200.000	-0.021	-0.165
-414.413	-200.000	-0.012	-0.119
-413.398	741.965	-0.146	-0.394
-412.384	-41.404	-0.191	-0.099
-411.369	42.555	0.132	-0.120
-410.355	-200.000	0.012	0.183
-409.340	-106.185	-0.206	-0.046
-408.325	22.622	-0.282	-0.231
-407.311	-30.230	0.166	0.094
-406.296	165.874	0.119	-0.168
-405.282	-74.150	-0.124	0.045
-404.267	-39.238	0.107	0.056
-403.252	800.000	-0.054	-0.226
-402.238	800.000	-0.024	-0.093
-401.223	-137.568	-0.367	-0.041
-400.209	-29.026	-0.085	0.049
-399.194	-200.000	-0.018	0.165
-398.179	171.307	-0.070	-0.101
-397.165	-200.000	0.001	-0.076
-396.150	130.483	-0.091	0.116
-395.136	233.148	0.040	-0.066
-394.121	12.414	-0.104	-0.080
-393.106	800.000	0.027	-0.096
-392.092	-200.000	-0.007	0.056
-391.077	800.000	0.079	0.235
-390.063	-1.986	0.203	0.143
-389.048	216.565	0.077	0.122
-388.033	158.887	0.044	-0.061
-387.019	-88.893	0.218	-0.065
-386.004	477.958	-0.055	-0.125
-384.990	-122.340	0.135	0.022
-383.975	89.872	-0.061	-0.068
-382.960	136.127	0.080	-0.104
-381.946	-68.502	0.250	0.097
-380.931	18.269	0.017	0.014
-379.917	-200.000	-0.023	-0.119
-378.902	35.287	-0.172	-0.151
-377.888	800.000	-0.118	0.360
-376.873	399.094	0.071	0.149
-375.858	-134.848	-0.257	0.031
-374.844	619.719	-0.090	0.227
-373.829	-48.776	0.361	0.173
-372.815	-19.613	0.153	0.095
-371.800	800.000	-0.036	-0.143
-370.785	97.985	-0.134	-0.154
-369.771	78.298	-0.176	0.188
-368.756	-200.000	-0.030	0.145
-367.742	-160.339	0.127	-0.007
-366.727	-93.668	0.251	-0.069
-365.712	-200.000	0.012	-0.497
-364.698	-51.758	0.165	-0.077
-363.683	31.580	-0.125	-0.107
-362.669	-200.000	-0.048	0.259
-361.654	-186.165	0.469	-0.007
-360.639	29.232	0.147	0.125
-359.625	-98.848	-0.079	-0.020
-358.610	-64.088	-0.178	0.073
-357.596	17.100	0.155	-0.123
-356.581	647.344	-0.081	0.207
-355.566	-5.661	0.177	0.121
-354.552	-117.640	0.479	0.086
-353.537	227.596	-0.151	-0.245
-352.523	-182.043	0.114	0.002
-351.508	108.693	-0.073	0.088
-350.493	273.040	-0.131	-0.231
-349.479	37.385	0.023	-0.020
-348.464	73.918	-0.139	0.146
-347.450	-140.489	0.273	-0.028
-346.435	262.783	-0.099	0.171
-345.420	50.988	-0.263	-0.249
-344.406	8.735	0.100	0.075
-343.391	-200.000	0.001	-0.036
-342.377	-200.000	0.013	0.064
-341.362	-66.536	-0.377	-0.149
-340.348	-73.057	0.187	-0.069
-339.333	-48.483	-0.161	0.077
-338.318	-47.554	0.059	0.029
-337.304	-65.806	0.313	0.125
-336.289	-95.597	-0.097	-0.026
-335.275	-66.183	0.318	0.127
-334.260	-84.465	-0.222	0.070
-333.245	800.000	0.082	0.308
-332.231	656.233	0.121	0.312
-331.216	-200.000	-0.011	0.199
-330.202	-99.800	0.172	-0.043
-329.187	-52.906	-0.374	0.172
-328.172	239.643	-0.040	-0.066
-327.158	36.196	0.032	0.028
-326.143	-200.000	0.064	-0.297
-325.129	800.000	0.047	0.147
-324.114	265.925	0.183	0.319
-323.099	-38.473	-0.084	0.044
-322.085	-38.391	-0.329	-0.174
-321.070	521.025	0.079	-0.185
-320.056	-96.035	0.029	0.008
-319.041	-200.000	0.012	0.056
-318.026	800.000	-0.068	-0.209
-317.012	52.737	-0.171	-0.163
-315.997	0.942	-0.136	-0.097
-314.983	93.115	0.220	-0.249
-313.968	-20.428	-0.090	0.056
-312.953	-179.643	-0.227	-0.005
-311.939	-200.000	0.033	0.380
-310.924	800.000	0.056	0.182
-309.910	800.000	-0.073	0.218
-308.895	185.607	0.132	-0.196
-307.880	31.850	-0.126	-0.108
-306.866	-200.000	-0.007	-0.264
-305.851	-58.325	-0.157	0.068
-304.837	-14.672	-0.121	0.077
-303.822	-52.191	-0.306	-0.142
-302.807	48.258	0.267	-0.249
-301.793	-34.083	-0.247	-0.135
-300.778	8.428	0.131	-0.099
-299.764	391.658	-0.103	0.215
-298.749	28.231	-0.113	0.095
-297.735	311.783	-0.054	-0.102
-296.720	-28.276	0.300	-0.173
-295.705	-200.000	0.067	-0.419
-294.691	2.968	0.346	-0.251
-293.676	-166.259	0.326	0.014
-292.662	793.855	-0.034	0.092
-291.647	30.853	-0.167	-0.142
-290.632	-11.742	0.272	-0.178
-289.618	-200.000	-0.000	-0.062
-288.603	-183.380	0.019	-0.000
-287.589	4.776	0.082	-0.060
-286.574	-200.000	0.020	-0.307
-285.559	-88.442	-0.221	0.066
-284.545	89.836	0.136	0.151
-283.530	736.919	-0.057	-0.151
-282.516	-145.789	0.101	-0.009
-281.501	-200.000	0.005	0.370
-280.486	130.350	-0.105	-0.134
-279.472	-115.509	-0.178	-0.033
-278.457	-200.000	-0.050	-0.241
-277.443	108.981	0.069	-0.082
-276.428	-200.000	-0.035	0.204
-275.413	322.790	-0.305	0.579
-274.399	-117.531	-0.095	-0.017
-273.384	256.361	0.110	-0.189
-272.370	-31.403	-0.447	0.251
-271.355	-200.000	0.001	0.260
-270.340	-68.866	0.074	-0.028
-269.326	-200.000	-0.018	0.171
-268.311	139.312	0.094	0.123
-267.297	-157.220	0.131	0.008
-266.282	389.299	-0.127	0.263
-265.267	148.883	0.196	0.264
-264.253	-138.166	-0.248	-0.027
-263.238	800.000	0.073	0.238
-262.224	-127.728	-0.138	0.020
-261.209	34.856	-0.109	0.095
-260.195	-44.972	-0.161	-0.080
-259.180	-200.000	-0.014	-0.286
-258.165	-153.159	0.014	0.001
-257.151	24.550	0.099	-0.082
-256.136	-200.000	-0.005	0.338
-255.122	-200.000	-0.017	-0.307
-254.107	-200.000	-0.104	0.542
-253.092	-123.785	-0.372	0.059
-252.078	682.288	-0.076	0.197
-251.063	-179.262	0.110	0.002
-250.049	-200.000	0.007	0.140
-249.034	57.805	0.105	0.102
-248.019	61.201	-0.193	0.191
-247.005	43.123	-0.229	0.208
-245.990	-70.294	-0.319	0.121
-244.976	484.956	0.084	-0.192
-243.961	37.179	0.056	0.050
-242.946	-54.312	-0.403	-0.182
-241.932	-200.000	-0.007	-0.076
-240.917	-38.029	-0.369	0.195
-239.903	329.816	0.101	-0.193
-238.888	-122.225	-0.143	0.023
-237.873	-58.824	0.126	-0.054
-236.859	-121.026	0.214	0.036
-235.844	-33.543	0.294	0.162
-234.830	220.123	0.265	-0.423
-233.815	-71.341	0.405	-0.151
-232.800	-114.872	-0.243	-0.046
-231.786	-5.529	0.137	-0.093
-230.771	282.496	-0.118	0.210
-229.757	279.240	0.048	-0.086
-228.742	575.718	-0.033	-0.081
-227.727	800.000	0.037	-0.140
-226.713	-92.702	0.390	0.109
-225.698	800.000	0.059	0.210
-224.684	563.145	0.089	0.215
-223.669	-93.358	0.308	-0.085
-222.655	-76.252	0.063	-0.022
-221.640	334.134	-0.096	-0.184
-220.625	22.763	0.107	-0.088
-219.611	-8.605	0.107	0.072
-218.596	800.000	0.086	-0.314
-217.582	-200.000	0.009	0.115
-216.567	-129.518	-0.500	-0.069
-215.552	-13.131	-0.353	0.228
-214.538	-159.940	0.203	-0.011
-213.523	-94.014	-0.091	0.025
-212.509	-27.352	-0.173	-0.100
-211.494	629.102	0.136	-0.343
-210.479	573.035	-0.175	-0.425
-209.465	215.402	0.053	-0.084
-208.450	800.000	0.027	0.092
-207.436	-59.059	0.047	-0.020
-206.421	-200.000	-0.026	-0.266
-205.406	-76.006	0.107	0.038
-204.392	67.022	0.146	0.148
-203.377	282.372	-0.008	0.015
-202.363	102.566	-0.195	-0.227
-201.348	179.650	-0.080	-0.116
-200.333	-86.116	0.149	-0.046
-199.319	800.000	-0.016	0.054
-198.304	-200.000	-0.005	-0.116
-197.290	377.655	-0.060	0.121
-196.275	-123.807	0.298	0.047
-195.260	200.975	0.082	0.126
-194.246	-5.225	-0.134	-0.091
-193.231	45.554	0.068	-0.062
-192.217	-140.722	0.077	0.008
-191.202	-13.694	0.370	0.238
-190.187	157.764	-0.078	-0.107
-189.173	191.720	-0.248	-0.372
-188.158	-80.192	0.240	-0.080
-187.144	20.311	-0.258	-0.207
-186.129	-82.855	0.251	-0.081
-185.114	-200.000	-0.007	0.047
-184.100	657.195	0.113	-0.290
-183.085	621.116	0.130	0.326
-182.071	347.213	-0.224	0.439
-181.056	232.442	-0.021	0.034
-180.042	800.000	-0.043	0.182
-179.027	152.474	-0.057	0.077
-178.012	-200.000	0.015	0.206
-176.998	107.557	0.152	0.179
-175.983	-136.212	-0.210	-0.024
-174.969	44.235	0.068	-0.062
-173.954	-200.000	0.004	0.066
-172.939	69.006	-0.128	-0.130
-171.925	-165.447	0.101	0.004
-170.910	297.017	-0.077	-0.141
-169.896	-126.647	-0.453	-0.067
-168.881	800.000	0.042	-0.161
-167.866	1.412	-0.189	-0.135
-166.852	-111.352	-0.246	0.050
-165.837	262.232	0.189	0.326
-164.823	307.218	-0.100	-0.185
-163.808	541.456	-0.017	0.041
-162.793	106.333	0.130	0.153
-161.779	107.916	0.094	-0.111
-160.764	-100.811	-0.050	-0.012
-159.750	-31.774	-0.148	-0.083
-158.735	-19.236	-0.096	-0.059
-157.720	322.471	0.024	-0.044
-156.706	16.769	0.351	0.276
-155.691	-200.000	-0.004	-0.150
-154.677	306.648	0.091	0.169
-153.662	10.639	-0.087	0.066
-152.647	800.000	0.047	-0.178
-151.633	-200.000	-0.014	-0.201
-150.618	-59.990	0.187	-0.079
-149.604	-56.052	-0.064	-0.028
-148.589	717.926	-0.071	0.187
-147.574	265.100	0.051	0.088
-146.560	-144.974	-0.131	-0.012
-145.545	-81.415	-0.380	0.124
-144.531	124.997	0.065	0.082
-143.516	-98.817	-0.352	-0.089
-142.502	-71.803	0.187	0.069
-141.487	-134.286	-0.348	0.042
-140.472	-68.079	-0.042	-0.016
-139.458	-84.828	0.119	0.037
-138.443	-96.810	-0.017	0.004
-137.429	89.533	-0.210	-0.233
-136.414	344.133	-0.113	-0.219
-135.399	-10.236	0.203	0.133
-134.385	-200.000	0.014	-0.179
-133.370	264.065	-0.335	-0.578
-132.356	-43.580	0.405	0.203
-131.341	54.723	-0.048	-0.046
-130.326	-3.189	0.183	-0.126
-129.312	-130.979	0.196	0.026
-128.297	-200.000	-0.054	0.278
-127.283	-200.000	0.033	-0.287
-126.268	-200.000	0.074	0.363
-125.253	800.000	-0.128	-0.363
-124.239	735.991	-0.107	-0.285
-123.224	86.873	0.093	-0.101
-122.210	-200.000	-0.000	0.149
-121.195	123.260	0.095	-0.118
-120.180	-141.629	0.298	0.030
-119.166	691.991	0.019	-0.049
-118.151	57.877	0.291	0.282
-117.137	-71.820	-0.209	-0.077
-116.122	573.912	0.101	0.244
-115.107	-17.680	0.361	-0.225
-114.093	-200.000	0.001	-0.047
-113.078	227.570	-0.150	0.242
-112.064	-150.851	-0.278	0.021
-111.049	-106.109	-0.246	-0.055
-110.034	157.721	-0.086	-0.118
-109.020	-200.000	0.018	-0.144
-108.005	626.516	-0.059	0.148
-106.991	-170.652	0.175	-0.006
-105.976	9.596	0.224	0.168
-104.962	701.082	-0.085	0.222
-103.947	-10.868	-0.090	-0.059
-102.932	-158.235	-0.286	-0.017
-101.918	-8.935	-0.243	0.161
-100.903	-120.976	0.269	-0.045
-99.889	-200.000	0.064	0.308
-98.874	-47.566	-0.202	0.097
-97.859	-3.734	-0.057	0.039
-96.845	27.381	-0.019	-0.016
-95.830	-200.000	-0.017	-0.151
-94.816	-200.000	0.003	-0.178
-93.801	-8.322	-0.250	-0.166
-92.786	-37.968	-0.132	-0.070
-91.772	800.000	-0.118	0.343
-90.757	-200.000	-0.461	-0.002
-89.743	69.429	0.110	0.112
-88.728	800.000	0.109	0.304
-87.713	13.763	-0.040	0.031
-86.699	-200.000	0.007	0.383
-85.684	182.705	-0.282	0.412
-84.670	-40.765	0.009	0.005
-83.655	344.701	0.099	0.193
-82.640	-200.000	-0.047	0.522
-81.626	-148.567	0.227	0.018
-80.611	347.697	0.146	0.286
-79.597	-61.353	0.406	0.169
-78.582	800.000	0.061	0.174
-77.567	-146.633	0.180	-0.015
-76.553	195.451	-0.218	0.329
-75.538	-200.000	0.015	0.106
-74.524	-35.815	0.129	0.069
-73.509	-200.000	-0.029	-0.145
-72.494	256.740	-0.098	-0.166
-71.480	-110.669	-0.030	-0.006
-70.465	800.000	-0.061	-0.187
-69.451	-102.670	-0.199	0.047
-68.436	-128.997	-0.411	0.057
-67.422	101.750	-0.107	0.123
-66.407	-200.000	0.039	-0.177
-65.392	-89.952	0.321	-0.093
-64.378	-37.851	0.061	0.032
-63.363	-46.875	-0.145	-0.070
-62.349	14.226	0.138	0.107
-61.334	-91.780	-1.179	-0.331
-60.319	96.918	0.383	0.434
-59.305	-200.000	0.014	-1.217
-58.290	65.289	0.480	0.480
-57.276	800.000	0.550	1.693
-56.261	-200.000	88.232	492.190
-55.246	426.444	1423.708	3034.557
-54.232	142.321	2647.138	3473.563
-53.217	102.601	2371.721	2742.927
-52.203	45.345	1975.882	1802.150
-51.188	39.710	1761.790	1562.351
-50.173	37.122	1716.562	1502.178
-49.159	51.996	1760.529	1657.534
-48.144	55.306	1778.976	1700.793
-47.130	39.786	1737.369	1541.046
-46.115	36.703	1723.088	1504.395
-45.100	36.565	1718.173	1498.976
-44.086	36.621	1715.416	1496.945
-43.071	36.542	1713.068	1494.221
-42.057	36.482	1710.697	1491.631
-41.042	36.568	1708.535	1490.351
-40.027	36.635	1706.609	1489.131
-39.013	36.627	1704.833	1487.456
-37.998	36.586	1703.043	1485.525
-36.984	36.578	1702.218	1484.683
-35.969	36.732	1699.990	1483.858
-34.954	36.757	1698.244	1482.470
-33.940	36.719	1696.289	1480.414
-32.925	36.698	1694.571	1478.692
-31.911	36.709	1692.952	1477.305
-30.896	36.658	1691.234	1475.362
-29.881	36.691	1689.576	1474.106
-28.867	36.757	1687.360	1472.617
-27.852	36.750	1686.175	1471.474
-26.838	36.779	1684.825	1470.452
-25.823	36.761	1683.264	1468.901
-24.809	36.736	1682.297	1467.805
-23.794	36.745	1680.625	1466.357
-22.779	36.759	1678.901	1464.903
-21.765	36.637	1677.468	1462.673
-20.750	36.640	1676.009	1461.362
-19.736	36.830	1674.168	1461.134
-18.721	36.772	1672.987	1459.607
-17.706	36.765	1671.358	1458.078
-16.692	36.774	1669.832	1456.756
-15.677	36.692	1668.981	1455.335
-14.663	36.776	1667.320	1454.464
-13.648	36.836	1665.456	1453.231
-12.633	36.784	1664.003	1451.511
-11.619	36.786	1662.528	1450.185
-10.604	36.775	1661.138	1448.829
-9.590	36.759	1659.826	1447.511
-8.575	36.793	1658.255	1446.334
-7.560	36.696	1656.946	1444.414
-6.546	36.638	1656.318	1443.377
-5.531	36.693	1655.128	1442.687
-4.517	36.739	1653.458	1441.518
-3.502	36.742	1652.625	1440.763
-2.487	36.792	1650.898	1439.567
-1.473	37.036	1640.618	1432.349
-0.458	35.340	1622.714	1404.261
0.556	30.445	1622.048	1369.276
1.571	26.979	1644.469	1362.124
2.586	25.520	1656.202	1360.686
3.600	22.185	1601.117	1290.862
4.615	12.254	1482.864	1127.532
5.629	2.858	1410.712	1010.934
6.644	0.895	1400.806	990.902
7.659	0.760	1399.503	989.013
8.673	0.845	1398.365	988.677
9.688	0.690	1397.100	986.682
10.702	0.473	1394.304	983.207
11.717	4.204	1400.526	1011.896
12.731	12.923	1414.444	1079.129
13.746	17.758	1420.731	1115.526
14.761	17.494	1418.894	1112.265
15.775	16.611	1416.294	1104.367
16.790	15.585	1414.207	1095.951
17.804	14.869	1411.070	1088.761
18.819	14.401	1409.949	1084.757
19.834	14.249	1408.343	1082.434
20.848	13.936	1406.888	1079.189
21.863	13.621	1405.710	1076.145
22.877	13.459	1404.615	1074.156
23.892	13.431	1403.290	1072.868
24.907	13.332	1402.803	1071.761
25.921	13.337	1402.037	1071.111
26.936	13.480	1400.683	1070.908
27.950	13.463	1399.896	1070.099
28.965	13.570	1398.884	1069.925
29.980	13.628	1398.189	1069.675
30.994	13.594	1397.135	1068.551
32.009	13.695	1395.794	1068.085
33.023	13.741	1394.815	1067.533
34.038	13.638	1394.228	1066.329
35.053	13.658	1392.698	1065.191
36.067	13.534	1391.599	1063.463
37.082	13.653	1390.536	1063.320
38.096	13.619	1389.540	1062.243
39.111	13.513	1389.125	1061.155
40.126	13.511	1388.228	1060.361
41.140	13.465	1387.267	1059.239
42.155	13.441	1386.522	1058.424
43.169	13.490	1386.097	1058.322
44.184	13.340	1386.564	1057.621
45.199	13.440	1385.911	1057.673
46.213	13.530	1385.021	1057.475
47.228	13.531	1383.974	1056.585
48.242	13.606	1382.372	1055.748
49.257	13.515	1381.447	1054.368
50.271	13.511	1379.984	1053.135
51.286	13.491	1378.343	1051.662
52.301	13.520	1377.335	1050.981
53.315	13.538	1376.212	1050.148
54.330	13.423	1375.700	1048.934
55.344	13.480	1374.277	1048.115
56.359	13.496	1372.894	1047.073
57.374	13.456	1372.016	1046.054
58.388	13.385	1371.151	1044.853
59.403	13.317	1371.156	1044.340
60.417	13.346	1370.114	1043.635
61.432	13.353	1369.159	1042.860
62.447	13.402	1368.297	1042.420
63.461	13.386	1367.030	1041.259
64.476	13.347	1365.858	1040.031
65.490	13.305	1364.509	1038.645
66.505	13.380	1363.103	1037.957
67.520	13.419	1361.959	1037.240
68.534	13.417	1360.707	1036.179
69.549	13.394	1359.687	1035.170
70.563	13.450	1358.093	1034.210
71.578	13.455	1357.266	1033.521
72.593	13.209	1356.587	1031.381
73.607	13.258	1356.126	1031.243
74.622	13.330	1354.795	1030.585
75.636	13.215	1354.483	1029.541
76.651	13.277	1353.453	1029.051
77.666	13.341	1352.674	1028.772
78.680	13.347	1352.140	1028.312
79.695	13.319	1351.105	1027.254
80.709	13.348	1351.097	1027.339
81.724	13.414	1349.862	1026.719
82.739	13.404	1348.941	1025.867
83.753	13.419	1347.778	1024.986
84.768	13.579	1346.479	1024.894
85.782	13.475	1345.768	1023.618
86.797	13.562	1344.245	1022.910
87.812	13.391	1343.206	1020.973
88.826	13.469	1341.598	1020.140
89.841	13.487	1340.293	1019.171
90.855	13.507	1339.623	1018.695
91.870	13.487	1339.347	1018.269
92.884	13.611	1337.538	1017.568
93.899	13.671	1337.176	1017.568
94.914	13.603	1336.042	1016.199
95.928	13.672	1334.876	1015.644
96.943	13.602	1334.453	1014.804
97.957	13.603	1333.616	1014.082
98.972	13.672	1332.371	1013.467
99.987	13.622	1331.638	1012.519
101.001	13.595	1330.349	1011.282
102.016	13.504	1329.570	1010.044
103.030	13.608	1328.673	1009.910
104.045	13.505	1328.134	1008.784
105.060	13.529	1326.762	1007.798
106.074	13.532	1325.440	1006.724
107.089	13.553	1323.510	1005.295
108.103	13.453	1322.613	1003.916
109.118	13.379	1321.861	1002.812
110.133	13.364	1320.537	1001.622
111.147	13.404	1318.840	1000.488
112.162	13.458	1317.307	999.565
113.176	13.470	1316.537	998.964
114.191	13.575	1315.302	998.576
115.206	13.633	1313.816	997.705
116.220	13.494	1312.902	996.089
117.235	13.598	1311.836	995.818
118.249	13.455	1311.274	994.444
119.264	13.523	1309.837	993.672
120.279	13.459	1308.680	992.321
121.293	13.437	1307.700	991.361
122.308	13.454	1307.018	990.854
123.322	13.566	1305.401	990.213
124.337	13.456	1305.010	989.173
125.352	13.464	1303.226	987.781
126.366	13.582	1302.027	987.490
127.381	13.451	1300.595	985.536
128.395	13.480	1300.178	985.302
129.410	13.486	1299.398	984.662
130.424	13.513	1298.183	983.811
131.439	13.575	1297.198	983.345
132.454	13.483	1296.535	982.210
133.468	13.569	1295.384	981.763
134.483	13.570	1294.332	980.882
135.497	13.576	1293.669	980.329
136.512	13.523	1292.157	978.783
137.527	13.575	1291.023	978.150
138.541	13.583	1289.434	976.901
139.556	13.563	1288.025	975.634
140.570	13.647	1286.615	974.972
141.585	13.687	1285.672	974.405
142.600	13.659	1284.537	973.296
143.614	13.631	1283.696	972.406
144.629	13.727	1282.498	971.976
145.643	13.700	1281.200	970.749
146.658	13.665	1279.984	969.535
147.673	13.507	1278.951	967.748
148.687	13.575	1277.315	966.818
149.702	13.601	1276.203	966.042
150.716	13.573	1274.617	964.596
151.731	13.581	1273.648	963.825
152.746	13.496	1272.632	962.471
153.760	13.656	1271.132	962.182
154.775	13.716	1269.715	961.374
155.789	13.689	1268.743	960.396
156.804	13.653	1267.687	959.303
157.819	13.843	1266.500	959.420
158.833	13.816	1265.586	958.483
159.848	13.867	1264.618	957.962
160.862	13.796	1263.898	956.921
161.877	13.792	1262.626	955.850
162.892	13.704	1261.675	954.541
163.906	13.709	1260.851	953.861
164.921	13.753	1259.657	953.128
165.935	13.725	1258.578	952.065
166.950	13.891	1257.644	952.228
167.964	13.709	1257.531	951.009
168.979	13.792	1256.651	950.741
169.994	13.839	1255.813	950.288
171.008	13.793	1255.141	949.435
172.023	13.802	1254.361	948.814
173.037	13.900	1253.202	948.413
174.052	13.911	1252.114	947.566
175.067	13.747	1251.139	945.809
176.081	13.889	1249.958	945.641
177.096	13.866	1249.043	944.737
178.110	13.831	1248.234	943.839
179.125	13.860	1246.877	942.896
180.140	13.921	1245.350	942.003
181.154	13.872	1244.245	940.805
182.169	13.878	1243.171	939.946
183.183	13.988	1241.682	939.355
184.198	13.963	1240.466	938.216
185.213	14.039	1239.459	937.800
186.227	14.024	1238.294	936.746
187.242	14.075	1237.549	936.390
188.256	14.049	1236.669	935.494
189.271	14.107	1235.159	934.598
190.286	13.938	1234.705	933.218
191.300	13.879	1233.926	932.216
192.315	13.919	1232.826	931.531
193.329	13.913	1232.379	931.077
194.344	13.920	1231.742	930.548
195.359	13.992	1231.135	930.415
196.373	14.079	1230.542	930.371
197.388	14.167	1229.728	930.164
198.402	14.132	1229.361	929.609
199.417	14.160	1228.656	929.148
200.432	14.199	1227.593	928.480
201.446	14.245	1226.855	928.097
202.461	14.327	1225.915	927.760
203.475	14.318	1224.852	926.821
204.490	14.270	1223.525	925.468
205.504	14.294	1222.551	924.785
206.519	14.265	1221.415	923.681
207.534	14.207	1220.423	922.527
208.548	14.281	1219.365	922.056
209.563	14.187	1218.771	921.005
210.577	14.227	1217.876	920.468
211.592	14.276	1216.791	919.841
212.607	14.395	1215.626	919.532
213.621	14.323	1214.804	918.433
214.636	14.267	1214.025	917.454
215.650	14.333	1212.948	916.922
216.665	14.379	1212.202	916.530
217.680	14.454	1210.841	915.833
218.694	14.488	1210.271	915.506
219.709	14.521	1209.452	914.989
220.723	14.421	1208.945	913.975
221.738	14.510	1208.224	913.839
222.753	14.511	1207.091	912.907
223.767	14.554	1206.614	912.699
224.782	14.516	1206.267	912.147
225.796	14.532	1205.337	911.453
226.811	14.571	1204.294	910.794
227.826	14.596	1203.820	910.494
228.840	14.616	1202.885	909.812
229.855	14.493	1202.507	908.777
230.869	14.575	1201.032	908.028
231.884	14.552	1200.928	907.743
232.899	14.540	1200.095	906.970
233.913	14.597	1198.986	906.358
234.928	14.523	1198.607	905.588
235.942	14.625	1197.570	905.283
236.957	14.589	1196.629	904.295
237.972	14.554	1196.605	904.004
238.986	14.613	1195.354	903.303
240.001	14.684	1194.692	903.107
241.015	14.618	1193.974	902.127
242.030	14.671	1192.883	901.504
243.045	14.611	1192.200	900.590
244.059	14.692	1191.465	900.390
245.074	14.665	1190.933	899.762
246.088	14.709	1189.878	899.123
247.103	14.702	1188.897	898.264
248.117	14.758	1187.977	897.791
249.132	14.968	1187.087	898.169
250.147	14.915	1186.629	897.457
251.161	14.980	1186.038	897.280
252.176	15.003	1185.324	896.781
253.190	14.949	1184.851	896.054
254.205	15.078	1183.961	895.991
255.220	15.067	1183.450	895.468
256.234	15.001	1183.442	895.027
257.249	14.947	1182.243	893.756
258.263	15.055	1181.580	893.751
259.278	15.096	1181.082	893.514
260.293	15.135	1180.274	893.034
261.307	15.207	1179.351	892.640
262.322	15.179	1178.829	892.014
263.336	15.211	1178.199	891.628
264.351	15.225	1177.231	890.892
265.366	15.193	1176.993	890.465
266.380	15.255	1175.868	889.865
267.395	15.282	1175.222	889.441
268.409	15.264	1174.730	888.891
269.424	15.208	1173.813	887.822
270.439	15.198	1173.464	887.427
271.453	15.275	1172.806	887.259
272.468	15.324	1171.496	886.446
273.482	15.137	1170.952	884.973
274.497	15.278	1170.233	885.095
275.512	15.279	1169.539	884.497
276.526	15.279	1169.042	884.042
277.541	15.286	1167.937	883.163
278.555	15.319	1167.341	882.806
279.570	15.382	1166.414	882.362
280.585	15.355	1165.447	881.412
281.599	15.470	1164.270	881.048
282.614	15.515	1163.363	880.514
283.628	15.466	1162.282	879.362
284.643	15.386	1161.648	878.385
285.657	15.512	1160.821	878.344
286.672	15.455	1160.022	877.365
287.687	15.509	1159.215	876.960
288.701	15.451	1158.273	875.867
289.716	15.530	1157.099	875.311
290.730	15.545	1156.453	874.822
291.745	15.593	1156.162	874.774
292.760	15.505	1155.264	873.563
293.774	15.533	1154.581	873.113
294.789	15.614	1153.947	872.976
295.803	15.731	1153.450	873.130
296.818	15.656	1152.986	872.312
297.833	15.647	1152.019	871.456
298.847	15.619	1151.255	870.659
299.862	15.688	1149.898	869.911
300.876	15.684	1149.562	869.559
301.891	15.699	1149.171	869.264
302.906	15.691	1148.089	868.327
303.920	15.840	1147.500	868.575
304.935	15.873	1146.986	868.280
305.949	15.927	1145.945	867.694
306.964	15.851	1145.711	867.049
307.979	15.879	1144.803	866.429
308.993	15.733	1144.601	865.449
310.008	15.978	1143.148	865.529
311.022	15.902	1142.691	864.718
312.037	15.933	1141.516	863.909
313.052	15.844	1140.888	862.903
314.066	15.804	1139.930	861.896
315.081	15.894	1138.813	861.436
316.095	15.841	1138.273	860.680
317.110	15.797	1137.443	859.754
318.125	15.835	1136.911	859.467
319.139	15.920	1136.004	859.142
320.154	15.905	1135.500	858.609
321.168	15.927	1134.674	858.018
322.183	15.966	1134.250	857.821
323.197	15.970	1133.677	857.329
324.212	16.023	1132.611	856.721
325.227	15.930	1132.325	855.952
326.241	16.035	1131.648	855.899
327.256	16.028	1130.732	855.096
328.270	16.013	1129.930	854.336
329.285	15.998	1129.187	853.625
330.300	15.970	1128.080	852.571
331.314	16.074	1127.378	852.490
332.329	16.022	1126.393	851.408
333.343	16.030	1125.415	850.633
334.358	16.058	1124.805	850.236
335.373	16.116	1123.836	849.723
336.387	16.082	1123.248	849.033
337.402	16.210	1121.879	848.567
338.416	16.252	1121.344	848.298
339.431	16.175	1120.874	847.482
340.446	16.309	1119.861	847.310
341.460	16.172	1119.908	846.585
342.475	16.390	1118.411	846.468
343.489	16.409	1117.256	845.615
344.504	16.303	1116.906	844.745
345.519	16.257	1116.207	843.914
346.533	16.401	1115.203	843.796
347.548	16.412	1114.450	843.207
348.562	16.462	1113.609	842.747
349.577	16.393	1112.862	841.764
350.592	16.311	1112.170	840.756
351.606	16.349	1111.109	840.068
352.621	16.392	1110.344	839.629
353.635	16.439	1109.910	839.462
354.650	16.509	1109.327	839.292
355.665	16.459	1108.544	838.379
356.679	16.478	1107.912	837.921
357.694	16.503	1107.385	837.571
358.708	16.553	1106.571	837.128
359.723	16.470	1106.154	836.328
360.738	16.430	1105.902	835.866
361.752	16.537	1104.787	835.478
362.767	16.544	1104.056	834.889
363.781	16.611	1103.573	834.778
364.796	16.699	1102.725	834.495
365.810	16.750	1102.376	834.409
366.825	16.686	1101.596	833.433
367.840	16.772	1100.960	833.301
368.854	16.685	1100.218	832.235
369.869	16.751	1099.713	832.103
370.883	16.756	1098.473	831.115
371.898	16.811	1097.734	830.756
372.913	16.766	1097.336	830.158
373.927	16.713	1096.966	829.548
374.942	16.879	1096.223	829.724
375.956	16.906	1095.850	829.501
376.971	16.893	1095.203	828.874
377.986	16.888	1094.600	828.317
379.000	16.845	1094.256	827.774
380.015	16.976	1093.340	827.649
381.029	16.916	1092.855	826.915
382.044	17.010	1092.060	826.699
383.059	17.033	1091.111	826.018
384.073	17.019	1090.654	825.534
385.088	17.145	1089.450	825.160
386.102	17.069	1088.691	824.142
387.117	16.941	1087.985	822.917
388.132	17.009	1086.442	822.006
389.146	17.003	1085.724	821.361
390.161	16.954	1085.312	820.737
391.175	16.930	1084.490	819.925
392.190	17.023	1084.029	819.954
393.205	17.103	1083.221	819.660
394.219	17.092	1082.534	819.013
395.234	17.044	1081.497	817.923
396.248	17.073	1080.257	817.053
397.263	17.163	1079.442	816.796
398.278	17.151	1078.579	816.015
399.292	17.076	1078.145	815.255
400.307	17.081	1077.329	814.590
401.321	17.087	1077.021	814.312
402.336	17.243	1075.754	814.032
403.350	17.142	1075.293	813.123
404.365	17.195	1074.903	813.010
405.380	17.204	1073.987	812.289
406.394	17.281	1073.277	812.048
407.409	17.316	1072.591	811.624
408.423	17.301	1071.724	810.827
409.438	17.364	1071.112	810.593
410.453	17.313	1070.518	809.826
411.467	17.373	1069.681	809.409
412.482	17.398	1069.308	809.173
413.496	17.516	1068.043	808.707
414.511	17.387	1067.901	807.911
415.526	17.506	1067.255	807.920
416.540	17.579	1066.514	807.632
417.555	17.566	1065.953	807.075
418.569	17.618	1065.629	807.002
419.584	17.583	1065.147	806.400
420.599	17.597	1064.704	806.060
421.613	95.555	1312.744	1425.607
422.628	88.309	1348.856	1425.708
