DTS Sentinel unit serial number:	SN413079Multiplexer serial number:	ORYXHardware model number:	OX4-SRSoftware version number:	ORYX F/W v4.00 Oryx Data Collector v3.7.2.0data status	okinstallation	princeton_trtdifferential loss correction	single-endedforward channel	channel 2reverse channel	N/Adate	2019/09/17time	00:15:34forward acquisition time	60.00reverse acquisition time	0.00gamma	496.2192k internal	0.2329k external	0.2329temperature offset calibration	0.9971default loss term (dB/km)	0.3790temperature slope calibration	1.0000multiplexer offset coefficient	1.0000multiplexer slope coefficient	1.0000fibre end	0.00T internal ref (°C)	29.53T ext. ref 1 (°C)	0.09T ext. ref 2 (°C)	23.70length (m)	temperature (°C)	Stokes	anti-Stokes-747.200	722.245	-0.007	0.018
-746.185	-200.000	0.059	0.391
-745.171	-91.266	0.340	-0.098
-744.156	-200.000	0.007	0.031
-743.142	274.564	-0.063	0.112
-742.127	800.000	0.137	0.410
-741.112	83.954	-0.264	-0.290
-740.098	243.321	-0.211	0.357
-739.083	465.059	0.012	-0.027
-738.069	-87.397	-0.255	-0.078
-737.054	5.373	-0.112	0.083
-736.039	-148.947	-0.277	0.023
-735.025	-103.827	0.253	0.060
-734.010	261.677	-0.150	-0.261
-732.996	-28.895	-0.276	-0.159
-731.981	45.660	0.089	-0.083
-730.966	-37.178	-0.184	0.099
-729.952	-3.274	-0.124	-0.087
-728.937	-200.000	0.002	-0.276
-727.923	-200.000	-0.008	-0.167
-726.908	-64.915	0.077	-0.031
-725.894	-1.474	0.410	0.291
-724.879	294.691	-0.066	0.122
-723.864	-19.860	-0.318	-0.198
-722.850	-200.000	0.050	0.263
-721.835	-194.398	-0.383	0.003
-720.821	800.000	-0.029	-0.102
-719.806	-200.000	0.005	-0.253
-718.791	298.109	0.141	0.260
-717.777	800.000	0.079	-0.314
-716.762	326.732	0.092	0.177
-715.748	47.539	-0.188	-0.177
-714.733	45.692	-0.196	0.182
-713.718	69.809	-0.104	0.108
-712.704	-200.000	-0.044	-0.313
-711.689	234.288	-0.133	0.221
-710.675	-200.000	0.028	-0.162
-709.660	800.000	0.054	-0.186
-708.645	-103.854	-0.120	0.028
-707.631	-23.644	-0.290	-0.175
-706.616	-200.000	0.001	0.046
-705.602	-43.836	0.241	-0.122
-704.587	11.480	-0.238	0.183
-703.572	-119.153	0.121	0.021
-702.558	189.456	-0.145	0.219
-701.543	-117.090	-0.257	-0.047
-700.529	-57.431	0.204	0.090
-699.514	289.986	-0.004	-0.007
-698.499	-85.776	-0.364	-0.114
-697.485	202.503	0.232	0.360
-696.470	-50.290	0.071	0.034
-695.456	-166.766	-0.185	0.008
-694.441	-158.462	-0.223	0.013
-693.426	-142.369	-0.146	0.015
-692.412	-200.000	-0.001	-0.328
-691.397	-200.000	0.012	0.079
-690.383	318.015	-0.099	0.188
-689.368	257.278	0.144	0.248
-688.354	-45.302	0.038	0.019
-687.339	-200.000	0.001	-0.309
-686.324	-166.686	-0.137	0.006
-685.310	533.800	-0.049	0.117
-684.295	52.157	-0.171	0.164
-683.281	505.393	-0.093	0.217
-682.266	-65.068	0.334	-0.135
-681.251	-200.000	0.002	0.077
-680.237	20.507	-0.077	0.063
-679.222	47.804	-0.296	-0.277
-678.208	80.632	0.082	-0.089
-677.193	-23.599	-0.082	-0.049
-676.178	61.931	-0.171	-0.172
-675.164	-36.736	0.233	-0.126
-674.149	-147.321	-0.319	-0.027
-673.135	44.601	0.299	-0.276
-672.120	17.874	-0.111	0.089
-671.105	245.534	0.088	-0.149
-670.091	-17.139	-0.174	-0.110
-669.076	-108.876	0.477	-0.102
-668.062	-161.259	-0.294	-0.015
-667.047	-2.382	-0.131	-0.092
-666.032	-79.631	0.138	0.047
-665.018	-200.000	0.010	0.404
-664.003	34.879	-0.302	0.266
-662.989	68.294	-0.250	0.258
-661.974	22.770	-0.180	-0.148
-660.959	800.000	0.064	0.219
-659.945	57.574	-0.038	-0.037
-658.930	-15.129	0.118	-0.076
-657.916	800.000	0.051	-0.181
-656.901	-141.097	-0.237	0.024
-655.886	2.535	0.066	0.048
-654.872	-70.712	-0.270	-0.102
-653.857	-100.575	0.102	0.025
-652.843	506.269	-0.128	0.298
-651.828	800.000	0.021	0.077
-650.814	-120.626	-0.187	0.032
-649.799	54.187	-0.176	-0.170
-648.784	497.550	-0.085	-0.197
-647.770	-24.409	-0.287	0.172
-646.755	175.828	-0.025	-0.037
-645.741	406.579	0.059	0.125
-644.726	148.509	-0.106	0.143
-643.711	-159.333	0.316	0.018
-642.697	-125.573	0.155	0.024
-641.682	800.000	-0.065	0.191
-640.668	-24.268	-0.176	-0.106
-639.653	20.336	-0.046	-0.037
-638.638	3.813	-0.134	0.098
-637.624	-51.318	-0.365	0.171
-636.609	40.546	-0.130	0.118
-635.595	-200.000	-0.004	0.080
-634.580	-200.000	0.019	0.095
-633.565	-45.120	0.409	0.204
-632.551	-132.661	0.127	0.016
-631.536	-200.000	0.059	-0.283
-630.522	-200.000	-0.024	-0.160
-629.507	-76.017	-0.131	-0.046
-628.492	-36.075	-0.283	0.153
-627.478	39.765	0.095	0.085
-626.463	-200.000	-0.033	0.242
-625.449	-78.873	-0.169	-0.058
-624.434	69.227	-0.107	-0.110
-623.419	-200.000	0.017	-0.432
-622.405	-81.179	0.219	0.072
-621.390	-123.308	-0.212	0.034
-620.376	81.608	0.332	-0.360
-619.361	-200.000	-0.003	0.164
-618.346	392.030	-0.115	0.240
-617.332	800.000	-0.032	-0.094
-616.317	-200.000	0.010	-0.173
-615.303	40.394	-0.027	-0.024
-614.288	-35.677	0.216	-0.117
-613.273	-200.000	0.005	-0.196
-612.259	-6.824	-0.091	-0.062
-611.244	-97.008	-0.122	0.032
-610.230	14.897	0.074	-0.058
-609.215	-90.647	0.389	-0.113
-608.201	-200.000	0.039	0.213
-607.186	601.806	-0.123	0.306
-606.171	-200.000	-0.018	-0.185
-605.157	-200.000	0.002	0.130
-604.142	-103.799	0.267	-0.062
-603.128	-96.076	0.183	-0.049
-602.113	-80.680	-0.118	-0.039
-601.098	407.039	-0.110	-0.233
-600.084	169.581	-0.105	0.151
-599.069	-9.173	0.262	-0.175
-598.055	-108.380	-0.314	0.068
-597.040	-107.314	-0.198	0.044
-596.025	397.819	-0.079	-0.166
-595.011	-4.708	-0.182	0.126
-593.996	42.381	0.156	0.142
-592.982	233.085	0.142	-0.233
-591.967	113.860	-0.069	-0.084
-590.952	230.788	0.084	-0.138
-589.938	288.660	0.081	-0.147
-588.923	-41.240	0.294	-0.152
-587.909	-62.465	0.350	0.146
-586.894	-144.068	0.307	-0.029
-585.879	-200.000	-0.073	0.348
-584.865	800.000	-0.061	-0.222
-583.850	16.786	0.112	0.089
-582.836	245.808	-0.070	-0.119
-581.821	71.207	0.253	0.263
-580.806	93.468	0.088	-0.100
-579.792	-8.165	-0.281	-0.190
-578.777	68.047	0.166	0.170
-577.763	100.760	0.059	0.068
-576.748	-66.211	0.116	0.046
-575.733	-88.297	0.314	0.094
-574.719	477.033	0.083	-0.188
-573.704	-158.581	-0.185	0.011
-572.690	-26.405	0.094	0.055
-571.675	-124.260	-0.096	0.015
-570.661	-23.608	-0.329	-0.197
-569.646	-18.296	0.048	-0.030
-568.631	117.763	-0.170	-0.210
-567.617	-105.567	0.123	0.028
-566.602	0.683	0.098	0.070
-565.588	91.036	-0.162	0.182
-564.573	-96.108	-0.232	-0.062
-563.558	800.000	-0.094	-0.388
-562.544	-18.439	0.185	-0.116
-561.529	-117.028	-0.133	-0.024
-560.515	-180.448	0.247	0.005
-559.500	58.051	0.231	0.226
-558.485	-68.954	-0.337	-0.130
-557.471	25.776	0.209	-0.174
-556.456	338.678	0.102	0.199
-555.442	133.991	-0.064	-0.083
-554.427	-142.981	-0.326	0.032
-553.412	7.519	-0.107	-0.080
-552.398	282.098	0.109	0.195
-551.383	-70.493	0.103	-0.039
-550.369	-200.000	0.026	0.175
-549.354	-77.330	-0.149	-0.052
-548.339	-120.312	0.184	0.031
-547.325	30.762	-0.084	-0.072
-546.310	31.646	-0.121	-0.104
-545.296	-150.063	-0.298	-0.023
-544.281	-200.000	-0.013	0.249
-543.266	210.021	-0.036	-0.056
-542.252	-70.436	-0.104	0.039
-541.237	-187.318	-0.372	0.005
-540.223	-200.000	-0.049	-0.317
-539.208	39.743	-0.197	-0.177
-538.193	-79.689	-0.383	0.129
-537.179	-97.481	-0.275	0.071
-536.164	800.000	-0.100	-0.310
-535.150	-104.686	-0.138	0.032
-534.135	-73.538	-0.089	-0.033
-533.121	354.468	0.064	0.128
-532.106	-200.000	-0.015	-0.165
-531.091	800.000	0.065	-0.200
-530.077	290.086	-0.211	-0.382
-529.062	-200.000	0.029	-0.201
-528.048	254.415	0.206	0.352
-527.033	-123.829	-0.383	-0.060
-526.018	-79.633	0.113	0.038
-525.004	-200.000	-0.007	-0.325
-523.989	-137.715	0.241	0.027
-522.975	-32.798	0.099	0.055
-521.960	-98.518	0.058	-0.015
-520.945	-82.452	0.227	-0.074
-519.931	-200.000	-0.031	-0.298
-518.916	179.140	-0.122	-0.178
-517.902	-8.378	-0.082	-0.055
-516.887	-11.696	-0.609	0.399
-515.872	-85.530	0.181	0.056
-514.858	1.598	0.213	-0.153
-513.843	451.970	0.095	0.210
-512.829	29.300	0.097	-0.083
-511.814	127.641	-0.202	0.256
-510.799	-36.722	0.115	-0.062
-509.785	-200.000	0.027	-0.200
-508.770	457.910	0.044	-0.098
-507.756	544.037	0.096	0.228
-506.741	-27.971	-0.056	-0.032
-505.726	-3.049	-0.390	0.272
-504.712	800.000	0.045	0.131
-503.697	800.000	-0.044	0.130
-502.683	52.880	0.237	0.226
-501.668	-200.000	-0.030	-0.166
-500.653	-136.375	0.291	0.034
-499.639	800.000	0.029	0.117
-498.624	-90.755	0.185	0.053
-497.610	-63.203	-0.347	0.143
-496.595	131.725	-0.210	-0.270
-495.581	73.742	0.003	-0.003
-494.566	800.000	0.039	-0.149
-493.551	-77.905	-0.290	0.100
-492.537	-163.272	-0.223	0.011
-491.522	800.000	0.096	-0.399
-490.508	655.715	0.161	-0.412
-489.493	-20.197	-0.111	0.068
-488.478	-31.719	0.135	0.076
-487.464	28.578	0.054	-0.046
-486.449	-200.000	0.028	-0.478
-485.435	-200.000	-0.086	0.000
-484.420	-73.515	-0.220	-0.080
-483.405	-126.791	-0.152	-0.022
-482.391	-200.000	0.041	-0.242
-481.376	-143.904	-0.266	-0.025
-480.362	-72.400	-0.141	0.052
-479.347	-143.524	-0.286	-0.027
-478.332	75.269	-0.082	-0.086
-477.318	155.570	0.243	-0.334
-476.303	-200.000	-0.022	-0.194
-475.289	538.011	-0.078	0.184
-474.274	-113.727	-0.238	-0.046
-473.259	-65.313	0.055	-0.022
-472.245	164.811	0.083	-0.117
-471.230	800.000	0.161	-0.488
-470.216	-200.000	-0.000	0.091
-469.201	-10.977	-0.190	-0.125
-468.186	-200.000	-0.030	0.297
-467.172	-200.000	-0.015	0.144
-466.157	382.892	0.126	0.258
-465.143	167.940	-0.133	-0.189
-464.128	125.295	0.015	-0.019
-463.113	446.216	0.079	0.173
-462.099	213.483	-0.016	0.026
-461.084	-38.554	0.069	0.036
-460.070	44.225	0.229	0.210
-459.055	91.411	-0.106	0.119
-458.040	-132.023	0.579	-0.075
-457.026	202.346	0.044	0.068
-456.011	-27.919	-0.124	-0.071
-454.997	142.958	-0.101	-0.133
-453.982	-200.000	0.095	0.000
-452.968	245.105	0.056	-0.093
-451.953	-200.000	0.023	-0.250
-450.938	-83.610	0.249	0.079
-449.924	157.713	0.234	-0.322
-448.909	171.915	-0.134	0.192
-447.895	-200.000	0.131	-0.701
-446.880	15.104	0.204	-0.159
-445.865	84.285	0.386	-0.420
-444.851	-132.173	-0.126	0.016
-443.836	-63.687	0.253	-0.103
-442.822	697.666	0.119	0.313
-441.807	-24.121	0.214	0.127
-440.792	-87.399	0.290	-0.087
-439.778	-44.907	0.322	-0.159
-438.763	-200.000	0.028	-0.306
-437.749	302.642	0.128	-0.235
-436.734	-61.928	-0.297	-0.124
-435.719	-49.700	0.213	-0.101
-434.705	800.000	0.080	0.238
-433.690	-94.128	0.355	-0.097
-432.676	15.255	0.247	0.193
-431.661	800.000	0.052	0.204
-430.646	800.000	-0.014	0.046
-429.632	107.766	-0.123	-0.146
-428.617	43.026	-0.217	0.197
-427.603	151.150	-0.217	0.294
-426.588	-200.000	0.031	0.261
-425.573	25.530	0.254	0.210
-424.559	304.103	0.140	-0.259
-423.544	-99.484	0.207	0.052
-422.530	-167.414	0.162	0.006
-421.515	72.800	0.220	0.228
-420.500	37.130	-0.186	0.164
-419.486	800.000	-0.099	-0.285
-418.471	-119.128	-0.370	-0.064
-417.457	200.412	-0.257	-0.393
-416.442	-115.307	-0.217	-0.041
-415.428	-3.508	0.113	0.078
-414.413	800.000	-0.049	0.190
-413.398	-80.269	-0.509	-0.169
-412.384	-115.894	-0.132	-0.025
-411.369	6.475	0.369	0.272
-410.355	-92.144	-0.234	0.066
-409.340	231.985	0.050	0.082
-408.325	408.866	0.133	0.280
-407.311	-129.296	0.240	-0.033
-406.296	-200.000	-0.003	-0.264
-405.282	800.000	-0.063	-0.236
-404.267	-125.496	-0.101	0.015
-403.252	-62.852	-0.301	-0.124
-402.238	800.000	0.071	-0.244
-401.223	-168.237	0.514	-0.020
-400.209	291.854	-0.122	-0.221
-399.194	-91.795	-0.063	0.018
-398.179	-124.168	-0.222	-0.035
-397.165	629.348	0.088	-0.220
-396.150	-102.210	-0.144	-0.034
-395.136	-146.710	-0.424	0.036
-394.121	-45.343	0.112	-0.055
-393.106	-200.000	0.002	-0.061
-392.092	-200.000	0.085	0.461
-391.077	352.022	0.140	-0.275
-390.063	93.200	-0.188	-0.211
-389.048	-116.945	-0.350	-0.063
-388.033	110.485	-0.188	0.224
-387.019	208.722	-0.095	-0.147
-386.004	-200.000	-0.030	0.329
-384.990	342.410	-0.179	-0.348
-383.975	-141.804	0.241	-0.024
-382.960	800.000	-0.048	-0.166
-381.946	260.934	-0.026	0.044
-380.931	-97.176	0.156	-0.040
-379.917	-56.928	-0.213	0.094
-378.902	-200.000	-0.047	-0.396
-377.888	-80.285	0.337	-0.112
-376.873	-32.282	0.109	0.060
-375.858	-200.000	-0.007	-0.311
-374.844	800.000	0.144	-0.396
-373.829	-16.873	0.109	0.068
-372.815	-43.398	0.159	0.080
-371.800	800.000	0.063	-0.190
-370.785	80.185	0.199	0.212
-369.771	-61.937	0.066	0.027
-368.756	239.224	0.169	-0.279
-367.742	-122.470	0.209	-0.034
-366.727	212.317	0.123	0.193
-365.712	-200.000	-0.049	0.289
-364.698	800.000	-0.029	0.097
-363.683	106.596	0.177	0.208
-362.669	-152.247	0.521	-0.037
-361.654	-117.434	0.146	-0.026
-360.639	-61.653	-0.281	-0.117
-359.625	-120.100	0.086	-0.015
-358.610	321.751	0.042	0.078
-357.596	-177.259	0.244	-0.006
-356.581	256.401	-0.083	0.141
-355.566	-118.871	0.251	0.044
-354.552	57.689	-0.133	0.129
-353.537	164.985	0.105	0.147
-352.523	-200.000	0.016	0.284
-351.508	-88.432	-0.163	-0.048
-350.493	35.605	-0.253	0.220
-349.479	-13.196	0.222	-0.143
-348.464	-95.443	-0.227	-0.061
-347.450	16.404	0.079	-0.062
-346.435	-39.470	-0.068	0.035
-345.420	-200.000	0.025	-0.205
-344.406	-87.680	-0.403	-0.121
-343.391	-200.000	-0.013	-0.076
-342.377	-60.940	-0.251	-0.105
-341.362	106.269	-0.105	0.124
-340.348	61.282	-0.057	-0.056
-339.333	-200.000	-0.043	0.281
-338.318	-182.399	-0.104	0.002
-337.304	121.378	-0.154	0.190
-336.289	-200.000	-0.047	0.208
-335.275	800.000	-0.053	-0.205
-334.260	14.022	-0.190	0.147
-333.245	103.965	0.067	-0.078
-332.231	-200.000	-0.008	-0.083
-331.216	292.730	-0.216	-0.390
-330.202	-200.000	0.025	0.152
-329.187	-101.426	0.394	0.095
-328.172	105.367	-0.208	-0.244
-327.158	-200.000	0.082	0.381
-326.143	49.651	0.054	0.050
-325.129	459.506	-0.105	-0.232
-324.114	454.749	-0.101	0.222
-323.099	705.922	-0.152	0.397
-322.085	-67.924	-0.198	-0.076
-321.070	232.944	0.139	-0.226
-320.056	-55.674	-0.381	0.169
-319.041	204.178	0.034	0.053
-318.026	800.000	0.097	0.324
-317.012	-152.683	-0.218	0.015
-315.997	240.895	0.073	-0.121
-314.983	-31.457	0.176	0.098
-313.968	-93.070	-0.392	0.108
-312.953	-86.635	0.118	-0.036
-311.939	166.798	0.126	-0.177
-310.924	84.561	-0.045	-0.048
-309.910	508.362	-0.100	0.230
-308.895	-200.000	-0.039	-0.489
-307.880	4.946	0.187	-0.136
-306.866	62.780	0.109	0.108
-305.851	-200.000	0.001	0.184
-304.837	-66.770	-0.214	-0.084
-303.822	-7.762	0.131	0.088
-302.807	67.503	-0.086	0.087
-301.793	90.452	-0.084	0.093
-300.778	361.462	0.065	-0.128
-299.764	107.582	0.134	-0.158
-298.749	-173.227	-0.302	-0.009
-297.735	800.000	0.066	0.228
-296.720	-94.525	-0.166	0.045
-295.705	800.000	0.094	-0.299
-294.691	-200.000	0.056	-0.322
-293.676	40.893	0.187	0.167
-292.662	-131.876	-0.252	-0.033
-291.647	2.884	0.279	-0.200
-290.632	54.274	0.138	0.131
-289.618	-76.143	-0.230	0.080
-288.603	654.015	0.154	-0.391
-287.589	800.000	-0.085	0.256
-286.574	-200.000	0.015	0.194
-285.559	-32.771	-0.231	0.127
-284.545	-117.973	-0.278	0.049
-283.530	-92.126	-0.283	-0.079
-282.516	291.630	0.078	-0.140
-281.501	-200.000	0.003	-0.111
-280.486	-200.000	0.303	0.000
-279.472	85.501	-0.217	0.235
-278.457	72.986	-0.018	-0.019
-277.443	271.422	0.069	0.120
-276.428	800.000	0.027	-0.104
-275.413	81.046	0.266	0.284
-274.399	-103.344	0.322	0.075
-273.384	613.130	-0.011	-0.028
-272.370	-200.000	0.025	0.294
-271.355	1.658	0.183	0.131
-270.340	84.761	0.025	-0.027
-269.326	-108.518	-0.410	-0.087
-268.311	326.491	-0.119	-0.224
-267.297	-14.281	-0.077	-0.049
-266.282	88.188	-0.029	-0.032
-265.267	-57.840	-0.174	0.075
-264.253	-200.000	0.086	-0.431
-263.238	800.000	-0.009	-0.026
-262.224	-13.673	-0.079	-0.051
-261.209	-120.519	0.120	0.020
-260.195	-131.948	-0.381	-0.049
-259.180	-114.842	-0.253	0.048
-258.165	-174.396	0.493	0.014
-257.151	-18.256	-0.219	0.136
-256.136	-111.946	0.192	-0.038
-255.122	-200.000	0.008	0.062
-254.107	-200.000	-0.002	-0.200
-253.092	-26.068	-0.403	0.234
-252.078	-200.000	-0.067	0.421
-251.063	-200.000	-0.032	0.245
-250.049	-200.000	-0.013	-0.182
-249.034	213.756	0.102	0.159
-248.019	-17.109	-0.085	0.053
-247.005	474.642	-0.133	-0.297
-245.990	321.516	-0.116	0.219
-244.976	800.000	0.086	0.332
-243.961	129.633	0.173	0.219
-242.946	-200.000	0.004	0.201
-241.932	-98.564	0.302	-0.076
-240.917	800.000	0.041	-0.121
-239.903	-91.384	0.184	0.052
-238.888	159.593	0.038	-0.052
-237.873	-22.944	0.060	0.036
-236.859	26.083	0.368	0.304
-235.844	554.548	-0.153	-0.364
-234.830	32.866	-0.201	0.172
-233.815	-108.678	-0.213	-0.045
-232.800	-17.187	0.165	0.103
-231.786	-27.933	-0.069	-0.039
-230.771	138.830	-0.142	0.184
-229.757	-105.289	0.304	-0.068
-228.742	-37.945	-0.167	0.087
-227.727	105.517	0.274	0.319
-226.713	800.000	0.009	0.039
-225.698	-142.025	-0.194	-0.019
-224.684	-108.585	-0.232	-0.049
-223.669	-200.000	-0.002	0.181
-222.655	118.801	-0.215	0.262
-221.640	26.705	0.159	0.131
-220.625	415.189	0.116	0.245
-219.611	249.334	0.123	0.205
-218.596	-153.952	0.295	0.020
-217.582	220.802	0.129	0.204
-216.567	62.264	-0.124	0.122
-215.552	-156.143	0.237	-0.015
-214.538	-69.041	0.246	0.093
-213.523	279.444	-0.036	-0.064
-212.509	351.416	0.127	0.248
-211.494	-16.039	0.099	-0.062
-210.479	-200.000	0.021	-0.529
-209.465	-200.000	-0.011	-0.054
-208.450	-42.512	0.130	0.065
-207.436	-70.720	-0.087	-0.033
-206.421	-200.000	-0.000	-0.049
-205.406	90.242	-0.245	0.271
-204.392	142.518	-0.171	0.224
-203.377	800.000	-0.042	0.143
-202.363	248.032	0.129	0.215
-201.348	-81.102	0.091	-0.030
-200.333	-165.832	-0.129	0.005
-199.319	-2.801	0.251	0.173
-198.304	72.083	0.367	0.376
-197.290	180.158	-0.192	0.277
-196.275	-72.517	-0.105	-0.038
-195.260	-200.000	0.022	-0.177
-194.246	-90.010	0.041	-0.012
-193.231	560.484	-0.015	-0.037
-192.217	143.864	0.133	-0.175
-191.202	-8.376	0.164	0.109
-190.187	800.000	-0.039	0.136
-189.173	7.819	-0.073	0.054
-188.158	39.656	0.207	0.183
-187.144	-81.530	-0.105	0.034
-186.129	66.716	0.276	-0.277
-185.114	-200.000	0.061	-0.278
-184.100	-164.137	0.121	-0.006
-183.085	164.797	0.087	-0.120
-182.071	124.923	-0.152	-0.189
-181.056	800.000	-0.072	0.221
-180.042	-200.000	0.010	-0.205
-179.027	-161.253	-0.164	0.008
-178.012	8.796	0.346	-0.257
-176.998	379.555	-0.115	0.231
-175.983	632.950	-0.133	0.331
-174.969	800.000	0.079	-0.245
-173.954	283.658	0.058	-0.102
-172.939	138.625	-0.180	-0.232
-171.925	109.354	0.014	0.016
-170.910	-90.886	0.355	0.101
-169.896	-151.427	-0.338	0.025
-168.881	1.788	0.218	0.155
-167.866	84.322	0.162	0.174
-166.852	411.258	-0.045	0.093
-165.837	-200.000	0.041	0.254
-164.823	-141.855	-0.136	-0.013
-163.808	-200.000	0.056	0.433
-162.793	-10.680	0.321	0.209
-161.779	5.021	-0.123	-0.089
-160.764	98.849	-0.158	0.180
-159.750	-6.348	-0.184	0.123
-158.735	-104.405	0.149	-0.034
-157.720	36.981	-0.262	-0.228
-156.706	-14.688	-0.085	0.054
-155.691	432.074	-0.054	0.114
-154.677	61.559	-0.276	0.270
-153.662	-53.968	0.291	0.130
-152.647	-200.000	-0.024	-0.134
-151.633	-74.038	0.162	0.058
-150.618	347.351	-0.029	0.056
-149.604	-200.000	0.019	0.124
-148.589	-161.923	-0.135	-0.007
-147.574	-200.000	-0.004	-0.023
-146.560	502.603	-0.065	0.149
-145.545	93.844	0.176	0.196
-144.531	355.559	0.091	0.177
-143.516	-112.038	0.106	0.021
-142.502	-51.522	0.154	-0.071
-141.487	800.000	0.058	0.212
-140.472	-105.639	-0.059	0.013
-139.458	800.000	0.098	-0.311
-138.443	386.836	0.057	0.115
-137.429	-200.000	0.025	0.152
-136.414	-200.000	0.059	-0.334
-135.399	-19.722	0.298	-0.181
-134.385	-43.176	-0.086	0.043
-133.370	311.721	0.088	-0.162
-132.356	-154.642	0.183	0.012
-131.341	149.493	0.155	0.206
-130.326	-200.000	0.034	0.302
-129.312	300.441	-0.159	-0.288
-128.297	57.846	0.130	-0.125
-127.283	-200.000	-0.039	-0.248
-126.268	-176.096	0.055	0.001
-125.253	259.333	0.123	0.209
-124.239	314.792	0.076	-0.141
-123.224	800.000	0.004	0.015
-122.210	195.971	-0.099	-0.148
-121.195	-200.000	-0.007	-0.086
-120.180	146.628	-0.258	-0.340
-119.166	120.460	0.064	0.078
-118.151	-200.000	0.017	-0.078
-117.137	-109.667	-0.375	-0.078
-116.122	80.900	-0.205	-0.217
-115.107	800.000	-0.093	0.347
-114.093	800.000	0.054	-0.156
-113.078	-136.276	-0.070	0.008
-112.064	239.824	-0.052	0.085
-111.049	-200.000	0.057	0.267
-110.034	-73.008	-0.262	0.095
-109.020	-31.511	0.107	-0.059
-108.005	143.242	-0.066	-0.087
-106.991	-159.731	0.139	0.008
-105.976	-114.010	-0.126	0.024
-104.962	-200.000	-0.050	-0.255
-103.947	83.132	0.348	0.372
-102.932	16.210	0.192	0.148
-101.918	-54.775	-0.084	0.037
-100.903	-200.000	0.068	0.391
-99.889	-200.000	0.030	0.247
-98.874	-89.257	0.181	-0.052
-97.859	800.000	-0.053	0.198
-96.845	359.879	-0.048	-0.095
-95.830	800.000	0.047	0.136
-94.816	198.050	0.019	0.029
-93.801	-22.579	-0.244	0.145
-92.786	-200.000	-0.020	0.140
-91.772	800.000	0.077	0.330
-90.757	128.702	-0.194	0.243
-89.743	79.833	-0.232	0.244
-88.728	-200.000	0.017	-0.127
-87.713	50.853	-0.266	-0.248
-86.699	185.785	0.214	-0.313
-85.684	-57.924	0.174	0.075
-84.670	-77.077	0.260	-0.089
-83.655	800.000	0.051	-0.144
-82.640	95.830	0.111	-0.124
-81.626	-200.000	0.047	0.240
-80.611	-200.000	-0.024	0.140
-79.597	-200.000	-0.023	0.147
-78.582	-2.167	0.080	-0.055
-77.567	-72.844	0.146	-0.053
-76.553	68.369	-0.063	-0.063
-75.538	800.000	0.151	0.599
-74.524	-195.988	0.554	0.004
-73.509	-200.000	0.037	-0.177
-72.494	124.617	0.181	-0.224
-71.480	-2.555	-0.166	-0.114
-70.465	-3.646	-0.236	0.161
-69.451	-45.752	0.086	0.042
-68.436	102.575	-0.166	0.191
-67.422	179.279	-0.106	-0.153
-66.407	-200.000	0.063	0.274
-65.392	80.926	0.063	0.067
-64.378	-32.000	0.340	0.187
-63.363	-200.000	-0.026	0.180
-62.349	-200.000	0.000	0.115
-61.334	123.956	-0.894	-1.101
-60.319	147.072	0.540	0.713
-59.305	688.634	-0.447	-1.146
-58.290	431.576	0.569	1.208
-57.276	113.731	1.019	1.213
-56.261	-200.000	109.100	591.405
-55.246	443.094	1488.075	3197.100
-54.232	145.952	2675.541	3517.236
-53.217	99.285	2285.291	2589.899
-52.203	38.418	1896.750	1656.883
-51.188	32.816	1685.319	1429.826
-50.173	30.155	1642.391	1373.666
-49.159	48.962	1696.746	1561.310
-48.144	49.383	1711.992	1578.446
-47.130	32.392	1669.470	1412.972
-46.115	29.623	1654.845	1379.892
-45.100	29.470	1649.866	1374.540
-44.086	29.412	1647.287	1371.906
-43.071	29.372	1644.457	1369.202
-42.057	29.305	1642.579	1367.083
-41.042	29.456	1639.632	1365.696
-40.027	29.449	1638.252	1364.439
-39.013	29.444	1635.906	1362.396
-37.998	29.392	1634.817	1361.051
-36.984	29.472	1632.784	1359.891
-35.969	29.480	1632.420	1359.599
-34.954	29.625	1630.038	1358.622
-33.940	29.557	1628.940	1357.156
-32.925	29.536	1627.281	1355.564
-31.911	29.494	1625.551	1353.761
-30.896	29.524	1623.777	1352.450
-29.881	29.532	1621.946	1350.931
-28.867	29.538	1620.115	1349.399
-27.852	29.506	1619.051	1348.222
-26.838	29.510	1617.414	1346.835
-25.823	29.558	1616.094	1346.030
-24.809	29.458	1614.917	1344.267
-23.794	29.475	1613.604	1343.248
-22.779	29.602	1611.468	1342.337
-21.765	29.557	1610.134	1340.851
-20.750	29.520	1609.021	1339.602
-19.736	29.588	1607.030	1338.385
-18.721	29.605	1605.971	1337.570
-17.706	29.518	1604.376	1335.559
-16.692	29.608	1602.496	1334.590
-15.677	29.592	1601.333	1333.456
-14.663	29.606	1600.183	1332.545
-13.648	29.638	1598.376	1331.218
-12.633	29.580	1596.935	1329.546
-11.619	29.581	1595.224	1328.078
-10.604	29.526	1593.960	1326.577
-9.590	29.517	1593.071	1325.722
-8.575	29.535	1591.644	1324.610
-7.560	29.591	1590.576	1324.071
-6.546	29.529	1589.509	1322.684
-5.531	29.509	1588.465	1321.618
-4.517	29.620	1587.081	1321.207
-3.502	29.483	1586.158	1319.410
-2.487	29.600	1584.148	1318.521
-1.473	29.350	1572.143	1306.708
-0.458	26.526	1553.530	1271.380
0.556	21.160	1554.536	1239.851
1.571	18.938	1576.992	1241.622
2.586	18.511	1590.087	1248.713
3.600	16.951	1537.045	1195.956
4.615	9.322	1427.707	1060.634
5.629	1.694	1364.049	965.038
6.644	0.241	1355.415	949.691
7.659	0.101	1353.963	947.709
8.673	-0.013	1353.466	946.559
9.688	0.041	1351.426	945.385
10.702	-0.170	1348.253	941.759
11.717	3.536	1353.552	968.678
12.731	11.915	1367.112	1031.249
13.746	17.162	1374.233	1069.661
14.761	17.186	1373.253	1068.950
15.775	16.226	1369.992	1060.293
16.790	15.259	1367.457	1052.171
17.804	14.420	1365.085	1044.994
18.819	14.025	1364.296	1041.823
19.834	13.798	1362.626	1039.029
20.848	13.527	1361.339	1036.262
21.863	13.285	1360.021	1033.652
22.877	13.092	1358.734	1031.379
23.892	13.163	1357.862	1031.066
24.907	13.036	1357.263	1029.731
25.921	13.090	1356.301	1029.244
26.936	13.154	1355.432	1028.892
27.950	13.176	1354.861	1028.506
28.965	13.112	1353.688	1027.126
29.980	13.209	1352.881	1027.026
30.994	13.342	1351.523	1026.732
32.009	13.343	1350.930	1026.195
33.023	13.311	1349.891	1025.116
34.038	13.283	1348.413	1023.730
35.053	13.291	1347.154	1022.737
36.067	13.253	1346.138	1021.635
37.082	13.307	1345.305	1021.249
38.096	13.327	1344.231	1020.466
39.111	13.345	1343.970	1020.290
40.126	13.132	1343.036	1018.177
41.140	13.187	1341.986	1017.629
42.155	13.051	1341.913	1016.647
43.169	13.117	1341.789	1016.871
44.184	13.155	1341.057	1016.457
45.199	13.059	1340.697	1015.506
46.213	13.103	1340.472	1015.517
47.228	13.186	1339.470	1015.179
48.242	13.303	1337.828	1014.561
49.257	13.203	1336.664	1012.973
50.271	13.135	1335.787	1011.802
51.286	13.178	1334.053	1010.662
52.301	13.266	1332.351	1009.820
53.315	13.232	1331.411	1008.812
54.330	13.114	1331.025	1007.711
55.344	13.215	1329.292	1006.925
56.359	13.103	1328.850	1005.819
57.374	13.121	1327.478	1004.801
58.388	13.101	1327.056	1004.275
59.403	12.964	1326.596	1003.004
60.417	12.919	1326.125	1002.285
61.432	13.089	1324.428	1001.946
62.447	12.996	1323.549	1000.624
63.461	12.982	1322.617	999.750
64.476	12.955	1321.826	998.899
65.490	13.101	1319.953	998.276
66.505	13.000	1319.133	996.960
67.520	13.137	1317.898	996.765
68.534	13.091	1316.675	995.471
69.549	13.155	1315.334	994.759
70.563	13.086	1314.471	993.601
71.578	13.001	1313.507	992.273
72.593	12.888	1312.665	990.872
73.607	12.969	1311.911	990.698
74.622	12.967	1310.666	989.660
75.636	12.825	1310.594	988.667
76.651	12.961	1309.152	988.308
77.666	12.897	1309.183	987.860
78.680	12.994	1308.541	987.868
79.695	13.036	1307.272	987.075
80.709	13.072	1306.733	986.792
81.724	13.002	1306.398	986.036
82.739	13.116	1305.205	985.730
83.753	13.164	1304.306	985.248
84.768	13.231	1303.509	984.959
85.782	13.395	1301.486	984.317
86.797	13.343	1300.467	983.149
87.812	13.193	1299.390	981.359
88.826	13.284	1297.962	980.736
89.841	13.214	1297.481	979.866
90.855	13.155	1296.647	978.805
91.870	13.322	1295.817	979.077
92.884	13.326	1294.804	978.251
93.899	13.309	1294.312	977.693
94.914	13.270	1293.475	976.740
95.928	13.329	1292.579	976.329
96.943	13.331	1291.055	975.099
97.957	13.321	1290.108	974.244
98.972	13.218	1289.447	973.050
99.987	13.138	1288.474	971.760
101.001	13.334	1287.099	971.789
102.016	13.253	1286.469	970.752
103.030	13.316	1285.365	970.199
104.045	13.209	1284.622	968.924
105.060	13.231	1283.473	968.105
106.074	13.089	1282.233	966.249
107.089	13.111	1280.644	965.096
108.103	13.128	1278.989	963.864
109.118	13.066	1278.274	962.879
110.133	13.094	1277.159	962.114
111.147	13.076	1275.320	960.542
112.162	13.136	1274.090	959.876
113.176	13.102	1273.090	958.842
114.191	13.135	1272.469	958.480
115.206	13.169	1271.288	957.703
116.220	13.178	1269.723	956.493
117.235	13.166	1268.706	955.569
118.249	13.087	1267.980	954.487
119.264	13.079	1266.758	953.435
120.279	13.116	1265.133	952.342
121.293	13.062	1264.371	951.372
122.308	13.103	1262.934	950.439
123.322	13.157	1261.872	949.870
124.337	13.106	1261.119	948.924
125.352	13.038	1260.317	947.847
126.366	13.057	1258.905	946.810
127.381	13.117	1257.974	946.369
128.395	13.096	1256.914	945.366
129.410	13.176	1255.827	944.925
130.424	13.085	1255.946	944.410
131.439	13.067	1254.729	943.308
132.454	13.238	1253.205	943.054
133.468	13.220	1252.428	942.283
134.483	13.117	1251.977	941.276
135.497	13.230	1250.490	940.717
136.512	13.135	1249.127	939.071
137.527	13.212	1247.974	938.553
138.541	13.148	1246.925	937.317
139.556	13.203	1245.445	936.437
140.570	13.299	1244.488	936.176
141.585	13.276	1242.903	934.774
142.600	13.263	1242.101	934.014
143.614	13.409	1240.962	933.899
144.629	13.408	1240.144	933.197
145.643	13.395	1238.842	932.058
146.658	13.255	1237.921	930.497
147.673	13.287	1236.580	929.583
148.687	13.261	1234.987	928.157
149.702	13.185	1234.039	926.941
150.716	13.225	1232.346	925.807
151.731	13.220	1231.518	925.075
152.746	13.242	1230.529	924.374
153.760	13.362	1229.209	923.971
154.775	13.367	1227.646	922.741
155.789	13.342	1227.317	922.277
156.804	13.318	1226.165	921.192
157.819	13.337	1225.634	920.818
158.833	13.384	1224.589	920.215
159.848	13.589	1223.498	920.453
160.862	13.441	1222.520	918.814
161.877	13.469	1221.360	918.018
162.892	13.349	1220.124	916.339
163.906	13.580	1219.106	916.776
164.921	13.327	1218.734	915.014
165.935	13.556	1217.614	915.358
166.950	13.482	1216.847	914.289
167.964	13.462	1216.279	913.674
168.979	13.430	1215.854	913.096
169.994	13.475	1214.903	912.550
171.008	13.562	1213.884	912.184
172.023	13.561	1213.348	911.691
173.037	13.633	1212.439	911.325
174.052	13.579	1211.319	910.105
175.067	13.577	1210.186	909.162
176.081	13.498	1209.341	908.016
177.096	13.521	1208.577	907.487
178.110	13.457	1207.069	905.925
179.125	13.503	1206.374	905.571
180.140	13.634	1204.546	904.835
181.154	13.559	1203.638	903.667
182.169	13.598	1202.679	903.079
183.183	13.675	1201.103	902.233
184.198	13.798	1199.622	901.709
185.213	13.655	1199.243	900.571
186.227	13.809	1197.696	900.162
187.242	13.692	1196.836	898.802
188.256	13.789	1195.617	898.332
189.271	13.798	1195.336	898.090
190.286	13.768	1194.064	896.895
191.300	13.510	1193.196	894.769
192.315	13.569	1192.595	894.559
193.329	13.554	1192.242	894.134
194.344	13.641	1191.519	893.977
195.359	13.636	1190.692	893.251
196.373	13.757	1190.219	893.472
197.388	13.740	1189.911	893.070
198.402	13.833	1189.225	892.977
199.417	13.963	1188.293	892.897
200.432	13.961	1187.579	892.272
201.446	13.908	1186.807	891.324
202.461	14.071	1185.670	891.266
203.475	13.996	1184.641	890.015
204.490	14.005	1183.365	889.025
205.504	13.881	1182.379	887.540
206.519	13.982	1180.776	886.798
207.534	13.894	1180.115	885.754
208.548	13.805	1179.255	884.558
209.563	14.013	1178.053	884.686
210.577	13.993	1177.271	883.910
211.592	14.035	1176.884	883.765
212.607	14.054	1175.706	882.903
213.621	14.053	1174.953	882.256
214.636	14.097	1173.917	881.636
215.650	14.137	1172.897	881.000
216.665	14.201	1172.153	880.705
217.680	14.197	1171.232	879.914
218.694	14.139	1170.395	878.900
219.709	14.194	1169.722	878.605
220.723	14.170	1168.921	877.799
221.738	14.156	1168.109	877.038
222.753	14.218	1167.411	876.764
223.767	14.281	1166.416	876.270
224.782	14.236	1166.238	875.825
225.796	14.341	1165.376	875.648
226.811	14.292	1165.021	875.048
227.826	14.349	1164.124	874.598
228.840	14.261	1163.407	873.521
229.855	14.225	1162.964	872.917
230.869	14.289	1162.301	872.681
231.884	14.286	1161.032	871.636
232.899	14.299	1160.143	870.957
233.913	14.209	1159.339	869.805
234.928	14.183	1158.734	869.138
235.942	14.155	1158.003	868.369
236.957	14.250	1157.138	868.137
237.972	14.256	1156.143	867.345
238.986	14.214	1156.089	867.011
240.001	14.303	1155.312	866.814
241.015	14.354	1154.216	866.179
242.030	14.417	1153.518	865.906
243.045	14.405	1152.654	865.122
244.059	14.358	1152.174	864.440
245.074	14.481	1150.914	864.057
246.088	14.455	1150.426	863.479
247.103	14.430	1149.438	862.529
248.117	14.443	1149.146	862.304
249.132	14.570	1148.136	862.122
250.147	14.716	1147.506	862.328
251.161	14.718	1146.900	861.809
252.176	14.641	1146.772	861.235
253.190	14.808	1145.406	860.997
254.205	14.881	1144.918	860.927
255.220	14.903	1144.209	860.435
256.234	14.862	1143.490	859.603
257.249	14.891	1142.785	859.149
258.263	14.803	1142.354	858.296
259.278	14.805	1142.143	858.070
260.293	14.932	1141.430	858.112
261.307	14.997	1140.406	857.599
262.322	14.955	1139.908	856.934
263.336	14.906	1139.388	856.214
264.351	15.003	1138.662	856.092
265.366	14.968	1137.864	855.238
266.380	14.989	1137.395	854.916
267.395	15.012	1136.409	854.214
268.409	14.957	1135.792	853.398
269.424	14.879	1135.667	852.827
270.439	14.930	1134.871	852.415
271.453	15.008	1133.682	851.843
272.468	15.012	1132.638	851.004
273.482	14.925	1132.407	850.313
274.497	15.018	1131.520	850.045
275.512	15.022	1130.926	849.544
276.526	15.060	1130.378	849.249
277.541	14.899	1129.930	848.019
278.555	14.919	1129.484	847.713
279.570	15.116	1127.996	847.519
280.585	15.101	1127.289	846.838
281.599	15.254	1126.334	846.816
282.614	15.185	1125.502	845.768
283.628	15.209	1124.195	844.835
284.643	15.091	1123.183	843.403
285.657	15.113	1123.057	843.342
286.672	15.190	1121.611	842.573
287.687	15.256	1121.034	842.396
288.701	15.251	1120.020	841.533
289.716	15.300	1119.467	841.291
290.730	15.225	1118.635	840.215
291.745	15.208	1118.304	839.804
292.760	15.346	1117.677	839.952
293.774	15.258	1117.219	839.092
294.789	15.479	1116.315	839.445
295.803	15.416	1115.385	838.355
296.818	15.332	1114.899	837.498
297.833	15.319	1114.526	837.077
298.847	15.423	1113.492	836.744
299.862	15.396	1112.422	835.732
300.876	15.449	1111.577	835.288
301.891	15.468	1111.315	835.111
302.906	15.546	1110.490	834.804
303.920	15.594	1109.423	834.169
304.935	15.567	1109.233	833.817
305.949	15.601	1108.717	833.525
306.964	15.620	1107.952	832.971
307.979	15.636	1107.255	832.452
308.993	15.635	1106.481	831.793
310.008	15.625	1105.560	830.977
311.022	15.587	1105.089	830.358
312.037	15.643	1104.258	829.937
313.052	15.501	1103.390	828.514
314.066	15.570	1102.523	828.127
315.081	15.588	1101.355	827.268
316.095	15.591	1100.659	826.685
317.110	15.505	1100.055	825.735
318.125	15.538	1099.311	825.266
319.139	15.562	1098.810	824.937
320.154	15.600	1098.156	824.557
321.168	15.598	1097.306	823.837
322.183	15.643	1096.801	823.605
323.197	15.698	1096.297	823.423
324.212	15.691	1095.724	822.887
325.227	15.659	1094.944	822.070
326.241	15.714	1094.167	821.681
327.256	15.683	1093.685	821.096
328.270	15.612	1093.034	820.190
329.285	15.709	1092.002	819.814
330.300	15.732	1090.767	818.928
331.314	15.830	1090.048	818.793
332.329	15.744	1088.940	817.470
333.343	15.882	1088.106	817.442
334.358	15.827	1087.475	816.629
335.373	15.847	1086.471	815.898
336.387	15.892	1085.946	815.650
337.402	15.951	1085.156	815.270
338.416	15.908	1084.458	814.464
339.431	15.939	1083.830	814.070
340.446	16.012	1083.724	814.274
341.460	16.021	1082.679	813.456
342.475	16.058	1081.583	812.743
343.489	16.161	1080.524	812.368
344.504	16.061	1080.016	811.435
345.519	16.125	1079.298	811.129
346.533	16.154	1078.618	810.688
347.548	16.183	1077.738	810.096
348.562	16.159	1077.225	809.521
349.577	16.065	1076.439	808.410
350.592	16.133	1074.905	807.509
351.606	16.118	1074.727	807.234
352.621	16.073	1074.435	806.727
353.635	16.095	1073.467	806.036
354.650	16.164	1072.946	805.903
355.665	16.143	1072.062	805.065
356.679	16.219	1071.283	804.771
357.694	16.224	1071.029	804.533
358.708	16.262	1070.039	803.899
359.723	16.205	1069.694	803.298
360.738	16.303	1068.865	803.069
361.752	16.314	1068.139	802.508
362.767	16.267	1067.790	801.950
363.781	16.235	1067.334	801.385
364.796	16.295	1066.877	801.257
365.810	16.321	1066.070	800.701
366.825	16.543	1065.119	800.967
367.840	16.522	1064.760	800.530
368.854	16.417	1064.493	799.758
369.869	16.602	1063.584	799.882
370.883	16.588	1062.442	798.884
371.898	16.468	1061.925	797.859
372.913	16.503	1061.463	797.606
373.927	16.636	1060.888	797.731
374.942	16.648	1060.506	797.428
375.956	16.555	1059.902	796.466
376.971	16.595	1059.305	796.136
377.986	16.579	1058.620	795.477
379.000	16.597	1058.356	795.292
380.015	16.721	1057.741	795.343
381.029	16.722	1056.962	794.691
382.044	16.732	1056.350	794.208
383.059	16.666	1055.768	793.388
384.073	16.805	1054.514	793.026
385.088	16.675	1053.903	791.891
386.102	16.729	1053.177	791.528
387.117	16.828	1051.879	790.943
388.132	16.682	1050.986	789.521
389.146	16.766	1050.372	789.382
390.161	16.866	1049.371	789.024
391.175	16.716	1048.989	787.970
392.190	16.776	1048.578	787.871
393.205	16.776	1048.117	787.452
394.219	16.753	1047.200	786.588
395.234	16.905	1046.181	786.458
396.248	16.825	1044.968	785.104
397.263	16.812	1044.201	784.402
398.278	16.878	1043.439	784.061
399.292	16.757	1042.806	782.960
400.307	16.736	1042.048	782.224
401.321	16.825	1041.499	782.153
402.336	16.786	1040.896	781.452
403.350	16.780	1040.383	780.972
404.365	16.843	1039.352	780.418
405.380	16.996	1038.930	780.737
406.394	16.899	1037.907	779.453
407.409	16.937	1037.784	779.464
408.423	17.093	1036.497	779.145
409.438	17.147	1035.606	778.653
410.453	17.120	1034.869	777.906
411.467	17.101	1034.695	777.621
412.482	17.173	1033.824	777.229
413.496	17.212	1032.800	776.567
414.511	17.221	1032.580	776.371
415.526	17.174	1032.407	775.959
416.540	17.267	1031.818	775.872
417.555	17.273	1031.103	775.293
418.569	17.370	1030.458	775.183
419.584	17.276	1030.451	774.683
420.599	17.443	1029.523	774.674
421.613	103.517	1321.953	1469.359
422.628	94.709	1364.525	1469.456
