DTS Sentinel unit serial number:	SN413079Multiplexer serial number:	ORYXHardware model number:	OX4-SRSoftware version number:	ORYX F/W v4.00 Oryx Data Collector v3.7.2.0data status	okinstallation	princeton_trtdifferential loss correction	single-endedforward channel	channel 2reverse channel	N/Adate	2019/09/17time	08:31:35forward acquisition time	60.00reverse acquisition time	0.00gamma	496.2192k internal	0.2332k external	0.2332temperature offset calibration	0.9974default loss term (dB/km)	0.3790temperature slope calibration	1.0000multiplexer offset coefficient	1.0000multiplexer slope coefficient	1.0000fibre end	0.00T internal ref (°C)	27.56T ext. ref 1 (°C)	0.14T ext. ref 2 (°C)	23.09length (m)	temperature (°C)	Stokes	anti-Stokes-747.200	109.747	0.128	-0.154
-746.185	-200.000	-0.017	0.115
-745.171	452.202	-0.049	-0.109
-744.156	-79.316	-0.286	0.097
-743.142	69.073	0.097	0.100
-742.127	325.299	-0.050	0.096
-741.112	-200.000	-0.014	0.090
-740.098	157.557	-0.198	0.276
-739.083	-5.741	-0.133	-0.091
-738.069	-139.674	-0.309	0.033
-737.054	-50.648	-0.129	-0.061
-736.039	-200.000	0.073	0.324
-735.025	31.871	-0.109	-0.094
-734.010	734.890	-0.065	0.175
-732.996	-163.181	0.183	-0.009
-731.981	530.771	-0.074	-0.175
-730.966	284.519	0.066	-0.119
-729.952	-131.038	-0.137	0.018
-728.937	-200.000	0.027	0.175
-727.923	-200.000	0.005	-0.284
-726.908	-200.000	-0.051	-0.294
-725.894	-54.053	-0.197	0.090
-724.879	161.157	-0.021	0.029
-723.864	92.346	-0.167	0.189
-722.850	-200.000	0.001	-0.070
-721.835	-131.817	0.183	0.024
-720.821	215.587	-0.130	0.208
-719.806	-200.000	0.019	0.209
-718.791	-200.000	0.010	0.298
-717.777	9.344	0.115	0.088
-716.762	-115.139	-0.189	-0.036
-715.748	-44.521	-0.200	0.100
-714.733	800.000	-0.044	-0.193
-713.718	162.470	-0.160	0.226
-712.704	-179.710	-0.366	-0.008
-711.689	72.702	-0.134	0.140
-710.675	800.000	-0.106	0.306
-709.660	43.811	0.288	0.265
-708.645	-27.257	0.135	0.079
-707.631	233.624	-0.047	0.078
-706.616	-129.600	0.063	-0.009
-705.602	159.078	-0.101	0.141
-704.587	253.483	0.145	0.248
-703.572	188.331	-0.064	-0.097
-702.558	7.225	0.181	-0.136
-701.543	-107.025	0.217	-0.048
-700.529	-200.000	-0.015	0.203
-699.514	-200.000	-0.032	0.214
-698.499	70.481	-0.140	0.146
-697.485	-200.000	0.004	-0.065
-696.470	-60.424	0.080	-0.034
-695.456	45.963	0.212	0.197
-694.441	800.000	-0.089	-0.384
-693.426	332.397	-0.079	0.153
-692.412	36.331	0.070	-0.062
-691.397	800.000	-0.051	-0.143
-690.383	-58.602	0.118	-0.051
-689.368	-35.230	-0.151	0.083
-688.354	212.815	0.147	0.233
-687.339	174.011	-0.241	-0.349
-686.324	800.000	-0.063	0.181
-685.310	180.558	0.046	0.067
-684.295	-19.389	-0.309	-0.193
-683.281	-44.676	0.072	-0.036
-682.266	70.128	-0.081	-0.084
-681.251	-109.567	-0.142	0.030
-680.237	4.009	-0.311	-0.228
-679.222	-34.476	0.351	-0.193
-678.208	371.932	-0.190	-0.386
-677.193	321.879	0.034	0.066
-676.178	58.700	-0.059	0.058
-675.164	35.093	-0.085	-0.075
-674.149	-23.882	-0.324	0.195
-673.135	65.703	-0.194	-0.197
-672.120	319.215	0.118	0.224
-671.105	176.297	-0.080	0.116
-670.091	184.463	-0.222	0.329
-669.076	330.460	-0.032	0.062
-668.062	-46.463	-0.404	-0.199
-667.047	800.000	0.080	-0.261
-666.032	118.232	-0.129	-0.160
-665.018	-200.000	-0.005	-0.148
-664.003	-122.018	-0.089	-0.015
-662.989	-107.703	-0.266	-0.058
-661.974	-111.817	0.174	0.035
-660.959	255.280	-0.046	-0.079
-659.945	276.563	-0.113	-0.201
-658.930	383.379	-0.111	0.229
-657.916	-200.000	-0.014	0.160
-656.901	-195.541	0.104	0.001
-655.886	-132.772	-0.103	0.013
-654.872	518.961	-0.026	-0.061
-653.857	125.486	-0.126	0.159
-652.843	-200.000	-0.017	-0.267
-651.828	-170.764	0.158	-0.005
-650.814	115.953	0.250	-0.307
-649.799	653.350	0.128	-0.330
-648.784	-135.686	-0.110	-0.013
-647.770	-137.606	-0.437	-0.049
-646.755	508.467	0.147	-0.343
-645.741	800.000	-0.032	0.116
-644.726	536.447	-0.090	-0.213
-643.711	111.207	0.249	0.301
-642.697	32.501	0.146	0.127
-641.682	-85.649	-0.302	-0.094
-640.668	-200.000	-0.068	0.306
-639.653	-154.323	0.459	-0.031
-638.638	-200.000	-0.027	-0.149
-637.624	-120.349	0.039	-0.007
-636.609	-200.000	-0.022	0.288
-635.595	216.228	-0.138	0.219
-634.580	-200.000	0.031	-0.171
-633.565	800.000	0.107	-0.347
-632.551	-136.478	0.231	0.027
-631.536	800.000	-0.104	0.432
-630.522	-18.535	-0.258	0.162
-629.507	-92.321	-0.265	-0.075
-628.492	34.576	0.051	-0.044
-627.478	53.363	0.249	-0.239
-626.463	-150.580	0.236	-0.018
-625.449	86.844	0.068	0.075
-624.434	800.000	-0.092	0.267
-623.419	564.044	0.104	-0.253
-622.405	189.903	-0.124	0.186
-621.390	71.422	-0.062	0.064
-620.376	-120.267	0.337	-0.058
-619.361	296.196	0.108	-0.198
-618.346	800.000	-0.069	-0.293
-617.332	6.201	0.063	0.047
-616.317	800.000	-0.086	-0.250
-615.303	-40.284	0.488	0.254
-614.288	45.360	0.125	0.115
-613.273	-200.000	0.003	-0.033
-612.259	-4.742	0.196	0.135
-611.244	-93.922	0.325	-0.090
-610.230	-112.076	-0.252	-0.051
-609.215	284.591	0.054	0.096
-608.201	40.147	0.118	-0.106
-607.186	400.173	-0.117	-0.246
-606.171	800.000	-0.069	0.302
-605.157	106.813	-0.156	0.185
-604.142	104.694	-0.130	0.153
-603.128	-34.196	0.133	0.073
-602.113	42.371	-0.183	-0.166
-601.098	-87.865	-0.347	0.104
-600.084	-200.000	0.049	0.263
-599.069	-143.701	-0.250	-0.024
-598.055	25.794	-0.333	0.278
-597.040	-115.636	0.374	-0.070
-596.025	-200.000	0.015	-0.104
-595.011	11.459	-0.007	-0.005
-593.996	-89.833	-0.310	0.091
-592.982	405.555	-0.059	0.124
-591.967	82.484	0.258	-0.281
-590.952	-104.737	-0.200	-0.046
-589.938	-16.454	0.078	-0.050
-588.923	738.755	-0.079	-0.211
-587.909	375.897	0.186	-0.379
-586.894	349.834	0.113	0.224
-585.879	-200.000	-0.038	0.647
-584.865	-100.743	-0.436	0.107
-583.850	-35.767	0.116	-0.063
-582.836	800.000	-0.078	0.302
-581.821	-166.005	-0.149	-0.006
-580.806	-56.220	0.162	-0.072
-579.792	119.537	0.114	-0.141
-578.777	19.443	-0.129	-0.104
-577.763	-163.309	-0.065	-0.003
-576.748	-38.335	-0.133	-0.070
-575.733	-62.585	-0.103	-0.043
-574.719	-56.864	-0.162	0.071
-573.704	-200.000	-0.023	-0.272
-572.690	-95.969	-0.288	0.077
-571.675	800.000	-0.016	0.063
-570.661	150.004	-0.088	-0.120
-569.646	531.278	0.100	-0.237
-568.631	454.903	0.072	-0.160
-567.617	800.000	0.089	0.252
-566.602	239.379	0.062	0.104
-565.588	88.126	-0.058	-0.064
-564.573	-94.467	-0.387	0.105
-563.558	-148.255	-0.228	-0.019
-562.544	-138.166	0.036	-0.004
-561.529	-200.000	0.002	-0.107
-560.515	-151.939	-0.287	0.021
-559.500	-55.098	-0.061	-0.028
-558.485	113.343	-0.031	-0.038
-557.471	251.582	0.093	0.159
-556.456	522.258	-0.099	-0.233
-555.442	-200.000	-0.101	0.543
-554.427	-200.000	0.015	0.150
-553.412	178.373	-0.260	-0.379
-552.398	-200.000	-0.011	0.275
-551.383	-97.675	0.207	-0.054
-550.369	-54.712	-0.337	-0.152
-549.354	-50.533	0.160	-0.075
-548.339	-47.503	0.197	0.096
-547.325	-111.332	-0.167	0.034
-546.310	152.979	-0.129	-0.177
-545.296	-94.169	0.233	-0.064
-544.281	800.000	0.164	-0.464
-543.266	367.199	0.068	0.138
-542.252	-81.081	-0.272	0.090
-541.237	-65.311	-0.066	0.027
-540.223	-22.899	-0.255	-0.153
-539.208	-200.000	-0.052	-0.395
-538.193	-97.610	0.112	-0.029
-537.179	-172.227	0.325	0.010
-536.164	-37.247	0.134	0.071
-535.150	248.137	0.051	-0.086
-534.135	-146.863	-0.206	0.018
-533.121	-191.692	-0.148	-0.001
-532.106	13.491	-0.347	-0.269
-531.091	-14.315	0.111	-0.071
-530.077	-63.500	0.382	-0.156
-529.062	149.785	-0.190	0.257
-528.048	-162.311	0.402	-0.020
-527.033	800.000	0.022	0.070
-526.018	-124.489	-0.196	-0.030
-525.004	-200.000	-0.006	-0.105
-523.989	42.306	0.249	0.225
-522.975	-59.087	0.115	-0.049
-521.960	-200.000	0.005	-0.290
-520.945	-200.000	-0.042	-0.223
-519.931	-47.451	0.193	0.094
-518.916	426.222	-0.102	0.218
-517.902	211.577	0.126	0.198
-516.887	-200.000	-0.024	-0.345
-515.872	-83.218	-0.206	-0.066
-514.858	25.438	0.071	0.059
-513.843	-200.000	0.013	0.276
-512.829	9.700	0.126	-0.095
-511.814	-200.000	0.022	0.322
-510.799	-200.000	0.000	0.118
-509.785	-200.000	-0.009	0.239
-508.770	21.198	0.153	-0.124
-507.756	-10.448	0.281	-0.186
-506.741	-180.752	-0.240	-0.005
-505.726	637.841	0.176	-0.445
-504.712	-12.516	0.067	-0.043
-503.697	-72.789	-0.327	-0.120
-502.683	-114.976	-0.080	-0.015
-501.668	-85.594	0.380	-0.118
-500.653	122.848	0.122	-0.152
-499.639	35.603	-0.124	0.109
-498.624	128.249	-0.235	0.298
-497.610	-200.000	-0.012	0.149
-496.595	-66.413	-0.011	-0.004
-495.581	-200.000	0.013	-0.112
-494.566	-76.728	-0.265	-0.093
-493.551	-92.614	0.369	-0.103
-492.537	7.879	-0.445	-0.332
-491.522	-200.000	-0.000	0.049
-490.508	432.029	-0.097	-0.209
-489.493	191.168	-0.099	0.148
-488.478	-103.248	0.146	0.034
-487.464	162.043	-0.376	-0.525
-486.449	81.119	-0.042	-0.045
-485.435	-200.000	-0.007	-0.052
-484.420	749.068	-0.074	-0.199
-483.405	457.048	0.083	-0.184
-482.391	-121.058	-0.280	0.047
-481.376	800.000	0.046	0.164
-480.362	172.278	0.093	-0.133
-479.347	-200.000	0.022	-0.183
-478.332	800.000	0.057	0.230
-477.318	201.148	-0.201	0.308
-476.303	41.066	0.145	0.130
-475.289	-8.233	0.155	-0.104
-474.274	72.878	-0.145	0.151
-473.259	460.320	-0.068	0.150
-472.245	800.000	0.049	-0.200
-471.230	-166.477	0.168	0.007
-470.216	800.000	0.080	0.252
-469.201	-192.467	-0.091	-0.001
-468.186	-112.016	0.297	0.059
-467.172	-200.000	-0.024	-0.156
-466.157	800.000	-0.093	0.288
-465.143	7.191	-0.228	-0.169
-464.128	-61.614	0.079	0.033
-463.113	-200.000	0.020	-0.183
-462.099	-39.310	-0.066	0.035
-461.084	-200.000	0.004	0.092
-460.070	341.825	-0.143	0.278
-459.055	-67.781	0.309	-0.120
-458.040	262.936	0.042	-0.073
-457.026	-200.000	0.001	0.118
-456.011	443.546	0.061	0.132
-454.997	53.754	-0.095	0.091
-453.982	292.386	0.272	-0.493
-452.968	-51.472	0.117	-0.054
-451.953	249.797	-0.051	0.086
-450.938	499.806	0.085	-0.196
-449.924	54.666	-0.205	-0.197
-448.909	56.153	-0.184	0.178
-447.895	194.156	-0.164	0.247
-446.880	-200.000	-0.042	0.185
-445.865	-81.395	-0.077	0.025
-444.851	-115.026	-0.440	-0.083
-443.836	100.299	0.063	0.073
-442.822	-200.000	0.017	0.326
-441.807	422.185	0.054	0.116
-440.792	800.000	0.047	-0.146
-439.778	-109.688	-0.262	-0.055
-438.763	-84.482	-0.089	0.028
-437.749	-145.693	-0.239	-0.021
-436.734	754.212	0.114	0.305
-435.719	-79.788	-0.040	0.013
-434.705	119.374	-0.196	0.241
-433.690	800.000	0.095	0.318
-432.676	52.086	0.019	0.018
-431.661	800.000	-0.096	0.310
-430.646	800.000	-0.138	0.398
-429.632	-134.203	-0.263	0.032
-428.617	-200.000	0.007	-0.084
-427.603	728.636	0.136	0.360
-426.588	224.879	0.148	0.238
-425.573	-200.000	0.030	-0.165
-424.559	294.599	0.112	-0.203
-423.544	-196.448	0.245	0.002
-422.530	-138.172	-0.083	-0.009
-421.515	127.313	0.178	-0.224
-420.500	754.516	0.072	0.194
-419.486	140.979	0.227	0.298
-418.471	800.000	-0.016	0.056
-417.457	746.914	-0.072	-0.194
-416.442	800.000	-0.065	-0.226
-415.428	725.712	-0.044	-0.118
-414.413	61.894	0.053	0.052
-413.398	445.211	0.141	0.307
-412.384	461.758	-0.067	-0.148
-411.369	213.397	-0.166	-0.260
-410.355	100.467	0.133	0.154
-409.340	-32.510	0.348	-0.192
-408.325	206.682	-0.147	-0.227
-407.311	-97.265	-0.083	0.022
-406.296	800.000	-0.012	-0.050
-405.282	-2.150	-0.361	-0.251
-404.267	-130.375	0.059	-0.008
-403.252	752.346	-0.045	-0.121
-402.238	-70.885	-0.362	0.136
-401.223	-200.000	0.036	0.183
-400.209	-199.869	-0.081	-0.000
-399.194	268.330	-0.057	0.100
-398.179	-29.484	0.135	-0.076
-397.165	130.060	-0.094	-0.120
-396.150	-4.688	0.220	-0.151
-395.136	-174.079	-0.096	-0.003
-394.121	-63.080	0.130	0.053
-393.106	800.000	0.049	-0.160
-392.092	-200.000	0.049	0.396
-391.077	-178.477	-0.162	0.004
-390.063	-130.147	0.115	-0.016
-389.048	-99.592	0.506	0.126
-388.033	-200.000	-0.141	0.000
-387.019	-142.117	-0.121	0.012
-386.004	-133.297	0.265	0.033
-384.990	185.144	-0.092	-0.135
-383.975	140.414	0.119	-0.156
-382.960	598.525	0.197	-0.485
-381.946	353.910	0.046	-0.090
-380.931	65.048	0.169	-0.170
-379.917	-40.542	-0.334	-0.172
-378.902	-2.461	0.080	-0.055
-377.888	-124.090	-0.196	0.031
-376.873	-200.000	-0.014	-0.429
-375.858	-118.592	-0.171	-0.030
-374.844	127.673	0.243	-0.306
-373.829	-111.073	0.100	0.020
-372.815	5.522	0.294	0.215
-371.800	83.936	0.098	0.106
-370.785	193.527	-0.013	0.020
-369.771	800.000	-0.097	-0.323
-368.756	-27.036	0.281	-0.163
-367.742	-200.000	0.001	-0.175
-366.727	-200.000	-0.003	-0.159
-365.712	30.664	0.320	-0.271
-364.698	-15.159	-0.162	-0.103
-363.683	800.000	0.038	-0.111
-362.669	-138.950	-0.138	0.015
-361.654	158.329	-0.113	-0.155
-360.639	130.126	-0.064	0.082
-359.625	22.172	0.403	0.326
-358.610	-32.596	-0.263	0.145
-357.596	305.359	-0.123	-0.226
-356.581	3.779	0.204	0.147
-355.566	210.897	-0.181	-0.282
-354.552	-200.000	0.008	0.121
-353.537	-106.883	-0.144	-0.032
-352.523	-107.340	0.418	-0.091
-351.508	585.823	-0.263	0.640
-350.493	351.620	0.067	-0.131
-349.479	386.824	0.151	0.308
-348.464	-96.335	-0.170	-0.044
-347.450	-12.810	-0.129	-0.083
-346.435	345.868	-0.154	-0.299
-345.420	190.641	0.076	0.113
-344.406	174.442	-0.028	0.041
-343.391	18.522	-0.206	-0.163
-342.377	326.970	0.153	-0.291
-341.362	-72.694	-0.301	0.110
-340.348	59.420	-0.145	-0.141
-339.333	-20.060	0.243	0.149
-338.318	-200.000	0.016	-0.129
-337.304	-16.153	-0.083	-0.052
-336.289	-98.431	-0.238	0.060
-335.275	-200.000	0.028	-0.189
-334.260	9.039	0.093	-0.069
-333.245	-117.775	0.161	-0.029
-332.231	-27.595	-0.291	0.167
-331.216	152.455	-0.083	0.112
-330.202	-67.414	0.258	0.100
-329.187	-38.671	0.225	-0.118
-328.172	286.535	0.201	-0.360
-327.158	88.320	0.157	-0.172
-326.143	90.676	0.114	0.126
-325.129	289.731	-0.181	-0.325
-324.114	-15.003	0.115	-0.073
-323.099	-30.391	0.062	0.035
-322.085	16.092	-0.375	0.293
-321.070	248.688	-0.110	-0.185
-320.056	61.588	-0.082	-0.081
-319.041	326.322	0.040	-0.076
-318.026	388.119	-0.171	0.351
-317.012	-91.004	-0.170	0.048
-315.997	51.911	0.096	0.090
-314.983	45.513	0.079	-0.072
-313.968	-78.856	-0.316	-0.107
-312.953	406.567	0.051	0.106
-311.939	800.000	0.072	0.205
-310.924	-89.155	-0.236	-0.069
-309.910	20.574	0.377	-0.302
-308.895	438.020	-0.044	-0.095
-307.880	271.530	-0.052	0.090
-306.866	91.491	0.258	0.286
-305.851	96.288	-0.151	-0.171
-304.837	18.995	0.056	0.044
-303.822	-200.000	-0.005	0.031
-302.807	265.322	0.130	-0.224
-301.793	207.846	0.152	0.235
-300.778	-78.900	0.302	0.102
-299.764	-130.264	-0.174	0.023
-298.749	133.447	-0.057	-0.073
-297.735	697.961	0.095	-0.248
-296.720	800.000	-0.020	0.060
-295.705	-200.000	0.008	0.256
-294.691	40.858	0.145	0.129
-293.676	-200.000	-0.002	-0.073
-292.662	-61.726	0.044	0.018
-291.647	800.000	0.038	0.156
-290.632	-200.000	0.014	-0.280
-289.618	-102.168	0.246	-0.058
-288.603	58.248	0.220	-0.213
-287.589	304.568	-0.144	-0.264
-286.574	800.000	-0.038	0.141
-285.559	-200.000	-0.009	0.189
-284.545	218.391	-0.170	-0.269
-283.530	-200.000	0.026	0.399
-282.516	91.386	0.118	0.131
-281.501	-76.771	-0.216	0.075
-280.486	796.690	-0.017	0.046
-279.472	-34.492	0.127	0.069
-278.457	15.428	0.089	0.069
-277.443	-127.588	0.238	0.034
-276.428	255.082	-0.085	-0.144
-275.413	128.314	0.147	-0.185
-274.399	-37.528	-0.123	-0.065
-273.384	-155.715	0.202	0.013
-272.370	-200.000	-0.026	0.224
-271.355	-98.933	0.243	-0.061
-270.340	377.249	-0.103	0.208
-269.326	-200.000	0.002	0.205
-268.311	-109.859	0.319	-0.066
-267.297	100.788	-0.159	0.183
-266.282	71.130	-0.033	0.034
-265.267	-77.032	0.167	0.057
-264.253	38.017	0.194	0.171
-263.238	-43.956	0.120	-0.059
-262.224	266.587	-0.020	0.035
-261.209	-200.000	-0.030	0.157
-260.195	467.536	0.181	-0.401
-259.180	24.309	0.031	0.025
-258.165	-166.354	-0.416	0.017
-257.151	31.724	-0.215	0.183
-256.136	421.519	0.147	0.312
-255.122	538.103	0.093	-0.218
-254.107	-75.673	-0.193	0.068
-253.092	49.872	0.076	-0.071
-252.078	49.457	0.277	-0.258
-251.063	800.000	0.019	-0.058
-250.049	271.972	-0.113	0.196
-249.034	74.920	-0.290	0.302
-248.019	800.000	-0.105	0.421
-247.005	-200.000	0.022	0.163
-245.990	186.103	-0.096	0.141
-244.976	-19.631	-0.074	0.045
-243.961	43.366	-0.092	-0.083
-242.946	-78.186	0.348	0.118
-241.932	-200.000	0.015	0.147
-240.917	-200.000	-0.015	-0.139
-239.903	-65.427	0.165	0.065
-238.888	2.378	-0.146	-0.104
-237.873	-173.080	-0.260	0.008
-236.859	800.000	-0.057	0.187
-235.844	741.813	0.221	0.585
-234.830	800.000	-0.027	0.114
-233.815	-41.150	0.285	-0.145
-232.800	158.457	-0.237	-0.325
-231.786	800.000	0.032	-0.117
-230.771	135.496	-0.086	0.111
-229.757	411.529	-0.028	-0.059
-228.742	169.731	-0.101	-0.142
-227.727	464.749	0.048	0.106
-226.713	-30.758	0.142	0.079
-225.698	155.873	0.166	-0.225
-224.684	-132.958	0.065	-0.008
-223.669	77.292	0.158	0.165
-222.655	41.190	-0.124	0.111
-221.640	-112.019	-0.258	-0.051
-220.625	290.362	0.093	0.167
-219.611	-110.106	0.235	-0.048
-218.596	289.526	0.134	-0.239
-217.582	322.195	-0.027	-0.050
-216.567	800.000	0.061	0.221
-215.552	141.689	-0.039	-0.051
-214.538	457.302	-0.054	-0.119
-213.523	-77.273	-0.355	0.122
-212.509	-167.436	0.108	-0.004
-211.494	117.557	-0.249	-0.302
-210.479	-144.056	-0.284	0.026
-209.465	49.510	-0.259	0.240
-208.450	263.911	-0.055	0.095
-207.436	-152.444	-0.142	-0.010
-206.421	-200.000	0.009	-0.245
-205.406	75.837	0.134	0.139
-204.392	537.088	0.084	0.197
-203.377	800.000	-0.086	0.285
-202.363	144.544	0.135	-0.178
-201.348	800.000	0.067	-0.209
-200.333	45.037	0.097	-0.088
-199.319	20.784	0.072	0.057
-198.304	-200.000	0.001	0.231
-197.290	-182.865	-0.321	0.006
-196.275	180.513	0.134	0.194
-195.260	324.822	0.045	0.084
-194.246	153.691	0.038	0.051
-193.231	-16.307	0.123	-0.077
-192.217	-200.000	-0.004	-0.028
-191.202	-9.630	0.096	0.063
-190.187	-200.000	-0.039	-0.181
-189.173	-85.347	0.408	0.125
-188.158	-200.000	-0.032	0.156
-187.144	554.844	0.092	0.217
-186.129	-200.000	0.048	0.236
-185.114	-171.066	-0.370	0.012
-184.100	-118.171	-0.164	0.029
-183.085	-110.512	0.454	0.093
-182.071	-133.834	-0.060	0.007
-181.056	256.311	0.127	0.215
-180.042	800.000	-0.038	-0.128
-179.027	-137.020	0.348	0.039
-178.012	-129.955	0.209	-0.028
-176.998	-94.563	0.061	0.016
-175.983	60.151	-0.290	0.283
-174.969	-78.487	0.334	-0.112
-173.954	-200.000	0.010	0.103
-172.939	-200.000	0.009	-0.110
-171.925	-108.609	-0.116	-0.024
-170.910	-153.743	0.411	0.028
-169.896	-132.654	-0.216	-0.027
-168.881	-130.459	-0.454	0.060
-167.866	286.139	0.107	-0.190
-166.852	549.620	0.153	-0.361
-165.837	-200.000	-0.030	-0.210
-164.823	-45.848	0.013	0.006
-163.808	800.000	0.032	-0.123
-162.793	113.960	0.126	0.151
-161.779	19.750	-0.090	0.071
-160.764	-200.000	-0.040	-0.271
-159.750	86.470	-0.179	-0.194
-158.735	-65.616	0.119	0.047
-157.720	-56.308	-0.143	-0.063
-156.706	-36.845	-0.219	0.116
-155.691	-39.913	0.274	0.140
-154.677	-16.098	-0.162	-0.101
-153.662	98.111	0.118	0.133
-152.647	81.084	-0.246	-0.261
-151.633	126.703	0.133	0.165
-150.618	-94.097	-0.194	-0.052
-149.604	-95.867	0.351	0.092
-148.589	-41.382	-0.428	0.216
-147.574	368.677	0.036	0.072
-146.560	-200.000	-0.023	0.101
-145.545	-20.915	-0.089	0.054
-144.531	-162.990	0.513	-0.024
-143.516	405.192	0.006	-0.012
-142.502	119.923	-0.163	0.198
-141.487	-200.000	0.046	0.263
-140.472	18.777	-0.014	0.011
-139.458	325.472	-0.069	-0.129
-138.443	-42.412	0.153	-0.077
-137.429	-6.438	0.147	0.098
-136.414	-141.089	-0.338	0.034
-135.399	-71.774	0.403	0.147
-134.385	800.000	0.023	-0.076
-133.370	675.094	-0.150	-0.381
-132.356	800.000	0.102	-0.332
-131.341	34.639	0.148	0.127
-130.326	-77.227	0.213	0.073
-129.312	218.954	-0.080	0.125
-128.297	146.905	-0.077	0.102
-127.283	-44.233	0.156	-0.077
-126.268	-54.578	0.241	0.107
-125.253	140.266	0.064	0.083
-124.239	-200.000	-0.005	-0.135
-123.224	-0.130	0.144	-0.100
-122.210	-34.006	0.481	-0.260
-121.195	269.049	-0.028	0.048
-120.180	-14.310	0.203	0.128
-119.166	-92.438	-0.053	-0.015
-118.151	312.492	-0.139	0.256
-117.137	156.246	0.083	0.112
-116.122	800.000	-0.069	-0.205
-115.107	689.123	0.092	0.236
-114.093	-200.000	0.032	0.150
-113.078	199.321	0.114	-0.171
-112.064	800.000	-0.079	0.235
-111.049	23.120	0.085	-0.069
-110.034	800.000	-0.078	0.295
-109.020	-200.000	0.019	0.260
-108.005	-200.000	0.034	0.324
-106.991	-200.000	-0.041	0.224
-105.976	0.346	-0.086	-0.060
-104.962	206.644	-0.055	0.084
-103.947	-200.000	-0.001	-0.227
-102.932	-200.000	-0.002	-0.243
-101.918	-93.775	-0.270	0.073
-100.903	-200.000	-0.018	0.326
-99.889	308.701	0.121	0.221
-98.874	-200.000	0.044	0.245
-97.859	-200.000	0.001	-0.109
-96.845	-117.320	-0.242	0.043
-95.830	501.989	0.125	0.282
-94.816	-162.810	0.146	0.007
-93.801	297.658	-0.032	-0.058
-92.786	114.667	0.299	0.357
-91.772	-61.271	0.168	0.070
-90.757	-200.000	-0.021	0.133
-89.743	800.000	0.093	0.324
-88.728	800.000	-0.148	0.415
-87.713	70.933	0.025	-0.026
-86.699	-84.449	0.223	0.069
-85.684	267.309	0.040	0.069
-84.670	-112.715	-0.213	0.042
-83.655	800.000	-0.029	-0.088
-82.640	452.660	-0.072	0.155
-81.626	-102.010	-0.151	-0.036
-80.611	56.346	-0.120	0.114
-79.597	495.717	0.219	0.494
-78.582	-180.693	0.280	-0.006
-77.567	-59.628	0.295	-0.124
-76.553	800.000	-0.083	-0.322
-75.538	-200.000	0.002	0.023
-74.524	-88.988	-0.053	0.015
-73.509	800.000	-0.004	0.015
-72.494	102.763	-0.106	-0.122
-71.480	-57.237	0.127	-0.055
-70.465	-31.423	-0.227	-0.125
-69.451	800.000	-0.067	0.286
-68.436	131.950	0.055	-0.069
-67.422	800.000	-0.013	-0.055
-66.407	800.000	0.085	-0.307
-65.392	-200.000	-0.050	0.301
-64.378	182.588	-0.165	-0.238
-63.363	171.426	-0.069	0.097
-62.349	-200.000	-0.014	0.115
-61.334	38.695	-0.961	-0.840
-60.319	72.180	0.562	0.573
-59.305	800.000	-0.362	-1.176
-58.290	117.114	0.797	0.960
-57.276	84.320	1.336	1.431
-56.261	-200.000	111.585	631.613
-55.246	470.755	1501.947	3307.549
-54.232	146.996	2676.946	3525.647
-53.217	97.615	2290.614	2577.617
-52.203	36.670	1900.271	1643.344
-51.188	30.692	1690.060	1416.155
-50.173	28.272	1647.248	1362.249
-49.159	49.599	1702.147	1569.356
-48.144	48.685	1716.382	1575.524
-47.130	30.364	1675.549	1401.300
-46.115	27.660	1660.869	1368.708
-45.100	27.518	1655.789	1363.402
-44.086	27.530	1652.866	1361.033
-43.071	27.389	1650.872	1358.280
-42.057	27.447	1648.483	1356.695
-41.042	27.513	1645.936	1355.039
-40.027	27.373	1644.310	1352.602
-39.013	27.395	1642.282	1351.044
-37.998	27.386	1640.848	1349.744
-36.984	27.456	1639.481	1349.089
-35.969	27.503	1637.810	1348.003
-34.954	27.634	1636.152	1347.552
-33.940	27.481	1634.401	1344.931
-32.925	27.571	1632.492	1343.967
-31.911	27.586	1631.003	1342.803
-30.896	27.568	1628.856	1340.844
-29.881	27.520	1627.884	1339.639
-28.867	27.582	1625.606	1338.169
-27.852	27.587	1623.780	1336.648
-26.838	27.547	1622.885	1335.568
-25.823	27.626	1621.462	1334.920
-24.809	27.570	1620.405	1333.590
-23.794	27.533	1619.302	1332.352
-22.779	27.588	1617.170	1330.948
-21.765	27.527	1615.531	1329.105
-20.750	27.595	1614.189	1328.440
-19.736	27.665	1613.083	1327.988
-18.721	27.601	1611.704	1326.332
-17.706	27.608	1609.899	1324.849
-16.692	27.634	1608.451	1323.790
-15.677	27.590	1607.490	1322.631
-14.663	27.650	1605.760	1321.589
-13.648	27.578	1604.512	1319.991
-12.633	27.643	1602.917	1319.095
-11.619	27.533	1601.924	1317.430
-10.604	27.608	1599.763	1316.140
-9.590	27.591	1598.722	1315.109
-8.575	27.650	1597.056	1314.114
-7.560	27.581	1596.690	1313.263
-6.546	27.613	1595.349	1312.338
-5.531	27.558	1594.567	1311.245
-4.517	27.584	1592.933	1310.038
-3.502	27.559	1592.247	1309.239
-2.487	27.633	1590.317	1308.134
-1.473	27.444	1579.114	1297.520
-0.458	24.786	1559.913	1262.952
0.556	19.591	1561.428	1232.400
1.571	17.366	1584.853	1234.645
2.586	16.975	1597.519	1241.537
3.600	15.487	1545.112	1190.161
4.615	8.677	1436.163	1061.132
5.629	1.551	1373.183	969.213
6.644	0.206	1365.386	955.100
7.659	0.187	1363.689	953.707
8.673	0.149	1363.003	952.905
9.688	-0.002	1360.972	950.445
10.702	-0.120	1357.839	947.427
11.717	3.222	1363.460	972.405
12.731	11.260	1375.099	1031.662
13.746	16.583	1382.665	1071.032
14.761	17.228	1381.924	1074.445
15.775	16.197	1379.646	1066.068
16.790	15.182	1377.141	1057.634
17.804	14.471	1375.070	1051.466
18.819	14.075	1373.745	1047.864
19.834	13.854	1371.943	1045.010
20.848	13.478	1371.737	1042.391
21.863	13.280	1369.759	1039.553
22.877	13.123	1368.708	1037.672
23.892	13.127	1367.800	1036.921
24.907	13.091	1366.571	1035.671
25.921	13.048	1366.145	1034.986
26.936	13.106	1365.241	1034.573
27.950	13.169	1364.549	1034.349
28.965	13.262	1363.008	1033.671
29.980	13.297	1362.179	1033.170
30.994	13.312	1361.301	1032.509
32.009	13.368	1360.368	1032.056
33.023	13.386	1359.213	1031.206
34.038	13.334	1358.062	1029.915
35.053	13.301	1357.363	1029.086
36.067	13.262	1355.808	1027.579
37.082	13.279	1354.988	1026.968
38.096	13.357	1354.036	1026.639
39.111	13.263	1353.740	1025.741
40.126	13.178	1352.759	1024.382
41.140	13.231	1351.361	1023.560
42.155	13.179	1351.045	1022.911
43.169	13.054	1350.969	1021.988
44.184	13.089	1350.587	1021.821
45.199	13.128	1350.006	1021.533
46.213	13.080	1349.384	1020.679
47.228	13.255	1348.315	1020.859
48.242	13.174	1347.783	1019.868
49.257	13.272	1345.710	1018.809
50.271	13.272	1344.662	1017.926
51.286	13.286	1343.107	1016.748
52.301	13.286	1341.981	1015.802
53.315	13.325	1340.431	1014.780
54.330	13.175	1339.948	1013.402
55.344	13.217	1338.786	1012.691
56.359	13.190	1337.505	1011.467
57.374	13.111	1337.352	1010.784
58.388	13.036	1336.826	1009.834
59.403	13.028	1335.789	1008.915
60.417	13.033	1335.005	1008.264
61.432	13.086	1334.189	1007.879
62.447	12.973	1332.999	1006.202
63.461	13.078	1331.691	1005.768
64.476	12.999	1330.817	1004.534
65.490	13.028	1329.568	1003.682
66.505	13.121	1327.556	1002.641
67.520	13.109	1326.460	1001.651
68.534	13.145	1325.684	1001.192
69.549	13.075	1324.978	1000.145
70.563	13.050	1323.638	998.899
71.578	12.975	1323.117	997.960
72.593	13.007	1321.696	996.991
73.607	12.962	1321.203	996.265
74.622	12.946	1320.285	995.384
75.636	13.001	1319.046	994.693
76.651	12.949	1318.660	994.000
77.666	12.935	1318.283	993.547
78.680	12.979	1317.598	993.207
79.695	13.062	1316.841	993.047
80.709	13.003	1316.190	992.114
81.724	13.073	1315.320	991.790
82.739	13.087	1314.436	991.120
83.753	13.176	1313.871	991.139
84.768	13.283	1312.283	990.496
85.782	13.275	1311.270	989.594
86.797	13.246	1309.926	988.321
87.812	13.244	1308.807	987.375
88.826	13.091	1308.008	985.772
89.841	13.233	1306.762	985.596
90.855	13.272	1305.469	984.766
91.870	13.261	1305.058	984.301
92.884	13.245	1304.157	983.439
93.899	13.300	1303.282	983.018
94.914	13.362	1302.731	982.887
95.928	13.382	1301.281	981.824
96.943	13.326	1300.766	981.016
97.957	13.297	1299.699	979.953
98.972	13.329	1298.689	979.293
99.987	13.326	1297.896	978.589
101.001	13.244	1297.105	977.423
102.016	13.209	1296.030	976.320
103.030	13.262	1295.134	975.871
104.045	13.332	1293.829	975.216
105.060	13.255	1292.420	973.611
106.074	13.140	1291.470	972.137
107.089	13.072	1290.422	970.859
108.103	13.112	1288.948	969.902
109.118	13.063	1287.363	968.333
110.133	13.103	1286.321	967.701
111.147	13.092	1284.966	966.529
112.162	13.172	1283.752	965.997
113.176	13.200	1282.581	965.194
114.191	13.174	1282.023	964.538
115.206	13.252	1279.869	963.288
116.220	13.152	1279.632	962.443
117.235	13.199	1278.254	961.592
118.249	13.141	1277.411	960.534
119.264	13.201	1275.940	959.695
120.279	13.142	1275.203	958.714
121.293	13.136	1274.125	957.780
122.308	13.185	1273.358	957.407
123.322	13.163	1271.882	956.081
124.337	13.104	1271.096	955.064
125.352	13.173	1269.607	954.261
126.366	13.003	1268.953	952.705
127.381	13.089	1267.769	952.224
128.395	13.157	1266.566	951.633
129.410	13.058	1266.146	950.659
130.424	13.280	1264.762	950.814
131.439	13.079	1264.538	949.405
132.454	13.261	1262.843	949.095
133.468	13.147	1261.942	947.679
134.483	13.188	1261.443	947.455
135.497	13.236	1260.276	946.771
136.512	13.176	1259.021	945.401
137.527	13.284	1257.354	944.684
138.541	13.207	1256.440	943.474
139.556	13.194	1255.522	942.627
140.570	13.210	1254.244	941.675
141.585	13.295	1253.349	941.404
142.600	13.374	1251.317	940.242
143.614	13.441	1250.783	940.137
144.629	13.361	1249.662	938.761
145.643	13.413	1248.304	937.951
146.658	13.356	1247.427	936.882
147.673	13.294	1246.044	935.414
148.687	13.253	1244.880	934.226
149.702	13.256	1243.556	933.168
150.716	13.240	1242.198	931.976
151.731	13.285	1240.845	931.132
152.746	13.313	1239.593	930.265
153.760	13.362	1238.913	929.950
154.775	13.419	1237.255	928.941
155.789	13.538	1236.061	928.628
156.804	13.489	1234.863	927.372
157.819	13.445	1234.488	926.760
158.833	13.521	1233.448	926.324
159.848	13.578	1232.050	925.513
160.862	13.594	1230.964	924.705
161.877	13.456	1230.485	923.492
162.892	13.433	1228.936	922.119
163.906	13.491	1228.338	921.910
164.921	13.376	1227.551	920.600
165.935	13.418	1226.864	920.237
166.950	13.504	1225.945	919.944
167.964	13.497	1225.248	919.303
168.979	13.640	1224.208	919.235
169.994	13.513	1223.842	918.173
171.008	13.556	1222.658	917.441
172.023	13.643	1221.938	917.299
173.037	13.615	1221.360	916.630
174.052	13.584	1220.587	915.799
175.067	13.489	1219.675	914.509
176.081	13.446	1218.888	913.599
177.096	13.499	1217.646	912.882
178.110	13.484	1216.445	911.817
179.125	13.556	1215.610	911.505
180.140	13.668	1214.037	910.860
181.154	13.564	1212.726	909.225
182.169	13.790	1211.585	909.527
183.183	13.608	1210.615	907.726
184.198	13.697	1208.975	906.902
185.213	13.770	1207.471	906.089
186.227	13.758	1206.947	905.552
187.242	13.790	1205.886	904.854
188.256	13.815	1204.973	904.222
189.271	13.836	1203.892	903.448
190.286	13.688	1203.220	902.054
191.300	13.559	1202.411	900.666
192.315	13.670	1201.397	900.431
193.329	13.658	1200.953	899.955
194.344	13.662	1200.466	899.533
195.359	13.700	1200.018	899.323
196.373	13.852	1199.070	899.355
197.388	13.782	1198.868	898.747
198.402	13.857	1198.322	898.664
199.417	13.998	1197.466	898.707
200.432	14.044	1196.273	897.979
201.446	13.989	1195.683	897.161
202.461	14.039	1194.729	896.631
203.475	13.964	1193.519	895.244
204.490	14.015	1192.262	894.497
205.504	14.034	1190.960	893.539
206.519	14.089	1190.031	893.061
207.534	14.014	1189.038	891.833
208.548	13.925	1188.098	890.569
209.563	14.001	1187.275	890.282
210.577	14.043	1186.482	889.836
211.592	14.083	1185.805	889.463
212.607	14.106	1185.002	888.904
213.621	14.159	1183.920	888.299
214.636	14.081	1183.069	887.162
215.650	14.047	1181.847	885.987
216.665	14.211	1181.236	886.322
217.680	14.239	1180.139	885.569
218.694	14.265	1179.632	885.249
219.709	14.249	1178.682	884.374
220.723	14.243	1178.177	883.887
221.738	14.167	1177.332	882.771
222.753	14.171	1176.683	882.228
223.767	14.247	1175.838	881.916
224.782	14.244	1175.145	881.306
225.796	14.267	1174.771	881.070
226.811	14.426	1173.862	881.150
227.826	14.410	1173.346	880.597
228.840	14.441	1172.343	879.934
229.855	14.307	1171.746	878.696
230.869	14.393	1170.598	878.212
231.884	14.375	1169.772	877.422
232.899	14.283	1169.324	876.522
233.913	14.251	1168.793	875.877
234.928	14.335	1168.049	875.687
235.942	14.353	1167.278	875.125
236.957	14.350	1166.045	874.108
237.972	14.293	1165.695	873.471
238.986	14.362	1164.994	873.229
240.001	14.270	1164.427	872.245
241.015	14.365	1163.066	871.643
242.030	14.471	1162.345	871.579
243.045	14.379	1161.901	870.691
244.059	14.531	1160.990	870.722
245.074	14.495	1160.127	869.810
246.088	14.549	1159.582	869.608
247.103	14.557	1158.528	868.782
248.117	14.440	1158.019	867.717
249.132	14.597	1157.523	868.082
250.147	14.662	1157.245	868.136
251.161	14.755	1156.159	867.728
252.176	14.762	1155.042	866.846
253.190	14.812	1154.455	866.589
254.205	14.802	1154.281	866.329
255.220	14.833	1153.471	865.805
256.234	14.852	1152.978	865.458
257.249	14.859	1152.318	864.923
258.263	14.882	1151.269	864.176
259.278	14.842	1150.732	863.494
260.293	14.842	1150.296	863.089
261.307	14.869	1149.671	862.682
262.322	14.923	1149.070	862.432
263.336	14.838	1148.603	861.569
264.351	14.925	1147.954	861.454
265.366	14.945	1147.584	861.205
266.380	15.034	1146.184	860.535
267.395	14.985	1145.860	859.961
268.409	15.027	1144.643	859.187
269.424	14.964	1144.351	858.571
270.439	15.012	1143.859	858.371
271.453	14.974	1143.137	857.559
272.468	14.961	1142.127	856.660
273.482	14.972	1141.350	856.058
274.497	14.998	1140.923	855.795
275.512	15.085	1139.790	855.314
276.526	15.001	1139.721	854.758
277.541	15.041	1138.806	854.199
278.555	15.141	1137.606	853.732
279.570	15.131	1137.267	853.350
280.585	15.178	1136.358	852.832
281.599	15.224	1135.534	852.374
282.614	15.183	1134.382	851.227
283.628	15.124	1133.256	850.007
284.643	15.190	1132.291	849.541
285.657	15.227	1131.552	849.099
286.672	15.305	1130.862	848.898
287.687	15.276	1129.897	847.955
288.701	15.283	1129.011	847.249
289.716	15.271	1128.629	846.828
290.730	15.280	1127.814	846.184
291.745	15.369	1126.739	845.753
292.760	15.387	1126.055	845.255
293.774	15.378	1125.819	844.959
294.789	15.390	1125.198	844.479
295.803	15.429	1124.276	843.909
296.818	15.499	1123.484	843.592
297.833	15.457	1122.814	842.804
298.847	15.409	1122.258	842.068
299.862	15.382	1121.599	841.365
300.876	15.389	1120.781	840.711
301.891	15.458	1119.873	840.300
302.906	15.452	1119.518	839.930
303.920	15.566	1118.623	839.757
304.935	15.602	1117.715	839.179
305.949	15.688	1117.009	839.002
306.964	15.664	1116.746	838.611
307.979	15.582	1115.947	837.530
308.993	15.638	1115.094	837.096
310.008	15.641	1114.431	836.538
311.022	15.722	1113.563	836.214
312.037	15.603	1112.994	835.122
313.052	15.690	1111.664	834.481
314.066	15.674	1110.686	833.596
315.081	15.682	1109.862	832.944
316.095	15.571	1109.195	831.820
317.110	15.648	1108.621	831.694
318.125	15.643	1107.874	831.035
319.139	15.652	1107.064	830.398
320.154	15.596	1106.403	829.553
321.168	15.633	1105.879	829.271
322.183	15.750	1105.053	829.152
323.197	15.722	1104.864	828.798
324.212	15.714	1104.171	828.168
325.227	15.664	1103.350	827.234
326.241	15.753	1102.956	827.302
327.256	15.712	1102.120	826.398
328.270	15.711	1101.474	825.838
329.285	15.734	1100.622	825.237
330.300	15.728	1099.384	824.209
331.314	15.772	1098.275	823.517
332.329	15.666	1097.512	822.355
333.343	15.825	1096.854	822.565
334.358	15.928	1095.885	822.272
335.373	15.811	1095.296	821.185
336.387	15.948	1094.196	820.953
337.402	16.001	1093.610	820.701
338.416	15.936	1093.086	819.920
339.431	15.939	1092.356	819.314
340.446	15.945	1092.041	819.035
341.460	16.073	1091.077	818.862
342.475	16.088	1090.404	818.355
343.489	16.108	1089.331	817.572
344.504	16.123	1088.441	816.909
345.519	16.206	1087.705	816.683
346.533	16.124	1087.037	815.716
347.548	16.255	1086.283	815.711
348.562	16.204	1085.827	815.048
349.577	16.249	1084.664	814.322
350.592	16.141	1084.007	813.236
351.606	16.088	1083.151	812.266
352.621	16.174	1082.394	812.040
353.635	16.153	1081.632	811.296
354.650	16.069	1081.195	810.492
355.665	16.193	1080.442	810.450
356.679	16.170	1080.004	809.938
357.694	16.264	1079.244	809.747
358.708	16.269	1078.517	809.154
359.723	16.299	1078.324	809.085
360.738	16.336	1077.177	808.330
361.752	16.296	1077.058	807.974
362.767	16.346	1076.318	807.589
363.781	16.372	1075.779	807.236
364.796	16.381	1075.215	806.785
365.810	16.377	1074.673	806.289
366.825	16.448	1074.204	806.206
367.840	16.555	1073.578	806.171
368.854	16.532	1072.694	805.328
369.869	16.463	1071.988	804.398
370.883	16.469	1071.240	803.793
371.898	16.515	1070.284	803.224
372.913	16.543	1069.829	802.946
373.927	16.542	1069.462	802.594
374.942	16.568	1068.948	802.259
375.956	16.513	1068.773	801.796
376.971	16.585	1067.989	801.477
377.986	16.602	1067.382	801.034
379.000	16.659	1066.743	800.754
380.015	16.589	1066.519	800.180
381.029	16.793	1065.361	800.207
382.044	16.797	1064.534	799.533
383.059	16.806	1063.986	799.091
384.073	16.697	1063.031	797.793
385.088	16.723	1062.403	797.372
386.102	16.693	1061.354	796.375
387.117	16.825	1060.076	795.965
388.132	16.777	1059.363	795.134
389.146	16.705	1059.053	794.490
390.161	16.817	1058.003	794.161
391.175	16.811	1057.439	793.638
392.190	16.672	1057.299	792.813
393.205	16.822	1056.075	792.524
394.219	16.803	1055.296	791.779
395.234	16.783	1054.296	790.867
396.248	16.908	1052.826	790.277
397.263	16.870	1051.900	789.337
398.278	16.935	1051.474	789.250
399.292	16.731	1051.083	787.935
400.307	16.822	1050.517	787.864
401.321	16.831	1050.002	787.450
402.336	16.809	1048.931	786.476
403.350	16.800	1048.206	785.818
404.365	16.944	1047.433	785.841
405.380	17.001	1047.059	785.755
406.394	16.928	1046.179	784.684
407.409	16.906	1045.324	783.876
408.423	17.137	1044.745	784.436
409.438	17.127	1044.189	783.901
410.453	17.136	1043.524	783.377
411.467	17.206	1042.568	782.914
412.482	17.272	1042.128	782.816
413.496	17.036	1041.784	781.402
414.511	17.195	1040.982	781.465
415.526	17.245	1040.453	781.226
416.540	17.320	1039.932	781.112
417.555	17.358	1039.457	780.860
418.569	17.256	1039.003	779.979
419.584	17.442	1038.141	780.116
420.599	17.365	1037.533	779.238
421.613	105.042	1324.386	1477.811
422.628	96.347	1366.140	1477.925
