DTS Sentinel unit serial number:	SN413079Multiplexer serial number:	ORYXHardware model number:	OX4-SRSoftware version number:	ORYX F/W v4.00 Oryx Data Collector v3.7.2.0data status	okinstallation	princeton_trtdifferential loss correction	single-endedforward channel	channel 2reverse channel	N/Adate	2019/09/11time	05:21:11forward acquisition time	60.00reverse acquisition time	0.00gamma	496.2192k internal	0.2329k external	0.2329temperature offset calibration	0.9939default loss term (dB/km)	0.3790temperature slope calibration	1.0000multiplexer offset coefficient	1.0000multiplexer slope coefficient	1.0000fibre end	0.00T internal ref (°C)	29.44T ext. ref 1 (°C)	-0.26T ext. ref 2 (°C)	23.38length (m)	temperature (°C)	Stokes	anti-Stokes-747.200	-125.495	-0.347	0.053
-746.185	-200.000	0.044	0.197
-745.171	-98.632	0.194	-0.050
-744.156	-107.372	0.092	0.020
-743.142	149.238	0.172	-0.234
-742.127	-59.598	0.249	0.108
-741.112	800.000	0.030	0.113
-740.098	132.363	-0.191	0.248
-739.083	-159.299	-0.123	0.007
-738.069	377.110	-0.083	0.170
-737.054	-46.880	0.102	-0.050
-736.039	-81.450	0.213	0.070
-735.025	-14.167	0.338	-0.219
-734.010	-200.000	0.001	-0.377
-732.996	-40.603	-0.290	-0.151
-731.981	-12.606	-0.303	0.199
-730.966	-166.768	-0.239	-0.010
-729.952	154.956	0.130	0.179
-728.937	-200.000	0.000	0.126
-727.923	57.832	-0.209	-0.206
-726.908	733.405	-0.078	-0.211
-725.894	681.069	-0.143	0.375
-724.879	800.000	0.061	-0.235
-723.864	-33.700	-0.195	-0.108
-722.850	49.531	0.163	-0.154
-721.835	800.000	0.036	-0.144
-720.821	20.505	-0.236	-0.192
-719.806	432.433	0.164	-0.358
-718.791	800.000	0.099	-0.295
-717.777	210.876	-0.098	0.155
-716.762	-128.856	0.221	0.031
-715.748	83.218	-0.215	0.236
-714.733	477.181	-0.085	0.194
-713.718	627.325	0.107	0.272
-712.704	-200.000	0.024	-0.150
-711.689	-90.363	-0.087	-0.025
-710.675	87.719	-0.107	-0.120
-709.660	-200.000	0.024	-0.391
-708.645	338.798	0.116	-0.228
-707.631	129.695	-0.145	-0.187
-706.616	-200.000	0.025	-0.140
-705.602	-52.480	-0.066	-0.031
-704.587	-50.530	-0.191	-0.091
-703.572	235.654	-0.186	0.308
-702.558	224.084	0.084	-0.137
-701.543	101.106	-0.120	-0.141
-700.529	-200.000	-0.001	0.113
-699.514	12.531	0.327	-0.253
-698.499	-200.000	-0.055	0.268
-697.485	-20.139	-0.267	-0.165
-696.470	45.853	0.061	0.057
-695.456	-89.251	0.215	-0.064
-694.441	-200.000	-0.025	0.114
-693.426	-126.957	0.090	0.013
-692.412	-7.227	0.216	-0.147
-691.397	-49.094	-0.190	-0.092
-690.383	129.035	-0.126	-0.162
-689.368	-109.720	-0.172	0.036
-688.354	-200.000	0.052	-0.231
-687.339	102.392	-0.289	0.339
-686.324	-200.000	0.025	-0.110
-685.310	800.000	0.072	-0.203
-684.295	65.614	-0.217	-0.221
-683.281	800.000	-0.104	0.342
-682.266	-90.585	0.231	-0.067
-681.251	-43.761	-0.123	0.062
-680.237	-200.000	0.002	-0.133
-679.222	-200.000	-0.008	0.106
-678.208	66.684	-0.206	0.211
-677.193	161.620	0.284	0.400
-676.178	-33.221	-0.215	0.120
-675.164	135.022	-0.086	-0.113
-674.149	238.417	0.211	0.352
-673.135	69.093	-0.296	-0.306
-672.120	522.414	0.134	-0.316
-671.105	-46.457	-0.254	0.125
-670.091	800.000	-0.074	-0.261
-669.076	478.115	0.055	0.125
-668.062	77.380	0.248	0.265
-667.047	186.145	0.080	-0.120
-666.032	153.315	0.230	-0.316
-665.018	-14.733	0.112	0.072
-664.003	-72.125	0.094	-0.035
-662.989	-126.061	0.056	-0.008
-661.974	-200.000	0.061	0.354
-660.959	-102.416	0.170	-0.041
-659.945	-128.793	-0.216	-0.031
-658.930	7.568	0.293	-0.220
-657.916	49.474	-0.213	-0.201
-656.901	6.138	0.152	0.113
-655.886	-41.150	0.562	-0.291
-654.872	-15.695	0.127	-0.081
-653.857	800.000	0.028	0.077
-652.843	-52.628	-0.075	0.035
-651.828	473.032	0.019	-0.043
-650.814	-200.000	-0.016	-0.300
-649.799	-193.894	0.072	-0.001
-648.784	-30.086	0.043	0.025
-647.770	800.000	0.071	-0.284
-646.755	-200.000	0.012	-0.069
-645.741	163.947	-0.030	0.042
-644.726	-118.168	0.303	0.054
-643.711	-200.000	-0.014	-0.151
-642.697	370.773	0.093	-0.189
-641.682	295.578	-0.106	-0.195
-640.668	-78.312	-0.353	-0.121
-639.653	109.630	-0.258	0.310
-638.638	53.680	0.222	0.214
-637.624	-7.588	0.364	-0.247
-636.609	50.369	-0.190	0.180
-635.595	82.903	-0.186	0.203
-634.580	141.344	-0.202	0.269
-633.565	652.924	0.087	-0.223
-632.551	265.111	-0.115	-0.201
-631.536	-131.780	-0.132	0.017
-630.522	-200.000	-0.028	-0.232
-629.507	5.542	-0.205	-0.152
-628.492	800.000	-0.026	0.089
-627.478	-200.000	-0.009	-0.083
-626.463	482.857	0.060	0.136
-625.449	232.350	-0.077	-0.127
-624.434	-69.531	-0.171	-0.066
-623.419	-176.084	0.224	0.006
-622.405	800.000	0.070	0.196
-621.390	-200.000	-0.055	-0.300
-620.376	119.710	0.106	0.131
-619.361	9.101	-0.105	0.080
-618.346	800.000	-0.020	0.058
-617.332	105.320	-0.188	-0.223
-616.317	800.000	-0.067	-0.234
-615.303	-200.000	0.001	-0.462
-614.288	-200.000	-0.022	0.125
-613.273	519.207	-0.108	-0.253
-612.259	800.000	-0.059	-0.246
-611.244	800.000	0.114	0.364
-610.230	-32.052	-0.046	-0.026
-609.215	-157.241	-0.398	0.024
-608.201	222.896	0.150	-0.242
-607.186	-23.457	0.209	0.126
-606.171	92.619	-0.067	0.076
-605.157	-140.288	0.173	-0.018
-604.142	34.847	-0.259	0.227
-603.128	195.543	0.040	-0.060
-602.113	-73.143	-0.154	-0.056
-601.098	50.690	0.048	-0.045
-600.084	1.425	-0.306	0.221
-599.069	3.722	0.025	-0.018
-598.055	-86.667	-0.215	0.066
-597.040	-111.702	0.130	0.026
-596.025	-158.968	-0.169	0.010
-595.011	456.953	-0.110	0.246
-593.996	-200.000	0.030	-0.202
-592.982	256.324	0.159	-0.273
-591.967	-200.000	-0.012	-0.223
-590.952	-69.135	-0.206	0.079
-589.938	-200.000	-0.010	-0.224
-588.923	-200.000	-0.000	0.197
-587.909	-200.000	0.014	-0.072
-586.894	-200.000	-0.010	-0.316
-585.879	-52.363	-0.176	0.082
-584.865	-200.000	-0.022	-0.149
-583.850	800.000	-0.095	-0.290
-582.836	-200.000	-0.022	-0.188
-581.821	-150.313	0.209	0.016
-580.806	-87.780	0.174	-0.052
-579.792	-102.204	0.022	-0.005
-578.777	-99.764	0.032	-0.008
-577.763	-123.066	-0.151	-0.024
-576.748	82.002	0.094	-0.102
-575.733	183.485	-0.110	-0.162
-574.719	-106.719	-0.296	-0.066
-573.704	229.743	-0.185	0.303
-572.690	304.812	-0.035	0.065
-571.675	-133.285	0.218	0.028
-570.661	234.894	-0.209	-0.344
-569.646	29.397	0.079	-0.068
-568.631	800.000	0.043	-0.130
-567.617	800.000	-0.115	0.333
-566.602	-142.436	0.160	-0.016
-565.588	-7.077	-0.448	0.304
-564.573	264.584	-0.043	-0.074
-563.558	-200.000	0.017	-0.263
-562.544	-171.446	0.343	-0.011
-561.529	-108.606	-0.232	-0.050
-560.515	26.265	-0.048	-0.040
-559.500	100.825	-0.127	0.148
-558.485	19.400	0.250	0.201
-557.471	-100.241	-0.113	-0.028
-556.456	-28.588	-0.171	-0.098
-555.442	65.082	0.201	-0.203
-554.427	-43.754	-0.157	0.079
-553.412	-18.656	-0.135	0.084
-552.398	63.158	-0.061	0.061
-551.383	800.000	0.103	0.387
-550.369	48.448	0.246	-0.230
-549.354	-10.118	-0.139	0.092
-548.339	800.000	0.024	0.093
-547.325	452.104	0.083	0.183
-546.310	66.930	0.152	-0.155
-545.296	361.896	-0.200	-0.401
-544.281	-133.895	-0.099	0.012
-543.266	728.130	0.046	0.122
-542.252	-58.386	-0.225	0.098
-541.237	113.162	0.236	0.286
-540.223	-190.955	-0.214	-0.002
-539.208	150.023	-0.240	0.326
-538.193	215.693	-0.128	-0.203
-537.179	81.462	-0.180	0.194
-536.164	-127.413	-0.289	0.042
-535.150	-200.000	0.029	-0.185
-534.135	-200.000	-0.025	-0.196
-533.121	30.050	0.017	0.014
-532.106	-200.000	-0.031	-0.232
-531.091	-21.370	-0.034	-0.021
-530.077	239.531	0.068	0.113
-529.062	-16.363	0.375	0.238
-528.048	800.000	-0.006	0.020
-527.033	-84.969	0.307	-0.096
-526.018	-108.113	-0.136	-0.029
-525.004	366.375	0.031	0.062
-523.989	-200.000	0.043	0.195
-522.975	-3.915	0.320	0.222
-521.960	800.000	0.002	0.008
-520.945	-41.958	0.207	-0.106
-519.931	-108.181	-0.166	-0.036
-518.916	53.756	-0.213	-0.204
-517.902	94.200	-0.138	0.156
-516.887	262.491	0.111	0.193
-515.872	800.000	-0.078	0.238
-514.858	-4.841	-0.234	-0.161
-513.843	28.962	0.212	-0.179
-512.829	378.203	0.262	-0.534
-511.814	-73.648	0.285	0.104
-510.799	-167.360	0.101	-0.004
-509.785	-52.372	-0.233	0.108
-508.770	-126.618	0.234	-0.035
-507.756	165.008	0.104	-0.147
-506.741	800.000	-0.080	-0.245
-505.726	-200.000	-0.006	0.158
-504.712	-200.000	-0.027	-0.317
-503.697	119.272	-0.056	-0.069
-502.683	-200.000	-0.073	0.414
-501.668	168.307	0.078	-0.111
-500.653	-48.853	-0.144	0.069
-499.639	-174.798	-0.084	0.002
-498.624	178.972	0.123	0.180
-497.610	64.622	-0.222	-0.224
-496.595	85.564	0.112	0.123
-495.581	-200.000	-0.020	-0.113
-494.566	-86.448	0.190	-0.058
-493.551	77.202	0.124	0.131
-492.537	59.571	0.194	0.191
-491.522	-58.475	-0.200	0.087
-490.508	75.036	0.183	-0.193
-489.493	-46.186	-0.235	-0.115
-488.478	-162.480	-0.073	-0.004
-487.464	68.270	-0.192	0.196
-486.449	-198.216	0.337	-0.002
-485.435	-200.000	-0.054	-0.313
-484.420	81.270	-0.142	-0.153
-483.405	-95.384	0.190	0.051
-482.391	-200.000	0.004	-0.416
-481.376	63.290	0.187	0.187
-480.362	-84.174	0.046	-0.014
-479.347	7.862	-0.077	0.058
-478.332	-69.275	0.230	0.088
-477.318	-80.920	-0.215	0.071
-476.303	-200.000	0.002	0.040
-475.289	10.486	-0.220	0.167
-474.274	343.595	0.078	-0.153
-473.259	-79.592	-0.164	-0.055
-472.245	-105.878	-0.277	0.062
-471.230	-200.000	0.003	-0.320
-470.216	519.437	-0.077	-0.180
-469.201	-69.818	0.319	-0.121
-468.186	-121.258	-0.294	0.049
-467.172	35.366	0.272	-0.237
-466.157	800.000	-0.093	0.346
-465.143	800.000	-0.009	-0.036
-464.128	52.451	-0.212	-0.202
-463.113	167.583	0.076	-0.107
-462.099	800.000	0.049	0.169
-461.084	45.981	0.039	0.036
-460.070	-200.000	0.007	0.311
-459.055	299.646	-0.168	-0.308
-458.040	800.000	0.048	0.160
-457.026	-200.000	-0.267	-0.001
-456.011	-83.682	0.438	-0.139
-454.997	-200.000	0.010	-0.077
-453.982	-200.000	-0.015	0.182
-452.968	183.297	-0.072	0.106
-451.953	800.000	0.085	-0.328
-450.938	-114.612	-0.313	0.060
-449.924	-200.000	-0.001	0.151
-448.909	800.000	0.155	-0.437
-447.895	-40.633	0.137	-0.071
-446.880	41.360	-0.290	0.261
-445.865	284.907	-0.113	0.203
-444.851	19.568	0.160	-0.128
-443.836	-97.101	-0.261	0.068
-442.822	271.030	0.182	-0.319
-441.807	202.667	-0.060	-0.092
-440.792	-23.074	-0.145	0.087
-439.778	473.857	0.093	-0.209
-438.763	-61.063	0.265	-0.111
-437.749	-155.361	-0.242	-0.016
-436.734	568.335	-0.075	0.182
-435.719	262.765	-0.093	0.160
-434.705	-6.558	0.121	0.082
-433.690	800.000	0.091	-0.295
-432.676	-83.132	0.269	0.086
-431.661	-121.264	0.368	-0.061
-430.646	80.576	0.071	0.076
-429.632	-200.000	0.013	-0.524
-428.617	168.789	-0.315	-0.446
-427.603	-99.419	-0.044	0.011
-426.588	273.137	-0.074	0.131
-425.573	607.977	0.003	0.007
-424.559	166.353	0.093	0.130
-423.544	-26.987	-0.050	0.029
-422.530	7.674	-0.200	-0.149
-421.515	308.760	0.110	0.205
-420.500	-200.000	0.018	0.526
-419.486	800.000	-0.027	0.112
-418.471	286.745	0.117	0.210
-417.457	-200.000	0.010	-0.244
-416.442	-200.000	0.112	0.498
-415.428	-200.000	0.022	0.123
-414.413	-9.109	-0.184	-0.122
-413.398	800.000	-0.098	0.332
-412.384	-70.845	0.199	0.075
-411.369	15.809	0.464	0.363
-410.355	-122.526	0.228	0.037
-409.340	61.539	-0.152	-0.150
-408.325	-15.000	-0.216	0.137
-407.311	-200.000	-0.006	-0.214
-406.296	-200.000	0.026	-0.179
-405.282	337.568	0.072	-0.139
-404.267	586.041	-0.068	-0.167
-403.252	-168.734	-0.181	0.007
-402.238	-185.502	0.157	-0.002
-401.223	-200.000	-0.052	-0.447
-400.209	-200.000	-0.045	0.359
-399.194	-80.023	0.070	-0.023
-398.179	-142.947	0.211	0.020
-397.165	509.280	-0.092	-0.212
-396.150	360.050	0.055	-0.110
-395.136	98.158	-0.231	0.264
-394.121	126.660	0.207	0.260
-393.106	188.769	-0.225	-0.335
-392.092	80.238	-0.161	-0.172
-391.077	800.000	-0.076	-0.277
-390.063	-200.000	-0.001	-0.200
-389.048	-80.825	-0.278	0.092
-388.033	62.800	0.154	-0.153
-387.019	-106.388	0.250	-0.056
-386.004	78.470	-0.215	-0.229
-384.990	-200.000	-0.013	-0.144
-383.975	-94.646	0.284	0.077
-382.960	-117.222	0.136	0.025
-381.946	179.286	0.079	0.115
-380.931	509.782	0.011	0.027
-379.917	-200.000	-0.027	-0.174
-378.902	627.153	0.169	-0.423
-377.888	-200.000	-0.065	0.359
-376.873	-102.543	-0.169	-0.040
-375.858	398.664	0.109	0.227
-374.844	387.730	0.011	0.022
-373.829	534.826	-0.184	-0.432
-372.815	-200.000	0.001	0.345
-371.800	585.251	-0.042	-0.103
-370.785	-27.439	-0.134	0.077
-369.771	236.363	0.050	0.082
-368.756	800.000	0.049	-0.137
-367.742	-200.000	0.021	0.118
-366.727	77.391	-0.099	0.105
-365.712	-200.000	-0.003	0.246
-364.698	-40.981	0.332	-0.170
-363.683	-111.352	-0.089	0.018
-362.669	800.000	0.059	-0.237
-361.654	-200.000	0.063	-0.332
-360.639	-66.431	0.327	0.129
-359.625	-103.338	-0.118	-0.028
-358.610	-38.408	-0.279	-0.146
-357.596	-200.000	-0.006	0.043
-356.581	800.000	-0.023	-0.071
-355.566	528.837	-0.058	-0.136
-354.552	552.939	-0.201	-0.479
-353.537	-83.101	0.270	0.086
-352.523	-156.311	-0.268	-0.017
-351.508	-0.911	0.097	0.068
-350.493	189.453	-0.078	0.116
-349.479	-200.000	0.058	0.272
-348.464	79.383	-0.103	0.110
-347.450	-200.000	-0.000	-0.040
-346.435	-116.331	0.353	-0.065
-345.420	140.808	-0.089	0.116
-344.406	-6.843	0.070	0.047
-343.391	317.062	-0.148	-0.277
-342.377	-200.000	0.026	0.140
-341.362	-173.380	-0.113	0.003
-340.348	-22.495	0.203	0.122
-339.333	161.224	0.197	0.272
-338.318	-162.639	0.340	0.017
-337.304	-44.146	-0.277	0.138
-336.289	-6.375	-0.170	0.115
-335.275	-16.552	0.174	-0.109
-334.260	-78.513	-0.323	0.110
-333.245	-85.318	0.145	-0.045
-332.231	-2.026	0.213	0.149
-331.216	-200.000	-0.052	0.293
-330.202	-78.104	0.153	0.052
-329.187	64.538	0.102	0.102
-328.172	-91.578	-0.301	-0.085
-327.158	41.028	0.100	0.089
-326.143	30.708	0.180	-0.153
-325.129	-200.000	-0.001	-0.108
-324.114	-200.000	0.102	-0.472
-323.099	-131.132	0.340	0.045
-322.085	124.915	0.162	0.203
-321.070	800.000	-0.015	0.061
-320.056	-79.708	-0.198	0.066
-319.041	800.000	-0.079	0.219
-318.026	-1.455	-0.339	-0.237
-317.012	-200.000	0.016	-0.091
-315.997	503.264	0.065	0.150
-314.983	-200.000	0.021	0.115
-313.968	214.380	0.128	-0.201
-312.953	-149.666	0.234	0.018
-311.939	-200.000	0.036	0.195
-310.924	155.331	-0.161	0.219
-309.910	-43.652	0.189	0.094
-308.895	333.852	0.129	-0.247
-307.880	-144.370	0.101	0.009
-306.866	633.548	-0.133	0.333
-305.851	-172.580	-0.196	-0.006
-304.837	-84.808	0.076	0.024
-303.822	-110.665	0.376	-0.077
-302.807	361.054	-0.159	0.315
-301.793	800.000	-0.044	-0.146
-300.778	-145.014	-0.331	-0.030
-299.764	-187.165	0.178	-0.002
-298.749	800.000	0.009	-0.032
-297.735	-132.065	0.120	-0.015
-296.720	800.000	-0.055	0.182
-295.705	-52.962	0.246	0.112
-294.691	-11.910	-0.218	-0.142
-293.676	-61.388	0.126	0.052
-292.662	800.000	0.059	0.176
-291.647	66.220	-0.071	0.071
-290.632	-105.201	-0.257	-0.058
-289.618	100.196	0.119	-0.137
-288.603	800.000	-0.035	-0.144
-287.589	-200.000	-0.023	-0.147
-286.574	90.934	0.144	0.160
-285.559	137.817	0.097	0.126
-284.545	620.026	-0.105	0.261
-283.530	-116.973	-0.203	0.037
-282.516	133.208	0.120	-0.153
-281.501	134.713	0.165	-0.212
-280.486	-16.654	-0.050	0.031
-279.472	-24.792	-0.107	-0.063
-278.457	-137.765	-0.344	0.038
-277.443	101.116	-0.059	-0.068
-276.428	800.000	0.041	0.155
-275.413	-140.929	-0.013	-0.001
-274.399	-26.307	-0.167	0.097
-273.384	432.084	0.064	-0.138
-272.370	22.193	0.210	0.170
-271.355	-121.543	0.120	-0.020
-270.340	-52.692	0.123	-0.056
-269.326	-24.947	0.068	0.040
-268.311	-59.752	0.077	-0.033
-267.297	-173.203	-0.183	-0.006
-266.282	42.067	0.183	0.164
-265.267	-144.455	0.125	-0.011
-264.253	-200.000	-0.015	-0.301
-263.238	-200.000	0.003	-0.073
-262.224	-43.394	0.262	-0.131
-261.209	-6.286	-0.028	-0.019
-260.195	35.068	-0.343	0.297
-259.180	261.305	0.099	0.170
-258.165	-200.000	0.023	0.124
-257.151	35.494	0.220	0.191
-256.136	500.622	-0.008	0.017
-255.122	-13.649	-0.053	0.034
-254.107	-91.590	0.330	0.093
-253.092	417.204	-0.043	-0.092
-252.078	-200.000	0.017	-0.149
-251.063	400.734	-0.082	-0.169
-250.049	137.812	0.097	-0.125
-249.034	800.000	-0.079	-0.276
-248.019	-200.000	-0.017	0.255
-247.005	244.382	-0.134	0.222
-245.990	-98.968	-0.262	0.066
-244.976	267.782	-0.174	-0.300
-243.961	190.736	-0.057	-0.085
-242.946	533.570	-0.147	-0.344
-241.932	71.902	0.116	0.119
-240.917	80.798	-0.097	0.103
-239.903	150.463	0.058	0.077
-238.888	800.000	0.076	0.234
-237.873	-124.925	-0.243	0.037
-236.859	-90.312	0.268	0.077
-235.844	-5.280	0.164	0.111
-234.830	800.000	-0.094	0.376
-233.815	669.034	0.055	-0.141
-232.800	-16.819	-0.049	-0.031
-231.786	-39.584	0.323	-0.167
-230.771	-188.308	-0.366	0.005
-229.757	203.644	0.163	0.249
-228.742	-111.359	0.229	0.046
-227.727	800.000	0.050	0.151
-226.713	241.004	0.164	0.270
-225.698	-107.509	0.121	0.026
-224.684	800.000	0.050	-0.149
-223.669	170.191	0.181	0.256
-222.655	590.519	-0.046	0.113
-221.640	27.613	0.278	0.231
-220.625	-21.145	-0.020	-0.012
-219.611	216.817	0.141	0.222
-218.596	-108.000	-0.341	0.073
-217.582	501.857	0.087	-0.198
-216.567	749.895	0.194	0.516
-215.552	329.956	-0.076	0.143
-214.538	800.000	-0.063	0.221
-213.523	-200.000	0.019	0.180
-212.509	18.576	-0.072	0.057
-211.494	-143.539	0.510	0.048
-210.479	-200.000	-0.033	0.328
-209.465	90.202	-0.178	-0.197
-208.450	800.000	0.069	0.232
-207.436	46.359	0.232	0.212
-206.421	-75.565	0.085	0.030
-205.406	800.000	-0.123	-0.369
-204.392	-160.422	-0.165	0.009
-203.377	39.289	0.115	0.101
-202.363	-2.977	0.194	-0.134
-201.348	-85.178	0.138	-0.042
-200.333	328.395	-0.116	0.220
-199.319	-111.945	-0.054	-0.011
-198.304	-200.000	-0.003	-0.217
-197.290	800.000	0.079	-0.295
-196.275	-200.000	0.017	0.172
-195.260	125.362	-0.115	-0.143
-194.246	488.539	0.228	0.514
-193.231	800.000	0.029	-0.097
-192.217	-149.727	-0.278	-0.022
-191.202	-136.603	0.229	-0.026
-190.187	130.450	0.210	0.265
-189.173	-100.741	-0.112	0.027
-188.158	-5.029	-0.106	0.072
-187.144	-144.627	0.219	0.020
-186.129	-200.000	-0.033	0.152
-185.114	-74.559	-0.105	-0.037
-184.100	-53.436	-0.319	0.144
-183.085	274.945	0.115	-0.201
-182.071	10.957	-0.190	-0.143
-181.056	631.941	0.036	-0.090
-180.042	205.125	0.143	-0.219
-179.027	-131.079	0.279	-0.037
-178.012	-200.000	0.040	-0.228
-176.998	800.000	-0.052	-0.145
-175.983	-65.799	0.159	-0.063
-174.969	800.000	-0.030	0.101
-173.954	-200.000	0.004	-0.141
-172.939	-200.000	0.043	0.191
-171.925	-200.000	-0.029	-0.222
-170.910	-152.068	-0.226	-0.016
-169.896	86.967	-0.128	-0.139
-168.881	-68.061	-0.171	0.066
-167.866	-146.759	0.226	0.019
-166.852	-200.000	-0.080	0.376
-165.837	507.092	0.022	0.050
-164.823	-118.863	-0.281	0.049
-163.808	-17.032	0.068	0.043
-162.793	-34.404	-0.138	-0.074
-161.779	-116.944	-0.131	-0.024
-160.764	-74.318	-0.099	0.035
-159.750	-109.682	0.297	-0.062
-158.735	34.303	0.282	-0.242
-157.720	-86.736	-0.206	0.062
-156.706	371.691	-0.113	0.225
-155.691	-177.965	0.340	0.008
-154.677	-60.021	-0.206	0.087
-153.662	-181.071	-0.197	-0.004
-152.647	-53.383	-0.292	-0.132
-151.633	517.323	0.057	0.132
-150.618	80.449	0.195	-0.206
-149.604	108.015	-0.101	-0.118
-148.589	-5.903	0.080	-0.054
-147.574	573.262	-0.013	-0.032
-146.560	-200.000	-0.028	-0.175
-145.545	-200.000	-0.030	0.273
-144.531	800.000	-0.059	0.201
-143.516	-119.445	0.058	-0.010
-142.502	-47.753	0.234	0.111
-141.487	-23.837	0.079	-0.047
-140.472	-78.166	0.323	0.109
-139.458	389.752	-0.033	0.068
-138.443	-145.735	0.068	-0.006
-137.429	-30.118	0.173	0.097
-136.414	397.747	-0.100	-0.207
-135.399	122.031	-0.051	-0.063
-134.385	-47.645	0.403	-0.192
-133.370	-70.731	0.184	-0.068
-132.356	383.705	0.058	0.118
-131.341	-1.003	0.246	0.171
-130.326	84.702	0.140	0.150
-129.312	146.440	-0.140	0.185
-128.297	-200.000	0.014	0.069
-127.283	729.772	-0.050	-0.132
-126.268	-72.688	0.310	-0.112
-125.253	219.021	0.126	-0.199
-124.239	-146.515	-0.137	0.012
-123.224	310.021	0.100	-0.185
-122.210	800.000	0.086	0.358
-121.195	-200.000	-0.039	0.314
-120.180	245.252	0.184	0.305
-119.166	258.527	0.116	0.197
-118.151	95.850	-0.108	-0.121
-117.137	755.898	0.107	0.284
-116.122	-43.007	0.129	-0.064
-115.107	-149.568	-0.244	0.019
-114.093	-62.262	0.199	-0.081
-113.078	-55.678	-0.195	-0.086
-112.064	21.292	-0.127	-0.101
-111.049	407.126	0.041	0.085
-110.034	7.840	-0.054	0.040
-109.020	303.050	-0.153	-0.278
-108.005	-200.000	-0.007	-0.512
-106.991	208.005	0.047	-0.072
-105.976	-50.818	-0.229	0.106
-104.962	4.121	0.136	0.098
-103.947	-31.415	-0.262	-0.145
-102.932	69.848	0.246	0.250
-101.918	-114.767	-0.272	-0.051
-100.903	-75.166	0.131	0.046
-99.889	-61.006	0.111	-0.046
-98.874	-5.913	0.314	-0.211
-97.859	-93.297	-0.455	-0.124
-96.845	-80.346	-0.283	-0.093
-95.830	60.652	-0.298	-0.290
-94.816	200.218	0.084	0.127
-93.801	-137.839	0.139	-0.015
-92.786	-116.195	0.288	0.052
-91.772	21.378	-0.169	-0.135
-90.757	100.905	-0.079	0.090
-89.743	416.595	0.084	-0.176
-88.728	-89.772	-0.225	-0.065
-87.713	-16.669	-0.286	0.178
-86.699	729.908	-0.091	0.238
-85.684	346.631	0.098	0.190
-84.670	46.667	-0.170	-0.155
-83.655	-40.203	-0.249	-0.127
-82.640	4.172	0.113	0.081
-81.626	87.616	0.136	-0.147
-80.611	-200.000	-0.003	0.024
-79.597	800.000	-0.132	-0.407
-78.582	-78.013	0.341	0.115
-77.567	91.530	0.155	0.171
-76.553	-200.000	0.027	-0.177
-75.538	5.768	0.129	0.093
-74.524	-95.730	-0.132	0.035
-73.509	-172.653	-0.211	0.007
-72.494	496.357	-0.071	-0.161
-71.480	575.542	0.116	0.278
-70.465	-200.000	-0.032	0.212
-69.451	-200.000	0.036	-0.487
-68.436	-114.018	0.497	-0.094
-67.422	15.249	0.140	-0.108
-66.407	-178.994	0.612	-0.014
-65.392	532.712	-0.063	-0.145
-64.378	221.851	0.105	0.166
-63.363	-77.451	-0.186	0.063
-62.349	-50.988	-0.206	0.095
-61.334	79.825	-0.902	-0.950
-60.319	122.136	0.554	0.679
-59.305	327.691	-0.504	-0.948
-58.290	232.348	0.727	1.170
-57.276	800.000	0.542	1.773
-56.261	-200.000	106.326	616.674
-55.246	506.959	1510.696	3435.285
-54.232	174.508	2711.742	3844.686
-53.217	104.707	2300.432	2657.512
-52.203	38.679	1905.088	1666.478
-51.188	32.588	1690.677	1432.708
-50.173	30.081	1647.657	1377.585
-49.159	49.167	1701.569	1567.360
-48.144	49.356	1716.353	1582.343
-47.130	32.185	1673.824	1415.165
-46.115	29.542	1659.793	1383.480
-45.100	29.423	1654.292	1377.949
-44.086	29.302	1652.333	1375.363
-43.071	29.210	1649.986	1372.665
-42.057	29.250	1647.118	1370.527
-41.042	29.323	1645.033	1369.278
-40.027	29.369	1642.878	1367.769
-39.013	29.324	1641.168	1365.958
-37.998	29.265	1639.896	1364.410
-36.984	29.341	1638.391	1363.667
-35.969	29.495	1636.553	1363.218
-34.954	29.465	1634.770	1361.460
-33.940	29.520	1632.470	1359.892
-32.925	29.489	1631.384	1358.707
-31.911	29.406	1629.830	1356.745
-30.896	29.352	1628.354	1355.071
-29.881	29.456	1626.327	1354.088
-28.867	29.368	1625.072	1352.348
-27.852	29.472	1623.338	1351.610
-26.838	29.396	1622.058	1349.935
-25.823	29.528	1620.047	1349.173
-24.809	29.516	1619.597	1348.656
-23.794	29.474	1617.986	1346.960
-22.779	29.419	1616.670	1345.403
-21.765	29.444	1614.543	1343.769
-20.750	29.462	1612.929	1342.502
-19.736	29.476	1611.680	1341.511
-18.721	29.502	1610.248	1340.452
-17.706	29.411	1608.613	1338.377
-16.692	29.483	1606.918	1337.437
-15.677	29.534	1605.816	1336.834
-14.663	29.437	1605.214	1335.578
-13.648	29.507	1603.439	1334.555
-12.633	29.462	1601.627	1332.670
-11.619	29.429	1600.445	1331.396
-10.604	29.443	1598.883	1330.142
-9.590	29.421	1597.849	1329.071
-8.575	29.496	1596.628	1328.543
-7.560	29.455	1595.466	1327.229
-6.546	29.388	1594.567	1325.946
-5.531	29.470	1592.880	1325.078
-4.517	29.491	1591.863	1324.331
-3.502	29.403	1591.394	1323.261
-2.487	29.562	1588.995	1322.347
-1.473	29.175	1578.128	1310.504
-0.458	26.492	1558.367	1275.157
0.556	20.706	1559.906	1244.918
1.571	18.519	1584.173	1248.266
2.586	18.318	1597.627	1257.278
3.600	16.583	1545.577	1203.874
4.615	8.891	1434.948	1066.599
5.629	1.170	1371.952	970.419
6.644	-0.157	1363.891	956.190
7.659	-0.316	1362.984	954.456
8.673	-0.234	1361.282	953.701
9.688	-0.333	1360.266	952.280
10.702	-0.483	1356.820	948.830
11.717	3.164	1363.856	976.853
12.731	12.428	1381.615	1048.839
13.746	19.823	1393.530	1105.215
14.761	21.754	1396.221	1119.601
15.775	22.180	1396.206	1122.209
16.790	22.152	1395.956	1121.731
17.804	22.230	1395.261	1121.570
18.819	22.477	1395.187	1122.986
19.834	22.629	1394.152	1123.023
20.848	22.607	1393.524	1122.278
21.863	22.553	1392.516	1121.024
22.877	22.640	1391.768	1120.878
23.892	22.534	1391.255	1119.690
24.907	22.599	1390.180	1119.136
25.921	22.682	1389.303	1118.860
26.936	22.643	1388.233	1117.655
27.950	22.608	1386.697	1116.094
28.965	22.510	1386.299	1115.053
29.980	22.624	1384.705	1114.395
30.994	22.649	1383.501	1113.486
32.009	22.554	1382.827	1112.244
33.023	22.560	1381.792	1111.355
34.038	22.620	1380.664	1110.727
35.053	22.659	1379.280	1109.758
36.067	22.635	1378.546	1108.917
37.082	22.564	1377.726	1107.717
38.096	22.681	1376.204	1107.128
39.111	22.621	1375.931	1106.432
40.126	22.656	1375.553	1106.249
41.140	22.570	1374.686	1104.914
42.155	22.660	1374.149	1104.953
43.169	22.651	1374.331	1104.946
44.184	22.521	1374.307	1104.011
45.199	22.613	1373.409	1103.771
46.213	22.715	1372.534	1103.606
47.228	22.735	1371.445	1102.756
48.242	22.566	1371.034	1101.275
49.257	22.483	1369.997	1099.823
50.271	22.537	1368.394	1098.779
51.286	22.573	1367.024	1097.803
52.301	22.624	1365.674	1096.938
53.315	22.571	1365.007	1095.978
54.330	22.633	1363.942	1095.414
55.344	22.583	1362.472	1093.821
56.359	22.575	1361.532	1092.922
57.374	22.625	1360.685	1092.456
58.388	22.615	1360.152	1091.867
59.403	22.583	1359.905	1091.379
60.417	22.621	1358.767	1090.603
61.432	22.578	1358.297	1089.859
62.447	22.556	1357.347	1088.867
63.461	22.427	1356.874	1087.594
64.476	22.600	1355.475	1087.441
65.490	22.650	1354.446	1086.832
66.505	22.547	1353.387	1085.248
67.520	22.596	1351.669	1084.079
68.534	22.629	1350.867	1083.543
69.549	22.676	1349.605	1082.720
70.563	22.612	1348.544	1081.382
71.578	22.595	1347.741	1080.540
72.593	22.621	1347.034	1080.034
73.607	22.650	1346.256	1079.493
74.622	22.535	1345.745	1078.286
75.636	22.568	1344.731	1077.578
76.651	22.582	1343.996	1076.981
77.666	22.474	1343.991	1076.224
78.680	22.570	1343.165	1076.049
79.695	22.632	1342.035	1075.426
80.709	22.619	1341.351	1074.702
81.724	22.614	1340.731	1074.081
82.739	22.580	1339.834	1073.062
83.753	22.669	1338.494	1072.434
84.768	22.605	1337.551	1071.194
85.782	22.682	1336.580	1070.792
86.797	22.717	1334.795	1069.479
87.812	22.651	1334.018	1068.363
88.826	22.643	1333.208	1067.572
89.841	22.677	1331.855	1066.598
90.855	22.667	1331.263	1065.970
91.870	22.701	1330.336	1065.336
92.884	22.626	1329.335	1063.991
93.899	22.682	1328.618	1063.661
94.914	22.698	1327.937	1063.118
95.928	22.745	1326.984	1062.546
96.943	22.734	1326.368	1061.887
97.957	22.731	1325.694	1061.235
98.972	22.776	1324.676	1060.599
99.987	22.644	1324.033	1059.198
101.001	22.684	1322.925	1058.455
102.016	22.737	1321.710	1057.707
103.030	22.727	1321.099	1057.069
104.045	22.680	1320.091	1055.887
105.060	22.654	1319.442	1055.119
106.074	22.796	1318.016	1054.730
107.089	22.671	1316.994	1053.077
108.103	22.784	1315.916	1052.794
109.118	22.775	1314.715	1051.688
110.133	22.842	1313.192	1050.772
111.147	22.774	1312.618	1049.816
112.162	22.859	1311.171	1049.070
113.176	22.738	1310.698	1047.880
114.191	22.830	1309.652	1047.499
115.206	22.728	1308.870	1046.175
116.220	22.710	1307.228	1044.663
117.235	22.753	1306.759	1044.452
118.249	22.742	1305.910	1043.615
119.264	22.866	1304.623	1043.230
120.279	22.861	1303.936	1042.555
121.293	22.825	1303.363	1041.792
122.308	22.798	1302.094	1040.530
123.322	22.892	1300.847	1039.990
124.337	22.803	1300.652	1039.220
125.352	22.808	1299.576	1038.297
126.366	22.869	1298.679	1037.847
127.381	22.845	1297.822	1036.929
128.395	22.818	1296.860	1035.911
129.410	22.891	1296.091	1035.633
130.424	22.857	1295.267	1034.686
131.439	22.751	1294.541	1033.393
132.454	22.789	1293.606	1032.776
133.468	22.832	1292.945	1032.409
134.483	22.886	1292.454	1032.244
135.497	22.786	1291.364	1030.695
136.512	22.725	1290.768	1029.775
137.527	22.866	1288.999	1029.090
138.541	22.746	1287.869	1027.400
139.556	22.730	1286.663	1026.254
140.570	22.770	1285.646	1025.587
141.585	22.755	1284.953	1024.853
142.600	22.803	1283.619	1023.975
143.614	22.705	1282.878	1022.726
144.629	22.763	1281.491	1021.871
145.643	22.756	1280.572	1021.005
146.658	22.637	1280.129	1019.870
147.673	22.703	1278.520	1018.881
148.687	22.678	1277.684	1017.979
149.702	22.740	1276.112	1016.995
150.716	22.720	1275.569	1016.358
151.731	22.834	1274.079	1015.735
152.746	22.854	1272.853	1014.782
153.760	22.869	1272.305	1014.346
154.775	22.796	1271.578	1013.255
155.789	22.805	1270.325	1012.217
156.804	22.728	1269.755	1011.232
157.819	22.819	1268.669	1010.803
158.833	22.906	1267.757	1010.480
159.848	22.856	1267.249	1009.703
160.862	22.873	1266.544	1009.149
161.877	22.870	1265.897	1008.525
162.892	22.911	1264.852	1007.840
163.906	22.918	1264.150	1007.232
164.921	22.837	1263.856	1006.441
165.935	22.928	1262.770	1006.010
166.950	22.944	1262.461	1005.764
167.964	22.962	1261.490	1005.003
168.979	22.990	1260.624	1004.383
169.994	23.029	1260.221	1004.196
171.008	22.970	1259.610	1003.286
172.023	23.013	1258.840	1002.830
173.037	22.874	1258.440	1001.634
174.052	22.899	1257.627	1001.040
175.067	22.993	1256.740	1000.773
176.081	22.994	1255.455	999.671
177.096	22.939	1255.361	999.194
178.110	23.023	1253.888	998.411
179.125	22.889	1253.336	997.123
180.140	22.988	1251.945	996.486
181.154	23.034	1251.078	995.969
182.169	22.964	1249.901	994.546
183.183	22.850	1249.347	993.377
184.198	22.990	1247.833	992.873
185.213	22.984	1247.209	992.257
186.227	23.000	1246.179	991.441
187.242	23.104	1245.107	991.082
188.256	23.120	1244.142	990.315
189.271	23.112	1243.333	989.538
190.286	23.198	1242.612	989.358
191.300	22.967	1242.668	988.022
192.315	22.958	1241.989	987.343
193.329	23.000	1241.488	987.096
194.344	23.137	1240.824	987.246
195.359	23.069	1240.128	986.222
196.373	22.991	1240.229	985.780
197.388	22.828	1239.945	984.561
198.402	22.950	1239.248	984.600
199.417	23.057	1238.727	984.691
200.432	23.076	1238.339	984.401
201.446	23.035	1237.662	983.553
202.461	23.041	1236.903	982.895
203.475	22.983	1235.865	981.659
204.490	23.002	1234.997	980.988
205.504	23.019	1233.709	979.971
206.519	23.005	1233.513	979.655
207.534	23.043	1232.256	978.779
208.548	23.050	1230.667	977.471
209.563	23.131	1230.209	977.464
210.577	23.108	1229.224	976.467
211.592	23.122	1228.835	976.151
212.607	23.077	1228.013	975.166
213.621	23.133	1227.422	974.919
214.636	23.198	1226.105	974.145
215.650	23.185	1225.640	973.614
216.665	23.181	1224.768	972.814
217.680	23.071	1223.955	971.479
218.694	23.204	1222.603	971.048
219.709	23.133	1222.251	970.293
220.723	23.158	1221.537	969.780
221.738	23.170	1220.662	969.064
222.753	23.147	1219.663	968.058
223.767	23.207	1219.145	967.888
224.782	23.236	1219.137	967.958
225.796	23.271	1218.810	967.804
226.811	23.228	1217.727	966.624
227.826	23.247	1217.405	966.387
228.840	23.186	1216.936	965.595
229.855	23.106	1216.338	964.598
230.869	23.186	1215.649	964.403
231.884	23.280	1214.383	963.823
232.899	23.213	1213.882	962.980
233.913	23.321	1213.310	963.023
234.928	23.333	1212.794	962.597
235.942	23.310	1212.301	961.994
236.957	23.405	1211.013	961.402
237.972	23.279	1210.668	960.362
238.986	23.323	1210.004	959.989
240.001	23.310	1209.905	959.755
241.015	23.350	1208.881	959.074
242.030	23.300	1208.392	958.331
243.045	23.304	1207.734	957.744
244.059	23.423	1206.434	957.273
245.074	23.429	1205.373	956.378
246.088	23.549	1204.477	956.228
247.103	23.394	1204.263	955.140
248.117	23.354	1203.135	953.943
249.132	23.430	1202.336	953.634
250.147	23.476	1202.070	953.586
251.161	23.412	1200.766	952.126
252.176	23.492	1200.486	952.247
253.190	23.527	1199.904	951.887
254.205	23.597	1198.802	951.306
255.220	23.437	1198.777	950.347
256.234	23.513	1198.012	950.061
257.249	23.624	1197.100	949.849
258.263	23.610	1196.842	949.482
259.278	23.509	1196.177	948.334
260.293	23.550	1195.882	948.235
261.307	23.550	1195.163	947.579
262.322	23.549	1194.733	947.151
263.336	23.572	1193.935	946.558
264.351	23.568	1193.334	945.973
265.366	23.597	1192.597	945.464
266.380	23.685	1191.709	945.141
267.395	23.544	1191.360	944.030
268.409	23.527	1190.963	943.543
269.424	23.533	1190.237	942.915
270.439	23.641	1189.529	942.847
271.453	23.660	1188.909	942.373
272.468	23.550	1188.578	941.440
273.482	23.557	1187.399	940.462
274.497	23.650	1186.950	940.516
275.512	23.572	1186.564	939.716
276.526	23.611	1185.694	939.145
277.541	23.731	1184.927	939.094
278.555	23.804	1184.178	938.800
279.570	23.677	1183.627	937.612
280.585	23.652	1182.802	936.744
281.599	23.695	1181.832	936.117
282.614	23.620	1180.857	934.866
283.628	23.726	1180.154	934.787
284.643	23.799	1179.123	934.272
285.657	23.716	1178.848	933.532
286.672	23.663	1178.057	932.549
287.687	23.771	1177.003	932.199
288.701	23.816	1176.070	931.609
289.716	23.804	1175.385	930.920
290.730	23.872	1174.877	930.793
291.745	23.818	1174.243	929.925
292.760	23.896	1173.261	929.474
293.774	23.879	1173.275	929.313
294.789	23.831	1172.988	928.753
295.803	23.870	1172.101	928.175
296.818	23.869	1171.494	927.605
297.833	23.866	1170.803	926.960
298.847	23.818	1170.000	925.994
299.862	23.911	1169.162	925.729
300.876	23.855	1168.982	925.213
301.891	23.904	1168.560	925.052
302.906	23.947	1167.694	924.510
303.920	23.987	1166.945	924.042
304.935	24.053	1166.254	923.758
305.949	24.062	1165.347	923.003
306.964	24.019	1165.220	922.596
307.979	23.978	1164.590	921.806
308.993	23.977	1164.027	921.271
310.008	23.972	1162.837	920.223
311.022	24.059	1161.896	919.849
312.037	24.002	1161.326	919.021
313.052	23.962	1160.580	918.142
314.066	24.043	1159.477	917.606
315.081	24.018	1158.721	916.798
316.095	24.173	1158.313	917.193
317.110	24.093	1157.743	916.248
318.125	24.012	1157.434	915.505
319.139	24.040	1156.438	914.779
320.154	24.048	1156.271	914.608
321.168	24.139	1155.219	914.162
322.183	24.043	1154.864	913.305
323.197	24.029	1154.859	913.151
324.212	24.011	1154.136	912.405
325.227	24.140	1153.328	912.351
326.241	24.119	1152.810	911.748
327.256	24.126	1152.039	911.093
328.270	24.195	1151.079	910.609
329.285	24.143	1150.490	909.796
330.300	24.188	1149.405	909.087
331.314	24.242	1148.684	908.713
332.329	24.239	1147.382	907.586
333.343	24.145	1146.977	906.705
334.358	24.157	1146.426	906.251
335.373	24.159	1145.709	905.618
336.387	24.347	1144.694	905.689
337.402	24.337	1144.032	905.031
338.416	24.266	1143.548	904.208
339.431	24.252	1142.951	903.588
340.446	24.290	1142.136	903.054
341.460	24.373	1141.871	903.188
342.475	24.307	1140.932	902.027
343.489	24.462	1139.812	901.849
344.504	24.387	1139.162	900.876
345.519	24.409	1138.004	899.992
346.533	24.403	1137.463	899.453
347.548	24.331	1137.074	898.705
348.562	24.398	1136.144	898.227
349.577	24.408	1135.532	897.711
350.592	24.429	1134.359	896.809
351.606	24.385	1134.126	896.325
352.621	24.374	1133.519	895.711
353.635	24.395	1132.882	895.235
354.650	24.499	1132.053	895.020
355.665	24.456	1131.404	894.212
356.679	24.450	1131.137	893.892
357.694	24.511	1130.265	893.430
358.708	24.391	1129.613	892.235
359.723	24.446	1129.044	891.982
360.738	24.360	1128.312	890.895
361.752	24.530	1127.865	891.311
362.767	24.544	1127.256	890.822
363.781	24.534	1126.914	890.422
364.796	24.534	1126.306	889.867
365.810	24.550	1125.667	889.361
366.825	24.712	1124.470	889.142
367.840	24.605	1124.360	888.445
368.854	24.573	1124.217	888.092
369.869	24.674	1123.087	887.626
370.883	24.702	1122.186	886.972
371.898	24.669	1121.773	886.402
372.913	24.628	1121.095	885.588
373.927	24.819	1120.414	885.918
374.942	24.658	1120.041	884.745
375.956	24.780	1119.174	884.583
376.971	24.573	1119.023	883.366
377.986	24.697	1118.216	883.263
379.000	24.716	1118.135	883.212
380.015	24.788	1117.415	882.925
381.029	24.704	1116.790	881.937
382.044	24.822	1115.952	881.775
383.059	24.776	1115.355	881.002
384.073	24.945	1114.534	881.108
385.088	24.838	1113.558	879.730
386.102	24.764	1112.887	878.757
387.117	24.921	1112.101	878.831
388.132	24.730	1111.673	877.479
389.146	24.789	1110.740	876.954
390.161	24.924	1109.888	876.865
391.175	25.016	1109.099	876.613
392.190	24.900	1108.618	875.588
393.205	24.912	1108.198	875.237
394.219	24.836	1107.392	874.155
395.234	24.855	1106.742	873.654
396.248	25.002	1105.266	873.129
397.263	24.924	1104.740	872.257
398.278	24.887	1104.352	871.692
399.292	25.025	1103.661	871.743
400.307	25.032	1103.068	871.229
401.321	25.002	1102.685	870.705
402.336	25.019	1101.722	869.952
403.350	25.020	1101.075	869.366
404.365	25.028	1100.277	868.699
405.380	25.163	1099.480	868.646
406.394	25.067	1098.984	867.714
407.409	25.214	1098.204	867.731
408.423	25.167	1097.756	867.074
409.438	25.033	1097.056	865.797
410.453	25.226	1096.424	866.154
411.467	25.157	1095.337	864.885
412.482	25.059	1094.857	863.959
413.496	25.144	1094.046	863.651
414.511	25.147	1093.692	863.309
415.526	25.157	1092.905	862.658
416.540	25.258	1092.548	862.785
417.555	25.282	1091.867	862.288
418.569	25.272	1091.836	862.140
419.584	25.295	1091.196	861.668
420.599	25.242	1090.994	861.179
421.613	147.733	1404.092	1798.118
422.628	136.684	1449.669	1798.245
