DTS Sentinel unit serial number:	SN413079Multiplexer serial number:	ORYXHardware model number:	OX4-SRSoftware version number:	ORYX F/W v4.00 Oryx Data Collector v3.7.2.0data status	okinstallation	princeton_trtdifferential loss correction	single-endedforward channel	channel 2reverse channel	N/Adate	2019/09/14time	19:23:35forward acquisition time	60.00reverse acquisition time	0.00gamma	496.2192k internal	0.2321k external	0.2321temperature offset calibration	1.0099default loss term (dB/km)	0.3790temperature slope calibration	1.0000multiplexer offset coefficient	1.0000multiplexer slope coefficient	1.0000fibre end	0.00T internal ref (°C)	34.94T ext. ref 1 (°C)	4.87T ext. ref 2 (°C)	29.04length (m)	temperature (°C)	Stokes	anti-Stokes-747.200	495.761	0.012	0.028
-746.185	-126.723	0.162	-0.024
-745.171	800.000	0.062	0.186
-744.156	-36.165	-0.324	0.177
-743.142	-80.722	-0.296	-0.099
-742.127	258.218	-0.082	-0.143
-741.112	-94.379	0.600	-0.165
-740.098	-36.940	0.102	0.055
-739.083	-20.780	0.275	-0.170
-738.069	-200.000	-0.026	-0.156
-737.054	-200.000	-0.023	-0.133
-736.039	-60.650	-0.296	-0.127
-735.025	23.870	0.355	0.296
-734.010	83.662	-0.201	-0.222
-732.996	-200.000	0.026	-0.221
-731.981	77.750	-0.189	-0.204
-730.966	-123.306	-0.290	-0.047
-729.952	112.950	-0.219	-0.268
-728.937	-30.230	-0.065	-0.037
-727.923	800.000	0.097	0.418
-726.908	-76.173	-0.173	0.062
-725.894	-44.197	-0.161	-0.082
-724.879	800.000	0.150	-0.494
-723.864	45.914	0.051	-0.048
-722.850	60.388	0.044	0.044
-721.835	800.000	0.091	0.261
-720.821	130.072	0.040	-0.052
-719.806	-65.034	0.396	0.161
-718.791	800.000	-0.012	-0.033
-717.777	-65.773	-0.351	-0.142
-716.762	135.695	0.071	0.093
-715.748	-128.864	0.084	0.012
-714.733	250.060	0.016	-0.028
-713.718	-200.000	-0.037	-0.321
-712.704	-87.612	-0.237	-0.072
-711.689	183.317	-0.221	-0.330
-710.675	-123.272	0.374	0.060
-709.660	-59.019	0.084	-0.037
-708.645	800.000	0.060	-0.249
-707.631	-45.603	0.073	0.036
-706.616	800.000	0.107	0.402
-705.602	-60.764	-0.107	-0.046
-704.587	-138.827	0.234	-0.026
-703.572	40.975	-0.199	0.181
-702.558	-200.000	0.023	0.407
-701.543	29.137	0.219	0.188
-700.529	800.000	0.019	0.070
-699.514	-200.000	0.020	-0.175
-698.499	-71.026	0.319	-0.121
-697.485	-169.088	-0.151	-0.006
-696.470	-50.595	0.139	-0.066
-695.456	389.982	0.091	-0.191
-694.441	-11.371	-0.289	-0.192
-693.426	134.470	-0.123	-0.161
-692.412	-18.791	0.154	0.097
-691.397	219.979	0.179	0.290
-690.383	-26.592	0.073	0.043
-689.368	-107.134	-0.566	-0.126
-688.354	-161.760	-0.236	0.012
-687.339	-105.376	-0.228	-0.052
-686.324	99.443	-0.070	-0.081
-685.310	-200.000	-0.030	-0.149
-684.295	724.403	0.084	-0.225
-683.281	65.251	-0.275	-0.280
-682.266	-6.515	-0.152	-0.104
-681.251	800.000	-0.081	0.338
-680.237	300.162	-0.170	0.317
-679.222	-87.580	-0.170	0.052
-678.208	205.973	0.202	0.316
-677.193	104.865	0.271	-0.322
-676.178	-95.387	-0.308	0.083
-675.164	-90.888	0.257	-0.075
-674.149	-70.466	-0.320	-0.122
-673.135	250.022	0.130	0.222
-672.120	-26.702	0.250	0.148
-671.105	25.656	-0.212	-0.178
-670.091	800.000	-0.098	-0.362
-669.076	0.579	0.196	-0.141
-668.062	-200.000	0.022	0.000
-667.047	65.829	0.158	0.161
-666.032	2.571	0.191	-0.139
-665.018	181.284	0.207	-0.306
-664.003	-116.618	-0.293	0.054
-662.989	-200.000	-0.070	-0.376
-661.974	-200.000	-0.025	-0.137
-660.959	-32.735	-0.058	-0.033
-659.945	-103.985	0.217	0.051
-658.930	223.044	-0.053	0.085
-657.916	139.719	-0.191	-0.253
-656.901	-101.395	-0.329	0.081
-655.886	-40.831	0.222	-0.116
-654.872	-106.080	0.151	0.034
-653.857	618.815	0.169	0.427
-652.843	-147.264	0.120	-0.010
-651.828	58.459	0.190	0.187
-650.814	171.907	0.096	-0.139
-649.799	610.613	0.044	-0.111
-648.784	-154.185	0.099	-0.007
-647.770	43.422	0.223	0.206
-646.755	-200.000	-0.029	0.140
-645.741	-176.586	0.239	0.006
-644.726	-150.846	-0.089	0.007
-643.711	197.545	-0.166	-0.255
-642.697	-87.059	0.285	0.087
-641.682	344.655	-0.109	0.215
-640.668	-200.000	-0.020	-0.194
-639.653	-110.953	-0.319	-0.066
-638.638	-166.957	0.148	-0.006
-637.624	-55.011	-0.276	0.125
-636.609	321.925	-0.103	-0.198
-635.595	-200.000	-0.053	-0.272
-634.580	-200.000	-0.033	-0.271
-633.565	-90.641	0.174	0.051
-632.551	38.448	-0.231	-0.208
-631.536	113.307	0.109	-0.133
-630.522	84.158	-0.148	-0.163
-629.507	-75.757	0.122	-0.044
-628.492	800.000	0.015	0.060
-627.478	800.000	0.053	-0.186
-626.463	-200.000	-0.011	-0.055
-625.449	-68.558	-0.128	-0.050
-624.434	224.157	-0.105	-0.171
-623.419	178.499	-0.204	-0.300
-622.405	-200.000	-0.021	-0.408
-621.390	-10.131	0.255	0.170
-620.376	189.213	-0.243	-0.366
-619.361	800.000	0.033	-0.099
-618.346	-35.359	-0.104	0.057
-617.332	-98.195	0.056	0.014
-616.317	-200.000	0.005	-0.217
-615.303	316.608	0.055	0.104
-614.288	686.853	0.133	-0.349
-613.273	-92.650	0.105	-0.030
-612.259	-200.000	0.009	-0.084
-611.244	-22.119	0.072	0.044
-610.230	4.119	0.143	0.105
-609.215	-200.000	-0.011	0.215
-608.201	19.464	0.296	-0.239
-607.186	-200.000	0.005	-0.120
-606.171	-84.039	-0.290	0.093
-605.157	-166.900	-0.160	-0.007
-604.142	133.460	-0.064	-0.083
-603.128	-200.000	0.012	-0.067
-602.113	-57.923	-0.194	0.085
-601.098	-63.250	0.211	0.087
-600.084	-57.694	-0.475	0.209
-599.069	800.000	0.037	0.122
-598.055	-20.280	0.246	-0.152
-597.040	19.840	0.066	0.053
-596.025	-63.814	0.260	-0.107
-595.011	-89.444	0.015	-0.005
-593.996	-200.000	-0.016	0.198
-592.982	-76.163	-0.139	-0.049
-591.967	-117.674	0.672	-0.122
-590.952	800.000	-0.062	0.179
-589.938	-73.304	-0.244	-0.090
-588.923	-40.947	0.126	-0.065
-587.909	332.009	0.073	0.142
-586.894	-54.583	0.439	0.199
-585.879	284.089	0.082	-0.148
-584.865	-200.000	0.018	0.237
-583.850	-13.282	-0.164	0.107
-582.836	-31.458	0.127	0.071
-581.821	-72.110	-0.237	-0.088
-580.806	76.527	-0.074	0.079
-579.792	18.506	0.323	0.259
-578.777	-106.069	0.172	-0.039
-577.763	-13.383	-0.185	-0.121
-576.748	308.362	-0.114	0.214
-575.733	-18.673	0.233	0.146
-574.719	-200.000	-0.012	-0.320
-573.704	-200.000	-0.025	0.246
-572.690	328.096	-0.039	-0.075
-571.675	-200.000	0.000	-0.030
-570.661	196.355	0.065	0.099
-569.646	-73.010	0.037	0.014
-568.631	275.250	-0.081	0.145
-567.617	311.611	-0.085	0.160
-566.602	-200.000	-0.000	0.521
-565.588	-8.365	0.102	0.069
-564.573	71.174	-0.172	-0.179
-563.558	-87.914	-0.207	0.062
-562.544	184.233	-0.151	0.224
-561.529	771.904	0.158	0.432
-560.515	231.834	-0.065	0.107
-559.500	232.253	0.103	0.170
-558.485	-132.236	0.158	0.021
-557.471	-106.731	0.070	-0.016
-556.456	-3.976	-0.157	-0.110
-555.442	40.041	0.188	-0.169
-554.427	243.829	-0.194	0.326
-553.412	11.568	-0.188	-0.144
-552.398	-200.000	-0.033	0.269
-551.383	-30.120	0.079	-0.045
-550.369	53.633	-0.330	-0.318
-549.354	-133.288	-0.169	-0.021
-548.339	800.000	-0.160	0.496
-547.325	800.000	0.040	-0.114
-546.310	-200.000	-0.004	-0.170
-545.296	-137.362	0.139	0.016
-544.281	-200.000	0.000	0.254
-543.266	-13.336	0.077	0.050
-542.252	95.843	-0.255	-0.292
-541.237	-52.086	0.145	0.068
-540.223	-74.494	0.206	0.075
-539.208	-91.585	-0.223	0.064
-538.193	-39.855	0.253	0.132
-537.179	-82.929	0.262	-0.085
-536.164	-29.011	-0.370	0.213
-535.150	-128.175	-0.511	0.073
-534.135	152.381	0.160	0.219
-533.121	-200.000	-0.037	0.257
-532.106	-90.567	-0.159	0.046
-531.091	322.273	-0.090	0.171
-530.077	800.000	-0.063	-0.259
-529.062	800.000	-0.050	-0.165
-528.048	-4.789	0.339	-0.234
-527.033	-200.000	-0.044	-0.250
-526.018	128.021	0.217	0.276
-525.004	-91.521	0.144	0.041
-523.989	800.000	-0.114	0.376
-522.975	707.621	0.065	0.173
-521.960	-49.708	0.446	0.212
-520.945	146.796	0.053	0.071
-519.931	-3.553	-0.117	0.082
-518.916	800.000	0.062	-0.214
-517.902	-117.223	-0.215	-0.039
-516.887	-46.779	-0.132	0.065
-515.872	-200.000	-0.019	-0.152
-514.858	481.765	0.037	-0.085
-513.843	-166.073	0.161	-0.007
-512.829	-200.000	0.000	-0.299
-511.814	-200.000	0.013	-0.150
-510.799	-200.000	0.042	-0.403
-509.785	474.645	-0.076	0.172
-508.770	88.260	0.142	0.158
-507.756	800.000	0.012	0.049
-506.741	1.876	-0.320	0.231
-505.726	48.630	-0.251	-0.236
-504.712	-102.778	-0.319	0.076
-503.697	-200.000	-0.031	-0.178
-502.683	223.531	-0.037	-0.060
-501.668	800.000	0.028	-0.087
-500.653	72.414	0.137	-0.143
-499.639	-118.930	0.085	0.015
-498.624	-178.378	-0.097	-0.002
-497.610	-200.000	-0.014	0.134
-496.595	-200.000	-0.049	0.253
-495.581	183.530	-0.191	0.283
-494.566	275.872	0.175	-0.311
-493.551	351.381	-0.159	-0.315
-492.537	78.663	0.214	-0.229
-491.522	-59.057	-0.176	0.076
-490.508	-29.668	-0.083	0.047
-489.493	610.386	0.057	0.143
-488.478	-71.676	-0.317	0.118
-487.464	-95.974	-0.423	-0.113
-486.449	435.324	-0.040	-0.087
-485.435	-200.000	-0.028	0.168
-484.420	800.000	0.062	-0.196
-483.405	-200.000	0.018	-0.086
-482.391	41.074	-0.095	-0.086
-481.376	-140.886	-0.140	-0.014
-480.362	462.614	0.059	-0.133
-479.347	128.621	0.052	-0.067
-478.332	294.673	-0.157	0.288
-477.318	491.592	-0.162	-0.372
-476.303	128.088	-0.091	0.116
-475.289	-42.360	0.206	-0.105
-474.274	-200.000	0.012	0.271
-473.259	-135.274	0.222	0.027
-472.245	-78.193	-0.054	0.019
-471.230	-200.000	0.007	0.192
-470.216	-200.000	-0.043	0.275
-469.201	-17.218	-0.177	-0.112
-468.186	-49.933	0.057	-0.027
-467.172	-200.000	-0.031	0.203
-466.157	-79.137	-0.213	0.072
-465.143	-34.687	-0.046	0.025
-464.128	28.013	0.287	0.242
-463.113	-200.000	0.007	-0.141
-462.099	485.535	-0.013	-0.031
-461.084	3.382	-0.179	0.130
-460.070	31.090	-0.123	-0.106
-459.055	-200.000	0.022	-0.123
-458.040	601.166	-0.079	0.196
-457.026	800.000	0.084	0.248
-456.011	-200.000	0.034	0.284
-454.997	-129.330	-0.270	-0.038
-453.982	-200.000	-0.068	-0.358
-452.968	-200.000	0.013	-0.447
-451.953	71.153	0.069	0.071
-450.938	18.070	-0.195	0.155
-449.924	-9.522	-0.109	-0.073
-448.909	81.185	-0.063	0.068
-447.895	800.000	-0.058	0.212
-446.880	87.828	0.110	-0.122
-445.865	-42.669	-0.209	0.106
-444.851	-98.540	-0.164	0.042
-443.836	-84.256	0.347	0.110
-442.822	329.975	-0.096	-0.184
-441.807	-137.167	-0.084	0.010
-440.792	124.821	-0.249	-0.314
-439.778	317.007	0.029	0.055
-438.763	800.000	0.040	-0.123
-437.749	618.840	-0.089	0.224
-436.734	266.119	0.074	-0.128
-435.719	78.371	-0.138	0.147
-434.705	-150.173	0.312	0.024
-433.690	79.392	-0.080	-0.086
-432.676	92.780	-0.126	0.142
-431.661	-200.000	-0.038	0.204
-430.646	-96.002	-0.182	0.048
-429.632	720.273	0.079	-0.211
-428.617	-26.633	0.268	0.157
-427.603	800.000	0.008	-0.027
-426.588	79.458	-0.151	-0.162
-425.573	-117.500	-0.559	-0.101
-424.559	-92.078	0.154	-0.043
-423.544	6.194	-0.133	-0.098
-422.530	800.000	0.097	-0.340
-421.515	7.990	-0.108	-0.081
-420.500	-121.548	0.312	-0.052
-419.486	-164.923	0.187	-0.008
-418.471	-200.000	-0.036	-0.296
-417.457	-120.316	-0.222	0.038
-416.442	-56.248	-0.204	-0.090
-415.428	133.916	0.008	0.010
-414.413	37.517	-0.135	0.120
-413.398	-87.464	0.246	0.074
-412.384	-13.015	0.191	-0.124
-411.369	-98.919	0.154	-0.039
-410.355	-81.556	0.309	-0.101
-409.340	79.651	0.059	-0.063
-408.325	-116.643	0.116	0.021
-407.311	-15.866	-0.054	-0.034
-406.296	28.084	-0.079	0.067
-405.282	12.730	-0.370	-0.285
-404.267	-51.882	-0.270	0.125
-403.252	-129.242	0.172	-0.024
-402.238	30.782	0.028	0.024
-401.223	800.000	0.066	-0.241
-400.209	-200.000	-0.038	0.252
-399.194	312.618	-0.127	0.239
-398.179	-131.279	-0.189	-0.025
-397.165	89.778	0.062	-0.069
-396.150	-100.715	-0.112	-0.028
-395.136	703.222	-0.084	0.220
-394.121	-165.759	0.185	0.008
-393.106	800.000	-0.073	0.212
-392.092	62.771	0.059	0.059
-391.077	177.001	0.019	0.027
-390.063	-75.909	-0.227	-0.080
-389.048	87.444	0.047	0.052
-388.033	-140.709	0.066	0.007
-387.019	-146.654	-0.457	-0.039
-386.004	800.000	0.035	-0.129
-384.990	55.126	0.051	-0.050
-383.975	112.282	0.113	0.137
-382.960	134.391	0.226	0.292
-381.946	-86.365	0.167	-0.051
-380.931	-108.298	0.185	0.040
-379.917	-200.000	-0.015	0.098
-378.902	-200.000	-0.020	0.100
-377.888	129.361	-0.121	0.154
-376.873	169.871	-0.120	0.171
-375.858	68.703	-0.076	0.077
-374.844	100.439	-0.138	-0.159
-373.829	-200.000	-0.005	-0.192
-372.815	-200.000	-0.035	0.173
-371.800	-25.942	-0.274	-0.161
-370.785	547.892	0.041	-0.098
-369.771	-200.000	-0.226	-0.001
-368.756	380.565	-0.173	0.352
-367.742	-82.898	-0.184	-0.059
-366.727	-120.415	0.266	-0.045
-365.712	-86.544	0.253	-0.077
-364.698	-113.756	-0.084	-0.016
-363.683	452.936	-0.034	-0.074
-362.669	14.156	0.526	-0.408
-361.654	403.877	0.091	-0.190
-360.639	-122.024	0.067	0.011
-359.625	96.978	0.169	-0.193
-358.610	-200.000	-0.025	-0.350
-357.596	34.246	0.250	-0.217
-356.581	-127.011	0.223	-0.033
-355.566	283.795	-0.051	0.091
-354.552	6.741	-0.317	0.235
-353.537	-75.635	-0.392	-0.139
-352.523	-133.850	0.182	-0.023
-351.508	-200.000	-0.024	0.300
-350.493	62.996	0.221	0.220
-349.479	234.709	0.178	0.293
-348.464	87.601	-0.052	0.057
-347.450	175.764	0.143	-0.206
-346.435	-66.369	-0.095	-0.038
-345.420	460.850	0.011	-0.024
-344.406	-200.000	-0.049	0.363
-343.391	22.579	0.136	0.111
-342.377	119.712	0.043	-0.054
-341.362	-200.000	-0.010	-0.329
-340.348	-132.175	0.088	0.011
-339.333	273.557	0.039	0.068
-338.318	-90.527	-0.204	-0.059
-337.304	117.389	0.267	-0.327
-336.289	-173.822	-0.567	0.017
-335.275	30.118	0.170	0.144
-334.260	208.424	0.176	-0.274
-333.245	188.130	0.214	-0.318
-332.231	-121.460	0.152	-0.025
-331.216	-37.206	-0.196	-0.104
-330.202	-42.684	0.228	-0.115
-329.187	274.290	0.266	-0.468
-328.172	-101.000	0.223	-0.054
-327.158	-200.000	0.015	0.078
-326.143	162.420	-0.218	-0.304
-325.129	-75.325	0.346	0.123
-324.114	-200.000	-0.034	-0.270
-323.099	-21.081	-0.192	-0.117
-322.085	453.835	0.093	0.206
-321.070	-190.646	-0.246	0.003
-320.056	-131.966	-0.142	0.018
-319.041	330.345	0.062	0.119
-318.026	76.736	0.215	-0.227
-317.012	-200.000	-0.056	0.260
-315.997	-74.377	-0.157	-0.056
-314.983	-200.000	0.021	0.094
-313.968	152.520	-0.121	-0.164
-312.953	-200.000	0.001	0.136
-311.939	-200.000	0.007	-0.285
-310.924	-133.677	-0.211	-0.026
-309.910	-24.295	0.214	-0.127
-308.895	-143.424	0.240	-0.023
-307.880	63.489	-0.158	0.158
-306.866	-36.377	-0.318	-0.170
-305.851	57.664	-0.139	-0.135
-304.837	-87.394	0.224	0.067
-303.822	800.000	-0.029	-0.086
-302.807	-18.182	0.171	-0.106
-301.793	-189.661	0.237	-0.003
-300.778	-6.942	-0.143	-0.097
-299.764	81.198	0.265	-0.284
-298.749	-105.456	-0.192	-0.043
-297.735	63.563	0.059	0.059
-296.720	632.925	-0.058	0.147
-295.705	427.083	0.027	0.058
-294.691	800.000	0.012	0.034
-293.676	587.877	-0.184	0.449
-292.662	578.767	0.058	0.141
-291.647	-200.000	-0.040	0.264
-290.632	-200.000	-0.060	-0.290
-289.618	800.000	-0.073	-0.230
-288.603	-17.347	0.221	0.138
-287.589	148.916	0.314	0.422
-286.574	-200.000	0.027	-0.253
-285.559	-34.408	0.118	0.064
-284.545	-200.000	-0.019	-0.203
-283.530	606.049	-0.066	0.163
-282.516	800.000	0.033	0.123
-281.501	800.000	0.072	0.286
-280.486	800.000	-0.021	-0.082
-279.472	-65.579	0.134	-0.053
-278.457	398.037	0.208	0.433
-277.443	-200.000	-0.018	0.212
-276.428	-200.000	-0.049	-0.260
-275.413	-93.723	0.337	0.092
-274.399	65.288	0.110	-0.110
-273.384	-194.142	-0.124	0.001
-272.370	-46.509	0.192	-0.093
-271.355	-200.000	-0.018	-0.118
-270.340	-200.000	0.015	-0.079
-269.326	-45.384	0.210	0.103
-268.311	-35.292	0.117	0.063
-267.297	800.000	0.049	-0.170
-266.282	-108.010	0.192	0.041
-265.267	43.796	0.103	-0.094
-264.253	4.426	-0.061	-0.044
-263.238	800.000	0.081	0.281
-262.224	28.593	-0.263	0.220
-261.209	-37.569	0.179	0.095
-260.195	-143.333	-0.324	0.031
-259.180	800.000	0.074	-0.282
-258.165	64.668	-0.116	-0.116
-257.151	665.949	-0.033	-0.085
-256.136	14.191	-0.096	0.074
-255.122	-200.000	0.006	-0.046
-254.107	33.699	-0.155	-0.134
-253.092	529.099	-0.072	0.169
-252.078	188.749	0.164	0.243
-251.063	679.257	0.013	-0.034
-250.049	-147.502	-0.313	0.026
-249.034	578.287	0.061	0.148
-248.019	138.241	0.124	0.161
-247.005	435.872	0.093	-0.200
-245.990	800.000	0.066	-0.260
-244.976	800.000	0.035	-0.108
-243.961	561.751	-0.018	-0.044
-242.946	35.760	0.192	-0.167
-241.932	-200.000	0.059	0.291
-240.917	410.323	0.107	0.225
-239.903	-60.912	0.116	-0.048
-238.888	156.365	0.129	0.177
-237.873	325.763	0.198	0.376
-236.859	489.562	-0.079	0.178
-235.844	800.000	0.109	0.406
-234.830	-200.000	-0.025	-0.133
-233.815	-62.586	-0.093	-0.038
-232.800	-200.000	-0.035	-0.199
-231.786	181.068	-0.054	0.079
-230.771	-200.000	0.038	0.231
-229.757	-73.092	0.327	0.119
-228.742	800.000	0.023	-0.080
-227.727	-200.000	-0.034	0.344
-226.713	-92.781	0.253	0.070
-225.698	29.472	0.385	-0.324
-224.684	15.503	0.135	0.105
-223.669	-51.991	0.189	0.087
-222.655	-32.370	0.138	0.076
-221.640	47.490	-0.135	-0.125
-220.625	225.369	-0.110	-0.176
-219.611	-200.000	-0.039	0.327
-218.596	800.000	-0.036	-0.100
-217.582	121.535	-0.036	-0.045
-216.567	-79.462	0.192	0.064
-215.552	245.931	0.096	0.161
-214.538	255.002	0.054	0.092
-213.523	-200.000	0.011	-0.685
-212.509	-200.000	0.024	-0.274
-211.494	290.971	-0.093	0.168
-210.479	162.800	-0.235	-0.326
-209.465	800.000	-0.088	-0.343
-208.450	380.395	-0.079	0.160
-207.436	143.495	-0.032	0.043
-206.421	-88.329	0.132	-0.039
-205.406	-70.857	0.293	-0.109
-204.392	-200.000	0.001	0.194
-203.377	-71.715	-0.158	0.058
-202.363	-200.000	-0.006	-0.063
-201.348	-131.718	0.028	-0.004
-200.333	-28.802	0.055	-0.031
-199.319	-200.000	-0.004	0.183
-198.304	94.342	-0.206	0.232
-197.290	-137.445	0.032	-0.004
-196.275	-200.000	-0.021	-0.170
-195.260	800.000	-0.017	-0.072
-194.246	-15.456	0.077	-0.049
-193.231	-200.000	-0.043	0.193
-192.217	-94.039	0.036	0.010
-191.202	800.000	0.062	0.221
-190.187	-64.110	-0.175	-0.071
-189.173	-120.494	0.410	0.069
-188.158	38.159	-0.162	0.143
-187.144	179.961	0.200	-0.290
-186.129	-100.367	0.169	0.042
-185.114	401.390	0.134	0.279
-184.100	-58.505	-0.254	-0.109
-183.085	20.714	0.043	-0.035
-182.071	800.000	-0.007	-0.029
-181.056	524.082	0.043	0.101
-180.042	150.834	-0.254	-0.341
-179.027	-7.942	0.254	0.170
-178.012	170.164	-0.033	0.047
-176.998	161.721	-0.087	-0.121
-175.983	385.006	-0.128	0.262
-174.969	-200.000	-0.052	-0.259
-173.954	-63.967	0.074	0.030
-172.939	69.888	-0.210	0.214
-171.925	-200.000	0.022	0.259
-170.910	75.923	-0.070	0.074
-169.896	-200.000	0.009	0.076
-168.881	-131.493	-0.310	-0.040
-167.866	130.975	0.087	-0.110
-166.852	-88.253	-0.329	0.097
-165.837	-200.000	-0.029	0.181
-164.823	-156.335	0.193	-0.012
-163.808	-97.207	0.355	0.092
-162.793	132.165	-0.038	0.049
-161.779	800.000	0.085	0.283
-160.764	200.954	-0.187	-0.284
-159.750	-36.840	-0.230	-0.122
-158.735	234.742	-0.184	-0.300
-157.720	83.364	-0.189	0.203
-156.706	-36.305	0.285	-0.152
-155.691	82.484	-0.003	-0.003
-154.677	-200.000	-0.010	0.057
-153.662	367.420	-0.152	-0.304
-152.647	-64.914	-0.283	-0.113
-151.633	120.221	0.067	-0.082
-150.618	-183.696	0.243	0.004
-149.604	765.138	-0.120	0.322
-148.589	-200.000	0.015	0.260
-147.574	-22.123	-0.204	-0.122
-146.560	-52.594	0.164	-0.075
-145.545	-166.842	-0.499	0.020
-144.531	80.197	0.105	0.111
-143.516	-75.926	0.112	0.039
-142.502	-90.400	-0.189	-0.054
-141.487	800.000	0.082	0.281
-140.472	283.721	-0.058	-0.103
-139.458	721.546	0.096	-0.252
-138.443	-58.399	0.149	0.064
-137.429	63.382	0.026	-0.026
-136.414	-200.000	0.037	0.166
-135.399	99.705	0.080	-0.092
-134.385	-200.000	0.004	-0.146
-133.370	171.653	-0.143	-0.202
-132.356	-81.500	0.300	-0.097
-131.341	800.000	0.047	0.189
-130.326	37.889	-0.117	-0.102
-129.312	-168.235	0.073	0.003
-128.297	-63.199	0.169	0.069
-127.283	420.022	0.124	-0.261
-126.268	729.073	0.079	0.209
-125.253	-43.726	0.319	-0.158
-124.239	-123.749	-0.384	-0.060
-123.224	-200.000	0.004	0.117
-122.210	18.653	-0.221	0.175
-121.195	800.000	0.052	-0.217
-120.180	161.102	-0.141	0.195
-119.166	-200.000	0.013	0.056
-118.151	-50.161	0.354	-0.165
-117.137	800.000	0.050	-0.175
-116.122	235.098	0.150	0.244
-115.107	-200.000	-0.003	0.103
-114.093	596.797	0.063	0.153
-113.078	-17.233	0.244	0.152
-112.064	419.657	-0.158	-0.333
-111.049	-21.076	0.413	0.249
-110.034	131.403	0.175	0.222
-109.020	368.851	0.137	0.274
-108.005	-83.835	0.239	-0.075
-106.991	-26.747	0.114	-0.066
-105.976	81.568	0.279	0.298
-104.962	-200.000	-0.051	0.237
-103.947	800.000	-0.082	0.265
-102.932	-29.646	-0.109	-0.061
-101.918	-7.516	0.321	-0.214
-100.903	800.000	0.091	-0.332
-99.889	10.428	0.083	-0.062
-98.874	800.000	-0.057	0.178
-97.859	171.591	0.053	-0.075
-96.845	203.932	0.158	0.242
-95.830	422.287	0.107	0.226
-94.816	800.000	0.177	-0.518
-93.801	-32.698	0.109	-0.060
-92.786	-133.801	-0.401	0.049
-91.772	33.538	0.251	-0.215
-90.757	-68.852	-0.310	0.118
-89.743	214.444	0.200	0.311
-88.728	-200.000	-0.030	-0.186
-87.713	288.624	0.078	0.139
-86.699	-200.000	0.012	0.074
-85.684	-60.231	-0.148	-0.062
-84.670	110.995	-0.103	-0.122
-83.655	-29.895	0.221	0.124
-82.640	-74.706	0.113	0.040
-81.626	-60.061	0.293	0.123
-80.611	-38.675	-0.155	0.081
-79.597	-102.637	0.251	-0.059
-78.582	249.188	0.080	0.133
-77.567	-81.708	0.187	0.060
-76.553	139.840	-0.129	-0.167
-75.538	-80.693	0.132	-0.043
-74.524	416.094	0.037	-0.079
-73.509	212.846	0.147	0.228
-72.494	-200.000	-0.039	0.232
-71.480	97.992	0.184	-0.208
-70.465	800.000	0.092	0.371
-69.451	-200.000	0.014	0.296
-68.436	95.044	-0.067	0.075
-67.422	737.762	-0.118	0.312
-66.407	800.000	-0.146	-0.406
-65.392	194.581	0.103	0.154
-64.378	-78.105	-0.114	0.039
-63.363	-84.705	0.289	-0.090
-62.349	131.235	-0.080	0.101
-61.334	240.214	-0.531	-0.871
-60.319	75.571	0.564	0.586
-59.305	-200.000	-0.234	-1.017
-58.290	800.000	0.365	1.195
-57.276	296.665	0.868	1.566
-56.261	-200.000	97.749	583.745
-55.246	663.603	1387.603	3521.861
-54.232	190.771	2595.625	3839.349
-53.217	118.340	2289.986	2778.987
-52.203	44.848	1905.430	1725.080
-51.188	38.265	1694.472	1484.258
-50.173	35.473	1649.495	1424.121
-49.159	53.237	1698.194	1600.186
-48.144	56.693	1716.241	1643.098
-47.130	38.003	1672.461	1462.776
-46.115	35.040	1657.256	1427.364
-45.100	34.789	1652.748	1421.563
-44.086	34.907	1649.277	1419.394
-43.071	34.896	1646.828	1417.150
-42.057	34.840	1644.545	1414.717
-41.042	34.816	1642.651	1412.850
-40.027	34.870	1640.605	1411.431
-39.013	34.801	1638.244	1408.837
-37.998	34.793	1636.686	1407.382
-36.984	34.880	1635.355	1406.823
-35.969	34.968	1633.952	1406.209
-34.954	35.059	1631.815	1404.982
-33.940	34.918	1630.946	1403.143
-32.925	34.932	1628.909	1401.434
-31.911	34.937	1627.224	1399.971
-30.896	34.781	1626.094	1397.798
-29.881	34.849	1623.906	1396.361
-28.867	34.923	1622.112	1395.299
-27.852	34.918	1620.708	1394.006
-26.838	34.913	1619.446	1392.822
-25.823	34.905	1617.728	1391.234
-24.809	34.932	1616.479	1390.302
-23.794	34.963	1614.507	1388.778
-22.779	34.955	1613.925	1388.163
-21.765	34.960	1611.868	1386.370
-20.750	35.046	1610.094	1385.414
-19.736	35.004	1608.302	1383.512
-18.721	34.971	1607.444	1382.486
-17.706	34.948	1605.650	1380.718
-16.692	34.959	1603.581	1378.968
-15.677	34.998	1602.375	1378.153
-14.663	34.944	1601.413	1376.885
-13.648	34.979	1600.227	1376.057
-12.633	34.950	1598.679	1374.466
-11.619	34.968	1597.169	1373.241
-10.604	35.007	1595.231	1371.805
-9.590	35.020	1594.167	1370.928
-8.575	34.977	1593.344	1369.853
-7.560	35.004	1591.721	1368.595
-6.546	35.013	1590.207	1367.306
-5.531	34.943	1589.692	1366.308
-4.517	34.967	1588.336	1365.262
-3.502	34.996	1587.224	1364.457
-2.487	35.023	1585.783	1363.357
-1.473	34.685	1573.913	1350.706
-0.458	31.588	1554.351	1312.197
0.556	28.052	1553.914	1276.308
1.571	25.468	1576.788	1276.649
2.586	24.716	1590.831	1282.510
3.600	21.829	1537.666	1219.495
4.615	13.335	1428.128	1077.425
5.629	6.117	1363.699	983.685
6.644	4.967	1355.792	970.735
7.659	4.942	1353.858	969.108
8.673	4.742	1353.045	967.202
9.688	4.830	1351.748	966.733
10.702	4.726	1349.514	964.404
11.717	7.963	1355.162	988.473
12.731	15.808	1368.950	1047.456
13.746	20.525	1375.814	1082.058
14.761	20.081	1374.067	1077.828
15.775	19.091	1371.355	1069.452
16.790	17.969	1368.516	1060.183
17.804	17.100	1366.617	1053.234
18.819	16.755	1365.132	1049.855
19.834	16.523	1363.357	1046.962
20.848	16.197	1362.970	1044.551
21.863	16.056	1361.338	1042.340
22.877	15.891	1360.474	1040.563
23.892	15.848	1359.358	1039.351
24.907	15.851	1358.716	1038.788
25.921	15.867	1357.673	1037.998
26.936	15.953	1356.112	1037.241
27.950	15.942	1355.920	1036.938
28.965	16.074	1354.413	1036.507
29.980	16.042	1353.783	1035.733
30.994	16.182	1352.394	1035.438
32.009	16.338	1350.954	1035.204
33.023	16.301	1350.103	1034.228
34.038	16.061	1348.916	1031.763
35.053	16.157	1347.540	1031.203
36.067	16.106	1346.299	1029.855
37.082	16.092	1345.898	1029.371
38.096	16.136	1344.457	1028.442
39.111	16.243	1343.856	1028.544
40.126	16.036	1342.922	1026.481
41.140	15.780	1342.359	1024.400
42.155	15.857	1341.664	1024.247
43.169	15.779	1341.222	1023.345
44.184	15.875	1341.002	1023.669
45.199	15.835	1340.790	1023.173
46.213	15.985	1340.045	1023.423
47.228	16.033	1339.298	1023.054
48.242	15.989	1338.545	1022.122
49.257	15.985	1336.613	1020.532
50.271	15.947	1335.307	1019.215
51.286	15.956	1334.569	1018.619
52.301	15.945	1333.334	1017.516
53.315	15.958	1332.027	1016.511
54.330	15.895	1330.763	1015.073
55.344	15.871	1328.967	1013.472
56.359	15.872	1328.304	1012.878
57.374	15.871	1327.369	1012.073
58.388	15.748	1327.044	1010.994
59.403	15.624	1326.624	1009.839
60.417	15.709	1325.814	1009.644
61.432	15.721	1324.796	1008.852
62.447	15.600	1324.046	1007.468
63.461	15.648	1322.257	1006.302
64.476	15.729	1321.418	1006.061
65.490	15.583	1320.342	1004.279
66.505	15.569	1318.985	1003.077
67.520	15.694	1317.209	1002.381
68.534	15.706	1316.567	1001.873
69.549	15.799	1315.116	1001.238
70.563	15.807	1313.666	1000.093
71.578	15.590	1313.136	998.310
72.593	15.610	1311.898	997.399
73.607	15.518	1311.488	996.452
74.622	15.557	1310.831	996.100
75.636	15.543	1310.363	995.570
76.651	15.613	1309.200	995.011
77.666	15.619	1308.983	994.798
78.680	15.528	1308.826	994.052
79.695	15.669	1307.702	993.943
80.709	15.727	1307.018	993.677
81.724	15.798	1306.290	993.456
82.739	15.820	1305.183	992.655
83.753	15.979	1304.132	992.702
84.768	16.073	1303.103	992.386
85.782	16.113	1302.249	991.886
86.797	16.081	1301.077	990.718
87.812	16.056	1299.506	989.284
88.826	15.980	1298.679	988.124
89.841	15.894	1297.752	986.825
90.855	16.096	1296.757	987.166
91.870	16.046	1296.369	986.490
92.884	16.029	1295.260	985.456
93.899	16.078	1294.451	985.044
94.914	16.198	1293.729	985.107
95.928	16.238	1292.633	984.418
96.943	16.098	1291.767	982.855
97.957	16.124	1290.767	982.157
98.972	16.074	1289.956	981.162
99.987	16.133	1288.852	980.582
101.001	16.085	1288.110	979.653
102.016	15.978	1287.306	978.328
103.030	16.107	1286.096	978.073
104.045	16.122	1285.162	977.365
105.060	16.022	1283.833	975.687
106.074	15.924	1282.806	974.253
107.089	15.814	1281.181	972.296
108.103	15.757	1280.192	971.131
109.118	15.779	1278.312	969.745
110.133	15.635	1277.624	968.307
111.147	15.846	1276.130	968.306
112.162	15.813	1274.840	967.049
113.176	15.845	1274.032	966.539
114.191	15.822	1273.377	965.822
115.206	15.810	1271.766	964.444
116.220	15.869	1270.306	963.593
117.235	15.833	1269.208	962.465
118.249	15.859	1268.116	961.703
119.264	15.794	1267.242	960.585
120.279	15.816	1265.848	959.569
121.293	15.741	1265.095	958.487
122.308	15.692	1264.143	957.399
123.322	15.620	1263.029	956.059
124.337	15.590	1262.044	955.062
125.352	15.677	1260.858	954.571
126.366	15.687	1259.689	953.658
127.381	15.728	1258.370	952.810
128.395	15.638	1257.834	951.809
129.410	15.745	1256.847	951.585
130.424	15.784	1256.556	951.499
131.439	15.686	1255.574	950.117
132.454	15.844	1254.075	949.789
133.468	15.881	1253.476	949.460
134.483	15.934	1252.739	949.116
135.497	15.869	1251.745	947.915
136.512	15.762	1250.683	946.425
137.527	15.909	1249.069	945.944
138.541	15.966	1247.822	945.236
139.556	15.922	1247.055	944.325
140.570	16.021	1245.789	943.839
141.585	16.174	1244.461	943.603
142.600	16.114	1243.324	942.324
143.614	16.108	1242.736	941.762
144.629	16.179	1241.307	940.989
145.643	16.151	1240.321	940.004
146.658	16.222	1238.785	939.151
147.673	16.036	1237.378	936.970
148.687	15.982	1236.423	935.862
149.702	15.996	1235.155	934.901
150.716	15.951	1233.824	933.560
151.731	15.882	1233.065	932.520
152.746	15.902	1232.043	931.777
153.760	15.975	1230.717	931.096
154.775	16.026	1229.868	930.650
155.789	16.072	1228.373	929.693
156.804	16.163	1227.285	929.286
157.819	16.109	1226.751	928.505
158.833	16.131	1225.966	927.948
159.848	16.216	1224.764	927.423
160.862	16.230	1224.122	926.932
161.877	16.182	1222.480	925.343
162.892	16.049	1221.792	924.009
163.906	15.947	1220.928	922.717
164.921	15.990	1220.044	922.200
165.935	16.159	1219.073	922.311
166.950	16.126	1218.275	921.444
167.964	16.044	1217.904	920.635
168.979	16.001	1217.116	919.726
169.994	16.125	1216.318	919.714
171.008	16.107	1215.596	918.989
172.023	16.180	1214.889	918.774
173.037	16.243	1214.215	918.525
174.052	16.204	1213.039	917.342
175.067	16.060	1212.280	915.904
176.081	16.112	1210.981	915.124
177.096	16.155	1209.633	914.257
178.110	16.186	1208.458	913.454
179.125	16.159	1208.090	912.948
180.140	16.248	1206.278	911.981
181.154	16.212	1205.417	911.054
182.169	16.344	1204.286	910.831
183.183	16.403	1202.828	909.965
184.198	16.480	1201.807	909.525
185.213	16.360	1200.982	908.175
186.227	16.393	1199.815	907.392
187.242	16.393	1199.341	906.955
188.256	16.471	1198.185	906.418
189.271	16.517	1196.847	905.573
190.286	16.300	1195.998	903.689
191.300	16.170	1194.621	901.871
192.315	16.009	1194.365	900.738
193.329	16.076	1193.703	900.515
194.344	16.094	1193.157	900.119
195.359	16.304	1192.232	900.467
196.373	16.395	1191.904	900.619
197.388	16.427	1191.665	900.533
198.402	16.521	1191.338	900.703
199.417	16.520	1190.895	900.287
200.432	16.667	1189.477	899.917
201.446	16.753	1189.050	899.969
202.461	16.757	1188.223	899.285
203.475	16.668	1187.204	897.963
204.490	16.631	1185.893	896.694
205.504	16.580	1184.429	895.239
206.519	16.648	1183.225	894.608
207.534	16.588	1181.941	893.242
208.548	16.623	1181.504	893.020
209.563	16.619	1180.666	892.285
210.577	16.552	1179.525	890.992
211.592	16.645	1178.953	890.971
212.607	16.729	1178.451	890.956
213.621	16.814	1177.335	890.479
214.636	16.647	1176.383	888.802
215.650	16.793	1175.467	888.795
216.665	16.622	1174.869	887.368
217.680	16.860	1174.015	887.894
218.694	16.923	1172.917	887.314
219.709	16.860	1172.282	886.427
220.723	16.857	1171.570	885.794
221.738	16.900	1170.328	884.998
222.753	16.999	1169.477	884.793
223.767	16.802	1169.480	883.688
224.782	16.981	1168.858	884.078
225.796	17.050	1167.895	883.631
226.811	17.094	1167.314	883.339
227.826	16.931	1166.355	881.689
228.840	16.905	1166.080	881.268
229.855	16.913	1165.004	880.416
230.869	16.943	1164.025	879.756
231.884	17.070	1163.113	879.646
232.899	17.002	1162.380	878.663
233.913	16.812	1162.029	877.335
234.928	16.928	1160.966	877.054
235.942	16.801	1160.316	875.830
236.957	16.833	1160.147	875.793
237.972	16.740	1159.463	874.714
238.986	16.802	1158.592	874.299
240.001	16.889	1157.482	873.834
241.015	16.852	1157.133	873.303
242.030	17.019	1155.930	873.179
243.045	17.038	1155.199	872.645
244.059	16.999	1154.409	871.769
245.074	17.054	1153.672	871.422
246.088	17.025	1153.032	870.713
247.103	17.110	1152.611	870.752
248.117	17.184	1151.600	870.292
249.132	17.374	1150.784	870.568
250.147	17.363	1150.584	870.287
251.161	17.451	1149.903	870.143
252.176	17.492	1148.970	869.569
253.190	17.432	1148.503	868.832
254.205	17.650	1147.815	869.345
255.220	17.689	1146.982	868.837
256.234	17.498	1146.617	867.512
257.249	17.503	1145.977	866.975
258.263	17.590	1145.357	866.875
259.278	17.576	1144.552	866.114
260.293	17.660	1143.737	865.848
261.307	17.687	1143.341	865.610
262.322	17.657	1142.856	865.013
263.336	17.659	1142.044	864.331
264.351	17.701	1141.448	864.019
265.366	17.772	1140.630	863.684
266.380	17.695	1140.326	862.984
267.395	17.600	1139.088	861.494
268.409	17.742	1138.373	861.591
269.424	17.685	1137.619	860.656
270.439	17.711	1137.073	860.299
271.453	17.595	1136.522	859.223
272.468	17.620	1135.306	858.351
273.482	17.576	1134.837	857.699
274.497	17.610	1134.530	857.562
275.512	17.652	1133.457	856.888
276.526	17.681	1132.896	856.535
277.541	17.717	1131.825	855.829
278.555	17.673	1131.426	855.231
279.570	17.886	1130.535	855.552
280.585	17.991	1129.428	855.164
281.599	17.999	1129.117	854.893
282.614	17.872	1128.201	853.488
283.628	17.736	1127.515	852.212
284.643	17.741	1126.318	851.258
285.657	17.801	1125.358	850.755
286.672	17.706	1124.683	849.699
287.687	17.872	1123.623	849.647
288.701	17.805	1122.639	848.494
289.716	17.859	1122.066	848.256
290.730	17.837	1121.288	847.483
291.745	17.896	1120.938	847.436
292.760	18.065	1119.625	847.207
293.774	17.967	1119.560	846.596
294.789	18.010	1119.183	846.449
295.803	18.153	1118.056	846.229
296.818	18.034	1117.571	845.198
297.833	17.907	1116.931	844.014
298.847	17.955	1115.886	843.386
299.862	18.070	1115.205	843.363
300.876	18.111	1113.932	842.528
301.891	18.040	1113.696	841.926
302.906	18.121	1113.118	841.811
303.920	18.246	1112.422	841.827
304.935	18.254	1111.814	841.330
305.949	18.272	1111.635	841.211
306.964	18.400	1110.460	840.877
307.979	18.233	1109.694	839.401
308.993	18.340	1108.809	839.181
310.008	18.286	1108.467	838.582
311.022	18.296	1107.689	837.968
312.037	18.323	1106.975	837.488
313.052	18.228	1105.788	836.053
314.066	18.263	1104.523	835.191
315.081	18.123	1103.682	833.798
316.095	18.133	1103.125	833.352
317.110	17.964	1102.491	831.979
318.125	18.105	1101.706	831.999
319.139	18.010	1101.160	831.052
320.154	18.155	1100.404	831.111
321.168	18.136	1099.668	830.389
322.183	18.196	1099.067	830.151
323.197	18.309	1098.165	829.944
324.212	18.344	1097.805	829.772
325.227	18.354	1097.190	829.283
326.241	18.237	1096.845	828.382
327.256	18.292	1096.047	827.968
328.270	18.293	1095.033	827.134
329.285	18.221	1094.189	826.076
330.300	18.306	1092.992	825.509
331.314	18.365	1092.340	825.230
332.329	18.283	1091.099	823.823
333.343	18.323	1090.745	823.677
334.358	18.310	1090.108	823.058
335.373	18.499	1089.250	823.244
336.387	18.527	1088.526	822.759
337.402	18.477	1087.865	821.951
338.416	18.540	1086.989	821.515
339.431	18.518	1086.446	820.928
340.446	18.635	1086.156	821.197
341.460	18.670	1085.391	820.711
342.475	18.776	1084.671	820.599
343.489	18.803	1083.824	820.017
344.504	18.898	1082.306	819.249
345.519	18.782	1082.133	818.491
346.533	18.806	1081.087	817.742
347.548	18.902	1080.505	817.688
348.562	18.792	1079.796	816.557
349.577	18.834	1078.930	816.029
350.592	18.746	1078.228	815.005
351.606	18.513	1077.649	813.392
352.621	18.644	1076.725	813.243
353.635	18.520	1076.227	812.211
354.650	18.695	1075.195	812.185
355.665	18.679	1074.830	811.765
356.679	18.677	1074.054	811.094
357.694	18.732	1073.781	811.076
358.708	18.807	1072.722	810.561
359.723	18.820	1072.146	810.112
360.738	18.782	1071.774	809.583
361.752	18.816	1071.293	809.308
362.767	18.902	1070.568	809.094
363.781	18.844	1069.772	808.144
364.796	19.015	1069.201	808.448
365.810	19.068	1068.434	808.046
366.825	19.097	1068.043	807.814
367.840	19.213	1067.534	807.901
368.854	19.301	1066.704	807.616
369.869	19.125	1066.454	806.529
370.883	19.164	1065.267	805.741
371.898	19.044	1064.757	804.723
372.913	19.162	1063.942	804.590
373.927	19.158	1063.674	804.298
374.942	19.275	1063.054	804.303
375.956	19.298	1062.683	804.056
376.971	19.169	1062.237	803.046
377.986	19.236	1061.794	802.955
379.000	19.334	1061.157	802.858
380.015	19.356	1060.651	802.504
381.029	19.585	1059.291	802.469
382.044	19.345	1059.171	801.193
383.059	19.356	1058.344	800.546
384.073	19.485	1057.271	800.263
385.088	19.430	1056.661	799.474
386.102	19.442	1055.716	798.747
387.117	19.457	1054.204	797.601
388.132	19.336	1053.677	796.572
389.146	19.315	1052.884	795.805
390.161	19.288	1052.251	795.130
391.175	19.354	1051.636	794.902
392.190	19.414	1051.372	794.909
393.205	19.515	1050.518	794.658
394.219	19.379	1049.912	793.502
395.234	19.366	1049.284	792.896
396.248	19.296	1048.032	791.560
397.263	19.444	1046.939	791.345
398.278	19.228	1046.315	789.811
399.292	19.256	1045.872	789.536
400.307	19.275	1044.876	788.799
401.321	19.371	1044.314	788.745
402.336	19.217	1043.680	787.491
403.350	19.254	1042.997	787.077
404.365	19.348	1042.268	786.886
405.380	19.266	1041.720	786.030
406.394	19.379	1040.872	785.835
407.409	19.618	1039.975	786.174
408.423	19.548	1039.176	785.182
409.438	19.656	1038.745	785.279
410.453	19.729	1038.160	785.097
411.467	19.751	1037.513	784.642
412.482	19.902	1036.441	784.446
413.496	19.863	1036.087	783.929
414.511	19.970	1035.289	783.743
415.526	19.902	1035.009	783.154
416.540	19.887	1034.474	782.609
417.555	19.901	1034.213	782.405
418.569	19.972	1033.562	782.165
419.584	19.814	1033.379	781.246
420.599	19.919	1032.587	781.053
421.613	152.083	1399.617	1791.720
422.628	138.893	1453.090	1791.811
