DTS Sentinel unit serial number:	SN413079Multiplexer serial number:	ORYXHardware model number:	OX4-SRSoftware version number:	ORYX F/W v4.00 Oryx Data Collector v3.7.2.0data status	okinstallation	princeton_trtdifferential loss correction	single-endedforward channel	channel 2reverse channel	N/Adate	2019/09/11time	21:01:11forward acquisition time	60.00reverse acquisition time	0.00gamma	496.2192k internal	0.2322k external	0.2322temperature offset calibration	1.0060default loss term (dB/km)	0.3790temperature slope calibration	1.0000multiplexer offset coefficient	1.0000multiplexer slope coefficient	1.0000fibre end	0.00T internal ref (°C)	36.67T ext. ref 1 (°C)	1.62T ext. ref 2 (°C)	30.77length (m)	temperature (°C)	Stokes	anti-Stokes-747.200	273.835	-0.100	-0.179
-746.185	800.000	0.096	0.342
-745.171	-114.369	0.128	-0.025
-744.156	-200.000	-0.031	0.216
-743.142	294.484	-0.063	-0.116
-742.127	610.725	-0.232	0.587
-741.112	-147.731	-0.174	0.015
-740.098	280.364	-0.102	-0.184
-739.083	-35.469	-0.049	0.027
-738.069	-200.000	-0.011	-0.114
-737.054	-138.788	-0.375	0.041
-736.039	-142.030	-0.137	-0.014
-735.025	-200.000	0.011	-0.067
-734.010	-142.553	0.210	0.021
-732.996	800.000	-0.152	-0.631
-731.981	-102.384	-0.048	0.012
-730.966	38.138	-0.262	0.235
-729.952	173.062	-0.310	-0.451
-728.937	-200.000	-0.014	-0.066
-727.923	-200.000	-0.022	-0.139
-726.908	19.830	-0.203	0.165
-725.894	-15.351	0.094	-0.061
-724.879	800.000	0.052	-0.220
-723.864	-24.235	-0.238	0.143
-722.850	242.902	0.133	0.224
-721.835	251.070	-0.127	0.217
-720.821	334.796	-0.069	0.135
-719.806	54.173	-0.107	-0.104
-718.791	-78.877	-0.376	-0.129
-717.777	800.000	-0.065	0.233
-716.762	-145.602	-0.309	-0.028
-715.748	-165.090	-0.285	-0.013
-714.733	-38.720	-0.183	-0.098
-713.718	148.356	-0.034	0.046
-712.704	-134.499	0.120	-0.015
-711.689	-200.000	-0.031	-0.433
-710.675	50.734	-0.278	0.266
-709.660	-200.000	-0.025	-0.264
-708.645	800.000	0.070	-0.283
-707.631	800.000	-0.091	-0.308
-706.616	350.927	0.165	0.329
-705.602	800.000	-0.105	-0.405
-704.587	-19.548	0.120	0.075
-703.572	-200.000	0.015	0.258
-702.558	424.284	0.081	-0.177
-701.543	114.270	-0.076	-0.093
-700.529	-200.000	-0.004	-0.022
-699.514	-1.134	-0.162	0.116
-698.499	-13.026	0.008	0.006
-697.485	335.011	-0.115	-0.225
-696.470	-38.408	-0.093	-0.050
-695.456	-200.000	-0.057	-0.284
-694.441	60.002	0.217	0.216
-693.426	-5.908	0.178	-0.123
-692.412	-98.744	0.148	0.038
-691.397	-154.180	-0.152	-0.010
-690.383	-103.330	-0.293	-0.070
-689.368	33.726	0.408	0.357
-688.354	-21.890	-0.369	-0.226
-687.339	95.236	-0.309	-0.355
-686.324	-138.925	-0.410	-0.045
-685.310	37.076	-0.229	0.205
-684.295	2.637	0.184	-0.134
-683.281	-84.068	0.256	-0.082
-682.266	545.122	0.015	0.035
-681.251	-115.039	-0.174	-0.033
-680.237	647.200	-0.138	0.355
-679.222	-62.011	0.121	0.051
-678.208	646.517	0.053	-0.136
-677.193	-9.458	-0.080	-0.054
-676.178	434.581	-0.059	0.129
-675.164	-35.269	0.156	-0.085
-674.149	-46.908	-0.288	0.142
-673.135	62.861	-0.053	0.054
-672.120	800.000	-0.058	-0.174
-671.105	-200.000	0.011	-0.268
-670.091	-62.396	-0.136	0.057
-669.076	-200.000	0.091	-0.512
-668.062	-200.000	-0.047	0.268
-667.047	499.406	-0.066	-0.154
-666.032	326.839	-0.123	-0.237
-665.018	450.358	-0.041	0.092
-664.003	543.229	0.078	0.187
-662.989	-96.761	-0.249	-0.066
-661.974	-200.000	-0.001	0.086
-660.959	800.000	-0.045	-0.182
-659.945	201.455	0.041	-0.064
-658.930	-41.607	-0.346	-0.179
-657.916	-71.604	0.118	-0.044
-656.901	-42.628	-0.129	0.066
-655.886	-137.493	-0.240	-0.027
-654.872	-18.262	0.184	-0.116
-653.857	391.483	-0.126	0.264
-652.843	364.561	-0.051	0.104
-651.828	-21.221	0.197	0.121
-650.814	-101.960	0.330	-0.080
-649.799	91.616	-0.101	-0.115
-648.784	-200.000	-0.019	0.521
-647.770	-99.860	0.112	0.028
-646.755	-200.000	-0.031	0.251
-645.741	-138.011	0.064	-0.007
-644.726	-147.572	-0.240	0.020
-643.711	-174.826	0.060	-0.002
-642.697	-80.513	0.150	-0.050
-641.682	-36.644	-0.315	0.170
-640.668	265.558	0.184	-0.323
-639.653	-36.679	0.222	-0.120
-638.638	131.236	0.155	-0.201
-637.624	32.074	-0.200	-0.174
-636.609	395.148	-0.055	-0.115
-635.595	-5.077	0.282	-0.195
-634.580	295.118	0.059	0.108
-633.565	-104.423	-0.234	-0.054
-632.551	307.943	0.090	-0.168
-631.536	-96.634	0.365	-0.097
-630.522	-6.133	-0.108	0.074
-629.507	-200.000	-0.021	0.232
-628.492	77.483	-0.100	-0.106
-627.478	-72.365	-0.576	-0.215
-626.463	-117.267	-0.339	-0.062
-625.449	252.244	0.035	-0.060
-624.434	51.652	-0.142	0.136
-623.419	306.287	0.094	-0.176
-622.405	343.973	-0.094	0.185
-621.390	56.266	0.214	-0.209
-620.376	-200.000	0.019	-0.499
-619.361	27.757	-0.126	-0.107
-618.346	-156.727	0.072	-0.004
-617.332	98.551	-0.061	0.071
-616.317	413.821	0.061	0.130
-615.303	800.000	-0.045	-0.189
-614.288	-56.473	-0.080	0.036
-613.273	-21.642	0.172	0.105
-612.259	-200.000	-0.000	-0.152
-611.244	94.386	0.065	-0.075
-610.230	169.912	-0.142	0.204
-609.215	15.469	-0.171	-0.135
-608.201	-105.334	0.341	-0.078
-607.186	-67.877	-0.112	-0.044
-606.171	55.579	0.224	-0.218
-605.157	76.961	-0.263	0.281
-604.142	-62.803	-0.391	0.163
-603.128	-200.000	-0.012	-0.061
-602.113	139.172	0.116	-0.153
-601.098	-200.000	0.031	-0.270
-600.084	81.400	-0.204	0.221
-599.069	-200.000	0.046	0.651
-598.055	-200.000	0.012	0.564
-597.040	-107.074	-0.193	-0.043
-596.025	-200.000	-0.022	-0.159
-595.011	132.396	0.191	-0.248
-593.996	-138.835	0.142	0.016
-592.982	58.149	-0.150	0.147
-591.967	-88.979	0.501	0.149
-590.952	204.792	-0.070	-0.109
-589.938	194.667	-0.209	-0.318
-588.923	336.193	0.104	-0.202
-587.909	9.414	-0.088	-0.067
-586.894	-200.000	0.011	-0.130
-585.879	-147.774	-0.120	0.010
-584.865	-82.771	-0.136	0.044
-583.850	-190.665	-0.070	-0.001
-582.836	321.725	0.119	-0.226
-581.821	15.170	-0.229	0.180
-580.806	147.703	0.091	0.124
-579.792	125.601	-0.084	0.106
-578.777	-200.000	0.017	0.170
-577.763	-200.000	0.114	0.603
-576.748	783.098	0.078	0.215
-575.733	48.244	-0.204	-0.191
-574.719	-49.519	0.156	-0.075
-573.704	-200.000	-0.040	-0.346
-572.690	-200.000	-0.015	-0.512
-571.675	800.000	0.045	-0.172
-570.661	-10.088	-0.075	-0.050
-569.646	-62.372	0.062	0.026
-568.631	-200.000	0.052	0.319
-567.617	-81.000	0.259	-0.086
-566.602	293.965	-0.134	-0.245
-565.588	800.000	-0.045	-0.139
-564.573	17.544	0.238	-0.189
-563.558	-200.000	-0.092	0.417
-562.544	534.734	0.103	0.246
-561.529	453.463	0.133	0.295
-560.515	-68.776	-0.288	0.111
-559.500	-200.000	0.006	-0.092
-558.485	151.429	-0.413	-0.563
-557.471	-93.511	-0.365	-0.101
-556.456	-167.920	0.115	0.005
-555.442	-50.028	0.128	-0.061
-554.427	-200.000	-0.020	0.112
-553.412	-200.000	-0.019	-0.279
-552.398	285.945	-0.125	-0.225
-551.383	-128.345	-0.057	-0.008
-550.369	-181.937	0.183	0.003
-549.354	9.131	-0.180	0.137
-548.339	56.109	-0.067	0.066
-547.325	-200.000	0.016	-0.207
-546.310	-43.318	-0.119	-0.060
-545.296	-15.695	0.192	0.123
-544.281	-200.000	-0.047	-0.310
-543.266	-200.000	-0.048	-0.220
-542.252	-142.469	-0.183	0.018
-541.237	203.340	-0.016	-0.026
-540.223	439.120	-0.139	0.304
-539.208	-200.000	-0.039	-0.195
-538.193	142.844	-0.227	-0.303
-537.179	483.354	-0.107	-0.244
-536.164	404.205	-0.151	-0.318
-535.150	-2.346	-0.157	0.110
-534.135	-49.308	-0.248	0.119
-533.121	71.525	-0.118	-0.123
-532.106	-5.343	0.156	-0.107
-531.091	80.447	0.224	0.242
-530.077	800.000	-0.070	-0.298
-529.062	-200.000	0.103	-0.544
-528.048	-107.877	0.068	0.015
-527.033	-99.353	0.486	-0.123
-526.018	800.000	-0.035	-0.138
-525.004	88.062	-0.042	-0.046
-523.989	-98.215	-0.043	0.011
-522.975	132.903	0.110	0.142
-521.960	-74.956	0.171	0.061
-520.945	-119.347	-0.136	-0.024
-519.931	71.416	0.148	-0.154
-518.916	133.635	-0.183	0.237
-517.902	-137.180	-0.124	-0.014
-516.887	-28.648	0.359	-0.207
-515.872	44.163	-0.062	-0.057
-514.858	-27.897	-0.222	-0.129
-513.843	321.969	0.201	0.382
-512.829	-114.116	-0.250	-0.048
-511.814	-175.143	-0.169	0.005
-510.799	-97.665	0.129	0.033
-509.785	-200.000	-0.039	0.331
-508.770	-164.021	0.210	0.010
-507.756	166.854	0.097	-0.138
-506.741	-37.394	-0.185	0.099
-505.726	-50.036	0.180	-0.085
-504.712	-200.000	0.041	-0.237
-503.697	65.294	-0.182	-0.184
-502.683	-200.000	-0.002	0.075
-501.668	-67.412	-0.373	0.147
-500.653	-42.047	-0.191	-0.098
-499.639	-128.193	0.127	0.018
-498.624	-200.000	-0.045	-0.253
-497.610	31.960	-0.260	-0.224
-496.595	-200.000	-0.018	0.150
-495.581	-200.000	0.019	-0.304
-494.566	-133.480	-0.092	-0.012
-493.551	-114.045	0.340	0.066
-492.537	48.862	-0.147	-0.138
-491.522	133.303	-0.175	0.226
-490.508	98.166	-0.255	0.294
-489.493	-105.783	0.042	-0.010
-488.478	-82.344	0.194	-0.063
-487.464	-49.293	0.228	0.109
-486.449	207.419	-0.085	-0.133
-485.435	-200.000	-0.019	0.103
-484.420	31.048	0.054	0.046
-483.405	-10.523	0.258	-0.171
-482.391	135.825	-0.177	-0.230
-481.376	-103.776	0.285	0.067
-480.362	800.000	0.031	0.102
-479.347	-135.487	0.264	-0.032
-478.332	414.611	-0.062	-0.132
-477.318	-200.000	-0.006	0.042
-476.303	7.414	0.132	-0.098
-475.289	800.000	-0.023	0.073
-474.274	-59.034	-0.456	0.197
-473.259	226.157	-0.232	-0.377
-472.245	-131.034	0.315	-0.042
-471.230	326.984	0.193	0.370
-470.216	1.601	-0.035	-0.025
-469.201	-200.000	-0.010	-0.199
-468.186	-114.169	0.522	-0.101
-467.172	-200.000	0.045	0.307
-466.157	5.019	0.190	0.139
-465.143	-200.000	0.062	0.299
-464.128	800.000	0.031	-0.096
-463.113	59.889	-0.136	-0.135
-462.099	-155.880	0.163	-0.010
-461.084	-200.000	0.012	0.175
-460.070	-119.949	-0.284	-0.049
-459.055	-88.331	-0.257	-0.077
-458.040	-200.000	0.073	-0.338
-457.026	421.373	-0.062	-0.132
-456.011	-87.183	0.348	0.106
-454.997	219.748	0.178	0.284
-453.982	800.000	0.105	-0.293
-452.968	-53.859	-0.122	0.056
-451.953	800.000	0.041	0.176
-450.938	534.411	0.011	-0.027
-449.924	-124.682	-0.203	-0.031
-448.909	-71.922	0.165	0.061
-447.895	224.006	-0.214	-0.344
-446.880	-200.000	0.053	0.275
-445.865	-110.265	-0.013	-0.003
-444.851	-200.000	-0.009	0.142
-443.836	-29.918	0.088	-0.050
-442.822	-19.794	0.196	-0.121
-441.807	-120.068	-0.218	-0.037
-440.792	456.974	-0.036	0.080
-439.778	-200.000	0.007	0.193
-438.763	-101.149	0.165	-0.040
-437.749	238.682	0.019	0.032
-436.734	-132.957	0.297	0.038
-435.719	390.767	-0.044	-0.091
-434.705	800.000	-0.024	0.068
-433.690	-84.766	-0.243	-0.076
-432.676	-25.153	-0.233	-0.138
-431.661	35.673	-0.121	-0.106
-430.646	58.705	0.118	-0.116
-429.632	25.983	-0.106	0.088
-428.617	141.042	-0.100	0.132
-427.603	-91.341	0.114	-0.032
-426.588	-127.228	0.287	-0.042
-425.573	-7.756	0.115	0.078
-424.559	800.000	0.062	0.210
-423.544	66.119	-0.036	-0.037
-422.530	68.003	-0.027	0.028
-421.515	55.480	0.155	0.150
-420.500	-200.000	0.010	-0.269
-419.486	-69.191	-0.169	-0.065
-418.471	56.397	0.081	0.079
-417.457	526.672	0.035	-0.082
-416.442	800.000	-0.138	0.513
-415.428	-128.195	0.145	0.021
-414.413	124.336	0.189	-0.237
-413.398	-122.474	-0.176	0.029
-412.384	-52.440	0.196	-0.090
-411.369	142.725	0.181	0.240
-410.355	-34.288	0.185	-0.101
-409.340	-200.000	-0.035	0.196
-408.325	-137.343	-0.075	0.009
-407.311	-116.462	0.183	-0.034
-406.296	-169.282	-0.191	-0.007
-405.282	-11.241	0.191	0.126
-404.267	-123.708	0.506	0.080
-403.252	39.625	-0.250	-0.223
-402.238	-200.000	-0.045	0.282
-401.223	-12.646	-0.185	0.120
-400.209	-118.279	0.156	0.028
-399.194	-67.173	0.109	0.043
-398.179	-135.673	0.119	-0.014
-397.165	169.275	0.175	-0.248
-396.150	-9.515	0.022	0.015
-395.136	-21.760	0.153	-0.093
-394.121	-41.077	0.106	0.055
-393.106	82.709	-0.120	-0.130
-392.092	-93.259	0.146	0.040
-391.077	-123.265	-0.039	0.006
-390.063	-200.000	0.027	-0.262
-389.048	-200.000	0.021	-0.093
-388.033	-127.573	-0.482	-0.070
-387.019	160.793	0.093	-0.129
-386.004	-180.015	-0.416	-0.009
-384.990	-144.572	-0.609	0.056
-383.975	74.408	0.064	0.067
-382.960	120.289	0.282	0.349
-381.946	-13.812	-0.250	0.161
-380.931	-77.642	-0.092	-0.032
-379.917	47.395	-0.286	0.266
-378.902	-81.136	-0.375	0.124
-377.888	800.000	0.068	-0.247
-376.873	-80.482	0.128	0.043
-375.858	326.943	0.100	0.191
-374.844	800.000	0.069	-0.191
-373.829	11.440	-0.200	-0.152
-372.815	-200.000	0.047	0.225
-371.800	-13.882	0.200	-0.129
-370.785	-200.000	-0.046	0.280
-369.771	-157.783	-0.124	-0.007
-368.756	507.442	0.073	0.169
-367.742	86.131	0.192	0.211
-366.727	800.000	0.020	-0.063
-365.712	-200.000	-0.037	-0.168
-364.698	387.391	0.119	-0.246
-363.683	-86.984	-0.200	-0.061
-362.669	95.229	-0.065	0.074
-361.654	-200.000	0.009	-0.232
-360.639	-15.336	-0.201	-0.128
-359.625	198.287	-0.118	-0.179
-358.610	274.348	0.146	-0.257
-357.596	-160.851	-0.352	0.018
-356.581	-39.748	0.198	0.103
-355.566	-200.000	-0.024	0.391
-354.552	-94.508	0.272	0.074
-353.537	343.480	0.026	-0.052
-352.523	43.610	0.133	-0.121
-351.508	-37.515	0.450	-0.239
-350.493	109.421	0.069	0.082
-349.479	121.118	-0.079	0.098
-348.464	789.898	-0.028	-0.076
-347.450	-104.288	-0.219	-0.050
-346.435	-127.808	0.188	-0.027
-345.420	-51.006	-0.201	-0.094
-344.406	-188.525	0.358	0.004
-343.391	321.256	-0.071	-0.134
-342.377	30.962	-0.112	0.095
-341.362	800.000	0.022	-0.080
-340.348	-75.167	-0.222	0.079
-339.333	-200.000	0.008	-0.084
-338.318	284.907	0.019	-0.034
-337.304	-159.732	-0.153	-0.008
-336.289	62.849	0.221	-0.219
-335.275	518.690	-0.032	0.074
-334.260	-200.000	-0.073	-0.344
-333.245	800.000	0.139	-0.521
-332.231	322.967	0.136	-0.258
-331.216	-103.245	0.158	0.037
-330.202	-23.974	0.146	-0.087
-329.187	-154.168	-0.242	0.016
-328.172	757.632	-0.027	0.074
-327.158	-117.738	-0.632	-0.113
-326.143	109.570	-0.150	-0.179
-325.129	-200.000	0.021	0.186
-324.114	19.165	-0.241	-0.193
-323.099	-200.000	-0.049	0.238
-322.085	-200.000	0.011	0.056
-321.070	-129.516	-0.163	0.022
-320.056	147.973	-0.159	-0.213
-319.041	471.187	0.060	-0.134
-318.026	-80.064	-0.099	0.033
-317.012	-13.774	0.151	0.097
-315.997	-200.000	-0.009	-0.113
-314.983	18.086	0.006	-0.005
-313.968	-200.000	-0.021	-0.148
-312.953	-42.612	-0.121	0.061
-311.939	199.028	-0.089	0.135
-310.924	548.874	-0.037	0.087
-309.910	18.724	0.163	-0.130
-308.895	454.965	-0.144	0.317
-307.880	-41.862	-0.115	-0.058
-306.866	582.545	0.078	0.190
-305.851	-0.068	-0.089	-0.063
-304.837	-166.217	0.426	0.018
-303.822	-128.949	0.274	0.038
-302.807	127.380	-0.231	-0.291
-301.793	4.535	0.192	0.140
-300.778	203.564	0.206	0.317
-299.764	-82.910	0.235	-0.075
-298.749	305.615	-0.094	0.173
-297.735	-181.193	-0.105	0.002
-296.720	800.000	0.054	0.170
-295.705	-117.765	-0.192	0.034
-294.691	124.791	0.162	0.203
-293.676	321.892	0.049	0.093
-292.662	407.568	0.124	0.261
-291.647	-200.000	-0.044	0.209
-290.632	2.986	0.099	-0.072
-289.618	-200.000	0.104	-0.548
-288.603	144.260	0.102	-0.135
-287.589	-38.404	-0.109	0.057
-286.574	-200.000	0.001	-0.118
-285.559	110.543	-0.278	0.332
-284.545	59.141	-0.083	0.081
-283.530	190.751	-0.178	0.266
-282.516	331.012	0.128	0.244
-281.501	-95.016	0.226	0.061
-280.486	-21.713	-0.304	-0.184
-279.472	59.995	0.119	0.117
-278.457	-139.155	0.322	0.034
-277.443	-200.000	-0.044	0.209
-276.428	-27.902	0.147	0.084
-275.413	543.258	-0.099	-0.234
-274.399	-137.936	-0.026	-0.003
-273.384	115.259	-0.209	-0.254
-272.370	800.000	-0.044	0.179
-271.355	-69.608	0.319	0.121
-270.340	238.370	0.216	0.356
-269.326	-118.818	0.200	-0.035
-268.311	-144.784	-0.156	0.014
-267.297	42.409	0.343	0.310
-266.282	249.326	-0.050	0.083
-265.267	-2.616	0.193	-0.134
-264.253	-126.932	0.224	-0.033
-263.238	413.109	-0.144	0.304
-262.224	82.091	-0.071	0.077
-261.209	-200.000	0.020	0.364
-260.195	20.470	0.310	-0.249
-259.180	-30.556	-0.187	0.105
-258.165	-200.000	-0.017	0.152
-257.151	800.000	0.018	0.054
-256.136	800.000	0.097	0.368
-255.122	800.000	-0.038	0.108
-254.107	7.510	0.181	-0.134
-253.092	800.000	-0.088	-0.373
-252.078	489.213	-0.039	0.089
-251.063	119.384	-0.121	-0.148
-250.049	-4.131	0.136	0.093
-249.034	-200.000	-0.022	0.218
-248.019	-87.303	-0.277	-0.083
-247.005	800.000	0.118	0.386
-245.990	800.000	-0.053	0.194
-244.976	-200.000	-0.021	0.154
-243.961	800.000	0.006	0.025
-242.946	235.811	-0.113	0.185
-241.932	16.482	-0.142	0.111
-240.917	-173.736	0.362	0.011
-239.903	18.798	0.139	-0.110
-238.888	199.078	0.090	0.136
-237.873	800.000	-0.163	-0.467
-236.859	104.683	0.206	0.241
-235.844	184.294	0.165	-0.243
-234.830	64.819	-0.210	-0.210
-233.815	-147.803	-0.194	-0.016
-232.800	714.604	0.172	0.453
-231.786	-102.863	-0.284	-0.067
-230.771	-81.782	-0.147	0.048
-229.757	-200.000	-0.015	-0.155
-228.742	132.929	-0.049	-0.063
-227.727	51.711	0.091	0.085
-226.713	257.111	0.050	0.085
-225.698	-125.045	0.421	0.064
-224.684	800.000	0.046	-0.174
-223.669	-82.879	0.606	-0.194
-222.655	-89.922	0.192	0.056
-221.640	-164.416	0.359	0.016
-220.625	-67.457	-0.293	0.114
-219.611	-200.000	0.045	-0.318
-218.596	-63.391	0.157	0.064
-217.582	-117.113	-0.391	0.071
-216.567	-19.192	0.312	-0.192
-215.552	480.985	0.055	0.124
-214.538	115.973	-0.222	0.269
-213.523	75.914	0.110	0.115
-212.509	-105.253	-0.217	0.049
-211.494	340.386	-0.015	-0.029
-210.479	-81.759	0.162	-0.053
-209.465	-200.000	0.016	-0.233
-208.450	167.404	-0.183	0.258
-207.436	78.089	0.092	0.097
-206.421	666.938	0.052	-0.132
-205.406	435.886	-0.048	0.103
-204.392	-16.687	-0.147	-0.092
-203.377	-100.369	0.109	0.027
-202.363	-43.230	0.223	0.112
-201.348	-200.000	-0.010	-0.196
-200.333	25.773	-0.171	0.141
-199.319	176.309	-0.228	0.327
-198.304	-63.553	0.032	0.013
-197.290	-111.895	-0.358	0.071
-196.275	-81.437	-0.334	-0.109
-195.260	-117.866	0.141	0.025
-194.246	327.924	-0.163	0.310
-193.231	-130.759	-0.301	0.040
-192.217	310.339	0.119	0.220
-191.202	800.000	-0.066	0.200
-190.187	350.240	0.035	0.069
-189.173	341.020	0.109	0.210
-188.158	-27.492	-0.133	-0.077
-187.144	-62.334	-0.254	-0.104
-186.129	274.313	-0.178	-0.312
-185.114	-29.277	-0.236	0.134
-184.100	-200.000	0.006	-0.302
-183.085	28.200	0.354	-0.296
-182.071	18.005	-0.121	0.095
-181.056	-90.464	-0.084	0.024
-180.042	-103.813	0.311	0.072
-179.027	-4.206	-0.034	0.024
-178.012	-9.551	-0.063	-0.041
-176.998	123.806	-0.210	0.260
-175.983	10.361	0.120	-0.090
-174.969	453.136	0.124	-0.272
-173.954	800.000	0.035	-0.147
-172.939	476.928	-0.078	0.174
-171.925	-38.195	0.198	-0.104
-170.910	800.000	0.029	-0.081
-169.896	-82.044	-0.155	-0.050
-168.881	-200.000	0.007	0.236
-167.866	-49.967	0.317	0.149
-166.852	-48.784	0.208	0.099
-165.837	80.383	-0.077	0.082
-164.823	800.000	0.065	-0.268
-163.808	54.447	0.073	0.070
-162.793	316.839	0.022	-0.041
-161.779	-62.164	-0.194	0.080
-160.764	-46.678	0.178	-0.086
-159.750	-40.571	0.199	0.102
-158.735	115.034	0.089	0.107
-157.720	-54.584	-0.151	0.067
-156.706	-65.508	0.106	0.042
-155.691	-200.000	-0.008	-0.122
-154.677	250.674	-0.097	-0.162
-153.662	-26.958	-0.158	0.091
-152.647	359.770	-0.134	0.264
-151.633	800.000	0.077	0.260
-150.618	60.870	-0.114	0.112
-149.604	-41.900	0.143	-0.072
-148.589	52.686	-0.068	0.064
-147.574	-130.967	0.173	0.023
-146.560	-26.701	-0.125	0.072
-145.545	-71.000	0.310	-0.115
-144.531	28.532	0.273	0.228
-143.516	-200.000	0.017	0.083
-142.502	103.650	-0.127	-0.147
-141.487	-86.138	0.241	0.073
-140.472	562.112	-0.111	-0.265
-139.458	-104.025	-0.191	-0.044
-138.443	800.000	-0.046	0.151
-137.429	305.919	0.135	-0.248
-136.414	-167.136	0.568	0.023
-135.399	175.161	0.111	-0.159
-134.385	-200.000	0.006	0.539
-133.370	-200.000	-0.057	-0.264
-132.356	-200.000	0.033	-0.337
-131.341	25.160	-0.207	0.170
-130.326	-22.284	0.214	0.128
-129.312	-200.000	0.002	0.026
-128.297	800.000	0.076	0.253
-127.283	678.068	0.021	0.053
-126.268	-61.467	0.187	-0.077
-125.253	800.000	0.030	-0.126
-124.239	39.941	-0.121	0.107
-123.224	-68.022	-0.039	0.015
-122.210	-200.000	0.004	-0.233
-121.195	126.127	0.277	0.345
-120.180	591.329	-0.088	0.214
-119.166	2.147	-0.169	0.120
-118.151	69.722	-0.240	-0.244
-117.137	-180.991	-0.225	-0.004
-116.122	-91.455	-0.402	0.113
-115.107	94.474	-0.037	-0.042
-114.093	134.926	0.150	0.191
-113.078	226.636	0.053	0.085
-112.064	-98.817	-0.188	0.047
-111.049	62.409	0.101	-0.100
-110.034	800.000	0.045	0.180
-109.020	259.866	0.080	0.136
-108.005	89.090	0.075	0.083
-106.991	-176.949	0.352	0.009
-105.976	-1.960	-0.322	0.223
-104.962	-28.621	-0.111	-0.063
-103.947	291.737	0.161	-0.289
-102.932	-126.352	0.382	0.056
-101.918	-63.427	-0.136	0.055
-100.903	120.960	0.247	-0.303
-99.889	-51.474	-0.070	0.032
-98.874	-200.000	-0.022	0.119
-97.859	-55.570	-0.095	0.042
-96.845	800.000	-0.106	-0.293
-95.830	29.915	0.189	-0.159
-94.816	-0.366	0.110	0.077
-93.801	-200.000	0.028	-0.223
-92.786	59.513	0.207	-0.201
-91.772	-54.258	-0.192	0.086
-90.757	-66.823	-0.167	0.065
-89.743	203.187	0.125	0.190
-88.728	-4.791	0.066	-0.045
-87.713	771.430	-0.094	-0.253
-86.699	800.000	0.138	-0.450
-85.684	-199.952	0.228	0.001
-84.670	-108.226	-0.125	-0.027
-83.655	609.583	-0.030	-0.074
-82.640	-200.000	-0.003	0.301
-81.626	-55.285	-0.291	0.129
-80.611	-140.165	0.156	0.016
-79.597	104.862	0.034	0.039
-78.582	-11.476	0.144	0.093
-77.567	-200.000	-0.009	0.220
-76.553	23.648	0.087	-0.070
-75.538	-152.932	-0.304	0.021
-74.524	800.000	-0.103	-0.332
-73.509	-98.236	0.119	-0.030
-72.494	-16.555	-0.039	-0.024
-71.480	-200.000	-0.025	0.152
-70.465	272.170	-0.123	0.213
-69.451	-73.041	0.242	-0.088
-68.436	-112.527	-0.195	0.038
-67.422	-200.000	-0.012	-0.194
-66.407	-123.555	-0.256	0.040
-65.392	98.284	-0.148	-0.167
-64.378	-95.449	0.257	-0.068
-63.363	-200.000	0.001	0.192
-62.349	157.503	-0.249	0.338
-61.334	18.906	-0.765	-0.603
-60.319	-59.222	0.330	0.140
-59.305	-200.000	-0.142	-0.701
-58.290	79.854	0.976	1.031
-57.276	412.546	0.636	1.329
-56.261	-200.000	90.271	530.914
-55.246	524.918	1365.129	3158.252
-54.232	153.526	2583.907	3479.264
-53.217	110.655	2297.766	2716.948
-52.203	46.320	1916.605	1746.696
-51.188	40.035	1706.318	1507.267
-50.173	37.160	1661.736	1446.434
-49.159	53.476	1707.748	1610.032
-48.144	57.132	1726.572	1655.320
-47.130	39.739	1683.631	1484.764
-46.115	36.849	1668.625	1449.871
-45.100	36.659	1663.719	1444.138
-44.086	36.531	1661.201	1440.935
-43.071	36.428	1658.998	1438.199
-42.057	36.504	1656.304	1436.376
-41.042	36.522	1654.435	1434.830
-40.027	36.529	1652.402	1433.064
-39.013	36.502	1650.698	1431.328
-37.998	36.551	1648.828	1430.016
-36.984	36.592	1647.986	1429.526
-35.969	36.637	1646.498	1428.514
-34.954	36.707	1644.360	1427.116
-33.940	36.765	1642.530	1425.897
-32.925	36.634	1641.075	1423.620
-31.911	36.714	1639.246	1422.559
-30.896	36.652	1637.424	1420.472
-29.881	36.622	1635.897	1418.866
-28.867	36.705	1633.721	1417.532
-27.852	36.530	1633.204	1415.747
-26.838	36.664	1631.245	1414.971
-25.823	36.731	1629.741	1414.103
-24.809	36.748	1628.250	1412.872
-23.794	36.639	1626.892	1410.844
-22.779	36.589	1626.025	1409.671
-21.765	36.767	1623.677	1408.875
-20.750	36.635	1622.332	1406.695
-19.736	36.719	1620.968	1406.065
-18.721	36.757	1619.186	1404.736
-17.706	36.711	1618.090	1403.398
-16.692	36.681	1616.497	1401.743
-15.677	36.604	1615.204	1400.013
-14.663	36.707	1613.921	1399.591
-13.648	36.773	1612.557	1398.825
-12.633	36.697	1610.945	1396.827
-11.619	36.680	1609.282	1395.206
-10.604	36.750	1607.623	1394.216
-9.590	36.760	1606.345	1393.120
-8.575	36.714	1604.895	1391.478
-7.560	36.700	1603.964	1390.516
-6.546	36.733	1602.795	1389.687
-5.531	36.724	1601.761	1388.669
-4.517	36.718	1600.469	1387.454
-3.502	36.734	1599.505	1386.672
-2.487	36.728	1598.145	1385.399
-1.473	36.352	1586.785	1372.821
-0.458	33.492	1566.352	1334.974
0.556	29.492	1565.918	1300.539
1.571	26.995	1589.210	1301.886
2.586	26.374	1603.643	1309.101
3.600	23.269	1550.605	1243.921
4.615	13.014	1436.811	1085.422
5.629	3.433	1367.895	973.026
6.644	1.742	1358.115	955.382
7.659	1.625	1356.644	953.531
8.673	1.578	1355.205	952.143
9.688	1.525	1353.393	950.453
10.702	1.244	1350.758	946.764
11.717	4.801	1358.278	974.237
12.731	15.216	1377.722	1053.911
13.746	23.618	1391.828	1117.754
14.761	25.458	1393.910	1130.917
15.775	25.728	1394.138	1132.701
16.790	25.737	1393.587	1132.211
17.804	25.871	1392.696	1132.232
18.819	26.172	1392.310	1133.707
19.834	26.141	1392.055	1133.204
20.848	26.144	1391.247	1132.464
21.863	26.185	1390.435	1131.959
22.877	26.148	1389.325	1130.727
23.892	26.163	1388.540	1130.079
24.907	26.076	1388.316	1129.256
25.921	26.228	1387.105	1129.123
26.936	26.184	1385.596	1127.513
27.950	26.196	1384.818	1126.859
28.965	26.134	1383.640	1125.413
29.980	26.207	1382.096	1124.511
30.994	26.196	1381.246	1123.652
32.009	26.170	1379.994	1122.376
33.023	26.114	1379.166	1121.251
34.038	26.140	1378.259	1120.578
35.053	26.087	1377.150	1119.249
36.067	26.216	1375.401	1118.526
37.082	26.127	1375.090	1117.621
38.096	26.215	1373.702	1116.942
39.111	26.190	1373.199	1116.282
40.126	26.224	1372.279	1115.645
41.140	26.184	1371.929	1115.011
42.155	26.149	1371.539	1114.381
43.169	26.055	1371.785	1113.903
44.184	26.086	1371.628	1113.864
45.199	26.194	1370.566	1113.574
46.213	26.078	1370.601	1112.786
47.228	26.174	1369.288	1112.216
48.242	26.232	1368.160	1111.554
49.257	26.190	1366.626	1109.950
50.271	26.284	1364.725	1108.888
51.286	26.176	1363.649	1107.255
52.301	26.160	1362.790	1106.361
53.315	26.188	1361.591	1105.459
54.330	26.167	1360.838	1104.619
55.344	26.157	1359.993	1103.775
56.359	26.115	1359.270	1102.837
57.374	26.202	1357.886	1102.147
58.388	26.088	1358.081	1101.511
59.403	26.169	1357.381	1101.343
60.417	26.079	1357.054	1100.429
61.432	26.080	1355.740	1099.269
62.447	26.050	1355.360	1098.684
63.461	26.219	1353.826	1098.368
64.476	26.124	1353.267	1097.243
65.490	26.035	1352.128	1095.681
66.505	26.136	1350.075	1094.534
67.520	26.141	1348.935	1093.541
68.534	26.118	1348.111	1092.639
69.549	26.178	1346.980	1091.986
70.563	26.153	1345.998	1090.943
71.578	26.074	1345.609	1090.058
72.593	26.181	1344.085	1089.371
73.607	26.186	1343.727	1089.011
74.622	26.218	1342.731	1088.304
75.636	26.174	1342.166	1087.482
76.651	26.131	1341.767	1086.804
77.666	26.143	1341.469	1086.541
78.680	26.078	1341.276	1085.895
79.695	26.049	1340.042	1084.628
80.709	26.133	1338.943	1084.145
81.724	26.201	1338.017	1083.710
82.739	26.139	1337.301	1082.662
83.753	26.164	1336.148	1081.783
84.768	26.126	1334.921	1080.463
85.782	26.175	1334.255	1080.122
86.797	26.234	1332.542	1078.995
87.812	26.115	1331.867	1077.639
88.826	26.214	1330.255	1076.832
89.841	26.216	1329.893	1076.455
90.855	26.268	1328.559	1075.589
91.870	26.316	1327.922	1075.263
92.884	26.296	1326.797	1074.141
93.899	26.175	1326.266	1072.895
94.914	26.205	1325.205	1072.118
95.928	26.229	1324.591	1071.670
96.943	26.215	1323.995	1071.011
97.957	26.211	1323.208	1070.258
98.972	26.183	1322.321	1069.280
99.987	26.223	1321.496	1068.755
101.001	26.265	1320.386	1068.009
102.016	26.082	1319.661	1066.246
103.030	26.267	1318.841	1066.581
104.045	26.234	1317.792	1065.446
105.060	26.208	1317.002	1064.560
106.074	26.208	1315.861	1063.544
107.089	26.222	1314.917	1062.766
108.103	26.273	1313.810	1062.078
109.118	26.149	1312.819	1060.456
110.133	26.242	1311.713	1060.013
111.147	26.232	1310.462	1058.852
112.162	26.248	1309.674	1058.216
113.176	26.399	1308.088	1057.721
114.191	26.308	1307.435	1056.565
115.206	26.289	1306.471	1055.582
116.220	26.347	1305.717	1055.222
117.235	26.369	1304.067	1053.919
118.249	26.300	1303.400	1052.886
119.264	26.213	1302.380	1051.465
120.279	26.296	1301.877	1051.450
121.293	26.344	1300.907	1050.850
122.308	26.295	1300.372	1050.041
123.322	26.303	1299.748	1049.489
124.337	26.317	1298.531	1048.498
125.352	26.314	1297.917	1047.892
126.366	26.394	1296.787	1047.347
127.381	26.308	1296.225	1046.303
128.395	26.365	1295.157	1045.676
129.410	26.439	1293.824	1044.938
130.424	26.388	1293.591	1044.364
131.439	26.422	1292.858	1043.877
132.454	26.318	1292.165	1042.625
133.468	26.323	1291.655	1042.150
134.483	26.330	1291.509	1041.978
135.497	26.404	1290.243	1041.290
136.512	26.535	1288.605	1040.629
137.527	26.252	1288.331	1038.692
138.541	26.311	1287.105	1037.947
139.556	26.341	1285.733	1036.919
140.570	26.358	1284.973	1036.317
141.585	26.306	1283.552	1034.778
142.600	26.462	1282.203	1034.491
143.614	26.358	1281.821	1033.497
144.629	26.269	1281.136	1032.348
145.643	26.210	1279.913	1030.930
146.658	26.253	1278.552	1029.990
147.673	26.230	1277.694	1029.074
148.687	26.215	1277.137	1028.453
149.702	26.167	1275.703	1026.934
150.716	26.221	1274.634	1026.287
151.731	26.257	1274.013	1025.902
152.746	26.325	1272.707	1025.144
153.760	26.358	1271.748	1024.471
154.775	26.250	1270.740	1022.956
155.789	26.302	1269.617	1022.252
156.804	26.245	1269.083	1021.412
157.819	26.403	1267.856	1021.225
158.833	26.345	1267.496	1020.520
159.848	26.435	1266.713	1020.308
160.862	26.353	1265.923	1019.116
161.877	26.325	1265.426	1018.470
162.892	26.368	1264.164	1017.608
163.906	26.452	1263.222	1017.227
164.921	26.458	1262.812	1016.842
165.935	26.407	1262.161	1015.942
166.950	26.411	1261.527	1015.362
167.964	26.434	1260.584	1014.645
168.979	26.459	1260.125	1014.323
169.994	26.537	1259.722	1014.350
171.008	26.395	1259.154	1013.006
172.023	26.465	1257.958	1012.346
173.037	26.424	1257.838	1011.929
174.052	26.419	1256.944	1011.093
175.067	26.540	1255.922	1010.856
176.081	26.517	1255.084	1009.963
177.096	26.508	1254.139	1009.065
178.110	26.407	1253.543	1007.933
179.125	26.487	1252.591	1007.527
180.140	26.544	1251.233	1006.661
181.154	26.447	1250.379	1005.347
182.169	26.443	1248.957	1004.093
183.183	26.480	1248.446	1003.794
184.198	26.421	1247.616	1002.712
185.213	26.516	1246.455	1002.217
186.227	26.529	1245.531	1001.460
187.242	26.477	1244.751	1000.455
188.256	26.596	1243.248	999.813
189.271	26.518	1243.131	999.201
190.286	26.597	1242.303	998.881
191.300	26.479	1241.886	997.811
192.315	26.564	1241.277	997.698
193.329	26.418	1240.733	996.369
194.344	26.617	1240.195	996.947
195.359	26.508	1240.072	996.161
196.373	26.434	1239.637	995.316
197.388	26.421	1239.357	994.928
198.402	26.533	1239.056	995.218
199.417	26.544	1238.403	994.662
200.432	26.577	1237.308	993.880
201.446	26.487	1237.377	993.353
202.461	26.505	1235.866	992.148
203.475	26.523	1234.924	991.404
204.490	26.541	1234.397	990.992
205.504	26.493	1233.355	989.802
206.519	26.640	1231.999	989.433
207.534	26.627	1231.068	988.526
208.548	26.633	1230.489	988.002
209.563	26.565	1229.720	986.931
210.577	26.682	1229.082	986.967
211.592	26.637	1227.902	985.689
212.607	26.688	1227.316	985.408
213.621	26.595	1226.830	984.426
214.636	26.525	1226.149	983.409
215.650	26.594	1224.920	982.712
216.665	26.642	1223.623	981.845
217.680	26.580	1223.100	981.003
218.694	26.645	1222.583	980.852
219.709	26.714	1221.381	980.173
220.723	26.707	1221.001	979.744
221.738	26.694	1220.051	978.828
222.753	26.650	1219.350	977.939
223.767	26.689	1219.095	977.858
224.782	26.784	1218.556	977.852
225.796	26.809	1218.236	977.643
226.811	26.750	1217.501	976.648
227.826	26.837	1216.703	976.393
228.840	26.786	1215.797	975.305
229.855	26.822	1215.542	975.210
230.869	26.788	1214.689	974.256
231.884	26.802	1213.993	973.684
232.899	26.714	1213.481	972.717
233.913	26.755	1212.937	972.411
234.928	26.858	1212.120	972.223
235.942	26.908	1211.671	972.048
236.957	26.809	1210.997	970.890
237.972	26.814	1210.688	970.583
238.986	26.828	1209.546	969.657
240.001	26.724	1209.483	968.964
241.015	26.839	1208.556	968.751
242.030	26.861	1207.736	968.126
243.045	26.918	1206.824	967.612
244.059	26.842	1205.865	966.352
245.074	26.958	1205.205	966.354
246.088	26.933	1204.728	965.753
247.103	26.964	1203.631	964.956
248.117	26.971	1202.904	964.323
249.132	26.922	1202.100	963.334
250.147	26.892	1201.425	962.546
251.161	26.985	1201.134	962.721
252.176	27.050	1199.961	962.042
253.190	26.978	1199.343	961.080
254.205	26.987	1199.092	960.842
255.220	26.938	1198.394	959.936
256.234	26.993	1197.607	959.512
257.249	26.990	1196.990	958.920
258.263	26.947	1196.287	958.041
259.278	27.026	1196.263	958.357
260.293	27.028	1195.479	957.653
261.307	27.010	1194.897	957.008
262.322	27.056	1194.211	956.618
263.336	27.044	1193.899	956.217
264.351	27.052	1192.971	955.431
265.366	27.030	1192.236	954.646
266.380	27.085	1191.689	954.409
267.395	27.149	1190.772	953.926
268.409	27.012	1190.368	952.798
269.424	26.960	1190.285	952.377
270.439	27.119	1189.082	952.165
271.453	27.000	1188.715	951.162
272.468	27.086	1187.493	950.547
273.482	27.114	1186.772	950.036
274.497	27.225	1186.366	950.204
275.512	27.224	1186.011	949.829
276.526	27.195	1185.472	949.165
277.541	27.073	1184.756	947.873
278.555	27.198	1184.216	948.005
279.570	27.213	1183.518	947.443
280.585	27.253	1182.385	946.659
281.599	27.156	1181.692	945.517
282.614	27.123	1180.776	944.526
283.628	27.155	1179.942	943.945
284.643	27.260	1179.024	943.671
285.657	27.215	1178.611	943.022
286.672	27.167	1177.633	941.910
287.687	27.180	1176.781	941.214
288.701	27.190	1176.490	940.944
289.716	27.319	1175.323	940.598
290.730	27.239	1175.089	939.913
291.745	27.383	1174.285	939.929
292.760	27.283	1173.822	938.962
293.774	27.314	1173.101	938.461
294.789	27.320	1172.499	937.929
295.803	27.413	1171.813	937.776
296.818	27.326	1171.594	937.067
297.833	27.330	1170.731	936.316
298.847	27.373	1169.977	935.852
299.862	27.444	1169.016	935.363
300.876	27.402	1168.419	934.587
301.891	27.512	1167.771	934.549
302.906	27.526	1167.112	934.012
303.920	27.464	1166.830	933.387
304.935	27.516	1166.072	932.962
305.949	27.481	1165.546	932.280
306.964	27.470	1164.919	931.642
307.979	27.486	1164.258	931.112
308.993	27.475	1163.923	930.704
310.008	27.474	1162.652	929.600
311.022	27.396	1162.237	928.788
312.037	27.490	1161.597	928.673
313.052	27.406	1160.531	927.314
314.066	27.526	1159.600	927.098
315.081	27.494	1158.849	926.250
316.095	27.495	1158.220	925.675
317.110	27.539	1158.136	925.749
318.125	27.545	1157.040	924.822
319.139	27.578	1156.014	924.085
320.154	27.528	1155.851	923.622
321.168	27.520	1155.165	922.948
322.183	27.671	1154.415	923.034
323.197	27.616	1154.020	922.356
324.212	27.462	1153.773	921.299
325.227	27.703	1152.956	921.784
326.241	27.764	1152.310	921.493
327.256	27.639	1151.948	920.492
328.270	27.632	1150.856	919.500
329.285	27.638	1150.227	918.947
330.300	27.716	1149.357	918.564
331.314	27.710	1148.504	917.770
332.329	27.689	1147.989	917.175
333.343	27.754	1146.904	916.553
334.358	27.771	1146.315	916.086
335.373	27.802	1145.640	915.621
336.387	27.719	1145.122	914.710
337.402	27.771	1144.443	914.348
338.416	27.819	1144.000	914.154
339.431	27.766	1143.017	913.021
340.446	27.818	1142.495	912.780
341.460	27.834	1141.844	912.261
342.475	27.982	1140.889	912.155
343.489	27.877	1139.866	910.735
344.504	27.805	1139.328	909.866
345.519	27.949	1138.456	909.804
346.533	27.855	1137.681	908.639
347.548	27.924	1137.188	908.509
348.562	28.007	1136.345	908.163
349.577	27.955	1135.877	907.450
350.592	27.835	1134.897	905.993
351.606	27.923	1133.912	905.563
352.621	27.925	1133.579	905.228
353.635	28.023	1132.805	905.013
354.650	27.975	1132.189	904.206
355.665	27.966	1132.153	904.049
356.679	28.036	1131.458	903.761
357.694	27.998	1130.706	902.896
358.708	28.050	1130.069	902.562
359.723	28.039	1129.171	901.712
360.738	28.112	1128.567	901.507
361.752	27.988	1128.383	900.673
362.767	28.118	1127.330	900.389
363.781	28.076	1127.183	899.987
364.796	28.185	1126.556	899.941
365.810	28.043	1125.774	898.541
366.825	28.125	1125.103	898.326
367.840	28.226	1124.599	898.344
368.854	28.172	1124.427	897.861
369.869	28.065	1123.614	896.605
370.883	28.270	1122.359	896.529
371.898	28.206	1121.702	895.612
372.913	28.250	1121.543	895.619
373.927	28.131	1121.082	894.593
374.942	28.215	1120.552	894.502
375.956	28.260	1119.919	894.138
376.971	28.354	1119.128	893.886
377.986	28.282	1118.955	893.316
379.000	28.173	1118.549	892.382
380.015	28.296	1117.807	892.308
381.029	28.281	1117.164	891.646
382.044	28.251	1116.268	890.703
383.059	28.350	1115.566	890.546
384.073	28.264	1115.269	889.813
385.088	28.308	1114.407	889.258
386.102	28.284	1113.453	888.305
387.117	28.346	1112.629	887.869
388.132	28.300	1111.955	887.031
389.146	28.292	1111.338	886.418
390.161	28.392	1110.766	886.366
391.175	28.343	1109.990	885.435
392.190	28.461	1109.124	885.234
393.205	28.385	1108.409	884.219
394.219	28.361	1107.571	883.355
395.234	28.455	1107.324	883.533
396.248	28.508	1106.171	882.791
397.263	28.496	1105.572	882.178
398.278	28.522	1105.041	881.799
399.292	28.563	1104.214	881.259
400.307	28.567	1104.151	881.153
401.321	28.600	1103.094	880.386
402.336	28.445	1102.447	879.048
403.350	28.640	1101.794	879.387
404.365	28.434	1101.959	878.450
405.380	28.625	1100.469	878.101
406.394	28.649	1099.443	877.319
407.409	28.597	1098.882	876.548
408.423	28.726	1098.213	876.548
409.438	28.703	1097.943	876.147
410.453	28.671	1097.068	875.219
411.467	28.689	1096.125	874.476
412.482	28.721	1095.594	874.125
413.496	28.778	1094.854	873.730
414.511	28.785	1094.373	873.303
415.526	28.767	1094.058	872.890
416.540	28.617	1094.058	872.096
417.555	28.754	1092.987	871.816
418.569	28.676	1092.683	871.130
419.584	28.650	1092.504	870.783
420.599	28.741	1091.965	870.707
421.613	99.563	1313.536	1431.237
422.628	92.925	1345.845	1431.336
