DTS Sentinel unit serial number:	SN413079Multiplexer serial number:	ORYXHardware model number:	OX4-SRSoftware version number:	ORYX F/W v4.00 Oryx Data Collector v3.7.2.0data status	okinstallation	princeton_trtdifferential loss correction	single-endedforward channel	channel 2reverse channel	N/Adate	2019/09/13time	10:47:35forward acquisition time	60.00reverse acquisition time	0.00gamma	496.2192k internal	0.2323k external	0.2323temperature offset calibration	1.0190default loss term (dB/km)	0.3790temperature slope calibration	1.0000multiplexer offset coefficient	1.0000multiplexer slope coefficient	1.0000fibre end	0.00T internal ref (°C)	31.62T ext. ref 1 (°C)	4.60T ext. ref 2 (°C)	28.27length (m)	temperature (°C)	Stokes	anti-Stokes-747.200	800.000	0.062	-0.201
-746.185	-200.000	-0.100	0.481
-745.171	81.578	-0.111	-0.121
-744.156	63.621	-0.364	0.369
-743.142	337.627	-0.122	0.240
-742.127	800.000	-0.096	0.320
-741.112	16.167	0.248	0.197
-740.098	63.994	-0.182	0.185
-739.083	-32.012	-0.069	-0.039
-738.069	-139.970	-0.108	-0.012
-737.054	-200.000	0.041	0.207
-736.039	-35.258	-0.238	-0.130
-735.025	4.648	0.102	-0.075
-734.010	344.693	0.141	-0.280
-732.996	-200.000	-0.041	-0.459
-731.981	-63.615	0.178	-0.074
-730.966	-19.734	-0.202	0.126
-729.952	4.617	-0.035	0.026
-728.937	-131.710	-0.203	0.027
-727.923	-200.000	-0.034	0.396
-726.908	800.000	0.021	-0.075
-725.894	-116.411	0.038	0.007
-724.879	265.633	-0.182	0.320
-723.864	-200.000	-0.021	-0.123
-722.850	88.888	-0.206	-0.231
-721.835	51.300	-0.073	-0.070
-720.821	80.434	-0.048	0.053
-719.806	-100.013	-0.034	0.009
-718.791	-107.403	-0.250	-0.055
-717.777	-27.978	-0.214	0.125
-716.762	248.817	-0.062	-0.106
-715.748	358.339	-0.101	-0.203
-714.733	49.812	-0.147	0.140
-713.718	649.623	0.016	-0.041
-712.704	777.518	0.049	-0.134
-711.689	-164.538	0.240	0.011
-710.675	-24.693	-0.368	0.221
-709.660	560.748	-0.063	0.152
-708.645	-0.355	0.372	-0.266
-707.631	346.268	0.106	-0.210
-706.616	450.175	-0.053	0.119
-705.602	-101.296	0.235	0.058
-704.587	163.919	0.209	0.297
-703.572	-156.158	-0.050	0.003
-702.558	561.107	0.106	0.259
-701.543	248.782	0.200	-0.341
-700.529	7.319	-0.236	-0.178
-699.514	-85.701	-0.207	-0.065
-698.499	78.729	0.218	-0.235
-697.485	10.209	-0.118	0.090
-696.470	800.000	0.045	0.160
-695.456	13.659	-0.046	-0.036
-694.441	800.000	-0.140	0.493
-693.426	-104.857	-0.181	0.042
-692.412	-37.369	-0.270	-0.146
-691.397	-100.646	-0.157	0.039
-690.383	103.971	-0.208	0.246
-689.368	69.295	-0.149	0.154
-688.354	224.866	-0.122	0.198
-687.339	800.000	-0.054	0.171
-686.324	-117.421	0.407	0.074
-685.310	400.886	0.104	0.221
-684.295	-200.000	-0.051	-0.258
-683.281	-56.696	-0.305	0.136
-682.266	263.594	0.056	-0.099
-681.251	65.599	0.262	-0.267
-680.237	57.213	0.130	-0.128
-679.222	-200.000	-0.034	0.342
-678.208	800.000	-0.076	0.215
-677.193	-200.000	-0.043	0.262
-676.178	800.000	0.004	-0.018
-675.164	303.562	0.077	-0.143
-674.149	800.000	0.076	0.305
-673.135	516.483	-0.049	0.115
-672.120	172.964	-0.097	-0.140
-671.105	59.573	-0.048	0.047
-670.091	800.000	0.048	0.175
-669.076	-200.000	0.001	0.168
-668.062	97.215	-0.133	0.154
-667.047	83.448	-0.352	-0.386
-666.032	-138.225	0.116	0.013
-665.018	-157.799	0.049	-0.003
-664.003	-30.795	-0.148	0.084
-662.989	129.099	0.120	0.155
-661.974	-200.000	0.017	0.508
-660.959	-56.506	0.228	0.102
-659.945	-108.984	-0.096	0.021
-658.930	113.062	-0.060	0.074
-657.916	-48.554	0.197	0.095
-656.901	-154.611	-0.356	-0.024
-655.886	87.582	0.178	0.198
-654.872	-123.971	0.233	-0.037
-653.857	-200.000	0.002	0.051
-652.843	41.962	-0.081	-0.074
-651.828	-200.000	0.077	0.340
-650.814	12.183	0.268	-0.208
-649.799	800.000	0.037	0.151
-648.784	800.000	0.120	-0.371
-647.770	-87.889	0.141	-0.043
-646.755	27.017	0.060	-0.050
-645.741	-64.288	-0.189	0.077
-644.726	-200.000	0.017	-0.084
-643.711	-200.000	0.062	-0.312
-642.697	151.148	0.188	0.257
-641.682	800.000	0.044	-0.164
-640.668	-54.548	0.202	0.092
-639.653	800.000	0.011	0.035
-638.638	-5.430	0.386	-0.267
-637.624	105.779	-0.202	-0.240
-636.609	-5.740	0.223	0.153
-635.595	-78.967	-0.257	-0.088
-634.580	782.976	0.157	-0.432
-633.565	800.000	-0.033	-0.145
-632.551	-85.910	-0.122	0.038
-631.536	413.920	-0.013	0.027
-630.522	-51.474	-0.608	0.286
-629.507	-126.118	-0.324	-0.049
-628.492	69.947	-0.252	0.261
-627.478	24.674	0.193	0.160
-626.463	133.934	0.208	-0.270
-625.449	467.774	0.085	-0.192
-624.434	800.000	0.180	0.535
-623.419	-91.804	0.344	-0.098
-622.405	452.231	-0.022	0.049
-621.390	-78.723	0.141	-0.048
-620.376	-31.231	-0.096	-0.055
-619.361	55.274	-0.068	-0.066
-618.346	-12.452	-0.082	0.054
-617.332	-46.774	0.079	-0.039
-616.317	213.387	-0.287	0.455
-615.303	-200.000	-0.003	-0.022
-614.288	-151.889	0.389	-0.029
-613.273	645.967	0.180	0.461
-612.259	-163.858	-0.389	0.018
-611.244	-50.483	-0.355	-0.168
-610.230	-200.000	-0.008	-0.189
-609.215	-87.812	-0.174	-0.053
-608.201	126.134	0.085	-0.108
-607.186	-29.913	0.195	0.111
-606.171	218.121	-0.116	-0.186
-605.157	28.071	-0.149	0.127
-604.142	800.000	-0.041	0.138
-603.128	800.000	-0.221	-0.653
-602.113	-200.000	-0.062	-0.304
-601.098	-200.000	0.008	-0.290
-600.084	46.752	-0.224	-0.209
-599.069	106.165	0.070	-0.083
-598.055	-200.000	0.005	0.189
-597.040	4.700	-0.336	-0.247
-596.025	800.000	0.033	-0.127
-595.011	-95.573	0.332	0.089
-593.996	-186.288	-0.248	0.004
-592.982	682.034	-0.115	0.301
-591.967	-118.190	0.018	0.003
-590.952	-200.000	0.011	0.106
-589.938	-37.464	0.102	-0.055
-588.923	-1.092	-0.223	-0.158
-587.909	240.353	-0.131	0.220
-586.894	129.087	-0.180	0.230
-585.879	-82.743	-0.160	-0.052
-584.865	-103.455	0.118	-0.028
-583.850	-87.746	-0.198	-0.060
-582.836	-73.732	-0.299	0.109
-581.821	-163.806	0.069	-0.003
-580.806	482.724	0.165	-0.377
-579.792	800.000	0.068	0.195
-578.777	-200.000	0.013	-0.105
-577.763	-116.394	0.179	-0.033
-576.748	55.142	-0.169	0.164
-575.733	-58.665	-0.499	0.217
-574.719	0.136	-0.125	0.090
-573.704	516.920	0.123	0.290
-572.690	367.646	-0.262	0.530
-571.675	-191.573	0.196	0.002
-570.661	-200.000	-0.001	-0.284
-569.646	157.316	-0.077	-0.106
-568.631	310.156	-0.147	-0.276
-567.617	101.298	-0.141	0.165
-566.602	780.689	0.069	-0.189
-565.588	-200.000	0.042	0.194
-564.573	23.817	-0.162	0.134
-563.558	-69.020	0.191	0.074
-562.544	-55.202	-0.381	0.172
-561.529	54.318	0.223	0.215
-560.515	-71.817	0.285	-0.106
-559.500	-200.000	0.044	-0.254
-558.485	0.782	0.179	0.128
-557.471	729.353	-0.127	0.339
-556.456	800.000	-0.082	-0.278
-555.442	-99.079	-0.148	-0.037
-554.427	38.244	0.145	0.129
-553.412	-8.091	-0.120	-0.081
-552.398	-200.000	0.011	-0.267
-551.383	-21.314	0.130	0.079
-550.369	-67.011	0.329	0.130
-549.354	800.000	0.126	-0.450
-548.339	-139.267	-0.354	-0.038
-547.325	-5.114	0.140	-0.096
-546.310	800.000	0.031	-0.105
-545.296	-91.028	0.132	-0.038
-544.281	37.397	0.252	-0.224
-543.266	-103.477	0.244	0.058
-542.252	238.196	-0.101	-0.167
-541.237	-84.601	-0.244	-0.077
-540.223	126.144	-0.041	0.052
-539.208	-9.330	0.128	-0.086
-538.193	-115.890	-0.203	0.038
-537.179	800.000	0.091	-0.266
-536.164	-60.524	0.348	0.148
-535.150	-141.489	-0.223	0.023
-534.135	-98.223	-0.452	0.116
-533.121	48.757	0.173	-0.162
-532.106	-116.183	-0.068	0.013
-531.091	142.650	-0.305	-0.405
-530.077	-200.000	-0.035	0.211
-529.062	-34.632	0.243	-0.133
-528.048	31.649	0.156	-0.135
-527.033	109.874	0.194	-0.233
-526.018	-200.000	0.025	-0.153
-525.004	153.980	0.274	0.376
-523.989	800.000	0.009	0.024
-522.975	-200.000	0.011	0.085
-521.960	93.306	-0.166	0.188
-520.945	-15.166	0.284	-0.182
-519.931	-136.969	-0.303	0.035
-518.916	-55.916	-0.100	-0.045
-517.902	-200.000	0.013	-0.148
-516.887	800.000	-0.080	0.324
-515.872	230.478	0.062	0.101
-514.858	-144.537	0.391	0.036
-513.843	338.893	0.098	-0.192
-512.829	-200.000	0.059	-0.342
-511.814	47.997	-0.324	-0.303
-510.799	-200.000	-0.018	-0.084
-509.785	800.000	0.042	0.146
-508.770	313.070	-0.111	-0.208
-507.756	-200.000	0.009	0.275
-506.741	-50.626	-0.161	-0.076
-505.726	119.981	0.107	-0.133
-504.712	711.429	-0.029	-0.078
-503.697	-77.194	0.218	0.076
-502.683	20.779	0.174	0.141
-501.668	210.845	-0.127	0.199
-500.653	186.073	0.169	0.252
-499.639	-200.000	-0.027	0.134
-498.624	-200.000	0.027	0.260
-497.610	262.471	0.017	0.029
-496.595	48.288	0.236	0.221
-495.581	488.809	0.037	0.084
-494.566	-200.000	-0.006	0.102
-493.551	-84.396	-0.072	-0.023
-492.537	-95.490	0.058	-0.016
-491.522	116.983	-0.125	-0.153
-490.508	123.498	-0.179	-0.224
-489.493	-84.724	-0.141	-0.044
-488.478	800.000	-0.067	0.225
-487.464	-179.178	-0.122	-0.003
-486.449	-72.528	0.107	0.039
-485.435	-125.606	0.199	0.030
-484.420	-109.282	-0.218	-0.046
-483.405	49.265	0.049	0.046
-482.391	101.435	0.315	-0.367
-481.376	11.367	-0.087	0.066
-480.362	-66.335	0.292	0.116
-479.347	-9.618	0.196	-0.131
-478.332	395.127	-0.037	0.078
-477.318	-200.000	-0.024	-0.113
-476.303	-23.472	-0.110	-0.066
-475.289	396.765	0.101	-0.210
-474.274	19.628	0.119	0.096
-473.259	-200.000	0.009	-0.252
-472.245	-200.000	-0.036	-0.228
-471.230	-145.831	0.241	-0.021
-470.216	274.858	-0.049	0.086
-469.201	-64.578	-0.061	-0.025
-468.186	-56.807	-0.213	0.094
-467.172	65.119	0.139	-0.141
-466.157	-200.000	-0.021	-0.244
-465.143	262.828	0.155	-0.269
-464.128	193.077	0.071	-0.107
-463.113	-200.000	0.017	0.091
-462.099	800.000	-0.078	-0.227
-461.084	800.000	-0.069	0.259
-460.070	-200.000	0.036	0.179
-459.055	321.304	0.218	-0.414
-458.040	20.044	0.179	-0.144
-457.026	0.369	0.193	-0.138
-456.011	-88.924	0.094	-0.028
-454.997	-200.000	0.025	0.150
-453.982	-104.284	0.059	-0.014
-452.968	98.967	0.122	0.141
-451.953	-99.917	0.149	-0.037
-450.938	103.167	-0.064	0.075
-449.924	64.478	0.108	-0.109
-448.909	-34.705	-0.153	-0.083
-447.895	80.124	-0.116	0.125
-446.880	10.490	-0.159	-0.121
-445.865	-200.000	-0.028	0.136
-444.851	-49.114	-0.130	-0.062
-443.836	-82.514	-0.154	0.050
-442.822	209.010	-0.190	-0.297
-441.807	-33.629	0.137	0.076
-440.792	72.792	0.246	0.256
-439.778	-24.203	0.137	0.082
-438.763	-27.063	-0.165	0.096
-437.749	718.311	0.101	0.269
-436.734	-133.642	-0.012	-0.002
-435.719	-200.000	-0.011	0.057
-434.705	800.000	-0.034	0.138
-433.690	135.637	0.244	-0.316
-432.676	131.571	0.040	0.052
-431.661	721.424	-0.056	0.148
-430.646	383.375	0.228	0.467
-429.632	-118.828	-0.337	0.059
-428.617	28.384	-0.073	0.062
-427.603	-139.505	0.187	-0.020
-426.588	521.143	0.025	-0.058
-425.573	800.000	-0.065	0.200
-424.559	44.281	0.077	0.070
-423.544	521.557	-0.044	0.102
-422.530	-144.404	-0.380	-0.035
-421.515	113.039	-0.042	-0.051
-420.500	18.317	-0.164	-0.131
-419.486	-68.687	-0.285	0.110
-418.471	27.143	0.108	-0.091
-417.457	-44.639	0.219	-0.109
-416.442	142.954	0.191	0.254
-415.428	411.695	-0.146	-0.309
-414.413	-200.000	0.022	-0.256
-413.398	-81.417	0.143	0.047
-412.384	800.000	-0.050	0.147
-411.369	230.424	0.033	-0.053
-410.355	-200.000	0.004	0.057
-409.340	80.465	-0.205	-0.220
-408.325	-108.175	-0.218	0.047
-407.311	-83.579	-0.299	0.095
-406.296	800.000	0.090	0.263
-405.282	140.448	0.155	-0.204
-404.267	39.729	-0.106	-0.095
-403.252	2.150	-0.062	-0.045
-402.238	-200.000	-0.051	0.250
-401.223	55.059	-0.199	0.191
-400.209	800.000	0.045	0.186
-399.194	-48.645	0.132	-0.063
-398.179	292.777	0.049	-0.089
-397.165	-105.663	0.170	0.038
-396.150	800.000	0.056	-0.223
-395.136	800.000	-0.061	0.224
-394.121	30.164	-0.158	-0.134
-393.106	36.042	0.125	0.110
-392.092	666.593	-0.016	0.042
-391.077	800.000	-0.036	-0.151
-390.063	800.000	0.035	-0.101
-389.048	-200.000	-0.099	0.456
-388.033	48.074	0.078	-0.072
-387.019	-94.870	-0.140	0.038
-386.004	-188.250	0.251	-0.003
-384.990	499.977	0.117	0.269
-383.975	-200.000	0.010	0.172
-382.960	113.792	0.134	-0.163
-381.946	-200.000	-0.046	-0.213
-380.931	-85.000	-0.104	0.033
-379.917	-124.277	0.148	-0.023
-378.902	-124.922	-0.279	-0.043
-377.888	-69.281	0.071	-0.027
-376.873	-83.872	-0.116	-0.037
-375.858	263.756	0.139	-0.240
-374.844	429.111	0.111	0.239
-373.829	34.475	0.139	0.121
-372.815	110.348	-0.283	0.339
-371.800	255.499	-0.008	-0.013
-370.785	800.000	-0.065	-0.268
-369.771	51.433	-0.043	-0.041
-368.756	-111.063	0.215	0.044
-367.742	-23.516	-0.219	-0.131
-366.727	-78.688	-0.063	0.021
-365.712	443.718	0.138	0.302
-364.698	-67.615	0.238	0.093
-363.683	-200.000	0.052	0.287
-362.669	-200.000	-0.016	0.183
-361.654	472.015	0.143	0.321
-360.639	44.862	-0.064	0.058
-359.625	800.000	-0.093	-0.333
-358.610	46.985	-0.090	0.083
-357.596	-107.247	-0.106	-0.023
-356.581	72.260	0.224	-0.232
-355.566	167.369	0.171	0.242
-354.552	800.000	-0.043	-0.139
-353.537	-200.000	0.016	-0.143
-352.523	-42.487	-0.118	0.060
-351.508	-200.000	-0.007	-0.169
-350.493	-12.555	-0.361	-0.235
-349.479	-200.000	-0.038	-0.174
-348.464	-39.641	0.176	-0.091
-347.450	100.872	0.125	-0.145
-346.435	-200.000	-0.012	-0.073
-345.420	-128.109	-0.281	0.040
-344.406	800.000	-0.047	0.174
-343.391	322.112	-0.050	-0.095
-342.377	-63.136	0.288	-0.118
-341.362	114.659	0.095	0.115
-340.348	-93.282	0.302	0.083
-339.333	-7.883	0.190	0.127
-338.318	85.530	-0.349	-0.382
-337.304	-84.070	-0.232	-0.073
-336.289	-79.542	-0.049	0.016
-335.275	-200.000	0.010	-0.340
-334.260	800.000	0.082	-0.250
-333.245	-200.000	0.010	0.057
-332.231	205.760	-0.079	-0.122
-331.216	-48.646	-0.053	0.025
-330.202	474.560	-0.063	0.140
-329.187	-114.807	0.360	0.068
-328.172	-86.699	-0.084	0.026
-327.158	-52.156	0.039	-0.018
-326.143	-64.919	-0.287	-0.115
-325.129	71.735	-0.143	0.147
-324.114	-165.774	0.487	-0.021
-323.099	83.590	-0.193	-0.209
-322.085	163.942	0.107	0.150
-321.070	74.936	-0.039	-0.040
-320.056	-27.520	-0.039	0.023
-319.041	-70.513	0.179	0.067
-318.026	-18.770	0.219	-0.135
-317.012	-172.513	0.092	-0.003
-315.997	2.727	0.325	0.234
-314.983	-33.945	0.110	-0.060
-313.968	-69.901	-0.205	-0.078
-312.953	-55.135	0.206	-0.092
-311.939	-200.000	0.035	-0.389
-310.924	-200.000	-0.004	-0.164
-309.910	-105.004	-0.520	-0.118
-308.895	160.579	-0.053	-0.073
-307.880	-200.000	0.082	0.432
-306.866	-200.000	0.001	0.039
-305.851	-200.000	-0.031	0.160
-304.837	-104.885	0.335	0.076
-303.822	-200.000	-0.036	-0.221
-302.807	285.253	-0.060	0.107
-301.793	-74.052	-0.083	0.030
-300.778	31.939	-0.129	0.110
-299.764	75.611	-0.228	0.238
-298.749	-200.000	0.005	-0.031
-297.735	210.474	-0.046	0.071
-296.720	15.231	0.335	0.261
-295.705	-200.000	0.023	-0.119
-294.691	513.132	-0.127	0.295
-293.676	320.470	-0.137	0.258
-292.662	5.622	0.143	0.105
-291.647	800.000	-0.040	0.141
-290.632	800.000	-0.083	0.252
-289.618	225.404	0.047	-0.075
-288.603	-200.000	0.032	-0.291
-287.589	-24.141	-0.322	0.191
-286.574	-81.376	0.242	0.079
-285.559	-137.840	-0.366	0.041
-284.545	226.538	-0.157	0.253
-283.530	-130.253	0.176	-0.024
-282.516	-200.000	0.042	-0.217
-281.501	-74.692	0.248	0.088
-280.486	-200.000	-0.050	-0.322
-279.472	0.255	-0.195	-0.138
-278.457	-66.019	-0.311	0.123
-277.443	131.286	0.180	0.229
-276.428	800.000	-0.074	0.258
-275.413	-101.044	0.360	-0.088
-274.399	-81.878	-0.369	-0.120
-273.384	-200.000	0.016	-0.092
-272.370	-200.000	-0.001	0.035
-271.355	0.065	0.075	-0.053
-270.340	316.427	0.099	0.185
-269.326	-200.000	-0.006	0.269
-268.311	-129.173	-0.095	0.013
-267.297	-200.000	-0.055	-0.249
-266.282	332.911	0.029	0.055
-265.267	543.424	0.191	0.452
-264.253	27.091	0.232	0.193
-263.238	-200.000	0.034	-0.172
-262.224	291.781	0.155	0.280
-261.209	-200.000	-0.078	0.465
-260.195	-23.241	0.163	0.097
-259.180	-109.515	-0.211	0.044
-258.165	324.085	0.146	-0.275
-257.151	-140.480	0.154	-0.016
-256.136	691.267	0.122	0.315
-255.122	-135.689	-0.261	-0.031
-254.107	107.528	-0.151	0.178
-253.092	-152.062	-0.178	-0.013
-252.078	24.223	0.180	0.147
-251.063	-117.551	-0.110	0.020
-250.049	310.291	0.114	-0.212
-249.034	24.360	0.160	0.131
-248.019	-200.000	-0.041	0.222
-247.005	32.290	-0.084	0.072
-245.990	243.532	0.149	0.248
-244.976	-110.200	-0.279	0.058
-243.961	-57.053	-0.055	0.024
-242.946	-200.000	0.011	-0.230
-241.932	-12.566	-0.204	0.132
-240.917	86.576	0.313	0.341
-239.903	76.946	0.133	0.140
-238.888	-145.646	-0.332	0.029
-237.873	-190.823	-0.218	-0.002
-236.859	800.000	0.044	-0.136
-235.844	-178.991	-0.335	-0.007
-234.830	174.374	-0.119	-0.171
-233.815	-200.000	-0.049	-0.295
-232.800	33.944	0.066	-0.057
-231.786	-200.000	0.018	0.138
-230.771	-15.283	-0.235	-0.149
-229.757	800.000	0.015	0.063
-228.742	14.568	-0.300	0.232
-227.727	-129.304	0.170	0.023
-226.713	-200.000	-0.007	-0.041
-225.698	800.000	0.090	-0.315
-224.684	91.219	-0.063	-0.070
-223.669	191.335	0.215	0.320
-222.655	-103.015	0.287	-0.067
-221.640	-52.531	0.168	-0.077
-220.625	-200.000	-0.020	-0.283
-219.611	-200.000	-0.002	0.120
-218.596	194.863	0.131	-0.196
-217.582	-18.343	0.144	-0.089
-216.567	-162.894	0.471	-0.023
-215.552	800.000	-0.080	-0.232
-214.538	-45.717	-0.289	0.142
-213.523	-113.035	0.164	-0.032
-212.509	-200.000	0.065	-0.442
-211.494	800.000	0.065	0.182
-210.479	-88.780	-0.274	-0.080
-209.465	-200.000	0.010	0.093
-208.450	98.136	-0.104	0.118
-207.436	-135.009	0.110	0.013
-206.421	211.799	-0.127	-0.198
-205.406	-40.175	-0.157	-0.081
-204.392	-105.205	-0.322	-0.073
-203.377	-65.360	0.180	-0.072
-202.363	71.624	0.070	0.072
-201.348	50.810	0.121	0.113
-200.333	-200.000	0.033	0.230
-199.319	-200.000	-0.022	-0.208
-198.304	-200.000	0.003	0.201
-197.290	-64.448	0.065	-0.026
-196.275	360.343	0.060	0.118
-195.260	13.625	0.108	0.083
-194.246	-6.252	0.282	-0.190
-193.231	-148.406	-0.387	-0.031
-192.217	-72.903	-0.084	-0.030
-191.202	-72.282	0.222	0.081
-190.187	-200.000	-0.020	0.393
-189.173	-200.000	0.084	0.390
-188.158	-36.987	0.151	-0.080
-187.144	-200.000	0.210	-0.000
-186.129	74.536	0.204	-0.212
-185.114	-151.759	-0.142	0.010
-184.100	99.947	0.181	0.207
-183.085	-21.301	-0.024	-0.014
-182.071	-200.000	0.010	0.066
-181.056	-53.884	-0.279	-0.126
-180.042	-82.818	0.071	-0.023
-179.027	-69.138	0.309	0.117
-178.012	13.038	-0.132	0.101
-176.998	800.000	0.046	-0.194
-175.983	404.060	-0.015	0.032
-174.969	-10.478	0.314	-0.205
-173.954	-200.000	0.046	-0.394
-172.939	-200.000	-0.032	0.234
-171.925	108.622	0.176	-0.208
-170.910	38.077	0.056	-0.049
-169.896	-85.418	-0.263	-0.081
-168.881	-136.356	-0.243	-0.028
-167.866	-116.662	0.311	0.057
-166.852	-185.401	-0.327	-0.005
-165.837	31.368	-0.042	0.036
-164.823	-200.000	0.042	-0.262
-163.808	-200.000	-0.015	-0.084
-162.793	-12.811	-0.103	-0.066
-161.779	-114.121	-0.203	0.039
-160.764	800.000	0.102	0.342
-159.750	2.049	-0.220	0.157
-158.735	-200.000	0.009	0.089
-157.720	13.235	0.175	-0.134
-156.706	-104.786	0.247	-0.056
-155.691	429.106	-0.100	-0.213
-154.677	-112.319	-0.282	0.056
-153.662	185.012	0.098	-0.143
-152.647	-109.494	-0.568	-0.118
-151.633	-200.000	0.030	-0.130
-150.618	-10.168	-0.081	0.053
-149.604	-101.332	-0.273	-0.066
-148.589	-105.480	0.356	-0.080
-147.574	-200.000	0.072	0.318
-146.560	-200.000	-0.011	-0.081
-145.545	-200.000	0.018	0.321
-144.531	-84.064	0.090	-0.028
-143.516	17.482	0.208	0.163
-142.502	58.785	0.159	-0.154
-141.487	134.477	0.061	-0.078
-140.472	-7.046	0.276	0.185
-139.458	-58.549	-0.143	-0.061
-138.443	-63.263	-0.110	0.045
-137.429	-11.571	0.191	-0.124
-136.414	-200.000	0.020	-0.109
-135.399	-118.114	0.387	-0.068
-134.385	125.818	-0.233	0.291
-133.370	-200.000	0.008	-0.035
-132.356	-111.585	-0.412	0.083
-131.341	158.069	-0.029	0.040
-130.326	-8.847	0.275	-0.182
-129.312	171.011	-0.143	0.202
-128.297	38.372	0.178	0.156
-127.283	-46.801	0.088	-0.042
-126.268	-55.904	-0.091	-0.040
-125.253	-200.000	-0.004	0.131
-124.239	-59.092	-0.145	-0.062
-123.224	-200.000	-0.013	-0.164
-122.210	206.759	-0.021	0.032
-121.195	-79.669	0.054	-0.018
-120.180	-200.000	-0.018	-0.204
-119.166	-81.567	-0.421	0.136
-118.151	183.384	-0.082	-0.119
-117.137	-200.000	-0.017	-0.125
-116.122	-200.000	-0.006	-0.671
-115.107	-160.780	0.157	0.008
-114.093	-67.051	0.273	-0.106
-113.078	43.257	-0.234	0.210
-112.064	46.735	-0.129	-0.118
-111.049	-131.976	0.052	-0.007
-110.034	-16.949	0.151	0.094
-109.020	418.431	-0.148	-0.312
-108.005	202.859	0.156	0.238
-106.991	-200.000	0.005	0.157
-105.976	494.817	-0.083	0.188
-104.962	-101.082	-0.139	-0.033
-103.947	-90.376	0.224	-0.064
-102.932	-154.698	0.222	-0.014
-101.918	-200.000	0.002	0.468
-100.903	73.016	-0.042	-0.043
-99.889	-200.000	-0.021	-0.155
-98.874	-2.931	0.158	0.108
-97.859	169.519	-0.203	-0.286
-96.845	101.933	-0.106	0.122
-95.830	257.748	0.164	-0.277
-94.816	-200.000	0.050	0.224
-93.801	800.000	0.030	0.114
-92.786	43.725	0.174	0.157
-91.772	-124.824	-0.118	0.018
-90.757	800.000	-0.062	-0.259
-89.743	-0.295	0.049	-0.035
-88.728	352.060	0.088	0.171
-87.713	800.000	-0.049	0.151
-86.699	-19.029	-0.118	-0.072
-85.684	-96.620	-0.290	0.075
-84.670	-200.000	-0.054	-0.373
-83.655	18.673	0.080	0.063
-82.640	-88.443	0.227	-0.067
-81.626	-167.508	0.146	0.006
-80.611	-121.737	0.283	0.046
-79.597	14.891	0.183	0.141
-78.582	68.527	0.064	0.065
-77.567	40.625	0.134	-0.118
-76.553	335.053	0.072	0.138
-75.538	31.368	0.164	0.139
-74.524	252.618	0.134	0.225
-73.509	17.326	0.274	0.214
-72.494	47.645	-0.150	0.138
-71.480	-171.289	-0.101	0.003
-70.465	-151.370	-0.034	-0.002
-69.451	-200.000	-0.002	-0.088
-68.436	120.309	-0.031	0.038
-67.422	4.676	0.104	-0.075
-66.407	-94.328	0.210	0.056
-65.392	-51.916	0.076	-0.035
-64.378	-200.000	0.012	0.090
-63.363	-17.536	0.148	-0.092
-62.349	246.623	-0.123	0.203
-61.334	9.449	-0.782	-0.582
-60.319	5.874	0.580	0.422
-59.305	-200.000	-0.213	-1.170
-58.290	653.001	0.437	1.102
-57.276	140.166	1.079	1.399
-56.261	-200.000	95.811	595.860
-55.246	640.267	1393.343	3485.456
-54.232	191.700	2594.513	3842.127
-53.217	113.711	2297.390	2743.303
-52.203	41.419	1918.175	1705.653
-51.188	34.897	1706.171	1467.248
-50.173	32.207	1662.079	1409.130
-49.159	50.089	1707.605	1583.847
-48.144	51.571	1723.558	1609.818
-47.130	34.503	1685.331	1446.108
-46.115	31.801	1670.770	1413.212
-45.100	31.522	1666.117	1407.126
-44.086	31.581	1663.134	1404.995
-43.071	31.556	1660.837	1402.808
-42.057	31.568	1658.073	1400.509
-41.042	31.607	1655.860	1398.875
-40.027	31.611	1654.173	1397.425
-39.013	31.445	1652.676	1394.864
-37.998	31.450	1651.021	1393.450
-36.984	31.577	1649.180	1392.788
-35.969	31.659	1647.793	1392.172
-34.954	31.688	1646.154	1390.941
-33.940	31.556	1645.048	1388.973
-32.925	31.568	1642.936	1387.228
-31.911	31.620	1641.036	1385.955
-30.896	31.671	1638.980	1384.536
-29.881	31.596	1637.866	1382.988
-28.867	31.639	1635.752	1381.468
-27.852	31.650	1634.132	1380.121
-26.838	31.579	1633.024	1378.610
-25.823	31.634	1631.804	1377.930
-24.809	31.672	1630.162	1376.765
-23.794	31.579	1629.142	1375.165
-22.779	31.652	1627.640	1374.382
-21.765	31.633	1625.971	1372.782
-20.750	31.561	1624.415	1370.881
-19.736	31.697	1622.820	1370.479
-18.721	31.732	1620.811	1368.980
-17.706	31.702	1619.330	1367.457
-16.692	31.666	1618.154	1366.146
-15.677	31.706	1616.304	1364.821
-14.663	31.714	1615.097	1363.810
-13.648	31.651	1614.642	1362.914
-12.633	31.649	1612.608	1361.128
-11.619	31.659	1610.744	1359.574
-10.604	31.631	1609.515	1358.279
-9.590	31.606	1608.219	1356.944
-8.575	31.731	1606.705	1356.523
-7.560	31.666	1605.885	1355.309
-6.546	31.602	1604.421	1353.555
-5.531	31.662	1603.379	1353.053
-4.517	31.647	1602.290	1351.970
-3.502	31.629	1600.855	1350.579
-2.487	31.723	1599.275	1349.867
-1.473	31.525	1588.123	1338.987
-0.458	28.854	1568.250	1303.267
0.556	27.305	1568.793	1270.507
1.571	24.893	1593.550	1273.310
2.586	23.981	1605.705	1276.371
3.600	21.111	1551.523	1213.270
4.615	13.069	1441.850	1075.232
5.629	5.863	1378.240	982.705
6.644	4.474	1370.161	968.203
7.659	4.567	1368.964	967.856
8.673	4.594	1368.332	967.490
9.688	4.755	1366.234	966.920
10.702	4.503	1363.932	963.644
11.717	7.798	1369.892	988.266
12.731	15.870	1384.531	1049.239
13.746	21.624	1393.131	1091.645
14.761	22.475	1393.835	1097.402
15.775	21.783	1391.832	1091.420
16.790	20.919	1389.095	1083.810
17.804	20.073	1386.785	1076.656
18.819	19.647	1385.926	1073.250
19.834	19.637	1384.679	1072.123
20.848	19.477	1384.308	1070.749
21.863	19.302	1382.673	1068.309
22.877	19.226	1381.118	1066.538
23.892	19.179	1380.262	1065.495
24.907	19.189	1379.790	1065.097
25.921	19.087	1378.860	1063.654
26.936	19.072	1378.190	1062.951
27.950	19.226	1376.614	1062.590
28.965	19.279	1375.988	1062.343
29.980	19.438	1374.584	1062.140
30.994	19.457	1373.752	1061.526
32.009	19.611	1372.785	1061.631
33.023	19.577	1371.683	1060.476
34.038	19.507	1370.031	1058.672
35.053	19.241	1369.028	1056.175
36.067	19.331	1367.713	1055.618
37.082	19.347	1366.776	1054.895
38.096	19.453	1366.015	1054.865
39.111	19.467	1364.965	1054.050
40.126	19.312	1364.398	1052.571
41.140	19.018	1363.405	1049.917
42.155	18.800	1362.984	1048.170
43.169	18.815	1362.558	1047.838
44.184	18.843	1361.966	1047.460
45.199	18.735	1361.839	1046.612
46.213	19.006	1361.498	1047.913
47.228	19.251	1360.807	1048.779
48.242	19.240	1359.547	1047.644
49.257	19.291	1357.687	1046.432
50.271	19.194	1356.419	1044.772
51.286	19.287	1355.071	1044.208
52.301	19.196	1353.834	1042.606
53.315	19.083	1352.923	1041.133
54.330	18.949	1351.957	1039.484
55.344	18.950	1350.369	1038.182
56.359	18.977	1349.181	1037.337
57.374	18.859	1348.620	1036.105
58.388	18.790	1347.737	1034.915
59.403	18.735	1347.401	1034.234
60.417	18.705	1346.694	1033.422
61.432	18.722	1345.783	1032.733
62.447	18.668	1344.602	1031.412
63.461	18.601	1343.029	1029.708
64.476	18.492	1342.697	1028.712
65.490	18.601	1341.466	1028.329
66.505	18.633	1339.578	1026.983
67.520	18.635	1338.811	1026.314
68.534	18.657	1337.711	1025.514
69.549	18.629	1336.811	1024.568
70.563	18.518	1335.788	1023.029
71.578	18.514	1334.056	1021.587
72.593	18.397	1334.025	1020.774
73.607	18.407	1333.138	1020.067
74.622	18.429	1331.936	1019.188
75.636	18.473	1331.639	1019.129
76.651	18.478	1331.024	1018.600
77.666	18.560	1330.448	1018.560
78.680	18.613	1330.059	1018.481
79.695	18.654	1329.154	1017.943
80.709	18.817	1328.211	1018.095
81.724	18.849	1327.821	1017.896
82.739	19.012	1326.926	1018.084
83.753	19.061	1326.418	1017.894
84.768	19.349	1325.073	1018.476
85.782	19.482	1324.466	1018.702
86.797	19.434	1323.128	1017.300
87.812	19.217	1321.764	1014.888
88.826	19.287	1320.189	1013.998
89.841	19.296	1319.605	1013.513
90.855	19.381	1319.253	1013.650
91.870	19.538	1318.003	1013.523
92.884	19.558	1317.192	1012.927
93.899	19.535	1316.665	1012.297
94.914	19.552	1315.634	1011.514
95.928	19.613	1314.680	1011.050
96.943	19.514	1314.069	1009.910
97.957	19.431	1312.961	1008.482
98.972	19.429	1312.234	1007.826
99.987	19.434	1311.000	1006.816
101.001	19.428	1310.049	1005.962
102.016	19.355	1308.969	1004.620
103.030	19.399	1307.855	1003.935
104.045	19.301	1307.637	1003.103
105.060	19.299	1305.912	1001.681
106.074	18.948	1304.021	998.105
107.089	18.734	1302.679	995.751
108.103	18.553	1301.478	993.693
109.118	18.680	1299.940	993.166
110.133	18.522	1299.134	991.548
111.147	18.691	1297.500	991.191
112.162	18.592	1296.655	989.889
113.176	18.777	1295.396	989.905
114.191	18.846	1294.630	989.627
115.206	18.871	1293.382	988.734
116.220	18.824	1292.006	987.319
117.235	18.901	1290.469	986.500
118.249	18.805	1289.732	985.299
119.264	18.719	1288.958	984.129
120.279	18.619	1287.983	982.726
121.293	18.570	1286.735	981.408
122.308	18.547	1285.356	980.134
123.322	18.391	1284.581	978.568
124.337	18.362	1283.600	977.565
125.352	18.375	1282.264	976.537
126.366	18.455	1281.041	975.977
127.381	18.569	1279.867	975.645
128.395	18.420	1279.311	974.286
129.410	18.454	1278.416	973.708
130.424	18.525	1277.302	973.177
131.439	18.687	1276.774	973.609
132.454	18.796	1276.050	973.587
133.468	18.840	1275.137	973.053
134.483	18.776	1274.831	972.376
135.497	18.870	1273.347	971.686
136.512	18.945	1272.280	971.209
137.527	18.860	1270.981	969.651
138.541	18.911	1269.417	968.665
139.556	19.048	1268.600	968.724
140.570	19.057	1267.791	968.070
141.585	19.079	1266.563	967.173
142.600	19.349	1265.217	967.577
143.614	19.385	1264.587	967.211
144.629	19.325	1263.503	965.958
145.643	19.319	1262.883	965.365
146.658	19.191	1261.361	963.399
147.673	19.078	1259.412	961.195
148.687	18.945	1258.146	959.401
149.702	18.839	1257.137	957.956
150.716	18.785	1255.593	956.394
151.731	18.871	1254.271	955.783
152.746	18.901	1253.372	955.178
153.760	18.919	1252.501	954.530
154.775	19.130	1251.355	954.744
155.789	19.087	1250.739	953.950
156.804	19.243	1249.481	953.767
157.819	19.242	1248.557	952.974
158.833	19.324	1247.947	952.880
159.848	19.432	1247.310	952.903
160.862	19.454	1246.001	951.938
161.877	19.148	1244.536	949.050
162.892	18.839	1243.593	946.547
163.906	18.759	1242.933	945.520
164.921	18.818	1241.498	944.670
165.935	19.005	1240.569	944.903
166.950	19.142	1239.583	944.820
167.964	19.110	1239.310	944.354
168.979	19.095	1238.475	943.553
169.994	18.978	1237.833	942.337
171.008	19.055	1236.893	941.962
172.023	19.146	1236.441	942.032
173.037	19.391	1235.393	942.490
174.052	19.285	1234.882	941.437
175.067	19.059	1233.584	939.131
176.081	18.825	1232.595	937.020
177.096	18.794	1231.925	936.259
178.110	18.941	1230.267	935.715
179.125	19.019	1229.338	935.347
180.140	19.152	1228.025	934.989
181.154	19.212	1227.436	934.787
182.169	19.391	1226.003	934.580
183.183	19.360	1224.893	933.482
184.198	19.382	1224.016	932.853
185.213	19.361	1222.776	931.712
186.227	19.378	1221.557	930.792
187.242	19.515	1220.922	930.967
188.256	19.696	1219.923	931.093
189.271	19.641	1218.986	930.002
190.286	19.465	1217.340	927.718
191.300	19.034	1216.395	924.598
192.315	18.823	1215.671	922.836
193.329	19.017	1215.174	923.416
194.344	19.000	1214.508	922.739
195.359	19.161	1214.154	923.253
196.373	19.239	1213.742	923.274
197.388	19.202	1213.912	923.123
198.402	19.480	1213.522	924.232
199.417	19.590	1212.962	924.315
200.432	19.672	1212.586	924.387
201.446	19.930	1211.521	924.870
202.461	20.038	1210.314	924.442
203.475	19.967	1209.570	923.414
204.490	19.703	1208.340	920.984
205.504	19.566	1206.798	918.999
206.519	19.560	1205.451	917.862
207.534	19.399	1204.646	916.313
208.548	19.519	1203.488	915.986
209.563	19.498	1202.782	915.257
210.577	19.454	1201.930	914.293
211.592	19.584	1201.288	914.416
212.607	19.840	1200.392	915.007
213.621	19.829	1199.551	914.225
214.636	19.662	1198.657	912.582
215.650	19.718	1197.891	912.210
216.665	19.807	1197.086	911.988
217.680	19.933	1196.357	912.018
218.694	20.087	1195.233	911.888
219.709	20.058	1194.440	911.050
220.723	19.965	1193.671	909.895
221.738	19.797	1193.275	908.629
222.753	19.843	1192.076	907.878
223.767	19.811	1191.335	907.066
224.782	20.022	1191.342	908.097
225.796	20.089	1190.709	907.887
226.811	20.053	1189.703	906.852
227.826	19.905	1188.741	905.261
228.840	19.789	1187.988	904.001
229.855	19.764	1187.737	903.600
230.869	19.752	1186.516	902.528
231.884	19.779	1185.695	901.966
232.899	19.604	1185.025	900.463
233.913	19.687	1183.818	899.899
234.928	19.625	1183.166	898.999
235.942	19.451	1182.491	897.504
236.957	19.452	1181.673	896.811
237.972	19.491	1180.694	896.189
238.986	19.570	1180.493	896.368
240.001	19.485	1179.937	895.425
241.015	19.637	1178.914	895.356
242.030	19.710	1178.340	895.217
243.045	19.833	1177.464	895.110
244.059	19.807	1176.736	894.346
245.074	19.946	1175.743	894.228
246.088	19.910	1175.244	893.586
247.103	20.121	1174.608	894.111
248.117	20.151	1174.029	893.746
249.132	20.304	1173.328	893.920
250.147	20.591	1173.020	895.082
251.161	20.595	1172.818	894.873
252.176	20.763	1172.024	895.049
253.190	20.812	1170.773	894.269
254.205	20.776	1171.079	894.235
255.220	20.857	1170.217	893.913
256.234	20.883	1169.219	893.205
257.249	20.707	1168.746	891.866
258.263	20.837	1167.625	891.598
259.278	20.770	1167.163	890.819
260.293	20.742	1167.188	890.618
261.307	20.766	1166.636	890.239
262.322	20.892	1165.567	889.989
263.336	20.899	1164.930	889.461
264.351	21.023	1164.213	889.468
265.366	20.999	1163.574	888.778
266.380	20.986	1162.739	887.993
267.395	20.826	1161.911	886.471
268.409	20.795	1161.037	885.568
269.424	20.692	1160.354	884.443
270.439	20.668	1160.090	884.045
271.453	20.596	1159.253	882.962
272.468	20.596	1157.827	881.795
273.482	20.436	1157.308	880.515
274.497	20.505	1156.989	880.539
275.512	20.477	1156.286	879.787
276.526	20.571	1155.479	879.569
277.541	20.654	1154.388	879.081
278.555	20.668	1153.771	878.607
279.570	20.822	1153.691	879.243
280.585	21.071	1152.390	879.429
281.599	21.027	1151.871	878.733
282.614	20.869	1150.569	876.867
283.628	20.656	1149.929	875.231
284.643	20.760	1148.132	874.310
285.657	20.716	1147.864	873.807
286.672	20.763	1146.438	872.879
287.687	20.817	1145.639	872.464
288.701	20.884	1144.786	872.072
289.716	20.795	1143.956	870.916
290.730	20.765	1143.699	870.493
291.745	20.729	1143.228	869.877
292.760	20.930	1142.008	869.878
293.774	20.832	1142.015	869.316
294.789	21.000	1141.374	869.590
295.803	21.151	1140.671	869.733
296.818	20.944	1139.499	867.731
297.833	20.841	1138.622	866.474
298.847	20.952	1138.089	866.541
299.862	20.852	1137.313	865.378
300.876	20.913	1136.899	865.289
301.891	20.929	1136.546	865.022
302.906	21.136	1135.922	865.497
303.920	21.200	1135.256	865.230
304.935	21.266	1134.527	864.928
305.949	21.351	1134.166	864.996
306.964	21.469	1133.286	864.832
307.979	21.165	1132.987	863.025
308.993	21.087	1132.224	861.980
310.008	21.332	1130.933	862.129
311.022	21.420	1130.290	861.997
312.037	21.357	1129.280	860.839
313.052	21.259	1128.294	859.529
314.066	21.109	1126.970	857.708
315.081	20.887	1126.099	855.881
316.095	20.873	1125.331	855.151
317.110	20.912	1124.772	854.840
318.125	20.758	1124.409	853.734
319.139	20.966	1123.209	853.770
320.154	20.862	1122.661	852.769
321.168	20.832	1122.023	852.061
322.183	21.000	1121.492	852.401
323.197	20.937	1121.288	851.862
324.212	20.994	1120.339	851.343
325.227	21.104	1119.752	851.362
326.241	21.226	1118.890	851.226
327.256	21.054	1118.090	849.705
328.270	20.973	1117.315	848.647
329.285	21.056	1116.388	848.272
330.300	20.864	1116.000	846.967
331.314	20.964	1114.574	846.295
332.329	21.110	1113.794	846.334
333.343	21.077	1113.043	845.532
334.358	21.247	1112.039	845.516
335.373	21.195	1111.749	844.968
336.387	21.326	1110.908	844.888
337.402	21.305	1110.310	844.256
338.416	21.325	1109.642	843.772
339.431	21.386	1109.008	843.507
340.446	21.644	1108.322	844.156
341.460	21.610	1108.004	843.675
342.475	21.804	1107.312	844.006
343.489	21.693	1106.416	842.717
344.504	21.834	1105.039	842.268
345.519	21.795	1104.653	841.714
346.533	22.035	1103.991	842.287
347.548	22.098	1103.164	841.883
348.562	21.992	1102.216	840.577
349.577	21.730	1101.347	838.587
350.592	21.522	1100.279	836.705
351.606	21.420	1099.720	835.720
352.621	21.460	1098.490	834.898
353.635	21.206	1098.230	833.417
354.650	21.300	1097.153	832.974
355.665	21.518	1096.521	833.459
356.679	21.544	1096.133	833.213
357.694	21.680	1095.862	833.580
358.708	21.633	1095.555	833.052
359.723	21.653	1094.476	832.250
360.738	21.742	1093.583	831.922
361.752	21.591	1093.485	831.056
362.767	21.741	1092.620	831.038
363.781	21.802	1092.337	831.038
364.796	21.872	1091.867	830.936
365.810	21.945	1091.206	830.705
366.825	22.024	1090.730	830.646
367.840	22.200	1090.702	831.384
368.854	22.410	1089.610	831.468
369.869	22.242	1089.003	830.137
370.883	22.113	1087.970	828.669
371.898	22.005	1086.839	827.224
372.913	22.012	1086.374	826.830
373.927	22.028	1086.338	826.805
374.942	22.183	1085.879	827.112
375.956	22.150	1085.219	826.381
376.971	22.077	1084.336	825.295
377.986	22.320	1084.017	826.117
379.000	22.258	1083.763	825.562
380.015	22.357	1082.964	825.345
381.029	22.463	1082.848	825.678
382.044	22.582	1081.835	825.392
383.059	22.532	1080.557	824.108
384.073	22.398	1079.924	822.926
385.088	22.438	1079.168	822.467
386.102	22.427	1078.479	821.817
387.117	22.180	1077.099	819.540
388.132	22.053	1075.922	817.979
389.146	22.054	1075.221	817.379
390.161	21.921	1074.479	816.127
391.175	22.049	1073.890	816.202
392.190	22.125	1073.598	816.258
393.205	22.241	1072.823	816.137
394.219	22.344	1071.782	815.748
395.234	22.178	1071.039	814.345
396.248	22.185	1069.893	813.432
397.263	22.094	1069.058	812.303
398.278	22.070	1068.115	811.406
399.292	21.888	1067.241	809.831
400.307	21.880	1066.388	809.074
401.321	21.889	1065.831	808.621
402.336	21.945	1064.862	808.075
403.350	21.791	1064.990	807.386
404.365	21.918	1063.623	806.863
405.380	22.009	1063.498	807.118
406.394	22.206	1062.456	807.157
407.409	22.358	1061.824	807.305
408.423	22.353	1061.502	806.965
409.438	22.572	1060.546	807.170
410.453	22.730	1059.920	807.344
411.467	22.834	1058.938	807.000
412.482	22.781	1058.584	806.419
413.496	22.892	1058.045	806.445
414.511	22.833	1057.715	805.852
415.526	22.900	1057.778	806.132
416.540	22.946	1056.987	805.671
417.555	22.957	1056.440	805.233
418.569	22.774	1055.894	803.911
419.584	22.690	1055.700	803.309
420.599	22.833	1054.626	803.070
421.613	155.828	1401.638	1794.669
422.628	143.128	1452.190	1794.764
