DTS Sentinel unit serial number:	SN413079Multiplexer serial number:	ORYXHardware model number:	OX4-SRSoftware version number:	ORYX F/W v4.00 Oryx Data Collector v3.7.2.0data status	okinstallation	princeton_trtdifferential loss correction	single-endedforward channel	channel 2reverse channel	N/Adate	2019/09/13time	15:07:35forward acquisition time	60.00reverse acquisition time	0.00gamma	496.2192k internal	0.2315k external	0.2315temperature offset calibration	1.0207default loss term (dB/km)	0.3790temperature slope calibration	1.0000multiplexer offset coefficient	1.0000multiplexer slope coefficient	1.0000fibre end	0.00T internal ref (°C)	35.62T ext. ref 1 (°C)	4.71T ext. ref 2 (°C)	30.93length (m)	temperature (°C)	Stokes	anti-Stokes-747.200	150.662	-0.122	-0.168
-746.185	-125.508	0.138	0.021
-745.171	129.387	-0.206	0.267
-744.156	296.710	0.084	0.156
-743.142	-35.901	0.352	0.193
-742.127	65.165	-0.094	0.096
-741.112	-200.000	-0.027	-0.346
-740.098	-58.284	-0.503	-0.222
-739.083	-98.606	-0.139	-0.036
-738.069	-200.000	0.113	0.515
-737.054	151.981	0.104	0.144
-736.039	-200.000	0.058	-0.330
-735.025	-116.868	0.167	0.031
-734.010	234.639	-0.076	-0.127
-732.996	-200.000	-0.012	0.060
-731.981	84.549	-0.311	0.344
-730.966	13.096	0.280	-0.220
-729.952	159.976	-0.052	0.074
-728.937	-153.592	-0.277	0.019
-727.923	-54.757	-0.213	-0.098
-726.908	620.608	-0.068	0.174
-725.894	173.298	0.131	-0.191
-724.879	585.308	-0.087	0.217
-723.864	15.277	-0.222	-0.177
-722.850	276.673	-0.062	-0.112
-721.835	378.898	-0.067	-0.139
-720.821	-108.229	-0.183	0.040
-719.806	800.000	0.051	-0.180
-718.791	129.007	0.200	0.258
-717.777	172.361	-0.041	-0.059
-716.762	-50.096	-0.062	-0.030
-715.748	-49.768	-0.192	0.092
-714.733	327.866	-0.189	0.368
-713.718	79.240	-0.156	0.169
-712.704	43.245	0.055	-0.051
-711.689	8.809	-0.104	0.079
-710.675	800.000	-0.053	0.226
-709.660	123.387	-0.162	0.206
-708.645	566.950	0.043	0.105
-707.631	47.958	0.050	-0.047
-706.616	-200.000	0.038	0.488
-705.602	131.251	-0.223	0.290
-704.587	800.000	-0.076	-0.251
-703.572	-62.846	0.271	-0.114
-702.558	178.379	-0.076	-0.112
-701.543	-200.000	-0.034	0.284
-700.529	-93.339	0.259	-0.073
-699.514	-33.493	-0.161	0.090
-698.499	-3.460	-0.220	0.155
-697.485	68.158	-0.163	-0.169
-696.470	78.422	0.178	0.192
-695.456	65.791	-0.138	0.141
-694.441	199.005	0.130	0.201
-693.426	-163.573	-0.151	0.007
-692.412	53.753	0.173	0.168
-691.397	-63.138	-0.216	0.090
-690.383	-107.652	-0.183	-0.041
-689.368	-85.102	-0.173	0.055
-688.354	421.317	-0.223	0.484
-687.339	71.077	-0.198	-0.207
-686.324	47.722	0.109	0.103
-685.310	-81.730	0.295	-0.098
-684.295	239.711	0.220	0.370
-683.281	168.212	-0.115	-0.165
-682.266	-79.282	0.179	-0.061
-681.251	107.013	0.172	0.207
-680.237	-106.781	-0.253	-0.057
-679.222	800.000	0.099	-0.348
-678.208	17.336	-0.118	-0.095
-677.193	-6.300	0.173	-0.119
-676.178	55.364	0.064	0.063
-675.164	-170.734	0.210	-0.007
-674.149	-145.266	-0.168	0.015
-673.135	-152.778	-0.313	0.022
-672.120	181.755	-0.139	0.207
-671.105	254.004	-0.086	0.148
-670.091	223.900	-0.099	-0.162
-669.076	-35.632	-0.165	0.090
-668.062	-147.415	0.272	0.023
-667.047	-97.416	0.227	-0.060
-666.032	800.000	0.097	-0.321
-665.018	-110.157	0.114	-0.024
-664.003	-127.332	0.084	-0.012
-662.989	86.497	0.058	-0.065
-661.974	92.070	-0.124	-0.141
-660.959	800.000	-0.061	0.259
-659.945	114.610	0.116	0.143
-658.930	-103.385	-0.247	0.059
-657.916	11.050	-0.133	0.102
-656.901	-24.842	0.234	0.141
-655.886	-93.402	-0.164	0.046
-654.872	-103.154	-0.383	0.092
-653.857	-200.000	0.037	-0.292
-652.843	-76.970	-0.230	-0.081
-651.828	-183.470	-0.367	-0.006
-650.814	121.615	0.269	-0.339
-649.799	-135.895	-0.095	-0.011
-648.784	168.583	-0.007	0.010
-647.770	-96.254	-0.388	-0.104
-646.755	-23.316	-0.116	-0.071
-645.741	-122.306	-0.030	0.005
-644.726	125.962	-0.226	0.288
-643.711	296.766	-0.049	-0.091
-642.697	-69.063	0.068	0.026
-641.682	298.027	0.028	-0.052
-640.668	-88.023	-0.279	0.084
-639.653	23.147	-0.158	-0.131
-638.638	165.262	0.147	-0.210
-637.624	-78.553	-0.288	0.099
-636.609	140.687	0.177	0.236
-635.595	800.000	0.020	0.070
-634.580	-200.000	-0.033	-0.304
-633.565	-10.405	0.216	0.144
-632.551	-109.831	-0.287	0.061
-631.536	218.322	-0.153	-0.247
-630.522	224.849	0.252	-0.411
-629.507	524.878	0.130	-0.310
-628.492	678.389	-0.024	0.062
-627.478	-200.000	0.025	0.213
-626.463	800.000	-0.025	0.106
-625.449	-172.330	0.128	0.004
-624.434	-122.069	0.049	-0.008
-623.419	9.960	-0.204	-0.156
-622.405	-139.771	0.299	0.032
-621.390	-37.772	-0.171	0.092
-620.376	251.962	-0.212	0.364
-619.361	-159.598	-0.487	0.027
-618.346	-79.173	-0.164	0.056
-617.332	73.040	-0.082	-0.086
-616.317	-157.484	0.173	0.010
-615.303	-177.184	-0.069	0.002
-614.288	-96.196	-0.100	0.027
-613.273	590.510	-0.055	-0.137
-612.259	16.443	0.101	0.080
-611.244	38.443	-0.115	0.104
-610.230	-200.000	0.007	0.404
-609.215	27.684	0.208	0.177
-608.201	580.765	0.064	-0.158
-607.186	-149.630	-0.154	0.012
-606.171	-105.552	0.428	0.098
-605.157	-167.498	0.378	0.015
-604.142	57.744	0.045	-0.044
-603.128	22.484	0.093	0.077
-602.113	-117.146	-0.090	-0.017
-601.098	220.847	0.203	0.328
-600.084	-108.068	0.077	0.017
-599.069	800.000	0.097	-0.269
-598.055	-43.301	-0.134	-0.068
-597.040	-41.894	0.055	-0.028
-596.025	-41.723	0.092	0.048
-595.011	-200.000	0.013	-0.172
-593.996	183.491	0.091	-0.135
-592.982	-17.314	0.140	-0.089
-591.967	-30.759	-0.241	-0.137
-590.952	39.311	0.079	-0.071
-589.938	-168.016	0.149	0.006
-588.923	-64.910	0.427	-0.174
-587.909	781.370	0.082	-0.225
-586.894	241.950	-0.051	0.086
-585.879	2.330	-0.268	-0.195
-584.865	670.045	0.142	-0.370
-583.850	529.955	-0.099	-0.236
-582.836	-200.000	-0.066	-0.312
-581.821	-200.000	-0.041	-0.239
-580.806	85.084	-0.110	-0.122
-579.792	15.802	-0.163	0.129
-578.777	217.381	0.097	0.156
-577.763	61.053	0.294	0.294
-576.748	-200.000	-0.016	0.244
-575.733	678.906	0.032	-0.083
-574.719	-161.733	-0.284	-0.015
-573.704	15.336	-0.131	0.103
-572.690	-13.997	-0.131	0.085
-571.675	-166.256	-0.043	-0.002
-570.661	-80.209	0.393	-0.132
-569.646	-200.000	-0.064	0.466
-568.631	-7.656	0.196	-0.133
-567.617	-75.675	0.211	-0.075
-566.602	-40.460	-0.212	-0.111
-565.588	111.598	-0.165	-0.200
-564.573	77.549	-0.164	-0.175
-563.558	-200.000	0.178	0.001
-562.544	-154.660	0.140	-0.009
-561.529	-200.000	-0.031	-0.262
-560.515	-136.427	-0.384	-0.045
-559.500	58.357	-0.099	-0.098
-558.485	-143.489	0.207	0.020
-557.471	24.616	0.163	-0.136
-556.456	-45.652	-0.164	0.082
-555.442	800.000	-0.067	0.249
-554.427	677.573	0.026	0.067
-553.412	-151.841	0.176	0.013
-552.398	57.821	-0.176	0.173
-551.383	-200.000	-0.004	-0.077
-550.369	134.384	-0.126	0.164
-549.354	-200.000	0.010	-0.237
-548.339	-160.403	0.548	0.030
-547.325	-200.000	-0.050	0.388
-546.310	-150.075	-0.301	0.024
-545.296	-200.000	-0.003	0.221
-544.281	241.042	-0.179	-0.300
-543.266	645.714	-0.126	-0.324
-542.252	369.030	0.093	-0.190
-541.237	-92.531	0.104	0.029
-540.223	51.021	0.106	0.101
-539.208	-200.000	-0.052	-0.303
-538.193	-79.380	0.200	0.068
-537.179	-148.401	-0.528	-0.044
-536.164	-58.215	-0.234	0.102
-535.150	2.549	-0.088	-0.064
-534.135	-24.226	-0.242	-0.145
-533.121	20.403	0.123	0.100
-532.106	-62.165	-0.183	-0.077
-531.091	61.656	-0.162	0.162
-530.077	800.000	-0.083	0.238
-529.062	249.934	0.178	-0.304
-528.048	-200.000	-0.048	-0.259
-527.033	-200.000	-0.027	0.311
-526.018	253.047	-0.105	0.180
-525.004	-0.056	0.064	0.046
-523.989	-47.704	0.075	-0.036
-522.975	-200.000	-0.034	-0.229
-521.960	205.372	-0.193	0.301
-520.945	-106.044	-0.185	0.042
-519.931	-200.000	0.023	-0.258
-518.916	-200.000	-0.005	-0.095
-517.902	-24.618	0.085	-0.051
-516.887	-64.143	-0.338	0.138
-515.872	-200.000	0.013	-0.254
-514.858	-200.000	0.010	0.128
-513.843	-200.000	-0.002	0.229
-512.829	-34.045	0.169	0.094
-511.814	-68.206	-0.073	0.028
-510.799	-56.046	0.286	0.128
-509.785	-200.000	-0.029	-0.216
-508.770	-65.134	0.092	0.037
-507.756	-200.000	-0.006	0.397
-506.741	-131.187	0.315	-0.042
-505.726	-200.000	0.068	-0.381
-504.712	148.808	0.185	0.251
-503.697	-200.000	-0.049	-0.393
-502.683	-139.516	-0.135	0.014
-501.668	303.391	0.070	-0.131
-500.653	97.720	0.069	-0.080
-499.639	-94.358	0.373	0.102
-498.624	-127.602	0.460	0.067
-497.610	188.032	-0.064	0.097
-496.595	800.000	-0.021	0.065
-495.581	181.771	-0.067	-0.099
-494.566	-200.000	-0.006	-0.183
-493.551	-200.000	-0.018	-0.136
-492.537	-161.917	-0.069	0.003
-491.522	-120.473	0.021	-0.004
-490.508	70.652	-0.032	-0.033
-489.493	108.700	0.147	0.176
-488.478	800.000	-0.056	-0.209
-487.464	-78.244	0.327	0.113
-486.449	-139.918	0.234	-0.025
-485.435	800.000	-0.018	0.058
-484.420	45.629	-0.196	-0.182
-483.405	-200.000	0.009	0.179
-482.391	17.730	-0.084	0.067
-481.376	-70.345	0.237	-0.090
-480.362	-27.234	0.041	-0.024
-479.347	408.988	-0.103	0.218
-478.332	310.434	0.034	0.063
-477.318	-52.482	0.174	0.080
-476.303	-106.153	-0.156	-0.035
-475.289	-90.496	-0.229	-0.066
-474.274	-108.153	0.153	0.033
-473.259	-129.830	-0.102	0.014
-472.245	454.108	0.095	-0.212
-471.230	-200.000	0.005	0.078
-470.216	-154.050	0.214	-0.015
-469.201	334.902	-0.031	-0.060
-468.186	-200.000	-0.021	0.215
-467.172	-45.939	0.120	-0.060
-466.157	-200.000	-0.026	0.404
-465.143	-15.780	0.196	0.125
-464.128	74.504	0.247	-0.260
-463.113	-200.000	-0.017	-0.164
-462.099	380.939	-0.081	0.167
-461.084	-125.489	0.362	0.055
-460.070	-71.265	-0.134	0.050
-459.055	-17.841	-0.112	0.071
-458.040	148.914	-0.102	0.138
-457.026	-37.413	0.257	0.137
-456.011	-105.739	0.097	0.022
-454.997	632.123	0.090	0.228
-453.982	79.116	0.139	0.150
-452.968	-148.349	-0.036	0.003
-451.953	-26.704	-0.269	0.158
-450.938	221.757	-0.079	-0.127
-449.924	-200.000	0.016	0.110
-448.909	-27.489	-0.021	0.012
-447.895	-200.000	-0.004	-0.236
-446.880	800.000	0.104	0.297
-445.865	-22.724	-0.113	-0.069
-444.851	-1.533	-0.142	-0.100
-443.836	181.953	-0.168	0.247
-442.822	-173.736	-0.078	0.002
-441.807	70.838	-0.085	-0.088
-440.792	137.287	0.070	0.091
-439.778	27.615	-0.110	-0.093
-438.763	800.000	0.054	-0.162
-437.749	-86.592	0.155	0.048
-436.734	113.962	-0.111	0.135
-435.719	292.141	0.116	0.211
-434.705	178.050	0.204	-0.298
-433.690	19.149	-0.163	-0.131
-432.676	-200.000	0.008	0.143
-431.661	-200.000	-0.011	-0.235
-430.646	729.950	-0.023	-0.061
-429.632	645.633	0.073	0.186
-428.617	189.049	0.111	0.167
-427.603	181.113	0.113	0.166
-426.588	800.000	-0.099	-0.277
-425.573	-146.902	0.073	-0.006
-424.559	-198.479	-0.175	0.001
-423.544	-200.000	-0.037	0.161
-422.530	-200.000	0.053	0.313
-421.515	123.433	-0.247	0.309
-420.500	-2.917	-0.192	-0.134
-419.486	-62.053	-0.207	-0.087
-418.471	-134.698	-0.144	-0.018
-417.457	148.033	0.082	0.110
-416.442	284.817	-0.018	0.032
-415.428	800.000	0.115	-0.486
-414.413	254.840	-0.098	-0.167
-413.398	-11.774	0.160	0.105
-412.384	106.874	0.160	-0.190
-411.369	-200.000	0.022	-0.447
-410.355	315.337	-0.055	-0.103
-409.340	-200.000	0.019	-0.252
-408.325	-20.111	0.333	0.205
-407.311	800.000	-0.045	-0.139
-406.296	-200.000	0.004	-0.222
-405.282	124.301	0.136	0.171
-404.267	-114.285	-0.288	0.056
-403.252	470.192	-0.162	-0.363
-402.238	-75.078	-0.295	0.105
-401.223	-200.000	0.007	-0.445
-400.209	800.000	0.031	0.094
-399.194	800.000	0.066	0.218
-398.179	-35.844	0.340	0.184
-397.165	-116.047	0.129	-0.024
-396.150	-79.346	-0.281	-0.095
-395.136	-127.380	0.236	-0.034
-394.121	-125.281	-0.233	-0.036
-393.106	-200.000	0.062	0.286
-392.092	-82.079	-0.271	-0.088
-391.077	-200.000	0.002	0.011
-390.063	204.320	-0.119	0.184
-389.048	450.452	0.067	0.148
-388.033	133.560	-0.088	-0.114
-387.019	800.000	-0.097	-0.307
-386.004	-84.226	0.253	0.080
-384.990	11.912	0.067	0.051
-383.975	-86.845	0.081	0.025
-382.960	352.613	0.061	0.122
-381.946	-69.831	-0.149	-0.057
-380.931	-154.978	-0.297	-0.019
-379.917	-94.365	0.214	0.058
-378.902	61.728	0.091	-0.091
-377.888	-2.204	-0.105	-0.074
-376.873	589.183	-0.098	0.240
-375.858	287.752	-0.079	-0.143
-374.844	8.919	-0.186	-0.140
-373.829	29.711	0.394	0.335
-372.815	-129.198	0.058	0.008
-371.800	-34.271	-0.094	-0.051
-370.785	-127.537	-0.267	0.039
-369.771	800.000	0.025	0.082
-368.756	-200.000	-0.024	-0.163
-367.742	95.422	0.172	-0.196
-366.727	-200.000	-0.021	-0.386
-365.712	-78.674	0.111	-0.038
-364.698	80.959	-0.229	0.246
-363.683	-75.537	-0.121	0.043
-362.669	207.844	-0.010	0.016
-361.654	800.000	-0.012	0.039
-360.639	34.689	0.217	-0.189
-359.625	800.000	0.034	0.125
-358.610	769.233	0.047	0.128
-357.596	-177.174	0.177	0.004
-356.581	24.657	-0.181	-0.150
-355.566	114.595	-0.156	-0.190
-354.552	352.929	0.051	-0.101
-353.537	-37.461	0.094	-0.050
-352.523	127.396	-0.320	-0.405
-351.508	-114.319	0.095	0.018
-350.493	-16.909	0.350	0.220
-349.479	-200.000	-0.003	0.018
-348.464	-56.178	0.202	0.090
-347.450	268.749	-0.102	0.179
-346.435	724.002	-0.106	-0.283
-345.420	-200.000	0.015	0.405
-344.406	-200.000	0.043	0.327
-343.391	-93.687	-0.493	0.136
-342.377	-6.804	0.126	-0.085
-341.362	-200.000	-0.006	-0.086
-340.348	66.143	-0.227	-0.230
-339.333	800.000	-0.054	0.218
-338.318	800.000	0.030	-0.105
-337.304	118.801	0.139	0.171
-336.289	25.371	-0.183	-0.152
-335.275	-65.113	-0.159	0.064
-334.260	-16.555	0.193	-0.122
-333.245	38.906	0.152	-0.136
-332.231	127.414	-0.250	-0.316
-331.216	49.891	0.103	0.097
-330.202	800.000	-0.042	-0.119
-329.187	-108.044	0.222	-0.048
-328.172	800.000	-0.125	-0.443
-327.158	287.435	0.110	0.198
-326.143	-95.436	-0.298	-0.080
-325.129	261.881	0.135	0.232
-324.114	496.135	0.099	-0.227
-323.099	-103.717	-0.143	0.033
-322.085	68.305	-0.295	-0.301
-321.070	70.910	0.130	0.134
-320.056	-99.538	0.309	0.077
-319.041	-131.069	-0.069	0.009
-318.026	-1.299	-0.233	-0.164
-317.012	141.882	0.065	0.086
-315.997	254.103	0.090	0.153
-314.983	-13.821	-0.194	-0.125
-313.968	34.347	-0.073	-0.063
-312.953	-100.546	-0.118	0.029
-311.939	689.756	0.025	0.066
-310.924	-65.532	0.185	0.074
-309.910	-51.946	-0.297	0.137
-308.895	-131.111	-0.049	0.006
-307.880	87.150	0.158	0.174
-306.866	-200.000	-0.051	0.347
-305.851	-200.000	0.005	-0.371
-304.837	-159.091	0.093	-0.005
-303.822	-23.158	-0.312	0.187
-302.807	77.901	-0.190	0.202
-301.793	-31.113	-0.207	-0.116
-300.778	17.137	0.164	0.130
-299.764	-74.628	0.180	0.064
-298.749	77.933	-0.075	0.079
-297.735	590.570	0.076	0.186
-296.720	-41.363	-0.240	-0.123
-295.705	800.000	0.142	-0.547
-294.691	28.687	0.079	-0.067
-293.676	469.968	-0.175	0.391
-292.662	91.552	0.109	0.122
-291.647	-139.794	-0.234	0.025
-290.632	-194.125	-0.422	-0.003
-289.618	-2.962	-0.129	0.090
-288.603	-200.000	0.047	0.245
-287.589	326.732	0.069	-0.131
-286.574	-96.664	-0.334	-0.088
-285.559	-200.000	0.047	-0.230
-284.545	-161.055	-0.351	-0.018
-283.530	128.385	-0.131	0.165
-282.516	374.994	-0.055	0.112
-281.501	103.897	0.136	0.160
-280.486	140.926	0.165	-0.217
-279.472	800.000	0.027	0.093
-278.457	147.897	0.161	-0.217
-277.443	800.000	-0.078	0.279
-276.428	-46.123	-0.224	0.110
-275.413	65.782	-0.059	0.059
-274.399	800.000	0.060	-0.186
-273.384	-180.415	-0.598	-0.012
-272.370	121.865	-0.232	-0.287
-271.355	40.451	0.068	0.061
-270.340	-89.637	-0.206	0.060
-269.326	434.910	0.042	0.091
-268.311	-60.802	0.360	0.152
-267.297	-200.000	-0.105	0.567
-266.282	240.452	0.105	0.174
-265.267	-42.245	0.242	0.123
-264.253	-200.000	0.005	0.047
-263.238	-14.057	0.184	-0.118
-262.224	-14.584	0.258	0.165
-261.209	-34.974	-0.228	0.124
-260.195	-58.774	0.092	0.039
-259.180	-73.118	0.263	-0.096
-258.165	-85.460	-0.146	-0.045
-257.151	430.267	-0.048	-0.103
-256.136	-22.323	0.211	0.127
-255.122	800.000	0.031	-0.113
-254.107	800.000	-0.085	-0.267
-253.092	76.195	0.215	0.226
-252.078	-200.000	0.003	0.243
-251.063	47.003	-0.074	-0.069
-250.049	-150.519	0.188	0.014
-249.034	-115.765	0.127	-0.024
-248.019	800.000	-0.070	-0.212
-247.005	-120.438	0.267	0.045
-245.990	-17.340	-0.163	-0.102
-244.976	-200.000	-0.049	-0.267
-243.961	-23.385	0.128	0.077
-242.946	492.854	0.177	0.404
-241.932	-200.000	-0.012	-0.149
-240.917	-149.084	0.336	0.027
-239.903	800.000	0.028	0.090
-238.888	-103.373	0.265	0.062
-237.873	-151.074	0.466	0.035
-236.859	-177.577	-0.169	0.004
-235.844	-80.439	0.123	-0.041
-234.830	88.534	0.090	-0.099
-233.815	-200.000	0.011	0.128
-232.800	261.457	0.085	-0.147
-231.786	-200.000	-0.026	0.320
-230.771	27.362	-0.177	-0.147
-229.757	143.823	-0.265	-0.350
-228.742	-108.522	-0.309	-0.066
-227.727	-114.842	-0.271	0.051
-226.713	124.377	-0.148	-0.185
-225.698	342.042	0.179	0.349
-224.684	253.841	0.257	0.437
-223.669	51.084	0.102	-0.096
-222.655	-137.053	-0.345	-0.039
-221.640	198.030	0.086	0.131
-220.625	-34.379	0.155	-0.085
-219.611	331.266	0.185	-0.355
-218.596	77.951	0.152	0.161
-217.582	-116.139	-0.146	-0.027
-216.567	168.095	0.053	0.076
-215.552	-154.134	0.147	0.010
-214.538	397.403	-0.103	0.213
-213.523	-127.014	-0.052	-0.008
-212.509	372.040	-0.058	0.117
-211.494	-16.890	-0.167	0.105
-210.479	59.102	-0.100	0.097
-209.465	800.000	-0.015	0.044
-208.450	405.475	0.115	0.241
-207.436	-102.776	-0.107	0.025
-206.421	-200.000	0.002	0.436
-205.406	800.000	0.083	0.227
-204.392	378.072	0.225	0.456
-203.377	705.053	-0.148	0.388
-202.363	-200.000	0.414	-0.001
-201.348	-34.449	0.207	0.113
-200.333	-178.539	0.146	0.003
-199.319	-62.315	0.184	0.076
-198.304	-78.680	-0.175	0.059
-197.290	-39.517	-0.135	0.070
-196.275	74.230	0.088	0.092
-195.260	-93.706	0.062	0.017
-194.246	621.573	0.130	0.324
-193.231	55.154	-0.222	0.212
-192.217	-200.000	0.010	-0.091
-191.202	-200.000	-0.035	-0.286
-190.187	475.902	-0.046	0.104
-189.173	-197.480	0.162	0.001
-188.158	-150.451	-0.330	0.025
-187.144	-88.414	0.093	0.028
-186.129	-105.651	0.130	-0.029
-185.114	85.586	-0.243	-0.265
-184.100	800.000	0.095	0.316
-183.085	-117.094	-0.040	-0.007
-182.071	-200.000	0.028	-0.387
-181.056	-34.949	0.234	0.127
-180.042	101.922	0.111	0.129
-179.027	124.953	-0.095	-0.118
-178.012	101.001	0.078	-0.090
-176.998	-200.000	-0.008	-0.242
-175.983	236.313	-0.018	0.029
-174.969	151.300	0.078	0.106
-173.954	188.915	0.133	-0.197
-172.939	95.791	0.029	-0.033
-171.925	455.935	0.087	-0.192
-170.910	42.743	0.054	0.049
-169.896	48.086	0.093	0.086
-168.881	277.800	-0.302	-0.533
-167.866	-200.000	-0.024	-0.371
-166.852	720.546	0.161	-0.423
-165.837	237.182	-0.170	0.279
-164.823	72.227	-0.171	-0.176
-163.808	-200.000	-0.032	-0.205
-162.793	-200.000	0.030	-0.157
-161.779	-122.062	0.197	0.032
-160.764	57.977	0.202	-0.195
-159.750	-29.653	-0.047	-0.027
-158.735	-59.854	0.114	0.048
-157.720	-200.000	-0.003	0.237
-156.706	-166.080	0.267	0.011
-155.691	-132.408	-0.158	-0.020
-154.677	-65.319	0.122	0.049
-153.662	-137.841	-0.125	0.014
-152.647	-200.000	0.071	-0.447
-151.633	-200.000	-0.046	-0.296
-150.618	134.060	-0.149	0.191
-149.604	-18.424	0.150	-0.093
-148.589	-11.167	-0.131	0.086
-147.574	405.514	0.133	-0.278
-146.560	-23.469	-0.291	0.173
-145.545	800.000	-0.005	-0.022
-144.531	-200.000	0.000	-0.137
-143.516	-25.827	0.296	0.173
-142.502	-49.532	-0.120	0.057
-141.487	-168.994	0.395	-0.015
-140.472	29.203	-0.166	-0.140
-139.458	67.708	0.193	-0.195
-138.443	-43.501	-0.043	0.021
-137.429	305.954	0.158	0.291
-136.414	-200.000	0.060	0.327
-135.399	-200.000	0.002	-0.013
-134.385	195.091	-0.106	0.160
-133.370	-18.052	-0.128	-0.079
-132.356	-166.456	-0.271	0.011
-131.341	-151.733	0.188	-0.014
-130.326	-130.314	0.365	-0.049
-129.312	18.020	-0.127	-0.100
-128.297	-100.751	0.220	-0.054
-127.283	-46.298	0.260	-0.126
-126.268	228.969	0.076	0.122
-125.253	19.109	-0.308	0.245
-124.239	-97.020	-0.454	0.118
-123.224	-124.749	0.226	0.035
-122.210	-175.808	0.155	0.004
-121.195	-44.009	0.307	0.153
-120.180	-116.420	0.122	-0.022
-119.166	33.088	-0.190	-0.163
-118.151	28.375	-0.116	0.097
-117.137	271.349	0.068	-0.119
-116.122	800.000	-0.050	0.143
-115.107	-126.777	0.136	-0.020
-114.093	31.203	0.302	0.256
-113.078	421.389	0.067	-0.141
-112.064	139.464	0.151	-0.196
-111.049	199.952	0.121	-0.184
-110.034	-200.000	0.006	-0.145
-109.020	265.026	-0.086	0.148
-108.005	-177.113	-0.050	-0.001
-106.991	-20.129	0.104	0.063
-105.976	-74.546	-0.061	-0.022
-104.962	78.051	-0.151	0.160
-103.947	800.000	-0.056	-0.198
-102.932	30.584	-0.123	-0.104
-101.918	495.317	-0.076	-0.172
-100.903	279.053	0.282	-0.497
-99.889	-102.617	0.314	0.074
-98.874	-200.000	0.043	0.344
-97.859	-144.034	0.319	0.030
-96.845	-139.316	0.178	-0.019
-95.830	159.943	0.012	0.017
-94.816	800.000	0.065	0.237
-93.801	184.397	0.068	0.099
-92.786	80.579	0.221	0.235
-91.772	800.000	-0.020	0.067
-90.757	175.976	0.093	-0.134
-89.743	6.730	0.277	0.204
-88.728	-34.490	0.174	0.094
-87.713	-200.000	-0.010	-0.142
-86.699	343.369	0.175	0.339
-85.684	116.575	-0.233	0.282
-84.670	-200.000	0.014	-0.120
-83.655	167.533	-0.168	-0.235
-82.640	-1.794	-0.161	0.112
-81.626	6.543	0.122	-0.090
-80.611	-61.034	-0.370	0.154
-79.597	81.009	-0.287	0.306
-78.582	199.953	0.062	0.094
-77.567	65.589	-0.211	-0.211
-76.553	-7.042	-0.072	0.048
-75.538	70.918	0.180	0.184
-74.524	-200.000	-0.002	-0.349
-73.509	-74.428	0.101	-0.036
-72.494	-200.000	-0.027	0.282
-71.480	800.000	-0.054	0.176
-70.465	-187.474	-0.173	-0.002
-69.451	800.000	-0.013	-0.057
-68.436	103.839	-0.202	-0.234
-67.422	131.644	-0.199	-0.252
-66.407	148.405	-0.052	-0.070
-65.392	208.514	0.100	0.154
-64.378	-200.000	0.029	-0.135
-63.363	346.524	-0.049	0.096
-62.349	-95.051	0.137	-0.036
-61.334	3.800	-0.955	-0.688
-60.319	28.355	0.374	0.312
-59.305	-200.000	-0.054	-1.059
-58.290	530.613	0.382	0.891
-57.276	800.000	0.494	1.624
-56.261	-200.000	93.781	555.544
-55.246	621.622	1386.256	3441.082
-54.232	186.657	2609.936	3833.774
-53.217	116.864	2319.621	2808.829
-52.203	45.431	1932.221	1758.944
-51.188	39.014	1718.862	1515.349
-50.173	36.070	1673.657	1453.279
-49.159	53.146	1720.431	1624.710
-48.144	56.306	1738.678	1665.998
-47.130	38.713	1695.853	1492.537
-46.115	35.722	1680.586	1456.432
-45.100	35.561	1675.951	1451.138
-44.086	35.504	1673.427	1448.466
-43.071	35.449	1670.513	1445.470
-42.057	35.403	1668.285	1443.138
-41.042	35.591	1666.121	1442.624
-40.027	35.513	1664.184	1440.300
-39.013	35.450	1662.741	1438.527
-37.998	35.496	1660.855	1437.180
-36.984	35.456	1659.646	1435.778
-35.969	35.665	1658.160	1435.994
-34.954	35.739	1656.363	1434.940
-33.940	35.670	1654.725	1432.948
-32.925	35.627	1652.972	1431.051
-31.911	35.681	1650.613	1429.355
-30.896	35.513	1649.758	1427.308
-29.881	35.594	1647.802	1426.161
-28.867	35.582	1645.905	1424.375
-27.852	35.615	1644.869	1423.666
-26.838	35.599	1643.375	1422.194
-25.823	35.595	1642.052	1420.965
-24.809	35.668	1640.087	1419.750
-23.794	35.622	1639.527	1418.868
-22.779	35.721	1637.671	1417.938
-21.765	35.580	1636.236	1415.598
-20.750	35.564	1634.606	1414.014
-19.736	35.710	1632.593	1413.289
-18.721	35.706	1631.275	1412.061
-17.706	35.587	1629.791	1409.846
-16.692	35.687	1627.600	1408.631
-15.677	35.682	1626.406	1407.507
-14.663	35.587	1625.787	1406.220
-13.648	35.809	1623.412	1405.728
-12.633	35.702	1622.593	1404.183
-11.619	35.620	1620.598	1401.801
-10.604	35.660	1619.330	1400.941
-9.590	35.732	1618.057	1400.309
-8.575	35.653	1617.006	1398.771
-7.560	35.676	1615.183	1397.306
-6.546	35.644	1614.334	1396.278
-5.531	35.616	1613.131	1394.980
-4.517	35.653	1611.955	1394.175
-3.502	35.606	1611.121	1393.064
-2.487	35.740	1608.969	1392.118
-1.473	35.505	1597.840	1380.738
-0.458	32.407	1577.591	1341.152
0.556	30.708	1575.812	1302.518
1.571	27.648	1599.036	1299.827
2.586	26.238	1611.176	1299.444
3.600	22.867	1556.561	1231.810
4.615	14.037	1445.569	1086.415
5.629	6.194	1379.469	987.555
6.644	4.722	1370.658	971.970
7.659	4.708	1369.308	970.840
8.673	4.677	1368.308	969.848
9.688	4.743	1366.875	969.158
10.702	4.778	1364.203	967.394
11.717	8.542	1371.816	996.192
12.731	17.159	1388.037	1061.986
13.746	22.640	1395.575	1102.015
14.761	22.756	1394.233	1101.586
15.775	21.787	1392.232	1093.865
16.790	20.889	1389.576	1086.084
17.804	19.893	1387.632	1078.268
18.819	19.626	1386.585	1075.692
19.834	19.484	1384.888	1073.401
20.848	19.320	1384.141	1071.706
21.863	19.084	1382.609	1068.960
22.877	18.998	1381.888	1067.771
23.892	18.935	1381.178	1066.738
24.907	18.971	1379.628	1065.668
25.921	18.951	1379.020	1064.985
26.936	19.006	1377.778	1064.273
27.950	19.027	1377.081	1063.768
28.965	19.048	1376.224	1063.142
29.980	19.315	1375.061	1063.794
30.994	19.288	1373.971	1062.689
32.009	19.288	1372.995	1061.845
33.023	19.346	1371.534	1060.979
34.038	19.303	1369.994	1059.428
35.053	19.193	1368.958	1057.854
36.067	19.156	1367.478	1056.391
37.082	19.358	1366.621	1056.876
38.096	19.251	1366.163	1055.775
39.111	19.268	1365.013	1054.896
40.126	19.184	1364.255	1053.699
41.140	18.825	1363.092	1050.516
42.155	18.713	1362.450	1049.244
43.169	18.655	1362.446	1048.794
44.184	18.679	1362.077	1048.560
45.199	18.740	1361.601	1048.474
46.213	18.808	1361.702	1048.876
47.228	19.055	1360.538	1049.394
48.242	19.121	1359.690	1049.048
49.257	19.168	1357.716	1047.720
50.271	19.014	1356.523	1045.766
51.286	19.072	1355.553	1045.280
52.301	19.072	1353.742	1043.794
53.315	19.051	1352.480	1042.596
54.330	18.867	1351.241	1040.438
55.344	18.839	1350.093	1039.294
56.359	18.873	1349.116	1038.655
57.374	18.765	1348.470	1037.410
58.388	18.771	1347.364	1036.505
59.403	18.579	1347.609	1035.446
60.417	18.717	1346.326	1035.198
61.432	18.581	1345.587	1033.717
62.447	18.584	1344.497	1032.808
63.461	18.530	1343.296	1031.466
64.476	18.400	1342.558	1030.028
65.490	18.546	1341.310	1029.858
66.505	18.523	1339.538	1028.267
67.520	18.582	1338.407	1027.662
68.534	18.578	1337.409	1026.778
69.549	18.543	1336.302	1025.634
70.563	18.463	1335.448	1024.409
71.578	18.377	1334.245	1022.879
72.593	18.314	1333.093	1021.532
73.607	18.336	1332.537	1021.147
74.622	18.309	1331.729	1020.275
75.636	18.432	1330.649	1020.088
76.651	18.346	1330.617	1019.464
77.666	18.422	1330.069	1019.404
78.680	18.475	1329.904	1019.504
79.695	18.513	1328.707	1018.719
80.709	18.575	1327.871	1018.359
81.724	18.724	1327.771	1019.077
82.739	18.899	1326.610	1019.132
83.753	19.004	1325.785	1019.028
84.768	19.141	1324.755	1018.957
85.782	19.154	1323.815	1018.221
86.797	19.122	1322.890	1017.234
87.812	19.067	1321.391	1015.665
88.826	19.036	1320.469	1014.686
89.841	19.075	1319.252	1013.889
90.855	19.238	1318.136	1013.899
91.870	19.219	1317.695	1013.358
92.884	19.287	1317.019	1013.150
93.899	19.273	1316.364	1012.472
94.914	19.287	1315.472	1011.778
95.928	19.407	1314.322	1011.510
96.943	19.185	1313.689	1009.633
97.957	19.227	1313.162	1009.387
98.972	19.203	1311.843	1008.138
99.987	19.141	1310.517	1006.668
101.001	19.140	1310.035	1006.204
102.016	19.173	1308.498	1005.128
103.030	19.203	1307.933	1004.783
104.045	19.124	1307.031	1003.537
105.060	19.051	1305.438	1001.804
106.074	18.789	1304.136	999.187
107.089	18.569	1302.286	996.406
108.103	18.537	1301.141	995.257
109.118	18.525	1300.138	994.333
110.133	18.545	1298.564	993.156
111.147	18.629	1297.126	992.452
112.162	18.666	1295.874	991.620
113.176	18.755	1295.347	991.643
114.191	18.751	1294.592	990.954
115.206	18.768	1293.144	989.857
116.220	18.697	1291.874	988.389
117.235	18.677	1291.094	987.588
118.249	18.784	1289.297	986.743
119.264	18.601	1288.227	984.785
120.279	18.558	1287.321	983.761
121.293	18.536	1286.242	982.721
122.308	18.513	1284.864	981.452
123.322	18.341	1284.231	979.893
124.337	18.400	1283.309	979.442
125.352	18.345	1282.195	978.190
126.366	18.277	1281.335	977.061
127.381	18.273	1280.020	975.950
128.395	18.287	1279.721	975.711
129.410	18.493	1278.083	975.549
130.424	18.503	1277.988	975.447
131.439	18.606	1276.690	974.960
132.454	18.714	1275.598	974.651
133.468	18.709	1275.101	974.156
134.483	18.706	1274.432	973.545
135.497	18.751	1273.498	973.000
136.512	18.724	1272.203	971.771
137.527	18.682	1270.816	970.385
138.541	18.736	1269.432	969.550
139.556	18.835	1268.390	969.227
140.570	18.891	1267.648	968.887
141.585	18.987	1266.982	968.833
142.600	19.080	1265.710	968.298
143.614	19.195	1264.289	967.775
144.629	19.252	1263.515	967.414
145.643	19.213	1262.351	966.220
146.658	19.129	1260.825	964.495
147.673	19.012	1259.506	962.745
148.687	18.881	1258.431	961.106
149.702	18.712	1257.170	959.114
150.716	18.714	1255.836	958.025
151.731	18.733	1254.494	957.022
152.746	18.772	1252.974	955.993
153.760	18.797	1252.252	955.495
154.775	18.828	1251.475	954.995
155.789	18.966	1250.119	954.637
156.804	18.933	1249.462	953.871
157.819	19.111	1247.766	953.480
158.833	19.138	1247.193	953.106
159.848	19.231	1246.863	953.282
160.862	19.188	1245.266	951.738
161.877	18.977	1244.104	949.600
162.892	18.923	1242.830	948.245
163.906	18.732	1242.115	946.567
164.921	18.754	1241.374	946.036
165.935	18.824	1240.781	945.885
166.950	18.981	1239.647	945.802
167.964	18.940	1239.049	945.036
168.979	18.963	1237.774	944.107
169.994	18.888	1237.360	943.295
171.008	18.860	1237.002	942.790
172.023	19.142	1235.844	943.364
173.037	19.171	1235.437	943.133
174.052	19.130	1234.344	941.991
175.067	19.039	1233.181	940.524
176.081	18.843	1231.779	938.296
177.096	18.811	1231.176	937.580
178.110	18.925	1229.780	937.058
179.125	18.940	1228.913	936.396
180.140	18.971	1227.626	935.498
181.154	19.115	1227.086	935.790
182.169	19.239	1225.409	935.102
183.183	19.221	1224.277	934.055
184.198	19.334	1223.248	933.798
185.213	19.384	1222.151	933.152
186.227	19.401	1221.080	932.342
187.242	19.448	1220.527	932.091
188.256	19.366	1219.863	931.059
189.271	19.505	1218.495	930.682
190.286	19.256	1216.997	928.117
191.300	18.956	1215.932	925.605
192.315	18.765	1215.213	923.952
193.329	18.843	1214.885	924.038
194.344	18.972	1214.010	923.981
195.359	19.053	1213.593	924.020
196.373	19.159	1213.422	924.374
197.388	19.154	1212.920	923.884
198.402	19.483	1212.526	925.265
199.417	19.478	1212.589	925.207
200.432	19.596	1211.487	924.918
201.446	19.671	1211.251	925.053
202.461	19.747	1210.014	924.438
203.475	19.941	1208.466	924.208
204.490	19.694	1207.585	922.134
205.504	19.432	1206.186	919.587
206.519	19.391	1205.481	918.748
207.534	19.411	1203.417	917.201
208.548	19.406	1202.939	916.729
209.563	19.295	1202.376	915.628
210.577	19.414	1201.181	915.271
211.592	19.416	1200.707	914.838
212.607	19.588	1200.346	915.393
213.621	19.590	1199.395	914.601
214.636	19.521	1198.284	913.308
215.650	19.583	1197.302	912.805
216.665	19.680	1196.403	912.551
217.680	19.754	1196.052	912.592
218.694	19.907	1194.702	912.290
219.709	19.830	1194.047	911.302
220.723	19.780	1193.261	910.357
221.738	19.850	1192.301	909.916
222.753	19.735	1191.895	908.916
223.767	19.827	1190.935	908.591
224.782	19.938	1190.501	908.760
225.796	19.930	1190.388	908.554
226.811	19.965	1189.085	907.658
227.826	19.833	1188.316	906.302
228.840	19.779	1187.858	905.592
229.855	19.718	1186.906	904.462
230.869	19.740	1185.940	903.763
231.884	19.609	1184.981	902.268
232.899	19.600	1184.242	901.578
233.913	19.542	1183.572	900.685
234.928	19.461	1182.640	899.474
235.942	19.479	1181.836	898.875
236.957	19.488	1181.177	898.345
237.972	19.556	1180.084	897.785
238.986	19.588	1179.744	897.614
240.001	19.618	1178.695	896.896
241.015	19.572	1178.141	896.152
242.030	19.639	1177.590	896.003
243.045	19.731	1176.558	895.616
244.059	19.732	1176.230	895.291
245.074	19.843	1175.151	894.964
246.088	19.905	1174.373	894.614
247.103	19.915	1173.718	894.087
248.117	20.095	1173.502	894.773
249.132	20.158	1172.860	894.527
250.147	20.337	1172.484	895.088
251.161	20.512	1171.706	895.313
252.176	20.551	1171.036	894.925
253.190	20.605	1170.324	894.580
254.205	20.820	1169.508	894.980
255.220	20.854	1169.148	894.803
256.234	20.567	1168.555	892.792
257.249	20.581	1167.751	892.171
258.263	20.644	1167.057	891.889
259.278	20.687	1166.395	891.520
260.293	20.616	1166.138	890.884
261.307	20.643	1165.768	890.660
262.322	20.699	1164.799	890.125
263.336	20.861	1163.786	890.104
264.351	20.738	1163.454	889.139
265.366	20.798	1162.986	889.012
266.380	20.878	1162.152	888.703
267.395	20.709	1161.091	886.953
268.409	20.587	1160.144	885.531
269.424	20.640	1159.457	885.194
270.439	20.673	1158.611	884.639
271.453	20.535	1158.434	883.724
272.468	20.460	1157.100	882.249
273.482	20.494	1156.159	881.627
274.497	20.469	1155.974	881.278
275.512	20.476	1155.149	880.605
276.526	20.463	1154.514	879.981
277.541	20.488	1153.533	879.282
278.555	20.633	1152.842	879.407
279.570	20.835	1151.977	879.689
280.585	20.822	1151.853	879.453
281.599	20.874	1150.943	878.944
282.614	20.833	1149.722	877.725
283.628	20.584	1148.381	875.372
284.643	20.614	1147.379	874.683
285.657	20.624	1146.812	874.222
286.672	20.616	1145.720	873.273
287.687	20.648	1144.963	872.780
288.701	20.744	1144.248	872.639
289.716	20.649	1143.555	871.555
290.730	20.756	1142.545	871.245
291.745	20.718	1142.168	870.691
292.760	20.679	1141.902	870.215
293.774	20.823	1140.784	870.004
294.789	20.942	1140.509	870.311
295.803	21.095	1139.797	870.457
296.818	20.752	1139.434	868.388
297.833	20.756	1138.327	867.488
298.847	20.868	1137.136	867.061
299.862	20.823	1136.566	866.328
300.876	20.809	1135.699	865.519
301.891	20.779	1135.396	865.066
302.906	20.930	1134.586	865.121
303.920	21.089	1134.187	865.530
304.935	21.181	1133.803	865.613
305.949	21.312	1132.555	865.235
306.964	21.207	1132.165	864.338
307.979	21.171	1131.486	863.568
308.993	21.122	1130.627	862.591
310.008	21.145	1129.837	862.029
311.022	21.250	1129.071	861.884
312.037	21.290	1127.968	861.164
313.052	21.085	1126.939	859.295
314.066	20.957	1126.057	857.913
315.081	20.751	1125.494	856.395
316.095	20.719	1124.511	855.414
317.110	20.899	1123.410	855.386
318.125	20.888	1123.048	854.981
319.139	20.758	1122.510	853.857
320.154	20.765	1121.988	853.419
321.168	20.921	1120.740	853.159
322.183	20.904	1120.357	852.708
323.197	20.965	1119.772	852.487
324.212	20.958	1119.488	852.161
325.227	20.940	1118.936	851.574
326.241	21.001	1118.307	851.319
327.256	20.982	1116.693	849.925
328.270	20.877	1116.268	849.014
329.285	20.975	1115.246	848.639
330.300	20.995	1114.314	847.951
331.314	20.845	1113.571	846.582
332.329	20.994	1112.317	846.277
333.343	21.023	1111.725	845.891
334.358	21.111	1110.993	845.686
335.373	21.102	1110.473	845.170
336.387	21.207	1109.821	845.108
337.402	21.292	1108.873	844.726
338.416	21.334	1108.512	844.578
339.431	21.413	1107.610	844.197
340.446	21.536	1107.029	844.270
341.460	21.559	1106.620	843.997
342.475	21.629	1105.745	843.593
343.489	21.558	1105.117	842.695
344.504	21.824	1103.816	842.909
345.519	21.756	1103.295	842.111
346.533	21.887	1102.426	841.998
347.548	21.888	1101.967	841.580
348.562	21.727	1101.014	840.006
349.577	21.670	1099.839	838.762
350.592	21.471	1099.093	837.166
351.606	21.460	1098.376	836.495
352.621	21.305	1097.643	835.120
353.635	21.218	1097.211	834.303
354.650	21.308	1096.397	834.041
355.665	21.427	1095.623	833.944
356.679	21.528	1094.736	833.675
357.694	21.572	1094.602	833.708
358.708	21.590	1093.493	832.878
359.723	21.682	1093.147	832.978
360.738	21.547	1092.751	831.963
361.752	21.723	1091.863	832.046
362.767	21.538	1091.599	830.894
363.781	21.657	1090.948	830.888
364.796	21.786	1090.832	831.340
365.810	21.817	1090.142	830.887
366.825	21.972	1089.265	830.881
367.840	22.119	1088.846	831.181
368.854	22.235	1088.587	831.459
369.869	22.055	1087.768	829.907
370.883	21.965	1086.595	828.513
371.898	21.878	1085.945	827.536
372.913	22.001	1084.972	827.302
373.927	22.078	1084.335	827.103
374.942	22.048	1084.230	826.808
375.956	22.096	1084.003	826.790
376.971	21.997	1083.041	825.517
377.986	22.178	1082.794	826.107
379.000	22.215	1082.213	825.767
380.015	22.327	1081.724	825.845
381.029	22.355	1080.869	825.249
382.044	22.414	1080.080	824.850
383.059	22.400	1079.442	824.226
384.073	22.270	1078.611	822.907
385.088	22.362	1077.839	822.675
386.102	22.215	1076.772	821.105
387.117	22.228	1075.608	820.205
388.132	22.091	1073.977	818.249
389.146	21.992	1073.921	817.673
390.161	21.976	1073.493	817.199
391.175	22.010	1072.451	816.491
392.190	22.130	1071.827	816.504
393.205	22.324	1071.381	816.990
394.219	22.291	1070.489	816.086
395.234	22.166	1069.375	814.587
396.248	22.166	1068.530	813.871
397.263	22.106	1067.339	812.612
398.278	21.989	1066.872	811.646
399.292	21.920	1065.961	810.562
400.307	21.931	1065.046	809.843
401.321	21.948	1064.288	809.273
402.336	21.890	1063.990	808.710
403.350	21.966	1062.912	808.168
404.365	21.924	1062.533	807.615
405.380	22.085	1062.094	807.951
406.394	22.109	1061.302	807.387
407.409	22.221	1060.757	807.417
408.423	22.476	1060.006	807.941
409.438	22.527	1059.069	807.392
410.453	22.614	1058.754	807.476
411.467	22.570	1058.181	806.766
412.482	22.643	1057.484	806.497
413.496	22.801	1056.799	806.629
414.511	22.780	1056.400	806.157
415.526	22.869	1056.251	806.378
416.540	22.910	1055.525	805.941
417.555	22.942	1054.687	805.372
418.569	22.690	1054.373	803.915
419.584	22.718	1053.911	803.617
420.599	22.638	1053.359	802.763
421.613	153.718	1400.252	1786.102
422.628	141.138	1450.799	1786.232
