DTS Sentinel unit serial number:	SN413079Multiplexer serial number:	ORYXHardware model number:	OX4-SRSoftware version number:	ORYX F/W v4.00 Oryx Data Collector v3.7.2.0data status	okinstallation	princeton_trtdifferential loss correction	single-endedforward channel	channel 2reverse channel	N/Adate	2019/09/12time	18:55:49forward acquisition time	15.00reverse acquisition time	0.00gamma	496.2192k internal	0.2324k external	0.2324temperature offset calibration	1.0135default loss term (dB/km)	0.3790temperature slope calibration	1.0000multiplexer offset coefficient	1.0000multiplexer slope coefficient	1.0000fibre end	0.00T internal ref (°C)	32.81T ext. ref 1 (°C)	3.02T ext. ref 2 (°C)	27.38length (m)	temperature (°C)	Stokes	anti-Stokes-747.200	120.933	-0.227	-0.286
-746.185	-200.000	-0.050	0.319
-745.171	-200.000	0.121	-0.991
-744.156	272.389	-0.495	-0.882
-743.142	-141.657	0.636	-0.065
-742.127	-190.341	0.064	-0.001
-741.112	591.609	0.099	-0.247
-740.098	51.682	0.718	0.689
-739.083	-200.000	-0.089	-0.928
-738.069	767.668	0.173	0.474
-737.054	-76.497	-0.827	-0.293
-736.039	-0.235	-0.155	0.111
-735.025	-44.830	-0.155	-0.078
-734.010	-59.252	-0.212	-0.092
-732.996	69.595	-1.125	-1.169
-731.981	215.525	-0.495	-0.793
-730.966	-55.626	0.851	-0.384
-729.952	800.000	-0.066	0.240
-728.937	62.984	-0.394	0.398
-727.923	-200.000	-0.069	-0.362
-726.908	-28.742	0.486	-0.282
-725.894	-72.146	0.363	-0.136
-724.879	65.823	-0.538	-0.550
-723.864	1.453	0.133	0.096
-722.850	159.965	0.176	-0.247
-721.835	-83.869	-1.217	0.391
-720.821	-50.679	0.638	-0.303
-719.806	202.179	0.335	0.521
-718.791	324.512	0.223	0.430
-717.777	132.151	0.401	0.521
-716.762	721.457	0.231	0.621
-715.748	-200.000	-0.004	0.875
-714.733	-87.732	0.098	-0.030
-713.718	282.764	-0.157	0.283
-712.704	-200.000	-0.069	-0.880
-711.689	243.814	-0.155	-0.262
-710.675	335.442	-0.384	-0.750
-709.660	116.061	0.302	0.373
-708.645	-144.648	0.873	-0.081
-707.631	-14.241	-0.531	0.345
-706.616	-200.000	-0.078	-0.811
-705.602	116.134	-0.264	0.326
-704.587	-200.000	-0.034	0.591
-703.572	-94.355	-0.449	-0.124
-702.558	159.099	0.260	-0.365
-701.543	-107.823	0.444	0.097
-700.529	-124.939	-0.766	0.119
-699.514	-60.319	0.672	0.288
-698.499	26.882	0.471	0.398
-697.485	-22.961	-0.389	-0.236
-696.470	-200.000	0.094	0.488
-695.456	172.124	-0.114	-0.165
-694.441	292.286	-0.050	0.091
-693.426	27.972	-0.389	-0.330
-692.412	270.272	0.265	0.470
-691.397	242.202	-0.060	0.102
-690.383	-200.000	0.005	0.099
-689.368	382.302	0.262	-0.543
-688.354	-66.009	0.613	0.246
-687.339	44.794	0.616	-0.571
-686.324	27.291	0.393	-0.332
-685.310	-83.845	0.987	-0.317
-684.295	8.066	-0.360	0.272
-683.281	-129.416	0.281	0.039
-682.266	-12.918	-0.701	-0.460
-681.251	-54.223	0.717	0.328
-680.237	38.745	0.105	0.095
-679.222	62.828	-0.148	0.149
-678.208	-91.250	0.609	0.176
-677.193	9.945	0.795	-0.608
-676.178	-24.458	0.121	0.073
-675.164	-200.000	0.001	-0.396
-674.149	302.891	0.402	0.749
-673.135	-71.366	0.423	0.160
-672.120	415.605	0.182	0.391
-671.105	-200.000	-0.018	0.878
-670.091	-200.000	0.015	-0.122
-669.076	418.638	0.158	0.340
-668.062	-117.916	-0.162	0.029
-667.047	467.886	-0.114	-0.258
-666.032	-2.753	-0.279	0.196
-665.018	800.000	0.195	-0.694
-664.003	85.162	0.189	-0.209
-662.989	99.414	-0.417	0.485
-661.974	800.000	-0.083	-0.248
-660.959	-60.332	0.357	-0.153
-659.945	-200.000	0.110	0.548
-658.930	800.000	0.229	-0.646
-657.916	800.000	0.011	0.045
-656.901	800.000	-0.158	-0.445
-655.886	-200.000	0.076	0.610
-654.872	-200.000	0.111	-0.614
-653.857	-50.084	0.831	0.396
-652.843	-126.798	0.585	0.087
-651.828	323.345	0.208	-0.399
-650.814	43.501	-0.316	-0.291
-649.799	344.237	0.374	-0.739
-648.784	61.324	0.123	-0.123
-647.770	-83.485	0.579	0.186
-646.755	-109.808	-0.919	0.194
-645.741	771.312	0.208	0.569
-644.726	54.239	0.255	0.247
-643.711	126.802	-0.325	-0.414
-642.697	32.074	-0.723	-0.627
-641.682	-83.620	-0.217	0.070
-640.668	-200.000	-0.009	-0.359
-639.653	800.000	0.200	-0.675
-638.638	-37.658	-0.411	0.220
-637.624	-92.109	0.826	-0.235
-636.609	800.000	0.230	0.790
-635.595	-34.302	-0.461	-0.254
-634.580	101.616	0.320	-0.375
-633.565	-127.829	0.630	0.091
-632.551	-74.004	-0.091	0.033
-631.536	-200.000	0.003	-0.657
-630.522	-200.000	0.013	-0.524
-629.507	261.860	0.250	0.435
-628.492	-113.296	-0.210	0.041
-627.478	800.000	-0.082	0.357
-626.463	-200.000	-0.026	0.266
-625.449	15.797	0.405	0.320
-624.434	800.000	-0.257	0.719
-623.419	6.164	0.239	-0.178
-622.405	-200.000	-0.089	-0.630
-621.390	-110.837	-1.053	-0.218
-620.376	-200.000	0.039	0.190
-619.361	-131.069	-0.437	-0.058
-618.346	-200.000	0.159	-0.797
-617.332	800.000	0.204	0.732
-616.317	-123.055	-1.291	-0.208
-615.303	377.779	-0.332	0.682
-614.288	-48.274	0.705	-0.342
-613.273	-97.071	-0.395	-0.104
-612.259	-165.750	-0.774	-0.034
-611.244	-200.000	-0.082	0.534
-610.230	800.000	0.088	0.264
-609.215	235.504	-0.337	-0.560
-608.201	-97.543	0.289	0.075
-607.186	-85.575	0.841	-0.262
-606.171	-87.188	1.392	0.425
-605.157	45.056	-0.208	-0.192
-604.142	800.000	-0.044	-0.160
-603.128	-119.873	0.431	0.074
-602.113	800.000	0.039	0.167
-601.098	-115.794	0.264	0.050
-600.084	209.546	-0.264	-0.415
-599.069	20.749	-0.673	-0.547
-598.055	-130.486	0.171	0.023
-597.040	-200.000	-0.074	0.397
-596.025	-144.299	0.101	-0.009
-595.011	-200.000	-0.084	-0.485
-593.996	-140.767	1.423	0.147
-592.982	-200.000	0.051	0.237
-591.967	-200.000	-0.013	-0.339
-590.952	119.461	-0.481	-0.597
-589.938	329.519	-0.133	-0.257
-588.923	-53.261	-0.127	0.059
-587.909	593.307	-0.389	-0.964
-586.894	110.538	-0.129	-0.155
-585.879	800.000	-0.119	-0.373
-584.865	-25.591	0.521	-0.308
-583.850	800.000	0.068	0.194
-582.836	19.507	0.840	0.678
-581.821	-39.769	-0.562	0.295
-580.806	800.000	0.161	-0.628
-579.792	88.918	0.073	-0.081
-578.777	-97.740	-0.413	0.107
-577.763	-200.000	0.041	-0.529
-576.748	314.068	-0.166	0.314
-575.733	131.239	-0.393	-0.507
-574.719	-36.519	-0.437	0.236
-573.704	-111.964	-0.289	-0.058
-572.690	523.491	0.155	-0.364
-571.675	-200.000	-0.088	1.131
-570.661	-200.000	0.079	-1.032
-569.646	255.783	0.310	0.532
-568.631	-176.195	0.365	0.010
-567.617	120.879	0.168	0.209
-566.602	202.271	0.416	-0.643
-565.588	-15.429	-0.374	0.240
-564.573	-200.000	-0.132	0.648
-563.558	-131.989	0.516	0.067
-562.544	256.918	-0.369	-0.635
-561.529	-103.629	-0.255	-0.060
-560.515	-3.646	0.046	0.032
-559.500	232.382	0.323	-0.532
-558.485	800.000	0.187	0.549
-557.471	240.396	-0.314	0.525
-556.456	402.718	0.139	-0.293
-555.442	447.400	-0.381	-0.841
-554.427	-57.328	-0.478	0.211
-553.412	-37.831	0.861	0.459
-552.398	-200.000	-0.046	0.355
-551.383	-90.130	0.084	0.025
-550.369	385.113	0.351	-0.726
-549.354	459.350	0.431	-0.960
-548.339	-36.096	-0.417	0.226
-547.325	164.525	0.292	-0.413
-546.310	-58.736	0.458	-0.198
-545.296	-200.000	0.086	0.671
-544.281	-87.084	-0.286	-0.087
-543.266	144.044	0.254	-0.339
-542.252	-134.910	-0.389	0.047
-541.237	-200.000	0.068	0.430
-540.223	800.000	0.119	-0.346
-539.208	800.000	0.008	-0.031
-538.193	378.671	-0.317	0.649
-537.179	94.921	-0.476	0.542
-536.164	-11.878	-0.198	0.130
-535.150	12.089	0.626	0.482
-534.135	-200.000	0.101	-0.911
-533.121	30.621	-0.487	0.417
-532.106	-105.013	0.342	-0.078
-531.091	-76.492	-0.225	0.079
-530.077	-120.997	0.428	-0.072
-529.062	-42.265	0.457	-0.234
-528.048	522.322	0.068	0.159
-527.033	-22.852	0.375	0.226
-526.018	34.782	-0.338	0.295
-525.004	8.659	-0.589	0.444
-523.989	-129.358	-0.528	0.073
-522.975	800.000	0.156	0.505
-521.960	-112.100	0.238	-0.048
-520.945	336.770	-0.161	0.313
-519.931	-30.212	-0.802	-0.456
-518.916	234.824	-0.294	-0.485
-517.902	92.184	-0.252	-0.284
-516.887	-12.920	0.881	0.574
-515.872	335.359	-0.166	-0.323
-514.858	449.084	0.257	-0.567
-513.843	-97.807	0.045	-0.012
-512.829	133.894	0.220	-0.285
-511.814	446.155	-0.244	-0.537
-510.799	514.096	0.384	-0.897
-509.785	-200.000	-0.029	0.150
-508.770	108.875	-0.478	-0.571
-507.756	-114.427	-0.614	-0.118
-506.741	-86.255	0.242	0.075
-505.726	-200.000	0.013	0.207
-504.712	-63.568	-0.602	-0.247
-503.697	754.562	-0.317	0.858
-502.683	523.872	0.411	0.966
-501.668	-98.289	0.290	-0.074
-500.653	-86.671	-0.321	0.098
-499.639	-200.000	-0.034	0.243
-498.624	549.744	0.432	1.036
-497.610	337.336	0.105	0.204
-496.595	800.000	-0.158	-0.643
-495.581	25.696	0.452	0.376
-494.566	368.244	-0.578	-1.168
-493.551	20.825	-1.181	-0.957
-492.537	314.288	-0.492	0.926
-491.522	50.972	-0.404	-0.382
-490.508	-128.021	-0.333	0.048
-489.493	-200.000	-0.037	0.272
-488.478	-161.307	-0.926	0.048
-487.464	-154.364	-0.934	-0.063
-486.449	800.000	-0.263	0.945
-485.435	-200.000	0.079	1.051
-484.420	-200.000	0.018	0.342
-483.405	-200.000	-0.005	-0.186
-482.391	800.000	0.276	0.807
-481.376	-4.685	-0.304	0.210
-480.362	-36.417	0.505	-0.272
-479.347	-200.000	-0.018	-0.207
-478.332	-200.000	0.006	-0.829
-477.318	-66.442	-0.944	0.374
-476.303	800.000	-0.027	0.112
-475.289	-135.259	0.449	0.054
-474.274	161.310	-0.364	0.509
-473.259	-200.000	-0.073	0.000
-472.245	-200.000	-0.848	-0.001
-471.230	-200.000	-0.045	-0.519
-470.216	800.000	-0.104	-0.327
-469.201	-27.926	-0.712	-0.412
-468.186	-21.922	1.136	0.689
-467.172	-147.666	-0.824	-0.069
-466.157	-83.387	0.036	0.012
-465.143	-200.000	-0.046	0.356
-464.128	288.362	-0.158	-0.285
-463.113	-85.839	0.213	-0.066
-462.099	445.912	-0.293	-0.643
-461.084	467.486	0.071	0.159
-460.070	149.746	-0.398	-0.538
-459.055	-40.754	0.552	0.285
-458.040	353.959	-0.036	-0.071
-457.026	40.871	0.354	0.319
-456.011	-200.000	-0.103	-0.660
-454.997	-131.550	-0.376	-0.049
-453.982	58.006	-0.990	-0.967
-452.968	-96.315	0.372	0.098
-451.953	64.628	-0.207	0.209
-450.938	-8.819	0.486	0.325
-449.924	-84.195	0.642	0.203
-448.909	-89.521	0.458	0.134
-447.895	-110.722	-0.734	0.151
-446.880	254.167	-0.448	-0.765
-445.865	2.514	0.566	-0.409
-444.851	-118.865	-0.697	-0.122
-443.836	-200.000	-0.033	-0.201
-442.822	100.007	-0.312	0.361
-441.807	-200.000	-0.079	0.467
-440.792	201.552	0.461	-0.709
-439.778	-65.374	0.823	0.330
-438.763	4.681	-0.466	-0.341
-437.749	-125.691	-0.567	0.086
-436.734	-200.000	0.681	-0.003
-435.719	23.812	-0.503	0.414
-434.705	-41.118	0.439	-0.226
-433.690	-105.161	1.157	0.263
-432.676	153.135	0.404	0.551
-431.661	-200.000	-0.014	0.245
-430.646	-112.093	-0.094	0.019
-429.632	128.139	-0.420	0.533
-428.617	-24.390	0.358	0.213
-427.603	-81.647	-0.718	-0.235
-426.588	500.390	0.211	-0.485
-425.573	-92.353	0.075	-0.021
-424.559	-200.000	0.077	0.416
-423.544	205.532	-0.428	-0.664
-422.530	380.010	0.261	0.533
-421.515	328.881	-0.418	0.800
-420.500	-136.466	-1.127	-0.130
-419.486	61.385	0.571	-0.566
-418.471	-87.314	-0.674	-0.204
-417.457	-50.971	0.711	0.333
-416.442	-63.219	-0.527	-0.216
-415.428	124.651	0.915	-1.148
-414.413	-48.761	0.328	-0.157
-413.398	-200.000	0.000	0.811
-412.384	494.377	-0.354	0.810
-411.369	698.816	-0.396	1.037
-410.355	-14.205	-0.458	0.295
-409.340	800.000	-0.182	0.554
-408.325	-200.000	-0.100	0.770
-407.311	126.401	0.380	-0.479
-406.296	96.726	0.632	0.721
-405.282	143.397	-0.132	-0.175
-404.267	167.942	-0.290	-0.411
-403.252	45.603	0.568	-0.522
-402.238	-200.000	0.142	-1.302
-401.223	-88.149	0.121	0.036
-400.209	-112.962	-0.517	0.102
-399.194	663.122	-0.285	0.733
-398.179	-143.604	0.897	-0.085
-397.165	-91.248	-0.209	-0.060
-396.150	139.851	0.164	0.215
-395.136	193.518	0.092	-0.139
-394.121	-120.417	0.313	-0.053
-393.106	127.218	-0.054	0.069
-392.092	-80.509	0.619	0.205
-391.077	104.241	-0.097	-0.114
-390.063	-92.743	0.603	0.168
-389.048	217.700	0.272	0.431
-388.033	622.630	-0.050	0.125
-387.019	800.000	-0.123	0.345
-386.004	-200.000	-0.048	0.296
-384.990	-200.000	0.013	-0.832
-383.975	800.000	0.151	-0.589
-382.960	-142.838	-0.855	-0.083
-381.946	20.506	0.676	0.544
-380.931	164.931	0.193	0.271
-379.917	-104.063	0.152	0.035
-378.902	3.471	0.449	0.326
-377.888	-200.000	-0.009	0.100
-376.873	146.501	0.391	0.523
-375.858	-145.835	0.274	0.024
-374.844	-200.000	-0.027	0.591
-373.829	-33.188	0.244	-0.134
-372.815	-34.783	-0.598	0.325
-371.800	800.000	-0.192	0.548
-370.785	-200.000	0.132	-0.960
-369.771	-160.373	0.706	-0.038
-368.756	800.000	-0.098	-0.289
-367.742	800.000	0.118	-0.365
-366.727	-124.435	-0.430	0.067
-365.712	800.000	0.241	1.021
-364.698	789.404	-0.112	-0.307
-363.683	23.251	0.451	0.368
-362.669	221.459	0.144	-0.229
-361.654	13.699	0.249	-0.192
-360.639	800.000	0.196	0.620
-359.625	-56.385	-0.442	-0.195
-358.610	-113.366	-0.813	-0.159
-357.596	177.073	-0.248	-0.359
-356.581	139.413	-0.460	-0.602
-355.566	529.878	0.117	-0.274
-354.552	-90.938	-0.255	-0.073
-353.537	521.792	0.289	-0.674
-352.523	-132.394	-0.019	0.002
-351.508	132.576	-0.662	-0.848
-350.493	-141.364	0.255	0.026
-349.479	-200.000	0.042	0.535
-348.464	-200.000	-0.066	-0.491
-347.450	-32.108	0.033	-0.018
-346.435	132.234	0.523	-0.670
-345.420	800.000	-0.224	-0.663
-344.406	-21.033	0.241	-0.146
-343.391	172.407	0.034	-0.049
-342.377	47.550	-0.262	-0.243
-341.362	624.472	-0.258	-0.647
-340.348	-40.224	0.649	0.335
-339.333	-200.000	-0.047	-0.612
-338.318	110.360	0.357	0.426
-337.304	-88.332	0.358	0.106
-336.289	417.319	-0.594	1.261
-335.275	800.000	0.101	0.306
-334.260	-70.102	0.546	0.206
-333.245	42.966	0.642	0.581
-332.231	490.937	0.136	0.310
-331.216	69.618	0.411	-0.420
-330.202	-200.000	-0.028	0.685
-329.187	-200.000	-0.022	-0.239
-328.172	38.261	0.199	0.176
-327.158	79.235	-0.139	0.148
-326.143	-17.631	-0.292	0.182
-325.129	38.621	0.642	-0.569
-324.114	-60.913	-0.390	-0.164
-323.099	151.055	-0.397	-0.536
-322.085	59.285	0.051	0.050
-321.070	-181.072	-0.545	0.011
-320.056	-74.558	-0.798	-0.285
-319.041	46.180	-0.299	0.275
-318.026	800.000	0.316	1.064
-317.012	-200.000	-0.855	-0.001
-315.997	-107.637	-1.088	0.236
-314.983	49.395	0.345	0.322
-313.968	-48.131	-0.324	0.155
-312.953	47.326	0.410	0.379
-311.939	88.336	-0.155	-0.171
-310.924	-0.540	-0.045	-0.032
-309.910	800.000	-0.134	-0.514
-308.895	16.761	0.148	-0.116
-307.880	162.653	0.239	-0.333
-306.866	800.000	0.151	-0.533
-305.851	39.572	0.123	-0.109
-304.837	3.554	0.283	-0.205
-303.822	16.102	0.483	0.378
-302.807	-200.000	0.094	0.412
-301.793	-180.016	-0.138	-0.003
-300.778	800.000	0.140	0.559
-299.764	800.000	0.109	-0.366
-298.749	-200.000	0.042	0.490
-297.735	189.210	-0.348	0.518
-296.720	-136.233	0.163	-0.019
-295.705	-200.000	0.097	0.697
-294.691	-200.000	-0.099	0.604
-293.676	800.000	-0.220	0.657
-292.662	43.135	0.487	-0.441
-291.647	69.064	0.066	-0.067
-290.632	136.745	0.231	0.298
-289.618	-200.000	-0.104	-1.014
-288.603	116.945	0.102	-0.125
-287.589	-126.537	0.972	0.143
-286.574	-186.893	-0.205	-0.003
-285.559	-200.000	-0.030	-0.404
-284.545	-137.807	-0.572	-0.063
-283.530	800.000	0.081	-0.266
-282.516	-42.699	-0.359	0.181
-281.501	520.759	-0.277	-0.645
-280.486	798.631	-0.286	-0.782
-279.472	-52.740	-0.342	0.156
-278.457	800.000	0.084	-0.292
-277.443	-161.596	-0.700	0.036
-276.428	-68.603	0.236	0.090
-275.413	800.000	0.106	-0.298
-274.399	-103.291	0.590	0.138
-273.384	110.591	0.233	0.277
-272.370	-200.000	0.072	0.428
-271.355	-129.458	0.353	0.048
-270.340	-34.068	0.280	0.153
-269.326	406.652	-0.108	0.226
-268.311	-187.310	-0.220	0.003
-267.297	60.857	0.449	-0.441
-266.282	-200.000	-0.020	-0.236
-265.267	253.464	-0.132	0.223
-264.253	-137.679	0.404	0.045
-263.238	-85.636	0.763	0.235
-262.224	60.206	0.034	-0.033
-261.209	-83.610	-0.117	0.037
-260.195	659.715	-0.238	0.606
-259.180	-47.784	0.889	0.427
-258.165	-47.368	0.330	-0.159
-257.151	540.664	0.328	0.774
-256.136	800.000	-0.109	-0.447
-255.122	800.000	-0.241	0.938
-254.107	391.148	0.102	0.210
-253.092	-181.740	0.813	0.015
-252.078	351.136	0.231	0.453
-251.063	346.087	0.497	0.967
-250.049	184.139	0.314	0.460
-249.034	-105.432	-0.557	-0.125
-248.019	-11.758	1.122	0.729
-247.005	33.279	0.337	-0.289
-245.990	-69.058	0.333	-0.127
-244.976	-200.000	-0.036	0.262
-243.961	-41.767	-0.314	0.159
-242.946	-122.922	-1.110	-0.177
-241.932	164.145	-0.398	0.554
-240.917	192.933	0.576	-0.862
-239.903	88.659	0.382	-0.420
-238.888	634.597	-0.114	-0.286
-237.873	119.997	0.206	0.253
-236.859	58.268	0.323	0.314
-235.844	800.000	-0.179	0.668
-234.830	124.854	-0.253	-0.316
-233.815	-138.946	-0.680	-0.073
-232.800	22.582	-0.332	-0.269
-231.786	181.542	0.267	-0.388
-230.771	312.427	-0.197	-0.367
-229.757	55.668	-0.564	0.541
-228.742	478.613	0.128	0.286
-227.727	-126.620	-0.865	-0.127
-226.713	-47.345	-0.550	0.265
-225.698	-11.313	0.528	-0.344
-224.684	58.933	-0.106	0.103
-223.669	-124.228	0.489	0.076
-222.655	-200.000	-0.107	0.583
-221.640	800.000	-0.134	-0.391
-220.625	134.157	-0.258	-0.331
-219.611	-121.298	-0.328	0.054
-218.596	-200.000	-0.110	0.583
-217.582	-200.000	0.009	0.675
-216.567	274.910	0.143	-0.251
-215.552	15.204	0.558	0.433
-214.538	-9.413	0.627	-0.414
-213.523	-200.000	0.118	-0.562
-212.509	-200.000	0.662	0.002
-211.494	226.661	0.375	-0.601
-210.479	-40.225	0.358	-0.184
-209.465	143.609	-0.357	0.470
-208.450	169.272	0.195	-0.275
-207.436	758.218	-0.104	-0.278
-206.421	-10.050	-0.693	-0.455
-205.406	286.944	-0.283	0.506
-204.392	211.069	0.253	0.393
-203.377	15.495	-0.490	0.380
-202.363	-200.000	-0.118	0.879
-201.348	-115.737	-0.361	0.067
-200.333	-110.865	0.933	-0.190
-199.319	800.000	0.084	0.357
-198.304	21.525	0.728	0.585
-197.290	-106.247	-0.279	0.062
-196.275	800.000	-0.083	-0.319
-195.260	-95.726	0.891	-0.235
-194.246	-200.000	-0.044	-0.618
-193.231	-200.000	-0.052	0.509
-192.217	-124.508	-0.299	-0.046
-191.202	90.592	0.446	0.493
-190.187	7.121	-0.457	-0.336
-189.173	-75.062	-0.549	0.194
-188.158	-200.000	0.131	-0.626
-187.144	-200.000	0.104	-0.582
-186.129	-112.039	0.444	0.088
-185.114	414.973	-0.335	-0.704
-184.100	-200.000	-0.001	-0.674
-183.085	-200.000	0.052	0.478
-182.071	147.641	-0.250	0.333
-181.056	202.097	0.299	-0.455
-180.042	687.558	-0.274	-0.707
-179.027	-46.641	-0.554	0.268
-178.012	-52.922	0.978	0.445
-176.998	277.745	0.469	0.825
-175.983	-115.852	-0.659	0.122
-174.969	561.387	-0.230	-0.550
-173.954	-69.625	-0.443	0.167
-172.939	375.122	-0.211	0.424
-171.925	-200.000	0.005	0.203
-170.910	766.801	0.362	-0.970
-169.896	628.369	0.083	-0.207
-168.881	-83.331	0.736	0.233
-167.866	-125.813	-0.807	-0.120
-166.852	218.209	0.464	-0.730
-165.837	-101.743	0.530	0.127
-164.823	-58.941	-0.172	0.073
-163.808	800.000	0.286	-0.826
-162.793	-65.773	-0.230	0.091
-161.779	4.423	-0.421	-0.304
-160.764	-25.574	-0.481	-0.280
-159.750	-19.356	0.671	-0.410
-158.735	-150.180	-0.346	-0.026
-157.720	-200.000	-0.101	-0.543
-156.706	72.739	-0.602	-0.619
-155.691	-140.022	-0.217	0.023
-154.677	651.411	-0.333	0.842
-153.662	230.212	0.423	-0.682
-152.647	333.577	-0.085	0.162
-151.633	100.414	0.430	-0.492
-150.618	-200.000	-0.000	-0.079
-149.604	699.976	-0.242	-0.629
-148.589	-200.000	-0.162	1.157
-147.574	-200.000	0.240	-0.001
-146.560	-200.000	0.000	1.176
-145.545	-43.725	0.368	-0.183
-144.531	-200.000	-0.062	-0.543
-143.516	-102.399	0.945	-0.223
-142.502	-200.000	-0.051	-0.352
-141.487	-134.176	0.812	-0.099
-140.472	209.507	0.064	0.099
-139.458	307.738	0.061	-0.112
-138.443	-200.000	-0.065	-1.249
-137.429	-200.000	0.115	1.034
-136.414	-134.922	0.560	-0.067
-135.399	-200.000	0.097	0.506
-134.385	177.294	0.600	0.861
-133.370	18.632	0.360	-0.284
-132.356	-91.664	0.118	-0.033
-131.341	-39.813	0.413	-0.213
-130.326	800.000	0.118	-0.448
-129.312	543.292	0.163	-0.383
-128.297	34.289	0.662	0.569
-127.283	-58.959	0.822	-0.350
-126.268	-101.925	-0.922	0.219
-125.253	-200.000	-0.079	0.438
-124.239	225.020	0.436	0.694
-123.224	-200.000	-0.096	-0.618
-122.210	800.000	0.223	0.706
-121.195	62.974	-0.371	0.365
-120.180	800.000	-0.131	0.436
-119.166	-200.000	0.119	1.136
-118.151	242.446	0.572	0.943
-117.137	-200.000	0.113	-0.767
-116.122	291.666	0.361	0.646
-115.107	-70.413	0.723	-0.270
-114.093	73.875	0.261	0.269
-113.078	304.392	0.119	-0.217
-112.064	162.547	-0.343	0.474
-111.049	-41.346	0.502	-0.255
-110.034	-97.341	0.277	-0.071
-109.020	-13.814	-0.353	0.225
-108.005	147.191	0.368	-0.488
-106.991	-24.643	0.451	0.264
-105.976	-55.470	0.438	-0.193
-104.962	-145.260	-0.572	-0.051
-103.947	-93.595	-0.123	-0.033
-102.932	-74.698	0.821	0.291
-101.918	-200.000	-0.058	0.928
-100.903	-200.000	-0.121	-0.628
-99.889	-35.214	-0.348	-0.186
-98.874	-8.020	-0.249	0.165
-97.859	729.880	-0.099	0.261
-96.845	800.000	0.017	-0.071
-95.830	300.961	-0.274	-0.497
-94.816	-116.991	-0.598	-0.107
-93.801	-116.627	0.306	-0.055
-92.786	-200.000	0.020	0.129
-91.772	-145.687	0.962	0.085
-90.757	352.880	-0.051	0.099
-89.743	-200.000	0.030	-0.330
-88.728	-35.656	0.365	0.195
-87.713	-200.000	0.083	0.843
-86.699	-200.000	0.025	-0.484
-85.684	-59.948	-0.299	0.126
-84.670	237.818	0.051	0.083
-83.655	165.937	-0.203	0.283
-82.640	800.000	-0.139	0.397
-81.626	-87.880	0.388	0.115
-80.611	-51.383	0.492	-0.226
-79.597	-21.496	-0.384	0.231
-78.582	-200.000	-0.019	-0.136
-77.567	276.190	0.269	0.470
-76.553	75.205	0.729	0.756
-75.538	-1.815	-0.452	-0.313
-74.524	-41.813	-0.336	0.170
-73.509	-112.018	-0.495	-0.098
-72.494	800.000	0.225	0.916
-71.480	-149.346	-0.872	-0.068
-70.465	274.650	0.057	0.099
-69.451	-171.209	0.474	0.016
-68.436	56.385	0.521	0.498
-67.422	-128.894	-0.382	-0.053
-66.407	-200.000	0.091	-0.491
-65.392	314.430	0.162	0.300
-64.378	-200.000	-0.016	0.386
-63.363	-63.710	-0.289	0.117
-62.349	-8.958	0.888	-0.584
-61.334	91.062	-0.837	-0.923
-60.319	-128.951	0.363	-0.050
-59.305	-200.000	-0.232	-1.154
-58.290	260.614	0.891	1.514
-57.276	800.000	0.196	0.546
-56.261	-200.000	94.826	578.447
-55.246	663.705	1361.279	3450.470
-54.232	202.296	2532.065	3838.395
-53.217	112.670	2250.149	2676.541
-52.203	42.324	1881.719	1680.150
-51.188	36.132	1674.686	1448.887
-50.173	33.519	1629.830	1390.876
-49.159	52.019	1678.290	1570.280
-48.144	52.505	1696.535	1590.903
-47.130	35.678	1655.826	1428.964
-46.115	33.116	1640.710	1396.961
-45.100	32.949	1635.734	1391.435
-44.086	32.847	1633.732	1388.931
-43.071	32.504	1631.459	1384.418
-42.057	32.642	1629.202	1383.463
-41.042	32.775	1626.748	1382.302
-40.027	32.734	1625.763	1381.109
-39.013	32.695	1621.826	1377.420
-37.998	32.689	1620.515	1376.209
-36.984	32.711	1620.362	1376.186
-35.969	32.996	1617.728	1375.972
-34.954	32.762	1617.111	1373.690
-33.940	32.861	1614.872	1372.454
-32.925	32.901	1614.265	1372.170
-31.911	32.721	1611.548	1368.499
-30.896	32.925	1609.732	1368.386
-29.881	32.763	1608.208	1365.865
-28.867	32.908	1606.906	1365.752
-27.852	33.053	1604.537	1364.733
-26.838	32.722	1603.624	1361.513
-25.823	32.844	1603.034	1361.837
-24.809	32.904	1600.774	1360.293
-23.794	32.841	1599.587	1358.781
-22.779	32.882	1598.141	1357.792
-21.765	32.679	1596.072	1354.518
-20.750	32.707	1594.648	1353.462
-19.736	32.678	1595.172	1353.640
-18.721	32.697	1592.563	1351.512
-17.706	32.629	1590.810	1349.481
-16.692	32.758	1589.377	1349.138
-15.677	32.897	1587.375	1348.374
-14.663	32.933	1585.993	1347.407
-13.648	32.863	1583.948	1345.118
-12.633	32.861	1582.995	1344.236
-11.619	32.807	1581.994	1342.947
-10.604	32.731	1581.196	1341.678
-9.590	32.882	1577.834	1339.845
-8.575	32.890	1577.536	1339.593
-7.560	32.842	1576.611	1338.420
-6.546	32.872	1575.921	1337.991
-5.531	32.955	1574.330	1337.178
-4.517	32.668	1573.802	1334.638
-3.502	32.816	1572.811	1334.792
-2.487	33.073	1570.198	1334.343
-1.473	32.228	1559.545	1319.303
-0.458	29.425	1540.119	1283.357
0.556	27.135	1539.650	1251.969
1.571	24.552	1562.716	1252.527
2.586	23.940	1575.811	1258.580
3.600	21.414	1521.350	1197.694
4.615	12.507	1412.968	1055.355
5.629	4.290	1349.193	957.103
6.644	3.081	1340.153	943.194
7.659	2.844	1339.031	940.870
8.673	2.994	1337.188	940.410
9.688	3.161	1336.884	941.132
10.702	3.094	1332.926	937.856
11.717	6.323	1340.726	963.039
12.731	15.836	1357.598	1033.765
13.746	23.325	1369.037	1088.590
14.761	24.957	1370.767	1099.902
15.775	24.792	1370.773	1098.797
16.790	24.684	1370.000	1097.412
17.804	25.145	1367.996	1098.536
18.819	25.262	1368.567	1099.614
19.834	25.212	1366.435	1097.502
20.848	25.049	1367.136	1096.967
21.863	25.160	1366.235	1096.828
22.877	25.393	1366.033	1097.994
23.892	25.130	1364.165	1094.789
24.907	25.067	1364.024	1094.195
25.921	25.073	1364.196	1094.270
26.936	25.205	1362.452	1093.579
27.950	25.342	1361.285	1093.378
28.965	25.050	1359.871	1090.370
29.980	25.249	1359.369	1091.084
30.994	25.474	1357.262	1090.661
32.009	25.450	1356.751	1090.008
33.023	25.392	1355.372	1088.453
34.038	25.164	1354.941	1086.629
35.053	25.201	1354.085	1086.073
36.067	25.428	1352.509	1086.084
37.082	25.182	1352.918	1084.824
38.096	25.177	1351.192	1083.316
39.111	25.339	1350.384	1083.551
40.126	25.241	1349.671	1082.290
41.140	25.241	1349.524	1082.076
42.155	25.010	1348.547	1079.805
43.169	25.171	1348.549	1080.682
44.184	24.917	1348.025	1078.639
45.199	25.152	1347.009	1079.146
46.213	25.347	1347.219	1080.387
47.228	25.122	1346.704	1078.526
48.242	25.306	1345.342	1078.446
49.257	25.153	1344.465	1076.733
50.271	25.143	1343.046	1075.436
51.286	25.206	1341.102	1074.167
52.301	25.144	1341.148	1073.736
53.315	25.447	1338.214	1073.101
54.330	25.284	1337.605	1071.541
55.344	25.189	1337.561	1070.849
56.359	25.136	1336.847	1069.865
57.374	24.920	1336.704	1068.365
58.388	25.253	1333.986	1068.080
59.403	25.179	1334.532	1067.982
60.417	25.200	1333.893	1067.506
61.432	25.269	1333.565	1067.559
62.447	25.141	1333.096	1066.324
63.461	24.994	1331.893	1064.394
64.476	24.907	1330.989	1063.061
65.490	25.083	1330.099	1063.300
66.505	24.873	1328.611	1060.776
67.520	25.052	1327.401	1060.771
68.534	25.208	1325.920	1060.416
69.549	25.069	1324.880	1058.675
70.563	24.997	1325.043	1058.281
71.578	25.278	1323.222	1058.393
72.593	25.161	1322.890	1057.342
73.607	25.022	1321.736	1055.508
74.622	25.094	1320.884	1055.160
75.636	25.419	1319.113	1055.558
76.651	25.217	1319.175	1054.329
77.666	25.081	1319.572	1053.756
78.680	25.139	1318.527	1053.168
79.695	24.962	1318.286	1051.843
80.709	25.003	1316.943	1050.920
81.724	25.430	1316.513	1052.988
82.739	25.214	1314.883	1050.322
83.753	25.456	1313.984	1050.927
84.768	25.588	1314.233	1051.806
85.782	25.502	1312.125	1049.523
86.797	25.553	1310.925	1048.767
87.812	25.360	1310.348	1047.092
88.826	25.205	1309.989	1045.804
89.841	25.220	1308.769	1044.826
90.855	25.354	1307.521	1044.516
91.870	25.402	1305.868	1043.385
92.884	25.436	1306.614	1044.083
93.899	25.439	1305.482	1043.103
94.914	25.648	1304.171	1043.179
95.928	25.403	1303.842	1041.402
96.943	25.440	1302.908	1040.776
97.957	25.615	1301.143	1040.290
98.972	25.381	1300.968	1038.700
99.987	25.302	1300.828	1038.045
101.001	25.353	1299.884	1037.492
102.016	25.169	1299.349	1035.908
103.030	25.398	1298.149	1036.183
104.045	25.462	1297.165	1035.676
105.060	25.448	1295.475	1034.157
106.074	25.118	1294.817	1031.638
107.089	24.958	1293.836	1029.845
108.103	24.927	1292.403	1028.438
109.118	25.068	1290.861	1027.929
110.133	24.744	1291.344	1026.362
111.147	25.224	1289.182	1027.302
112.162	25.289	1288.309	1026.887
113.176	25.208	1287.523	1025.706
114.191	25.386	1284.998	1024.622
115.206	25.165	1285.450	1023.627
116.220	25.224	1284.913	1023.449
117.235	25.262	1283.111	1022.135
118.249	24.873	1282.697	1019.501
119.264	25.067	1281.750	1019.761
120.279	25.227	1281.067	1020.036
121.293	25.177	1279.717	1018.592
122.308	25.046	1279.471	1017.559
123.322	25.010	1279.237	1017.078
124.337	24.997	1277.184	1015.286
125.352	25.030	1276.527	1014.858
126.366	25.073	1275.944	1014.546
127.381	25.116	1274.823	1013.811
128.395	24.924	1273.706	1011.750
129.410	25.075	1272.655	1011.678
130.424	24.911	1272.376	1010.442
131.439	25.075	1271.638	1010.689
132.454	25.121	1271.071	1010.409
133.468	25.073	1270.693	1009.746
134.483	25.018	1270.552	1009.238
135.497	25.116	1269.286	1008.691
136.512	25.370	1267.489	1008.602
137.527	25.267	1266.861	1007.436
138.541	25.214	1265.480	1005.948
139.556	25.498	1264.544	1006.709
140.570	25.249	1263.521	1004.412
141.585	25.521	1261.707	1004.397
142.600	25.475	1261.586	1003.960
143.614	25.557	1260.459	1003.429
144.629	25.315	1260.217	1001.801
145.643	25.308	1259.656	1001.223
146.658	25.149	1258.585	999.397
147.673	25.287	1257.070	998.876
148.687	25.096	1257.436	998.012
149.702	25.276	1255.070	997.051
150.716	24.994	1253.378	994.054
151.731	24.724	1252.764	991.978
152.746	24.948	1251.079	991.797
153.760	25.199	1250.304	992.486
154.775	25.759	1248.940	994.408
155.789	25.493	1248.746	992.695
156.804	25.474	1246.876	991.019
157.819	25.062	1246.789	988.591
158.833	24.874	1247.039	987.661
159.848	25.277	1245.066	988.234
160.862	25.462	1244.455	988.678
161.877	25.208	1244.717	987.398
162.892	25.359	1243.381	987.083
163.906	25.149	1241.397	984.269
164.921	25.285	1240.123	983.918
165.935	25.088	1240.396	982.964
166.950	25.380	1240.827	984.823
167.964	25.440	1239.615	984.103
168.979	25.265	1239.461	982.931
169.994	25.330	1237.913	981.974
171.008	25.181	1237.245	980.543
172.023	25.344	1236.325	980.619
173.037	25.332	1235.618	979.903
174.052	25.247	1235.009	978.869
175.067	25.339	1233.898	978.403
176.081	25.333	1232.567	977.230
177.096	25.109	1233.467	976.638
178.110	25.055	1231.186	974.450
179.125	25.219	1230.597	974.790
180.140	25.169	1229.554	973.606
181.154	25.157	1228.619	972.717
182.169	25.359	1226.447	972.001
183.183	25.390	1225.707	971.496
184.198	25.252	1224.815	969.959
185.213	25.466	1224.827	971.040
186.227	25.361	1223.708	969.501
187.242	25.429	1222.724	969.000
188.256	25.654	1221.183	968.907
189.271	25.352	1220.841	966.923
190.286	25.478	1219.528	966.476
191.300	25.083	1220.168	964.772
192.315	25.391	1218.512	965.032
193.329	25.566	1217.473	965.063
194.344	25.269	1218.219	963.972
195.359	25.266	1217.074	962.966
196.373	24.892	1216.526	960.440
197.388	24.904	1215.237	959.402
198.402	25.028	1216.319	960.837
199.417	25.437	1214.959	961.867
200.432	25.611	1214.542	962.386
201.446	25.369	1214.066	960.626
202.461	25.364	1212.764	959.483
203.475	25.436	1212.497	959.574
204.490	25.195	1210.613	956.712
205.504	25.256	1210.369	956.759
206.519	25.067	1208.949	954.546
207.534	24.745	1208.254	952.201
208.548	24.853	1206.324	951.166
209.563	25.057	1205.993	951.905
210.577	25.015	1205.573	951.268
211.592	25.157	1204.193	950.849
212.607	25.502	1205.000	953.230
213.621	25.529	1204.744	953.089
214.636	25.181	1202.924	949.720
215.650	25.078	1202.162	948.491
216.665	25.578	1201.171	950.268
217.680	25.473	1201.108	949.576
218.694	25.762	1198.176	948.697
219.709	25.381	1199.035	947.283
220.723	25.160	1198.709	945.776
221.738	25.236	1197.650	945.258
222.753	25.179	1196.229	943.756
223.767	24.895	1196.463	942.363
224.782	25.317	1195.952	944.096
225.796	25.670	1194.962	945.083
226.811	25.590	1193.909	943.747
227.826	25.453	1193.303	942.466
228.840	25.332	1192.391	941.029
229.855	25.283	1192.664	940.904
230.869	25.213	1192.143	940.041
231.884	25.106	1190.722	938.282
232.899	25.030	1188.731	936.233
233.913	25.097	1189.239	936.899
234.928	25.416	1188.764	938.106
235.942	24.869	1189.063	935.400
236.957	24.881	1188.009	934.554
237.972	24.766	1186.604	932.766
238.986	25.114	1186.133	934.125
240.001	25.204	1185.581	934.076
241.015	25.065	1184.247	932.220
242.030	25.040	1184.528	932.228
243.045	25.493	1182.408	932.833
244.059	25.366	1182.641	932.272
245.074	25.484	1181.542	931.936
246.088	25.546	1181.787	932.368
247.103	25.429	1180.360	930.555
248.117	25.305	1180.745	930.132
249.132	25.899	1179.018	931.762
250.147	25.710	1178.268	930.110
251.161	26.080	1177.894	931.643
252.176	25.877	1176.744	929.604
253.190	25.721	1176.484	928.512
254.205	25.864	1176.570	929.233
255.220	26.206	1176.627	930.961
256.234	26.226	1175.014	929.706
257.249	26.286	1173.982	929.114
258.263	26.190	1173.454	928.122
259.278	25.775	1173.613	926.033
260.293	25.676	1173.264	925.167
261.307	26.322	1171.828	927.267
262.322	26.080	1171.242	925.478
263.336	26.080	1170.587	924.879
264.351	25.905	1170.497	923.830
265.366	25.927	1168.930	922.627
266.380	26.014	1169.128	923.147
267.395	25.849	1167.564	920.984
268.409	25.894	1166.604	920.375
269.424	25.727	1167.062	919.800
270.439	25.947	1165.244	919.412
271.453	26.102	1164.352	919.414
272.468	25.866	1164.511	918.257
273.482	25.430	1164.068	915.602
274.497	25.616	1163.257	915.834
275.512	25.730	1163.098	916.205
276.526	25.706	1161.689	914.895
277.541	25.645	1161.806	914.594
278.555	25.496	1160.532	912.754
279.570	25.878	1161.119	915.073
280.585	26.176	1158.818	914.689
281.599	26.044	1158.223	913.472
282.614	25.864	1157.294	911.750
283.628	25.424	1156.731	908.995
284.643	25.618	1156.051	909.363
285.657	25.704	1154.643	908.610
286.672	25.803	1153.730	908.313
287.687	25.949	1153.114	908.481
288.701	25.710	1153.134	907.210
289.716	25.887	1151.373	906.639
290.730	25.711	1151.424	905.710
291.745	25.548	1151.392	904.784
292.760	26.100	1149.312	905.845
293.774	25.904	1149.570	904.981
294.789	26.085	1149.111	905.448
295.803	26.047	1148.560	904.743
296.818	25.837	1148.024	903.188
297.833	25.812	1146.700	901.942
298.847	25.777	1146.317	901.386
299.862	25.795	1145.396	900.674
300.876	26.036	1144.986	901.477
301.891	25.926	1144.464	900.435
302.906	26.039	1143.548	900.199
303.920	26.296	1143.025	900.990
304.935	26.040	1142.959	899.578
305.949	25.942	1143.324	899.299
306.964	26.256	1141.513	899.357
307.979	26.208	1139.656	897.578
308.993	26.068	1139.275	896.504
310.008	25.937	1139.472	895.927
311.022	26.145	1138.350	895.995
312.037	26.166	1138.075	895.804
313.052	25.964	1136.337	893.357
314.066	26.148	1135.204	893.300
315.081	25.957	1133.924	891.270
316.095	25.733	1133.660	889.877
317.110	25.915	1133.465	890.543
318.125	25.757	1132.757	889.128
319.139	25.457	1133.118	887.851
320.154	25.711	1131.392	887.671
321.168	25.503	1131.820	886.902
322.183	25.781	1130.848	887.434
323.197	25.678	1129.963	886.152
324.212	25.781	1129.140	885.935
325.227	26.030	1128.280	886.405
326.241	26.044	1128.419	886.505
327.256	25.865	1127.020	884.448
328.270	25.692	1126.182	882.863
329.285	25.674	1125.934	882.506
330.300	25.847	1124.951	882.503
331.314	25.998	1123.985	882.409
332.329	26.053	1122.256	881.240
333.343	25.857	1121.872	879.903
334.358	25.976	1122.541	880.931
335.373	26.100	1121.685	880.784
336.387	26.308	1120.167	880.532
337.402	26.168	1119.852	879.521
338.416	26.079	1119.160	878.466
339.431	26.010	1118.443	877.491
340.446	26.363	1118.073	878.839
341.460	26.392	1117.681	878.598
342.475	26.440	1117.085	878.281
343.489	26.429	1116.184	877.445
344.504	26.513	1114.124	876.152
345.519	26.524	1113.942	875.984
346.533	26.877	1113.661	877.393
347.548	26.374	1113.314	874.611
348.562	26.518	1111.912	874.130
349.577	26.102	1110.792	871.162
350.592	26.050	1110.204	870.372
351.606	25.857	1110.427	869.540
352.621	26.115	1108.900	869.509
353.635	25.915	1108.117	867.855
354.650	25.868	1107.157	866.803
355.665	25.792	1106.604	865.925
356.679	26.212	1106.482	867.774
357.694	25.695	1107.721	866.180
358.708	25.964	1105.848	865.932
359.723	26.119	1104.885	865.846
360.738	25.934	1104.728	864.755
361.752	26.056	1103.998	864.694
362.767	26.357	1102.397	864.802
363.781	26.245	1102.842	864.541
364.796	26.148	1101.927	863.282
365.810	26.194	1102.000	863.481
366.825	26.781	1100.235	864.825
367.840	26.452	1100.306	863.233
368.854	26.628	1100.444	864.107
369.869	26.541	1099.156	862.604
370.883	26.669	1097.098	861.522
371.898	26.474	1097.004	860.445
372.913	26.670	1096.375	860.806
373.927	26.495	1096.704	860.155
374.942	26.880	1095.374	860.866
375.956	26.637	1096.015	860.137
376.971	26.784	1094.169	859.308
377.986	26.720	1093.395	858.323
379.000	26.671	1094.043	858.525
380.015	26.580	1093.898	857.903
381.029	26.695	1092.505	857.278
382.044	26.411	1091.852	855.345
383.059	26.639	1090.804	855.527
384.073	26.509	1090.432	854.548
385.088	26.578	1089.519	854.081
386.102	26.740	1088.434	853.916
387.117	26.573	1086.843	851.809
388.132	26.281	1086.821	850.340
389.146	26.449	1085.347	849.905
390.161	26.268	1084.717	848.486
391.175	26.272	1083.442	847.433
392.190	26.542	1084.779	849.669
393.205	26.702	1084.097	849.808
394.219	26.611	1083.025	848.470
395.234	26.101	1082.304	845.439
396.248	26.290	1080.155	844.570
397.263	26.490	1078.431	844.082
398.278	26.355	1079.697	844.365
399.292	26.300	1078.504	843.102
400.307	26.585	1078.025	843.981
401.321	26.245	1077.694	842.064
402.336	26.083	1076.598	840.375
403.350	26.068	1076.225	839.940
404.365	26.391	1075.438	840.757
405.380	26.329	1074.809	839.904
406.394	26.531	1073.721	839.915
407.409	26.380	1073.353	838.853
408.423	26.542	1073.375	839.548
409.438	26.546	1072.670	838.939
410.453	26.788	1071.403	838.993
411.467	26.671	1071.235	838.247
412.482	26.882	1070.001	838.181
413.496	26.709	1069.804	837.154
414.511	26.931	1068.899	837.398
415.526	26.999	1067.898	836.852
416.540	26.829	1068.055	836.117
417.555	27.114	1067.570	836.978
418.569	26.688	1067.010	834.501
419.584	26.845	1066.919	835.082
420.599	26.902	1065.696	834.312
421.613	152.727	1404.388	1792.021
422.628	140.506	1453.758	1792.088
