DTS Sentinel unit serial number:	SN413079Multiplexer serial number:	ORYXHardware model number:	OX4-SRSoftware version number:	ORYX F/W v4.00 Oryx Data Collector v3.7.2.0data status	okinstallation	princeton_trtdifferential loss correction	single-endedforward channel	channel 2reverse channel	N/Adate	2019/09/14time	00:15:35forward acquisition time	60.00reverse acquisition time	0.00gamma	496.2192k internal	0.2338k external	0.2338temperature offset calibration	1.0127default loss term (dB/km)	0.3790temperature slope calibration	1.0000multiplexer offset coefficient	1.0000multiplexer slope coefficient	1.0000fibre end	0.00T internal ref (°C)	26.50T ext. ref 1 (°C)	3.19T ext. ref 2 (°C)	21.43length (m)	temperature (°C)	Stokes	anti-Stokes-747.200	-37.494	0.321	-0.172
-746.185	-161.746	-0.263	0.013
-745.171	85.422	0.209	0.230
-744.156	-15.699	-0.203	0.130
-743.142	-75.889	0.176	0.063
-742.127	9.673	-0.233	0.177
-741.112	101.763	-0.100	0.117
-740.098	68.227	0.216	0.221
-739.083	800.000	0.072	0.291
-738.069	-144.224	-0.082	0.008
-737.054	-156.138	-0.230	0.015
-736.039	-200.000	-0.057	0.372
-735.025	176.129	0.172	0.251
-734.010	800.000	0.043	0.122
-732.996	39.722	-0.250	-0.225
-731.981	800.000	0.045	0.194
-730.966	-50.719	-0.189	0.089
-729.952	-24.996	-0.322	-0.191
-728.937	-200.000	0.005	-0.170
-727.923	-94.990	-0.186	0.051
-726.908	4.635	0.283	0.209
-725.894	-19.680	-0.179	-0.111
-724.879	800.000	-0.041	-0.156
-723.864	19.509	-0.133	0.107
-722.850	-142.700	-0.182	0.018
-721.835	88.181	-0.197	-0.219
-720.821	800.000	-0.124	0.349
-719.806	800.000	-0.059	0.240
-718.791	800.000	0.067	0.202
-717.777	-200.000	-0.042	-0.265
-716.762	128.126	0.116	-0.148
-715.748	-200.000	-0.002	0.216
-714.733	378.268	-0.183	0.375
-713.718	-116.075	-0.105	0.020
-712.704	-166.371	0.377	-0.016
-711.689	-4.241	-0.197	-0.137
-710.675	138.942	-0.123	0.161
-709.660	-17.231	-0.237	-0.150
-708.645	-36.456	-0.307	-0.166
-707.631	-200.000	0.000	0.191
-706.616	-103.110	0.367	-0.087
-705.602	466.291	-0.135	-0.303
-704.587	25.423	-0.140	-0.117
-703.572	-198.921	-0.287	0.002
-702.558	-200.000	-0.035	-0.358
-701.543	-200.000	-0.061	-0.327
-700.529	-126.712	0.092	-0.014
-699.514	-106.769	-0.334	-0.074
-698.499	-140.742	-0.323	0.033
-697.485	487.253	0.054	-0.122
-696.470	800.000	-0.030	0.102
-695.456	71.138	-0.159	-0.166
-694.441	416.396	-0.012	0.025
-693.426	-158.047	0.296	-0.017
-692.412	-95.070	0.356	-0.096
-691.397	7.594	-0.136	-0.102
-690.383	-71.722	0.324	0.121
-689.368	749.643	-0.057	0.154
-688.354	133.315	-0.159	0.206
-687.339	-200.000	0.027	0.187
-686.324	56.720	0.133	0.129
-685.310	-172.335	-0.345	-0.011
-684.295	-200.000	0.010	-0.346
-683.281	800.000	-0.052	0.156
-682.266	-55.641	-0.168	-0.075
-681.251	-69.261	0.078	-0.030
-680.237	303.481	-0.160	-0.296
-679.222	173.501	0.137	-0.197
-678.208	552.434	-0.087	-0.210
-677.193	227.596	0.081	-0.132
-676.178	233.364	0.176	-0.290
-675.164	527.762	-0.057	0.134
-674.149	-200.000	-0.017	-0.114
-673.135	-49.296	0.162	0.077
-672.120	48.289	-0.049	0.046
-671.105	-80.644	-0.265	-0.088
-670.091	85.275	0.146	-0.160
-669.076	90.894	-0.065	-0.073
-668.062	71.915	-0.109	0.114
-667.047	-84.724	-0.111	0.035
-666.032	-126.879	-0.136	0.020
-665.018	-200.000	-0.002	0.046
-664.003	134.258	-0.147	0.191
-662.989	-200.000	-0.016	-0.492
-661.974	800.000	0.076	0.211
-660.959	-179.311	-0.304	-0.007
-659.945	-21.180	0.234	0.143
-658.930	-92.738	-0.049	0.014
-657.916	108.033	-0.081	0.097
-656.901	287.940	0.149	-0.269
-655.886	201.409	0.118	-0.182
-654.872	-108.069	-0.232	-0.050
-653.857	21.990	-0.374	-0.305
-652.843	800.000	-0.062	0.260
-651.828	152.772	-0.074	0.101
-650.814	681.372	0.025	-0.064
-649.799	16.851	0.333	0.264
-648.784	139.850	0.123	-0.162
-647.770	-200.000	0.030	-0.213
-646.755	-165.899	0.230	-0.010
-645.741	-200.000	-0.004	0.182
-644.726	-76.397	0.228	-0.080
-643.711	-66.169	-0.338	-0.135
-642.697	-36.906	-0.108	-0.058
-641.682	-200.000	0.048	-0.281
-640.668	42.181	-0.298	0.270
-639.653	-93.519	-0.193	-0.053
-638.638	173.942	0.232	-0.336
-637.624	-17.173	-0.230	-0.145
-636.609	-130.846	0.221	-0.030
-635.595	-36.219	-0.504	-0.272
-634.580	-32.178	0.251	0.140
-633.565	-200.000	-0.030	0.159
-632.551	800.000	0.056	-0.238
-631.536	-155.926	0.348	0.022
-630.522	240.576	-0.088	0.146
-629.507	-154.318	-0.159	0.011
-628.492	467.364	-0.174	0.390
-627.478	143.676	-0.015	-0.020
-626.463	-200.000	-0.022	-0.100
-625.449	-43.301	-0.281	-0.142
-624.434	346.459	-0.087	0.171
-623.419	800.000	0.054	0.225
-622.405	-65.671	0.159	-0.064
-621.390	-92.931	-0.202	-0.056
-620.376	-200.000	-0.000	0.025
-619.361	-200.000	0.024	0.253
-618.346	-200.000	0.074	-0.442
-617.332	111.819	-0.318	0.384
-616.317	-184.413	-0.187	0.003
-615.303	-173.635	-0.169	-0.005
-614.288	-97.279	0.293	0.076
-613.273	-92.140	0.367	-0.104
-612.259	-200.000	-0.001	0.042
-611.244	233.387	0.159	-0.261
-610.230	536.234	-0.022	-0.051
-609.215	54.450	-0.070	-0.067
-608.201	22.099	-0.066	0.054
-607.186	-200.000	-0.021	0.211
-606.171	254.185	-0.056	-0.096
-605.157	293.181	0.087	-0.159
-604.142	-200.000	-0.010	-0.229
-603.128	463.052	-0.108	0.241
-602.113	-10.543	0.054	-0.035
-601.098	-41.580	-0.212	0.109
-600.084	-148.277	0.091	0.008
-599.069	-57.374	0.182	-0.080
-598.055	138.725	-0.105	0.138
-597.040	-95.113	-0.395	0.106
-596.025	147.501	0.173	0.232
-595.011	-7.025	-0.278	-0.188
-593.996	-200.000	-0.045	0.537
-592.982	-82.041	-0.034	-0.011
-591.967	-36.766	0.077	-0.041
-590.952	-18.336	0.319	0.199
-589.938	-167.846	0.137	-0.005
-588.923	-7.774	-0.048	0.032
-587.909	-200.000	-0.001	0.103
-586.894	800.000	0.045	-0.173
-585.879	63.102	0.277	0.276
-584.865	256.724	0.079	-0.136
-583.850	110.613	-0.064	0.077
-582.836	56.319	0.147	-0.142
-581.821	-164.474	-0.181	-0.008
-580.806	-1.082	-0.059	0.042
-579.792	-68.198	0.140	-0.054
-578.777	-162.022	0.460	-0.023
-577.763	77.459	0.094	-0.100
-576.748	-59.423	0.066	0.028
-575.733	392.494	0.030	-0.063
-574.719	-64.134	-0.214	-0.087
-573.704	-49.433	-0.323	0.154
-572.690	35.486	0.286	0.251
-571.675	577.729	-0.075	0.184
-570.661	-200.000	-0.052	-0.279
-569.646	38.139	-0.112	-0.100
-568.631	800.000	0.040	-0.112
-567.617	511.579	-0.053	-0.123
-566.602	184.995	-0.241	0.357
-565.588	173.435	0.213	-0.306
-564.573	447.604	0.094	-0.206
-563.558	-145.651	0.320	-0.029
-562.544	800.000	-0.054	0.172
-561.529	-88.174	-0.107	-0.032
-560.515	-124.737	-0.091	-0.014
-559.500	-132.732	-0.274	0.035
-558.485	-200.000	0.046	0.293
-557.471	229.058	0.117	0.190
-556.456	-200.000	0.082	-0.626
-555.442	278.058	-0.121	-0.215
-554.427	1.613	-0.041	0.029
-553.412	343.544	-0.129	-0.252
-552.398	-6.492	0.141	-0.096
-551.383	-124.215	0.164	-0.026
-550.369	800.000	0.039	0.135
-549.354	-161.582	-0.298	0.015
-548.339	-200.000	0.030	-0.227
-547.325	477.570	-0.008	-0.018
-546.310	800.000	-0.018	0.052
-545.296	-200.000	0.022	0.263
-544.281	800.000	0.083	-0.256
-543.266	-136.891	0.225	0.026
-542.252	-200.000	-0.034	-0.508
-541.237	-200.000	0.008	0.288
-540.223	-54.524	0.126	0.057
-539.208	-23.296	0.066	0.039
-538.193	142.883	0.122	0.161
-537.179	-97.911	-0.141	0.036
-536.164	38.043	0.276	-0.245
-535.150	-109.439	-0.246	0.052
-534.135	-91.930	-0.379	-0.107
-533.121	-60.290	-0.255	0.108
-532.106	-200.000	0.011	0.059
-531.091	800.000	-0.127	0.370
-530.077	-8.396	0.297	0.199
-529.062	-200.000	0.034	0.193
-528.048	-197.212	0.117	-0.001
-527.033	-102.275	-0.210	0.050
-526.018	208.194	0.079	-0.123
-525.004	800.000	-0.105	0.328
-523.989	90.956	0.307	0.343
-522.975	-51.693	0.334	0.155
-521.960	-200.000	0.067	0.328
-520.945	-96.499	0.152	0.040
-519.931	723.737	0.052	0.138
-518.916	409.891	-0.164	-0.346
-517.902	-127.781	-0.034	0.005
-516.887	-57.546	-0.181	-0.079
-515.872	256.068	-0.073	-0.124
-514.858	383.649	0.091	-0.187
-513.843	-81.528	0.216	0.071
-512.829	-200.000	-0.084	-0.367
-511.814	-200.000	0.001	0.095
-510.799	308.332	0.080	-0.149
-509.785	12.048	-0.181	0.138
-508.770	178.519	-0.229	0.333
-507.756	-200.000	0.000	-0.105
-506.741	-200.000	0.072	0.360
-505.726	-200.000	-0.012	-0.103
-504.712	177.463	0.076	0.110
-503.697	-178.582	0.181	0.004
-502.683	603.817	0.089	-0.219
-501.668	-127.666	-0.232	0.033
-500.653	-1.346	-0.152	-0.107
-499.639	45.924	-0.146	-0.134
-498.624	-103.282	0.125	-0.029
-497.610	-190.850	0.240	-0.003
-496.595	106.977	0.206	-0.243
-495.581	-129.146	-0.069	-0.010
-494.566	-80.086	0.466	0.155
-493.551	-60.358	-0.268	-0.113
-492.537	-140.869	0.147	0.015
-491.522	16.804	0.012	-0.009
-490.508	128.460	0.271	-0.344
-489.493	57.096	0.170	0.164
-488.478	-200.000	0.088	-0.556
-487.464	95.551	-0.106	0.120
-486.449	150.875	-0.168	-0.228
-485.435	82.897	-0.089	0.096
-484.420	-46.099	0.179	-0.088
-483.405	-44.429	0.352	0.175
-482.391	-98.249	0.416	-0.106
-481.376	-68.031	0.106	-0.041
-480.362	-117.873	-0.147	-0.026
-479.347	-102.094	-0.353	0.085
-478.332	642.332	-0.030	0.075
-477.318	800.000	-0.060	0.216
-476.303	-89.014	-0.212	0.062
-475.289	-200.000	0.016	-0.102
-474.274	70.042	0.196	-0.201
-473.259	28.218	-0.174	-0.146
-472.245	-155.695	-0.398	0.025
-471.230	-74.556	0.243	-0.087
-470.216	-25.803	-0.278	0.163
-469.201	6.967	0.070	0.052
-468.186	-15.266	0.153	-0.097
-467.172	800.000	0.054	0.232
-466.157	-39.142	-0.133	0.069
-465.143	-95.405	0.255	0.068
-464.128	-48.287	0.116	0.056
-463.113	149.610	-0.281	0.378
-462.099	800.000	-0.029	-0.087
-461.084	223.263	-0.117	-0.188
-460.070	-200.000	-0.008	-0.224
-459.055	-134.885	-0.404	-0.048
-458.040	244.427	-0.174	-0.290
-457.026	800.000	-0.073	0.222
-456.011	465.612	-0.104	-0.231
-454.997	-200.000	-0.001	0.235
-453.982	-165.994	0.097	0.004
-452.968	63.772	-0.223	0.222
-451.953	-193.301	0.245	-0.002
-450.938	38.769	-0.357	-0.316
-449.924	800.000	0.079	-0.264
-448.909	800.000	-0.070	0.205
-447.895	-200.000	0.013	0.258
-446.880	245.607	0.081	-0.135
-445.865	-5.402	-0.112	0.076
-444.851	194.708	0.174	-0.262
-443.836	87.793	-0.344	-0.378
-442.822	-116.858	-0.279	-0.051
-441.807	-34.041	0.341	0.186
-440.792	-200.000	-0.052	0.355
-439.778	800.000	0.010	0.036
-438.763	-200.000	-0.014	-0.219
-437.749	-38.025	-0.091	-0.048
-436.734	800.000	0.089	-0.334
-435.719	-200.000	-0.015	-0.222
-434.705	-99.484	0.171	0.043
-433.690	-114.672	0.269	0.051
-432.676	-48.184	-0.176	-0.084
-431.661	-119.476	-0.105	0.018
-430.646	188.983	-0.197	-0.293
-429.632	425.687	-0.106	0.226
-428.617	-189.947	0.345	-0.004
-427.603	61.442	-0.232	-0.229
-426.588	-99.211	-0.406	0.102
-425.573	-200.000	0.003	-0.149
-424.559	-22.454	-0.114	-0.069
-423.544	-49.989	-0.108	0.051
-422.530	-64.115	-0.372	-0.150
-421.515	-135.942	-0.170	0.020
-420.500	-90.822	0.192	-0.055
-419.486	-164.679	-0.333	0.015
-418.471	176.190	-0.224	0.322
-417.457	-66.174	0.314	0.124
-416.442	800.000	0.017	0.067
-415.428	-200.000	-0.028	-0.198
-414.413	-173.261	0.383	-0.012
-413.398	-59.192	-0.125	0.053
-412.384	-26.111	0.084	0.049
-411.369	479.254	-0.101	0.227
-410.355	-16.674	0.147	-0.092
-409.340	238.115	-0.133	0.219
-408.325	-200.000	-0.008	-0.267
-407.311	800.000	0.037	-0.155
-406.296	52.223	0.060	0.057
-405.282	-200.000	-0.001	-0.139
-404.267	-46.937	-0.019	-0.009
-403.252	-28.455	-0.135	-0.077
-402.238	8.891	0.211	0.157
-401.223	800.000	0.067	0.235
-400.209	13.078	0.118	-0.090
-399.194	30.746	0.087	-0.074
-398.179	24.876	0.079	0.065
-397.165	-94.275	0.062	0.017
-396.150	-103.202	-0.033	-0.008
-395.136	485.375	0.062	-0.140
-394.121	800.000	-0.027	0.078
-393.106	800.000	0.072	-0.201
-392.092	25.301	-0.260	-0.214
-391.077	-200.000	0.002	-0.023
-390.063	-15.711	0.118	-0.075
-389.048	124.259	0.154	-0.191
-388.033	34.646	0.073	0.063
-387.019	186.084	0.039	0.058
-386.004	800.000	0.088	-0.250
-384.990	115.290	0.133	0.161
-383.975	119.476	0.038	0.047
-382.960	-37.328	-0.160	-0.084
-381.946	-158.041	0.329	0.019
-380.931	307.096	0.056	-0.103
-379.917	-125.446	0.121	0.018
-378.902	257.039	-0.166	0.283
-377.888	-200.000	0.005	-0.162
-376.873	-125.791	-0.050	-0.007
-375.858	800.000	-0.036	-0.111
-374.844	-50.021	0.227	0.106
-373.829	-170.797	-0.410	-0.014
-372.815	-7.248	0.075	-0.050
-371.800	366.775	-0.074	-0.147
-370.785	181.971	0.062	-0.090
-369.771	150.690	-0.155	-0.209
-368.756	-105.726	-0.082	-0.018
-367.742	-135.553	0.347	-0.041
-366.727	475.104	0.079	-0.175
-365.712	85.711	-0.217	0.236
-364.698	172.436	-0.240	0.341
-363.683	426.597	-0.102	-0.218
-362.669	-132.227	0.355	-0.045
-361.654	226.796	-0.174	-0.279
-360.639	-200.000	0.034	-0.281
-359.625	217.762	0.105	-0.165
-358.610	366.075	-0.080	-0.160
-357.596	-200.000	-0.003	0.139
-356.581	150.613	-0.289	-0.388
-355.566	361.775	-0.166	-0.330
-354.552	-67.959	0.253	0.098
-353.537	37.115	0.229	0.201
-352.523	-34.000	-0.100	0.055
-351.508	221.240	0.094	-0.148
-350.493	800.000	-0.050	-0.215
-349.479	-200.000	0.021	0.095
-348.464	36.360	-0.232	-0.202
-347.450	430.001	0.035	0.075
-346.435	-56.468	-0.191	0.084
-345.420	115.267	-0.024	0.028
-344.406	-30.899	0.082	0.046
-343.391	-200.000	0.025	-0.336
-342.377	-67.080	0.064	-0.025
-341.362	800.000	-0.062	-0.195
-340.348	800.000	0.067	-0.231
-339.333	62.499	0.198	-0.195
-338.318	42.823	0.153	0.137
-337.304	743.914	0.031	0.083
-336.289	-169.603	-0.080	-0.003
-335.275	-135.809	0.109	-0.013
-334.260	-200.000	-0.019	0.101
-333.245	-95.125	0.352	-0.094
-332.231	-72.010	-0.194	-0.071
-331.216	7.177	0.203	-0.149
-330.202	60.827	-0.091	-0.089
-329.187	-82.401	0.153	0.049
-328.172	-164.920	0.284	-0.013
-327.158	134.301	-0.270	0.346
-326.143	-200.000	0.002	0.161
-325.129	119.279	-0.054	-0.066
-324.114	800.000	-0.153	0.451
-323.099	800.000	0.097	-0.339
-322.085	-99.399	-0.212	-0.053
-321.070	-95.101	-0.158	0.042
-320.056	-14.415	0.195	0.124
-319.041	260.973	-0.133	0.227
-318.026	800.000	0.044	0.172
-317.012	540.485	0.068	0.161
-315.997	-200.000	-0.018	0.549
-314.983	-42.650	-0.061	-0.031
-313.968	21.793	-0.025	0.020
-312.953	55.225	0.086	-0.082
-311.939	-146.174	-0.350	0.030
-310.924	-118.132	0.398	0.070
-309.910	319.035	0.188	0.351
-308.895	-200.000	0.046	-0.265
-307.880	-15.589	-0.095	0.060
-306.866	185.214	0.122	0.178
-305.851	-139.405	-0.045	-0.005
-304.837	-112.862	0.072	-0.014
-303.822	198.819	0.124	0.188
-302.807	-123.058	0.244	0.039
-301.793	14.868	-0.210	0.162
-300.778	800.000	-0.069	0.236
-299.764	-185.920	-0.219	0.003
-298.749	-35.919	0.164	-0.088
-297.735	-63.976	0.135	-0.054
-296.720	135.064	0.001	0.001
-295.705	324.716	-0.042	0.079
-294.691	-65.924	0.299	0.118
-293.676	536.527	0.095	0.222
-292.662	-200.000	-0.003	-0.066
-291.647	-1.829	-0.176	-0.122
-290.632	800.000	-0.042	-0.148
-289.618	-46.062	-0.093	0.045
-288.603	-12.983	0.287	0.184
-287.589	-200.000	-0.007	-0.133
-286.574	395.734	0.169	-0.347
-285.559	-166.228	0.080	0.003
-284.545	-68.164	-0.244	-0.094
-283.530	-17.107	0.353	-0.220
-282.516	800.000	0.100	0.389
-281.501	21.900	0.259	0.208
-280.486	-107.596	0.153	0.033
-279.472	76.952	-0.020	0.021
-278.457	-112.544	-0.102	0.020
-277.443	-185.396	0.310	0.005
-276.428	800.000	0.048	-0.195
-275.413	306.684	-0.117	0.215
-274.399	800.000	-0.076	0.219
-273.384	-50.266	-0.310	0.144
-272.370	575.807	-0.111	0.268
-271.355	-139.014	-0.082	-0.009
-270.340	800.000	-0.090	0.289
-269.326	-200.000	0.020	-0.247
-268.311	575.594	-0.153	0.367
-267.297	-28.679	0.193	0.110
-266.282	800.000	-0.016	-0.049
-265.267	-200.000	-0.069	-0.408
-264.253	311.564	-0.193	0.356
-263.238	-74.640	0.261	-0.092
-262.224	-200.000	-0.012	-0.122
-261.209	-92.521	0.102	-0.028
-260.195	756.455	-0.104	0.276
-259.180	800.000	0.101	0.310
-258.165	89.832	0.082	0.091
-257.151	-105.944	0.157	-0.035
-256.136	800.000	-0.073	-0.278
-255.122	-46.812	0.203	0.098
-254.107	61.181	0.224	-0.219
-253.092	-76.714	0.250	-0.086
-252.078	-200.000	-0.012	0.359
-251.063	-102.705	0.121	-0.028
-250.049	169.123	0.144	0.203
-249.034	163.689	0.220	-0.304
-248.019	-49.718	-0.550	-0.257
-247.005	-81.168	0.270	-0.088
-245.990	800.000	-0.169	-0.475
-244.976	800.000	0.016	-0.067
-243.961	-148.776	-0.394	-0.031
-242.946	331.467	-0.123	-0.233
-241.932	612.693	-0.196	0.483
-240.917	94.549	0.140	-0.157
-239.903	-200.000	0.003	0.118
-238.888	-115.797	-0.337	-0.062
-237.873	-75.994	-0.176	0.061
-236.859	-38.502	0.131	0.068
-235.844	133.435	-0.074	0.094
-234.830	800.000	-0.059	-0.173
-233.815	135.194	0.102	0.130
-232.800	-50.911	0.028	0.013
-231.786	688.113	0.070	0.181
-230.771	-81.581	-0.065	0.021
-229.757	-71.924	0.260	0.095
-228.742	-158.347	-0.173	0.010
-227.727	-200.000	-0.061	0.268
-226.713	-147.242	-0.557	0.047
-225.698	800.000	-0.061	0.227
-224.684	-112.892	-0.183	-0.036
-223.669	108.260	0.085	-0.100
-222.655	-200.000	-0.029	-0.384
-221.640	-200.000	-0.005	0.034
-220.625	343.774	0.114	0.219
-219.611	-51.289	-0.331	0.152
-218.596	-57.855	-0.234	0.101
-217.582	-200.000	-0.020	0.328
-216.567	-200.000	-0.018	0.105
-215.552	642.198	-0.074	0.185
-214.538	-57.801	-0.177	-0.076
-213.523	-149.442	0.278	-0.022
-212.509	-46.727	-0.197	0.095
-211.494	-73.346	0.160	-0.058
-210.479	311.345	0.087	-0.159
-209.465	-200.000	-0.103	-0.456
-208.450	2.538	0.102	0.073
-207.436	800.000	0.049	0.175
-206.421	20.342	0.180	0.143
-205.406	-200.000	0.005	0.065
-204.392	594.413	0.081	-0.197
-203.377	-71.216	-0.194	-0.071
-202.363	3.868	-0.089	0.064
-201.348	3.694	0.191	0.137
-200.333	-133.417	0.045	-0.006
-199.319	-75.452	-0.198	-0.069
-198.304	-133.625	-0.179	-0.022
-197.290	-200.000	0.018	-0.110
-196.275	207.471	-0.212	0.324
-195.260	56.259	0.167	-0.159
-194.246	-37.886	-0.087	0.046
-193.231	-200.000	-0.004	-0.299
-192.217	-5.209	-0.243	-0.164
-191.202	-79.675	0.252	-0.083
-190.187	-124.962	-0.285	-0.043
-189.173	601.338	0.085	0.208
-188.158	-172.437	-0.421	0.013
-187.144	-61.816	0.101	0.041
-186.129	158.933	0.090	0.122
-185.114	-88.394	-0.099	0.029
-184.100	10.604	0.239	-0.179
-183.085	-100.464	-0.138	0.034
-182.071	48.805	-0.200	0.184
-181.056	227.955	-0.225	-0.360
-180.042	800.000	0.037	0.139
-179.027	-161.064	0.395	0.020
-178.012	-163.293	0.061	-0.003
-176.998	478.741	-0.021	-0.047
-175.983	214.469	-0.165	-0.256
-174.969	42.585	-0.061	-0.055
-173.954	800.000	-0.054	-0.175
-172.939	-158.733	-0.190	0.011
-171.925	-135.854	0.227	-0.026
-170.910	166.250	0.193	0.268
-169.896	-49.722	0.178	0.083
-168.881	-200.000	0.007	0.178
-167.866	-200.000	0.039	0.273
-166.852	-200.000	0.006	0.047
-165.837	206.138	0.101	0.155
-164.823	242.455	-0.193	-0.317
-163.808	-200.000	-0.014	0.342
-162.793	198.482	0.175	-0.262
-161.779	-80.392	-0.248	0.081
-160.764	4.460	0.148	-0.106
-159.750	311.516	-0.035	-0.064
-158.735	23.773	0.135	0.109
-157.720	61.598	-0.114	0.111
-156.706	261.576	0.019	0.031
-155.691	-68.533	0.324	-0.123
-154.677	4.677	-0.224	0.161
-153.662	452.403	-0.080	0.173
-152.647	-200.000	-0.042	-0.244
-151.633	-98.501	0.430	0.108
-150.618	284.556	-0.196	0.346
-149.604	27.024	-0.246	0.202
-148.589	-72.522	-0.139	-0.050
-147.574	18.433	-0.183	0.143
-146.560	-71.435	-0.056	0.020
-145.545	17.747	0.194	-0.152
-144.531	-200.000	-0.005	0.169
-143.516	-115.999	0.271	0.049
-142.502	-99.049	0.195	0.048
-141.487	26.969	0.217	0.179
-140.472	-4.947	0.197	-0.133
-139.458	800.000	0.038	0.105
-138.443	50.608	-0.090	0.083
-137.429	-63.318	0.047	-0.019
-136.414	-200.000	-0.070	0.406
-135.399	189.212	-0.134	0.197
-134.385	660.893	-0.038	0.097
-133.370	-101.058	0.125	0.030
-132.356	195.215	0.132	-0.196
-131.341	-76.011	-0.395	-0.137
-130.326	442.155	-0.140	0.300
-129.312	800.000	0.121	0.351
-128.297	-200.000	0.033	0.183
-127.283	21.999	0.030	-0.024
-126.268	176.924	0.178	-0.254
-125.253	42.943	0.195	0.174
-124.239	-200.000	-0.060	-0.345
-123.224	316.508	0.174	-0.321
-122.210	-118.428	0.355	0.062
-121.195	3.461	0.033	-0.024
-120.180	4.078	-0.266	-0.191
-119.166	-200.000	0.019	0.189
-118.151	-125.989	0.113	0.017
-117.137	800.000	0.090	-0.305
-116.122	290.723	0.122	-0.217
-115.107	66.371	-0.348	0.347
-114.093	-56.968	0.250	0.108
-113.078	620.297	0.118	0.290
-112.064	782.463	0.121	0.324
-111.049	-21.436	0.101	0.060
-110.034	93.628	0.239	-0.265
-109.020	19.757	0.169	0.133
-108.005	84.747	-0.103	-0.110
-106.991	800.000	-0.032	0.109
-105.976	800.000	0.072	0.285
-104.962	800.000	-0.061	-0.221
-103.947	-118.913	-0.082	0.014
-102.932	-200.000	-0.038	-0.434
-101.918	-33.213	-0.134	-0.073
-100.903	99.253	-0.139	0.157
-99.889	-126.382	0.411	0.060
-98.874	-25.513	0.155	-0.090
-97.859	-27.241	0.253	0.144
-96.845	40.736	0.142	0.126
-95.830	24.633	-0.095	0.077
-94.816	-18.940	0.099	-0.060
-93.801	256.135	0.123	0.206
-92.786	197.536	-0.032	-0.048
-91.772	-200.000	0.008	0.074
-90.757	-45.693	-0.476	0.230
-89.743	74.287	-0.064	0.066
-88.728	233.039	-0.059	0.095
-87.713	442.437	0.050	-0.106
-86.699	212.821	0.083	-0.128
-85.684	150.975	-0.025	-0.033
-84.670	800.000	-0.047	0.188
-83.655	-200.000	0.026	0.147
-82.640	-55.622	0.242	0.106
-81.626	-200.000	-0.045	0.292
-80.611	-50.317	0.271	0.125
-79.597	-85.399	-0.204	0.062
-78.582	-200.000	-0.018	-0.110
-77.567	800.000	0.040	-0.153
-76.553	-129.139	0.334	0.046
-75.538	-159.512	-0.150	0.008
-74.524	217.893	-0.138	0.215
-73.509	-192.671	0.461	-0.004
-72.494	222.351	-0.030	-0.046
-71.480	463.347	-0.130	0.284
-70.465	107.550	-0.159	0.185
-69.451	93.824	0.126	0.139
-68.436	-200.000	-0.011	0.071
-67.422	800.000	0.017	0.059
-66.407	35.452	0.149	0.128
-65.392	-110.313	0.183	0.037
-64.378	-200.000	-0.003	-0.080
-63.363	800.000	0.095	-0.358
-62.349	62.312	0.182	-0.177
-61.334	26.638	-1.258	-1.029
-60.319	49.235	0.545	0.500
-59.305	-200.000	-0.185	-0.799
-58.290	400.038	0.688	1.408
-57.276	514.858	0.644	1.468
-56.261	-200.000	116.356	646.194
-55.246	504.542	1536.820	3474.506
-54.232	175.155	2714.774	3840.469
-53.217	98.728	2289.355	2579.595
-52.203	35.452	1898.194	1626.823
-51.188	29.640	1692.203	1406.148
-50.173	27.191	1651.407	1353.978
-49.159	47.259	1708.861	1553.774
-48.144	46.031	1722.092	1556.438
-47.130	29.114	1679.500	1391.397
-46.115	26.582	1665.496	1360.735
-45.100	26.390	1660.952	1355.533
-44.086	26.397	1657.681	1352.860
-43.071	26.385	1655.591	1351.010
-42.057	26.387	1652.994	1348.852
-41.042	26.371	1650.766	1346.862
-40.027	26.420	1648.910	1345.656
-39.013	26.380	1647.058	1343.798
-37.998	26.312	1645.664	1342.101
-36.984	26.375	1644.122	1341.261
-35.969	26.418	1643.204	1340.775
-34.954	26.437	1641.655	1339.597
-33.940	26.520	1638.956	1337.955
-32.925	26.480	1637.698	1336.583
-31.911	26.484	1636.219	1335.348
-30.896	26.505	1634.366	1333.943
-29.881	26.474	1632.558	1332.184
-28.867	26.632	1630.454	1331.579
-27.852	26.479	1629.935	1329.971
-26.838	26.462	1628.532	1328.653
-25.823	26.588	1626.935	1328.220
-24.809	26.570	1625.519	1326.876
-23.794	26.557	1624.241	1325.687
-22.779	26.577	1622.145	1324.075
-21.765	26.466	1620.906	1322.196
-20.750	26.543	1619.361	1321.449
-19.736	26.636	1617.904	1320.886
-18.721	26.574	1616.697	1319.393
-17.706	26.446	1615.363	1317.320
-16.692	26.520	1613.723	1316.466
-15.677	26.506	1612.364	1315.203
-14.663	26.569	1610.770	1314.311
-13.648	26.483	1609.993	1313.001
-12.633	26.513	1608.187	1311.694
-11.619	26.586	1606.118	1310.480
-10.604	26.488	1604.749	1308.606
-9.590	26.563	1603.283	1307.899
-8.575	26.513	1602.384	1306.750
-7.560	26.608	1600.593	1305.925
-6.546	26.502	1599.918	1304.561
-5.531	26.481	1599.102	1303.688
-4.517	26.385	1597.855	1301.931
-3.502	26.538	1596.500	1301.872
-2.487	26.582	1594.692	1300.664
-1.473	26.205	1583.034	1288.417
-0.458	23.507	1563.814	1253.680
0.556	20.890	1565.955	1223.147
1.571	18.764	1589.447	1226.217
2.586	18.277	1601.783	1232.126
3.600	16.067	1546.538	1174.149
4.615	9.462	1438.774	1049.305
5.629	4.091	1379.968	972.670
6.644	3.160	1373.025	961.875
7.659	3.172	1371.961	961.117
8.673	3.208	1370.978	960.571
9.688	3.229	1368.446	958.842
10.702	3.257	1365.533	956.889
11.717	5.809	1370.050	975.865
12.731	12.957	1383.888	1030.427
13.746	18.984	1394.141	1075.779
14.761	20.375	1395.741	1085.622
15.775	19.762	1393.353	1079.844
16.790	18.822	1390.469	1071.650
17.804	17.997	1388.204	1064.674
18.819	17.588	1387.651	1061.604
19.834	17.532	1385.751	1059.711
20.848	17.338	1384.778	1057.665
21.863	17.149	1383.337	1055.296
22.877	16.973	1382.725	1053.641
23.892	17.031	1381.384	1052.888
24.907	16.972	1380.572	1051.810
25.921	16.998	1379.956	1051.410
26.936	17.127	1378.651	1051.123
27.950	17.102	1378.005	1050.377
28.965	17.045	1377.430	1049.497
29.980	17.257	1375.948	1049.580
30.994	17.375	1374.169	1048.859
32.009	17.413	1373.213	1048.272
33.023	17.306	1372.457	1046.941
34.038	17.285	1371.014	1045.622
35.053	17.144	1370.004	1043.889
36.067	17.138	1368.931	1042.943
37.082	17.250	1367.630	1042.550
38.096	17.167	1367.290	1041.692
39.111	17.267	1366.146	1041.338
40.126	17.140	1365.231	1039.773
41.140	16.962	1364.078	1037.712
42.155	16.864	1363.397	1036.504
43.169	16.793	1363.518	1036.071
44.184	16.775	1362.995	1035.468
45.199	16.758	1362.948	1035.238
46.213	16.882	1362.253	1035.378
47.228	17.181	1361.214	1036.316
48.242	17.206	1359.507	1035.079
49.257	17.069	1358.627	1033.486
50.271	17.078	1357.055	1032.253
51.286	17.146	1355.491	1031.381
52.301	17.015	1354.888	1030.037
53.315	16.952	1353.360	1028.401
54.330	16.937	1352.146	1027.300
55.344	16.900	1351.147	1026.224
56.359	16.934	1350.164	1025.591
57.374	16.891	1349.639	1024.844
58.388	16.803	1348.117	1023.063
59.403	16.805	1347.874	1022.803
60.417	16.757	1347.568	1022.193
61.432	16.741	1346.072	1020.867
62.447	16.674	1345.486	1019.930
63.461	16.644	1344.136	1018.635
64.476	16.567	1342.950	1017.187
65.490	16.623	1341.480	1016.320
66.505	16.731	1340.196	1015.905
67.520	16.633	1338.970	1014.294
68.534	16.707	1338.307	1014.150
69.549	16.698	1337.036	1013.040
70.563	16.665	1335.784	1011.803
71.578	16.513	1334.864	1010.113
72.593	16.502	1333.932	1009.249
73.607	16.447	1333.147	1008.239
74.622	16.558	1332.109	1008.030
75.636	16.559	1331.236	1007.283
76.651	16.573	1331.130	1007.196
77.666	16.569	1330.991	1006.981
78.680	16.554	1330.256	1006.246
79.695	16.652	1329.097	1005.862
80.709	16.744	1328.824	1006.112
81.724	16.769	1328.149	1005.658
82.739	16.990	1326.953	1005.978
83.753	16.999	1326.760	1005.796
84.768	17.100	1325.471	1005.328
85.782	17.179	1324.498	1004.966
86.797	17.168	1323.315	1003.918
87.812	17.136	1321.581	1002.326
88.826	17.136	1320.389	1001.329
89.841	17.193	1319.436	1000.856
90.855	17.156	1318.639	999.946
91.870	17.237	1317.625	999.561
92.884	17.221	1316.774	998.735
93.899	17.170	1316.366	998.035
94.914	17.333	1315.279	998.079
95.928	17.247	1314.631	996.999
96.943	17.242	1313.718	996.189
97.957	17.259	1312.819	995.515
98.972	17.284	1311.543	994.607
99.987	17.247	1310.900	993.818
101.001	17.192	1309.640	992.450
102.016	17.220	1308.770	991.869
103.030	17.161	1308.181	990.986
104.045	17.233	1306.638	990.151
105.060	17.159	1305.306	988.623
106.074	16.945	1304.219	986.468
107.089	16.741	1302.443	983.850
108.103	16.595	1301.291	982.046
109.118	16.706	1299.808	981.486
110.133	16.773	1298.411	980.733
111.147	16.754	1297.170	979.600
112.162	16.758	1296.056	978.696
113.176	16.906	1295.076	978.722
114.191	16.844	1294.138	977.568
115.206	16.916	1292.663	976.785
116.220	16.854	1291.666	975.586
117.235	16.879	1290.528	974.785
118.249	16.680	1290.089	973.223
119.264	16.713	1288.336	972.005
120.279	16.696	1287.275	971.019
121.293	16.651	1286.307	969.947
122.308	16.621	1285.198	968.853
123.322	16.549	1284.279	967.661
124.337	16.547	1283.149	966.712
125.352	16.479	1282.430	965.694
126.366	16.477	1281.107	964.603
127.381	16.525	1280.192	964.102
128.395	16.555	1278.512	962.923
129.410	16.576	1277.983	962.559
130.424	16.579	1277.709	962.282
131.439	16.669	1276.530	961.825
132.454	16.785	1275.712	961.778
133.468	16.740	1274.806	960.754
134.483	16.764	1273.905	960.131
135.497	16.882	1272.861	959.924
136.512	16.892	1271.611	958.951
137.527	16.837	1270.873	958.002
138.541	16.931	1268.901	956.960
139.556	16.917	1267.719	955.907
140.570	16.909	1267.212	955.395
141.585	17.079	1265.957	955.321
142.600	17.178	1264.656	954.813
143.614	17.333	1263.607	954.804
144.629	17.302	1262.722	953.877
145.643	17.288	1261.420	952.733
146.658	17.116	1260.064	950.660
147.673	17.023	1259.084	949.315
148.687	16.915	1257.611	947.516
149.702	16.859	1256.357	946.175
150.716	16.978	1254.639	945.462
151.731	16.875	1253.852	944.211
152.746	16.932	1252.757	943.620
153.760	16.978	1251.771	943.049
154.775	17.023	1250.953	942.600
155.789	17.071	1249.800	941.916
156.804	17.105	1248.535	941.067
157.819	17.087	1247.738	940.282
158.833	17.188	1246.986	940.194
159.848	17.360	1246.167	940.443
160.862	17.215	1245.431	939.002
161.877	17.113	1243.244	936.710
162.892	17.036	1242.069	935.316
163.906	16.896	1241.400	933.958
164.921	17.024	1240.395	933.825
165.935	17.161	1239.484	933.806
166.950	17.069	1238.985	932.846
167.964	17.073	1238.165	932.165
168.979	16.990	1237.535	931.153
169.994	17.102	1236.724	931.075
171.008	17.144	1236.173	930.810
172.023	17.259	1235.267	930.674
173.037	17.245	1234.710	930.096
174.052	17.195	1233.935	929.155
175.067	17.067	1232.528	927.312
176.081	16.981	1231.834	926.240
177.096	17.018	1230.572	925.413
178.110	17.054	1229.155	924.459
179.125	17.078	1228.328	923.889
180.140	17.108	1227.440	923.300
181.154	17.126	1226.198	922.382
182.169	17.310	1224.893	922.315
183.183	17.434	1223.968	922.212
184.198	17.401	1222.650	920.957
185.213	17.377	1221.637	919.982
186.227	17.428	1220.709	919.478
187.242	17.544	1219.024	918.755
188.256	17.557	1218.926	918.668
189.271	17.577	1217.913	917.934
190.286	17.398	1216.402	915.750
191.300	17.060	1215.626	913.264
192.315	17.044	1214.720	912.421
193.329	17.057	1214.300	912.091
194.344	17.100	1213.851	911.905
195.359	17.072	1213.556	911.450
196.373	17.188	1213.079	911.633
197.388	17.453	1211.894	912.082
198.402	17.519	1212.310	912.671
199.417	17.641	1211.770	912.835
200.432	17.675	1210.999	912.358
201.446	17.762	1209.966	911.962
202.461	17.838	1209.076	911.616
203.475	17.921	1208.180	911.306
204.490	17.677	1206.528	908.678
205.504	17.514	1205.626	907.052
206.519	17.522	1204.383	906.075
207.534	17.491	1202.997	904.788
208.548	17.538	1202.349	904.471
209.563	17.559	1201.902	904.165
210.577	17.584	1200.520	903.181
211.592	17.662	1199.722	902.915
212.607	17.723	1199.018	902.624
213.621	17.809	1198.015	902.246
214.636	17.727	1197.345	901.226
215.650	17.729	1196.326	900.394
216.665	17.783	1195.730	900.150
217.680	17.858	1194.967	899.891
218.694	17.974	1194.429	900.018
219.709	17.888	1193.677	898.915
220.723	17.898	1192.224	897.795
221.738	17.942	1191.595	897.475
222.753	17.794	1190.739	895.975
223.767	17.954	1190.473	896.535
224.782	18.117	1189.405	896.504
225.796	18.087	1189.185	896.103
226.811	18.004	1188.427	895.016
227.826	17.921	1187.847	894.065
228.840	17.964	1186.627	893.292
229.855	17.874	1186.213	892.432
230.869	17.849	1185.269	891.511
231.884	17.916	1184.169	890.957
232.899	17.824	1183.343	889.775
233.913	17.770	1182.830	889.031
234.928	17.823	1181.865	888.502
235.942	17.703	1181.367	887.427
236.957	17.737	1179.865	886.393
237.972	17.668	1179.939	886.012
238.986	17.787	1178.865	885.749
240.001	17.867	1178.024	885.453
241.015	17.733	1177.689	884.424
242.030	17.837	1176.595	884.065
243.045	17.934	1176.135	884.145
244.059	17.891	1175.131	883.089
245.074	18.023	1174.093	882.911
246.088	18.077	1173.151	882.406
247.103	18.167	1172.629	882.397
248.117	18.166	1172.229	882.015
249.132	18.329	1171.757	882.423
250.147	18.467	1170.985	882.474
251.161	18.601	1170.164	882.463
252.176	18.625	1169.266	881.833
253.190	18.650	1169.138	881.784
254.205	18.636	1168.281	880.989
255.220	18.716	1167.663	880.855
256.234	18.708	1167.118	880.328
257.249	18.602	1166.696	879.386
258.263	18.751	1165.457	879.137
259.278	18.616	1165.441	878.356
260.293	18.702	1164.388	877.928
261.307	18.730	1163.913	877.631
262.322	18.684	1163.669	877.137
263.336	18.833	1162.727	877.108
264.351	18.893	1162.011	876.797
265.366	18.770	1161.624	875.804
266.380	18.844	1160.717	875.417
267.395	18.800	1159.764	874.396
268.409	18.721	1159.041	873.375
269.424	18.660	1158.300	872.428
270.439	18.916	1157.458	873.015
271.453	18.656	1157.149	871.384
272.468	18.579	1155.850	869.937
273.482	18.580	1155.308	869.459
274.497	18.546	1154.448	868.561
275.512	18.653	1153.940	868.644
276.526	18.557	1153.269	867.577
277.541	18.644	1152.487	867.353
278.555	18.616	1152.070	866.822
279.570	18.796	1151.385	867.139
280.585	18.985	1150.309	867.203
281.599	18.867	1149.594	865.995
282.614	18.809	1148.388	864.718
283.628	18.747	1146.997	863.278
284.643	18.767	1145.968	862.531
285.657	18.993	1145.013	862.867
286.672	18.721	1144.860	861.314
287.687	18.868	1143.647	861.060
288.701	18.845	1142.822	860.248
289.716	18.770	1142.149	859.288
290.730	18.935	1141.265	859.371
291.745	18.856	1140.569	858.379
292.760	18.884	1140.390	858.306
293.774	18.941	1140.107	858.304
294.789	19.143	1139.079	858.462
295.803	19.088	1138.526	857.692
296.818	18.903	1137.465	855.896
297.833	18.952	1137.023	855.736
298.847	18.866	1136.191	854.603
299.862	18.907	1135.096	853.909
300.876	19.007	1134.500	853.881
301.891	18.941	1134.073	853.154
302.906	19.203	1133.552	853.988
303.920	19.181	1133.064	853.433
304.935	19.257	1132.452	853.276
305.949	19.396	1131.928	853.493
306.964	19.261	1131.256	852.241
307.979	19.221	1130.128	851.118
308.993	19.297	1129.286	850.787
310.008	19.309	1128.592	850.245
311.022	19.301	1127.902	849.614
312.037	19.243	1127.352	848.836
313.052	19.178	1126.150	847.540
314.066	19.040	1124.921	845.858
315.081	19.101	1123.846	845.275
316.095	19.127	1122.887	844.606
317.110	18.927	1122.697	843.410
318.125	18.982	1122.339	843.334
319.139	19.012	1121.361	842.672
320.154	19.058	1120.766	842.376
321.168	18.991	1120.033	841.425
322.183	19.064	1119.610	841.388
323.197	19.137	1118.830	841.086
324.212	19.042	1118.522	840.316
325.227	19.252	1117.555	840.539
326.241	19.141	1117.408	839.812
327.256	19.227	1116.008	839.104
328.270	19.158	1114.741	837.742
329.285	19.119	1114.308	837.150
330.300	19.132	1113.508	836.540
331.314	19.176	1112.203	835.701
332.329	19.132	1111.715	835.047
333.343	19.165	1110.963	834.568
334.358	19.211	1110.340	834.248
335.373	19.411	1109.059	834.179
336.387	19.514	1108.118	833.893
337.402	19.471	1107.635	833.249
338.416	19.402	1107.252	832.553
339.431	19.497	1106.580	832.436
340.446	19.610	1105.811	832.324
341.460	19.865	1105.261	833.068
342.475	19.818	1104.346	832.079
343.489	19.838	1103.751	831.653
344.504	19.828	1102.743	830.772
345.519	19.835	1102.294	830.393
346.533	19.909	1101.017	829.712
347.548	19.930	1100.737	829.527
348.562	19.824	1099.959	828.359
349.577	19.752	1098.680	826.978
350.592	19.651	1097.524	825.552
351.606	19.525	1097.239	824.664
352.621	19.453	1096.655	823.809
353.635	19.421	1095.923	823.031
354.650	19.527	1094.979	822.755
355.665	19.607	1094.381	822.615
356.679	19.641	1093.887	822.334
357.694	19.839	1092.990	822.528
358.708	19.707	1092.929	821.780
359.723	19.834	1092.113	821.697
360.738	19.852	1091.127	820.966
361.752	19.705	1091.285	820.317
362.767	19.821	1090.389	820.120
363.781	19.847	1089.961	819.851
364.796	19.903	1089.713	819.857
365.810	20.003	1088.912	819.655
366.825	20.060	1088.480	819.528
367.840	20.165	1087.927	819.533
368.854	20.127	1087.433	818.911
369.869	20.192	1086.234	818.240
370.883	20.074	1085.382	816.972
371.898	20.036	1084.469	816.033
372.913	20.086	1084.050	815.880
373.927	20.179	1083.503	815.834
374.942	20.241	1083.173	815.804
375.956	20.257	1082.232	815.099
376.971	20.156	1081.971	814.355
377.986	20.188	1081.432	814.030
379.000	20.306	1081.116	814.270
380.015	20.385	1080.318	813.969
381.029	20.485	1079.431	813.697
382.044	20.409	1078.759	812.765
383.059	20.388	1078.096	812.092
384.073	20.319	1077.369	811.152
385.088	20.505	1076.392	811.212
386.102	20.378	1075.724	810.043
387.117	20.439	1074.437	809.287
388.132	20.238	1073.446	807.533
389.146	20.121	1072.924	806.526
390.161	20.172	1071.610	805.706
391.175	20.241	1071.000	805.494
392.190	20.205	1070.782	805.093
393.205	20.367	1070.289	805.400
394.219	20.428	1069.121	804.736
395.234	20.352	1068.487	803.836
396.248	20.302	1067.025	802.431
397.263	20.276	1066.172	801.601
398.278	20.153	1065.267	800.279
399.292	20.253	1064.318	799.956
400.307	20.094	1064.028	798.938
401.321	20.088	1063.176	798.195
402.336	20.107	1062.949	798.043
403.350	20.081	1062.242	797.321
404.365	20.210	1061.330	797.162
405.380	20.290	1060.633	796.934
406.394	20.379	1059.903	796.722
407.409	20.422	1059.313	796.406
408.423	20.549	1058.651	796.420
409.438	20.737	1057.716	796.508
410.453	20.759	1056.897	795.920
411.467	20.700	1056.831	795.528
412.482	20.768	1055.879	795.053
413.496	20.838	1054.930	794.587
414.511	20.734	1054.816	793.957
415.526	20.827	1054.845	794.336
416.540	20.922	1053.873	793.962
417.555	20.964	1053.280	793.640
418.569	20.864	1052.691	792.668
419.584	20.865	1052.321	792.324
420.599	20.856	1052.063	792.020
421.613	155.310	1404.299	1795.293
422.628	142.490	1455.567	1795.377
