DTS Sentinel unit serial number:	SN413079Multiplexer serial number:	ORYXHardware model number:	OX4-SRSoftware version number:	ORYX F/W v4.00 Oryx Data Collector v3.7.2.0data status	okinstallation	princeton_trtdifferential loss correction	single-endedforward channel	channel 2reverse channel	N/Adate	2019/09/13time	13:11:35forward acquisition time	60.00reverse acquisition time	0.00gamma	496.2192k internal	0.2314k external	0.2314temperature offset calibration	1.0210default loss term (dB/km)	0.3790temperature slope calibration	1.0000multiplexer offset coefficient	1.0000multiplexer slope coefficient	1.0000fibre end	0.00T internal ref (°C)	34.87T ext. ref 1 (°C)	4.57T ext. ref 2 (°C)	31.11length (m)	temperature (°C)	Stokes	anti-Stokes-747.200	2.705	0.157	0.116
-746.185	-64.517	-0.071	0.029
-745.171	303.654	-0.030	-0.056
-744.156	-101.086	-0.259	0.064
-743.142	-17.365	-0.073	-0.046
-742.127	-14.532	-0.237	0.154
-741.112	-86.826	-0.188	-0.058
-740.098	39.380	-0.314	0.285
-739.083	-200.000	0.028	0.172
-738.069	59.769	0.024	0.024
-737.054	-0.390	-0.073	-0.052
-736.039	70.374	-0.137	0.143
-735.025	58.839	0.217	0.216
-734.010	-110.155	0.089	-0.019
-732.996	-28.171	-0.342	-0.200
-731.981	-89.421	-0.345	-0.103
-730.966	-82.621	-0.071	-0.023
-729.952	-127.943	-0.188	0.027
-728.937	-104.128	-0.317	-0.075
-727.923	199.883	0.109	-0.170
-726.908	800.000	0.073	-0.241
-725.894	60.654	0.138	-0.138
-724.879	-13.268	-0.184	-0.121
-723.864	-200.000	0.033	0.163
-722.850	-200.000	0.043	-0.270
-721.835	242.794	0.146	-0.247
-720.821	-77.942	0.215	0.075
-719.806	800.000	0.041	-0.137
-718.791	-83.596	0.173	0.056
-717.777	198.207	0.050	0.078
-716.762	800.000	0.045	-0.130
-715.748	-200.000	0.010	0.164
-714.733	-200.000	0.081	-0.397
-713.718	-151.304	-0.308	-0.023
-712.704	-133.757	0.150	-0.019
-711.689	237.153	-0.192	0.323
-710.675	383.235	-0.173	-0.360
-709.660	-32.111	-0.114	0.065
-708.645	-78.224	0.090	0.031
-707.631	31.182	0.156	0.135
-706.616	197.117	0.094	0.145
-705.602	264.916	0.044	-0.078
-704.587	-200.000	0.021	0.182
-703.572	-200.000	0.001	-0.132
-702.558	-57.974	-0.238	-0.105
-701.543	-135.800	-0.166	0.020
-700.529	-200.000	-0.058	-0.298
-699.514	-200.000	0.045	-0.271
-698.499	71.263	0.141	0.148
-697.485	-200.000	-0.003	-0.156
-696.470	-56.672	-0.245	0.110
-695.456	453.343	-0.060	-0.135
-694.441	-200.000	-0.009	0.064
-693.426	-70.284	-0.317	-0.122
-692.412	-35.834	-0.199	0.109
-691.397	490.500	-0.076	-0.175
-690.383	800.000	-0.016	0.061
-689.368	-200.000	-0.046	-0.365
-688.354	375.477	-0.102	0.210
-687.339	46.679	-0.034	-0.032
-686.324	-122.576	-0.216	0.035
-685.310	106.648	0.135	-0.162
-684.295	-180.168	0.192	0.004
-683.281	515.689	-0.010	0.023
-682.266	-42.172	0.283	0.146
-681.251	-120.052	0.314	0.054
-680.237	-200.000	-0.024	0.205
-679.222	800.000	-0.153	-0.451
-678.208	-52.152	-0.209	0.098
-677.193	-73.512	-0.170	0.063
-676.178	800.000	-0.091	-0.346
-675.164	109.804	-0.051	0.061
-674.149	-190.586	-0.309	0.003
-673.135	186.745	-0.136	0.205
-672.120	-200.000	-0.074	-0.333
-671.105	-200.000	-0.032	-0.332
-670.091	-98.036	0.193	-0.050
-669.076	-180.355	-0.216	-0.005
-668.062	-200.000	-0.015	-0.116
-667.047	-120.647	0.367	-0.063
-666.032	-39.475	0.340	0.180
-665.018	488.732	0.047	0.110
-664.003	-200.000	-0.515	-0.001
-662.989	-200.000	-0.014	0.110
-661.974	-73.176	-0.187	-0.069
-660.959	318.412	0.120	-0.229
-659.945	-200.000	-0.006	0.376
-658.930	-59.342	-0.177	0.077
-657.916	-102.120	-0.268	-0.065
-656.901	-103.664	0.226	0.054
-655.886	-152.361	0.141	-0.010
-654.872	50.666	-0.115	-0.110
-653.857	-102.989	-0.171	-0.041
-652.843	800.000	-0.145	-0.415
-651.828	180.605	0.112	0.167
-650.814	20.992	0.091	-0.075
-649.799	619.258	-0.118	0.300
-648.784	-200.000	-0.008	0.036
-647.770	-200.000	-0.088	0.000
-646.755	-125.143	-0.063	0.010
-645.741	800.000	0.066	-0.280
-644.726	-83.796	-0.513	-0.165
-643.711	-5.362	0.320	-0.222
-642.697	-174.764	-0.118	-0.003
-641.682	-70.025	0.048	0.018
-640.668	-157.796	-0.345	0.021
-639.653	-150.983	0.247	0.019
-638.638	236.144	0.045	0.076
-637.624	27.076	-0.040	-0.034
-636.609	-42.504	-0.261	0.134
-635.595	-45.038	0.087	0.044
-634.580	-20.110	0.264	-0.165
-633.565	800.000	0.054	0.204
-632.551	54.923	0.046	0.045
-631.536	57.930	0.097	0.096
-630.522	-141.569	0.434	-0.044
-629.507	67.994	0.037	0.038
-628.492	-80.006	0.036	-0.012
-627.478	800.000	-0.134	-0.488
-626.463	431.404	0.157	-0.344
-625.449	61.039	0.106	0.106
-624.434	-124.811	-0.232	-0.036
-623.419	-108.652	-0.136	-0.029
-622.405	14.028	0.098	-0.077
-621.390	121.510	-0.194	-0.244
-620.376	228.095	-0.144	-0.236
-619.361	128.503	0.109	-0.140
-618.346	-97.808	-0.416	0.109
-617.332	-160.064	0.023	-0.001
-616.317	-25.484	-0.305	-0.182
-615.303	429.901	-0.071	-0.156
-614.288	472.725	-0.038	0.086
-613.273	800.000	0.048	0.146
-612.259	-86.545	-0.121	-0.037
-611.244	-15.779	-0.065	-0.042
-610.230	-200.000	-0.037	0.282
-609.215	-85.329	0.070	-0.022
-608.201	8.211	0.137	-0.104
-607.186	-10.567	-0.352	-0.235
-606.171	800.000	-0.020	-0.062
-605.157	800.000	-0.013	0.052
-604.142	-92.987	-0.315	-0.089
-603.128	-2.211	0.329	0.233
-602.113	-200.000	0.033	-0.242
-601.098	0.743	-0.491	-0.354
-600.084	-118.265	-0.069	-0.012
-599.069	-18.389	0.166	-0.104
-598.055	-165.406	0.246	0.011
-597.040	13.423	-0.116	-0.091
-596.025	631.793	0.196	-0.500
-595.011	-52.837	0.242	0.112
-593.996	-127.026	-0.266	-0.039
-592.982	-62.969	-0.056	0.023
-591.967	-156.027	-0.292	-0.019
-590.952	-200.000	0.010	-0.131
-589.938	218.348	-0.057	-0.092
-588.923	-196.540	-0.079	0.001
-587.909	589.759	0.118	0.293
-586.894	386.868	-0.039	-0.082
-585.879	340.718	-0.104	0.204
-584.865	291.867	0.222	-0.408
-583.850	-137.927	0.085	-0.010
-582.836	-54.364	0.076	0.035
-581.821	-69.273	0.174	0.067
-580.806	602.107	0.053	0.134
-579.792	800.000	0.032	-0.104
-578.777	16.142	0.127	0.101
-577.763	800.000	0.039	-0.113
-576.748	157.034	0.046	-0.064
-575.733	-180.130	0.172	-0.004
-574.719	-62.532	-0.104	-0.044
-573.704	-200.000	-0.045	-0.250
-572.690	800.000	0.051	-0.221
-571.675	-3.614	-0.054	0.038
-570.661	33.718	-0.250	-0.219
-569.646	-19.864	-0.263	-0.164
-568.631	800.000	0.054	-0.194
-567.617	-200.000	-0.009	0.050
-566.602	261.941	-0.155	-0.271
-565.588	800.000	-0.035	0.129
-564.573	-54.092	-0.283	0.130
-563.558	800.000	0.095	0.367
-562.544	136.724	-0.126	0.166
-561.529	70.598	-0.213	-0.222
-560.515	583.767	-0.057	0.140
-559.500	4.004	0.183	0.135
-558.485	170.179	-0.180	0.258
-557.471	-75.514	-0.073	-0.026
-556.456	46.793	-0.016	-0.015
-555.442	198.555	0.218	0.335
-554.427	-200.000	-0.019	-0.232
-553.412	-47.064	0.493	-0.242
-552.398	99.737	0.166	0.194
-551.383	-20.807	0.261	-0.161
-550.369	778.769	0.067	0.185
-549.354	419.089	0.111	0.238
-548.339	-200.000	0.036	-0.366
-547.325	-26.798	-0.217	-0.128
-546.310	800.000	0.031	-0.114
-545.296	598.568	0.036	-0.091
-544.281	-13.288	-0.189	-0.123
-543.266	273.071	0.088	-0.157
-542.252	-154.324	0.021	-0.001
-541.237	-29.878	0.412	0.236
-540.223	-20.406	-0.026	-0.016
-539.208	-94.640	-0.412	-0.113
-538.193	-72.918	-0.132	-0.049
-537.179	800.000	-0.109	-0.340
-536.164	-4.087	-0.270	-0.188
-535.150	-152.077	0.181	0.013
-534.135	-200.000	-0.006	-0.184
-533.121	-200.000	0.029	0.276
-532.106	-200.000	-0.011	-0.140
-531.091	41.017	0.173	-0.157
-530.077	-200.000	0.050	-0.379
-529.062	-16.037	-0.358	-0.229
-528.048	-200.000	0.007	-0.217
-527.033	-129.030	0.337	0.047
-526.018	-134.704	-0.419	-0.051
-525.004	130.044	-0.151	0.194
-523.989	79.128	0.120	-0.129
-522.975	87.911	0.226	0.252
-521.960	-55.372	-0.298	0.135
-520.945	-113.365	-0.078	0.015
-519.931	-114.703	-0.077	-0.015
-518.916	800.000	0.056	0.160
-517.902	118.637	-0.124	-0.154
-516.887	-127.547	-0.105	-0.015
-515.872	-200.000	-0.011	0.250
-514.858	-200.000	0.002	-0.146
-513.843	265.225	-0.080	-0.139
-512.829	-116.882	-0.199	-0.037
-511.814	318.723	-0.118	0.225
-510.799	534.333	-0.098	0.234
-509.785	262.106	0.115	0.200
-508.770	480.032	0.038	-0.086
-507.756	19.704	-0.166	-0.135
-506.741	800.000	-0.055	0.221
-505.726	-24.264	0.060	0.036
-504.712	674.740	-0.056	0.146
-503.697	107.909	-0.213	0.255
-502.683	65.368	0.164	-0.166
-501.668	221.980	0.217	-0.351
-500.653	-18.369	-0.178	-0.112
-499.639	-183.200	-0.171	-0.003
-498.624	-114.880	0.344	0.066
-497.610	7.919	0.137	0.103
-496.595	62.842	0.049	-0.049
-495.581	91.360	0.146	-0.165
-494.566	-200.000	0.017	-0.149
-493.551	-15.774	-0.335	0.214
-492.537	-200.000	-0.059	-0.319
-491.522	-198.853	-0.386	-0.002
-490.508	212.772	0.207	0.327
-489.493	-27.181	0.232	0.136
-488.478	-50.038	0.093	0.044
-487.464	-79.007	-0.309	-0.105
-486.449	124.242	-0.028	0.035
-485.435	183.787	-0.106	-0.157
-484.420	195.790	0.281	-0.430
-483.405	1.117	0.144	-0.103
-482.391	-200.000	-0.064	-0.336
-481.376	800.000	0.036	-0.125
-480.362	40.701	0.135	0.122
-479.347	-122.348	0.406	-0.066
-478.332	117.097	0.193	0.237
-477.318	800.000	0.132	-0.477
-476.303	-47.559	0.154	0.075
-475.289	-200.000	0.016	-0.179
-474.274	-86.021	-0.186	0.058
-473.259	34.904	-0.246	0.216
-472.245	-62.517	0.492	0.205
-471.230	65.127	0.067	0.068
-470.216	61.153	0.129	-0.129
-469.201	-27.015	0.138	-0.081
-468.186	-17.791	-0.262	0.165
-467.172	343.557	0.168	0.329
-466.157	-129.298	-0.132	0.018
-465.143	306.545	-0.106	0.197
-464.128	61.787	-0.102	-0.101
-463.113	87.289	0.229	-0.254
-462.099	522.653	0.019	-0.045
-461.084	-9.062	0.325	-0.218
-460.070	800.000	-0.033	0.134
-459.055	800.000	-0.137	0.421
-458.040	-200.000	0.022	0.253
-457.026	191.398	0.073	-0.111
-456.011	800.000	0.081	-0.281
-454.997	-135.753	0.095	0.011
-453.982	-200.000	-0.029	0.346
-452.968	405.642	0.168	-0.356
-451.953	800.000	0.032	-0.127
-450.938	125.295	-0.133	-0.168
-449.924	-55.190	-0.068	-0.031
-448.909	-200.000	-0.014	-0.097
-447.895	59.030	0.119	-0.118
-446.880	-152.934	-0.034	-0.002
-445.865	-108.235	0.179	0.039
-444.851	59.783	0.133	0.131
-443.836	114.507	-0.167	0.204
-442.822	-93.368	-0.167	0.046
-441.807	800.000	-0.086	0.286
-440.792	-90.258	0.142	0.041
-439.778	44.204	0.075	0.069
-438.763	-95.128	0.174	0.047
-437.749	-102.486	-0.146	-0.035
-436.734	-57.175	0.283	0.125
-435.719	109.623	-0.130	-0.156
-434.705	-49.085	-0.274	0.131
-433.690	13.691	-0.155	0.121
-432.676	-91.542	0.340	0.097
-431.661	-104.398	-0.201	0.047
-430.646	800.000	-0.015	0.051
-429.632	-200.000	-0.043	0.225
-428.617	55.496	-0.250	0.242
-427.603	380.361	-0.114	0.235
-426.588	800.000	0.040	-0.119
-425.573	-8.777	0.407	-0.273
-424.559	100.121	-0.205	-0.238
-423.544	-200.000	0.012	0.134
-422.530	-200.000	0.031	0.278
-421.515	118.332	-0.473	0.584
-420.500	-99.045	0.233	0.059
-419.486	128.160	-0.041	-0.052
-418.471	800.000	-0.140	0.413
-417.457	-95.311	0.350	-0.094
-416.442	11.768	0.238	-0.183
-415.428	416.217	0.095	-0.203
-414.413	61.394	0.284	0.283
-413.398	527.399	0.078	0.183
-412.384	-126.649	0.328	0.049
-411.369	32.166	-0.261	0.226
-410.355	-118.515	0.263	0.047
-409.340	190.417	-0.205	-0.308
-408.325	-161.167	0.212	0.011
-407.311	317.355	0.185	0.350
-406.296	800.000	0.011	0.046
-405.282	82.747	0.148	0.161
-404.267	10.435	0.227	0.173
-403.252	-57.632	0.187	-0.082
-402.238	649.887	0.107	0.274
-401.223	-16.889	0.199	-0.126
-400.209	189.729	0.165	-0.247
-399.194	-200.000	-0.009	0.077
-398.179	-200.000	-0.016	-0.156
-397.165	451.680	-0.078	0.173
-396.150	29.628	-0.178	-0.151
-395.136	157.382	-0.099	-0.137
-394.121	-164.974	0.161	-0.007
-393.106	-92.636	0.223	0.063
-392.092	20.082	0.113	0.091
-391.077	497.256	-0.123	0.284
-390.063	800.000	-0.103	-0.398
-389.048	-104.058	0.411	-0.096
-388.033	-200.000	0.056	0.311
-387.019	-200.000	-0.012	0.102
-386.004	248.441	0.074	-0.126
-384.990	207.486	-0.067	-0.105
-383.975	-103.742	-0.183	-0.043
-382.960	-200.000	0.074	-0.373
-381.946	-200.000	-0.018	0.353
-380.931	364.986	0.064	-0.129
-379.917	337.030	-0.115	-0.224
-378.902	-163.857	0.380	-0.018
-377.888	-200.000	-0.040	0.355
-376.873	-85.828	0.161	-0.050
-375.858	-44.114	-0.156	-0.078
-374.844	-200.000	-0.022	-0.392
-373.829	-65.809	0.036	-0.014
-372.815	800.000	0.090	-0.290
-371.800	800.000	0.021	-0.068
-370.785	-85.422	-0.323	0.101
-369.771	-200.000	-0.076	-0.394
-368.756	-122.485	0.177	-0.029
-367.742	-200.000	-0.044	-0.294
-366.727	-178.641	-0.244	-0.006
-365.712	44.050	0.425	0.389
-364.698	280.998	-0.165	0.295
-363.683	-145.034	-0.138	-0.013
-362.669	361.860	-0.062	-0.124
-361.654	-91.963	0.266	-0.075
-360.639	-22.236	-0.324	-0.196
-359.625	-30.722	0.085	0.048
-358.610	95.722	-0.103	0.117
-357.596	-39.810	-0.046	-0.024
-356.581	800.000	-0.077	-0.215
-355.566	145.088	-0.048	0.064
-354.552	238.606	-0.136	-0.225
-353.537	-84.269	-0.186	0.059
-352.523	-25.304	0.141	-0.083
-351.508	144.305	0.117	0.156
-350.493	-144.509	-0.416	0.038
-349.479	-200.000	0.024	0.234
-348.464	322.652	-0.180	-0.343
-347.450	-48.726	0.322	0.154
-346.435	-200.000	-0.001	0.073
-345.420	-54.984	-0.093	0.042
-344.406	-89.888	0.261	-0.076
-343.391	-20.946	-0.231	-0.141
-342.377	-200.000	0.028	0.250
-341.362	-7.244	-0.268	0.182
-340.348	763.387	0.048	-0.131
-339.333	-44.382	0.058	0.029
-338.318	-156.673	-0.326	-0.020
-337.304	-160.748	-0.257	0.014
-336.289	-138.199	0.214	-0.024
-335.275	-62.022	-0.070	0.029
-334.260	-80.346	0.359	0.120
-333.245	313.060	0.119	0.223
-332.231	-200.000	-0.022	-0.173
-331.216	-200.000	-0.006	-0.029
-330.202	480.724	0.139	-0.314
-329.187	226.865	-0.082	0.132
-328.172	-127.816	-0.335	-0.048
-327.158	-200.000	0.039	-0.219
-326.143	800.000	0.054	0.185
-325.129	-200.000	-0.013	0.211
-324.114	324.773	-0.086	0.165
-323.099	-110.994	-0.046	-0.009
-322.085	-79.138	-0.644	-0.218
-321.070	92.052	-0.241	0.270
-320.056	-24.967	0.239	-0.141
-319.041	-121.422	-0.331	0.055
-318.026	302.758	-0.066	-0.122
-317.012	-94.646	0.051	-0.014
-315.997	23.195	-0.177	0.145
-314.983	-49.248	-0.290	0.138
-313.968	-146.608	-0.239	0.021
-312.953	-83.294	-0.160	-0.051
-311.939	268.438	0.118	-0.207
-310.924	-200.000	0.034	-0.201
-309.910	-106.751	-0.144	0.032
-308.895	326.399	-0.174	0.332
-307.880	-200.000	-0.004	0.201
-306.866	81.277	-0.317	-0.342
-305.851	-72.092	0.253	-0.094
-304.837	-92.807	0.246	0.068
-303.822	-182.757	-0.257	0.005
-302.807	305.497	-0.064	-0.118
-301.793	-200.000	-0.017	0.270
-300.778	-124.857	0.097	0.015
-299.764	119.651	-0.067	-0.083
-298.749	64.896	-0.103	-0.104
-297.735	165.233	-0.092	-0.130
-296.720	-188.337	0.241	-0.003
-295.705	-91.778	-0.386	0.109
-294.691	-55.246	-0.150	-0.067
-293.676	-158.586	0.322	-0.018
-292.662	-30.920	0.378	0.212
-291.647	-200.000	0.016	0.291
-290.632	800.000	0.068	0.225
-289.618	38.576	-0.139	-0.124
-288.603	274.258	0.095	-0.167
-287.589	140.502	0.247	-0.325
-286.574	-119.786	0.306	0.052
-285.559	-200.000	0.031	0.297
-284.545	-200.000	-0.032	0.237
-283.530	-84.586	0.192	0.060
-282.516	12.125	0.067	-0.051
-281.501	83.244	0.166	0.180
-280.486	-16.953	0.214	0.135
-279.472	-70.432	0.226	0.085
-278.457	-113.024	-0.074	0.015
-277.443	-21.521	0.272	0.165
-276.428	-200.000	-0.043	-0.204
-275.413	-64.722	-0.127	0.051
-274.399	800.000	0.093	-0.383
-273.384	-95.204	-0.230	-0.062
-272.370	791.427	-0.035	0.095
-271.355	-47.821	0.065	0.031
-270.340	22.229	0.402	0.327
-269.326	-10.745	-0.269	0.177
-268.311	-200.000	0.037	0.269
-267.297	-200.000	0.010	-0.184
-266.282	-80.890	-0.152	-0.050
-265.267	9.393	-0.310	0.233
-264.253	178.842	-0.128	-0.187
-263.238	-120.727	-0.106	0.018
-262.224	311.367	-0.047	-0.087
-261.209	-50.386	0.228	-0.107
-260.195	-200.000	-0.056	0.349
-259.180	415.368	-0.068	0.144
-258.165	28.285	0.230	0.193
-257.151	-97.990	-0.198	-0.051
-256.136	259.422	0.173	-0.297
-255.122	800.000	0.012	-0.040
-254.107	-32.044	0.132	-0.073
-253.092	-129.761	-0.073	0.010
-252.078	-34.584	0.231	-0.126
-251.063	-108.112	-0.299	0.064
-250.049	193.819	-0.111	0.167
-249.034	56.500	-0.188	-0.182
-248.019	-143.091	0.233	0.022
-247.005	-200.000	-0.033	-0.229
-245.990	-200.000	0.008	0.113
-244.976	49.925	-0.098	0.092
-243.961	513.586	-0.167	0.388
-242.946	-200.000	0.022	0.207
-241.932	-64.653	-0.477	0.192
-240.917	2.300	0.093	0.067
-239.903	194.647	0.129	-0.194
-238.888	97.669	0.111	0.126
-237.873	-17.371	0.135	0.085
-236.859	555.788	-0.069	0.164
-235.844	308.510	-0.186	0.344
-234.830	235.129	-0.159	-0.261
-233.815	-65.337	-0.284	-0.114
-232.800	166.973	0.116	-0.164
-231.786	-9.781	-0.135	0.089
-230.771	-34.514	-0.252	0.137
-229.757	108.118	-0.145	0.172
-228.742	534.434	-0.055	0.130
-227.727	-130.885	-0.209	0.028
-226.713	-22.303	0.318	-0.192
-225.698	779.279	0.024	-0.064
-224.684	44.884	-0.163	0.149
-223.669	370.779	0.103	0.207
-222.655	-111.129	-0.092	-0.019
-221.640	389.702	-0.113	-0.233
-220.625	121.343	-0.212	-0.262
-219.611	38.827	0.199	-0.177
-218.596	2.213	0.158	0.113
-217.582	286.874	0.023	0.042
-216.567	28.184	0.148	0.124
-215.552	30.013	-0.057	0.048
-214.538	6.144	0.140	0.103
-213.523	-50.645	-0.205	0.096
-212.509	278.834	-0.110	-0.195
-211.494	800.000	0.083	0.229
-210.479	-125.929	-0.163	-0.024
-209.465	-29.655	0.125	-0.071
-208.450	236.872	0.061	-0.100
-207.436	-200.000	0.003	-0.274
-206.421	-52.787	0.232	-0.106
-205.406	800.000	0.019	0.077
-204.392	800.000	0.061	-0.214
-203.377	800.000	0.057	-0.210
-202.363	-184.735	-0.199	0.003
-201.348	4.565	-0.088	-0.064
-200.333	455.944	-0.092	-0.203
-199.319	800.000	-0.030	0.104
-198.304	-52.601	0.328	-0.150
-197.290	68.554	-0.238	0.243
-196.275	-200.000	-0.006	0.087
-195.260	-103.227	-0.176	0.041
-194.246	391.508	-0.143	-0.295
-193.231	-51.349	-0.226	-0.105
-192.217	-1.626	-0.261	0.182
-191.202	-35.424	-0.209	0.112
-190.187	-165.230	0.219	-0.010
-189.173	-14.776	0.099	-0.063
-188.158	-159.383	0.176	-0.010
-187.144	-200.000	0.014	-0.101
-186.129	-93.863	0.398	0.109
-185.114	-1.094	0.027	0.019
-184.100	800.000	0.045	-0.184
-183.085	245.983	0.039	0.065
-182.071	-139.824	0.514	0.054
-181.056	-76.228	0.330	-0.115
-180.042	198.527	-0.144	0.218
-179.027	-200.000	0.018	0.113
-178.012	48.901	0.128	0.119
-176.998	-85.250	0.212	-0.066
-175.983	-22.701	-0.104	-0.062
-174.969	22.062	-0.054	-0.044
-173.954	-50.147	0.325	0.153
-172.939	168.495	0.212	0.299
-171.925	-106.912	0.078	0.017
-170.910	-80.097	-0.291	-0.097
-169.896	386.079	0.041	0.085
-168.881	-41.846	0.196	0.099
-167.866	1.715	-0.185	0.132
-166.852	47.089	-0.024	0.022
-165.837	-10.578	0.240	-0.157
-164.823	223.699	0.111	-0.177
-163.808	756.304	-0.113	0.302
-162.793	-20.191	0.243	-0.148
-161.779	267.154	0.216	0.373
-160.764	-100.133	-0.197	0.049
-159.750	66.391	0.156	0.157
-158.735	-77.766	0.036	-0.012
-157.720	242.944	0.050	-0.082
-156.706	-61.182	-0.247	-0.103
-155.691	-12.176	0.082	-0.053
-154.677	59.492	0.232	0.227
-153.662	776.368	0.024	0.066
-152.647	-10.386	-0.192	0.126
-151.633	-200.000	-0.017	0.116
-150.618	-200.000	-0.003	0.230
-149.604	208.537	0.025	-0.039
-148.589	140.201	0.125	0.163
-147.574	-200.000	0.025	-0.185
-146.560	800.000	0.031	-0.094
-145.545	-65.111	0.052	-0.021
-144.531	171.554	-0.130	-0.185
-143.516	-109.039	-0.162	-0.034
-142.502	530.357	-0.106	0.247
-141.487	112.102	-0.150	0.179
-140.472	81.948	-0.264	0.284
-139.458	234.279	0.044	0.072
-138.443	-200.000	0.030	-0.461
-137.429	-200.000	0.002	0.128
-136.414	-75.839	0.197	0.069
-135.399	128.216	0.061	0.077
-134.385	63.830	-0.241	0.240
-133.370	5.870	0.060	0.044
-132.356	48.376	0.073	-0.068
-131.341	169.058	-0.099	-0.140
-130.326	89.812	0.199	-0.220
-129.312	342.291	0.107	0.207
-128.297	-17.596	0.408	-0.254
-127.283	-106.656	-0.299	-0.066
-126.268	497.028	0.128	0.291
-125.253	-120.619	-0.294	-0.049
-124.239	65.092	-0.026	-0.026
-123.224	-200.000	-0.008	-0.169
-122.210	350.707	-0.053	-0.104
-121.195	-38.993	0.104	-0.054
-120.180	-200.000	-0.047	-0.227
-119.166	266.508	-0.078	-0.135
-118.151	-99.623	0.328	0.082
-117.137	97.590	0.047	-0.054
-116.122	-200.000	0.009	-0.208
-115.107	131.121	-0.177	-0.225
-114.093	-178.151	-0.066	-0.002
-113.078	-160.349	0.116	-0.006
-112.064	59.406	0.187	-0.182
-111.049	-200.000	-0.042	0.362
-110.034	142.860	0.165	0.217
-109.020	-18.580	-0.217	0.134
-108.005	-140.447	-0.211	-0.022
-106.991	14.687	0.169	-0.130
-105.976	310.625	0.175	0.324
-104.962	-169.419	-0.239	0.009
-103.947	35.137	-0.241	0.209
-102.932	-200.000	-0.011	-0.100
-101.918	-200.000	0.001	0.250
-100.903	-75.678	0.532	-0.187
-99.889	800.000	0.102	-0.378
-98.874	58.044	-0.099	0.096
-97.859	-108.080	0.286	0.061
-96.845	-106.802	-0.236	-0.052
-95.830	800.000	0.104	-0.394
-94.816	-200.000	0.003	0.225
-93.801	13.736	-0.177	0.136
-92.786	409.077	-0.111	0.232
-91.772	167.066	0.063	0.088
-90.757	-65.866	-0.134	0.053
-89.743	76.432	0.186	0.195
-88.728	-200.000	0.015	-0.097
-87.713	-55.917	-0.214	-0.094
-86.699	437.570	0.103	-0.221
-85.684	-67.400	0.149	0.058
-84.670	800.000	-0.029	-0.123
-83.655	-88.992	-0.030	0.009
-82.640	5.853	-0.247	-0.181
-81.626	-200.000	0.074	0.405
-80.611	800.000	0.026	-0.092
-79.597	-20.151	0.097	0.059
-78.582	8.723	0.171	-0.127
-77.567	76.282	0.175	0.183
-76.553	363.659	0.047	-0.094
-75.538	-200.000	-0.018	-0.192
-74.524	-100.675	-0.165	0.040
-73.509	79.546	0.224	-0.237
-72.494	200.762	-0.074	-0.112
-71.480	-82.444	0.108	0.035
-70.465	137.706	-0.254	-0.328
-69.451	373.113	-0.052	-0.103
-68.436	-34.027	-0.218	-0.119
-67.422	78.581	0.178	0.187
-66.407	800.000	-0.145	-0.425
-65.392	-120.565	0.079	0.013
-64.378	-60.655	0.231	-0.097
-63.363	-200.000	-0.009	0.112
-62.349	406.760	-0.193	0.402
-61.334	213.272	-0.662	-1.032
-60.319	146.132	0.220	0.291
-59.305	421.001	-0.346	-0.732
-58.290	-200.000	0.082	0.981
-57.276	-200.000	0.392	1.703
-56.261	-200.000	95.376	559.212
-55.246	636.589	1384.398	3468.853
-54.232	185.873	2616.390	3837.162
-53.217	116.198	2322.628	2807.080
-52.203	44.727	1933.061	1754.095
-51.188	38.225	1718.720	1509.522
-50.173	35.305	1672.859	1447.184
-49.159	51.514	1720.166	1612.497
-48.144	54.975	1738.266	1655.885
-47.130	37.818	1695.066	1485.412
-46.115	34.971	1679.590	1450.249
-45.100	34.825	1674.591	1444.769
-44.086	34.799	1672.018	1442.295
-43.071	34.820	1669.303	1440.058
-42.057	34.713	1667.216	1437.397
-41.042	34.735	1665.157	1435.727
-40.027	34.765	1663.222	1434.227
-39.013	34.766	1661.132	1432.372
-37.998	34.693	1659.881	1430.691
-36.984	34.785	1658.182	1429.863
-35.969	34.876	1656.770	1429.262
-34.954	34.990	1654.833	1428.391
-33.940	34.859	1653.651	1426.339
-32.925	34.850	1651.496	1424.351
-31.911	34.764	1650.321	1422.640
-30.896	34.956	1647.939	1421.959
-29.881	34.817	1646.874	1419.951
-28.867	34.821	1644.789	1418.130
-27.852	34.904	1643.180	1417.300
-26.838	34.875	1641.822	1415.857
-25.823	34.901	1640.632	1414.970
-24.809	34.814	1639.590	1413.369
-23.794	34.891	1637.741	1412.286
-22.779	34.934	1635.838	1410.908
-21.765	34.961	1633.995	1409.460
-20.750	34.908	1632.832	1408.015
-19.736	34.922	1631.194	1406.647
-18.721	34.983	1629.750	1405.795
-17.706	34.916	1628.216	1403.924
-16.692	34.936	1626.422	1402.467
-15.677	34.906	1624.641	1400.655
-14.663	34.914	1623.739	1399.881
-13.648	34.821	1622.749	1398.293
-12.633	34.817	1620.814	1396.541
-11.619	34.918	1619.436	1396.032
-10.604	34.870	1618.073	1394.455
-9.590	35.022	1616.333	1394.006
-8.575	34.968	1614.850	1392.281
-7.560	34.871	1613.810	1390.621
-6.546	34.902	1612.736	1389.866
-5.531	34.878	1611.717	1388.758
-4.517	34.903	1610.289	1387.654
-3.502	34.890	1609.599	1386.911
-2.487	35.043	1607.885	1386.487
-1.473	34.891	1596.184	1375.248
-0.458	31.990	1576.120	1337.274
0.556	30.319	1575.761	1299.702
1.571	27.458	1599.542	1298.827
2.586	26.348	1612.004	1300.848
3.600	22.898	1558.239	1233.309
4.615	14.061	1445.122	1086.187
5.629	6.110	1379.648	987.115
6.644	4.522	1371.106	970.996
7.659	4.568	1369.945	970.374
8.673	4.596	1368.982	969.785
9.688	4.615	1366.873	968.320
10.702	4.579	1364.636	966.429
11.717	8.313	1371.858	994.759
12.731	17.008	1388.551	1061.393
13.746	22.564	1396.244	1102.027
14.761	22.792	1394.878	1102.270
15.775	21.905	1393.505	1095.552
16.790	20.998	1390.895	1087.752
17.804	20.103	1388.264	1080.023
18.819	19.760	1387.250	1076.999
19.834	19.660	1385.750	1075.121
20.848	19.455	1385.305	1073.400
21.863	19.361	1383.750	1071.519
22.877	19.212	1382.498	1069.533
23.892	19.203	1381.483	1068.592
24.907	19.166	1380.959	1067.867
25.921	19.165	1379.656	1066.759
26.936	19.172	1378.809	1066.050
27.950	19.245	1377.954	1065.748
28.965	19.366	1376.959	1065.628
29.980	19.474	1375.729	1065.250
30.994	19.577	1375.021	1065.243
32.009	19.665	1374.021	1064.920
33.023	19.560	1372.692	1063.148
34.038	19.573	1371.242	1062.008
35.053	19.360	1369.891	1059.559
36.067	19.336	1368.722	1058.418
37.082	19.395	1367.806	1057.973
38.096	19.480	1366.815	1057.638
39.111	19.420	1366.471	1056.907
40.126	19.258	1365.266	1054.889
41.140	19.080	1364.073	1052.786
42.155	18.893	1363.269	1050.933
43.169	18.870	1363.201	1050.646
44.184	18.912	1363.008	1050.659
45.199	18.879	1362.682	1050.115
46.213	18.999	1362.377	1050.516
47.228	19.257	1361.658	1051.445
48.242	19.310	1360.268	1050.604
49.257	19.276	1358.880	1049.233
50.271	19.228	1356.990	1047.389
51.286	19.273	1356.524	1047.210
52.301	19.263	1354.709	1045.653
53.315	19.220	1353.134	1044.086
54.330	19.001	1352.306	1042.029
55.344	18.970	1351.298	1040.970
56.359	19.057	1349.800	1040.251
57.374	18.980	1349.489	1039.451
58.388	18.869	1348.879	1038.221
59.403	18.844	1348.451	1037.650
60.417	18.944	1347.152	1037.161
61.432	18.649	1347.006	1035.174
62.447	18.665	1345.729	1034.203
63.461	18.622	1343.990	1032.517
64.476	18.630	1343.266	1031.914
65.490	18.653	1342.136	1031.093
66.505	18.733	1339.869	1029.741
67.520	18.695	1338.915	1028.690
68.534	18.785	1337.838	1028.308
69.549	18.681	1337.304	1027.184
70.563	18.539	1336.229	1025.421
71.578	18.555	1334.984	1024.469
72.593	18.490	1333.937	1023.184
73.607	18.379	1333.437	1022.053
74.622	18.519	1332.543	1022.112
75.636	18.514	1331.841	1021.452
76.651	18.594	1331.201	1021.347
77.666	18.580	1330.923	1020.959
78.680	18.758	1330.007	1021.223
79.695	18.700	1330.057	1020.827
80.709	18.815	1329.199	1020.762
81.724	18.965	1328.348	1020.911
82.739	19.069	1327.397	1020.702
83.753	19.123	1326.987	1020.622
84.768	19.288	1325.964	1020.722
85.782	19.473	1324.721	1020.764
86.797	19.412	1323.495	1019.373
87.812	19.356	1322.309	1018.033
88.826	19.170	1321.783	1016.446
89.841	19.274	1320.459	1015.949
90.855	19.450	1319.273	1015.982
91.870	19.425	1318.756	1015.348
92.884	19.492	1317.252	1014.496
93.899	19.509	1317.113	1014.399
94.914	19.555	1316.576	1014.164
95.928	19.579	1315.400	1013.307
96.943	19.465	1314.537	1011.885
97.957	19.443	1313.682	1011.012
98.972	19.295	1312.544	1009.176
99.987	19.375	1311.291	1008.596
101.001	19.402	1310.479	1008.035
102.016	19.450	1309.495	1007.471
103.030	19.463	1308.737	1006.877
104.045	19.286	1307.939	1005.141
105.060	19.218	1306.217	1003.333
106.074	18.913	1304.850	1000.420
107.089	18.803	1302.725	998.064
108.103	18.576	1302.080	996.159
109.118	18.772	1300.464	995.971
110.133	18.784	1299.234	995.011
111.147	18.712	1298.107	993.646
112.162	18.860	1296.468	993.156
113.176	18.825	1296.043	992.541
114.191	19.021	1294.759	992.604
115.206	18.833	1294.066	990.896
116.220	18.846	1292.577	989.744
117.235	18.888	1291.553	989.115
118.249	18.951	1290.278	988.411
119.264	18.793	1289.297	986.668
120.279	18.732	1287.748	985.042
121.293	18.607	1287.027	983.688
122.308	18.615	1286.237	983.043
123.322	18.484	1284.846	981.144
124.337	18.458	1283.758	980.079
125.352	18.535	1282.683	979.611
126.366	18.591	1281.339	978.819
127.381	18.581	1280.979	978.397
128.395	18.568	1279.766	977.309
129.410	18.620	1279.185	977.075
130.424	18.608	1278.300	976.247
131.439	18.816	1277.370	976.634
132.454	18.807	1276.682	975.967
133.468	18.882	1275.637	975.510
134.483	18.847	1275.232	974.912
135.497	18.935	1273.802	974.236
136.512	18.930	1272.780	973.335
137.527	18.827	1271.582	971.752
138.541	18.980	1270.193	971.471
139.556	19.091	1268.945	971.053
140.570	19.106	1268.274	970.539
141.585	19.217	1266.926	970.050
142.600	19.209	1265.649	968.941
143.614	19.477	1264.932	969.812
144.629	19.440	1263.958	968.772
145.643	19.363	1262.895	967.439
146.658	19.297	1261.266	965.734
147.673	19.066	1259.791	963.225
148.687	18.958	1258.551	961.590
149.702	19.000	1257.116	960.646
150.716	18.934	1255.869	959.235
151.731	18.900	1254.520	957.933
152.746	19.009	1253.493	957.670
153.760	19.165	1252.487	957.684
154.775	18.999	1251.764	956.123
155.789	19.201	1250.655	956.316
156.804	19.083	1249.946	955.032
157.819	19.186	1248.686	954.558
158.833	19.446	1247.523	955.021
159.848	19.511	1246.957	954.867
160.862	19.357	1246.224	953.367
161.877	19.190	1244.590	951.111
162.892	18.982	1243.326	948.916
163.906	18.958	1242.200	947.837
164.921	18.899	1241.928	947.222
165.935	19.034	1241.017	947.184
166.950	19.194	1240.311	947.444
167.964	19.083	1239.892	946.430
168.979	19.070	1239.097	945.670
169.994	19.012	1238.045	944.460
171.008	19.171	1237.193	944.599
172.023	19.197	1236.746	944.320
173.037	19.322	1236.395	944.652
174.052	19.246	1235.265	943.288
175.067	19.069	1234.038	941.299
176.081	18.978	1232.509	939.554
177.096	18.961	1231.896	938.911
178.110	19.054	1230.591	938.341
179.125	19.048	1229.698	937.542
180.140	19.114	1228.713	937.069
181.154	19.240	1227.275	936.575
182.169	19.330	1226.361	936.285
183.183	19.428	1225.426	936.019
184.198	19.416	1224.149	934.897
185.213	19.504	1223.292	934.636
186.227	19.398	1222.696	933.522
187.242	19.495	1221.704	933.207
188.256	19.604	1220.539	932.821
189.271	19.670	1219.834	932.559
190.286	19.459	1218.101	930.014
191.300	19.035	1217.106	926.889
192.315	18.866	1216.620	925.527
193.329	18.992	1215.314	925.130
194.344	19.073	1215.058	925.288
195.359	19.244	1214.648	925.813
196.373	19.211	1214.368	925.341
197.388	19.376	1214.165	925.988
198.402	19.615	1213.896	926.983
199.417	19.708	1213.310	926.951
200.432	19.804	1212.781	926.981
201.446	19.839	1211.882	926.399
202.461	19.935	1211.347	926.421
203.475	19.907	1210.119	925.250
204.490	19.774	1208.327	923.088
205.504	19.518	1207.518	921.027
206.519	19.580	1206.167	920.242
207.534	19.535	1204.799	918.877
208.548	19.606	1203.870	918.468
209.563	19.676	1202.731	917.888
210.577	19.607	1202.271	917.089
211.592	19.660	1201.571	916.754
212.607	19.856	1201.077	917.337
213.621	19.868	1199.689	916.259
214.636	19.609	1199.124	914.376
215.650	19.702	1198.164	914.053
216.665	19.736	1197.443	913.602
217.680	19.987	1196.636	914.234
218.694	20.081	1196.191	914.309
219.709	19.934	1195.087	912.608
220.723	20.029	1193.601	911.893
221.738	19.914	1193.765	911.333
222.753	19.893	1192.789	910.393
223.767	19.889	1191.905	909.618
224.782	19.984	1191.245	909.535
225.796	20.043	1191.274	909.784
226.811	20.042	1190.395	909.028
227.826	19.932	1189.374	907.592
228.840	19.901	1188.550	906.720
229.855	19.928	1187.460	905.948
230.869	19.833	1186.786	904.856
231.884	19.837	1186.027	904.219
232.899	19.729	1185.478	903.157
233.913	19.688	1184.474	902.096
234.928	19.594	1183.526	900.804
235.942	19.565	1182.622	899.888
236.957	19.666	1181.856	899.749
237.972	19.588	1181.590	899.065
238.986	19.749	1180.181	898.747
240.001	19.551	1180.355	897.774
241.015	19.636	1179.231	897.280
242.030	19.781	1178.354	897.285
243.045	19.881	1177.616	897.160
244.059	19.881	1177.168	896.740
245.074	20.016	1176.188	896.615
246.088	20.029	1175.163	895.823
247.103	20.124	1174.535	895.756
248.117	20.300	1173.982	896.160
249.132	20.421	1173.489	896.330
250.147	20.704	1172.950	897.298
251.161	20.651	1172.697	896.753
252.176	20.721	1171.985	896.492
253.190	20.788	1171.499	896.382
254.205	20.780	1170.988	895.870
255.220	20.885	1170.102	895.652
256.234	20.761	1169.847	894.743
257.249	20.830	1168.448	893.949
258.263	20.715	1168.077	892.995
259.278	20.758	1167.250	892.502
260.293	20.780	1166.786	892.182
261.307	20.774	1166.671	891.983
262.322	20.910	1165.925	892.033
263.336	21.002	1164.783	891.549
264.351	21.011	1164.165	891.044
265.366	21.102	1163.506	890.928
266.380	20.945	1163.180	889.796
267.395	20.785	1162.262	888.196
268.409	20.701	1161.264	886.927
269.424	20.666	1160.628	886.185
270.439	20.882	1159.572	886.398
271.453	20.622	1159.065	884.610
272.468	20.626	1157.925	883.685
273.482	20.652	1156.838	882.909
274.497	20.556	1156.549	882.124
275.512	20.561	1155.913	881.586
276.526	20.559	1155.529	881.205
277.541	20.677	1154.210	880.717
278.555	20.724	1153.984	880.703
279.570	20.893	1153.586	881.179
280.585	21.057	1152.376	881.003
281.599	20.996	1151.806	880.183
282.614	20.915	1150.083	878.379
283.628	20.927	1148.958	877.505
284.643	20.830	1148.556	876.630
285.657	20.831	1147.541	875.785
286.672	20.848	1146.333	874.868
287.687	20.798	1145.802	874.134
288.701	20.797	1145.157	873.563
289.716	20.908	1144.061	873.202
290.730	20.701	1143.875	871.948
291.745	20.872	1143.091	872.128
292.760	20.867	1142.295	871.422
293.774	21.001	1141.644	871.518
294.789	21.194	1141.337	872.170
295.803	21.127	1140.719	871.284
296.818	20.898	1139.748	869.323
297.833	20.932	1138.623	868.558
298.847	20.928	1138.096	868.061
299.862	21.053	1136.944	867.724
300.876	21.072	1136.563	867.453
301.891	21.138	1136.085	867.338
302.906	21.117	1135.456	866.677
303.920	21.353	1134.997	867.422
304.935	21.365	1134.472	867.003
305.949	21.407	1134.124	866.871
306.964	21.443	1133.036	866.139
307.979	21.380	1131.932	864.905
308.993	21.216	1131.687	863.831
310.008	21.349	1130.666	863.633
311.022	21.361	1130.023	863.125
312.037	21.391	1129.005	862.418
313.052	21.257	1128.212	861.078
314.066	21.089	1127.043	859.283
315.081	20.971	1126.151	857.944
316.095	21.054	1124.971	857.376
317.110	20.953	1124.548	856.484
318.125	21.029	1123.755	856.174
319.139	20.915	1123.210	855.123
320.154	20.910	1122.386	854.399
321.168	21.010	1121.676	854.270
322.183	21.036	1121.282	854.026
323.197	21.067	1120.442	853.461
324.212	21.193	1119.688	853.425
325.227	21.064	1119.545	852.612
326.241	21.152	1119.025	852.571
327.256	21.158	1117.845	851.623
328.270	20.983	1117.212	850.214
329.285	21.034	1115.942	849.418
330.300	21.106	1114.935	848.931
331.314	21.063	1114.236	848.112
332.329	21.144	1113.405	847.801
333.343	21.247	1112.554	847.574
334.358	21.298	1112.066	847.377
335.373	21.332	1111.671	847.165
336.387	21.271	1110.693	846.051
337.402	21.336	1109.847	845.644
338.416	21.533	1109.213	846.038
339.431	21.590	1108.626	845.794
340.446	21.601	1108.356	845.561
341.460	21.756	1107.406	845.513
342.475	21.905	1106.680	845.599
343.489	21.916	1105.897	844.982
344.504	21.968	1104.925	844.414
345.519	22.018	1103.978	843.857
346.533	21.994	1103.340	843.179
347.548	22.066	1102.966	843.163
348.562	21.908	1102.195	841.742
349.577	21.842	1100.997	840.435
350.592	21.619	1099.794	838.376
351.606	21.407	1099.626	837.156
352.621	21.424	1098.675	836.440
353.635	21.258	1097.873	834.966
354.650	21.477	1096.993	835.266
355.665	21.517	1096.588	835.076
356.679	21.602	1096.038	834.990
357.694	21.705	1095.529	835.015
358.708	21.713	1094.921	834.519
359.723	21.738	1094.206	834.015
360.738	21.730	1093.314	833.224
361.752	21.752	1092.989	833.007
362.767	21.753	1092.516	832.579
363.781	21.839	1091.920	832.458
364.796	21.973	1091.592	832.774
365.810	21.949	1090.921	832.074
366.825	22.141	1090.269	832.409
367.840	22.360	1089.970	833.146
368.854	22.437	1089.429	833.024
369.869	22.400	1088.493	832.059
370.883	22.412	1087.263	831.102
371.898	22.179	1086.657	829.468
372.913	22.153	1085.917	828.707
373.927	22.158	1085.779	828.549
374.942	22.242	1085.314	828.517
375.956	22.169	1084.999	827.859
376.971	22.227	1084.026	827.319
377.986	22.265	1083.533	827.048
379.000	22.368	1083.247	827.239
380.015	22.381	1082.982	827.023
381.029	22.470	1082.177	826.756
382.044	22.433	1081.264	825.809
383.059	22.478	1080.302	825.213
384.073	22.392	1079.904	824.433
385.088	22.515	1078.974	824.225
386.102	22.419	1077.952	822.925
387.117	22.260	1076.771	821.205
388.132	22.118	1075.865	819.780
389.146	22.075	1075.172	818.982
390.161	22.010	1074.168	817.842
391.175	22.146	1073.513	817.903
392.190	22.158	1073.463	817.847
393.205	22.422	1072.417	818.206
394.219	22.480	1071.313	817.560
395.234	22.300	1070.488	816.024
396.248	22.124	1069.593	814.454
397.263	22.236	1068.360	813.962
398.278	22.050	1067.504	812.373
399.292	22.062	1066.910	811.909
400.307	21.916	1066.486	810.837
401.321	22.052	1065.609	810.728
402.336	22.020	1064.837	809.921
403.350	22.057	1064.100	809.457
404.365	22.067	1063.779	809.187
405.380	22.188	1063.038	809.110
406.394	22.272	1061.977	808.616
407.409	22.411	1061.629	808.923
408.423	22.591	1060.979	809.181
409.438	22.593	1060.611	808.836
410.453	22.763	1059.378	808.603
411.467	22.718	1058.838	807.913
412.482	22.680	1058.453	807.375
413.496	22.870	1057.831	807.697
414.511	22.788	1057.674	807.132
415.526	23.028	1056.471	807.239
416.540	23.095	1056.341	807.373
417.555	22.970	1055.961	806.439
418.569	22.900	1055.006	805.321
419.584	22.874	1054.722	804.913
420.599	22.900	1053.986	804.399
421.613	154.492	1400.028	1789.501
422.628	141.885	1450.457	1789.595
