DTS Sentinel unit serial number:	SN413079Multiplexer serial number:	ORYXHardware model number:	OX4-SRSoftware version number:	ORYX F/W v4.00 Oryx Data Collector v3.7.2.0data status	okinstallation	princeton_trtdifferential loss correction	single-endedforward channel	channel 2reverse channel	N/Adate	2019/09/18time	06:35:34forward acquisition time	60.00reverse acquisition time	0.00gamma	496.2192k internal	0.2348k external	0.2348temperature offset calibration	0.9986default loss term (dB/km)	0.3790temperature slope calibration	1.0000multiplexer offset coefficient	1.0000multiplexer slope coefficient	1.0000fibre end	0.00T internal ref (°C)	23.27T ext. ref 1 (°C)	0.19T ext. ref 2 (°C)	17.20length (m)	temperature (°C)	Stokes	anti-Stokes-747.200	35.141	-0.199	0.174
-746.185	65.969	-0.208	0.211
-745.171	-18.366	-0.112	-0.070
-744.156	-200.000	0.007	0.255
-743.142	800.000	0.036	0.142
-742.127	123.634	-0.277	0.347
-741.112	-200.000	0.048	-0.217
-740.098	-200.000	0.031	0.271
-739.083	81.484	0.101	-0.110
-738.069	-145.067	-0.166	-0.015
-737.054	-200.000	0.045	-0.209
-736.039	800.000	-0.080	0.316
-735.025	-173.364	0.299	0.009
-734.010	341.930	0.061	0.120
-732.996	800.000	-0.063	-0.188
-731.981	67.595	-0.105	-0.107
-730.966	-200.000	0.022	0.346
-729.952	-11.285	-0.215	-0.141
-728.937	506.443	-0.068	-0.157
-727.923	-63.546	-0.318	-0.130
-726.908	121.523	-0.146	0.182
-725.894	-74.279	-0.231	-0.083
-724.879	-32.376	-0.136	0.076
-723.864	-91.405	0.377	0.108
-722.850	-200.000	0.037	-0.264
-721.835	750.816	-0.052	-0.140
-720.821	-116.306	-0.390	0.072
-719.806	100.815	0.378	0.438
-718.791	579.253	0.078	0.190
-717.777	-117.434	-0.247	-0.045
-716.762	192.263	-0.016	-0.023
-715.748	-200.000	-0.054	-0.281
-714.733	-6.082	0.101	-0.069
-713.718	-66.437	0.070	-0.028
-712.704	-40.325	0.307	0.159
-711.689	-37.925	0.139	-0.074
-710.675	-120.486	0.171	-0.029
-709.660	204.728	0.157	-0.244
-708.645	-195.056	0.134	-0.001
-707.631	-80.108	0.264	0.088
-706.616	-52.444	-0.276	0.128
-705.602	188.909	0.188	-0.281
-704.587	196.424	0.102	-0.155
-703.572	411.190	0.147	-0.312
-702.558	-148.617	0.250	-0.020
-701.543	18.979	0.162	0.130
-700.529	56.139	0.328	0.317
-699.514	497.804	-0.093	0.214
-698.499	-23.836	0.040	-0.024
-697.485	-200.000	0.090	-0.395
-696.470	157.648	0.213	0.294
-695.456	-111.932	-0.339	-0.068
-694.441	-200.000	0.005	-0.199
-693.426	-200.000	0.025	0.186
-692.412	70.093	0.183	0.188
-691.397	-74.969	-0.154	0.055
-690.383	180.805	0.340	-0.498
-689.368	195.687	0.109	-0.165
-688.354	-120.199	-0.316	0.054
-687.339	-200.000	-0.020	0.277
-686.324	-118.555	0.157	-0.028
-685.310	-138.401	-0.099	-0.011
-684.295	-200.000	-0.016	-0.129
-683.281	-200.000	-0.007	-0.118
-682.266	-33.543	-0.323	-0.178
-681.251	-8.819	-0.269	-0.179
-680.237	-200.000	0.035	0.241
-679.222	-125.340	0.280	-0.043
-678.208	-88.717	-0.371	0.110
-677.193	-73.068	-0.140	0.051
-676.178	-47.625	-0.077	-0.037
-675.164	800.000	0.107	-0.302
-674.149	-40.958	-0.196	-0.101
-673.135	-42.466	-0.166	-0.084
-672.120	13.207	0.139	-0.107
-671.105	-110.398	0.227	0.047
-670.091	-11.581	-0.302	-0.198
-669.076	-45.438	0.156	-0.077
-668.062	157.587	-0.102	-0.140
-667.047	744.619	0.134	-0.360
-666.032	105.356	-0.241	-0.284
-665.018	27.900	-0.141	0.118
-664.003	224.017	-0.126	-0.203
-662.989	92.805	0.288	0.324
-661.974	264.480	-0.029	0.050
-660.959	-9.407	-0.111	0.074
-659.945	-166.830	0.361	-0.015
-658.930	5.539	-0.097	0.071
-657.916	-171.691	-0.068	0.002
-656.901	-19.686	-0.149	-0.092
-655.886	-91.437	-0.140	-0.040
-654.872	-116.546	-0.149	-0.027
-653.857	-10.530	-0.211	0.139
-652.843	-200.000	0.007	-0.270
-651.828	-59.538	-0.093	-0.040
-650.814	-53.984	0.100	-0.045
-649.799	138.361	-0.208	0.271
-648.784	-39.748	-0.291	-0.152
-647.770	800.000	-0.030	-0.113
-646.755	-129.787	-0.524	-0.072
-645.741	222.387	0.038	0.062
-644.726	43.923	0.156	0.143
-643.711	-81.112	-0.169	0.056
-642.697	23.647	-0.059	0.049
-641.682	132.539	-0.057	0.073
-640.668	-200.000	-0.021	-0.158
-639.653	29.104	0.063	-0.053
-638.638	632.094	0.024	0.061
-637.624	-43.326	0.190	0.096
-636.609	40.382	0.273	-0.245
-635.595	127.700	0.204	-0.258
-634.580	101.300	0.065	-0.075
-633.565	308.542	0.076	0.141
-632.551	161.487	-0.165	0.230
-631.536	-200.000	0.052	0.268
-630.522	64.419	-0.129	0.129
-629.507	305.588	-0.089	-0.165
-628.492	1.919	-0.265	0.190
-627.478	-46.843	-0.087	-0.043
-626.463	-132.456	0.109	0.014
-625.449	-200.000	-0.018	-0.173
-624.434	-6.942	-0.234	-0.158
-623.419	36.482	0.114	-0.100
-622.405	-137.270	0.257	-0.029
-621.390	800.000	-0.193	-0.590
-620.376	175.549	0.116	0.167
-619.361	-75.544	-0.301	0.106
-618.346	-155.923	0.297	-0.019
-617.332	15.762	-0.080	-0.063
-616.317	-100.601	0.183	0.045
-615.303	383.160	-0.106	-0.217
-614.288	42.585	0.326	-0.295
-613.273	570.125	0.090	0.217
-612.259	-146.675	0.373	-0.032
-611.244	2.929	-0.258	0.186
-610.230	80.531	-0.074	-0.079
-609.215	-149.760	-0.137	0.011
-608.201	36.187	0.023	0.020
-607.186	-133.550	-0.293	0.036
-606.171	-9.928	0.068	0.045
-605.157	-9.835	0.255	-0.169
-604.142	370.071	-0.146	-0.294
-603.128	-99.975	-0.368	-0.091
-602.113	-200.000	0.038	-0.304
-601.098	93.042	0.174	0.195
-600.084	800.000	0.101	0.286
-599.069	-124.698	-0.215	-0.033
-598.055	-20.768	-0.181	0.110
-597.040	776.364	0.092	0.249
-596.025	-135.264	0.096	0.011
-595.011	354.088	-0.053	0.104
-593.996	45.098	-0.124	-0.113
-592.982	-200.000	0.038	-0.440
-591.967	240.469	-0.165	-0.273
-590.952	3.628	0.027	0.020
-589.938	-200.000	0.007	-0.531
-588.923	-200.000	0.030	-0.260
-587.909	45.959	-0.183	0.168
-586.894	-63.912	0.099	-0.040
-585.879	88.332	-0.187	-0.206
-584.865	-200.000	-0.014	-0.140
-583.850	679.845	-0.055	-0.142
-582.836	17.225	-0.246	-0.194
-581.821	-176.048	0.207	-0.005
-580.806	261.048	0.099	0.170
-579.792	-200.000	0.016	0.714
-578.777	800.000	-0.035	-0.126
-577.763	-200.000	-0.030	0.252
-576.748	-141.923	-0.117	-0.012
-575.733	57.692	-0.210	-0.204
-574.719	-200.000	-0.013	-0.139
-573.704	2.439	0.207	-0.149
-572.690	41.461	0.147	-0.132
-571.675	800.000	0.132	-0.402
-570.661	-200.000	0.022	0.400
-569.646	-200.000	-0.015	-0.128
-568.631	-88.177	0.117	-0.035
-567.617	-200.000	-0.019	0.165
-566.602	238.172	-0.108	-0.178
-565.588	800.000	0.019	-0.080
-564.573	4.865	0.155	0.113
-563.558	800.000	-0.058	-0.189
-562.544	800.000	0.046	0.132
-561.529	262.367	0.191	0.329
-560.515	-200.000	-0.008	0.281
-559.500	75.105	-0.242	-0.253
-558.485	800.000	0.071	-0.268
-557.471	-116.042	-0.245	0.045
-556.456	108.331	0.112	0.133
-555.442	423.939	-0.043	0.091
-554.427	517.612	-0.148	-0.343
-553.412	217.283	0.130	-0.205
-552.398	17.425	0.170	-0.134
-551.383	175.980	0.170	0.245
-550.369	-17.828	-0.232	-0.144
-549.354	-22.634	0.073	0.043
-548.339	-200.000	0.007	0.193
-547.325	-73.781	-0.159	-0.057
-546.310	-128.040	-0.389	0.055
-545.296	61.072	-0.179	0.177
-544.281	-115.171	-0.132	0.025
-543.266	85.196	-0.095	0.103
-542.252	-66.540	-0.267	-0.105
-541.237	394.026	-0.095	0.196
-540.223	271.808	0.141	0.247
-539.208	6.428	-0.098	-0.072
-538.193	500.421	-0.112	0.256
-537.179	-85.199	0.175	0.054
-536.164	-11.266	-0.225	-0.147
-535.150	800.000	0.058	-0.186
-534.135	-102.051	0.371	-0.089
-533.121	-93.824	-0.271	0.074
-532.106	225.453	-0.099	0.159
-531.091	273.753	-0.123	-0.215
-530.077	-101.973	-0.543	-0.130
-529.062	-91.012	0.504	0.144
-528.048	-66.289	-0.356	-0.140
-527.033	-200.000	-0.028	-0.135
-526.018	-200.000	0.021	0.302
-525.004	-73.285	0.205	-0.074
-523.989	-200.000	0.009	-0.047
-522.975	-117.740	-0.317	0.057
-521.960	-15.743	-0.188	0.119
-520.945	-200.000	0.063	0.292
-519.931	-32.775	0.103	0.057
-518.916	-66.495	0.223	-0.088
-517.902	-27.273	-0.036	-0.021
-516.887	-80.849	-0.236	-0.078
-515.872	46.141	0.181	-0.166
-514.858	-200.000	0.006	-0.037
-513.843	339.903	0.108	0.208
-512.829	800.000	-0.110	0.331
-511.814	-2.513	-0.262	0.182
-510.799	101.743	-0.165	0.190
-509.785	800.000	-0.075	0.210
-508.770	-200.000	-0.048	0.287
-507.756	-83.168	0.301	-0.096
-506.741	800.000	0.045	-0.161
-505.726	226.961	0.206	-0.331
-504.712	309.869	0.123	0.228
-503.697	800.000	-0.043	-0.144
-502.683	-5.301	0.352	-0.239
-501.668	-42.976	-0.066	-0.033
-500.653	-44.171	-0.146	0.073
-499.639	733.457	0.029	0.076
-498.624	800.000	0.023	0.096
-497.610	-1.159	-0.250	0.175
-496.595	-8.920	-0.246	-0.163
-495.581	34.262	0.116	-0.100
-494.566	133.636	0.083	0.106
-493.551	-200.000	0.013	-0.198
-492.537	625.725	-0.089	0.221
-491.522	87.577	-0.073	-0.080
-490.508	107.351	0.120	-0.142
-489.493	800.000	-0.031	0.113
-488.478	97.544	0.233	-0.265
-487.464	-91.207	0.419	-0.119
-486.449	-20.708	-0.336	-0.204
-485.435	-62.386	0.252	0.104
-484.420	-110.616	-0.155	0.032
-483.405	366.145	-0.116	-0.231
-482.391	760.208	0.113	-0.303
-481.376	169.492	0.067	-0.095
-480.362	25.661	-0.100	0.082
-479.347	115.584	0.274	0.331
-478.332	41.928	0.158	0.142
-477.318	-100.351	0.267	-0.066
-476.303	-200.000	-0.010	-0.383
-475.289	-200.000	0.028	-0.317
-474.274	131.183	0.115	-0.146
-473.259	-114.374	0.099	0.019
-472.245	800.000	-0.050	0.186
-471.230	367.479	-0.145	-0.289
-470.216	-32.262	-0.169	-0.094
-469.201	-3.776	-0.118	-0.081
-468.186	-2.639	0.066	-0.045
-467.172	-200.000	-0.018	-0.079
-466.157	-191.586	0.281	-0.003
-465.143	-155.567	0.292	0.019
-464.128	-189.549	-0.380	0.004
-463.113	103.492	0.354	0.411
-462.099	86.337	0.420	-0.457
-461.084	171.579	0.044	-0.063
-460.070	123.382	0.098	-0.122
-459.055	-109.849	0.139	-0.029
-458.040	-200.000	0.020	-0.158
-457.026	73.348	-0.300	-0.310
-456.011	-138.013	-0.259	0.029
-454.997	800.000	0.099	-0.272
-453.982	23.395	0.350	-0.284
-452.968	491.219	-0.116	0.261
-451.953	-195.391	0.067	0.000
-450.938	800.000	0.016	-0.061
-449.924	102.534	-0.023	-0.027
-448.909	-15.121	-0.137	-0.087
-447.895	210.882	-0.074	0.115
-446.880	-155.043	-0.064	0.004
-445.865	72.884	-0.089	0.092
-444.851	-121.421	-0.038	-0.006
-443.836	-120.011	-0.014	-0.002
-442.822	-23.816	-0.373	-0.221
-441.807	556.917	0.092	0.220
-440.792	116.956	-0.073	-0.088
-439.778	-41.508	0.268	0.136
-438.763	-106.370	-0.351	-0.078
-437.749	-200.000	0.012	0.081
-436.734	-113.233	-0.266	-0.052
-435.719	74.287	0.056	0.058
-434.705	-63.734	0.042	0.017
-433.690	800.000	-0.092	0.384
-432.676	271.021	-0.096	0.166
-431.661	-200.000	0.012	0.471
-430.646	51.403	0.142	0.133
-429.632	-20.564	0.313	-0.189
-428.617	-162.771	0.455	0.022
-427.603	607.582	-0.123	0.302
-426.588	330.944	0.081	0.155
-425.573	800.000	-0.129	-0.411
-424.559	-27.024	0.346	-0.199
-423.544	-77.728	-0.185	-0.063
-422.530	800.000	-0.129	0.441
-421.515	244.390	0.067	-0.111
-420.500	107.909	0.027	-0.032
-419.486	48.551	-0.096	-0.088
-418.471	442.403	0.119	0.258
-417.457	-86.116	-0.201	0.061
-416.442	-44.253	-0.122	-0.060
-415.428	-124.621	0.198	0.030
-414.413	-200.000	0.020	0.359
-413.398	29.932	-0.083	0.070
-412.384	-67.236	0.362	-0.141
-411.369	273.104	0.123	0.215
-410.355	-170.553	0.134	-0.005
-409.340	-200.000	0.010	0.173
-408.325	790.734	-0.101	-0.272
-407.311	50.432	-0.057	-0.053
-406.296	58.040	0.155	0.150
-405.282	-143.029	-0.262	0.025
-404.267	124.702	-0.152	0.188
-403.252	250.146	-0.075	-0.126
-402.238	-31.778	0.219	-0.121
-401.223	29.237	0.177	-0.148
-400.209	-7.206	-0.364	0.243
-399.194	49.517	0.224	0.208
-398.179	-112.411	-0.409	-0.081
-397.165	-76.830	0.244	-0.084
-396.150	647.825	0.094	0.237
-395.136	-161.786	-0.267	0.013
-394.121	5.473	0.225	-0.164
-393.106	-89.581	-0.130	-0.037
-392.092	-61.244	-0.189	-0.078
-391.077	-14.929	-0.086	0.054
-390.063	331.495	-0.090	0.171
-389.048	608.057	0.033	0.081
-388.033	94.424	-0.125	-0.139
-387.019	169.813	-0.207	-0.291
-386.004	-56.291	0.235	0.103
-384.990	-95.503	0.251	-0.066
-383.975	566.286	-0.014	0.034
-382.960	-62.586	0.165	-0.068
-381.946	-21.142	0.284	0.171
-380.931	67.838	-0.122	0.123
-379.917	-200.000	0.020	-0.093
-378.902	229.872	-0.058	-0.094
-377.888	-76.238	-0.305	0.106
-376.873	-1.830	-0.032	-0.022
-375.858	42.210	0.220	-0.196
-374.844	65.869	0.065	-0.065
-373.829	-125.571	0.270	0.040
-372.815	-200.000	-0.034	0.154
-371.800	800.000	-0.022	-0.066
-370.785	-17.284	0.310	0.192
-369.771	-187.336	0.414	0.006
-368.756	483.375	-0.086	-0.191
-367.742	-200.000	0.018	0.201
-366.727	112.158	0.161	-0.192
-365.712	-200.000	0.063	-0.370
-364.698	800.000	0.042	-0.129
-363.683	143.175	0.083	0.109
-362.669	425.650	-0.060	-0.127
-361.654	-200.000	0.059	0.370
-360.639	118.168	-0.090	0.109
-359.625	13.812	0.212	0.162
-358.610	-200.000	0.010	0.206
-357.596	49.657	-0.223	0.206
-356.581	-23.500	-0.209	-0.123
-355.566	-133.327	-0.231	-0.029
-354.552	442.530	0.155	0.335
-353.537	-24.435	-0.203	0.119
-352.523	-57.930	0.053	0.023
-351.508	214.196	0.053	0.082
-350.493	-86.504	0.084	0.025
-349.479	-200.000	0.010	-0.201
-348.464	-21.990	0.074	-0.044
-347.450	61.822	0.022	0.022
-346.435	-77.590	0.103	0.035
-345.420	-200.000	0.035	-0.336
-344.406	-200.000	-0.027	0.218
-343.391	-134.551	-0.332	0.040
-342.377	-162.502	0.266	0.013
-341.362	-34.017	0.071	0.038
-340.348	-200.000	0.034	0.214
-339.333	-7.834	0.016	0.011
-338.318	-166.638	0.068	-0.003
-337.304	-158.067	0.126	0.007
-336.289	194.043	0.172	0.256
-335.275	389.335	-0.215	0.437
-334.260	-14.536	0.042	0.026
-333.245	107.485	-0.246	0.288
-332.231	-200.000	0.010	-0.208
-331.216	-135.685	-0.289	-0.034
-330.202	-10.933	0.199	-0.129
-329.187	28.771	-0.088	-0.073
-328.172	240.357	0.115	0.188
-327.158	443.851	-0.095	-0.206
-326.143	-128.731	-0.170	-0.024
-325.129	10.227	0.262	-0.196
-324.114	-200.000	-0.019	-0.109
-323.099	51.841	-0.153	-0.144
-322.085	418.307	0.045	0.094
-321.070	27.765	0.213	0.177
-320.056	-36.925	0.177	0.093
-319.041	-3.289	-0.156	0.107
-318.026	-200.000	0.017	-0.163
-317.012	68.832	0.084	0.085
-315.997	315.715	-0.040	0.075
-314.983	-200.000	-0.037	0.456
-313.968	-62.431	-0.036	-0.015
-312.953	45.101	-0.377	-0.341
-311.939	-66.487	-0.097	-0.038
-310.924	-53.616	-0.416	-0.187
-309.910	120.978	0.138	-0.168
-308.895	288.846	0.051	0.090
-307.880	5.331	-0.201	0.146
-306.866	56.417	0.240	-0.229
-305.851	-153.670	0.080	-0.005
-304.837	-101.703	0.039	-0.009
-303.822	-92.958	-0.390	0.107
-302.807	429.489	-0.126	0.267
-301.793	-93.407	-0.113	-0.031
-300.778	-6.550	0.092	0.062
-299.764	188.653	-0.087	-0.127
-298.749	13.198	0.064	0.049
-297.735	-200.000	0.022	0.225
-296.720	200.479	0.251	-0.379
-295.705	124.038	-0.090	-0.111
-294.691	-135.783	0.295	-0.034
-293.676	-52.007	0.073	-0.033
-292.662	19.139	0.109	-0.086
-291.647	-59.701	-0.310	0.130
-290.632	-200.000	-0.021	0.298
-289.618	268.976	-0.098	0.169
-288.603	256.485	-0.161	-0.271
-287.589	-39.670	-0.343	-0.176
-286.574	-200.000	0.018	0.640
-285.559	789.229	-0.058	-0.157
-284.545	-64.299	-0.135	0.054
-283.530	-6.198	-0.203	0.136
-282.516	187.672	0.144	-0.210
-281.501	638.976	0.053	0.131
-280.486	-116.029	0.298	-0.054
-279.472	-200.000	-0.044	-0.398
-278.457	800.000	-0.055	0.189
-277.443	37.148	0.193	-0.167
-276.428	-200.000	0.004	-0.403
-275.413	-200.000	-0.018	-0.223
-274.399	-200.000	-0.013	-0.106
-273.384	40.111	-0.103	-0.090
-272.370	-54.942	-0.090	-0.040
-271.355	-77.836	-0.299	0.101
-270.340	-102.537	0.292	0.069
-269.326	-119.748	-0.340	0.058
-268.311	34.257	0.099	0.085
-267.297	41.448	-0.208	0.185
-266.282	-200.000	0.032	0.207
-265.267	14.500	0.232	-0.178
-264.253	21.674	-0.144	0.115
-263.238	-100.885	0.132	0.032
-262.224	-136.015	-0.413	0.048
-261.209	74.397	0.147	0.151
-260.195	582.565	0.069	0.166
-259.180	148.565	0.139	0.184
-258.165	264.062	-0.091	0.155
-257.151	88.276	-0.217	-0.236
-256.136	93.964	0.328	-0.365
-255.122	-200.000	0.024	-0.143
-254.107	129.672	-0.199	-0.250
-253.092	9.678	0.138	-0.102
-252.078	-0.654	0.145	-0.101
-251.063	800.000	0.098	0.358
-250.049	152.779	-0.066	0.089
-249.034	-12.585	0.229	-0.147
-248.019	595.455	0.069	0.168
-247.005	-77.706	-0.225	-0.076
-245.990	-143.610	0.158	0.015
-244.976	-137.753	0.173	0.019
-243.961	-200.000	0.042	-0.225
-242.946	-200.000	-0.001	0.419
-241.932	-200.000	-0.016	0.114
-240.917	-32.227	0.214	0.117
-239.903	238.205	0.046	0.074
-238.888	-89.921	-0.427	0.122
-237.873	19.378	0.156	-0.123
-236.859	-108.172	0.161	-0.034
-235.844	150.975	-0.060	-0.080
-234.830	21.915	0.059	-0.047
-233.815	-62.061	0.404	-0.165
-232.800	-58.099	-0.318	-0.136
-231.786	800.000	-0.020	-0.066
-230.771	224.052	-0.224	-0.354
-229.757	52.308	-0.020	-0.019
-228.742	123.714	0.232	-0.285
-227.727	30.386	0.132	-0.110
-226.713	-117.602	-0.282	0.050
-225.698	259.771	0.128	0.216
-224.684	116.314	0.229	0.275
-223.669	800.000	0.115	-0.434
-222.655	530.232	-0.088	-0.204
-221.640	-44.325	-0.275	0.135
-220.625	-74.157	0.249	-0.088
-219.611	-179.529	-0.188	0.004
-218.596	-76.221	0.175	-0.060
-217.582	208.274	-0.086	0.132
-216.567	535.879	0.018	0.041
-215.552	493.775	0.109	-0.245
-214.538	-200.000	-0.008	0.069
-213.523	263.728	0.166	-0.282
-212.509	25.682	-0.182	0.148
-211.494	800.000	0.016	-0.062
-210.479	260.428	0.030	0.050
-209.465	-200.000	-0.013	0.173
-208.450	-24.234	-0.071	-0.041
-207.436	30.734	-0.086	-0.072
-206.421	-14.112	-0.123	-0.077
-205.406	-13.150	0.179	-0.114
-204.392	206.561	-0.111	0.169
-203.377	348.566	0.032	0.061
-202.363	-79.324	-0.228	0.075
-201.348	45.215	0.067	-0.060
-200.333	133.781	0.028	0.036
-199.319	461.679	-0.050	0.110
-198.304	-81.281	-0.146	-0.047
-197.290	-130.175	-0.142	-0.019
-196.275	-160.647	0.123	0.006
-195.260	462.651	0.010	-0.022
-194.246	440.961	0.114	0.244
-193.231	-200.000	0.034	-0.151
-192.217	-121.721	0.250	-0.040
-191.202	-139.361	-0.482	0.051
-190.187	187.686	0.134	0.196
-189.173	-85.895	-0.216	-0.065
-188.158	800.000	-0.018	-0.065
-187.144	195.054	0.052	0.077
-186.129	-89.551	-0.385	0.111
-185.114	16.374	-0.117	0.090
-184.100	-40.651	0.278	0.141
-183.085	-81.422	0.361	0.116
-182.071	-200.000	-0.006	0.108
-181.056	-134.325	0.186	-0.022
-180.042	-200.000	0.053	-0.229
-179.027	173.023	0.252	0.354
-178.012	-200.000	-0.072	0.456
-176.998	755.866	0.043	-0.114
-175.983	119.952	0.149	0.181
-174.969	-106.486	0.310	-0.068
-173.954	-46.185	0.034	0.016
-172.939	-45.987	0.131	-0.063
-171.925	-200.000	0.040	-0.297
-170.910	-47.320	-0.291	-0.138
-169.896	-94.922	-0.094	0.025
-168.881	-114.044	-0.292	0.055
-167.866	46.946	-0.075	0.068
-166.852	136.621	-0.210	0.268
-165.837	786.867	0.063	-0.169
-164.823	55.790	0.270	0.256
-163.808	-200.000	0.003	0.095
-162.793	-200.000	-0.009	0.155
-161.779	179.471	0.251	0.359
-160.764	-66.747	0.147	0.057
-159.750	-200.000	-0.019	-0.113
-158.735	-65.606	0.173	0.068
-157.720	-200.000	0.007	-0.125
-156.706	-200.000	-0.046	-0.366
-155.691	739.949	-0.017	-0.044
-154.677	216.022	0.143	0.222
-153.662	-37.036	0.446	-0.233
-152.647	800.000	0.022	0.087
-151.633	-62.118	-0.176	0.072
-150.618	80.952	0.108	-0.114
-149.604	86.914	0.113	-0.122
-148.589	-6.927	0.264	0.175
-147.574	-19.332	-0.165	0.100
-146.560	-72.276	-0.162	-0.059
-145.545	-26.281	-0.265	-0.152
-144.531	-161.573	-0.142	0.007
-143.516	800.000	-0.102	0.411
-142.502	-142.307	-0.273	0.026
-141.487	-35.336	0.187	0.099
-140.472	-141.613	0.377	0.037
-139.458	-118.724	0.087	0.015
-138.443	-26.892	-0.065	0.037
-137.429	230.716	-0.095	0.152
-136.414	-67.513	-0.284	0.109
-135.399	-3.072	0.308	0.210
-134.385	-144.351	-0.448	0.041
-133.370	122.424	-0.048	-0.059
-132.356	321.528	-0.222	-0.412
-131.341	-200.000	-0.018	0.107
-130.326	-34.241	-0.396	0.212
-129.312	-113.450	0.294	0.056
-128.297	404.406	0.041	0.083
-127.283	-200.000	0.030	0.290
-126.268	800.000	0.059	0.205
-125.253	800.000	-0.071	0.233
-124.239	-57.151	0.169	0.073
-123.224	-35.367	-0.224	0.119
-122.210	-200.000	-0.017	-0.170
-121.195	-63.831	-0.082	0.033
-120.180	110.490	-0.121	-0.142
-119.166	-91.962	0.275	0.076
-118.151	-112.782	-0.249	0.048
-117.137	8.380	0.100	0.073
-116.122	16.541	0.253	0.195
-115.107	-142.790	-0.165	0.016
-114.093	800.000	0.127	0.359
-113.078	-41.785	-0.077	0.038
-112.064	-141.353	0.156	-0.015
-111.049	800.000	0.012	0.049
-110.034	800.000	-0.047	0.131
-109.020	-6.377	-0.174	-0.115
-108.005	-142.242	-0.215	-0.021
-106.991	-200.000	-0.060	0.284
-105.976	-179.474	0.124	-0.003
-104.962	225.606	-0.141	-0.223
-103.947	-200.000	-0.009	-0.092
-102.932	-129.583	0.345	-0.047
-101.918	-200.000	0.046	0.203
-100.903	-61.035	-0.193	0.080
-99.889	255.882	-0.090	-0.150
-98.874	354.870	-0.021	0.040
-97.859	-73.970	0.387	0.137
-96.845	-200.000	-0.003	0.271
-95.830	-40.569	-0.281	0.142
-94.816	-192.841	0.341	0.003
-93.801	-200.000	-0.021	0.139
-92.786	-200.000	-0.033	0.265
-91.772	-69.869	0.237	0.088
-90.757	-103.188	-0.259	0.060
-89.743	800.000	0.047	0.161
-88.728	22.124	0.209	0.166
-87.713	31.530	-0.210	0.176
-86.699	351.076	0.088	0.170
-85.684	-200.000	0.018	0.139
-84.670	63.405	0.226	-0.220
-83.655	430.899	0.188	0.396
-82.640	3.648	-0.134	0.095
-81.626	12.139	0.078	-0.058
-80.611	86.246	-0.191	-0.205
-79.597	-50.725	0.261	-0.120
-78.582	65.316	0.055	-0.054
-77.567	-47.713	-0.211	0.100
-76.553	-95.608	-0.241	-0.063
-75.538	468.719	-0.142	0.310
-74.524	224.545	-0.089	0.140
-73.509	-14.204	0.321	0.202
-72.494	-145.974	-0.054	0.005
-71.480	72.402	-0.159	0.162
-70.465	25.707	0.123	-0.099
-69.451	800.000	-0.083	-0.300
-68.436	-122.459	-0.159	-0.025
-67.422	-111.833	0.024	-0.005
-66.407	240.028	-0.116	-0.189
-65.392	-39.674	0.222	-0.113
-64.378	225.853	0.114	-0.180
-63.363	-144.415	0.192	0.017
-62.349	31.015	0.086	-0.072
-61.334	102.363	-1.140	-1.296
-60.319	-25.786	0.664	0.381
-59.305	226.612	-0.717	-1.133
-58.290	110.763	1.096	1.282
-57.276	184.704	0.969	1.397
-56.261	-200.000	124.682	645.588
-55.246	406.369	1573.395	3229.931
-54.232	141.619	2744.889	3535.310
-53.217	89.097	2310.510	2501.838
-52.203	32.410	1916.886	1609.769
-51.188	26.198	1712.813	1390.671
-50.173	24.166	1673.423	1343.331
-49.159	45.888	1742.420	1566.981
-48.144	43.636	1753.873	1559.874
-47.130	25.932	1706.196	1383.039
-46.115	23.390	1690.053	1350.555
-45.100	23.154	1685.875	1345.370
-44.086	23.238	1682.635	1343.367
-43.071	23.159	1680.488	1341.000
-42.057	23.123	1678.370	1338.986
-41.042	23.178	1676.120	1337.549
-40.027	23.169	1674.346	1336.013
-39.013	23.144	1672.613	1334.393
-37.998	23.075	1671.081	1332.598
-36.984	23.117	1670.006	1331.999
-35.969	23.256	1668.238	1331.586
-34.954	23.309	1666.817	1330.791
-33.940	23.281	1664.916	1329.016
-32.925	23.186	1663.725	1327.296
-31.911	23.214	1661.843	1325.951
-30.896	23.339	1659.775	1325.186
-29.881	23.295	1658.099	1323.463
-28.867	23.292	1656.608	1322.203
-27.852	23.270	1655.134	1320.807
-26.838	23.322	1653.879	1320.142
-25.823	23.198	1652.910	1318.392
-24.809	23.294	1651.666	1318.059
-23.794	23.164	1650.689	1316.266
-22.779	23.325	1648.538	1315.694
-21.765	23.287	1646.372	1313.628
-20.750	23.274	1645.064	1312.440
-19.736	23.330	1643.884	1311.857
-18.721	23.304	1642.665	1310.641
-17.706	23.283	1641.199	1309.262
-16.692	23.309	1638.999	1307.649
-15.677	23.277	1637.845	1306.438
-14.663	23.323	1636.834	1305.924
-13.648	23.284	1635.396	1304.433
-12.633	23.335	1633.571	1303.305
-11.619	23.249	1632.600	1301.846
-10.604	23.316	1630.555	1300.651
-9.590	23.284	1629.571	1299.586
-8.575	23.417	1627.435	1298.802
-7.560	23.367	1626.791	1297.873
-6.546	23.231	1626.179	1296.334
-5.531	23.317	1624.580	1295.641
-4.517	23.298	1623.343	1294.458
-3.502	23.394	1622.087	1294.109
-2.487	23.395	1620.598	1292.874
-1.473	23.002	1608.138	1280.043
-0.458	20.008	1588.246	1242.710
0.556	15.131	1589.807	1212.319
1.571	12.971	1613.464	1214.365
2.586	12.663	1625.153	1220.770
3.600	11.694	1570.971	1173.014
4.615	6.423	1463.200	1057.150
5.629	1.155	1404.801	980.855
6.644	0.310	1397.252	970.064
7.659	0.139	1396.796	968.560
8.673	0.163	1395.413	967.669
9.688	0.167	1392.968	965.916
10.702	0.130	1389.251	963.016
11.717	2.639	1393.197	981.747
12.731	9.279	1403.847	1031.907
13.746	15.024	1411.770	1074.626
14.761	16.739	1413.828	1087.114
15.775	16.239	1411.644	1082.138
16.790	15.229	1409.309	1073.780
17.804	14.503	1406.731	1067.079
18.819	14.177	1405.503	1063.968
19.834	13.869	1404.159	1060.889
20.848	13.600	1403.472	1058.559
21.863	13.320	1401.847	1055.453
22.877	13.231	1400.888	1054.071
23.892	13.154	1399.549	1052.478
24.907	13.229	1398.402	1052.002
25.921	13.169	1397.942	1051.181
26.936	13.218	1396.880	1050.596
27.950	13.271	1396.188	1050.319
28.965	13.329	1394.475	1049.306
29.980	13.375	1393.904	1049.079
30.994	13.451	1393.056	1048.828
32.009	13.498	1391.730	1048.035
33.023	13.444	1390.887	1046.967
34.038	13.417	1389.866	1045.931
35.053	13.358	1388.494	1044.434
36.067	13.286	1387.772	1043.345
37.082	13.397	1386.332	1042.871
38.096	13.423	1385.349	1042.202
39.111	13.350	1384.602	1041.088
40.126	13.391	1383.455	1040.393
41.140	13.287	1382.826	1039.173
42.155	13.240	1382.871	1038.819
43.169	13.168	1382.432	1037.947
44.184	13.170	1381.631	1037.267
45.199	13.165	1381.548	1037.082
46.213	13.325	1380.396	1037.126
47.228	13.212	1379.686	1035.794
48.242	13.284	1378.574	1035.317
49.257	13.299	1376.907	1034.067
50.271	13.314	1375.383	1032.924
51.286	13.350	1374.108	1032.102
52.301	13.283	1372.714	1030.545
53.315	13.320	1371.194	1029.541
54.330	13.231	1370.997	1028.748
55.344	13.243	1369.322	1027.479
56.359	13.167	1368.282	1026.135
57.374	13.199	1367.458	1025.627
58.388	13.216	1366.937	1025.245
59.403	13.180	1366.232	1024.407
60.417	13.172	1365.399	1023.641
61.432	13.145	1364.416	1022.645
62.447	13.134	1363.430	1021.748
63.461	13.093	1362.105	1020.414
64.476	13.079	1361.233	1019.584
65.490	13.114	1360.053	1018.823
66.505	13.114	1357.966	1017.170
67.520	13.161	1356.978	1016.629
68.534	13.166	1356.160	1015.956
69.549	13.102	1355.087	1014.668
70.563	13.111	1354.148	1013.930
71.578	13.084	1352.459	1012.413
72.593	13.120	1351.566	1011.875
73.607	13.065	1351.156	1011.139
74.622	13.056	1349.965	1010.105
75.636	13.075	1349.260	1009.605
76.651	12.978	1348.852	1008.618
77.666	13.108	1348.307	1008.916
78.680	13.181	1347.200	1008.442
79.695	13.078	1346.691	1007.346
80.709	13.181	1345.851	1007.252
81.724	13.153	1344.821	1006.221
82.739	13.155	1344.242	1005.715
83.753	13.186	1342.841	1004.762
84.768	13.335	1341.886	1004.867
85.782	13.379	1340.538	1004.034
86.797	13.277	1339.419	1002.491
87.812	13.264	1337.895	1001.183
88.826	13.240	1337.241	1000.460
89.841	13.264	1336.211	999.748
90.855	13.279	1335.411	999.148
91.870	13.289	1333.740	997.869
92.884	13.411	1332.875	997.872
93.899	13.342	1332.457	997.053
94.914	13.338	1331.813	996.459
95.928	13.471	1330.194	995.962
96.943	13.365	1329.652	994.830
97.957	13.261	1329.093	993.699
98.972	13.464	1327.331	993.509
99.987	13.354	1326.605	992.221
101.001	13.332	1325.611	991.254
102.016	13.398	1324.721	990.896
103.030	13.341	1323.959	989.897
104.045	13.309	1322.789	988.746
105.060	13.400	1320.963	987.838
106.074	13.227	1320.535	986.395
107.089	13.303	1318.738	985.418
108.103	13.197	1317.802	984.001
109.118	13.252	1316.252	983.086
110.133	13.242	1314.732	981.801
111.147	13.205	1313.382	980.489
112.162	13.245	1312.101	979.683
113.176	13.285	1311.285	979.223
114.191	13.290	1310.601	978.656
115.206	13.248	1309.175	977.256
116.220	13.344	1307.573	976.539
117.235	13.210	1306.280	974.701
118.249	13.219	1306.195	974.601
119.264	13.153	1305.046	973.269
120.279	13.246	1303.080	972.263
121.293	13.147	1302.482	971.148
122.308	13.167	1301.574	970.505
123.322	13.279	1300.306	970.134
124.337	13.155	1299.669	968.841
125.352	13.242	1298.025	968.039
126.366	13.232	1296.572	966.813
127.381	13.176	1295.871	965.876
128.395	13.249	1294.890	965.488
129.410	13.211	1293.578	964.200
130.424	13.193	1292.771	963.410
131.439	13.285	1292.196	963.432
132.454	13.262	1290.849	962.209
133.468	13.290	1289.736	961.457
134.483	13.244	1288.989	960.545
135.497	13.367	1288.072	960.494
136.512	13.238	1286.871	958.763
137.527	13.342	1285.068	957.940
138.541	13.343	1283.371	956.595
139.556	13.297	1282.703	955.750
140.570	13.411	1281.244	955.232
141.585	13.285	1280.543	953.901
142.600	13.453	1278.908	953.567
143.614	13.471	1277.901	952.832
144.629	13.485	1276.674	951.913
145.643	13.557	1275.409	951.303
146.658	13.428	1274.829	950.044
147.673	13.464	1273.412	949.107
148.687	13.401	1272.193	947.758
149.702	13.418	1271.032	946.904
150.716	13.288	1269.607	945.015
151.731	13.348	1268.522	944.470
152.746	13.286	1266.992	942.893
153.760	13.428	1265.845	942.766
154.775	13.497	1264.876	942.353
155.789	13.490	1263.355	941.096
156.804	13.556	1262.485	940.736
157.819	13.532	1261.490	939.778
158.833	13.516	1260.811	939.095
159.848	13.629	1259.773	938.880
160.862	13.686	1258.473	938.153
161.877	13.608	1257.185	936.667
162.892	13.520	1256.561	935.624
163.906	13.461	1255.795	934.639
164.921	13.618	1254.491	934.470
165.935	13.624	1253.878	933.962
166.950	13.572	1253.388	933.221
167.964	13.698	1251.860	932.714
168.979	13.587	1251.407	931.668
169.994	13.657	1250.449	931.265
171.008	13.637	1249.908	930.670
172.023	13.680	1248.835	930.027
173.037	13.703	1248.156	929.568
174.052	13.722	1246.942	928.686
175.067	13.698	1246.052	927.807
176.081	13.680	1244.775	926.678
177.096	13.609	1244.766	926.191
178.110	13.627	1243.617	925.355
179.125	13.585	1242.467	924.185
180.140	13.692	1241.315	923.837
181.154	13.784	1239.549	922.956
182.169	13.696	1238.571	921.658
183.183	13.808	1237.146	921.135
184.198	13.792	1236.034	920.140
185.213	13.794	1234.939	919.255
186.227	13.835	1234.023	918.718
187.242	13.860	1232.641	917.745
188.256	13.961	1231.697	917.521
189.271	13.976	1230.642	916.737
190.286	13.805	1229.851	915.119
191.300	13.749	1229.388	914.386
192.315	13.658	1228.937	913.470
193.329	13.740	1227.983	913.130
194.344	13.863	1227.042	913.028
195.359	13.826	1227.082	912.774
196.373	13.899	1226.410	912.595
197.388	13.778	1226.404	911.843
198.402	14.053	1225.052	912.263
199.417	14.004	1224.577	911.561
200.432	14.041	1223.342	910.764
201.446	14.107	1222.518	910.436
202.461	14.085	1221.675	909.606
203.475	14.090	1220.520	908.690
204.490	14.057	1219.059	907.343
205.504	14.119	1217.532	906.465
206.519	14.053	1216.768	905.458
207.534	14.023	1215.786	904.482
208.548	14.022	1214.883	903.725
209.563	14.168	1213.948	903.742
210.577	14.168	1212.967	902.929
211.592	14.113	1212.123	901.925
212.607	14.257	1211.178	901.924
213.621	14.250	1210.335	901.179
214.636	14.125	1209.674	899.931
215.650	14.206	1208.854	899.674
216.665	14.231	1207.382	898.637
217.680	14.288	1206.782	898.416
218.694	14.262	1206.450	897.949
219.709	14.298	1205.365	897.261
220.723	14.301	1204.210	896.337
221.738	14.400	1203.272	896.090
222.753	14.311	1202.896	895.254
223.767	14.284	1202.194	894.505
224.782	14.396	1201.607	894.593
225.796	14.480	1200.792	894.354
226.811	14.497	1199.956	893.746
227.826	14.514	1199.169	893.170
228.840	14.465	1198.356	892.222
229.855	14.451	1198.082	891.869
230.869	14.443	1197.387	891.229
231.884	14.400	1196.251	890.071
232.899	14.433	1195.530	889.632
233.913	14.442	1194.781	889.048
234.928	14.417	1193.785	888.092
235.942	14.355	1193.061	887.145
236.957	14.369	1192.636	886.825
237.972	14.416	1191.660	886.274
238.986	14.318	1191.185	885.320
240.001	14.525	1190.044	885.492
241.015	14.507	1189.141	884.645
242.030	14.486	1188.485	883.967
243.045	14.556	1187.275	883.361
244.059	14.573	1186.989	883.160
245.074	14.532	1185.880	882.037
246.088	14.749	1185.240	882.633
247.103	14.713	1184.173	881.568
248.117	14.694	1184.098	881.333
249.132	14.738	1182.686	880.440
250.147	14.755	1182.473	880.292
251.161	14.821	1181.669	879.964
252.176	14.841	1180.617	879.206
253.190	14.850	1180.334	878.964
254.205	14.813	1179.938	878.397
255.220	15.034	1178.845	878.666
256.234	14.933	1178.299	877.654
257.249	14.944	1177.783	877.248
258.263	14.937	1177.040	876.580
259.278	14.883	1176.444	875.776
260.293	14.949	1175.727	875.508
261.307	15.085	1175.310	875.837
262.322	14.998	1174.911	875.004
263.336	15.074	1173.976	874.627
264.351	15.008	1173.315	873.714
265.366	15.035	1172.505	873.172
266.380	15.118	1171.701	872.931
267.395	15.185	1170.678	872.439
268.409	15.101	1169.929	871.368
269.424	15.153	1169.382	871.154
270.439	15.170	1168.842	870.762
271.453	15.160	1168.206	870.160
272.468	15.131	1167.108	869.113
273.482	15.182	1166.198	868.621
274.497	15.011	1166.191	867.654
275.512	15.208	1165.199	867.862
276.526	15.221	1164.403	867.258
277.541	15.077	1163.896	866.059
278.555	15.194	1162.903	865.846
279.570	15.237	1162.355	865.585
280.585	15.310	1161.347	865.137
281.599	15.191	1160.907	864.116
282.614	15.353	1159.468	863.804
283.628	15.247	1158.159	862.209
284.643	15.341	1157.424	862.068
285.657	15.307	1156.963	861.473
286.672	15.383	1155.293	860.544
287.687	15.281	1154.690	859.496
288.701	15.333	1153.925	859.114
289.716	15.282	1153.244	858.271
290.730	15.442	1152.556	858.502
291.745	15.512	1151.497	857.996
292.760	15.397	1151.107	857.042
293.774	15.511	1150.749	857.279
294.789	15.592	1149.843	856.941
295.803	15.519	1149.119	855.957
296.818	15.480	1148.472	855.201
297.833	15.464	1147.744	854.502
298.847	15.543	1147.105	854.352
299.862	15.567	1146.213	853.733
300.876	15.571	1145.464	853.117
301.891	15.553	1145.327	852.852
302.906	15.590	1144.513	852.354
303.920	15.595	1143.921	851.867
304.935	15.687	1142.832	851.445
305.949	15.728	1142.357	851.222
306.964	15.835	1141.323	850.918
307.979	15.820	1140.541	850.185
308.993	15.783	1139.706	849.299
310.008	15.686	1139.673	848.712
311.022	15.837	1138.852	848.788
312.037	15.679	1137.676	847.036
313.052	15.821	1136.804	847.030
314.066	15.694	1135.683	845.479
315.081	15.760	1134.856	845.119
316.095	15.721	1134.316	844.449
317.110	15.891	1133.084	844.311
318.125	15.782	1132.578	843.309
319.139	15.763	1132.213	842.870
320.154	15.683	1131.171	841.619
321.168	15.847	1130.637	841.968
322.183	15.769	1130.282	841.239
323.197	15.839	1129.481	840.916
324.212	15.783	1129.204	840.359
325.227	15.857	1128.259	839.951
326.241	15.841	1128.064	839.648
327.256	15.829	1127.116	838.808
328.270	15.840	1126.068	838.012
329.285	15.808	1125.127	837.077
330.300	15.925	1123.803	836.599
331.314	16.040	1122.759	836.321
332.329	15.956	1122.149	835.373
333.343	15.915	1120.904	834.172
334.358	15.970	1120.389	833.985
335.373	16.006	1119.750	833.614
336.387	16.086	1118.773	833.206
337.402	16.107	1117.795	832.507
338.416	16.042	1117.785	832.108
339.431	16.116	1117.114	831.899
340.446	16.227	1116.245	831.726
341.460	16.127	1115.733	830.780
342.475	16.141	1114.463	829.829
343.489	16.254	1113.681	829.729
344.504	16.243	1112.625	828.813
345.519	16.285	1111.543	828.142
346.533	16.260	1111.207	827.694
347.548	16.298	1110.378	827.192
348.562	16.367	1109.915	827.110
349.577	16.299	1109.185	826.158
350.592	16.297	1108.302	825.417
351.606	16.271	1107.342	824.503
352.621	16.309	1106.817	824.226
353.635	16.359	1106.252	823.975
354.650	16.213	1105.752	822.816
355.665	16.251	1105.250	822.559
356.679	16.423	1103.959	822.363
357.694	16.458	1103.269	821.945
358.708	16.385	1102.823	821.183
359.723	16.452	1101.926	820.769
360.738	16.416	1101.066	819.879
361.752	16.407	1100.861	819.613
362.767	16.325	1100.563	818.923
363.781	16.520	1099.823	819.243
364.796	16.514	1099.294	818.745
365.810	16.501	1098.562	818.066
366.825	16.558	1097.879	817.761
367.840	16.646	1097.423	817.775
368.854	16.706	1096.869	817.577
369.869	16.520	1096.086	816.026
370.883	16.461	1095.622	815.321
371.898	16.525	1094.266	814.548
372.913	16.617	1093.852	814.610
373.927	16.601	1093.669	814.326
374.942	16.674	1093.065	814.154
375.956	16.747	1092.107	813.722
376.971	16.717	1091.685	813.192
377.986	16.787	1090.938	812.898
379.000	16.805	1090.425	812.529
380.015	16.813	1089.952	812.142
381.029	16.839	1089.097	811.563
382.044	16.916	1088.507	811.416
383.059	16.888	1087.506	810.466
384.073	16.979	1086.736	810.254
385.088	16.993	1086.164	809.825
386.102	16.945	1085.306	808.881
387.117	16.924	1084.421	808.052
388.132	16.783	1083.608	806.703
389.146	16.871	1082.746	806.408
390.161	16.877	1082.033	805.837
391.175	16.865	1081.563	805.355
392.190	17.060	1080.212	805.206
393.205	16.919	1080.185	804.441
394.219	16.924	1079.319	803.753
395.234	17.038	1078.022	803.253
396.248	17.093	1077.143	802.786
397.263	17.055	1076.019	801.699
398.278	17.013	1075.584	801.104
399.292	16.927	1074.614	799.907
400.307	16.871	1074.280	799.326
401.321	16.964	1073.499	799.110
402.336	16.907	1073.038	798.427
403.350	17.043	1071.779	798.060
404.365	17.084	1071.352	797.864
405.380	17.158	1070.749	797.690
406.394	17.175	1069.914	797.080
407.409	17.132	1069.098	796.201
408.423	17.258	1068.131	796.000
409.438	17.147	1067.774	795.142
410.453	17.273	1067.239	795.265
411.467	17.319	1066.262	794.682
412.482	17.343	1065.937	794.480
413.496	17.253	1065.255	793.480
414.511	17.429	1064.364	793.569
415.526	17.430	1063.619	792.949
416.540	17.390	1063.371	792.505
417.555	17.456	1062.712	792.253
418.569	17.450	1062.347	791.882
419.584	17.312	1062.165	791.035
420.599	17.338	1061.626	790.683
421.613	107.921	1331.410	1488.170
422.628	99.646	1370.643	1488.242
