DTS Sentinel unit serial number:	SN413079Multiplexer serial number:	ORYXHardware model number:	OX4-SRSoftware version number:	ORYX F/W v4.00 Oryx Data Collector v3.7.2.0data status	okinstallation	princeton_trtdifferential loss correction	single-endedforward channel	channel 2reverse channel	N/Adate	2019/09/12time	10:37:11forward acquisition time	60.00reverse acquisition time	0.00gamma	496.2192k internal	0.2309k external	0.2309temperature offset calibration	1.0068default loss term (dB/km)	0.3790temperature slope calibration	1.0000multiplexer offset coefficient	1.0000multiplexer slope coefficient	1.0000fibre end	0.00T internal ref (°C)	37.34T ext. ref 1 (°C)	1.90T ext. ref 2 (°C)	35.58length (m)	temperature (°C)	Stokes	anti-Stokes-747.200	-83.149	0.009	0.003
-746.185	-175.075	0.192	0.005
-745.171	-8.956	-0.088	-0.060
-744.156	-46.216	-0.288	0.144
-743.142	-200.000	-0.015	0.396
-742.127	-200.000	0.088	0.539
-741.112	-200.000	-0.010	-0.140
-740.098	-200.000	0.027	0.231
-739.083	-159.090	0.199	0.011
-738.069	-101.677	-0.186	-0.046
-737.054	-107.118	-0.300	-0.067
-736.039	-53.868	-0.294	0.136
-735.025	-5.155	-0.235	0.164
-734.010	-200.000	-0.016	-0.298
-732.996	-105.781	-0.184	-0.042
-731.981	39.882	-0.126	-0.115
-730.966	-200.000	0.027	-0.217
-729.952	240.267	-0.058	0.099
-728.937	-200.000	-0.011	-0.158
-727.923	60.881	0.065	-0.065
-726.908	-145.631	0.175	0.016
-725.894	-121.172	-0.061	0.010
-724.879	167.696	0.140	-0.202
-723.864	111.655	-0.283	0.346
-722.850	-200.000	-0.013	0.353
-721.835	40.601	-0.183	-0.167
-720.821	-200.000	-0.006	-0.335
-719.806	416.519	-0.154	-0.333
-718.791	130.639	-0.057	-0.075
-717.777	-99.623	0.251	-0.064
-716.762	-98.358	0.165	0.043
-715.748	800.000	0.055	0.172
-714.733	-191.613	0.189	-0.002
-713.718	255.963	-0.123	0.215
-712.704	-9.211	0.128	0.087
-711.689	138.000	0.085	-0.114
-710.675	-79.665	0.209	-0.072
-709.660	70.472	0.137	0.144
-708.645	-200.000	0.091	-0.427
-707.631	15.673	-0.259	-0.206
-706.616	-88.141	0.029	-0.009
-705.602	-200.000	0.001	0.252
-704.587	92.508	0.213	-0.244
-703.572	510.959	0.068	-0.160
-702.558	-85.368	0.297	-0.094
-701.543	-200.000	-0.033	-0.309
-700.529	-200.000	0.064	-0.316
-699.514	83.898	0.031	-0.034
-698.499	-99.114	0.403	-0.103
-697.485	-148.872	-0.421	0.034
-696.470	-52.950	0.106	-0.050
-695.456	257.621	0.118	0.205
-694.441	187.116	0.141	-0.213
-693.426	-30.269	0.274	0.158
-692.412	800.000	0.055	-0.206
-691.397	17.122	-0.156	0.125
-690.383	-200.000	0.005	-0.061
-689.368	-111.650	0.114	0.023
-688.354	-32.536	0.209	0.118
-687.339	-200.000	-0.003	-0.168
-686.324	-73.187	0.065	-0.024
-685.310	-200.000	-0.031	-0.174
-684.295	443.200	0.111	0.247
-683.281	517.486	-0.014	0.034
-682.266	-99.145	0.318	0.081
-681.251	45.944	-0.227	-0.213
-680.237	1.964	0.054	-0.039
-679.222	437.216	-0.129	-0.285
-678.208	302.801	-0.093	0.174
-677.193	-200.000	0.027	0.157
-676.178	-136.922	-0.166	0.019
-675.164	-5.016	0.242	-0.169
-674.149	15.845	0.125	0.100
-673.135	-48.102	-0.270	0.132
-672.120	-200.000	0.012	0.250
-671.105	161.481	0.108	-0.154
-670.091	-83.579	-0.251	-0.081
-669.076	-94.791	0.190	0.052
-668.062	-200.000	-0.054	0.269
-667.047	-96.642	0.210	-0.056
-666.032	461.798	0.099	-0.223
-665.018	121.659	-0.146	-0.184
-664.003	-69.011	-0.474	0.185
-662.989	-166.342	-0.468	-0.020
-661.974	-8.869	-0.237	-0.161
-660.959	149.277	0.135	0.184
-659.945	239.813	0.100	-0.168
-658.930	221.885	0.075	-0.122
-657.916	-200.000	0.021	-0.116
-656.901	568.672	0.073	-0.179
-655.886	-19.578	0.198	-0.124
-654.872	-200.000	-0.017	0.112
-653.857	77.035	-0.092	0.099
-652.843	-126.781	-0.090	-0.013
-651.828	-45.646	0.383	-0.192
-650.814	800.000	-0.068	0.191
-649.799	-200.000	-0.053	0.376
-648.784	56.362	-0.085	-0.083
-647.770	2.279	-0.220	0.161
-646.755	163.980	0.081	-0.116
-645.741	-117.508	-0.233	-0.043
-644.726	-200.000	0.009	0.245
-643.711	-200.000	0.021	0.375
-642.697	-200.000	-0.012	0.161
-641.682	159.567	0.112	0.158
-640.668	800.000	-0.142	-0.514
-639.653	86.344	-0.190	-0.212
-638.638	-200.000	0.024	-0.180
-637.624	-59.560	-0.156	0.068
-636.609	-68.258	-0.241	0.095
-635.595	-200.000	-0.011	-0.061
-634.580	-198.893	0.091	-0.001
-633.565	-90.603	0.251	0.073
-632.551	70.901	0.231	0.242
-631.536	19.748	-0.097	0.079
-630.522	-200.000	0.005	-0.053
-629.507	221.690	-0.111	0.180
-628.492	-72.872	-0.136	0.051
-627.478	-109.246	-0.234	0.050
-626.463	521.784	0.230	-0.545
-625.449	800.000	-0.077	0.285
-624.434	-200.000	0.031	-0.155
-623.419	-86.712	0.225	-0.070
-622.405	-75.315	0.291	-0.105
-621.390	296.369	-0.082	-0.152
-620.376	-200.000	-0.325	-0.001
-619.361	-43.524	0.266	-0.136
-618.346	-200.000	-0.040	-0.295
-617.332	47.713	0.072	0.068
-616.317	0.030	0.309	-0.223
-615.303	-67.443	0.090	0.036
-614.288	-37.607	-0.278	-0.150
-613.273	-12.427	-0.457	-0.302
-612.259	-167.276	0.150	-0.006
-611.244	0.512	0.252	-0.182
-610.230	7.714	-0.273	0.206
-609.215	232.648	-0.088	-0.146
-608.201	-58.835	-0.084	0.037
-607.186	-152.439	0.443	-0.032
-606.171	-168.031	-0.168	0.007
-605.157	217.306	0.171	-0.275
-604.142	-200.000	0.034	0.296
-603.128	-42.394	0.130	-0.067
-602.113	-15.254	-0.132	-0.085
-601.098	-30.484	-0.050	0.028
-600.084	-174.986	-0.370	-0.010
-599.069	-0.061	0.217	-0.156
-598.055	800.000	-0.049	0.176
-597.040	-200.000	0.004	0.068
-596.025	451.899	0.147	0.329
-595.011	176.176	0.152	0.224
-593.996	-150.432	0.234	-0.018
-592.982	-118.556	0.041	-0.007
-591.967	399.949	-0.152	-0.322
-590.952	-200.000	0.058	-0.371
-589.938	313.456	0.053	-0.101
-588.923	-200.000	0.017	-0.106
-587.909	411.001	-0.077	-0.165
-586.894	-85.261	-0.181	-0.057
-585.879	-123.495	-0.116	-0.019
-584.865	156.483	0.136	-0.190
-583.850	131.504	-0.122	-0.158
-582.836	164.686	0.118	0.168
-581.821	-200.000	-0.060	0.439
-580.806	-200.000	0.019	0.287
-579.792	-200.000	-0.009	-0.077
-578.777	-200.000	-0.011	-0.239
-577.763	-44.020	-0.022	-0.011
-576.748	-125.972	0.022	-0.003
-575.733	-18.277	-0.324	-0.205
-574.719	797.340	0.109	-0.304
-573.704	-53.118	0.131	0.061
-572.690	-24.514	-0.294	0.176
-571.675	-60.797	-0.071	-0.030
-570.661	-98.222	0.388	0.101
-569.646	158.909	0.116	-0.162
-568.631	-134.504	-0.241	0.030
-567.617	95.536	0.068	-0.078
-566.602	597.249	0.129	0.322
-565.588	-200.000	-0.070	-0.315
-564.573	-200.000	-0.003	0.033
-563.558	34.106	0.278	0.244
-562.544	84.561	0.315	0.347
-561.529	800.000	0.048	0.168
-560.515	499.258	0.077	-0.178
-559.500	8.755	0.116	-0.088
-558.485	-109.399	0.185	-0.039
-557.471	38.626	0.254	0.228
-556.456	663.001	0.091	0.236
-555.442	246.344	-0.103	-0.176
-554.427	37.619	-0.211	-0.189
-553.412	-157.603	0.174	0.010
-552.398	556.244	-0.102	-0.247
-551.383	-200.000	0.002	-0.124
-550.369	-45.067	-0.178	0.089
-549.354	529.988	-0.084	0.200
-548.339	465.781	-0.083	0.187
-547.325	-200.000	-0.070	0.393
-546.310	109.177	-0.153	-0.184
-545.296	-200.000	-0.001	-0.145
-544.281	-95.417	-0.218	-0.059
-543.266	-142.974	-0.318	-0.031
-542.252	733.325	0.106	-0.287
-541.237	-200.000	-0.039	-0.206
-540.223	-91.468	-0.132	0.038
-539.208	-200.000	0.025	0.221
-538.193	117.092	-0.308	0.381
-537.179	-200.000	0.033	0.176
-536.164	800.000	-0.093	-0.275
-535.150	-42.959	-0.242	-0.124
-534.135	-200.000	-0.001	-0.381
-533.121	-200.000	0.005	-0.301
-532.106	-109.543	-0.387	0.082
-531.091	-200.000	0.042	0.291
-530.077	-200.000	-0.028	0.196
-529.062	34.337	-0.131	-0.116
-528.048	800.000	0.031	0.092
-527.033	-139.808	-0.308	0.033
-526.018	191.958	0.024	-0.037
-525.004	14.563	-0.083	0.066
-523.989	-176.519	0.308	-0.008
-522.975	-200.000	0.115	0.001
-521.960	234.491	0.041	-0.068
-520.945	718.286	-0.068	-0.183
-519.931	-34.045	0.077	-0.043
-518.916	-200.000	0.046	-0.246
-517.902	-15.063	-0.079	0.051
-516.887	800.000	0.025	-0.089
-515.872	-188.852	0.123	0.002
-514.858	152.300	0.106	-0.146
-513.843	431.705	-0.102	0.223
-512.829	84.286	0.220	0.242
-511.814	-200.000	0.046	0.382
-510.799	-200.000	0.016	-0.245
-509.785	293.989	0.035	0.064
-508.770	-111.020	-0.246	-0.051
-507.756	-136.673	0.294	0.034
-506.741	289.960	-0.032	0.058
-505.726	-124.967	-0.178	0.028
-504.712	-82.018	0.103	0.034
-503.697	-101.833	0.194	-0.047
-502.683	-65.265	-0.229	0.093
-501.668	-200.000	-0.003	0.172
-500.653	88.731	0.134	0.150
-499.639	800.000	0.068	0.225
-498.624	96.244	0.318	-0.366
-497.610	378.052	-0.145	0.298
-496.595	-191.307	0.064	-0.001
-495.581	698.023	0.124	0.327
-494.566	247.227	0.155	0.263
-493.551	202.439	-0.059	0.092
-492.537	-41.466	-0.311	-0.161
-491.522	-181.469	0.137	0.003
-490.508	-200.000	-0.079	-0.402
-489.493	-200.000	-0.048	-0.382
-488.478	256.798	-0.206	0.357
-487.464	169.540	0.131	-0.188
-486.449	-85.870	-0.239	0.075
-485.435	-73.767	0.207	-0.076
-484.420	278.125	0.190	-0.340
-483.405	-53.168	0.175	0.081
-482.391	-200.000	0.007	0.108
-481.376	-59.257	-0.452	-0.196
-480.362	27.128	-0.240	0.202
-479.347	-31.208	0.040	-0.023
-478.332	800.000	-0.006	-0.022
-477.318	44.746	0.082	-0.076
-476.303	6.490	-0.432	-0.323
-475.289	-164.607	0.105	0.005
-474.274	354.095	0.187	0.374
-473.259	365.444	0.117	-0.237
-472.245	483.019	0.179	-0.409
-471.230	800.000	-0.103	0.347
-470.216	-96.023	0.211	0.056
-469.201	21.356	-0.152	0.124
-468.186	-200.000	-0.006	0.299
-467.172	-147.486	-0.486	0.041
-466.157	-200.000	-0.031	0.197
-465.143	-59.651	0.269	-0.116
-464.128	-200.000	0.017	0.112
-463.113	74.306	-0.055	0.058
-462.099	420.324	-0.172	-0.371
-461.084	-93.161	0.167	-0.047
-460.070	58.426	0.030	-0.030
-459.055	-200.000	0.021	-0.245
-458.040	-115.563	-0.084	-0.016
-457.026	53.457	-0.354	-0.342
-456.011	-147.183	-0.191	-0.016
-454.997	800.000	0.105	0.356
-453.982	-200.000	-0.003	0.180
-452.968	-6.220	-0.203	-0.139
-451.953	-67.713	0.235	0.092
-450.938	-1.601	-0.467	0.331
-449.924	31.470	0.261	-0.225
-448.909	145.981	0.052	0.070
-447.895	800.000	-0.038	0.143
-446.880	179.577	0.055	-0.081
-445.865	-200.000	0.001	-0.544
-444.851	-200.000	-0.010	0.069
-443.836	229.993	0.111	0.182
-442.822	800.000	0.102	-0.394
-441.807	76.529	0.146	0.155
-440.792	800.000	-0.037	0.116
-439.778	-37.217	-0.087	-0.046
-438.763	31.337	0.119	-0.103
-437.749	-106.105	-0.395	-0.089
-436.734	71.896	-0.038	-0.040
-435.719	-141.025	0.249	0.026
-434.705	800.000	-0.090	-0.327
-433.690	-200.000	0.011	-0.058
-432.676	36.866	-0.090	-0.080
-431.661	-99.441	0.278	0.070
-430.646	112.592	0.122	-0.149
-429.632	-86.052	0.320	-0.099
-428.617	175.057	-0.036	-0.052
-427.603	-8.802	0.117	-0.079
-426.588	428.459	-0.046	-0.100
-425.573	-127.676	-0.368	-0.053
-424.559	-138.843	0.441	0.048
-423.544	-11.711	-0.173	0.114
-422.530	-24.016	-0.102	0.061
-421.515	-200.000	-0.011	0.117
-420.500	26.902	-0.051	0.043
-419.486	422.812	0.009	-0.020
-418.471	413.363	-0.030	0.065
-417.457	-93.059	0.175	-0.049
-416.442	-151.289	-0.362	-0.027
-415.428	-66.657	-0.387	-0.154
-414.413	-12.781	-0.360	0.236
-413.398	34.828	-0.155	0.136
-412.384	-124.641	-0.395	-0.061
-411.369	-58.290	-0.279	-0.122
-410.355	-64.710	0.263	0.107
-409.340	168.392	0.090	-0.128
-408.325	-75.394	0.206	0.074
-407.311	393.078	-0.167	-0.349
-406.296	-129.002	-0.167	-0.023
-405.282	12.707	0.278	-0.216
-404.267	-118.628	0.287	0.051
-403.252	291.422	-0.049	0.090
-402.238	-200.000	0.021	0.237
-401.223	800.000	-0.019	-0.069
-400.209	-200.000	0.026	-0.247
-399.194	140.305	-0.155	0.205
-398.179	-200.000	-0.005	0.108
-397.165	0.123	0.283	0.203
-396.150	-6.201	0.112	0.077
-395.136	25.327	-0.197	-0.164
-394.121	-96.522	-0.118	0.031
-393.106	-200.000	0.004	-0.189
-392.092	449.293	-0.018	-0.039
-391.077	50.269	0.152	-0.144
-390.063	44.345	0.165	0.152
-389.048	-200.000	-0.047	0.269
-388.033	-54.796	0.218	0.099
-387.019	20.087	0.119	0.096
-386.004	35.925	-0.291	-0.256
-384.990	-58.514	-0.103	-0.045
-383.975	21.811	0.082	0.067
-382.960	209.115	0.075	0.118
-381.946	39.329	0.107	-0.096
-380.931	157.283	0.058	0.081
-379.917	800.000	-0.056	-0.196
-378.902	-104.003	0.174	-0.041
-377.888	182.801	0.107	-0.158
-376.873	-200.000	0.047	-0.328
-375.858	800.000	0.085	-0.315
-374.844	73.100	0.089	-0.093
-373.829	-200.000	0.001	-0.128
-372.815	-135.203	-0.085	0.010
-371.800	-2.367	-0.133	-0.093
-370.785	-87.244	-0.271	-0.082
-369.771	3.454	0.139	0.102
-368.756	-177.259	-0.069	0.002
-367.742	-82.847	-0.124	0.040
-366.727	220.594	-0.218	0.350
-365.712	-76.373	0.253	0.089
-364.698	26.694	0.137	-0.115
-363.683	-131.174	0.088	-0.012
-362.669	800.000	0.065	0.243
-361.654	-52.119	-0.240	-0.111
-360.639	133.261	0.172	-0.222
-359.625	800.000	-0.013	0.039
-358.610	639.058	-0.097	0.246
-357.596	230.729	-0.235	-0.385
-356.581	-94.178	0.192	-0.053
-355.566	-85.137	-0.235	0.073
-354.552	800.000	-0.045	0.176
-353.537	-119.262	-0.115	-0.020
-352.523	800.000	0.073	0.307
-351.508	-200.000	-0.014	-0.364
-350.493	11.379	-0.117	0.090
-349.479	-88.238	-0.165	0.049
-348.464	-83.453	-0.033	-0.010
-347.450	232.155	0.083	-0.137
-346.435	-26.399	0.275	-0.161
-345.420	-102.255	0.164	-0.039
-344.406	-167.313	-0.102	0.004
-343.391	-200.000	0.048	0.338
-342.377	-24.107	0.142	-0.085
-341.362	-121.184	-0.218	-0.036
-340.348	-95.268	0.184	-0.049
-339.333	294.778	0.217	-0.396
-338.318	-171.106	-0.117	0.004
-337.304	-158.368	-0.352	-0.020
-336.289	-200.000	0.014	-0.085
-335.275	-200.000	-0.013	0.256
-334.260	657.319	0.026	-0.066
-333.245	-83.662	-0.250	-0.080
-332.231	527.666	0.097	0.228
-331.216	-43.130	0.104	-0.053
-330.202	146.985	0.392	0.527
-329.187	-138.171	-0.302	0.034
-328.172	-1.838	-0.300	0.211
-327.158	-200.000	0.075	-0.396
-326.143	407.766	0.135	0.286
-325.129	-200.000	-0.010	0.287
-324.114	68.839	-0.066	-0.068
-323.099	-63.163	0.099	0.041
-322.085	690.085	-0.075	0.197
-321.070	-83.255	-0.236	0.076
-320.056	800.000	-0.015	-0.062
-319.041	-173.022	0.145	0.004
-318.026	-61.750	0.155	0.065
-317.012	-200.000	0.009	-0.181
-315.997	-200.000	0.018	-0.119
-314.983	-98.579	-0.320	-0.082
-313.968	371.252	-0.012	0.025
-312.953	275.704	0.306	0.542
-311.939	-1.945	0.357	-0.251
-310.924	260.943	-0.025	-0.043
-309.910	165.020	-0.177	0.250
-308.895	-141.720	-0.089	0.009
-307.880	10.678	-0.055	0.042
-306.866	77.320	-0.329	0.349
-305.851	312.331	-0.194	0.364
-304.837	-119.574	0.161	-0.028
-303.822	121.956	0.272	0.340
-302.807	-200.000	-0.012	-0.060
-301.793	32.438	0.146	-0.126
-300.778	800.000	-0.076	-0.230
-299.764	100.582	0.080	-0.093
-298.749	-89.643	-0.078	0.023
-297.735	-128.134	0.067	0.010
-296.720	-96.880	-0.241	0.063
-295.705	118.395	0.161	-0.199
-294.691	142.670	-0.202	0.268
-293.676	800.000	-0.053	0.177
-292.662	109.637	0.248	-0.297
-291.647	167.990	0.178	0.252
-290.632	105.635	-0.009	0.010
-289.618	-95.203	0.243	-0.065
-288.603	101.562	0.050	0.058
-287.589	800.000	-0.005	-0.013
-286.574	-148.971	-0.127	-0.010
-285.559	800.000	-0.077	0.242
-284.545	178.566	0.057	-0.084
-283.530	214.437	0.008	-0.013
-282.516	-69.996	-0.212	0.080
-281.501	253.922	-0.064	-0.109
-280.486	-93.607	-0.098	-0.027
-279.472	-124.333	-0.116	0.018
-278.457	90.203	0.170	0.190
-277.443	113.286	-0.187	-0.226
-276.428	336.478	-0.138	-0.268
-275.413	-90.380	0.207	0.060
-274.399	66.766	0.130	-0.132
-273.384	21.035	0.134	-0.109
-272.370	-200.000	0.028	-0.129
-271.355	-88.600	0.063	0.019
-270.340	23.905	-0.130	0.106
-269.326	800.000	-0.019	-0.079
-268.311	66.048	0.020	0.020
-267.297	-200.000	0.048	-0.237
-266.282	-13.115	0.036	0.024
-265.267	14.069	-0.037	-0.029
-264.253	-33.019	0.124	0.068
-263.238	-58.229	-0.253	0.110
-262.224	-200.000	-0.023	0.392
-261.209	800.000	-0.071	-0.248
-260.195	123.236	0.097	-0.121
-259.180	-107.449	-0.255	-0.056
-258.165	176.628	-0.344	0.498
-257.151	407.190	0.043	-0.091
-256.136	-96.720	0.090	-0.024
-255.122	290.294	-0.158	0.285
-254.107	-200.000	-0.038	-0.178
-253.092	173.527	-0.164	0.236
-252.078	-200.000	-0.016	0.331
-251.063	-200.000	0.031	-0.215
-250.049	245.447	-0.135	-0.226
-249.034	-163.084	0.236	-0.011
-248.019	117.787	-0.112	-0.137
-247.005	-200.000	0.010	-0.268
-245.990	-115.112	-0.135	-0.025
-244.976	-121.959	0.375	0.061
-243.961	-39.547	-0.306	0.160
-242.946	800.000	0.026	0.102
-241.932	-66.648	0.355	0.140
-240.917	-200.000	-0.053	-0.236
-239.903	-48.969	0.285	-0.136
-238.888	-200.000	-0.001	0.186
-237.873	199.092	-0.081	-0.124
-236.859	-93.170	0.187	-0.052
-235.844	800.000	0.160	-0.470
-234.830	131.181	0.028	-0.036
-233.815	-6.730	0.188	0.127
-232.800	41.035	0.321	-0.288
-231.786	-200.000	-0.020	0.152
-230.771	92.395	0.069	0.078
-229.757	-96.825	0.308	-0.081
-228.742	-100.891	-0.141	-0.035
-227.727	-75.658	0.334	-0.118
-226.713	272.050	0.055	0.096
-225.698	-160.625	0.232	-0.012
-224.684	332.068	-0.111	0.213
-223.669	-34.270	0.319	0.174
-222.655	-88.104	-0.114	0.034
-221.640	-183.899	-0.167	-0.003
-220.625	-178.809	-0.207	0.005
-219.611	-21.114	0.146	-0.089
-218.596	94.511	0.206	-0.233
-217.582	272.640	0.087	0.152
-216.567	-77.113	0.202	0.070
-215.552	54.693	-0.083	-0.080
-214.538	800.000	-0.171	0.497
-213.523	-119.656	0.211	0.036
-212.509	411.367	0.101	-0.212
-211.494	-148.401	-0.316	-0.026
-210.479	557.820	-0.187	-0.448
-209.465	-118.719	0.212	-0.037
-208.450	-21.244	0.167	0.102
-207.436	-117.075	0.173	0.031
-206.421	-200.000	-0.032	-0.247
-205.406	-14.790	-0.295	0.188
-204.392	-177.627	-0.194	0.005
-203.377	-200.000	-0.053	0.252
-202.363	-95.330	0.195	0.052
-201.348	-200.000	0.029	-0.351
-200.333	-84.409	-0.208	0.065
-199.319	403.389	0.067	-0.140
-198.304	-11.911	-0.298	-0.195
-197.290	311.336	0.083	-0.155
-196.275	286.159	0.097	0.173
-195.260	334.873	0.115	0.221
-194.246	97.580	-0.249	0.284
-193.231	510.706	-0.110	0.253
-192.217	-98.548	0.232	0.059
-191.202	-75.858	0.312	-0.110
-190.187	-138.408	-0.076	-0.008
-189.173	800.000	0.079	0.230
-188.158	-162.659	0.047	-0.002
-187.144	800.000	-0.097	-0.279
-186.129	201.940	-0.240	0.367
-185.114	800.000	-0.089	-0.325
-184.100	263.923	-0.077	-0.133
-183.085	199.486	-0.057	-0.086
-182.071	-95.555	0.268	0.071
-181.056	-200.000	-0.010	0.280
-180.042	-166.249	-0.098	0.004
-179.027	196.587	0.149	-0.226
-178.012	73.650	-0.144	0.150
-176.998	-200.000	-0.041	0.196
-175.983	327.612	-0.084	-0.159
-174.969	-127.502	0.126	0.018
-173.954	55.267	-0.088	-0.085
-172.939	101.031	0.139	-0.161
-171.925	-41.397	0.147	0.075
-170.910	-91.914	-0.118	-0.033
-169.896	39.906	0.193	-0.173
-168.881	-125.898	0.169	0.025
-167.866	-161.740	-0.394	-0.020
-166.852	-166.232	0.413	-0.017
-165.837	524.672	0.106	0.248
-164.823	40.953	0.304	0.273
-163.808	115.224	0.110	0.134
-162.793	-42.957	-0.321	-0.162
-161.779	-150.626	0.504	-0.038
-160.764	29.511	0.145	0.123
-159.750	-145.111	0.081	-0.007
-158.735	55.444	0.105	-0.101
-157.720	800.000	-0.084	0.254
-156.706	-200.000	0.006	0.360
-155.691	-56.405	-0.203	0.090
-154.677	176.586	-0.117	0.169
-153.662	115.524	0.222	0.269
-152.647	-21.181	-0.213	-0.129
-151.633	800.000	-0.015	0.047
-150.618	151.541	-0.171	0.232
-149.604	-95.427	0.229	-0.061
-148.589	-160.935	0.528	-0.028
-147.574	-6.833	-0.167	0.113
-146.560	-62.574	-0.243	-0.100
-145.545	800.000	0.061	-0.248
-144.531	-200.000	0.057	-0.324
-143.516	-200.000	-0.067	-0.362
-142.502	-133.773	0.236	-0.029
-141.487	119.877	0.084	0.103
-140.472	-67.117	0.205	-0.080
-139.458	229.137	-0.115	-0.186
-138.443	-44.067	0.185	0.092
-137.429	-85.971	-0.216	0.066
-136.414	136.685	-0.264	0.341
-135.399	94.991	0.186	0.210
-134.385	62.854	-0.106	0.105
-133.370	-200.000	0.002	0.017
-132.356	7.222	-0.080	0.059
-131.341	-154.306	-0.094	-0.006
-130.326	-47.074	0.043	0.021
-129.312	-178.329	-0.189	0.004
-128.297	-33.604	-0.255	-0.140
-127.283	800.000	0.021	0.069
-126.268	31.983	-0.071	0.060
-125.253	-200.000	0.019	0.108
-124.239	-200.000	-0.005	0.140
-123.224	438.276	-0.112	0.243
-122.210	-15.068	0.153	0.097
-121.195	-200.000	-0.011	-0.217
-120.180	80.873	-0.212	-0.227
-119.166	-92.992	0.189	0.052
-118.151	204.088	0.065	-0.099
-117.137	-106.237	0.522	0.116
-116.122	-174.667	0.157	-0.004
-115.107	800.000	-0.033	-0.093
-114.093	-8.565	-0.326	-0.217
-113.078	-43.515	0.173	0.087
-112.064	82.518	0.235	-0.252
-111.049	-200.000	-0.035	-0.353
-110.034	412.970	0.095	-0.201
-109.020	131.729	-0.033	0.042
-108.005	11.371	-0.194	0.147
-106.991	-13.167	-0.172	0.111
-105.976	99.205	-0.309	-0.354
-104.962	-94.515	0.406	-0.110
-103.947	356.877	-0.065	-0.129
-102.932	-185.925	0.166	-0.002
-101.918	33.893	-0.183	-0.158
-100.903	800.000	-0.020	-0.074
-99.889	-188.698	-0.160	0.002
-98.874	-200.000	-0.003	-0.050
-97.859	236.112	-0.127	-0.209
-96.845	553.528	-0.070	0.167
-95.830	-100.662	0.311	0.076
-94.816	-200.000	0.014	-0.151
-93.801	-139.636	-0.135	-0.014
-92.786	80.375	0.166	0.177
-91.772	-50.430	0.117	0.055
-90.757	119.503	0.126	-0.154
-89.743	-200.000	0.010	0.190
-88.728	-200.000	-0.020	0.402
-87.713	82.381	0.058	-0.063
-86.699	800.000	-0.105	-0.334
-85.684	-200.000	0.023	-0.125
-84.670	-97.371	-0.198	0.051
-83.655	-22.790	0.147	-0.088
-82.640	-48.481	-0.255	-0.122
-81.626	635.915	-0.009	-0.022
-80.611	-200.000	0.015	-0.075
-79.597	108.976	0.225	0.266
-78.582	800.000	0.057	-0.237
-77.567	109.519	-0.179	0.213
-76.553	-61.692	-0.154	0.064
-75.538	-114.244	0.430	0.082
-74.524	-200.000	0.072	-0.387
-73.509	-162.512	0.103	-0.005
-72.494	755.874	-0.020	0.055
-71.480	-100.893	0.203	-0.049
-70.465	-16.805	0.043	-0.027
-69.451	311.308	-0.126	0.234
-68.436	-98.501	0.252	-0.064
-67.422	315.079	0.093	0.174
-66.407	-200.000	0.026	0.222
-65.392	-200.000	-0.006	0.256
-64.378	49.083	0.180	-0.167
-63.363	-94.727	-0.078	-0.021
-62.349	-70.013	0.128	0.048
-61.334	-2.300	-1.055	-0.732
-60.319	6.308	0.415	0.304
-59.305	-200.000	0.178	-0.866
-58.290	223.053	0.602	0.959
-57.276	800.000	0.355	1.529
-56.261	-200.000	85.562	497.400
-55.246	461.277	1389.679	3063.878
-54.232	145.643	2615.758	3465.645
-53.217	105.021	2351.688	2743.301
-52.203	46.090	1959.612	1794.121
-51.188	40.451	1746.398	1554.780
-50.173	37.668	1700.882	1492.896
-49.159	52.550	1742.366	1644.966
-48.144	56.346	1760.965	1691.899
-47.130	40.377	1720.912	1531.276
-46.115	37.340	1706.412	1494.983
-45.100	37.339	1701.013	1490.188
-44.086	37.214	1698.860	1487.289
-43.071	37.167	1696.091	1484.447
-42.057	37.153	1693.407	1481.928
-41.042	37.229	1691.300	1480.605
-40.027	37.180	1689.582	1478.669
-39.013	37.172	1687.474	1476.704
-37.998	37.118	1685.770	1474.747
-36.984	37.262	1684.497	1474.666
-35.969	37.302	1683.091	1473.682
-34.954	37.424	1681.303	1472.984
-33.940	37.417	1679.352	1471.163
-32.925	37.366	1677.621	1469.198
-31.911	37.311	1676.132	1467.427
-30.896	37.357	1674.735	1466.487
-29.881	37.462	1672.354	1465.140
-28.867	37.290	1671.639	1463.158
-27.852	37.357	1669.359	1461.610
-26.838	37.385	1668.197	1460.741
-25.823	37.442	1666.603	1459.714
-24.809	37.464	1665.362	1458.733
-23.794	37.344	1664.317	1456.864
-22.779	37.403	1662.632	1455.775
-21.765	37.402	1660.395	1453.748
-20.750	37.368	1658.944	1452.164
-19.736	37.337	1657.722	1450.807
-18.721	37.448	1656.024	1450.095
-17.706	37.372	1654.370	1448.022
-16.692	37.388	1652.804	1446.713
-15.677	37.346	1651.781	1445.444
-14.663	37.355	1650.852	1444.640
-13.648	37.406	1649.108	1443.436
-12.633	37.327	1647.616	1441.492
-11.619	37.311	1646.171	1440.049
-10.604	37.360	1644.360	1438.766
-9.590	37.374	1642.944	1437.581
-8.575	37.320	1642.419	1436.665
-7.560	37.254	1640.906	1434.791
-6.546	37.425	1639.155	1434.465
-5.531	37.269	1638.170	1432.396
-4.517	37.372	1637.000	1432.075
-3.502	37.347	1636.029	1430.991
-2.487	37.409	1634.562	1430.102
-1.473	37.474	1623.247	1420.621
-0.458	35.343	1604.455	1388.709
0.556	32.014	1605.206	1358.048
1.571	29.650	1630.843	1362.214
2.586	29.055	1644.507	1369.077
3.600	24.962	1588.162	1292.580
4.615	13.440	1468.319	1117.588
5.629	3.753	1397.291	1000.933
6.644	2.090	1387.234	982.937
7.659	1.965	1385.762	981.006
8.673	1.805	1385.480	979.685
9.688	1.731	1383.415	977.663
10.702	1.571	1380.321	974.368
11.717	5.273	1388.094	1003.586
12.731	16.155	1409.731	1089.802
13.746	24.759	1424.083	1156.702
14.761	26.431	1426.044	1169.011
15.775	26.677	1425.428	1169.991
16.790	26.742	1425.076	1170.014
17.804	26.647	1424.879	1169.136
18.819	26.868	1424.555	1170.197
19.834	27.064	1423.151	1170.200
20.848	26.997	1423.072	1169.601
21.863	27.087	1421.676	1168.928
22.877	27.117	1420.848	1168.336
23.892	27.027	1420.068	1167.017
24.907	27.073	1418.988	1166.322
25.921	27.102	1418.295	1165.830
26.936	27.058	1417.235	1164.576
27.950	27.080	1416.091	1163.677
28.965	27.060	1414.997	1162.547
29.980	27.155	1413.653	1161.943
30.994	27.066	1412.784	1160.559
32.009	27.130	1411.470	1159.783
33.023	26.997	1410.880	1158.348
34.038	27.080	1409.419	1157.579
35.053	27.002	1408.406	1156.143
36.067	27.132	1407.062	1155.765
37.082	26.999	1406.293	1154.187
38.096	27.090	1405.338	1153.878
39.111	27.034	1404.638	1152.845
40.126	27.111	1403.615	1152.396
41.140	27.076	1403.049	1151.602
42.155	27.104	1403.144	1151.759
43.169	27.117	1402.995	1151.618
44.184	27.068	1402.424	1150.734
45.199	26.968	1402.277	1149.880
46.213	27.057	1401.671	1149.847
47.228	27.063	1400.724	1149.001
48.242	27.066	1399.593	1147.994
49.257	27.033	1398.105	1146.462
50.271	27.149	1396.588	1145.848
51.286	27.008	1395.328	1143.824
52.301	27.110	1393.731	1143.055
53.315	26.956	1393.425	1141.734
54.330	27.058	1392.366	1141.411
55.344	27.016	1391.313	1140.181
56.359	27.051	1389.897	1139.138
57.374	26.992	1389.571	1138.404
58.388	26.998	1388.931	1137.811
59.403	27.018	1388.711	1137.656
60.417	27.018	1387.841	1136.843
61.432	27.030	1386.794	1135.960
62.447	27.186	1385.582	1135.841
63.461	27.131	1384.819	1134.772
64.476	27.039	1384.205	1133.599
65.490	27.069	1382.368	1132.179
66.505	26.950	1381.354	1130.503
67.520	27.092	1379.570	1129.832
68.534	27.135	1378.444	1129.072
69.549	27.059	1377.959	1128.107
70.563	27.017	1377.041	1126.991
71.578	27.090	1375.868	1126.387
72.593	27.016	1375.115	1125.209
73.607	27.031	1374.883	1125.017
74.622	27.002	1373.750	1123.810
75.636	27.056	1373.054	1123.472
76.651	26.999	1372.240	1122.358
77.666	27.059	1371.639	1122.137
78.680	27.065	1371.556	1122.009
79.695	27.081	1370.316	1120.990
80.709	27.080	1369.518	1120.233
81.724	27.101	1368.886	1119.744
82.739	27.082	1367.873	1118.704
83.753	27.065	1367.001	1117.785
84.768	27.026	1366.171	1116.769
85.782	27.075	1364.874	1115.909
86.797	27.101	1363.452	1114.805
87.812	27.121	1362.354	1113.937
88.826	27.159	1361.381	1113.273
89.841	27.123	1360.487	1112.220
90.855	27.083	1359.319	1110.924
91.870	27.120	1358.341	1110.251
92.884	27.154	1357.770	1109.895
93.899	27.086	1356.985	1108.743
94.914	27.162	1356.311	1108.553
95.928	27.118	1355.344	1107.397
96.943	27.198	1354.264	1106.908
97.957	27.044	1354.193	1105.815
98.972	27.029	1353.285	1104.882
99.987	27.149	1351.752	1104.264
101.001	27.117	1350.623	1103.048
102.016	27.154	1349.945	1102.621
103.030	27.169	1349.016	1101.855
104.045	27.141	1348.421	1101.099
105.060	26.993	1347.579	1099.422
106.074	27.142	1346.086	1099.006
107.089	27.059	1345.389	1097.837
108.103	27.064	1344.278	1096.865
109.118	27.161	1343.217	1096.489
110.133	27.010	1342.359	1094.779
111.147	27.077	1340.999	1093.980
112.162	27.156	1339.873	1093.436
113.176	27.142	1339.020	1092.561
114.191	27.172	1338.026	1091.833
115.206	27.189	1336.478	1090.572
116.220	27.192	1335.695	1089.855
117.235	27.178	1334.665	1088.835
118.249	27.113	1334.201	1087.969
119.264	27.146	1333.131	1087.201
120.279	27.098	1332.601	1086.387
121.293	27.149	1331.954	1086.064
122.308	27.219	1331.000	1085.609
123.322	27.219	1330.106	1084.788
124.337	27.227	1328.993	1083.828
125.352	27.219	1328.072	1082.933
126.366	27.184	1327.480	1082.147
127.381	27.301	1326.237	1081.735
128.395	27.213	1325.260	1080.318
129.410	27.208	1325.078	1080.045
130.424	27.210	1324.409	1079.417
131.439	27.232	1323.614	1078.804
132.454	27.285	1322.491	1078.108
133.468	27.303	1321.737	1077.505
134.483	27.264	1321.252	1076.783
135.497	27.305	1320.803	1076.561
136.512	27.160	1319.867	1074.848
137.527	27.213	1318.700	1074.118
138.541	27.256	1317.193	1073.047
139.556	27.237	1315.988	1071.860
140.570	27.187	1314.942	1070.618
141.585	27.358	1313.614	1070.445
142.600	27.152	1312.779	1068.459
143.614	27.264	1311.659	1068.113
144.629	27.144	1310.983	1066.760
145.643	27.059	1310.040	1065.402
146.658	27.091	1309.271	1064.870
147.673	27.220	1308.067	1064.553
148.687	27.206	1307.072	1063.569
149.702	27.168	1305.752	1062.176
150.716	27.067	1304.816	1060.731
151.731	27.137	1303.927	1060.326
152.746	27.121	1302.869	1059.278
153.760	27.155	1301.848	1058.552
154.775	27.049	1301.085	1057.222
155.789	27.128	1300.122	1056.802
156.804	27.262	1298.638	1056.284
157.819	27.187	1298.089	1055.304
158.833	27.173	1297.453	1054.614
159.848	27.271	1296.654	1054.441
160.862	27.116	1296.171	1053.057
161.877	27.223	1294.883	1052.532
162.892	27.246	1293.734	1051.642
163.906	27.320	1293.513	1051.795
164.921	27.378	1292.288	1051.039
165.935	27.241	1291.886	1049.829
166.950	27.431	1290.938	1050.064
167.964	27.256	1290.735	1048.799
168.979	27.328	1290.127	1048.627
169.994	27.279	1289.703	1047.903
171.008	27.368	1288.696	1047.509
172.023	27.376	1287.681	1046.632
173.037	27.289	1287.301	1045.735
174.052	27.302	1286.459	1045.029
175.067	27.230	1285.888	1044.060
176.081	27.256	1285.133	1043.504
177.096	27.346	1283.934	1042.958
178.110	27.298	1283.078	1041.892
179.125	27.436	1281.863	1041.602
180.140	27.379	1281.127	1040.589
181.154	27.367	1279.882	1039.418
182.169	27.313	1278.813	1038.146
183.183	27.366	1277.598	1037.369
184.198	27.484	1276.536	1037.089
185.213	27.365	1276.153	1036.010
186.227	27.391	1275.014	1035.139
187.242	27.350	1274.428	1034.339
188.256	27.420	1273.338	1033.759
189.271	27.376	1272.703	1032.906
190.286	27.460	1271.096	1031.985
191.300	27.305	1271.221	1031.115
192.315	27.331	1270.727	1030.774
193.329	27.388	1270.248	1030.613
194.344	27.476	1269.670	1030.554
195.359	27.466	1269.122	1029.961
196.373	27.427	1268.989	1029.543
197.388	27.308	1268.387	1028.289
198.402	27.382	1268.142	1028.417
199.417	27.447	1267.679	1028.319
200.432	27.490	1266.723	1027.696
201.446	27.389	1266.003	1026.447
202.461	27.238	1265.712	1025.269
203.475	27.411	1264.680	1025.321
204.490	27.470	1263.501	1024.606
205.504	27.541	1262.476	1024.082
206.519	27.596	1261.596	1023.584
207.534	27.478	1260.959	1022.317
208.548	27.416	1260.146	1021.219
209.563	27.432	1259.487	1020.686
210.577	27.497	1258.306	1019.998
211.592	27.373	1257.137	1018.271
212.607	27.529	1256.718	1018.710
213.621	27.533	1256.382	1018.373
214.636	27.523	1255.503	1017.511
215.650	27.466	1254.360	1016.176
216.665	27.536	1252.830	1015.238
217.680	27.495	1252.717	1014.831
218.694	27.508	1251.839	1014.101
219.709	27.512	1251.127	1013.458
220.723	27.523	1250.572	1012.977
221.738	27.519	1249.557	1012.044
222.753	27.445	1248.829	1010.955
223.767	27.497	1248.291	1010.718
224.782	27.738	1247.256	1011.126
225.796	27.591	1246.965	1009.988
226.811	27.611	1246.358	1009.517
227.826	27.606	1246.045	1009.146
228.840	27.528	1245.713	1008.353
229.855	27.632	1244.652	1007.984
230.869	27.548	1243.924	1006.838
231.884	27.597	1243.655	1006.805
232.899	27.587	1242.387	1005.635
233.913	27.729	1241.660	1005.737
234.928	27.767	1241.608	1005.816
235.942	27.745	1240.640	1004.821
236.957	27.625	1239.936	1003.505
237.972	27.693	1239.397	1003.352
238.986	27.614	1238.716	1002.275
240.001	27.699	1238.372	1002.376
241.015	27.732	1237.320	1001.617
242.030	27.738	1236.426	1000.841
243.045	27.729	1235.823	1000.212
244.059	27.829	1234.781	999.830
245.074	27.880	1233.974	999.367
246.088	27.761	1233.802	998.489
247.103	27.777	1232.687	997.585
248.117	27.761	1231.766	996.665
249.132	27.890	1230.770	996.472
250.147	27.880	1230.385	996.019
251.161	27.890	1229.482	995.254
252.176	27.903	1229.046	994.884
253.190	27.892	1228.381	994.198
254.205	27.934	1227.440	993.577
255.220	27.909	1226.954	992.958
256.234	28.027	1225.976	992.721
257.249	27.955	1225.585	991.926
258.263	27.859	1225.353	991.129
259.278	28.012	1224.787	991.415
260.293	27.976	1224.006	990.496
261.307	27.890	1223.480	989.519
262.322	27.939	1223.402	989.634
263.336	27.975	1222.603	989.092
264.351	27.921	1221.670	987.961
265.366	27.950	1220.567	987.141
266.380	27.885	1220.943	987.003
267.395	27.920	1219.684	986.085
268.409	28.002	1219.016	985.901
269.424	27.961	1218.340	985.048
270.439	28.019	1217.760	984.803
271.453	28.008	1217.578	984.512
272.468	27.923	1216.483	983.082
273.482	27.935	1216.134	982.773
274.497	27.933	1215.743	982.360
275.512	28.068	1214.824	982.259
276.526	27.922	1214.424	981.065
277.541	28.054	1213.045	980.570
278.555	28.071	1212.507	980.137
279.570	28.115	1211.722	979.652
280.585	28.094	1211.100	978.952
281.599	27.988	1210.644	977.931
282.614	28.093	1209.166	977.210
283.628	28.071	1208.661	976.597
284.643	28.163	1207.385	975.972
285.657	28.087	1206.821	975.024
286.672	28.120	1206.087	974.522
287.687	28.167	1205.084	973.877
288.701	28.192	1204.469	973.426
289.716	28.156	1203.605	972.450
290.730	28.179	1203.354	972.282
291.745	28.204	1202.715	971.814
292.760	28.154	1201.984	970.871
293.774	28.160	1201.612	970.516
294.789	28.304	1200.655	970.422
295.803	28.219	1200.432	969.702
296.818	28.278	1199.704	969.343
297.833	28.329	1198.580	968.615
298.847	28.272	1198.462	968.134
299.862	28.228	1197.545	967.074
300.876	28.257	1196.810	966.552
301.891	28.276	1196.256	966.116
302.906	28.256	1195.841	965.591
303.920	28.306	1195.048	965.132
304.935	28.278	1194.465	964.423
305.949	28.342	1193.800	964.142
306.964	28.255	1193.108	963.037
307.979	28.195	1192.750	962.348
308.993	28.310	1191.646	961.974
310.008	28.290	1191.217	961.442
311.022	28.490	1190.143	961.538
312.037	28.414	1189.452	960.497
313.052	28.498	1188.526	960.103
314.066	28.417	1187.516	958.780
315.081	28.412	1186.895	958.163
316.095	28.412	1186.570	957.821
317.110	28.485	1185.711	957.420
318.125	28.442	1184.902	956.461
319.139	28.349	1184.541	955.598
320.154	28.448	1183.680	955.334
321.168	28.507	1183.075	955.068
322.183	28.392	1182.964	954.296
323.197	28.518	1181.989	954.079
324.212	28.465	1181.446	953.284
325.227	28.402	1181.149	952.633
326.241	28.548	1180.240	952.575
327.256	28.570	1179.747	952.207
328.270	28.550	1178.945	951.369
329.285	28.518	1178.194	950.513
330.300	28.521	1177.384	949.790
331.314	28.577	1176.329	949.145
332.329	28.645	1175.773	948.967
333.343	28.617	1174.816	947.963
334.358	28.706	1173.855	947.565
335.373	28.640	1173.683	946.999
336.387	28.599	1173.203	946.319
337.402	28.667	1172.768	946.234
338.416	28.680	1171.790	945.428
339.431	28.726	1170.570	944.595
340.446	28.808	1169.979	944.458
341.460	28.733	1169.718	943.776
342.475	28.777	1169.013	943.352
343.489	28.698	1168.121	942.140
344.504	28.730	1167.230	941.503
345.519	28.644	1166.394	940.305
346.533	28.780	1165.203	939.958
347.548	28.789	1164.545	939.390
348.562	28.810	1163.981	938.960
349.577	28.741	1163.408	938.065
350.592	28.711	1162.592	937.171
351.606	28.746	1161.632	936.489
352.621	28.769	1161.340	936.289
353.635	28.838	1160.717	936.054
354.650	28.685	1160.333	934.883
355.665	28.855	1159.644	935.111
356.679	28.757	1158.894	933.926
357.694	29.015	1158.055	934.479
358.708	28.940	1157.568	933.618
359.723	28.752	1156.967	932.102
360.738	28.899	1156.313	932.236
361.752	28.798	1155.603	931.068
362.767	28.993	1155.297	931.730
363.781	29.023	1154.321	931.011
364.796	28.942	1153.940	930.212
365.810	29.019	1153.524	930.182
366.825	29.010	1152.714	929.402
367.840	29.038	1152.237	929.074
368.854	29.032	1151.668	928.506
369.869	29.057	1150.871	927.905
370.883	29.146	1149.999	927.569
371.898	29.079	1149.375	926.648
372.913	29.091	1148.726	926.102
373.927	29.103	1148.331	925.761
374.942	29.165	1147.593	925.394
375.956	28.956	1147.564	924.239
376.971	29.082	1146.994	924.330
377.986	29.072	1146.171	923.536
379.000	29.312	1145.627	924.221
380.015	29.143	1145.220	922.964
381.029	29.116	1144.441	922.118
382.044	29.199	1143.312	921.544
383.059	29.140	1142.964	920.883
384.073	29.185	1142.040	920.287
385.088	29.247	1141.072	919.732
386.102	29.187	1140.737	919.083
387.117	29.155	1139.524	917.865
388.132	29.153	1139.328	917.616
389.146	29.158	1138.263	916.699
390.161	29.313	1137.428	916.720
391.175	29.139	1137.063	915.480
392.190	29.192	1136.239	914.996
393.205	29.142	1135.966	914.446
394.219	29.272	1134.764	914.043
395.234	29.286	1134.275	913.637
396.248	29.409	1133.286	913.367
397.263	29.309	1132.096	911.836
398.278	29.434	1131.654	912.018
399.292	29.419	1131.814	911.992
400.307	29.403	1130.735	910.961
401.321	29.409	1130.196	910.476
402.336	29.462	1129.228	909.875
403.350	29.480	1128.720	909.477
404.365	29.422	1128.249	908.731
405.380	29.485	1127.540	908.388
406.394	29.410	1126.729	907.286
407.409	29.511	1125.702	906.876
408.423	29.491	1125.218	906.307
409.438	29.679	1124.368	906.466
410.453	29.571	1123.948	905.514
411.467	29.604	1123.006	904.838
412.482	29.555	1122.409	904.040
413.496	29.607	1121.560	903.526
414.511	29.561	1121.556	903.220
415.526	29.618	1121.018	902.984
416.540	29.620	1120.051	902.137
417.555	29.632	1119.710	901.843
418.569	29.457	1119.289	900.569
419.584	29.677	1118.923	901.268
420.599	29.769	1118.346	901.168
421.613	95.313	1314.704	1417.662
422.628	89.561	1343.320	1417.786
