DTS Sentinel unit serial number:	SN413079Multiplexer serial number:	ORYXHardware model number:	OX4-SRSoftware version number:	ORYX F/W v4.00 Oryx Data Collector v3.7.2.0data status	okinstallation	princeton_trtdifferential loss correction	single-endedforward channel	channel 2reverse channel	N/Adate	2019/09/19time	10:39:35forward acquisition time	60.00reverse acquisition time	0.00gamma	496.2192k internal	0.2342k external	0.2342temperature offset calibration	1.0007default loss term (dB/km)	0.3790temperature slope calibration	1.0000multiplexer offset coefficient	1.0000multiplexer slope coefficient	1.0000fibre end	0.00T internal ref (°C)	24.53T ext. ref 1 (°C)	0.72T ext. ref 2 (°C)	20.04length (m)	temperature (°C)	Stokes	anti-Stokes-747.200	-106.500	-0.230	-0.052
-746.185	66.498	0.392	0.399
-745.171	-91.464	0.117	-0.034
-744.156	-200.000	-0.014	0.364
-743.142	293.470	-0.123	0.224
-742.127	31.366	-0.071	0.061
-741.112	526.626	0.096	0.228
-740.098	800.000	0.116	0.451
-739.083	-14.307	0.162	0.104
-738.069	800.000	-0.035	-0.150
-737.054	-200.000	0.075	0.378
-736.039	27.659	0.193	0.163
-735.025	-103.194	-0.403	0.095
-734.010	2.060	0.197	-0.143
-732.996	8.776	-0.053	-0.040
-731.981	-31.759	-0.302	-0.170
-730.966	197.366	-0.215	0.329
-729.952	93.881	-0.094	0.107
-728.937	-90.321	-0.063	-0.018
-727.923	800.000	-0.106	-0.385
-726.908	-137.904	0.402	-0.045
-725.894	-123.358	0.254	0.041
-724.879	-77.890	0.260	-0.090
-723.864	-200.000	-0.041	-0.346
-722.850	437.687	-0.177	-0.386
-721.835	263.654	0.062	0.107
-720.821	-106.896	0.335	-0.074
-719.806	-122.992	-0.530	0.085
-718.791	-200.000	0.068	0.500
-717.777	-200.000	0.013	0.093
-716.762	-75.565	-0.268	-0.095
-715.748	800.000	0.074	-0.289
-714.733	-200.000	0.044	-0.200
-713.718	-92.505	0.223	0.063
-712.704	91.853	-0.250	-0.282
-711.689	523.980	0.059	0.138
-710.675	622.494	-0.078	0.196
-709.660	188.169	-0.006	0.009
-708.645	128.134	-0.351	-0.446
-707.631	625.717	0.064	0.161
-706.616	50.742	0.084	-0.079
-705.602	-200.000	0.075	0.347
-704.587	-200.000	0.016	-0.125
-703.572	257.134	-0.282	-0.485
-702.558	35.338	0.106	0.093
-701.543	-92.307	0.287	0.081
-700.529	-112.397	0.238	0.048
-699.514	-135.572	0.125	0.015
-698.499	-153.418	0.298	0.021
-697.485	-113.090	0.213	-0.042
-696.470	800.000	0.076	0.224
-695.456	168.500	0.121	-0.172
-694.441	-50.790	-0.178	0.084
-693.426	800.000	0.051	0.158
-692.412	124.535	-0.038	-0.047
-691.397	-200.000	0.015	0.302
-690.383	-132.850	0.133	0.017
-689.368	-200.000	0.092	0.000
-688.354	800.000	0.065	-0.183
-687.339	41.427	-0.162	0.147
-686.324	263.339	0.250	-0.435
-685.310	800.000	0.039	0.122
-684.295	-71.852	0.070	0.026
-683.281	-5.169	-0.180	-0.124
-682.266	-200.000	-0.076	-0.363
-681.251	279.131	-0.168	0.300
-680.237	203.761	-0.084	0.130
-679.222	-68.021	0.231	0.090
-678.208	430.461	-0.120	-0.260
-677.193	-65.761	0.288	-0.115
-676.178	800.000	0.114	0.414
-675.164	-123.791	0.166	0.026
-674.149	-77.690	-0.340	0.118
-673.135	-200.000	-0.008	0.036
-672.120	-200.000	-0.006	-0.123
-671.105	-200.000	0.037	0.204
-670.091	800.000	-0.039	-0.112
-669.076	800.000	-0.080	-0.279
-668.062	800.000	0.091	0.261
-667.047	27.711	0.167	0.141
-666.032	68.644	-0.280	0.287
-665.018	66.939	0.104	-0.106
-664.003	800.000	-0.099	0.279
-662.989	-200.000	0.001	-0.211
-661.974	8.216	-0.239	-0.179
-660.959	122.208	0.087	0.108
-659.945	800.000	0.058	0.196
-658.930	280.435	-0.078	-0.139
-657.916	63.249	0.208	-0.208
-656.901	-62.373	-0.164	-0.068
-655.886	53.837	-0.186	0.179
-654.872	-200.000	-0.010	-0.067
-653.857	800.000	0.091	-0.323
-652.843	-85.025	0.215	0.067
-651.828	217.768	0.186	-0.296
-650.814	-49.129	-0.280	-0.134
-649.799	-200.000	0.025	-0.215
-648.784	800.000	0.059	0.212
-647.770	34.781	-0.184	-0.161
-646.755	214.599	0.140	-0.222
-645.741	-90.321	-0.077	-0.022
-644.726	-188.432	-0.166	0.002
-643.711	800.000	-0.115	0.341
-642.697	88.072	0.071	-0.079
-641.682	72.967	0.320	0.333
-640.668	-68.891	-0.129	-0.050
-639.653	166.335	-0.181	-0.256
-638.638	-200.000	0.008	-0.193
-637.624	133.377	-0.285	-0.368
-636.609	459.132	-0.020	-0.045
-635.595	-68.796	-0.156	-0.060
-634.580	-58.191	0.245	-0.107
-633.565	-200.000	0.047	-0.400
-632.551	99.276	-0.077	-0.089
-631.536	800.000	-0.039	0.139
-630.522	355.635	0.058	-0.114
-629.507	87.376	0.096	-0.106
-628.492	427.925	0.140	0.301
-627.478	800.000	0.084	0.238
-626.463	99.343	0.094	0.109
-625.449	294.194	-0.079	0.144
-624.434	-18.598	0.110	-0.068
-623.419	-21.681	-0.112	0.068
-622.405	-97.882	-0.483	0.124
-621.390	-158.251	-0.057	0.003
-620.376	89.626	0.141	0.157
-619.361	-65.969	0.173	-0.069
-618.346	-200.000	0.016	0.158
-617.332	-131.892	-0.182	0.024
-616.317	30.895	-0.054	0.046
-615.303	-200.000	0.033	-0.238
-614.288	800.000	-0.035	0.142
-613.273	-106.365	0.253	0.056
-612.259	187.714	-0.058	0.087
-611.244	26.864	-0.252	0.211
-610.230	800.000	0.072	-0.203
-609.215	254.809	-0.189	-0.322
-608.201	-1.980	-0.163	-0.114
-607.186	-2.992	0.184	-0.128
-606.171	181.820	-0.073	0.107
-605.157	10.667	-0.156	-0.119
-604.142	119.533	0.199	-0.246
-603.128	800.000	-0.096	0.284
-602.113	-46.498	0.401	-0.196
-601.098	-200.000	-0.001	-0.173
-600.084	552.975	0.079	-0.189
-599.069	-143.475	0.101	-0.010
-598.055	53.875	-0.136	0.130
-597.040	-48.617	0.229	0.110
-596.025	-68.946	-0.206	0.079
-595.011	156.078	-0.107	0.147
-593.996	800.000	0.051	0.165
-592.982	131.903	-0.042	0.053
-591.967	800.000	0.036	0.127
-590.952	-200.000	-0.049	0.253
-589.938	12.705	-0.202	0.155
-588.923	-200.000	-0.029	-0.275
-587.909	267.308	0.099	-0.172
-586.894	232.720	-0.135	0.221
-585.879	31.746	-0.219	0.188
-584.865	800.000	0.071	0.248
-583.850	-200.000	-0.059	0.265
-582.836	296.783	-0.092	-0.169
-581.821	-105.790	-0.102	0.023
-580.806	285.010	0.091	-0.163
-579.792	188.930	0.113	-0.168
-578.777	-156.931	0.251	0.015
-577.763	98.674	-0.074	0.085
-576.748	-67.581	-0.293	-0.114
-575.733	505.515	-0.052	-0.121
-574.719	-103.464	-0.248	0.058
-573.704	58.906	-0.063	0.062
-572.690	-200.000	0.002	-0.150
-571.675	-68.068	0.201	-0.078
-570.661	504.580	0.034	0.079
-569.646	412.738	0.049	0.105
-568.631	131.106	0.085	-0.109
-567.617	800.000	-0.081	-0.294
-566.602	123.558	0.021	0.027
-565.588	-200.000	0.010	0.138
-564.573	651.988	0.035	0.090
-563.558	40.095	0.025	-0.022
-562.544	625.736	-0.239	-0.600
-561.529	90.857	0.214	0.239
-560.515	-12.485	0.169	0.110
-559.500	387.474	0.082	-0.169
-558.485	-18.512	0.208	-0.129
-557.471	-200.000	0.042	0.183
-556.456	60.759	0.136	-0.134
-555.442	186.252	0.126	-0.187
-554.427	-163.100	0.248	0.012
-553.412	-117.186	0.145	0.026
-552.398	14.151	-0.329	0.255
-551.383	266.671	0.121	0.210
-550.369	42.276	0.266	0.240
-549.354	24.237	-0.190	0.156
-548.339	-23.423	0.162	0.097
-547.325	-130.744	-0.213	0.029
-546.310	-200.000	0.043	-0.374
-545.296	399.084	-0.066	-0.138
-544.281	234.189	-0.108	0.176
-543.266	-85.211	-0.009	-0.003
-542.252	42.283	0.229	-0.206
-541.237	-99.399	0.180	0.045
-540.223	41.852	-0.128	0.116
-539.208	-57.814	0.050	0.022
-538.193	-43.009	-0.142	0.072
-537.179	800.000	-0.007	-0.025
-536.164	-4.249	-0.261	-0.179
-535.150	426.279	-0.090	0.192
-534.135	125.555	0.138	0.173
-533.121	-114.801	-0.046	0.009
-532.106	-200.000	-0.013	0.133
-531.091	-80.564	-0.131	-0.043
-530.077	-78.853	0.309	-0.105
-529.062	-36.704	-0.105	0.056
-528.048	-162.300	0.133	0.007
-527.033	557.018	0.128	0.307
-526.018	-125.854	0.191	-0.029
-525.004	-13.079	-0.143	0.092
-523.989	69.169	0.106	-0.108
-522.975	194.861	-0.096	-0.144
-521.960	39.104	-0.351	0.312
-520.945	800.000	0.116	-0.355
-519.931	800.000	0.053	-0.180
-518.916	587.650	0.161	-0.394
-517.902	18.372	-0.199	-0.158
-516.887	-127.735	0.080	-0.011
-515.872	15.769	0.164	0.128
-514.858	-117.368	-0.199	0.036
-513.843	35.975	-0.084	-0.074
-512.829	-43.211	0.169	0.085
-511.814	-200.000	0.008	-0.299
-510.799	800.000	-0.033	-0.136
-509.785	3.219	-0.229	0.165
-508.770	-96.074	-0.098	0.026
-507.756	-200.000	0.009	0.079
-506.741	-50.198	-0.322	0.151
-505.726	34.214	-0.046	-0.040
-504.712	-25.452	-0.176	0.104
-503.697	800.000	-0.011	-0.045
-502.683	-104.784	0.319	-0.073
-501.668	678.540	0.043	0.111
-500.653	-61.785	-0.182	-0.075
-499.639	800.000	0.117	0.359
-498.624	-111.549	-0.241	0.049
-497.610	2.330	0.130	0.093
-496.595	76.074	-0.220	0.231
-495.581	770.568	-0.040	-0.109
-494.566	-200.000	0.040	-0.330
-493.551	674.688	0.086	-0.222
-492.537	798.769	0.050	-0.137
-491.522	138.679	0.196	0.255
-490.508	-15.335	0.456	0.289
-489.493	35.395	-0.244	0.213
-488.478	800.000	0.018	-0.049
-487.464	-138.707	0.282	0.031
-486.449	-200.000	0.001	-0.069
-485.435	-144.970	-0.269	-0.024
-484.420	-131.835	0.189	0.025
-483.405	-99.646	0.142	-0.035
-482.391	-26.499	0.012	-0.007
-481.376	-200.000	0.041	0.306
-480.362	800.000	-0.083	0.290
-479.347	90.264	0.127	-0.141
-478.332	800.000	0.061	-0.186
-477.318	87.706	-0.157	0.172
-476.303	-39.744	-0.202	0.105
-475.289	150.533	-0.062	-0.084
-474.274	-42.761	0.222	0.112
-473.259	-181.438	-0.121	-0.002
-472.245	355.426	-0.012	0.024
-471.230	-79.254	-0.220	-0.074
-470.216	-53.713	-0.215	-0.097
-469.201	-26.543	0.258	0.150
-468.186	-152.581	0.036	-0.003
-467.172	-44.835	-0.417	-0.206
-466.157	242.470	-0.124	-0.205
-465.143	61.644	0.085	-0.083
-464.128	258.623	0.110	0.188
-463.113	-0.569	-0.176	0.124
-462.099	318.920	0.281	0.527
-461.084	-165.837	-0.192	0.008
-460.070	99.038	-0.064	0.073
-459.055	-151.820	-0.070	0.005
-458.040	-84.673	0.246	0.077
-457.026	-112.421	0.085	-0.017
-456.011	-120.406	0.254	-0.043
-454.997	-118.511	0.254	-0.045
-453.982	-66.836	-0.299	-0.117
-452.968	-40.227	0.180	0.093
-451.953	87.345	-0.161	0.177
-450.938	-200.000	-0.007	0.050
-449.924	-80.575	-0.147	-0.048
-448.909	242.633	-0.137	0.227
-447.895	242.789	-0.176	-0.292
-446.880	288.043	0.209	0.374
-445.865	-64.357	-0.198	-0.080
-444.851	120.206	0.171	0.210
-443.836	-32.971	-0.122	-0.067
-442.822	229.331	-0.221	-0.357
-441.807	-10.612	-0.229	-0.150
-440.792	-27.068	0.165	-0.095
-439.778	197.858	-0.109	-0.164
-438.763	-139.022	-0.122	-0.013
-437.749	-109.331	-0.194	-0.041
-436.734	-11.615	0.228	0.149
-435.719	-200.000	-0.067	0.364
-434.705	-200.000	0.079	0.504
-433.690	-200.000	0.006	-0.268
-432.676	-56.909	0.230	0.101
-431.661	-200.000	-0.019	0.143
-430.646	-123.988	0.275	-0.043
-429.632	-3.226	-0.134	-0.093
-428.617	-39.199	-0.209	-0.109
-427.603	64.767	-0.211	-0.210
-426.588	-200.000	0.001	0.053
-425.573	-200.000	-0.016	0.180
-424.559	-96.293	-0.149	-0.039
-423.544	-120.897	-0.276	-0.046
-422.530	214.507	-0.136	-0.212
-421.515	-9.190	-0.070	-0.046
-420.500	-9.863	-0.192	0.126
-419.486	45.586	0.346	0.316
-418.471	-125.908	0.230	-0.034
-417.457	800.000	0.027	0.079
-416.442	372.258	-0.088	0.176
-415.428	101.070	0.248	0.286
-414.413	800.000	-0.043	-0.161
-413.398	-88.580	0.280	-0.082
-412.384	-50.350	0.132	-0.061
-411.369	-98.569	-0.056	0.014
-410.355	-7.822	-0.222	-0.149
-409.340	-126.153	0.237	-0.035
-408.325	-178.448	-0.111	0.003
-407.311	-131.498	-0.348	0.045
-406.296	708.003	0.102	0.266
-405.282	-42.674	-0.116	0.059
-404.267	-41.149	-0.269	-0.137
-403.252	-105.503	-0.383	0.086
-402.238	288.385	0.121	0.217
-401.223	-200.000	-0.023	-0.352
-400.209	-26.204	0.404	-0.235
-399.194	-159.127	-0.130	-0.007
-398.179	-200.000	-0.019	0.092
-397.165	39.887	-0.228	0.203
-396.150	-149.733	-0.386	-0.030
-395.136	-163.240	0.128	-0.006
-394.121	-200.000	-0.024	-0.257
-393.106	134.963	-0.116	-0.149
-392.092	33.173	-0.101	-0.087
-391.077	-4.906	-0.044	-0.030
-390.063	42.094	0.221	0.199
-389.048	113.428	0.060	-0.072
-388.033	44.566	-0.070	-0.064
-387.019	-20.974	0.177	-0.107
-386.004	-123.467	0.238	0.037
-384.990	62.019	0.117	-0.115
-383.975	-54.047	0.210	-0.095
-382.960	348.399	-0.067	0.130
-381.946	-136.050	0.369	0.043
-380.931	-200.000	-0.042	0.330
-379.917	800.000	0.073	-0.249
-378.902	-44.174	-0.253	0.125
-377.888	-200.000	-0.055	0.329
-376.873	74.492	-0.124	0.128
-375.858	-17.506	-0.154	-0.096
-374.844	-64.665	0.228	-0.091
-373.829	85.095	-0.198	-0.214
-372.815	-53.971	-0.149	0.067
-371.800	-56.265	0.162	-0.071
-370.785	32.747	-0.187	-0.160
-369.771	-112.988	-0.090	-0.017
-368.756	772.231	-0.036	0.098
-367.742	-22.267	0.338	-0.202
-366.727	-200.000	0.035	0.272
-365.712	-79.097	-0.173	-0.058
-364.698	113.947	-0.199	-0.238
-363.683	-150.826	-0.260	-0.019
-362.669	25.335	0.039	-0.032
-361.654	180.243	0.077	-0.111
-360.639	143.634	0.210	0.277
-359.625	65.009	0.228	-0.227
-358.610	-59.202	0.170	-0.072
-357.596	-200.000	-0.028	-0.245
-356.581	-200.000	0.003	0.069
-355.566	473.927	0.132	0.293
-354.552	68.627	0.171	-0.173
-353.537	-75.876	0.196	-0.068
-352.523	37.086	0.285	0.249
-351.508	-200.000	0.029	0.569
-350.493	-8.653	-0.170	-0.113
-349.479	-110.423	-0.267	-0.055
-348.464	-200.000	-0.054	0.364
-347.450	214.119	-0.124	-0.194
-346.435	800.000	0.067	0.214
-345.420	-200.000	0.043	0.299
-344.406	-115.285	-0.119	-0.022
-343.391	86.855	0.137	-0.149
-342.377	64.512	-0.053	-0.053
-341.362	261.144	0.124	0.212
-340.348	-200.000	0.081	0.376
-339.333	800.000	-0.045	0.158
-338.318	-35.386	-0.169	0.090
-337.304	-193.227	-0.174	0.002
-336.289	-96.525	0.171	0.044
-335.275	75.132	-0.214	0.223
-334.260	265.447	-0.118	0.202
-333.245	-139.907	-0.242	0.025
-332.231	-155.618	-0.063	0.004
-331.216	301.417	-0.073	0.133
-330.202	60.803	0.184	-0.180
-329.187	-116.318	-0.272	-0.050
-328.172	-200.000	0.019	-0.085
-327.158	-60.094	0.108	0.045
-326.143	-200.000	-0.003	0.023
-325.129	575.808	-0.104	0.250
-324.114	127.757	-0.137	-0.172
-323.099	800.000	0.040	0.160
-322.085	-200.000	-0.022	-0.113
-321.070	86.237	0.130	0.141
-320.056	501.777	0.161	0.365
-319.041	-162.967	0.260	-0.012
-318.026	-36.328	0.165	0.087
-317.012	-164.057	-0.430	0.020
-315.997	-200.000	-0.021	0.260
-314.983	-200.000	0.019	-0.193
-313.968	800.000	0.038	-0.141
-312.953	-122.699	-0.206	-0.033
-311.939	-4.713	-0.060	0.041
-310.924	-200.000	-0.064	0.297
-309.910	83.511	-0.163	0.175
-308.895	-166.066	-0.327	0.014
-307.880	17.044	0.298	0.232
-306.866	-90.365	0.168	-0.048
-305.851	-174.188	-0.181	0.005
-304.837	800.000	0.064	0.188
-303.822	384.895	0.016	-0.033
-302.807	-200.000	0.015	-0.141
-301.793	-6.609	0.285	0.191
-300.778	180.095	0.184	0.265
-299.764	-158.530	-0.152	-0.009
-298.749	10.573	0.117	-0.087
-297.735	590.776	-0.080	0.195
-296.720	800.000	0.050	-0.198
-295.705	58.140	0.134	0.129
-294.691	-200.000	0.106	0.515
-293.676	-111.653	0.185	0.037
-292.662	-97.520	-0.217	0.055
-291.647	256.961	0.089	0.151
-290.632	-123.044	-0.103	0.016
-289.618	-155.784	-0.118	0.007
-288.603	106.528	0.106	0.124
-287.589	102.288	0.006	-0.007
-286.574	257.165	-0.050	0.085
-285.559	-113.813	-0.224	-0.043
-284.545	16.909	-0.203	-0.158
-283.530	-19.326	-0.027	0.017
-282.516	-23.092	0.047	-0.028
-281.501	84.199	0.172	0.185
-280.486	800.000	-0.104	-0.294
-279.472	-200.000	-0.001	-0.252
-278.457	-109.642	-0.260	0.054
-277.443	-164.274	0.128	0.006
-276.428	-5.723	-0.086	0.058
-275.413	-137.777	0.120	-0.013
-274.399	41.686	-0.311	-0.277
-273.384	-200.000	-0.062	-0.396
-272.370	529.098	-0.049	-0.115
-271.355	55.531	-0.206	-0.196
-270.340	19.420	0.097	0.076
-269.326	-200.000	0.006	0.093
-268.311	-163.318	0.335	0.016
-267.297	3.870	0.235	-0.169
-266.282	-200.000	0.053	0.303
-265.267	-200.000	0.014	0.088
-264.253	588.317	0.084	0.204
-263.238	-20.019	-0.034	0.021
-262.224	-200.000	0.025	0.134
-261.209	294.869	-0.109	-0.196
-260.195	-29.838	0.109	-0.061
-259.180	-200.000	0.006	0.046
-258.165	-200.000	0.027	-0.149
-257.151	-73.447	0.149	0.053
-256.136	800.000	0.084	-0.298
-255.122	-16.318	0.164	0.102
-254.107	52.410	0.166	0.156
-253.092	-102.773	-0.230	-0.054
-252.078	-161.750	0.272	-0.014
-251.063	-78.712	-0.154	-0.052
-250.049	-102.646	-0.065	-0.015
-249.034	-184.762	0.199	0.003
-248.019	84.473	-0.100	0.108
-247.005	-25.090	-0.068	0.040
-245.990	800.000	0.114	-0.311
-244.976	-200.000	-0.004	0.137
-243.961	-200.000	0.048	0.216
-242.946	800.000	-0.118	0.332
-241.932	449.626	-0.068	0.148
-240.917	-62.382	-0.043	-0.018
-239.903	44.422	0.291	-0.263
-238.888	217.985	0.110	-0.172
-237.873	795.067	0.127	-0.344
-236.859	800.000	0.069	0.240
-235.844	200.070	-0.169	-0.254
-234.830	800.000	-0.092	-0.330
-233.815	66.436	-0.127	-0.127
-232.800	-69.730	0.216	-0.081
-231.786	-200.000	-0.008	-0.052
-230.771	800.000	-0.031	0.124
-229.757	57.590	0.036	-0.035
-228.742	800.000	-0.128	-0.430
-227.727	152.241	0.136	-0.182
-226.713	-35.711	0.051	-0.027
-225.698	20.447	-0.116	-0.092
-224.684	-17.740	-0.186	-0.114
-223.669	800.000	0.037	0.122
-222.655	23.556	0.083	0.067
-221.640	104.285	-0.066	-0.077
-220.625	-33.499	-0.154	0.083
-219.611	-200.000	-0.028	-0.200
-218.596	-31.602	0.216	0.119
-217.582	393.194	0.087	-0.177
-216.567	-101.780	0.331	0.079
-215.552	68.068	0.189	0.190
-214.538	-200.000	-0.022	0.118
-213.523	157.031	-0.088	-0.120
-212.509	472.099	0.062	-0.137
-211.494	-200.000	0.045	0.543
-210.479	-149.763	0.185	0.014
-209.465	112.469	0.382	-0.453
-208.450	-173.234	-0.104	0.003
-207.436	83.446	-0.169	0.181
-206.421	-200.000	-0.009	0.144
-205.406	-162.893	-0.106	0.005
-204.392	-61.382	-0.184	-0.076
-203.377	-200.000	0.007	0.077
-202.363	-29.629	0.347	-0.194
-201.348	152.972	0.145	-0.194
-200.333	208.328	-0.084	0.128
-199.319	131.769	0.094	0.119
-198.304	31.335	-0.341	-0.287
-197.290	144.662	-0.140	-0.184
-196.275	-80.260	0.130	-0.042
-195.260	216.066	0.096	0.150
-194.246	-147.262	0.331	0.028
-193.231	-30.057	-0.087	0.049
-192.217	-94.880	0.188	0.050
-191.202	53.921	0.047	0.045
-190.187	34.267	0.076	0.065
-189.173	52.721	-0.327	-0.306
-188.158	77.757	0.265	-0.276
-187.144	28.030	0.182	-0.150
-186.129	-16.436	0.482	-0.300
-185.114	-94.980	-0.226	-0.060
-184.100	189.883	-0.039	-0.057
-183.085	-200.000	0.059	0.411
-182.071	-103.155	-0.103	0.024
-181.056	328.748	0.041	-0.077
-180.042	-23.224	0.278	0.164
-179.027	-105.830	-0.297	-0.066
-178.012	68.526	-0.148	-0.149
-176.998	460.561	-0.019	0.041
-175.983	250.573	-0.140	0.232
-174.969	-23.752	0.376	-0.221
-173.954	185.007	0.173	-0.252
-172.939	-137.297	-0.309	0.034
-171.925	-200.000	0.046	-0.324
-170.910	336.546	-0.094	-0.179
-169.896	-200.000	-0.034	-0.218
-168.881	800.000	-0.020	0.065
-167.866	380.979	0.254	-0.510
-166.852	0.390	0.264	-0.185
-165.837	130.253	-0.224	-0.281
-164.823	515.348	0.019	-0.043
-163.808	159.372	-0.075	-0.103
-162.793	15.627	-0.229	0.176
-161.779	-200.000	-0.047	-0.341
-160.764	5.392	0.282	-0.204
-159.750	84.057	-0.224	-0.239
-158.735	-200.000	0.026	-0.269
-157.720	17.004	-0.043	-0.033
-156.706	44.227	0.363	0.326
-155.691	-52.084	-0.080	-0.037
-154.677	-71.948	-0.218	0.079
-153.662	-200.000	0.000	-0.061
-152.647	-126.274	-0.087	0.013
-151.633	-200.000	0.030	-0.238
-150.618	-142.247	0.079	0.008
-149.604	308.846	-0.139	-0.254
-148.589	205.323	0.196	0.298
-147.574	36.672	-0.148	-0.128
-146.560	-107.281	0.206	0.044
-145.545	212.178	-0.186	0.287
-144.531	101.565	0.042	0.048
-143.516	-62.228	0.288	0.117
-142.502	-50.245	0.270	0.125
-141.487	800.000	0.073	-0.258
-140.472	687.801	-0.031	0.079
-139.458	-121.180	-0.093	0.015
-138.443	77.543	0.158	-0.165
-137.429	-200.000	0.000	0.110
-136.414	56.202	0.150	0.143
-135.399	-200.000	-0.051	0.269
-134.385	47.226	-0.394	0.358
-133.370	-9.843	0.206	0.134
-132.356	105.419	-0.119	-0.137
-131.341	-81.374	0.198	-0.064
-130.326	-200.000	-0.023	0.245
-129.312	-173.904	0.252	0.007
-128.297	-200.000	-0.027	0.139
-127.283	793.898	0.058	0.155
-126.268	800.000	-0.004	0.014
-125.253	-85.381	-0.278	0.085
-124.239	84.179	0.200	-0.213
-123.224	520.804	0.034	0.077
-122.210	-69.424	-0.127	0.048
-121.195	536.951	0.131	-0.305
-120.180	86.910	0.109	0.118
-119.166	800.000	0.089	-0.300
-118.151	51.746	-0.085	0.079
-117.137	800.000	0.086	-0.314
-116.122	-200.000	0.018	0.182
-115.107	-200.000	-0.020	0.225
-114.093	21.585	0.234	0.186
-113.078	-110.907	0.321	-0.065
-112.064	-200.000	-0.004	0.169
-111.049	-200.000	0.012	0.080
-110.034	-19.689	0.288	-0.174
-109.020	-200.000	-0.002	-0.083
-108.005	150.813	-0.094	-0.125
-106.991	-98.192	0.302	0.076
-105.976	47.785	-0.324	-0.296
-104.962	214.704	0.142	-0.220
-103.947	-200.000	0.076	0.411
-102.932	-86.095	-0.242	-0.073
-101.918	27.751	-0.100	-0.083
-100.903	800.000	-0.010	0.035
-99.889	-75.799	0.076	0.026
-98.874	-78.032	0.576	0.194
-97.859	800.000	-0.069	-0.219
-96.845	-11.947	0.393	0.251
-95.830	241.912	-0.118	0.192
-94.816	-79.258	0.264	-0.087
-93.801	-179.039	0.184	0.004
-92.786	-60.824	-0.026	-0.011
-91.772	-41.030	-0.229	-0.115
-90.757	391.335	0.071	0.143
-89.743	-125.983	0.137	-0.020
-88.728	-31.331	0.420	-0.231
-87.713	-200.000	-0.058	-0.425
-86.699	-200.000	0.039	0.172
-85.684	11.732	0.167	0.125
-84.670	-81.602	0.110	0.035
-83.655	-124.104	-0.247	0.038
-82.640	-57.144	-0.178	-0.076
-81.626	439.814	-0.061	0.130
-80.611	56.111	0.187	-0.177
-79.597	0.703	0.205	0.143
-78.582	60.064	-0.076	0.074
-77.567	-122.516	0.250	-0.040
-76.553	-77.247	0.407	0.138
-75.538	291.072	-0.022	0.039
-74.524	18.060	0.092	0.071
-73.509	203.164	-0.196	0.295
-72.494	-52.937	0.155	-0.070
-71.480	-200.000	0.030	0.140
-70.465	-200.000	0.053	0.237
-69.451	181.376	0.123	0.176
-68.436	634.687	-0.116	-0.286
-67.422	56.539	0.229	0.217
-66.407	-54.796	0.350	-0.154
-65.392	59.528	0.124	-0.119
-64.378	36.201	0.270	-0.232
-63.363	-200.000	0.038	0.253
-62.349	800.000	0.081	0.258
-61.334	26.559	-1.206	-0.985
-60.319	144.632	0.555	0.723
-59.305	-200.000	-0.103	-0.961
-58.290	137.419	1.152	1.470
-57.276	744.125	0.624	1.638
-56.261	-200.000	122.655	625.103
-55.246	384.573	1581.022	3177.198
-54.232	138.402	2761.010	3533.213
-53.217	89.498	2327.637	2531.551
-52.203	33.562	1928.166	1633.887
-51.188	27.593	1719.198	1410.720
-50.173	25.369	1678.322	1360.295
-49.159	45.308	1743.490	1568.054
-48.144	43.684	1756.784	1567.382
-47.130	27.129	1708.940	1398.510
-46.115	24.606	1693.906	1366.875
-45.100	24.375	1688.647	1360.814
-44.086	24.363	1686.162	1358.670
-43.071	24.267	1683.750	1355.944
-42.057	24.294	1681.158	1354.006
-41.042	24.458	1678.591	1353.131
-40.027	24.378	1677.237	1351.377
-39.013	24.378	1675.334	1349.787
-37.998	24.305	1673.870	1348.004
-36.984	24.467	1672.075	1347.729
-35.969	24.479	1670.924	1346.836
-34.954	24.487	1669.214	1345.466
-33.940	24.588	1667.523	1344.812
-32.925	24.539	1665.748	1342.958
-31.911	24.539	1663.982	1341.480
-30.896	24.476	1662.428	1339.703
-29.881	24.515	1661.313	1339.040
-28.867	24.540	1659.327	1337.573
-27.852	24.497	1657.908	1336.053
-26.838	24.413	1657.003	1334.649
-25.823	24.576	1655.316	1334.451
-24.809	24.618	1653.775	1333.469
-23.794	24.571	1652.106	1331.719
-22.779	24.608	1650.553	1330.694
-21.765	24.570	1648.882	1329.007
-20.750	24.535	1647.831	1327.850
-19.736	24.561	1646.565	1326.970
-18.721	24.667	1644.944	1326.395
-17.706	24.606	1643.435	1324.678
-16.692	24.577	1641.969	1323.224
-15.677	24.514	1640.418	1321.455
-14.663	24.553	1639.413	1320.886
-13.648	24.591	1637.484	1319.559
-12.633	24.551	1636.194	1318.175
-11.619	24.556	1634.337	1316.659
-10.604	24.708	1632.570	1316.302
-9.590	24.599	1631.949	1314.950
-8.575	24.562	1630.515	1313.468
-7.560	24.485	1629.322	1311.889
-6.546	24.519	1628.362	1311.313
-5.531	24.549	1627.438	1310.741
-4.517	24.531	1626.149	1309.517
-3.502	24.586	1624.635	1308.646
-2.487	24.694	1623.140	1308.182
-1.473	24.360	1611.432	1296.271
-0.458	21.742	1591.929	1261.705
0.556	17.124	1594.673	1231.473
1.571	14.818	1618.961	1233.126
2.586	14.588	1630.817	1240.335
3.600	13.586	1576.583	1191.780
4.615	7.675	1467.266	1069.375
5.629	1.920	1406.756	987.970
6.644	0.698	1399.530	974.928
7.659	0.764	1398.480	974.540
8.673	0.723	1397.530	973.529
9.688	0.705	1395.330	971.793
10.702	0.487	1392.168	968.103
11.717	3.390	1396.021	989.357
12.731	10.264	1406.447	1040.990
13.746	15.538	1414.343	1080.765
14.761	17.013	1415.471	1091.022
15.775	16.567	1413.984	1086.911
16.790	15.609	1411.241	1078.559
17.804	14.836	1408.804	1071.651
18.819	14.513	1407.415	1068.431
19.834	14.271	1406.123	1065.802
20.848	14.022	1404.355	1062.776
21.863	13.693	1403.660	1060.053
22.877	13.556	1402.615	1058.297
23.892	13.512	1401.188	1056.843
24.907	13.530	1400.320	1056.210
25.921	13.458	1399.246	1054.851
26.936	13.515	1398.510	1054.566
27.950	13.597	1397.740	1054.415
28.965	13.637	1396.586	1053.702
29.980	13.778	1395.387	1053.601
30.994	13.762	1394.380	1052.645
32.009	13.703	1393.758	1051.711
33.023	13.599	1393.037	1050.410
34.038	13.629	1391.128	1049.071
35.053	13.660	1390.446	1048.659
36.067	13.649	1389.181	1047.543
37.082	13.594	1388.099	1046.285
38.096	13.689	1387.153	1046.078
39.111	13.628	1386.158	1044.850
40.126	13.629	1385.583	1044.335
41.140	13.510	1384.792	1042.894
42.155	13.537	1384.674	1042.883
43.169	13.549	1384.023	1042.380
44.184	13.355	1384.020	1041.064
45.199	13.473	1383.652	1041.437
46.213	13.573	1382.697	1041.251
47.228	13.506	1381.936	1040.164
48.242	13.496	1380.970	1039.285
49.257	13.609	1378.806	1038.273
50.271	13.556	1377.145	1036.600
51.286	13.588	1375.755	1035.663
52.301	13.545	1374.844	1034.617
53.315	13.509	1374.232	1033.836
54.330	13.544	1373.080	1033.098
55.344	13.478	1371.803	1031.633
56.359	13.529	1370.388	1030.794
57.374	13.516	1369.550	1029.992
58.388	13.454	1368.751	1028.918
59.403	13.521	1368.277	1028.887
60.417	13.438	1367.835	1027.946
61.432	13.341	1366.969	1026.603
62.447	13.463	1365.342	1026.045
63.461	13.430	1364.017	1024.756
64.476	13.387	1363.362	1023.904
65.490	13.397	1362.274	1023.060
66.505	13.455	1360.549	1022.032
67.520	13.481	1359.385	1021.228
68.534	13.492	1358.443	1020.496
69.549	13.422	1357.353	1019.156
70.563	13.393	1356.343	1018.133
71.578	13.448	1354.733	1017.168
72.593	13.396	1353.911	1016.141
73.607	13.319	1353.612	1015.358
74.622	13.362	1352.396	1014.618
75.636	13.386	1351.885	1014.291
76.651	13.369	1351.311	1013.671
77.666	13.459	1350.174	1013.276
78.680	13.324	1349.961	1012.198
79.695	13.431	1348.953	1012.012
80.709	13.295	1348.447	1010.709
81.724	13.381	1347.914	1010.746
82.739	13.438	1346.195	1009.715
83.753	13.458	1345.533	1009.249
84.768	13.525	1344.274	1008.627
85.782	13.568	1343.178	1007.978
86.797	13.566	1342.252	1007.180
87.812	13.529	1340.546	1005.583
88.826	13.498	1339.183	1004.285
89.841	13.543	1338.319	1003.820
90.855	13.568	1337.113	1002.982
91.870	13.580	1336.219	1002.296
92.884	13.645	1335.321	1001.926
93.899	13.607	1334.857	1001.258
94.914	13.658	1333.856	1000.723
95.928	13.734	1332.911	1000.386
96.943	13.582	1331.868	998.600
97.957	13.587	1330.621	997.606
98.972	13.733	1329.754	997.749
99.987	13.576	1328.696	995.921
101.001	13.656	1327.426	995.361
102.016	13.677	1326.477	994.686
103.030	13.655	1325.955	994.074
104.045	13.689	1324.537	993.130
105.060	13.559	1323.530	991.508
106.074	13.656	1321.803	990.706
107.089	13.592	1320.562	989.308
108.103	13.436	1319.966	987.839
109.118	13.493	1318.379	986.906
110.133	13.461	1317.139	985.700
111.147	13.569	1315.486	985.017
112.162	13.480	1314.309	983.522
113.176	13.553	1312.992	982.883
114.191	13.571	1312.251	982.347
115.206	13.557	1310.896	981.160
116.220	13.516	1309.674	979.921
117.235	13.521	1308.699	979.128
118.249	13.498	1307.817	978.249
119.264	13.615	1306.148	977.603
120.279	13.437	1305.474	975.963
121.293	13.471	1305.034	975.747
122.308	13.522	1303.599	974.892
123.322	13.473	1302.789	973.910
124.337	13.514	1301.866	973.376
125.352	13.518	1300.357	972.185
126.366	13.497	1298.993	970.958
127.381	13.556	1297.965	970.445
128.395	13.478	1296.806	969.035
129.410	13.613	1295.484	968.750
130.424	13.513	1295.219	967.886
131.439	13.654	1293.948	967.671
132.454	13.633	1293.264	966.954
133.468	13.496	1292.346	965.380
134.483	13.583	1291.199	964.945
135.497	13.574	1290.179	964.046
136.512	13.583	1288.635	962.861
137.527	13.556	1287.592	961.837
138.541	13.659	1285.721	960.952
139.556	13.524	1284.865	959.447
140.570	13.648	1283.547	959.092
141.585	13.827	1282.116	958.975
142.600	13.644	1281.273	957.202
143.614	13.742	1280.423	957.046
144.629	13.773	1278.943	956.037
145.643	13.795	1278.271	955.577
146.658	13.750	1276.874	954.191
147.673	13.741	1275.403	952.954
148.687	13.689	1274.490	951.887
149.702	13.569	1273.238	950.182
150.716	13.557	1271.908	949.035
151.731	13.632	1270.410	948.261
152.746	13.663	1269.274	947.509
153.760	13.681	1268.163	946.697
154.775	13.745	1267.043	946.145
155.789	13.742	1265.649	945.004
156.804	13.835	1264.774	944.794
157.819	13.824	1263.494	943.692
158.833	13.827	1263.030	943.281
159.848	13.819	1262.016	942.394
160.862	13.837	1260.504	941.285
161.877	13.802	1259.410	940.183
162.892	13.699	1258.321	938.703
163.906	13.819	1257.292	938.535
164.921	13.789	1256.317	937.551
165.935	13.880	1255.171	937.130
166.950	13.804	1254.534	936.139
167.964	13.878	1253.792	935.921
168.979	13.830	1253.338	935.228
169.994	13.893	1252.536	934.901
171.008	13.905	1251.375	934.020
172.023	13.957	1250.390	933.492
173.037	13.982	1249.696	933.032
174.052	13.962	1249.163	932.440
175.067	13.878	1247.991	931.012
176.081	13.891	1247.009	930.273
177.096	13.979	1245.641	929.659
178.110	13.929	1244.829	928.694
179.125	13.985	1243.584	927.992
180.140	14.017	1242.327	927.156
181.154	13.940	1241.158	925.769
182.169	14.117	1239.703	925.590
183.183	13.895	1239.401	924.048
184.198	14.133	1237.337	923.747
185.213	14.091	1236.349	922.694
186.227	14.069	1235.583	921.919
187.242	14.165	1234.151	921.303
188.256	14.114	1233.548	920.486
189.271	14.066	1232.721	919.524
190.286	14.053	1231.420	918.396
191.300	13.981	1230.888	917.521
192.315	13.890	1230.423	916.595
193.329	14.049	1229.601	916.775
194.344	14.051	1229.095	916.330
195.359	14.182	1228.007	916.158
196.373	14.203	1227.884	916.102
197.388	14.080	1227.703	915.209
198.402	14.257	1226.693	915.349
199.417	14.198	1226.213	914.582
200.432	14.301	1225.090	914.230
201.446	14.284	1224.258	913.435
202.461	14.408	1223.069	913.147
203.475	14.294	1222.334	911.894
204.490	14.433	1221.108	911.661
205.504	14.446	1219.885	910.734
206.519	14.341	1219.021	909.438
207.534	14.368	1217.430	908.317
208.548	14.263	1216.964	907.314
209.563	14.326	1216.130	906.958
210.577	14.388	1214.967	906.347
211.592	14.462	1214.027	905.967
212.607	14.351	1213.935	905.214
213.621	14.489	1212.348	904.704
214.636	14.412	1211.349	903.460
215.650	14.517	1210.241	903.120
216.665	14.511	1209.160	902.204
217.680	14.616	1208.194	901.970
218.694	14.573	1207.970	901.491
219.709	14.490	1207.167	900.360
220.723	14.572	1206.422	900.170
221.738	14.640	1205.095	899.464
222.753	14.640	1204.522	898.959
223.767	14.623	1203.914	898.333
224.782	14.633	1203.205	897.781
225.796	14.769	1202.599	897.977
226.811	14.781	1201.809	897.375
227.826	14.704	1201.320	896.514
228.840	14.744	1200.075	895.722
229.855	14.720	1199.697	895.234
230.869	14.795	1198.423	894.602
231.884	14.681	1198.093	893.665
232.899	14.706	1197.026	892.928
233.913	14.741	1196.413	892.578
234.928	14.758	1195.628	892.005
235.942	14.691	1194.996	891.098
236.957	14.621	1194.019	889.913
237.972	14.726	1193.222	889.802
238.986	14.841	1192.169	889.548
240.001	14.716	1191.811	888.537
241.015	14.734	1190.562	887.627
242.030	14.773	1189.699	887.112
243.045	14.865	1189.089	887.063
244.059	14.716	1188.813	885.989
245.074	14.861	1187.389	885.619
246.088	14.851	1186.771	885.028
247.103	14.963	1185.856	884.857
248.117	14.836	1185.426	883.790
249.132	15.072	1184.372	884.172
250.147	15.012	1183.726	883.293
251.161	15.144	1182.641	883.103
252.176	15.032	1182.599	882.400
253.190	15.114	1181.488	881.924
254.205	15.055	1181.383	881.460
255.220	15.212	1180.425	881.489
256.234	15.235	1179.820	881.081
257.249	15.220	1178.928	880.261
258.263	15.201	1178.635	879.866
259.278	15.171	1177.852	879.043
260.293	15.310	1177.137	879.163
261.307	15.266	1176.685	878.517
262.322	15.271	1175.697	877.728
263.336	15.334	1175.198	877.604
264.351	15.227	1174.850	876.708
265.366	15.346	1173.913	876.556
266.380	15.430	1173.097	876.305
267.395	15.285	1172.518	875.039
268.409	15.407	1171.828	875.083
269.424	15.309	1171.336	874.125
270.439	15.377	1170.500	873.779
271.453	15.435	1169.551	873.296
272.468	15.376	1168.651	872.242
273.482	15.400	1168.092	871.869
274.497	15.397	1167.582	871.398
275.512	15.395	1166.952	870.840
276.526	15.451	1165.822	870.209
277.541	15.462	1164.968	869.550
278.555	15.405	1164.771	869.030
279.570	15.549	1163.635	868.851
280.585	15.589	1163.117	868.594
281.599	15.615	1161.813	867.681
282.614	15.514	1160.943	866.431
283.628	15.563	1159.836	865.782
284.643	15.706	1158.811	865.678
285.657	15.644	1158.034	864.701
286.672	15.567	1157.300	863.681
287.687	15.623	1156.258	863.116
288.701	15.597	1155.615	862.424
289.716	15.612	1155.022	861.980
290.730	15.619	1154.170	861.307
291.745	15.649	1153.351	860.775
292.760	15.790	1152.839	861.034
293.774	15.860	1152.037	860.716
294.789	15.716	1151.927	859.826
295.803	15.793	1150.795	859.298
296.818	15.716	1150.235	858.407
297.833	15.761	1149.662	858.133
298.847	15.758	1148.850	857.437
299.862	15.727	1147.732	856.367
300.876	15.865	1147.065	856.498
301.891	15.894	1146.520	856.162
302.906	15.868	1145.577	855.252
303.920	15.902	1144.987	854.907
304.935	15.946	1144.242	854.499
305.949	15.945	1143.510	853.869
306.964	16.083	1142.652	853.853
307.979	16.032	1142.165	853.158
308.993	15.990	1141.331	852.246
310.008	15.994	1140.481	851.556
311.022	16.084	1139.451	851.164
312.037	16.044	1138.821	850.417
313.052	16.040	1137.954	849.675
314.066	15.918	1137.209	848.430
315.081	15.969	1136.467	848.058
316.095	15.965	1135.431	847.187
317.110	15.955	1134.846	846.628
318.125	16.060	1134.088	846.514
319.139	16.049	1133.171	845.699
320.154	16.014	1132.714	845.110
321.168	15.998	1132.135	844.523
322.183	16.074	1131.396	844.275
323.197	16.098	1130.990	844.015
324.212	16.094	1130.309	843.417
325.227	16.102	1129.455	842.745
326.241	16.099	1128.977	842.298
327.256	16.139	1127.659	841.438
328.270	16.114	1127.104	840.824
329.285	16.197	1126.057	840.384
330.300	16.107	1125.392	839.365
331.314	16.204	1124.368	839.007
332.329	16.188	1122.843	837.716
333.343	16.294	1122.375	837.818
334.358	16.346	1120.950	836.942
335.373	16.207	1120.769	836.043
336.387	16.257	1120.106	835.721
337.402	16.261	1119.577	835.270
338.416	16.298	1118.687	834.720
339.431	16.353	1118.280	834.613
340.446	16.370	1117.403	833.969
341.460	16.331	1116.554	833.067
342.475	16.502	1115.431	832.998
343.489	16.453	1114.825	832.229
344.504	16.445	1114.040	831.531
345.519	16.489	1113.258	831.091
346.533	16.474	1112.480	830.362
347.548	16.551	1111.599	830.011
348.562	16.582	1110.582	829.330
349.577	16.568	1110.199	828.899
350.592	16.517	1109.290	827.898
351.606	16.491	1108.530	827.130
352.621	16.531	1108.010	826.868
353.635	16.467	1107.479	826.082
354.650	16.523	1106.624	825.645
355.665	16.501	1105.792	824.845
356.679	16.560	1105.155	824.582
357.694	16.480	1104.504	823.635
358.708	16.648	1103.949	823.969
359.723	16.614	1103.307	823.252
360.738	16.613	1102.673	822.698
361.752	16.732	1102.000	822.701
362.767	16.739	1101.330	822.165
363.781	16.688	1100.895	821.519
364.796	16.684	1100.100	820.835
365.810	16.695	1099.692	820.511
366.825	16.719	1098.632	819.764
367.840	16.845	1098.442	820.159
368.854	16.901	1097.427	819.600
369.869	16.932	1096.882	819.269
370.883	16.817	1096.500	818.354
371.898	16.855	1095.532	817.741
372.913	16.894	1094.864	817.361
373.927	16.883	1094.416	816.899
374.942	16.901	1093.968	816.579
375.956	16.909	1093.346	816.082
376.971	16.988	1092.809	815.991
377.986	16.920	1092.069	815.038
379.000	17.010	1091.900	815.271
380.015	17.063	1091.354	815.044
381.029	17.171	1090.326	814.726
382.044	17.092	1089.575	813.712
383.059	17.131	1088.752	813.212
384.073	17.190	1087.990	812.856
385.088	17.127	1087.239	811.922
386.102	17.180	1085.976	811.158
387.117	17.235	1085.122	810.712
388.132	17.155	1084.311	809.653
389.146	17.075	1083.591	808.660
390.161	17.159	1082.721	808.341
391.175	17.209	1082.084	808.034
392.190	17.134	1081.795	807.387
393.205	17.211	1080.430	806.664
394.219	17.221	1079.914	806.253
395.234	17.247	1078.705	805.403
396.248	17.266	1077.578	804.578
397.263	17.218	1076.631	803.577
398.278	17.295	1076.273	803.601
399.292	17.218	1075.806	802.817
400.307	17.233	1074.801	802.067
401.321	17.156	1074.601	801.481
402.336	17.179	1073.832	800.945
403.350	17.244	1072.787	800.404
404.365	17.299	1072.287	800.217
405.380	17.409	1071.454	800.045
406.394	17.351	1071.162	799.482
407.409	17.464	1070.052	799.111
408.423	17.474	1069.131	798.401
409.438	17.450	1068.631	797.847
410.453	17.594	1067.642	797.711
411.467	17.585	1066.914	797.051
412.482	17.657	1066.325	796.880
413.496	17.582	1065.589	795.908
414.511	17.506	1065.188	795.183
415.526	17.517	1065.136	795.124
416.540	17.653	1064.154	794.958
417.555	17.651	1063.524	794.406
418.569	17.662	1063.154	794.112
419.584	17.680	1062.746	793.819
420.599	17.660	1061.778	792.934
421.613	107.558	1329.964	1485.907
422.628	99.332	1369.005	1485.998
