DTS Sentinel unit serial number:	SN413079Multiplexer serial number:	ORYXHardware model number:	OX4-SRSoftware version number:	ORYX F/W v4.00 Oryx Data Collector v3.7.2.0data status	okinstallation	princeton_trtdifferential loss correction	single-endedforward channel	channel 2reverse channel	N/Adate	2019/09/12time	18:27:49forward acquisition time	15.00reverse acquisition time	0.00gamma	496.2192k internal	0.2324k external	0.2324temperature offset calibration	1.0125default loss term (dB/km)	0.3790temperature slope calibration	1.0000multiplexer offset coefficient	1.0000multiplexer slope coefficient	1.0000fibre end	0.00T internal ref (°C)	33.31T ext. ref 1 (°C)	2.93T ext. ref 2 (°C)	27.90length (m)	temperature (°C)	Stokes	anti-Stokes-747.200	-145.312	-0.767	-0.070
-746.185	-200.000	0.025	0.319
-745.171	-40.250	0.394	0.207
-744.156	20.896	0.376	-0.308
-743.142	-100.625	0.741	0.185
-742.127	177.069	-0.040	-0.059
-741.112	-4.197	-0.058	-0.040
-740.098	481.019	-0.139	0.317
-739.083	203.166	0.320	0.499
-738.069	-33.523	0.495	0.276
-737.054	540.202	-0.334	-0.802
-736.039	-200.000	0.000	0.644
-735.025	-79.271	0.583	-0.199
-734.010	65.981	-0.359	-0.367
-732.996	-97.147	0.506	-0.134
-731.981	-104.107	-0.220	-0.052
-730.966	-71.363	0.449	-0.170
-729.952	119.969	0.707	-0.884
-728.937	-200.000	-0.012	0.466
-727.923	-67.293	0.271	0.107
-726.908	11.933	0.065	-0.051
-725.894	567.946	0.139	-0.341
-724.879	-15.088	-0.560	0.362
-723.864	40.150	0.352	-0.319
-722.850	679.399	0.363	-0.953
-721.835	-13.468	-0.640	0.419
-720.821	69.689	0.302	-0.314
-719.806	483.531	0.094	0.216
-718.791	-163.899	-0.473	-0.022
-717.777	36.925	-0.969	-0.864
-716.762	518.796	-0.270	-0.638
-715.748	-200.000	0.026	0.310
-714.733	65.545	-0.761	0.777
-713.718	800.000	0.252	-0.872
-712.704	-80.410	1.138	-0.383
-711.689	-20.678	0.269	0.166
-710.675	-74.442	0.235	0.086
-709.660	256.008	-0.310	-0.537
-708.645	800.000	-0.221	0.631
-707.631	-65.234	-0.477	-0.194
-706.616	-66.399	0.469	-0.188
-705.602	800.000	0.225	0.728
-704.587	-200.000	-0.058	-0.340
-703.572	-200.000	-0.007	0.419
-702.558	509.525	-0.151	-0.354
-701.543	169.919	-0.393	0.566
-700.529	-200.000	0.066	-0.545
-699.514	-117.918	-0.524	-0.095
-698.499	-3.148	0.539	-0.378
-697.485	-141.608	0.607	-0.062
-696.470	-0.561	-0.624	0.446
-695.456	-129.048	0.711	0.100
-694.441	-200.000	-0.038	0.370
-693.426	404.556	0.260	0.551
-692.412	-15.322	-0.526	-0.339
-691.397	-200.000	-0.023	0.366
-690.383	-200.000	0.102	0.517
-689.368	-200.000	0.024	0.344
-688.354	-116.015	0.347	0.065
-687.339	-130.955	-0.271	-0.037
-686.324	800.000	-0.018	0.079
-685.310	-200.000	0.013	0.079
-684.295	800.000	0.035	0.134
-683.281	800.000	0.267	0.863
-682.266	162.603	0.061	-0.086
-681.251	518.151	-0.046	-0.109
-680.237	4.865	-0.286	0.211
-679.222	-132.313	-0.468	0.061
-678.208	-174.595	-1.119	0.032
-677.193	-111.669	0.469	0.096
-676.178	-39.649	-0.438	0.231
-675.164	43.675	0.358	-0.330
-674.149	179.163	-0.058	-0.085
-673.135	-200.000	0.447	-0.000
-672.120	36.692	0.261	-0.232
-671.105	-200.000	0.008	-0.725
-670.091	405.881	0.197	0.418
-669.076	-103.022	-0.962	-0.230
-668.062	446.072	-0.179	-0.397
-667.047	15.028	-0.457	0.360
-666.032	800.000	0.166	0.543
-665.018	-200.000	-0.131	0.618
-664.003	123.948	-0.537	0.679
-662.989	-125.116	-0.049	-0.008
-661.974	-53.328	-0.500	-0.231
-660.959	-200.000	0.121	1.244
-659.945	65.849	0.601	-0.613
-658.930	344.045	0.086	-0.169
-657.916	-18.796	-0.065	0.041
-656.901	-121.139	-0.371	-0.063
-655.886	-200.000	-0.078	-0.902
-654.872	8.249	-0.169	-0.127
-653.857	800.000	0.127	-0.535
-652.843	112.248	-0.281	0.341
-651.828	-200.000	-0.055	-0.768
-650.814	103.915	0.152	-0.180
-649.799	-129.191	-0.612	0.086
-648.784	151.842	0.495	0.678
-647.770	17.358	-0.726	0.580
-646.755	-23.361	0.086	-0.052
-645.741	-181.237	-0.079	-0.002
-644.726	349.987	-0.281	-0.559
-643.711	-147.495	-0.273	0.023
-642.697	9.659	0.428	0.326
-641.682	800.000	-0.101	0.327
-640.668	64.772	0.395	-0.401
-639.653	-16.418	-0.354	0.225
-638.638	33.411	0.282	0.246
-637.624	-42.937	0.777	0.396
-636.609	34.921	-0.488	-0.430
-635.595	-150.690	-0.430	0.033
-634.580	-200.000	0.047	0.328
-633.565	102.834	0.705	-0.829
-632.551	19.429	-0.704	-0.568
-631.536	-71.299	-0.600	-0.226
-630.522	-85.576	-0.946	-0.296
-629.507	548.725	-0.154	0.371
-628.492	136.204	0.359	-0.470
-627.478	-32.225	-0.154	-0.086
-626.463	89.177	0.155	0.173
-625.449	-157.035	0.143	0.009
-624.434	642.391	0.136	0.349
-623.419	-43.268	0.298	-0.151
-622.405	760.737	0.278	-0.757
-621.390	-51.362	1.113	-0.523
-620.376	85.128	-0.261	0.287
-619.361	146.244	-0.137	-0.185
-618.346	151.362	-0.147	-0.201
-617.332	506.820	-0.193	-0.449
-616.317	143.528	-0.416	0.556
-615.303	12.228	0.894	0.691
-614.288	-17.092	-0.166	0.105
-613.273	-200.000	-0.102	-0.463
-612.259	-82.386	-0.227	0.074
-611.244	-63.907	0.723	-0.297
-610.230	1.617	-0.417	-0.301
-609.215	-80.246	0.772	0.259
-608.201	482.508	-0.086	-0.196
-607.186	-174.525	0.639	-0.018
-606.171	800.000	0.068	0.271
-605.157	-200.000	-0.011	-0.285
-604.142	1.585	-0.281	-0.203
-603.128	-200.000	-0.057	0.570
-602.113	155.150	-0.367	-0.507
-601.098	-200.000	0.044	0.265
-600.084	-79.401	0.463	-0.157
-599.069	-200.000	0.087	-0.592
-598.055	21.429	0.719	-0.587
-597.040	800.000	0.058	-0.196
-596.025	-118.182	0.614	0.110
-595.011	-57.175	-0.654	-0.289
-593.996	-200.000	-0.050	0.697
-592.982	322.069	-0.554	1.058
-591.967	-44.465	-0.626	-0.314
-590.952	231.582	-0.393	0.646
-589.938	-143.151	-0.260	-0.025
-588.923	63.567	-0.276	-0.278
-587.909	-200.000	-0.107	0.480
-586.894	-200.000	0.038	0.287
-585.879	120.216	0.686	-0.854
-584.865	53.988	-0.226	-0.218
-583.850	20.903	-0.492	-0.400
-582.836	-82.579	0.440	0.143
-581.821	800.000	0.192	0.654
-580.806	-162.502	0.688	0.034
-579.792	800.000	-0.036	0.129
-578.777	203.206	-0.250	0.388
-577.763	324.018	-0.310	-0.594
-576.748	103.759	-0.265	-0.313
-575.733	-49.745	-0.573	-0.273
-574.719	470.414	-0.225	0.507
-573.704	254.374	0.439	0.752
-572.690	-200.000	-0.104	-0.641
-571.675	-108.593	-0.829	0.178
-570.661	34.808	0.309	0.271
-569.646	-101.316	-0.276	-0.067
-568.631	-44.494	-0.632	-0.317
-567.617	112.687	0.318	-0.386
-566.602	24.559	0.255	0.211
-565.588	135.583	0.193	0.252
-564.573	322.498	-0.111	0.212
-563.558	-135.036	-0.604	-0.073
-562.544	-118.316	-0.278	0.050
-561.529	-108.778	0.462	0.099
-560.515	104.234	-0.142	-0.168
-559.500	-200.000	-0.078	0.344
-558.485	255.284	0.453	0.778
-557.471	128.244	-0.297	0.378
-556.456	295.449	-0.389	0.714
-555.442	-200.000	-0.016	0.464
-554.427	-200.000	0.113	-0.785
-553.412	-123.381	0.203	0.032
-552.398	-84.958	-0.383	0.120
-551.383	-101.747	-0.305	-0.074
-550.369	25.183	-0.092	-0.077
-549.354	-114.207	0.368	-0.071
-548.339	-173.024	-0.794	0.025
-547.325	100.224	0.512	-0.595
-546.310	-200.000	0.061	0.371
-545.296	54.204	-0.072	-0.069
-544.281	110.526	-0.224	0.269
-543.266	648.337	-0.086	-0.219
-542.252	-73.616	0.333	-0.122
-541.237	-200.000	0.046	0.521
-540.223	800.000	0.190	-0.578
-539.208	139.197	-0.408	-0.538
-538.193	-61.316	-0.508	-0.214
-537.179	34.114	0.348	0.304
-536.164	-76.686	0.335	-0.117
-535.150	-138.493	0.918	-0.101
-534.135	-200.000	0.106	0.650
-533.121	-126.494	-0.921	-0.137
-532.106	-109.149	-0.180	-0.038
-531.091	190.164	-0.274	-0.412
-530.077	-10.949	0.888	0.587
-529.062	14.196	-0.521	0.406
-528.048	59.959	0.209	-0.207
-527.033	53.300	0.546	0.524
-526.018	-107.687	-0.872	-0.191
-525.004	157.171	-0.497	0.688
-523.989	-93.831	-1.237	0.341
-522.975	-20.510	0.732	0.450
-521.960	145.649	-0.293	-0.393
-520.945	-95.824	-0.514	0.137
-519.931	592.437	0.247	-0.611
-518.916	-27.369	-0.417	-0.243
-517.902	240.173	-0.161	-0.268
-516.887	179.515	0.258	-0.378
-515.872	800.000	0.068	0.262
-514.858	-42.248	-0.147	-0.075
-513.843	-200.000	0.192	-0.920
-512.829	538.944	-0.266	0.632
-511.814	396.581	0.202	0.422
-510.799	-134.996	-0.283	-0.034
-509.785	175.384	0.290	0.420
-508.770	-118.599	-0.702	0.124
-507.756	800.000	0.083	0.338
-506.741	-93.598	0.305	0.084
-505.726	217.167	0.127	0.202
-504.712	255.157	0.632	1.082
-503.697	412.205	0.083	0.177
-502.683	-68.057	-0.656	0.256
-501.668	60.188	-0.630	0.623
-500.653	-103.253	-0.448	-0.106
-499.639	578.026	-0.140	-0.342
-498.624	-73.855	-0.379	0.138
-497.610	107.109	0.393	-0.467
-496.595	800.000	-0.098	-0.282
-495.581	221.373	-0.426	0.685
-494.566	-74.079	0.575	-0.208
-493.551	-89.253	-0.836	0.246
-492.537	-62.010	-0.349	-0.146
-491.522	-200.000	-0.019	-0.381
-490.508	-90.876	0.877	-0.252
-489.493	-106.846	-0.574	-0.127
-488.478	127.657	0.404	0.513
-487.464	254.053	0.311	-0.531
-486.449	237.751	0.206	-0.341
-485.435	-200.000	0.020	-0.348
-484.420	-42.227	0.346	-0.176
-483.405	157.699	0.390	0.540
-482.391	-137.302	-1.155	-0.131
-481.376	-86.315	-1.141	-0.351
-480.362	20.598	0.277	0.224
-479.347	169.175	0.217	-0.309
-478.332	703.774	-0.156	-0.410
-477.318	-44.840	0.284	-0.141
-476.303	-154.470	-0.267	-0.018
-475.289	-134.522	-0.591	0.072
-474.274	3.152	-0.144	0.105
-473.259	291.137	-0.120	0.218
-472.245	-200.000	-0.125	-0.661
-471.230	-18.004	0.872	-0.546
-470.216	105.055	-0.275	0.325
-469.201	492.944	0.196	0.449
-468.186	147.575	-0.350	-0.471
-467.172	-200.000	-0.051	0.849
-466.157	13.092	0.585	0.452
-465.143	-71.732	-0.676	-0.252
-464.128	139.856	0.058	-0.076
-463.113	150.535	0.113	0.153
-462.099	-21.034	-0.176	-0.108
-461.084	-131.419	0.559	0.074
-460.070	67.060	-0.050	0.051
-459.055	-200.000	0.177	-0.798
-458.040	-96.465	-0.542	-0.143
-457.026	-88.956	-0.851	0.252
-456.011	-7.999	0.337	0.227
-454.997	80.147	-0.524	-0.562
-453.982	-200.000	-0.064	-0.334
-452.968	-15.024	0.514	-0.329
-451.953	374.381	0.354	0.719
-450.938	-119.409	0.405	0.070
-449.924	451.928	0.238	0.524
-448.909	-30.289	0.756	-0.428
-447.895	584.084	0.426	-1.044
-446.880	6.617	-0.256	-0.190
-445.865	-200.000	-0.029	0.286
-444.851	237.481	-0.011	0.018
-443.836	16.042	-0.439	0.345
-442.822	83.797	0.256	0.278
-441.807	-181.676	-0.580	0.011
-440.792	-67.675	0.497	-0.194
-439.778	283.177	-0.229	-0.409
-438.763	117.031	0.638	0.781
-437.749	212.490	0.455	0.716
-436.734	-163.627	0.411	-0.019
-435.719	-98.489	-0.805	0.205
-434.705	800.000	0.230	0.685
-433.690	-65.708	-0.296	-0.118
-432.676	131.325	-0.217	-0.278
-431.661	424.929	-0.106	-0.227
-430.646	-200.000	0.090	-0.745
-429.632	625.327	-0.143	0.359
-428.617	-51.348	0.408	0.190
-427.603	-95.343	0.614	0.164
-426.588	-200.000	0.030	0.133
-425.573	-200.000	0.010	0.053
-424.559	-16.814	0.188	0.118
-423.544	-121.499	0.609	0.101
-422.530	-83.603	-0.797	0.254
-421.515	-200.000	-0.115	0.565
-420.500	-116.618	0.236	0.043
-419.486	155.402	-0.272	0.374
-418.471	800.000	0.052	-0.220
-417.457	78.343	0.258	0.275
-416.442	-90.288	0.254	-0.074
-415.428	29.558	-0.099	0.084
-414.413	-200.000	0.063	-0.440
-413.398	-159.438	0.185	0.010
-412.384	23.612	0.442	0.362
-411.369	-117.329	0.427	0.077
-410.355	800.000	-0.185	0.583
-409.340	546.808	-0.110	-0.261
-408.325	-21.331	-0.341	0.207
-407.311	77.426	0.335	-0.355
-406.296	-140.600	0.579	-0.060
-405.282	316.010	0.330	-0.620
-404.267	13.335	-0.228	-0.176
-403.252	-167.801	-0.847	-0.033
-402.238	-147.336	0.632	0.053
-401.223	-58.277	-0.557	-0.241
-400.209	245.456	-0.094	-0.158
-399.194	-96.257	-0.418	-0.110
-398.179	-62.747	-0.333	-0.137
-397.165	-12.635	0.363	0.236
-396.150	800.000	0.225	0.646
-395.136	-15.308	0.483	-0.308
-394.121	-37.601	-0.810	-0.430
-393.106	66.785	0.160	-0.162
-392.092	800.000	-0.094	0.271
-391.077	-200.000	0.044	0.233
-390.063	-58.976	0.164	0.071
-389.048	-200.000	0.294	0.000
-388.033	-24.938	0.445	-0.263
-387.019	-154.100	-0.571	-0.039
-386.004	183.572	-0.320	-0.470
-384.990	-5.663	0.338	0.231
-383.975	-99.357	0.862	-0.216
-382.960	-200.000	-0.017	0.677
-381.946	-104.098	0.130	0.030
-380.931	-200.000	-0.106	-0.623
-379.917	6.410	0.246	-0.182
-378.902	-110.688	0.423	-0.087
-377.888	-200.000	-0.250	1.541
-376.873	-32.816	0.837	0.463
-375.858	-200.000	-0.120	0.934
-374.844	-28.365	-0.620	-0.356
-373.829	-200.000	-0.002	-0.267
-372.815	-44.258	0.454	-0.227
-371.800	-200.000	0.007	-0.497
-370.785	226.548	-0.188	-0.303
-369.771	241.458	-0.301	-0.501
-368.756	800.000	0.204	-0.749
-367.742	229.893	-0.315	-0.513
-366.727	429.138	-0.193	0.416
-365.712	370.189	0.133	0.269
-364.698	53.792	0.046	0.044
-363.683	-33.102	0.599	-0.330
-362.669	-53.839	0.219	-0.099
-361.654	-170.940	-1.303	0.044
-360.639	-65.603	-1.019	0.407
-359.625	13.545	0.752	0.581
-358.610	-76.521	-0.602	-0.210
-357.596	-200.000	-0.004	-0.442
-356.581	91.815	0.658	-0.736
-355.566	-200.000	0.250	1.203
-354.552	-94.236	-0.583	-0.158
-353.537	273.673	0.303	0.532
-352.523	-199.219	-0.997	-0.005
-351.508	-200.000	-0.206	-1.094
-350.493	19.085	0.324	0.258
-349.479	-200.000	0.132	-0.612
-348.464	-59.471	-0.722	0.308
-347.450	207.486	-0.411	-0.637
-346.435	55.523	-0.336	0.323
-345.420	12.245	0.246	0.188
-344.406	-7.665	0.368	0.247
-343.391	-132.280	-0.589	-0.076
-342.377	-51.485	0.388	0.180
-341.362	-140.419	-1.060	0.110
-340.348	23.953	-0.405	-0.332
-339.333	-56.890	0.539	-0.237
-338.318	-125.124	0.052	-0.008
-337.304	-36.946	0.645	0.343
-336.289	-70.317	0.879	0.331
-335.275	-63.094	-0.877	0.360
-334.260	-173.548	0.773	0.023
-333.245	-38.447	-0.050	0.026
-332.231	233.860	-0.262	0.429
-331.216	382.513	0.225	-0.459
-330.202	-60.463	0.332	-0.140
-329.187	-46.738	0.325	0.158
-328.172	4.331	-0.475	0.346
-327.158	800.000	-0.099	-0.319
-326.143	267.393	0.621	-1.079
-325.129	-200.000	-0.043	0.286
-324.114	-12.083	0.233	-0.151
-323.099	-67.290	0.684	-0.267
-322.085	239.175	0.379	-0.627
-321.070	61.234	0.135	0.133
-320.056	-68.530	-0.846	0.326
-319.041	-40.009	0.289	0.150
-318.026	-200.000	0.099	0.530
-317.012	283.374	-0.117	-0.209
-315.997	800.000	0.352	-0.991
-314.983	-200.000	0.064	0.769
-313.968	-200.000	0.121	-0.788
-312.953	-67.311	0.675	-0.264
-311.939	800.000	-0.249	0.729
-310.924	-86.900	0.406	0.123
-309.910	107.106	0.472	0.556
-308.895	-75.923	-0.979	0.344
-307.880	-167.963	0.854	0.033
-306.866	-200.000	-0.010	-0.172
-305.851	-200.000	-0.136	-0.627
-304.837	-28.924	-0.750	-0.427
-303.822	-124.554	0.507	-0.078
-302.807	141.736	0.150	-0.197
-301.793	78.325	0.474	0.502
-300.778	633.578	-0.272	0.685
-299.764	-15.078	-0.467	0.297
-298.749	-121.372	-0.306	0.051
-297.735	-200.000	0.132	0.781
-296.720	-66.055	0.306	0.121
-295.705	-200.000	-0.062	-0.487
-294.691	674.492	0.314	-0.808
-293.676	800.000	-0.063	0.181
-292.662	-119.187	-0.461	-0.080
-291.647	-102.808	-0.956	-0.226
-290.632	-46.615	0.952	0.463
-289.618	267.717	-0.229	-0.397
-288.603	-200.000	0.027	-1.028
-287.589	332.600	-0.186	0.356
-286.574	149.396	0.146	-0.196
-285.559	-200.000	0.005	-0.175
-284.545	429.091	0.388	-0.831
-283.530	593.699	-0.379	0.929
-282.516	176.932	0.092	-0.133
-281.501	506.600	0.245	-0.562
-280.486	-24.148	-0.660	-0.391
-279.472	6.988	-0.190	-0.140
-278.457	-200.000	0.023	0.177
-277.443	495.397	0.440	-1.002
-276.428	-200.000	-0.062	0.293
-275.413	-189.717	-0.289	-0.003
-274.399	-108.536	-1.165	-0.248
-273.384	800.000	-0.225	-0.758
-272.370	-200.000	0.246	1.202
-271.355	656.689	-0.165	-0.419
-270.340	39.301	-0.573	0.508
-269.326	-200.000	0.058	-0.416
-268.311	357.899	0.151	-0.299
-267.297	-72.638	-0.453	-0.166
-266.282	63.851	0.346	0.344
-265.267	-98.938	0.255	0.064
-264.253	13.411	0.255	0.196
-263.238	8.827	0.493	-0.368
-262.224	156.494	-0.159	-0.218
-261.209	-158.725	-0.205	-0.012
-260.195	-134.775	1.437	-0.173
-259.180	573.170	0.032	0.077
-258.165	-115.021	0.224	0.042
-257.151	-20.751	0.398	0.242
-256.136	436.745	0.184	-0.398
-255.122	800.000	-0.170	-0.489
-254.107	-200.000	-0.014	-0.323
-253.092	394.623	0.087	-0.180
-252.078	-194.866	-0.781	0.006
-251.063	-144.506	0.140	0.013
-250.049	-67.248	-0.168	0.065
-249.034	136.985	-0.478	0.618
-248.019	490.864	-0.218	0.494
-247.005	151.888	-0.221	0.298
-245.990	262.709	0.162	-0.278
-244.976	431.191	-0.311	0.668
-243.961	28.997	0.540	0.453
-242.946	-148.868	-0.477	0.038
-241.932	800.000	0.087	-0.262
-240.917	314.009	0.176	-0.327
-239.903	497.716	0.280	0.638
-238.888	-123.413	0.311	-0.049
-237.873	-129.588	0.788	0.108
-236.859	-91.283	-0.402	-0.114
-235.844	-139.135	-0.391	0.042
-234.830	34.797	0.331	0.287
-233.815	-12.312	0.368	-0.238
-232.800	40.578	-0.569	-0.507
-231.786	134.741	0.591	-0.759
-230.771	-74.270	0.793	-0.284
-229.757	800.000	0.148	0.614
-228.742	65.759	-0.482	0.484
-227.727	210.728	0.133	-0.207
-226.713	-27.159	0.336	0.194
-225.698	-140.774	0.339	-0.035
-224.684	-141.896	-0.618	0.061
-223.669	-200.000	0.053	0.273
-222.655	284.836	0.145	0.257
-221.640	87.428	-0.315	-0.345
-220.625	800.000	-0.089	-0.278
-219.611	-200.000	0.065	0.719
-218.596	-41.126	0.848	0.433
-217.582	-177.019	-1.177	0.029
-216.567	-200.000	-0.019	-0.236
-215.552	-132.097	-0.582	-0.075
-214.538	-137.368	0.394	0.044
-213.523	248.982	0.031	0.052
-212.509	35.035	-0.287	0.248
-211.494	155.975	0.507	-0.691
-210.479	-113.175	0.505	0.098
-209.465	-135.457	-0.114	-0.013
-208.450	129.749	-0.438	-0.553
-207.436	245.977	-0.687	-1.144
-206.421	-170.566	0.076	0.003
-205.406	800.000	0.203	0.621
-204.392	-176.145	-0.254	-0.007
-203.377	71.981	0.349	-0.359
-202.363	21.683	0.724	-0.583
-201.348	103.525	-0.234	0.271
-200.333	-142.469	-0.628	0.061
-199.319	574.974	-0.102	0.246
-198.304	-200.000	0.015	-0.460
-197.290	175.813	-0.466	-0.667
-196.275	-99.672	1.112	-0.276
-195.260	-66.170	0.519	0.204
-194.246	12.358	0.269	0.205
-193.231	465.140	-0.278	-0.614
-192.217	-200.000	0.055	0.536
-191.202	-33.725	-0.181	-0.099
-190.187	800.000	-0.121	0.469
-189.173	-200.000	0.096	0.518
-188.158	-157.104	1.313	-0.079
-187.144	-70.014	0.288	0.108
-186.129	159.189	-0.167	-0.230
-185.114	204.584	0.433	-0.663
-184.100	142.704	0.379	0.498
-183.085	-30.003	0.580	0.326
-182.071	50.230	0.206	0.192
-181.056	-69.603	-0.751	-0.284
-180.042	74.809	-0.270	-0.281
-179.027	-121.887	-0.162	0.026
-178.012	314.975	0.313	-0.582
-176.998	-174.910	-0.374	-0.010
-175.983	274.804	-0.263	0.460
-174.969	-49.362	0.588	0.277
-173.954	-200.000	-0.054	-0.265
-172.939	77.072	-0.436	0.457
-171.925	137.638	0.561	0.726
-170.910	-112.806	0.742	0.145
-169.896	-200.000	-0.029	-0.400
-168.881	491.074	-0.420	-0.948
-167.866	418.645	-0.257	-0.543
-166.852	36.939	-0.443	0.387
-165.837	-200.000	-0.124	0.699
-164.823	800.000	-0.143	-0.495
-163.808	-100.418	0.433	0.106
-162.793	800.000	-0.069	0.275
-161.779	800.000	-0.212	0.856
-160.764	-3.257	-0.036	0.025
-159.750	-110.285	0.129	0.027
-158.735	-107.816	0.339	0.073
-157.720	-128.655	0.552	0.077
-156.706	86.121	0.286	0.311
-155.691	800.000	0.192	-0.814
-154.677	-50.634	-0.360	-0.167
-153.662	3.116	0.501	0.360
-152.647	-186.654	-0.871	-0.012
-151.633	-200.000	-0.130	0.603
-150.618	-7.662	-1.028	-0.686
-149.604	-188.573	-0.523	0.006
-148.589	-132.672	-0.435	-0.055
-147.574	-58.581	-0.907	0.388
-146.560	-135.772	-0.297	-0.035
-145.545	-18.071	-0.713	-0.440
-144.531	208.302	-0.245	-0.378
-143.516	-147.516	0.158	-0.013
-142.502	-41.928	-0.949	-0.480
-141.487	-77.985	-0.770	-0.262
-140.472	-200.000	0.099	0.538
-139.458	-200.000	0.039	0.306
-138.443	-66.057	-0.159	-0.063
-137.429	555.352	0.088	-0.209
-136.414	1.740	-0.360	0.256
-135.399	-200.000	0.082	-0.998
-134.385	-146.406	-0.493	0.042
-133.370	-39.698	-0.285	0.147
-132.356	92.710	-0.661	-0.735
-131.341	103.546	-0.243	0.281
-130.326	0.245	-0.365	-0.257
-129.312	245.088	0.241	-0.400
-128.297	-200.000	0.030	0.461
-127.283	-60.704	0.316	-0.132
-126.268	-132.069	0.234	-0.030
-125.253	221.410	0.100	0.159
-124.239	-62.695	0.206	0.084
-123.224	800.000	0.179	0.663
-122.210	-154.722	0.476	-0.031
-121.195	113.497	-0.272	0.325
-120.180	394.958	-0.125	0.257
-119.166	122.010	-0.161	0.198
-118.151	-3.347	0.352	0.242
-117.137	-62.568	0.708	0.289
-116.122	292.376	-0.282	0.507
-115.107	800.000	-0.194	-0.708
-114.093	-74.522	-0.815	0.289
-113.078	-200.000	-0.022	0.742
-112.064	-155.681	0.044	0.003
-111.049	-200.000	-0.143	0.750
-110.034	69.589	-0.510	-0.517
-109.020	311.259	0.214	-0.395
-108.005	-21.224	-0.535	-0.322
-106.991	-73.490	0.140	-0.050
-105.976	800.000	0.307	-0.960
-104.962	108.123	0.158	-0.186
-103.947	-96.813	-0.504	0.130
-102.932	-200.000	0.120	1.031
-101.918	151.447	-0.334	-0.448
-100.903	285.451	0.118	-0.210
-99.889	343.904	0.563	-1.087
-98.874	-78.068	1.070	-0.363
-97.859	148.464	0.222	-0.295
-96.845	800.000	0.248	0.697
-95.830	800.000	-0.205	-0.687
-94.816	-200.000	0.107	0.509
-93.801	-92.968	0.452	0.124
-92.786	-56.665	-0.166	0.072
-91.772	67.529	-0.436	-0.438
-90.757	181.514	0.367	0.531
-89.743	4.830	1.111	-0.804
-88.728	-200.000	0.120	-0.548
-87.713	-55.394	0.190	0.084
-86.699	-5.804	-0.513	-0.346
-85.684	-134.765	-0.149	-0.018
-84.670	-200.000	0.133	-0.829
-83.655	-104.124	0.788	0.180
-82.640	-99.889	0.963	0.237
-81.626	-37.908	-0.613	-0.321
-80.611	-2.488	0.249	-0.172
-79.597	155.426	0.897	-1.215
-78.582	39.601	0.763	-0.673
-77.567	-176.044	-0.432	-0.011
-76.553	-31.117	-0.703	-0.390
-75.538	-135.042	0.485	0.057
-74.524	-95.607	0.375	0.099
-73.509	695.196	-0.145	0.375
-72.494	-75.315	0.548	0.192
-71.480	70.657	-0.335	0.341
-70.465	246.455	-0.209	0.346
-69.451	-24.907	0.696	-0.406
-68.436	194.490	-0.349	-0.520
-67.422	-113.055	0.165	-0.032
-66.407	-199.695	0.388	0.002
-65.392	-200.000	0.101	1.082
-64.378	-132.567	-0.293	-0.037
-63.363	-45.281	-0.444	0.216
-62.349	-200.000	-0.157	0.821
-61.334	752.287	-0.717	-1.902
-60.319	-84.517	0.259	-0.080
-59.305	-200.000	-0.342	-2.011
-58.290	800.000	0.309	0.996
-57.276	658.246	0.572	1.446
-56.261	-200.000	96.283	573.219
-55.246	649.978	1368.866	3442.794
-54.232	200.044	2544.600	3838.629
-53.217	112.754	2256.950	2685.629
-52.203	42.734	1884.605	1686.319
-51.188	36.650	1677.674	1455.500
-50.173	33.808	1633.407	1396.181
-49.159	52.357	1681.968	1576.362
-48.144	53.012	1698.206	1596.396
-47.130	36.058	1658.414	1434.159
-46.115	33.410	1644.624	1402.601
-45.100	33.210	1638.356	1395.720
-44.086	33.222	1635.746	1393.535
-43.071	33.081	1633.336	1390.386
-42.057	33.095	1631.241	1388.648
-41.042	33.031	1629.864	1386.950
-40.027	33.034	1627.101	1384.569
-39.013	33.153	1625.024	1383.615
-37.998	33.458	1622.928	1384.009
-36.984	33.296	1622.323	1382.251
-35.969	33.390	1620.463	1381.298
-34.954	33.192	1619.907	1379.328
-33.940	33.278	1617.109	1377.515
-32.925	33.224	1615.556	1375.743
-31.911	33.424	1612.907	1374.886
-30.896	33.183	1613.068	1373.218
-29.881	32.986	1612.501	1371.250
-28.867	33.121	1609.789	1369.870
-27.852	33.579	1606.029	1369.928
-26.838	33.216	1605.723	1366.984
-25.823	33.229	1604.366	1365.870
-24.809	33.360	1603.477	1366.008
-23.794	33.386	1602.114	1364.981
-22.779	33.451	1600.782	1364.260
-21.765	33.323	1599.113	1361.859
-20.750	33.300	1596.896	1359.751
-19.736	33.350	1595.181	1358.595
-18.721	33.206	1594.957	1357.320
-17.706	33.383	1592.118	1356.115
-16.692	33.317	1591.328	1354.918
-15.677	33.372	1589.407	1353.624
-14.663	33.421	1588.146	1352.845
-13.648	33.155	1587.506	1350.344
-12.633	33.358	1584.605	1349.271
-11.619	33.359	1583.558	1348.334
-10.604	33.607	1581.778	1348.531
-9.590	33.466	1580.908	1346.728
-8.575	33.316	1579.773	1344.649
-7.560	33.212	1579.288	1343.441
-6.546	33.278	1578.107	1342.852
-5.531	33.518	1575.611	1342.372
-4.517	33.313	1574.434	1339.865
-3.502	33.294	1575.024	1340.182
-2.487	33.442	1572.482	1339.010
-1.473	33.074	1561.109	1326.689
-0.458	30.301	1542.187	1291.296
0.556	27.473	1541.548	1257.299
1.571	24.941	1563.816	1257.591
2.586	24.276	1576.607	1263.055
3.600	21.624	1523.459	1202.192
4.615	12.635	1413.511	1057.809
5.629	4.427	1349.134	959.019
6.644	2.767	1341.388	943.227
7.659	3.090	1339.186	943.579
8.673	3.002	1337.997	942.122
9.688	2.861	1336.152	939.875
10.702	2.695	1333.634	937.006
11.717	6.106	1340.663	962.786
12.731	15.764	1358.299	1035.056
13.746	23.551	1370.332	1092.273
14.761	25.443	1372.727	1105.745
15.775	25.567	1374.037	1107.468
16.790	25.969	1371.310	1107.637
17.804	26.043	1371.734	1108.339
18.819	26.219	1371.759	1109.342
19.834	26.229	1371.082	1108.760
20.848	26.091	1369.689	1106.689
21.863	25.986	1370.159	1106.324
22.877	26.286	1368.524	1106.746
23.892	26.411	1367.008	1106.187
24.907	26.253	1366.096	1104.383
25.921	26.155	1365.982	1103.592
26.936	26.304	1365.429	1103.957
27.950	26.235	1364.450	1102.649
28.965	26.285	1362.593	1101.354
29.980	26.418	1361.635	1101.295
30.994	26.545	1359.403	1100.165
32.009	26.229	1360.439	1098.984
33.023	26.371	1357.400	1097.290
34.038	26.418	1357.433	1097.504
35.053	26.286	1356.515	1095.868
36.067	26.275	1355.825	1095.149
37.082	26.312	1355.440	1094.959
38.096	26.243	1353.536	1092.912
39.111	26.346	1353.759	1093.619
40.126	26.353	1352.642	1092.657
41.140	26.236	1351.308	1090.782
42.155	25.991	1352.781	1090.388
43.169	26.199	1351.552	1090.557
44.184	26.307	1350.948	1090.625
45.199	26.299	1351.332	1090.795
46.213	26.428	1350.870	1091.103
47.228	26.351	1350.362	1090.130
48.242	26.310	1348.168	1088.013
49.257	26.149	1347.342	1086.285
50.271	26.246	1345.976	1085.669
51.286	26.333	1344.838	1085.179
52.301	26.235	1342.890	1082.922
53.315	26.410	1341.584	1082.823
54.330	26.223	1342.109	1082.030
55.344	26.464	1340.767	1082.292
56.359	26.388	1339.550	1080.761
57.374	26.446	1338.185	1079.909
58.388	26.180	1339.065	1078.934
59.403	26.293	1338.445	1079.013
60.417	26.216	1336.369	1076.787
61.432	26.260	1336.318	1076.912
62.447	26.532	1335.445	1077.737
63.461	26.659	1333.268	1076.638
64.476	26.627	1331.937	1075.275
65.490	26.432	1332.652	1074.602
66.505	26.546	1329.654	1072.761
67.520	26.305	1330.185	1071.669
68.534	26.441	1328.572	1071.079
69.549	26.410	1327.651	1070.061
70.563	26.523	1326.800	1069.947
71.578	26.625	1325.405	1069.332
72.593	26.476	1325.048	1068.069
73.607	26.411	1324.838	1067.420
74.622	26.722	1323.665	1068.212
75.636	26.606	1322.832	1066.761
76.651	26.790	1322.263	1067.295
77.666	26.574	1322.156	1065.842
78.680	26.542	1320.708	1064.392
79.695	26.693	1320.338	1064.885
80.709	26.455	1319.629	1062.819
81.724	26.628	1319.177	1063.379
82.739	26.601	1317.580	1061.842
83.753	26.458	1317.187	1060.590
84.768	26.522	1316.514	1060.331
85.782	26.621	1314.565	1059.246
86.797	26.504	1313.972	1057.988
87.812	26.235	1313.966	1056.320
88.826	26.624	1311.839	1056.785
89.841	26.328	1310.737	1054.076
90.855	26.617	1309.106	1054.360
91.870	26.721	1309.036	1054.814
92.884	26.395	1308.761	1052.603
93.899	26.428	1308.169	1052.221
94.914	26.431	1306.921	1051.144
95.928	26.651	1306.223	1051.768
96.943	27.070	1303.400	1051.828
97.957	26.594	1304.852	1050.145
98.972	26.663	1303.134	1049.069
99.987	26.897	1302.494	1049.820
101.001	26.693	1302.213	1048.316
102.016	26.951	1300.932	1048.686
103.030	26.597	1300.710	1046.365
104.045	26.821	1299.355	1046.476
105.060	26.774	1298.665	1045.557
106.074	26.815	1298.983	1045.960
107.089	26.683	1296.779	1043.329
108.103	26.909	1295.420	1043.443
109.118	26.761	1295.089	1042.236
110.133	26.621	1293.251	1039.858
111.147	26.600	1293.101	1039.525
112.162	26.651	1291.864	1038.735
113.176	26.502	1291.306	1037.340
114.191	26.689	1290.434	1037.616
115.206	26.932	1288.984	1037.749
116.220	26.826	1287.349	1035.735
117.235	26.798	1287.163	1035.333
118.249	26.814	1286.063	1034.450
119.264	26.637	1283.859	1031.577
120.279	26.735	1284.913	1032.893
121.293	26.875	1283.488	1032.449
122.308	27.066	1283.042	1033.089
123.322	26.779	1282.379	1030.828
124.337	26.828	1281.668	1030.446
125.352	26.765	1281.127	1029.562
126.366	26.955	1279.183	1028.987
127.381	26.662	1279.210	1027.254
128.395	26.883	1278.605	1027.932
129.410	26.752	1277.402	1026.131
130.424	26.975	1276.945	1026.936
131.439	26.877	1275.420	1025.066
132.454	27.034	1274.518	1025.135
133.468	26.966	1275.333	1025.317
134.483	26.651	1274.363	1022.665
135.497	26.909	1273.179	1023.078
136.512	27.038	1271.160	1022.096
137.527	26.882	1270.940	1020.948
138.541	26.887	1269.466	1019.704
139.556	26.614	1268.939	1017.656
140.570	26.602	1268.521	1017.162
141.585	26.632	1267.011	1016.030
142.600	26.842	1265.612	1015.995
143.614	26.857	1264.774	1015.319
144.629	27.001	1263.807	1015.255
145.643	27.062	1262.779	1014.682
146.658	26.908	1262.326	1013.368
147.673	27.043	1261.262	1013.174
148.687	26.906	1260.764	1011.924
149.702	26.984	1259.030	1010.875
150.716	27.094	1257.841	1010.443
151.731	26.626	1258.249	1008.077
152.746	26.729	1256.464	1007.129
153.760	26.925	1255.205	1007.121
154.775	26.657	1255.612	1005.872
155.789	27.044	1253.635	1006.343
156.804	27.067	1252.581	1005.535
157.819	26.992	1251.941	1004.516
158.833	26.715	1251.749	1002.742
159.848	27.142	1249.665	1003.343
160.862	27.002	1249.513	1002.359
161.877	27.035	1248.588	1001.710
162.892	27.028	1247.942	1001.062
163.906	27.089	1247.007	1000.562
164.921	27.133	1246.413	1000.236
165.935	27.144	1245.432	999.421
166.950	26.993	1245.348	998.437
167.964	26.887	1245.926	998.231
168.979	27.060	1245.178	998.492
169.994	27.339	1243.428	998.532
171.008	27.146	1242.894	996.958
172.023	27.025	1242.703	996.051
173.037	26.980	1241.800	994.990
174.052	26.969	1241.301	994.446
175.067	26.816	1240.834	993.142
176.081	26.826	1238.928	991.584
177.096	26.923	1237.995	991.279
178.110	26.912	1237.847	991.014
179.125	27.318	1235.967	991.632
180.140	27.089	1235.705	990.090
181.154	26.961	1234.786	988.566
182.169	26.969	1232.344	986.571
183.183	26.922	1231.793	985.784
184.198	27.077	1231.478	986.289
185.213	26.972	1230.227	984.629
186.227	27.023	1229.389	984.149
187.242	27.359	1229.009	985.578
188.256	27.337	1228.283	984.786
189.271	27.156	1227.431	983.039
190.286	26.978	1226.083	980.908
191.300	26.997	1224.513	979.668
192.315	27.180	1225.483	981.348
193.329	27.127	1225.654	981.110
194.344	27.411	1224.763	981.843
195.359	27.129	1224.022	979.643
196.373	26.960	1223.517	978.239
197.388	27.138	1223.006	978.702
198.402	27.071	1222.687	977.999
199.417	26.879	1222.421	976.668
200.432	26.995	1222.123	976.970
201.446	27.216	1221.560	977.622
202.461	27.161	1220.485	976.379
203.475	27.048	1219.019	974.510
204.490	26.863	1218.024	972.640
205.504	26.829	1217.497	971.948
206.519	27.117	1215.820	972.067
207.534	27.025	1215.039	970.862
208.548	26.962	1214.814	970.263
209.563	27.098	1213.952	970.214
210.577	26.988	1213.081	968.844
211.592	27.058	1211.879	968.172
212.607	27.311	1211.628	969.233
213.621	27.402	1210.354	968.610
214.636	27.003	1210.805	966.765
215.650	26.877	1209.245	964.761
216.665	27.224	1207.158	964.852
217.680	27.322	1206.846	965.041
218.694	27.182	1205.942	963.489
219.709	27.053	1206.315	963.018
220.723	27.004	1205.070	961.681
221.738	27.338	1204.147	962.627
222.753	27.006	1203.651	960.389
223.767	27.232	1202.104	960.264
224.782	27.387	1202.141	961.026
225.796	27.346	1201.731	960.397
226.811	27.477	1201.074	960.473
227.826	27.504	1200.252	959.876
228.840	27.498	1199.666	959.291
229.855	27.149	1199.350	957.114
230.869	27.432	1198.774	958.061
231.884	27.130	1198.219	955.942
232.899	27.127	1198.181	955.816
233.913	27.275	1196.848	955.445
234.928	27.302	1197.087	955.694
235.942	27.562	1195.146	955.420
236.957	27.218	1195.368	953.710
237.972	27.187	1194.283	952.596
238.986	27.013	1194.857	952.058
240.001	27.459	1193.009	952.834
241.015	27.389	1193.185	952.524
242.030	27.240	1191.180	950.061
243.045	27.529	1190.878	951.248
244.059	27.667	1189.804	951.024
245.074	27.538	1190.452	950.785
246.088	27.624	1190.046	950.826
247.103	27.416	1187.980	948.008
248.117	27.755	1186.538	948.534
249.132	27.677	1186.889	948.327
250.147	27.766	1186.129	948.098
251.161	27.756	1185.450	947.421
252.176	27.760	1184.689	946.745
253.190	27.684	1184.415	946.050
254.205	27.665	1183.287	944.968
255.220	27.825	1182.965	945.456
256.234	27.914	1182.198	945.217
257.249	27.848	1181.803	944.477
258.263	27.652	1181.460	943.109
259.278	27.708	1180.240	942.341
260.293	27.821	1180.059	942.695
261.307	27.769	1179.833	942.164
262.322	27.815	1179.334	941.917
263.336	27.616	1178.503	940.146
264.351	27.783	1177.109	939.810
265.366	27.818	1176.568	939.473
266.380	27.672	1176.741	938.780
267.395	27.836	1175.903	938.869
268.409	27.670	1174.486	936.803
269.424	27.689	1174.596	936.905
270.439	27.746	1174.394	936.953
271.453	27.830	1173.388	936.501
272.468	27.723	1172.776	935.378
273.482	27.882	1171.387	935.003
274.497	27.955	1170.393	934.501
275.512	27.599	1170.978	933.062
276.526	27.575	1170.477	932.456
277.541	27.507	1169.462	931.218
278.555	27.964	1168.590	932.775
279.570	27.989	1168.246	932.547
280.585	28.001	1167.139	931.640
281.599	27.991	1166.629	931.100
282.614	27.963	1165.452	929.935
283.628	27.644	1164.988	927.861
284.643	27.798	1164.473	928.152
285.657	27.703	1163.273	926.628
286.672	27.763	1162.955	926.599
287.687	28.000	1161.092	926.236
288.701	28.046	1160.797	926.152
289.716	28.104	1158.839	924.801
290.730	28.233	1159.221	925.674
291.745	28.163	1157.866	924.159
292.760	28.093	1157.706	923.594
293.774	28.067	1157.589	923.288
294.789	28.005	1157.322	922.683
295.803	28.061	1156.650	922.348
296.818	27.967	1155.543	920.909
297.833	27.963	1155.393	920.685
298.847	27.925	1155.268	920.312
299.862	28.102	1153.337	919.586
300.876	27.812	1153.054	917.818
301.891	27.858	1153.420	918.261
302.906	28.282	1152.358	919.465
303.920	28.166	1151.946	918.471
304.935	28.420	1150.442	918.462
305.949	28.090	1150.537	916.803
306.964	28.362	1148.405	916.385
307.979	28.112	1148.170	914.865
308.993	28.087	1148.125	914.625
310.008	27.853	1146.765	912.292
311.022	28.272	1145.630	913.398
312.037	28.186	1145.530	912.808
313.052	28.287	1144.265	912.223
314.066	27.967	1143.406	909.864
315.081	27.962	1142.869	909.333
316.095	28.078	1142.084	909.206
317.110	28.165	1141.631	909.197
318.125	27.812	1141.378	907.159
319.139	28.054	1140.386	907.494
320.154	28.008	1139.894	906.790
321.168	27.872	1139.905	906.047
322.183	28.133	1138.299	905.984
323.197	27.977	1138.117	904.982
324.212	27.867	1137.905	904.193
325.227	28.113	1137.580	905.068
326.241	28.080	1136.858	904.255
327.256	27.938	1136.342	903.058
328.270	27.930	1134.213	901.250
329.285	27.851	1134.217	900.782
330.300	28.330	1133.490	902.487
331.314	27.946	1132.306	899.575
332.329	28.111	1130.770	899.084
333.343	28.126	1130.466	898.837
334.358	28.182	1130.199	898.823
335.373	28.010	1129.115	897.037
336.387	28.385	1128.595	898.379
337.402	28.378	1128.003	897.797
338.416	28.231	1126.857	896.083
339.431	28.098	1126.859	895.359
340.446	28.126	1126.955	895.491
341.460	28.287	1124.964	894.616
342.475	28.053	1125.015	893.432
343.489	28.451	1124.307	894.735
344.504	28.313	1122.696	892.703
345.519	28.276	1122.738	892.474
346.533	28.121	1122.037	891.083
347.548	28.551	1120.723	892.055
348.562	27.846	1120.292	888.202
349.577	28.228	1119.595	889.426
350.592	28.138	1118.270	887.860
351.606	28.259	1118.012	888.164
352.621	27.977	1117.969	886.686
353.635	28.084	1116.853	886.237
354.650	28.005	1116.354	885.384
355.665	28.230	1115.457	885.678
356.679	28.252	1114.720	885.123
357.694	28.016	1115.161	884.252
358.708	28.621	1113.773	885.995
359.723	28.094	1112.952	882.721
360.738	28.116	1111.777	881.820
361.752	28.292	1111.757	882.574
362.767	27.814	1111.737	880.177
363.781	27.702	1111.007	878.980
364.796	28.105	1111.134	880.945
365.810	28.377	1109.418	880.812
366.825	28.429	1108.085	879.927
367.840	28.396	1108.464	879.991
368.854	28.323	1108.374	879.493
369.869	28.366	1106.663	878.262
370.883	28.326	1106.090	877.539
371.898	28.162	1105.332	876.076
372.913	28.167	1105.026	875.780
373.927	28.029	1104.884	874.926
374.942	28.402	1104.438	876.278
375.956	28.277	1103.567	874.913
376.971	28.142	1102.718	873.519
377.986	28.448	1101.356	873.822
379.000	28.494	1101.578	874.141
380.015	28.223	1101.717	872.881
381.029	28.385	1100.829	872.874
382.044	28.372	1100.226	872.255
383.059	28.210	1099.381	870.738
384.073	28.260	1098.616	870.293
385.088	28.622	1096.679	870.397
386.102	28.320	1096.947	869.101
387.117	28.149	1095.503	867.069
388.132	27.768	1095.425	865.123
389.146	28.210	1094.888	866.719
390.161	27.966	1093.649	864.506
391.175	27.942	1092.367	863.302
392.190	28.248	1092.019	864.395
393.205	28.062	1092.136	863.536
394.219	28.487	1090.667	864.298
395.234	28.080	1090.759	862.379
396.248	28.032	1089.051	860.727
397.263	28.185	1087.791	860.374
398.278	28.157	1087.349	859.814
399.292	27.932	1087.733	858.986
400.307	28.346	1086.406	859.805
401.321	28.356	1085.304	858.906
402.336	27.916	1085.076	856.583
403.350	27.820	1084.419	855.542
404.365	28.029	1084.013	856.121
405.380	28.282	1083.260	856.635
406.394	27.920	1082.607	854.349
407.409	28.090	1082.115	854.682
408.423	28.098	1080.776	853.586
409.438	28.152	1080.474	853.522
410.453	28.331	1079.547	853.552
411.467	28.098	1079.986	852.737
412.482	27.992	1079.419	851.718
413.496	28.165	1078.316	851.579
414.511	28.360	1077.160	851.494
415.526	28.135	1076.793	850.087
416.540	28.072	1076.714	849.657
417.555	28.197	1075.721	849.378
418.569	28.123	1075.259	848.593
419.584	28.174	1075.151	848.668
420.599	28.002	1075.565	848.121
421.613	152.066	1405.328	1792.054
422.628	140.227	1453.347	1792.210
