DTS Sentinel unit serial number:	SN413079Multiplexer serial number:	ORYXHardware model number:	OX4-SRSoftware version number:	ORYX F/W v4.00 Oryx Data Collector v3.7.2.0data status	okinstallation	princeton_trtdifferential loss correction	single-endedforward channel	channel 2reverse channel	N/Adate	2019/09/11time	03:01:11forward acquisition time	60.00reverse acquisition time	0.00gamma	496.2192k internal	0.2331k external	0.2331temperature offset calibration	0.9939default loss term (dB/km)	0.3790temperature slope calibration	1.0000multiplexer offset coefficient	1.0000multiplexer slope coefficient	1.0000fibre end	0.00T internal ref (°C)	29.30T ext. ref 1 (°C)	-0.31T ext. ref 2 (°C)	23.75length (m)	temperature (°C)	Stokes	anti-Stokes-747.200	-200.000	-0.011	-0.236
-746.185	-114.723	-0.378	-0.073
-745.171	92.783	0.129	-0.147
-744.156	-200.000	-0.008	0.218
-743.142	58.593	-0.262	0.259
-742.127	-48.158	-0.104	-0.050
-741.112	-111.245	-0.174	0.036
-740.098	-108.806	-0.151	0.033
-739.083	189.476	0.246	0.371
-738.069	-97.303	0.163	0.043
-737.054	-200.000	-0.036	0.367
-736.039	-87.629	-0.401	0.122
-735.025	-200.000	-0.057	0.516
-734.010	304.329	-0.084	-0.157
-732.996	-200.000	-0.005	0.098
-731.981	2.842	-0.230	0.168
-730.966	-200.000	-0.075	0.457
-729.952	96.538	0.018	-0.021
-728.937	-200.000	-0.031	-0.184
-727.923	20.183	-0.235	-0.191
-726.908	-57.301	-0.262	-0.116
-725.894	-200.000	0.068	-0.325
-724.879	-71.008	-0.223	0.085
-723.864	123.925	-0.147	0.185
-722.850	-187.116	-0.421	-0.006
-721.835	-85.140	0.174	0.055
-720.821	-115.063	0.159	0.030
-719.806	800.000	0.140	-0.473
-718.791	197.793	-0.134	0.206
-717.777	85.817	-0.149	-0.164
-716.762	800.000	0.013	-0.046
-715.748	-90.355	-0.474	0.138
-714.733	-162.952	0.149	0.007
-713.718	95.862	-0.159	0.182
-712.704	-60.862	0.410	-0.175
-711.689	250.904	-0.147	-0.252
-710.675	233.728	0.250	0.414
-709.660	-42.361	-0.030	-0.016
-708.645	149.686	0.103	0.140
-707.631	60.041	-0.175	-0.174
-706.616	-100.511	-0.113	0.028
-705.602	800.000	-0.065	-0.272
-704.587	113.784	-0.091	-0.112
-703.572	121.593	0.170	0.212
-702.558	-107.546	-0.324	-0.071
-701.543	-22.537	0.095	-0.058
-700.529	112.152	0.088	-0.107
-699.514	-63.714	0.213	0.088
-698.499	-124.287	-0.142	-0.022
-697.485	156.522	-0.204	0.283
-696.470	51.431	-0.152	-0.145
-695.456	-110.005	0.078	-0.016
-694.441	-142.660	-0.311	-0.031
-693.426	-107.310	0.239	-0.053
-692.412	-200.000	-0.023	-0.280
-691.397	-200.000	-0.030	0.301
-690.383	-200.000	-0.255	-0.001
-689.368	-79.511	-0.377	-0.128
-688.354	-143.038	-0.188	-0.018
-687.339	-38.482	-0.100	0.053
-686.324	100.753	-0.109	-0.128
-685.310	-98.316	0.138	0.036
-684.295	-200.000	0.002	0.454
-683.281	-65.543	-0.048	-0.019
-682.266	252.924	0.045	-0.077
-681.251	-200.000	-0.004	-0.261
-680.237	515.021	-0.075	0.175
-679.222	603.823	-0.034	-0.084
-678.208	247.510	0.110	-0.186
-677.193	-65.131	0.243	0.098
-676.178	178.535	-0.066	-0.097
-675.164	38.995	-0.200	0.179
-674.149	83.744	0.139	-0.152
-673.135	66.592	0.200	0.204
-672.120	-124.500	-0.205	0.032
-671.105	471.492	0.054	0.122
-670.091	40.324	-0.090	0.081
-669.076	-142.964	-0.205	-0.020
-668.062	-145.734	-0.411	0.037
-667.047	13.381	-0.216	0.168
-666.032	-80.618	0.144	-0.048
-665.018	800.000	0.110	0.308
-664.003	259.862	-0.085	-0.148
-662.989	28.116	-0.325	-0.275
-661.974	502.648	0.076	-0.175
-660.959	800.000	0.087	-0.266
-659.945	800.000	-0.049	0.194
-658.930	-97.148	0.224	-0.059
-657.916	608.248	0.065	0.163
-656.901	-24.985	0.343	0.204
-655.886	-134.766	0.203	0.025
-654.872	-81.615	0.072	0.024
-653.857	-179.138	-0.211	0.005
-652.843	-104.087	-0.251	-0.059
-651.828	404.410	-0.177	0.373
-650.814	156.097	0.154	0.214
-649.799	800.000	0.034	0.132
-648.784	40.899	-0.288	0.261
-647.770	-200.000	-0.099	-0.638
-646.755	21.560	-0.336	-0.274
-645.741	-54.333	0.189	-0.086
-644.726	9.232	-0.239	0.181
-643.711	-132.995	-0.318	-0.041
-642.697	-200.000	0.064	-0.335
-641.682	-13.890	0.183	0.119
-640.668	-77.246	0.320	0.111
-639.653	-200.000	-0.002	-0.218
-638.638	68.678	0.117	-0.121
-637.624	-152.239	0.201	-0.015
-636.609	62.491	-0.159	0.160
-635.595	-200.000	-0.021	0.175
-634.580	-126.890	-0.100	0.015
-633.565	-200.000	-0.028	0.214
-632.551	-200.000	-0.062	-0.593
-631.536	26.988	0.151	-0.127
-630.522	391.496	0.177	-0.369
-629.507	-0.714	-0.264	0.187
-628.492	-113.450	-0.153	-0.030
-627.478	-200.000	-0.012	0.062
-626.463	-65.023	0.104	-0.042
-625.449	-200.000	0.013	0.147
-624.434	-76.989	-0.152	0.053
-623.419	800.000	0.049	-0.151
-622.405	230.275	0.047	0.078
-621.390	144.328	-0.197	-0.264
-620.376	-81.584	-0.109	0.036
-619.361	23.887	0.076	-0.063
-618.346	800.000	-0.090	-0.256
-617.332	-200.000	-0.027	-0.129
-616.317	-108.833	-0.149	-0.032
-615.303	-127.628	0.278	0.040
-614.288	-200.000	-0.572	0.001
-613.273	-200.000	-0.024	-0.137
-612.259	82.425	-0.052	0.056
-611.244	-195.023	-0.289	0.002
-610.230	-169.519	0.220	-0.008
-609.215	154.602	0.161	-0.222
-608.201	-200.000	-0.007	-0.109
-607.186	80.835	0.250	0.270
-606.171	221.591	0.149	0.240
-605.157	134.797	0.117	-0.152
-604.142	-164.000	-0.535	0.025
-603.128	-200.000	-0.005	0.344
-602.113	516.665	-0.083	0.195
-601.098	79.821	-0.201	0.217
-600.084	167.765	-0.027	0.039
-599.069	27.777	-0.336	0.284
-598.055	-59.851	-0.262	-0.112
-597.040	-45.447	-0.181	-0.090
-596.025	71.042	0.170	-0.177
-595.011	223.129	0.096	0.156
-593.996	-18.137	-0.122	0.076
-592.982	-94.118	0.143	0.039
-591.967	-144.285	-0.222	-0.021
-590.952	-200.000	0.037	0.370
-589.938	-96.147	0.161	0.043
-588.923	-200.000	-0.008	0.170
-587.909	-200.000	0.016	0.207
-586.894	-122.724	-0.423	-0.069
-585.879	800.000	-0.104	-0.434
-584.865	-37.869	0.299	0.159
-583.850	341.612	0.184	0.361
-582.836	-63.673	-0.099	0.041
-581.821	195.134	-0.086	-0.130
-580.806	-169.832	-0.519	0.019
-579.792	34.666	-0.010	0.009
-578.777	4.952	0.079	-0.058
-577.763	-200.000	0.033	-0.195
-576.748	-83.847	0.448	-0.143
-575.733	39.882	-0.313	-0.281
-574.719	-122.983	0.264	0.042
-573.704	800.000	0.048	0.205
-572.690	-35.431	0.458	-0.249
-571.675	-90.157	0.140	-0.041
-570.661	800.000	0.031	-0.099
-569.646	-145.146	0.121	-0.011
-568.631	-200.000	0.015	0.132
-567.617	800.000	-0.084	-0.237
-566.602	800.000	0.129	0.473
-565.588	-200.000	-0.013	-0.315
-564.573	-99.589	-0.093	-0.023
-563.558	6.025	0.277	-0.205
-562.544	-49.682	0.207	-0.099
-561.529	-62.029	0.067	-0.028
-560.515	367.206	0.031	-0.063
-559.500	-143.385	-0.269	-0.026
-558.485	-134.453	-0.021	-0.003
-557.471	-80.142	0.112	-0.037
-556.456	-14.072	0.094	0.061
-555.442	76.229	0.202	0.214
-554.427	800.000	-0.041	-0.154
-553.412	86.860	-0.033	-0.037
-552.398	-200.000	-0.004	-0.092
-551.383	658.154	0.061	-0.157
-550.369	153.140	0.119	0.162
-549.354	-140.204	-0.087	-0.009
-548.339	100.013	-0.037	0.043
-547.325	-106.367	0.289	0.065
-546.310	-104.623	-0.174	0.040
-545.296	-200.000	0.036	0.177
-544.281	66.537	0.170	0.173
-543.266	-106.691	0.184	0.041
-542.252	-200.000	-0.017	-0.373
-541.237	-133.427	0.325	-0.041
-540.223	-122.936	0.063	0.010
-539.208	-12.728	0.136	-0.088
-538.193	-42.543	0.261	0.133
-537.179	138.846	-0.067	0.088
-536.164	158.367	-0.024	0.034
-535.150	-100.077	-0.192	0.048
-534.135	-28.063	-0.375	-0.217
-533.121	251.213	0.150	-0.254
-532.106	-200.000	0.012	-0.117
-531.091	-200.000	-0.005	-0.198
-530.077	182.988	0.165	0.243
-529.062	235.444	-0.178	0.293
-528.048	-98.785	-0.285	0.072
-527.033	-110.006	-0.229	-0.048
-526.018	800.000	0.042	-0.174
-525.004	164.163	0.160	-0.224
-523.989	140.129	-0.246	-0.323
-522.975	-76.696	-0.159	-0.056
-521.960	-142.934	-0.109	-0.011
-520.945	153.324	-0.185	-0.252
-519.931	-54.501	0.036	0.016
-518.916	-151.851	0.029	-0.002
-517.902	-200.000	0.029	0.220
-516.887	29.655	0.238	0.202
-515.872	-120.532	-0.197	0.033
-514.858	56.734	-0.206	-0.200
-513.843	-200.000	0.070	-0.387
-512.829	-4.058	-0.223	-0.154
-511.814	87.222	-0.038	0.042
-510.799	20.938	0.381	-0.308
-509.785	-200.000	0.019	-0.213
-508.770	-200.000	-0.002	0.475
-507.756	36.532	-0.157	0.138
-506.741	-10.083	-0.379	0.251
-505.726	-105.422	0.409	0.093
-504.712	800.000	-0.077	0.256
-503.697	-200.000	-0.042	0.321
-502.683	800.000	0.100	0.373
-501.668	-75.846	0.070	-0.025
-500.653	-15.868	-0.493	-0.313
-499.639	-98.570	0.172	0.044
-498.624	32.442	0.377	0.325
-497.610	-93.711	-0.396	-0.109
-496.595	-200.000	0.044	-0.293
-495.581	-192.123	-0.278	0.003
-494.566	-200.000	0.013	0.098
-493.551	361.911	0.056	-0.112
-492.537	37.545	0.049	-0.043
-491.522	-200.000	-0.020	-0.115
-490.508	114.077	0.220	-0.266
-489.493	718.034	0.134	0.354
-488.478	-59.098	-0.103	-0.044
-487.464	745.348	-0.136	-0.363
-486.449	33.526	0.071	0.061
-485.435	-200.000	-0.019	-0.149
-484.420	5.781	0.157	0.116
-483.405	-48.567	-0.458	0.220
-482.391	-19.485	-0.153	-0.094
-481.376	6.751	0.164	0.122
-480.362	800.000	0.036	-0.118
-479.347	-26.746	-0.056	-0.033
-478.332	800.000	0.085	-0.303
-477.318	-87.752	0.332	-0.100
-476.303	204.855	0.157	0.242
-475.289	434.797	-0.162	0.351
-474.274	800.000	0.024	0.099
-473.259	24.734	0.227	-0.187
-472.245	-200.000	-0.003	0.135
-471.230	509.950	-0.088	0.204
-470.216	-135.905	-0.075	-0.009
-469.201	-148.983	-0.494	0.040
-468.186	148.238	0.132	-0.177
-467.172	117.708	0.079	-0.097
-466.157	-74.340	-0.210	-0.076
-465.143	-159.891	-0.214	0.012
-464.128	355.068	0.183	0.363
-463.113	-8.923	0.055	0.037
-462.099	-122.961	-0.151	0.024
-461.084	800.000	0.026	0.077
-460.070	-200.000	0.003	0.233
-459.055	-77.532	-0.477	-0.164
-458.040	-68.952	0.284	0.109
-457.026	-200.000	-0.015	0.089
-456.011	-200.000	-0.054	0.257
-454.997	279.208	-0.066	-0.117
-453.982	30.593	0.229	-0.195
-452.968	-70.484	0.183	-0.069
-451.953	43.991	-0.220	0.201
-450.938	-125.992	0.094	0.014
-449.924	-36.133	0.198	0.106
-448.909	135.726	-0.030	-0.039
-447.895	-11.606	-0.183	0.119
-446.880	-200.000	0.007	0.115
-445.865	-200.000	0.007	0.120
-444.851	50.036	0.192	0.180
-443.836	-200.000	0.009	-0.289
-442.822	281.388	-0.101	-0.179
-441.807	240.086	0.105	-0.174
-440.792	-50.128	-0.267	-0.126
-439.778	-87.400	0.205	-0.062
-438.763	-64.723	0.041	-0.016
-437.749	250.527	0.136	0.230
-436.734	9.745	-0.134	-0.101
-435.719	213.537	0.186	0.292
-434.705	196.786	-0.068	0.103
-433.690	-200.000	0.022	-0.125
-432.676	-19.995	0.104	-0.064
-431.661	-200.000	0.006	0.039
-430.646	29.651	0.142	0.120
-429.632	-63.162	0.045	-0.018
-428.617	-200.000	-0.001	0.144
-427.603	-200.000	0.015	-0.069
-426.588	800.000	-0.120	0.419
-425.573	-200.000	0.003	0.061
-424.559	-105.858	0.212	0.047
-423.544	-58.374	0.268	-0.116
-422.530	-156.590	-0.185	0.011
-421.515	-190.584	-0.088	-0.001
-420.500	-170.269	-0.356	-0.012
-419.486	167.050	0.066	0.093
-418.471	338.354	0.073	0.142
-417.457	-60.982	0.069	-0.029
-416.442	-22.491	-0.198	-0.119
-415.428	-200.000	0.001	-0.023
-414.413	-200.000	-0.014	0.259
-413.398	-43.683	0.082	-0.041
-412.384	-19.027	0.152	0.094
-411.369	-112.850	0.091	0.018
-410.355	43.527	-0.093	-0.085
-409.340	-58.918	-0.114	-0.049
-408.325	-200.000	-0.046	-0.264
-407.311	108.609	0.039	-0.046
-406.296	-200.000	0.086	0.375
-405.282	176.278	-0.103	0.149
-404.267	800.000	-0.129	-0.506
-403.252	19.006	0.167	-0.133
-402.238	-88.972	0.098	0.029
-401.223	140.030	0.253	0.331
-400.209	19.415	-0.160	0.128
-399.194	-160.680	-0.199	0.010
-398.179	-200.000	-0.008	-0.331
-397.165	-32.955	0.300	0.166
-396.150	-181.156	0.091	-0.002
-395.136	-58.404	0.209	-0.090
-394.121	145.615	0.208	-0.277
-393.106	800.000	-0.027	0.105
-392.092	-181.625	0.261	0.005
-391.077	103.515	-0.209	-0.243
-390.063	2.641	-0.218	-0.157
-389.048	27.575	0.095	-0.079
-388.033	-200.000	0.018	-0.345
-387.019	67.666	0.091	-0.092
-386.004	-7.400	0.299	-0.201
-384.990	-125.637	0.251	0.038
-383.975	-200.000	0.037	0.282
-382.960	64.404	0.012	0.012
-381.946	-71.760	0.381	0.141
-380.931	79.127	0.035	0.037
-379.917	-148.916	0.253	0.020
-378.902	148.619	-0.149	0.200
-377.888	387.593	0.171	0.351
-376.873	800.000	0.098	0.317
-375.858	-200.000	0.012	-0.059
-374.844	419.093	-0.104	0.221
-373.829	800.000	0.040	-0.112
-372.815	-110.086	0.211	0.044
-371.800	-83.295	-0.068	-0.022
-370.785	-160.233	-0.190	0.010
-369.771	2.269	-0.384	-0.276
-368.756	262.250	-0.118	-0.203
-367.742	-127.371	-0.302	-0.044
-366.727	-35.021	-0.111	0.060
-365.712	-38.058	0.188	-0.099
-364.698	-47.431	-0.158	0.076
-363.683	36.071	0.348	-0.304
-362.669	-136.520	-0.190	0.022
-361.654	-200.000	0.017	-0.081
-360.639	-200.000	-0.137	0.000
-359.625	350.296	-0.109	-0.214
-358.610	-95.530	0.089	0.024
-357.596	-9.198	0.336	0.223
-356.581	-48.955	-0.402	0.191
-355.566	800.000	-0.086	0.302
-354.552	16.704	0.058	0.046
-353.537	-47.328	-0.148	0.072
-352.523	-98.467	-0.134	-0.034
-351.508	-200.000	-0.055	0.256
-350.493	-200.000	0.008	0.051
-349.479	124.046	-0.138	0.172
-348.464	-162.258	0.232	-0.011
-347.450	-80.630	0.383	-0.126
-346.435	9.586	0.181	0.136
-345.420	-200.000	-0.025	0.132
-344.406	-85.765	0.340	-0.104
-343.391	-200.000	-0.010	-0.164
-342.377	573.666	-0.221	0.533
-341.362	-25.959	0.330	-0.192
-340.348	374.805	0.075	0.151
-339.333	-200.000	-0.001	0.138
-338.318	-200.000	-0.006	-0.279
-337.304	800.000	-0.070	-0.219
-336.289	116.422	-0.113	0.137
-335.275	30.037	-0.132	-0.111
-334.260	769.347	-0.076	-0.205
-333.245	-72.017	0.066	0.024
-332.231	-200.000	-0.018	-0.186
-331.216	-200.000	-0.057	-0.607
-330.202	-10.881	0.280	0.183
-329.187	-65.656	0.158	-0.063
-328.172	246.739	-0.069	-0.115
-327.158	-200.000	-0.010	0.184
-326.143	32.892	-0.401	0.344
-325.129	200.115	-0.148	-0.225
-324.114	199.259	-0.108	0.164
-323.099	48.389	0.181	0.168
-322.085	291.563	-0.251	-0.452
-321.070	-8.616	0.291	0.194
-320.056	-159.588	-0.275	0.015
-319.041	15.681	0.165	-0.129
-318.026	183.769	0.073	-0.107
-317.012	-63.287	-0.181	-0.074
-315.997	-85.761	0.362	-0.111
-314.983	137.014	-0.214	-0.277
-313.968	85.517	0.326	-0.354
-312.953	21.642	0.100	-0.081
-311.939	-110.210	-0.067	0.014
-310.924	26.070	0.117	0.097
-309.910	259.742	0.052	0.089
-308.895	320.407	0.122	0.230
-307.880	-200.000	0.022	-0.110
-306.866	800.000	-0.136	0.390
-305.851	800.000	-0.089	-0.340
-304.837	160.523	-0.184	0.253
-303.822	-82.961	0.283	-0.090
-302.807	481.387	0.062	0.139
-301.793	-136.832	0.124	-0.014
-300.778	800.000	-0.026	-0.099
-299.764	-200.000	-0.003	-0.045
-298.749	-70.242	0.253	-0.095
-297.735	-70.773	-0.227	-0.085
-296.720	331.120	-0.242	-0.461
-295.705	-66.882	0.322	0.126
-294.691	-109.848	0.213	-0.044
-293.676	-145.254	-0.237	-0.021
-292.662	-200.000	0.035	0.157
-291.647	-200.000	0.429	0.001
-290.632	-200.000	-0.026	0.127
-289.618	-200.000	0.033	0.609
-288.603	343.277	-0.140	0.272
-287.589	-34.608	-0.264	-0.143
-286.574	70.926	-0.191	0.196
-285.559	-161.261	-0.272	-0.014
-284.545	-76.076	-0.113	-0.040
-283.530	197.254	-0.244	0.368
-282.516	194.424	0.160	0.240
-281.501	-114.343	-0.101	-0.019
-280.486	119.496	0.090	0.110
-279.472	-78.134	0.061	-0.021
-278.457	-12.522	0.301	0.194
-277.443	116.500	0.148	-0.179
-276.428	-76.735	-0.060	-0.021
-275.413	175.296	0.038	-0.054
-274.399	44.157	0.054	-0.049
-273.384	-1.847	-0.404	0.281
-272.370	-136.601	-0.088	0.010
-271.355	-200.000	-0.016	-0.225
-270.340	-138.241	0.128	-0.014
-269.326	-200.000	-0.004	0.182
-268.311	800.000	-0.106	0.323
-267.297	-200.000	-0.029	-0.486
-266.282	800.000	-0.077	0.263
-265.267	-23.397	-0.080	-0.047
-264.253	-200.000	-0.349	0.001
-263.238	502.831	0.067	0.153
-262.224	-121.610	-0.281	-0.046
-261.209	-127.237	0.210	-0.030
-260.195	0.199	0.159	0.112
-259.180	-103.931	0.226	0.052
-258.165	-97.393	-0.219	0.056
-257.151	-123.336	-0.226	-0.036
-256.136	-161.074	0.388	-0.020
-255.122	190.097	0.032	-0.047
-254.107	522.584	-0.031	0.071
-253.092	-200.000	-0.006	0.310
-252.078	149.934	0.071	0.095
-251.063	144.122	-0.201	0.265
-250.049	-71.935	0.180	0.066
-249.034	241.349	-0.115	0.189
-248.019	800.000	-0.016	-0.051
-247.005	800.000	-0.020	0.080
-245.990	177.181	-0.210	0.302
-244.976	181.360	0.111	0.162
-243.961	158.124	-0.117	0.160
-242.946	800.000	-0.058	-0.191
-241.932	612.081	-0.088	0.218
-240.917	34.500	0.081	-0.070
-239.903	326.387	-0.249	-0.470
-238.888	800.000	-0.046	-0.179
-237.873	800.000	0.039	0.149
-236.859	-200.000	-0.007	-0.133
-235.844	123.972	0.115	0.143
-234.830	-84.252	-0.077	0.024
-233.815	6.553	0.243	-0.178
-232.800	442.355	0.094	0.204
-231.786	32.832	-0.081	-0.069
-230.771	-22.981	-0.041	-0.024
-229.757	239.135	0.096	0.157
-228.742	-54.888	0.247	-0.110
-227.727	-200.000	0.010	-0.257
-226.713	-18.755	0.182	0.112
-225.698	800.000	0.116	-0.373
-224.684	103.739	0.044	0.051
-223.669	-200.000	0.006	-0.206
-222.655	-69.132	-0.152	-0.058
-221.640	800.000	-0.103	-0.351
-220.625	26.285	0.033	-0.027
-219.611	-12.308	-0.157	0.101
-218.596	-21.343	-0.092	0.055
-217.582	237.094	0.182	0.297
-216.567	-10.217	-0.095	0.062
-215.552	800.000	0.134	-0.541
-214.538	-91.221	-0.191	0.054
-213.523	-131.717	-0.168	0.022
-212.509	-19.764	-0.062	-0.038
-211.494	510.599	-0.062	-0.142
-210.479	471.382	-0.107	-0.237
-209.465	3.316	0.194	0.140
-208.450	301.464	0.064	0.116
-207.436	-56.319	0.043	-0.019
-206.421	-66.122	0.279	-0.109
-205.406	-200.000	0.024	-0.220
-204.392	-38.799	0.165	0.086
-203.377	-16.386	-0.351	0.219
-202.363	176.391	0.054	-0.077
-201.348	-113.577	0.047	-0.009
-200.333	-107.083	-0.031	-0.007
-199.319	-200.000	0.021	0.254
-198.304	455.662	-0.117	-0.257
-197.290	139.178	-0.172	0.222
-196.275	238.290	0.080	0.130
-195.260	467.984	0.070	-0.156
-194.246	-200.000	-0.063	-0.290
-193.231	144.443	-0.186	-0.245
-192.217	215.582	0.076	0.119
-191.202	-200.000	-0.029	0.160
-190.187	-23.004	-0.109	0.065
-189.173	42.445	-0.074	-0.066
-188.158	-52.577	-0.311	-0.141
-187.144	234.084	0.246	-0.399
-186.129	-143.415	-0.105	0.010
-185.114	727.593	-0.088	-0.232
-184.100	-75.107	0.190	0.067
-183.085	-49.598	0.274	0.128
-182.071	101.992	-0.087	0.100
-181.056	40.719	-0.119	0.105
-180.042	-200.000	-0.009	0.077
-179.027	800.000	0.040	0.161
-178.012	-120.035	0.121	0.020
-176.998	199.953	-0.165	-0.249
-175.983	-109.959	-0.112	-0.023
-174.969	800.000	0.072	0.232
-173.954	-47.324	0.125	-0.060
-172.939	15.712	-0.204	-0.158
-171.925	800.000	0.131	-0.371
-170.910	409.177	0.038	0.079
-169.896	-24.096	-0.095	0.056
-168.881	122.061	0.205	-0.252
-167.866	132.092	0.110	0.139
-166.852	-192.990	-0.116	0.001
-165.837	29.208	0.172	-0.144
-164.823	11.477	0.114	-0.086
-163.808	120.336	-0.074	0.090
-162.793	28.193	-0.264	-0.219
-161.779	-57.233	0.191	0.083
-160.764	-176.548	0.299	-0.008
-159.750	262.164	0.078	0.132
-158.735	-11.804	-0.271	0.175
-157.720	92.109	-0.156	0.173
-156.706	-17.449	-0.163	0.101
-155.691	718.660	0.075	-0.195
-154.677	83.027	0.101	0.108
-153.662	95.828	-0.064	0.072
-152.647	-86.674	0.258	-0.078
-151.633	-103.658	0.174	0.040
-150.618	800.000	0.085	0.260
-149.604	-132.262	0.120	-0.015
-148.589	-200.000	-0.021	0.148
-147.574	-200.000	0.029	0.193
-146.560	-84.042	-0.233	-0.073
-145.545	-92.853	-0.179	-0.049
-144.531	-33.008	0.175	0.095
-143.516	337.545	-0.064	-0.123
-142.502	-200.000	0.009	0.092
-141.487	-200.000	-0.018	0.291
-140.472	75.614	0.360	0.373
-139.458	-146.066	-0.346	-0.030
-138.443	390.824	0.025	-0.051
-137.429	77.305	-0.014	0.015
-136.414	-16.007	-0.132	-0.082
-135.399	-200.000	-0.019	-0.306
-134.385	-94.303	0.130	0.035
-133.370	171.062	0.187	0.264
-132.356	-174.526	-0.532	0.015
-131.341	-105.649	-0.251	-0.056
-130.326	84.990	0.188	-0.203
-129.312	-180.961	0.058	0.001
-128.297	-150.933	0.275	0.020
-127.283	-200.000	-0.002	-0.122
-126.268	70.919	0.182	0.185
-125.253	450.502	0.112	0.243
-124.239	-200.000	0.007	0.163
-123.224	442.255	-0.098	0.211
-122.210	450.458	0.213	-0.462
-121.195	-16.265	0.196	0.122
-120.180	-85.807	0.510	-0.155
-119.166	118.946	-0.152	0.185
-118.151	106.980	0.189	0.220
-117.137	80.671	-0.090	0.095
-116.122	-27.331	0.103	-0.059
-115.107	-101.332	-0.327	0.078
-114.093	-158.420	0.099	-0.006
-113.078	-52.702	0.418	0.189
-112.064	-200.000	-0.072	-0.372
-111.049	-200.000	-0.023	0.162
-110.034	-64.851	-0.175	-0.070
-109.020	385.161	0.080	0.163
-108.005	-200.000	-0.061	0.317
-106.991	706.722	-0.079	-0.204
-105.976	90.792	-0.156	0.171
-104.962	319.877	0.179	-0.333
-103.947	-200.000	0.066	0.360
-102.932	-200.000	-0.032	0.194
-101.918	192.014	-0.041	-0.061
-100.903	73.736	-0.114	-0.117
-99.889	129.681	0.337	0.423
-98.874	19.356	0.042	-0.033
-97.859	34.259	-0.097	0.083
-96.845	520.673	0.105	0.242
-95.830	-6.026	0.196	-0.131
-94.816	-109.731	-0.302	0.062
-93.801	360.999	0.251	0.492
-92.786	-200.000	-0.015	-0.140
-91.772	-8.774	0.069	-0.045
-90.757	-200.000	0.007	0.154
-89.743	-95.399	0.123	-0.032
-88.728	-200.000	-0.041	-0.238
-87.713	-126.218	-0.225	0.033
-86.699	-70.714	0.251	0.093
-85.684	620.501	-0.176	-0.433
-84.670	204.016	0.036	0.054
-83.655	-200.000	0.005	0.027
-82.640	-177.760	-0.290	-0.007
-81.626	150.981	0.054	-0.072
-80.611	44.258	0.184	-0.166
-79.597	29.493	0.361	-0.301
-78.582	60.353	-0.055	-0.053
-77.567	670.572	0.055	-0.139
-76.553	-200.000	0.049	0.265
-75.538	800.000	0.028	-0.108
-74.524	-9.070	-0.375	-0.246
-73.509	-200.000	-0.006	-0.197
-72.494	800.000	-0.013	0.045
-71.480	61.738	0.150	-0.146
-70.465	-139.903	0.247	0.026
-69.451	341.325	-0.143	0.275
-68.436	-77.178	0.069	0.024
-67.422	-65.354	-0.068	-0.027
-66.407	139.518	-0.166	-0.214
-65.392	707.719	-0.062	0.160
-64.378	53.280	0.312	0.293
-63.363	-118.446	0.288	0.050
-62.349	-171.259	0.082	-0.003
-61.334	71.957	-0.845	-0.862
-60.319	129.954	0.354	0.444
-59.305	800.000	-0.279	-1.002
-58.290	445.573	0.560	1.206
-57.276	251.515	0.992	1.655
-56.261	-200.000	106.371	617.012
-55.246	511.655	1509.907	3444.341
-54.232	174.763	2711.613	3844.431
-53.217	104.242	2299.914	2650.894
-52.203	38.477	1904.534	1663.186
-51.188	32.459	1690.680	1430.802
-50.173	29.895	1646.793	1374.592
-49.159	48.949	1701.127	1564.306
-48.144	49.069	1715.776	1578.618
-47.130	32.023	1673.238	1412.533
-46.115	29.419	1658.459	1380.543
-45.100	29.208	1653.796	1375.035
-44.086	29.108	1651.420	1372.259
-43.071	29.182	1648.053	1369.962
-42.057	29.105	1645.879	1367.525
-41.042	29.231	1644.195	1367.004
-40.027	29.225	1641.935	1365.027
-39.013	29.226	1639.649	1363.084
-37.998	29.140	1638.845	1361.720
-36.984	29.228	1637.618	1361.298
-35.969	29.300	1635.841	1360.297
-34.954	29.349	1634.606	1359.581
-33.940	29.337	1632.256	1357.484
-32.925	29.312	1630.250	1355.578
-31.911	29.290	1628.611	1353.996
-30.896	29.293	1627.091	1352.706
-29.881	29.235	1625.714	1351.083
-28.867	29.171	1623.940	1349.086
-27.852	29.323	1622.548	1348.989
-26.838	29.232	1621.540	1347.427
-25.823	29.237	1620.008	1346.138
-24.809	29.332	1618.193	1345.273
-23.794	29.289	1617.043	1343.948
-22.779	29.370	1615.504	1343.202
-21.765	29.280	1613.799	1341.081
-20.750	29.382	1612.067	1340.328
-19.736	29.331	1611.221	1339.199
-18.721	29.327	1609.538	1337.723
-17.706	29.345	1607.655	1336.231
-16.692	29.365	1605.802	1334.784
-15.677	29.329	1605.202	1333.975
-14.663	29.279	1604.120	1332.660
-13.648	29.326	1602.854	1331.893
-12.633	29.368	1600.768	1330.412
-11.619	29.370	1599.633	1329.427
-10.604	29.243	1598.148	1327.225
-9.590	29.311	1596.698	1326.458
-8.575	29.391	1595.030	1325.594
-7.560	29.400	1594.347	1325.040
-6.546	29.242	1593.861	1323.448
-5.531	29.376	1592.143	1322.933
-4.517	29.351	1591.036	1321.779
-3.502	29.247	1590.047	1320.164
-2.487	29.346	1588.667	1319.671
-1.473	29.112	1576.932	1308.210
-0.458	26.470	1557.380	1273.366
0.556	20.849	1558.794	1244.220
1.571	18.717	1583.702	1248.505
2.586	18.436	1597.283	1257.037
3.600	16.770	1544.192	1203.324
4.615	8.856	1434.218	1065.116
5.629	1.184	1371.210	969.337
6.644	-0.246	1363.037	954.388
7.659	-0.305	1360.958	952.475
8.673	-0.307	1360.239	951.877
9.688	-0.363	1358.856	950.470
10.702	-0.554	1355.573	946.878
11.717	3.015	1362.708	974.433
12.731	12.342	1379.702	1046.144
13.746	19.509	1392.157	1101.389
14.761	21.392	1395.209	1115.737
15.775	21.792	1394.219	1117.394
16.790	21.774	1393.972	1116.981
17.804	21.895	1393.244	1117.071
18.819	22.068	1393.157	1118.006
19.834	22.204	1392.536	1118.270
20.848	22.181	1391.782	1117.421
21.863	22.232	1390.732	1116.802
22.877	22.167	1390.059	1115.754
23.892	22.186	1388.966	1114.898
24.907	22.199	1388.560	1114.553
25.921	22.261	1387.230	1113.778
26.936	22.263	1385.835	1112.575
27.950	22.149	1385.421	1111.426
28.965	22.211	1384.183	1110.726
29.980	22.293	1382.806	1110.036
30.994	22.247	1381.707	1108.768
32.009	22.244	1380.693	1107.840
33.023	22.183	1379.568	1106.453
34.038	22.202	1378.618	1105.711
35.053	22.194	1377.497	1104.662
36.067	22.203	1376.706	1103.990
37.082	22.268	1375.249	1103.128
38.096	22.273	1374.256	1102.266
39.111	22.273	1373.755	1101.769
40.126	22.287	1373.042	1101.187
41.140	22.138	1372.828	1099.984
42.155	22.211	1372.470	1100.059
43.169	22.218	1372.373	1099.929
44.184	22.175	1372.121	1099.356
45.199	22.134	1371.678	1098.650
46.213	22.155	1371.261	1098.352
47.228	22.220	1370.045	1097.683
48.242	22.201	1368.731	1096.415
49.257	22.283	1367.065	1095.497
50.271	22.173	1366.300	1094.098
51.286	22.143	1364.552	1092.417
52.301	22.185	1363.629	1091.844
53.315	22.168	1362.407	1090.662
54.330	22.184	1361.982	1090.323
55.344	22.183	1360.383	1088.941
56.359	22.219	1359.418	1088.297
57.374	22.204	1358.676	1087.511
58.388	22.247	1358.000	1087.139
59.403	22.090	1357.868	1085.971
60.417	22.169	1357.193	1085.821
61.432	22.173	1356.259	1085.004
62.447	22.259	1354.856	1084.312
63.461	22.163	1354.079	1083.002
64.476	22.226	1352.930	1082.375
65.490	22.184	1352.024	1081.299
66.505	22.228	1349.814	1079.703
67.520	22.232	1349.404	1079.304
68.534	22.245	1348.269	1078.386
69.549	22.339	1347.036	1077.875
70.563	22.181	1346.599	1076.463
71.578	22.215	1345.013	1075.311
72.593	22.228	1344.758	1075.089
73.607	22.216	1344.200	1074.473
74.622	22.290	1343.014	1073.884
75.636	22.271	1342.557	1073.308
76.651	22.241	1341.507	1072.190
77.666	22.267	1341.557	1072.296
78.680	22.274	1340.564	1071.448
79.695	22.351	1339.336	1070.842
80.709	22.256	1338.884	1069.807
81.724	22.254	1337.767	1068.806
82.739	22.225	1337.079	1067.988
83.753	22.181	1336.177	1066.903
84.768	22.304	1334.441	1066.169
85.782	22.221	1333.911	1065.149
86.797	22.227	1332.659	1064.094
87.812	22.335	1331.501	1063.726
88.826	22.263	1330.383	1062.303
89.841	22.276	1329.329	1061.446
90.855	22.196	1328.747	1060.403
91.870	22.345	1327.577	1060.277
92.884	22.352	1326.779	1059.589
93.899	22.309	1326.078	1058.672
94.914	22.289	1325.376	1057.902
95.928	22.324	1324.894	1057.634
96.943	22.332	1323.692	1056.626
97.957	22.300	1323.167	1055.923
98.972	22.300	1322.114	1054.986
99.987	22.319	1321.131	1054.224
101.001	22.182	1320.443	1052.764
102.016	22.244	1319.371	1052.184
103.030	22.215	1318.233	1051.011
104.045	22.212	1317.627	1050.415
105.060	22.234	1316.291	1049.393
106.074	22.376	1315.041	1049.148
107.089	22.286	1314.568	1048.140
108.103	22.375	1313.308	1047.575
109.118	22.249	1312.665	1046.222
110.133	22.406	1310.803	1045.573
111.147	22.302	1309.875	1044.123
112.162	22.353	1308.504	1043.242
113.176	22.333	1307.447	1042.185
114.191	22.390	1306.718	1041.852
115.206	22.360	1305.962	1040.978
116.220	22.299	1304.657	1039.486
117.235	22.386	1303.506	1038.992
118.249	22.312	1302.556	1037.708
119.264	22.285	1301.838	1036.882
120.279	22.306	1301.057	1036.296
121.293	22.398	1300.624	1036.401
122.308	22.467	1299.097	1035.492
123.322	22.455	1298.235	1034.648
124.337	22.357	1297.767	1033.606
125.352	22.436	1296.518	1032.985
126.366	22.420	1295.135	1031.698
127.381	22.476	1294.016	1031.042
128.395	22.519	1293.480	1030.777
129.410	22.472	1292.709	1029.793
130.424	22.336	1292.586	1028.812
131.439	22.396	1291.328	1028.069
132.454	22.462	1290.617	1027.799
133.468	22.395	1290.197	1026.978
134.483	22.377	1289.574	1026.291
135.497	22.467	1287.910	1025.399
136.512	22.305	1287.212	1023.807
137.527	22.382	1286.253	1023.400
138.541	22.463	1284.515	1022.401
139.556	22.456	1283.741	1021.654
140.570	22.419	1282.524	1020.381
141.585	22.308	1281.702	1018.995
142.600	22.326	1280.639	1018.163
143.614	22.417	1279.795	1017.925
144.629	22.348	1278.918	1016.740
145.643	22.299	1277.258	1015.050
146.658	22.373	1276.844	1015.055
147.673	22.417	1275.732	1014.334
148.687	22.255	1274.729	1012.515
149.702	22.288	1273.454	1011.605
150.716	22.362	1272.365	1011.071
151.731	22.449	1271.056	1010.442
152.746	22.349	1270.585	1009.405
153.760	22.375	1269.212	1008.373
154.775	22.507	1268.161	1008.208
155.789	22.454	1267.116	1006.983
156.804	22.390	1266.508	1006.044
157.819	22.496	1265.562	1005.809
158.833	22.388	1265.388	1004.965
159.848	22.547	1263.966	1004.656
160.862	22.526	1263.413	1004.005
161.877	22.569	1262.105	1003.120
162.892	22.648	1261.126	1002.704
163.906	22.406	1261.044	1001.176
164.921	22.461	1260.182	1000.715
165.935	22.554	1259.606	1000.696
166.950	22.433	1259.151	999.557
167.964	22.602	1257.910	999.445
168.979	22.545	1257.201	998.472
169.994	22.600	1256.860	998.420
171.008	22.524	1256.380	997.524
172.023	22.636	1255.333	997.235
173.037	22.607	1254.613	996.413
174.052	22.636	1253.739	995.796
175.067	22.591	1253.207	995.031
176.081	22.550	1252.217	993.924
177.096	22.454	1251.340	992.598
178.110	22.610	1250.346	992.600
179.125	22.522	1249.582	991.410
180.140	22.642	1248.258	990.946
181.154	22.586	1247.304	989.789
182.169	22.499	1246.126	988.275
183.183	22.483	1245.654	987.727
184.198	22.666	1244.138	987.458
185.213	22.626	1243.219	986.419
186.227	22.556	1242.457	985.335
187.242	22.702	1241.234	985.097
188.256	22.599	1240.925	984.187
189.271	22.604	1240.073	983.452
190.286	22.534	1239.396	982.438
191.300	22.628	1238.486	982.152
192.315	22.549	1238.233	981.426
193.329	22.538	1237.507	980.702
194.344	22.666	1237.350	981.203
195.359	22.688	1236.848	980.839
196.373	22.559	1236.501	979.762
197.388	22.486	1235.665	978.605
198.402	22.554	1235.315	978.623
199.417	22.582	1234.798	978.283
200.432	22.533	1234.364	977.579
201.446	22.592	1233.761	977.342
202.461	22.689	1232.535	976.824
203.475	22.622	1231.575	975.604
204.490	22.651	1230.397	974.743
205.504	22.728	1229.782	974.594
206.519	22.699	1229.090	973.799
207.534	22.666	1228.262	972.879
208.548	22.672	1227.096	971.899
209.563	22.755	1226.462	971.770
210.577	22.630	1225.367	970.127
211.592	22.628	1225.133	969.844
212.607	22.735	1224.160	969.577
213.621	22.858	1223.082	969.314
214.636	22.767	1222.465	968.240
215.650	22.807	1221.759	967.812
216.665	22.818	1220.534	966.818
217.680	22.758	1220.073	966.040
218.694	22.736	1219.192	965.137
219.709	22.769	1218.411	964.614
220.723	22.721	1217.767	963.756
221.738	22.601	1217.274	962.623
222.753	22.709	1216.449	962.473
223.767	22.806	1215.994	962.559
224.782	22.758	1215.447	961.778
225.796	22.824	1214.965	961.671
226.811	22.896	1214.289	961.444
227.826	22.896	1213.507	960.740
228.840	22.778	1212.935	959.563
229.855	22.881	1211.995	959.295
230.869	22.725	1211.831	958.230
231.884	22.776	1211.247	957.960
232.899	22.790	1210.151	957.083
233.913	22.814	1209.264	956.431
234.928	22.898	1209.145	956.706
235.942	22.891	1208.384	955.981
236.957	22.964	1207.413	955.521
237.972	22.943	1206.514	954.613
238.986	22.925	1205.974	954.001
240.001	22.929	1205.791	953.795
241.015	23.056	1204.948	953.731
242.030	22.995	1204.229	952.749
243.045	22.927	1203.568	951.777
244.059	23.008	1202.500	951.284
245.074	23.071	1201.726	950.923
246.088	23.111	1200.704	950.244
247.103	23.065	1200.251	949.558
248.117	22.933	1199.794	948.400
249.132	23.056	1198.732	948.138
250.147	23.082	1198.151	947.736
251.161	23.060	1197.183	946.769
252.176	23.149	1196.445	946.577
253.190	23.090	1195.818	945.682
254.205	23.075	1195.361	945.157
255.220	23.088	1194.984	944.845
256.234	23.055	1194.346	944.080
257.249	23.156	1193.454	943.826
258.263	23.141	1192.970	943.282
259.278	23.162	1192.134	942.648
260.293	23.141	1191.832	942.213
261.307	23.119	1191.515	941.763
262.322	23.224	1190.662	941.566
263.336	23.162	1190.044	940.664
264.351	23.041	1189.778	939.728
265.366	23.069	1189.082	939.244
266.380	23.120	1188.251	938.775
267.395	23.129	1187.627	938.248
268.409	23.192	1186.829	937.866
269.424	23.103	1186.281	936.878
270.439	23.107	1185.822	936.456
271.453	23.074	1185.663	936.072
272.468	23.122	1184.255	935.131
273.482	23.174	1183.406	934.654
274.497	23.226	1183.363	934.809
275.512	23.239	1182.454	934.079
276.526	23.175	1181.828	933.166
277.541	23.333	1181.005	933.262
278.555	23.183	1180.522	932.012
279.570	23.173	1179.933	931.409
280.585	23.309	1179.089	931.374
281.599	23.328	1177.933	930.481
282.614	23.273	1177.327	929.629
283.628	23.364	1175.999	928.977
284.643	23.338	1175.515	928.373
285.657	23.308	1175.053	927.772
286.672	23.281	1174.263	926.922
287.687	23.234	1173.217	925.772
288.701	23.404	1173.047	926.443
289.716	23.432	1171.934	925.630
290.730	23.321	1171.571	924.683
291.745	23.322	1170.754	923.960
292.760	23.458	1169.909	923.919
293.774	23.403	1169.857	923.509
294.789	23.305	1169.566	922.688
295.803	23.428	1168.240	922.201
296.818	23.436	1167.740	921.767
297.833	23.329	1167.098	920.619
298.847	23.423	1166.322	920.415
299.862	23.511	1165.366	920.038
300.876	23.511	1164.836	919.536
301.891	23.530	1164.549	919.329
302.906	23.499	1163.718	918.427
303.920	23.548	1163.252	918.234
304.935	23.554	1162.294	917.425
305.949	23.534	1161.621	916.710
306.964	23.453	1161.693	916.268
307.979	23.462	1160.975	915.670
308.993	23.648	1159.726	915.562
310.008	23.591	1159.170	914.748
311.022	23.585	1158.212	913.877
312.037	23.641	1157.789	913.752
313.052	23.572	1156.596	912.376
314.066	23.533	1155.910	911.554
315.081	23.515	1155.324	910.919
316.095	23.488	1154.646	910.167
317.110	23.528	1154.350	910.057
318.125	23.629	1153.548	909.863
319.139	23.672	1152.829	909.433
320.154	23.803	1151.516	908.987
321.168	23.650	1151.665	908.245
322.183	23.716	1150.888	907.886
323.197	23.591	1150.313	906.713
324.212	23.655	1149.853	906.597
325.227	23.728	1149.429	906.556
326.241	23.678	1148.963	905.853
327.256	23.678	1147.966	904.986
328.270	23.855	1146.843	904.922
329.285	23.757	1146.303	903.918
330.300	23.758	1145.713	903.376
331.314	23.760	1144.738	902.537
332.329	23.800	1143.644	901.800
333.343	23.784	1143.482	901.510
334.358	23.828	1142.620	900.973
335.373	23.898	1141.465	900.338
336.387	23.939	1140.951	900.061
337.402	23.839	1140.486	899.110
338.416	23.905	1139.997	898.977
339.431	23.953	1139.287	898.580
340.446	23.914	1138.363	897.577
341.460	24.020	1137.942	897.698
342.475	23.899	1137.481	896.647
343.489	23.956	1136.158	895.812
344.504	23.881	1135.282	894.663
345.519	23.978	1134.499	894.453
346.533	23.975	1134.008	893.974
347.548	23.975	1133.317	893.349
348.562	23.957	1132.842	892.804
349.577	23.986	1131.648	891.930
350.592	23.949	1130.930	891.099
351.606	23.891	1130.453	890.357
352.621	24.066	1129.513	890.409
353.635	23.949	1129.536	889.767
354.650	23.981	1128.972	889.404
355.665	24.099	1127.935	889.095
356.679	24.000	1127.245	887.981
357.694	24.015	1127.044	887.819
358.708	24.138	1125.875	887.431
359.723	24.002	1125.289	886.213
360.738	24.196	1124.337	886.351
361.752	24.188	1124.219	886.137
362.767	24.138	1123.809	885.491
363.781	24.221	1123.153	885.304
364.796	24.238	1122.325	884.660
365.810	24.266	1121.375	883.971
366.825	24.130	1121.664	883.446
367.840	24.184	1120.901	883.033
368.854	24.329	1119.968	882.939
369.869	24.239	1119.552	882.090
370.883	24.354	1118.530	881.776
371.898	24.352	1117.828	881.132
372.913	24.301	1117.081	880.213
373.927	24.309	1116.710	879.883
374.942	24.348	1116.517	879.847
375.956	24.374	1115.697	879.249
376.971	24.275	1115.271	878.346
377.986	24.236	1115.344	878.134
379.000	24.290	1114.486	877.648
380.015	24.350	1113.847	877.365
381.029	24.393	1113.151	876.950
382.044	24.336	1112.913	876.401
383.059	24.353	1111.888	875.603
384.073	24.400	1111.230	875.236
385.088	24.389	1110.061	874.185
386.102	24.412	1109.028	873.406
387.117	24.362	1108.378	872.574
388.132	24.263	1107.806	871.561
389.146	24.426	1107.000	871.646
390.161	24.358	1106.579	870.903
391.175	24.310	1106.132	870.243
392.190	24.433	1105.382	870.174
393.205	24.439	1104.825	869.689
394.219	24.409	1103.754	868.621
395.234	24.586	1102.417	868.356
396.248	24.630	1101.844	868.041
397.263	24.463	1101.105	866.569
398.278	24.608	1100.489	866.711
399.292	24.737	1099.456	866.446
400.307	24.684	1099.225	865.930
401.321	24.618	1098.751	865.163
402.336	24.505	1098.137	864.055
403.350	24.674	1097.296	864.136
404.365	24.587	1097.165	863.534
405.380	24.652	1095.739	862.651
406.394	24.731	1094.966	862.344
407.409	24.737	1094.520	861.948
408.423	24.665	1094.146	861.228
409.438	24.739	1092.965	860.579
410.453	24.859	1092.213	860.487
411.467	24.821	1091.716	859.839
412.482	24.673	1091.538	858.908
413.496	24.644	1090.753	858.075
414.511	24.738	1089.934	857.808
415.526	24.732	1089.785	857.585
416.540	24.837	1089.072	857.452
417.555	24.753	1088.503	856.524
418.569	24.761	1088.172	856.227
419.584	24.940	1087.594	856.554
420.599	24.779	1087.497	855.630
421.613	148.415	1402.254	1797.995
422.628	137.257	1448.068	1798.097
