DTS Sentinel unit serial number:	SN413079Multiplexer serial number:	ORYXHardware model number:	OX4-SRSoftware version number:	ORYX F/W v4.00 Oryx Data Collector v3.7.2.0data status	okinstallation	princeton_trtdifferential loss correction	single-endedforward channel	channel 2reverse channel	N/Adate	2019/09/13time	18:15:35forward acquisition time	60.00reverse acquisition time	0.00gamma	496.2192k internal	0.2318k external	0.2318temperature offset calibration	1.0198default loss term (dB/km)	0.3790temperature slope calibration	1.0000multiplexer offset coefficient	1.0000multiplexer slope coefficient	1.0000fibre end	0.00T internal ref (°C)	34.19T ext. ref 1 (°C)	4.45T ext. ref 2 (°C)	27.08length (m)	temperature (°C)	Stokes	anti-Stokes-747.200	-200.000	-0.006	0.057
-746.185	689.672	0.039	0.103
-745.171	-196.460	-0.138	0.001
-744.156	-200.000	0.067	0.411
-743.142	115.783	0.034	0.042
-742.127	767.498	0.073	0.202
-741.112	-89.264	0.101	-0.030
-740.098	103.338	-0.190	0.225
-739.083	76.870	-0.161	-0.173
-738.069	-200.000	0.084	0.391
-737.054	-58.513	-0.067	0.030
-736.039	-56.250	-0.203	0.091
-735.025	-89.711	0.187	0.055
-734.010	-97.222	-0.177	0.047
-732.996	27.873	-0.252	-0.215
-731.981	252.913	-0.074	0.128
-730.966	285.971	-0.098	-0.178
-729.952	-200.000	-0.067	-0.412
-728.937	-41.019	0.155	-0.081
-727.923	-38.843	0.238	0.127
-726.908	560.550	-0.117	-0.286
-725.894	497.899	-0.135	0.314
-724.879	-200.000	-0.005	0.044
-723.864	-74.935	-0.154	-0.056
-722.850	-19.497	-0.034	-0.021
-721.835	302.667	-0.122	0.228
-720.821	-118.796	0.261	-0.046
-719.806	-200.000	0.006	0.030
-718.791	-73.120	-0.169	-0.063
-717.777	106.725	-0.127	-0.153
-716.762	-186.242	0.117	-0.002
-715.748	-44.648	-0.075	-0.038
-714.733	-91.632	0.154	0.044
-713.718	-140.712	0.371	0.039
-712.704	51.140	0.250	-0.239
-711.689	105.153	0.205	-0.245
-710.675	-140.079	-0.345	-0.037
-709.660	158.761	0.162	0.227
-708.645	-200.000	0.025	-0.114
-707.631	-200.000	0.016	-0.189
-706.616	76.286	0.031	-0.033
-705.602	45.392	-0.096	-0.089
-704.587	166.527	0.160	-0.229
-703.572	-200.000	-0.003	0.054
-702.558	-125.422	0.226	0.035
-701.543	-200.000	-0.016	0.000
-700.529	11.996	0.180	-0.140
-699.514	78.850	-0.206	0.223
-698.499	171.069	0.102	0.148
-697.485	-114.537	0.355	0.069
-696.470	14.010	0.165	-0.129
-695.456	-82.526	-0.189	-0.062
-694.441	800.000	-0.047	-0.204
-693.426	329.482	0.055	0.107
-692.412	-23.336	-0.146	0.089
-691.397	-40.176	-0.195	0.103
-690.383	-200.000	0.024	0.308
-689.368	151.596	0.252	-0.347
-688.354	352.126	-0.060	0.119
-687.339	-12.631	0.138	-0.091
-686.324	98.283	0.312	0.362
-685.310	-200.000	-0.027	0.239
-684.295	-123.122	-0.076	0.012
-683.281	187.136	0.161	-0.242
-682.266	27.730	-0.222	0.189
-681.251	-200.000	0.028	-0.376
-680.237	28.790	0.094	-0.081
-679.222	312.946	0.103	-0.195
-678.208	96.716	-0.098	-0.114
-677.193	302.866	-0.170	-0.318
-676.178	-200.000	0.002	-0.320
-675.164	-94.991	-0.332	-0.091
-674.149	-81.538	-0.271	-0.090
-673.135	-28.343	-0.084	0.049
-672.120	-112.537	0.093	-0.019
-671.105	-107.985	-0.284	-0.062
-670.091	-200.000	-0.029	-0.366
-669.076	16.706	-0.324	0.259
-668.062	265.225	0.055	0.097
-667.047	-200.000	-0.018	0.233
-666.032	-53.065	0.154	0.071
-665.018	800.000	0.060	0.208
-664.003	-157.954	-0.073	0.004
-662.989	84.856	-0.068	0.076
-661.974	406.567	-0.132	0.281
-660.959	-82.137	-0.165	-0.054
-659.945	-14.167	-0.276	-0.180
-658.930	-200.000	-0.001	-0.129
-657.916	112.485	-0.125	0.152
-656.901	-23.998	0.123	0.074
-655.886	-90.206	0.166	-0.049
-654.872	286.749	0.273	-0.497
-653.857	361.333	0.110	-0.222
-652.843	800.000	0.070	-0.240
-651.828	-200.000	-0.022	-0.340
-650.814	68.379	-0.292	-0.302
-649.799	12.535	0.197	-0.153
-648.784	589.067	-0.095	0.237
-647.770	-38.875	-0.133	-0.071
-646.755	-74.056	-0.198	-0.072
-645.741	-200.000	-0.053	-0.333
-644.726	-200.000	0.014	-0.145
-643.711	166.961	0.120	-0.171
-642.697	36.886	-0.320	0.285
-641.682	-179.347	-0.051	-0.001
-640.668	-104.883	0.157	-0.036
-639.653	81.049	0.111	-0.121
-638.638	116.706	0.220	0.273
-637.624	-200.000	-0.015	0.077
-636.609	601.924	0.036	0.090
-635.595	150.934	0.058	0.080
-634.580	-200.000	0.022	0.146
-633.565	-141.890	0.148	0.015
-632.551	375.988	-0.087	0.179
-631.536	193.099	0.120	0.183
-630.522	48.834	0.207	-0.196
-629.507	800.000	-0.045	-0.150
-628.492	76.755	0.175	-0.188
-627.478	15.541	-0.194	-0.154
-626.463	-126.672	-0.106	-0.016
-625.449	-15.117	-0.228	0.147
-624.434	-31.936	-0.256	-0.144
-623.419	471.536	-0.051	-0.117
-622.405	187.422	0.059	-0.088
-621.390	214.392	-0.092	0.147
-620.376	628.576	0.030	0.076
-619.361	185.113	-0.056	0.083
-618.346	574.608	0.146	0.358
-617.332	-41.704	-0.025	0.013
-616.317	-200.000	0.035	0.162
-615.303	98.558	0.171	0.198
-614.288	-23.440	0.167	0.101
-613.273	-28.024	0.212	0.123
-612.259	370.485	-0.057	-0.116
-611.244	-116.414	-0.168	0.031
-610.230	117.196	-0.078	-0.097
-609.215	35.771	0.140	0.124
-608.201	800.000	0.072	-0.296
-607.186	-49.006	-0.295	-0.142
-606.171	800.000	0.029	-0.085
-605.157	95.196	-0.250	-0.286
-604.142	681.893	-0.205	-0.537
-603.128	-9.630	0.273	-0.183
-602.113	34.162	-0.238	-0.208
-601.098	-200.000	0.007	0.162
-600.084	-142.497	0.435	-0.043
-599.069	-13.461	0.062	-0.041
-598.055	-112.006	0.058	-0.012
-597.040	31.154	0.293	-0.253
-596.025	116.173	0.219	-0.269
-595.011	-13.295	0.156	-0.102
-593.996	-90.471	-0.450	0.131
-592.982	-0.354	-0.101	-0.072
-591.967	800.000	-0.029	0.097
-590.952	-111.288	-0.275	-0.057
-589.938	-78.776	-0.159	0.055
-588.923	522.504	-0.044	0.105
-587.909	800.000	0.159	0.543
-586.894	0.205	-0.264	0.190
-585.879	-200.000	0.019	-0.123
-584.865	13.877	0.170	-0.133
-583.850	36.140	0.066	-0.058
-582.836	60.335	-0.138	0.138
-581.821	80.576	-0.099	-0.107
-580.806	9.990	0.018	-0.014
-579.792	81.580	-0.160	-0.174
-578.777	-200.000	-0.035	0.209
-577.763	-126.934	-0.261	0.039
-576.748	415.241	0.041	-0.089
-575.733	129.611	-0.070	-0.090
-574.719	135.069	0.136	-0.178
-573.704	278.604	0.136	0.245
-572.690	-76.558	-0.142	0.050
-571.675	-31.513	-0.308	0.174
-570.661	-49.030	0.504	0.243
-569.646	658.418	0.061	-0.158
-568.631	-200.000	0.045	0.286
-567.617	-200.000	0.069	-0.386
-566.602	74.989	-0.057	0.060
-565.588	-139.988	-0.195	0.021
-564.573	-23.410	0.218	0.132
-563.558	-200.000	-0.141	0.001
-562.544	-78.581	0.184	0.063
-561.529	-200.000	-0.188	0.001
-560.515	-58.446	-0.212	-0.093
-559.500	-163.527	0.054	-0.003
-558.485	218.868	-0.061	-0.098
-557.471	-200.000	0.011	-0.219
-556.456	71.829	-0.108	-0.113
-555.442	-200.000	-0.013	-0.145
-554.427	375.900	-0.011	-0.022
-553.412	-24.172	0.212	-0.127
-552.398	-91.183	-0.241	0.069
-551.383	-92.533	-0.085	-0.024
-550.369	629.213	-0.064	0.162
-549.354	-125.745	-0.219	-0.033
-548.339	-200.000	0.002	0.043
-547.325	800.000	-0.063	-0.210
-546.310	-89.429	0.028	0.008
-545.296	-200.000	-0.024	-0.107
-544.281	-200.000	0.239	0.001
-543.266	355.972	-0.088	-0.175
-542.252	131.430	0.117	0.151
-541.237	-2.888	0.133	0.094
-540.223	-122.756	-0.163	0.026
-539.208	94.317	0.178	0.203
-538.193	650.239	-0.105	-0.270
-537.179	-200.000	-0.010	-0.151
-536.164	-151.772	-0.258	0.019
-535.150	-200.000	-0.005	-0.123
-534.135	800.000	0.070	-0.288
-533.121	-37.838	0.191	0.102
-532.106	-137.984	-0.034	0.004
-531.091	-200.000	-0.006	0.049
-530.077	279.338	0.245	-0.439
-529.062	65.775	0.119	0.121
-528.048	608.749	0.144	0.360
-527.033	27.038	-0.103	0.086
-526.018	-121.015	-0.334	-0.056
-525.004	-183.187	0.189	-0.003
-523.989	-5.681	-0.295	-0.203
-522.975	-104.964	-0.161	0.037
-521.960	10.035	0.051	-0.039
-520.945	177.088	-0.059	-0.087
-519.931	-200.000	-0.006	0.221
-518.916	-131.785	0.110	-0.014
-517.902	800.000	0.103	0.350
-516.887	74.512	0.026	-0.027
-515.872	89.772	-0.422	0.472
-514.858	251.072	-0.212	-0.361
-513.843	205.385	-0.203	-0.315
-512.829	-106.597	-0.189	0.042
-511.814	-22.379	0.117	-0.071
-510.799	214.496	-0.157	-0.250
-509.785	281.571	-0.049	0.087
-508.770	-97.792	0.075	-0.020
-507.756	42.264	-0.167	-0.153
-506.741	-53.743	-0.226	-0.103
-505.726	47.609	0.305	0.286
-504.712	522.285	-0.102	-0.239
-503.697	-200.000	0.023	0.319
-502.683	-61.265	-0.063	-0.027
-501.668	800.000	0.024	-0.093
-500.653	-175.819	-0.130	0.003
-499.639	-14.192	0.155	0.100
-498.624	-185.758	-0.143	0.002
-497.610	152.154	0.051	0.070
-496.595	-187.319	0.312	0.004
-495.581	472.171	0.133	0.301
-494.566	26.971	0.256	0.215
-493.551	-71.392	-0.064	0.024
-492.537	243.353	0.017	0.029
-491.522	-20.685	0.071	0.044
-490.508	-200.000	0.021	-0.171
-489.493	27.420	0.305	-0.257
-488.478	628.146	-0.119	0.300
-487.464	-200.000	0.068	-0.401
-486.449	-163.898	-0.246	0.012
-485.435	-100.512	0.123	0.030
-484.420	800.000	0.093	0.346
-483.405	-200.000	0.033	0.311
-482.391	-191.165	0.266	-0.003
-481.376	-51.824	0.444	0.207
-480.362	-200.000	0.058	-0.378
-479.347	-98.950	0.280	0.071
-478.332	-104.302	-0.063	-0.015
-477.318	-200.000	0.031	0.192
-476.303	-200.000	0.002	0.016
-475.289	417.638	0.075	-0.161
-474.274	-200.000	0.013	-0.129
-473.259	249.017	-0.074	0.125
-472.245	-82.336	-0.139	-0.045
-471.230	800.000	0.037	0.117
-470.216	184.897	0.160	0.237
-469.201	-66.986	-0.032	-0.013
-468.186	417.982	-0.036	-0.076
-467.172	-200.000	-0.053	0.254
-466.157	69.064	0.168	0.172
-465.143	785.635	0.041	0.112
-464.128	800.000	-0.039	-0.120
-463.113	-1.114	0.111	0.079
-462.099	17.586	-0.032	-0.026
-461.084	109.347	-0.092	0.111
-460.070	-36.042	-0.425	0.230
-459.055	28.360	-0.067	-0.056
-458.040	-77.750	0.315	0.109
-457.026	249.303	0.030	0.050
-456.011	41.009	-0.277	0.251
-454.997	156.132	-0.206	-0.285
-453.982	-200.000	0.039	-0.199
-452.968	115.126	-0.224	0.274
-451.953	-97.677	0.149	0.039
-450.938	226.606	-0.102	0.166
-449.924	110.534	-0.075	0.090
-448.909	800.000	-0.034	-0.103
-447.895	-0.209	0.232	0.165
-446.880	-108.270	-0.105	-0.023
-445.865	-198.278	-0.370	-0.002
-444.851	-3.038	-0.198	-0.138
-443.836	-200.000	0.018	-0.098
-442.822	-200.000	0.023	-0.286
-441.807	-2.033	-0.083	0.058
-440.792	-135.415	0.165	0.020
-439.778	-200.000	0.013	-0.234
-438.763	68.714	-0.122	-0.125
-437.749	14.432	-0.079	0.061
-436.734	-49.862	-0.343	-0.163
-435.719	620.998	0.079	-0.200
-434.705	-200.000	0.008	0.158
-433.690	-91.115	0.144	0.041
-432.676	-129.111	0.291	-0.041
-431.661	-40.748	-0.096	0.050
-430.646	-102.508	0.284	-0.068
-429.632	172.747	-0.197	-0.283
-428.617	2.153	0.272	0.196
-427.603	-126.101	0.248	0.037
-426.588	10.327	0.103	-0.078
-425.573	-200.000	0.017	0.169
-424.559	-47.790	-0.152	0.074
-423.544	800.000	-0.093	-0.290
-422.530	-118.314	-0.037	-0.007
-421.515	52.344	-0.084	-0.080
-420.500	91.141	-0.213	-0.239
-419.486	-101.723	0.247	-0.060
-418.471	-34.429	-0.369	-0.202
-417.457	-200.000	0.124	0.001
-416.442	8.980	-0.178	-0.134
-415.428	-22.835	-0.044	-0.026
-414.413	231.668	0.284	-0.465
-413.398	-158.191	-0.341	-0.020
-412.384	29.785	-0.132	-0.112
-411.369	800.000	-0.104	-0.301
-410.355	-104.735	0.259	-0.060
-409.340	102.912	-0.269	0.315
-408.325	-26.380	0.249	-0.146
-407.311	-139.875	-0.179	-0.019
-406.296	-69.113	0.345	-0.133
-405.282	-156.505	0.152	0.009
-404.267	-31.280	0.270	-0.152
-403.252	-155.269	0.382	-0.025
-402.238	206.094	0.139	0.215
-401.223	790.711	0.031	-0.085
-400.209	-103.723	0.176	-0.041
-399.194	259.553	-0.116	0.199
-398.179	-79.884	-0.081	-0.027
-397.165	8.699	0.298	-0.224
-396.150	9.248	-0.314	0.237
-395.136	-107.667	-0.318	0.069
-394.121	238.108	-0.105	-0.174
-393.106	134.165	0.308	0.398
-392.092	-47.415	0.174	0.084
-391.077	-94.201	0.187	0.051
-390.063	-200.000	0.043	-0.320
-389.048	-33.280	0.201	0.111
-388.033	60.352	0.185	0.183
-387.019	329.034	-0.106	-0.203
-386.004	2.167	-0.173	-0.124
-384.990	-149.987	0.239	-0.019
-383.975	-200.000	-0.022	-0.250
-382.960	-200.000	0.018	-0.077
-381.946	-200.000	0.027	0.178
-380.931	-200.000	-0.045	-0.273
-379.917	102.578	0.312	-0.364
-378.902	122.249	-0.115	-0.144
-377.888	266.906	-0.059	0.104
-376.873	-134.142	0.300	0.037
-375.858	60.579	0.292	0.289
-374.844	165.768	-0.082	0.116
-373.829	-23.356	-0.174	0.104
-372.815	-200.000	-0.036	0.172
-371.800	-82.030	-0.295	-0.096
-370.785	800.000	-0.118	-0.331
-369.771	-200.000	0.063	0.278
-368.756	-200.000	0.001	0.285
-367.742	-87.318	-0.159	-0.048
-366.727	-200.000	0.033	-0.159
-365.712	87.050	-0.064	-0.070
-364.698	-200.000	-0.003	0.325
-363.683	219.877	0.041	-0.065
-362.669	128.036	-0.199	-0.252
-361.654	-168.045	-0.295	0.011
-360.639	800.000	-0.110	-0.431
-359.625	-184.258	0.148	0.002
-358.610	17.508	-0.055	-0.044
-357.596	17.515	-0.333	-0.264
-356.581	15.571	0.265	0.207
-355.566	-113.081	-0.073	0.014
-354.552	-200.000	-0.030	0.290
-353.537	142.740	0.016	-0.022
-352.523	-74.617	-0.351	0.126
-351.508	58.635	-0.267	0.262
-350.493	-153.358	-0.326	0.023
-349.479	-22.962	-0.225	0.135
-348.464	-200.000	-0.005	0.134
-347.450	-133.403	0.208	0.026
-346.435	725.036	0.094	-0.251
-345.420	-200.000	-0.018	-0.163
-344.406	-200.000	0.006	-0.372
-343.391	659.612	-0.024	0.061
-342.377	-200.000	-0.018	-0.115
-341.362	-90.044	0.185	0.054
-340.348	474.722	-0.087	0.196
-339.333	-148.302	-0.092	-0.008
-338.318	-84.756	-0.221	-0.069
-337.304	333.903	-0.190	0.367
-336.289	38.569	-0.082	0.072
-335.275	115.598	0.138	-0.167
-334.260	-61.294	0.287	-0.120
-333.245	-144.499	0.080	-0.007
-332.231	-20.849	-0.224	0.137
-331.216	32.542	-0.226	-0.195
-330.202	534.927	0.062	0.147
-329.187	-120.366	-0.238	0.040
-328.172	586.097	0.062	-0.152
-327.158	452.026	-0.079	0.173
-326.143	3.700	-0.185	-0.135
-325.129	-41.256	0.208	-0.107
-324.114	800.000	-0.086	-0.256
-323.099	-200.000	-0.083	0.401
-322.085	-114.410	0.200	-0.038
-321.070	-200.000	0.272	0.001
-320.056	-76.813	-0.229	-0.080
-319.041	55.450	0.223	-0.215
-318.026	-51.796	-0.292	-0.135
-317.012	-200.000	-0.014	-0.086
-315.997	286.873	-0.081	0.146
-314.983	-11.773	0.035	0.023
-313.968	-200.000	-0.027	0.210
-312.953	189.742	0.114	-0.171
-311.939	800.000	0.028	-0.085
-310.924	678.324	0.093	0.241
-309.910	95.902	-0.044	-0.050
-308.895	172.269	0.046	-0.065
-307.880	300.741	-0.028	0.052
-306.866	4.072	0.056	-0.041
-305.851	-132.396	-0.380	-0.049
-304.837	-54.202	0.200	-0.090
-303.822	-154.608	0.431	0.029
-302.807	-8.769	-0.272	0.181
-301.793	-9.015	-0.089	0.059
-300.778	-113.312	-0.240	0.047
-299.764	-105.014	0.263	0.060
-298.749	-96.424	-0.108	0.028
-297.735	-200.000	-0.014	-0.279
-296.720	95.503	-0.283	-0.321
-295.705	92.514	0.240	0.269
-294.691	142.115	0.159	0.210
-293.676	704.942	0.065	-0.171
-292.662	172.378	0.170	0.243
-291.647	665.271	0.141	-0.363
-290.632	93.212	0.196	0.221
-289.618	800.000	0.041	-0.150
-288.603	800.000	0.050	0.142
-287.589	27.808	-0.150	0.126
-286.574	159.472	0.026	-0.036
-285.559	171.730	-0.111	0.158
-284.545	-150.752	-0.555	-0.042
-283.530	-11.659	0.095	-0.062
-282.516	-15.127	-0.056	-0.036
-281.501	162.174	-0.077	-0.107
-280.486	-107.864	0.193	0.042
-279.472	179.650	0.096	-0.140
-278.457	414.696	0.139	-0.294
-277.443	-200.000	0.053	0.348
-276.428	271.475	-0.188	0.330
-275.413	-78.061	0.358	0.122
-274.399	117.713	-0.171	-0.209
-273.384	-48.937	0.331	0.157
-272.370	117.788	-0.348	0.425
-271.355	-173.762	-0.173	-0.005
-270.340	-147.735	0.283	-0.024
-269.326	74.670	-0.110	-0.115
-268.311	800.000	-0.110	-0.362
-267.297	-41.856	-0.104	-0.053
-266.282	173.902	0.220	0.315
-265.267	48.264	-0.079	-0.073
-264.253	-30.362	0.089	-0.050
-263.238	-19.367	-0.316	0.195
-262.224	72.189	-0.020	-0.020
-261.209	800.000	0.035	0.111
-260.195	-200.000	-0.013	-0.091
-259.180	-127.232	-0.432	0.063
-258.165	800.000	0.071	0.273
-257.151	-76.297	0.435	0.152
-256.136	-20.800	0.142	0.086
-255.122	800.000	-0.127	0.418
-254.107	-19.555	0.113	-0.070
-253.092	-138.836	0.275	-0.030
-252.078	-200.000	0.032	-0.156
-251.063	-68.124	0.181	0.070
-250.049	-14.228	-0.198	-0.127
-249.034	216.794	0.119	-0.189
-248.019	-154.696	-0.055	-0.004
-247.005	-103.318	0.446	-0.104
-245.990	-29.942	0.136	-0.077
-244.976	61.223	0.120	0.118
-243.961	-200.000	-0.079	-0.357
-242.946	-101.263	0.147	-0.036
-241.932	52.745	0.114	0.108
-240.917	117.612	0.122	-0.149
-239.903	-200.000	0.002	0.085
-238.888	-122.941	-0.370	-0.059
-237.873	23.769	-0.353	0.288
-236.859	6.355	0.096	-0.071
-235.844	356.227	-0.041	0.081
-234.830	224.654	0.027	0.044
-233.815	497.915	0.020	-0.045
-232.800	-40.011	-0.390	0.202
-231.786	800.000	0.049	-0.139
-230.771	541.801	0.114	0.270
-229.757	800.000	-0.070	-0.222
-228.742	-5.263	-0.154	0.105
-227.727	-200.000	0.113	0.504
-226.713	-200.000	0.026	-0.193
-225.698	279.502	0.102	-0.181
-224.684	1.918	-0.053	0.038
-223.669	-84.982	-0.129	-0.040
-222.655	8.323	-0.211	-0.157
-221.640	49.284	-0.073	-0.068
-220.625	-200.000	0.009	-0.040
-219.611	23.690	-0.088	-0.072
-218.596	3.219	0.240	0.173
-217.582	-200.000	-0.012	0.319
-216.567	-200.000	-0.024	0.342
-215.552	40.308	0.021	-0.019
-214.538	789.382	-0.060	-0.162
-213.523	-87.853	-0.182	0.054
-212.509	-18.835	0.185	0.114
-211.494	-20.383	0.204	-0.125
-210.479	800.000	0.076	0.208
-209.465	441.836	-0.107	-0.233
-208.450	-102.998	0.132	-0.031
-207.436	-108.371	0.065	-0.014
-206.421	-46.731	0.204	0.099
-205.406	-200.000	-0.027	0.276
-204.392	-200.000	-0.018	0.101
-203.377	28.176	-0.260	0.217
-202.363	-15.540	0.073	0.046
-201.348	-128.745	-0.210	0.029
-200.333	379.584	-0.093	0.189
-199.319	146.119	0.149	-0.198
-198.304	-108.575	-0.142	-0.030
-197.290	271.108	-0.055	-0.097
-196.275	29.714	0.088	0.075
-195.260	-76.788	-0.326	0.113
-194.246	9.810	0.220	-0.166
-193.231	-22.553	-0.159	0.095
-192.217	800.000	0.074	-0.286
-191.202	-26.907	-0.201	-0.116
-190.187	-89.582	0.200	0.058
-189.173	187.974	0.063	-0.093
-188.158	800.000	-0.034	0.124
-187.144	73.353	-0.237	-0.245
-186.129	-200.000	-0.001	0.030
-185.114	800.000	-0.049	-0.206
-184.100	42.972	0.263	0.237
-183.085	800.000	0.030	-0.104
-182.071	77.103	0.196	-0.206
-181.056	116.197	0.178	0.215
-180.042	-95.226	0.278	-0.074
-179.027	-41.306	0.075	-0.038
-178.012	-95.154	0.280	-0.075
-176.998	-3.501	0.549	0.378
-175.983	54.590	0.134	-0.128
-174.969	1.549	0.168	-0.120
-173.954	156.781	-0.041	-0.057
-172.939	31.239	-0.113	0.096
-171.925	81.612	-0.081	0.087
-170.910	-9.942	0.306	-0.201
-169.896	-87.945	-0.358	-0.106
-168.881	-200.000	-0.006	-0.125
-167.866	-4.243	0.290	0.199
-166.852	-7.240	-0.118	-0.079
-165.837	-200.000	0.006	0.084
-164.823	-106.729	-0.181	-0.040
-163.808	-6.936	0.253	0.170
-162.793	-200.000	-0.000	-0.280
-161.779	431.189	-0.094	0.202
-160.764	-51.882	-0.197	-0.091
-159.750	-112.604	0.223	0.044
-158.735	-188.225	0.042	-0.001
-157.720	-200.000	-0.004	0.379
-156.706	-87.493	0.055	0.016
-155.691	32.198	-0.152	-0.130
-154.677	-60.471	0.216	0.091
-153.662	-4.639	-0.334	0.228
-152.647	-125.308	0.327	0.049
-151.633	337.367	-0.170	0.327
-150.618	-200.000	-0.007	0.111
-149.604	204.893	-0.056	-0.086
-148.589	-24.063	0.363	0.215
-147.574	405.033	-0.155	-0.322
-146.560	85.294	0.020	0.022
-145.545	427.956	0.116	0.247
-144.531	-130.889	0.150	0.020
-143.516	800.000	-0.045	-0.177
-142.502	147.391	0.148	0.197
-141.487	-200.000	-0.031	0.209
-140.472	-69.966	0.224	0.084
-139.458	62.191	-0.174	0.172
-138.443	-68.461	-0.150	0.058
-137.429	-72.486	0.302	0.110
-136.414	-200.000	0.013	-0.073
-135.399	-44.594	0.059	0.029
-134.385	-12.960	-0.113	-0.073
-133.370	-200.000	0.062	-0.285
-132.356	800.000	-0.039	-0.134
-131.341	681.726	-0.036	-0.092
-130.326	800.000	0.070	-0.287
-129.312	-121.641	-0.287	0.047
-128.297	-200.000	-0.065	0.355
-127.283	337.163	-0.049	-0.094
-126.268	63.674	-0.269	0.266
-125.253	541.109	-0.167	-0.394
-124.239	-200.000	-0.003	-0.342
-123.224	790.198	0.057	-0.155
-122.210	-12.209	-0.044	-0.029
-121.195	629.852	0.128	0.320
-120.180	594.162	0.032	0.077
-119.166	-115.728	-0.233	-0.043
-118.151	274.171	-0.073	-0.128
-117.137	-200.000	0.007	-0.101
-116.122	-200.000	0.033	0.202
-115.107	346.913	-0.096	0.186
-114.093	-77.552	0.213	0.073
-113.078	800.000	0.062	-0.182
-112.064	-200.000	0.029	0.269
-111.049	800.000	0.054	0.198
-110.034	291.995	0.055	-0.099
-109.020	800.000	0.038	-0.116
-108.005	-200.000	0.046	-0.204
-106.991	-200.000	0.030	0.295
-105.976	450.120	-0.051	0.111
-104.962	259.743	0.108	0.183
-103.947	52.060	-0.066	0.062
-102.932	-200.000	-0.011	0.063
-101.918	8.171	-0.118	0.087
-100.903	605.648	0.073	0.179
-99.889	-72.922	-0.210	-0.076
-98.874	145.782	0.135	0.178
-97.859	-54.474	0.154	0.069
-96.845	-88.859	-0.117	0.034
-95.830	-17.228	0.201	-0.125
-94.816	55.447	-0.130	-0.124
-93.801	234.166	0.139	-0.225
-92.786	-161.057	0.185	0.010
-91.772	800.000	-0.051	-0.164
-90.757	160.345	-0.087	-0.119
-89.743	61.523	-0.060	0.059
-88.728	-56.084	0.160	0.070
-87.713	515.769	-0.056	0.129
-86.699	34.623	0.152	-0.131
-85.684	167.559	0.143	-0.200
-84.670	492.852	0.055	-0.125
-83.655	-66.846	0.203	-0.079
-82.640	286.482	-0.086	0.153
-81.626	-200.000	0.013	-0.059
-80.611	472.530	-0.103	-0.229
-79.597	504.455	-0.043	0.098
-78.582	-51.514	0.122	0.056
-77.567	581.972	0.105	-0.255
-76.553	-82.712	0.174	0.056
-75.538	-101.996	0.035	-0.008
-74.524	-99.090	0.110	-0.027
-73.509	-131.417	-0.120	0.016
-72.494	84.866	0.071	-0.077
-71.480	-200.000	0.014	-0.101
-70.465	-49.152	-0.145	-0.068
-69.451	-38.876	0.258	-0.134
-68.436	111.501	0.121	0.144
-67.422	68.496	0.109	-0.110
-66.407	588.988	0.038	-0.093
-65.392	-120.930	-0.096	-0.016
-64.378	69.815	0.182	0.184
-63.363	-200.000	-0.050	0.389
-62.349	-200.000	-0.015	0.113
-61.334	179.454	-0.911	-1.313
-60.319	-200.000	0.042	0.183
-59.305	444.936	-0.449	-0.972
-58.290	800.000	0.243	0.680
-57.276	604.579	0.651	1.597
-56.261	-200.000	97.078	576.227
-55.246	621.739	1399.094	3468.250
-54.232	189.434	2600.162	3838.770
-53.217	112.945	2291.218	2734.935
-52.203	43.500	1911.261	1720.963
-51.188	37.492	1703.036	1487.626
-50.173	34.729	1659.471	1428.884
-49.159	51.933	1705.388	1599.108
-48.144	54.484	1722.303	1634.209
-47.130	36.972	1681.528	1464.676
-46.115	34.184	1667.446	1431.425
-45.100	34.036	1662.373	1425.907
-44.086	34.111	1659.623	1424.055
-43.071	34.129	1656.397	1421.362
-42.057	33.964	1654.566	1418.502
-41.042	34.111	1652.173	1417.491
-40.027	34.143	1650.611	1416.332
-39.013	34.005	1648.229	1413.209
-37.998	34.028	1646.904	1412.182
-36.984	34.055	1645.564	1411.184
-35.969	34.269	1643.761	1411.161
-34.954	34.214	1642.436	1409.561
-33.940	34.124	1640.624	1407.290
-32.925	34.189	1638.446	1405.843
-31.911	34.029	1637.400	1403.705
-30.896	34.141	1635.506	1402.856
-29.881	34.167	1634.107	1401.794
-28.867	34.168	1632.141	1400.054
-27.852	34.202	1630.472	1398.822
-26.838	34.127	1629.486	1397.366
-25.823	34.224	1627.651	1396.447
-24.809	34.282	1625.931	1395.344
-23.794	34.212	1624.723	1393.740
-22.779	34.212	1623.529	1392.658
-21.765	34.117	1622.188	1390.759
-20.750	34.222	1620.017	1389.608
-19.736	34.204	1618.638	1388.239
-18.721	34.270	1617.441	1387.640
-17.706	34.266	1615.892	1386.229
-16.692	34.282	1613.900	1384.580
-15.677	34.210	1612.626	1382.905
-14.663	34.232	1611.180	1381.773
-13.648	34.279	1609.640	1380.736
-12.633	34.282	1608.457	1379.693
-11.619	34.171	1607.233	1377.783
-10.604	34.263	1605.400	1376.817
-9.590	34.234	1604.461	1375.748
-8.575	34.279	1602.877	1374.659
-7.560	34.206	1602.091	1373.409
-6.546	34.228	1600.667	1372.289
-5.531	34.225	1599.214	1370.971
-4.517	34.253	1598.297	1370.328
-3.502	34.195	1597.397	1369.088
-2.487	34.420	1595.172	1368.740
-1.473	33.737	1583.063	1353.427
-0.458	30.022	1561.598	1308.833
0.556	27.509	1559.579	1266.214
1.571	24.345	1581.752	1261.758
2.586	23.321	1593.636	1263.823
3.600	20.240	1539.492	1199.510
4.615	12.139	1430.883	1062.510
5.629	5.519	1368.417	974.911
6.644	4.417	1360.392	962.277
7.659	4.366	1359.062	960.939
8.673	4.501	1358.045	960.968
9.688	4.527	1356.722	960.108
10.702	4.621	1353.490	958.319
11.717	7.213	1358.726	977.958
12.731	15.056	1372.950	1036.863
13.746	21.290	1382.732	1082.924
14.761	22.064	1383.681	1088.372
15.775	21.378	1381.142	1082.036
16.790	20.264	1378.615	1073.074
17.804	19.391	1376.336	1065.813
18.819	19.156	1374.926	1063.177
19.834	18.951	1374.222	1061.270
20.848	18.762	1372.949	1059.029
21.863	18.650	1371.314	1056.983
22.877	18.584	1369.810	1055.323
23.892	18.446	1369.495	1054.139
24.907	18.371	1368.909	1053.131
25.921	18.429	1367.973	1052.676
26.936	18.545	1366.529	1052.183
27.950	18.503	1365.938	1051.380
28.965	18.631	1364.886	1051.259
29.980	18.706	1363.871	1050.843
30.994	18.792	1362.647	1050.338
32.009	18.915	1361.555	1050.149
33.023	18.874	1360.306	1048.845
34.038	18.743	1359.118	1047.038
35.053	18.703	1357.742	1045.640
36.067	18.604	1356.962	1044.346
37.082	18.587	1356.116	1043.499
38.096	18.693	1355.084	1043.259
39.111	18.887	1353.750	1043.316
40.126	18.616	1353.674	1041.519
41.140	18.432	1352.552	1039.446
42.155	18.236	1351.825	1037.606
43.169	18.216	1351.403	1037.069
44.184	18.325	1350.809	1037.186
45.199	18.293	1350.191	1036.422
46.213	18.399	1350.195	1036.979
47.228	18.618	1349.470	1037.652
48.242	18.673	1348.125	1036.862
49.257	18.657	1346.400	1035.347
50.271	18.596	1345.395	1034.110
51.286	18.651	1343.919	1033.216
52.301	18.513	1343.360	1031.868
53.315	18.479	1341.841	1030.401
54.330	18.375	1340.521	1028.676
55.344	18.373	1339.086	1027.467
56.359	18.375	1338.078	1026.614
57.374	18.293	1337.605	1025.672
58.388	18.173	1336.845	1024.279
59.403	18.325	1335.741	1024.253
60.417	18.205	1335.078	1022.934
61.432	18.072	1334.377	1021.517
62.447	18.001	1333.674	1020.463
63.461	17.965	1332.155	1018.996
64.476	18.054	1331.313	1018.790
65.490	18.023	1330.073	1017.563
66.505	18.006	1328.296	1016.017
67.520	18.116	1326.994	1015.586
68.534	18.161	1325.729	1014.791
69.549	18.174	1325.091	1014.291
70.563	18.139	1324.125	1013.253
71.578	17.918	1322.781	1010.829
72.593	17.892	1321.986	1009.976
73.607	17.812	1321.688	1009.190
74.622	17.978	1320.333	1009.042
75.636	17.929	1319.774	1008.238
76.651	18.027	1319.243	1008.324
77.666	17.926	1319.403	1007.762
78.680	17.984	1319.004	1007.706
79.695	18.102	1317.668	1007.293
80.709	18.236	1317.042	1007.514
81.724	18.207	1316.649	1006.954
82.739	18.342	1315.390	1006.694
83.753	18.504	1315.138	1007.366
84.768	18.645	1314.085	1007.298
85.782	18.680	1312.953	1006.546
86.797	18.562	1311.939	1004.989
87.812	18.550	1310.634	1003.828
88.826	18.550	1309.511	1002.880
89.841	18.672	1308.257	1002.544
90.855	18.674	1307.085	1001.572
91.870	18.747	1306.884	1001.752
92.884	18.750	1306.024	1001.024
93.899	18.846	1305.043	1000.739
94.914	18.841	1304.599	1000.282
95.928	18.855	1303.279	999.266
96.943	18.707	1302.504	997.718
97.957	18.746	1301.669	997.219
98.972	18.746	1300.670	996.366
99.987	18.797	1299.539	995.706
101.001	18.678	1298.740	994.319
102.016	18.592	1298.106	993.245
103.030	18.652	1297.288	992.877
104.045	18.721	1296.156	992.326
105.060	18.459	1294.818	989.699
106.074	18.393	1292.712	987.618
107.089	18.060	1291.845	984.955
108.103	18.032	1290.482	983.664
109.118	18.073	1288.662	982.426
110.133	18.131	1287.729	981.961
111.147	18.052	1286.519	980.497
112.162	18.142	1284.781	979.600
113.176	18.229	1284.089	979.486
114.191	18.301	1283.115	979.071
115.206	18.254	1282.002	977.862
116.220	18.198	1280.631	976.412
117.235	18.233	1279.365	975.562
118.249	18.141	1278.753	974.481
119.264	18.161	1277.443	973.513
120.279	18.119	1276.611	972.552
121.293	18.080	1275.031	971.043
122.308	17.917	1274.258	969.444
123.322	17.932	1273.329	968.736
124.337	17.958	1272.022	967.800
125.352	17.918	1271.267	966.915
126.366	17.855	1269.890	965.428
127.381	17.993	1268.633	965.165
128.395	17.894	1267.792	963.882
129.410	18.059	1266.847	964.008
130.424	18.057	1266.474	963.626
131.439	18.151	1265.456	963.299
132.454	18.200	1264.497	962.756
133.468	18.300	1263.530	962.501
134.483	18.249	1263.030	961.744
135.497	18.213	1262.196	960.825
136.512	18.175	1260.800	959.463
137.527	18.309	1259.742	959.325
138.541	18.356	1258.001	958.173
139.556	18.408	1257.110	957.702
140.570	18.497	1256.200	957.421
141.585	18.489	1254.924	956.318
142.600	18.572	1254.064	956.041
143.614	18.777	1253.090	956.360
144.629	18.751	1252.316	955.536
145.643	18.685	1250.920	954.020
146.658	18.589	1249.703	952.477
147.673	18.476	1248.141	950.575
148.687	18.348	1247.156	949.028
149.702	18.344	1244.975	947.263
150.716	18.223	1244.634	946.253
151.731	18.262	1243.294	945.363
152.746	18.267	1242.396	944.625
153.760	18.318	1241.284	943.980
154.775	18.435	1240.211	943.726
155.789	18.553	1239.462	943.721
156.804	18.536	1238.181	942.567
157.819	18.609	1237.472	942.344
158.833	18.755	1236.197	942.092
159.848	18.785	1235.581	941.703
160.862	18.723	1234.749	940.649
161.877	18.446	1233.330	937.968
162.892	18.311	1232.053	936.176
163.906	18.327	1231.487	935.747
164.921	18.326	1230.135	934.634
165.935	18.432	1229.585	934.712
166.950	18.435	1229.232	934.375
167.964	18.548	1227.993	933.965
168.979	18.441	1227.384	932.838
169.994	18.468	1226.164	931.977
171.008	18.463	1226.003	931.742
172.023	18.631	1225.107	931.893
173.037	18.820	1224.018	932.008
174.052	18.624	1223.690	930.614
175.067	18.480	1222.469	928.821
176.081	18.383	1221.046	927.135
177.096	18.395	1220.035	926.351
178.110	18.509	1219.308	926.332
179.125	18.452	1218.208	925.104
180.140	18.543	1216.723	924.386
181.154	18.607	1216.250	924.292
182.169	18.656	1215.149	923.632
183.183	18.865	1213.775	923.633
184.198	18.781	1212.811	922.368
185.213	18.867	1211.382	921.661
186.227	18.855	1210.778	921.055
187.242	18.882	1209.383	920.056
188.256	18.976	1208.646	919.915
189.271	18.935	1207.419	918.682
190.286	18.718	1206.843	917.002
191.300	18.527	1205.075	914.558
192.315	18.356	1204.158	912.871
193.329	18.376	1203.530	912.424
194.344	18.524	1203.263	912.924
195.359	18.663	1202.797	913.229
196.373	18.716	1202.770	913.410
197.388	18.768	1202.612	913.489
198.402	19.039	1201.753	914.196
199.417	19.027	1201.382	913.767
200.432	19.240	1200.529	914.169
201.446	19.301	1199.696	913.778
202.461	19.198	1199.261	912.819
203.475	19.294	1198.224	912.454
204.490	19.183	1196.566	910.528
205.504	18.955	1195.256	908.243
206.519	18.999	1193.916	907.381
207.534	18.993	1193.056	906.615
208.548	18.858	1192.388	905.312
209.563	18.941	1191.379	904.907
210.577	18.960	1190.853	904.526
211.592	18.953	1189.729	903.553
212.607	19.152	1189.057	904.007
213.621	19.199	1188.542	903.786
214.636	19.085	1187.653	902.432
215.650	19.143	1186.438	901.731
216.665	19.148	1185.933	901.293
217.680	19.361	1184.340	901.116
218.694	19.391	1183.573	900.608
219.709	19.426	1182.791	900.116
220.723	19.387	1181.792	899.077
221.738	19.277	1181.777	898.408
222.753	19.330	1180.915	897.952
223.767	19.352	1179.814	897.148
224.782	19.370	1179.546	896.960
225.796	19.565	1179.037	897.508
226.811	19.408	1178.347	896.085
227.826	19.349	1177.145	894.786
228.840	19.368	1176.582	894.378
229.855	19.325	1175.585	893.321
230.869	19.225	1175.080	892.338
231.884	19.214	1174.312	891.620
232.899	19.116	1173.291	890.258
233.913	19.083	1172.610	889.491
234.928	19.207	1171.712	889.372
235.942	19.100	1170.973	888.179
236.957	19.081	1170.464	887.621
237.972	19.152	1170.031	887.579
238.986	19.108	1169.070	886.546
240.001	19.127	1168.368	886.029
241.015	19.181	1167.692	885.717
242.030	19.383	1166.107	885.475
243.045	19.326	1165.796	884.868
244.059	19.321	1164.936	884.111
245.074	19.388	1164.544	884.080
246.088	19.479	1163.671	883.805
247.103	19.452	1163.022	883.093
248.117	19.683	1162.387	883.717
249.132	19.798	1161.423	883.492
250.147	19.929	1161.659	884.260
251.161	20.069	1160.444	883.973
252.176	20.059	1159.733	883.301
253.190	20.014	1159.544	882.851
254.205	20.203	1158.907	883.248
255.220	20.180	1158.341	882.624
256.234	20.065	1157.876	881.604
257.249	20.109	1156.943	881.042
258.263	20.060	1156.307	880.230
259.278	20.170	1155.547	880.135
260.293	20.018	1155.373	879.151
261.307	20.207	1154.956	879.712
262.322	20.344	1153.717	879.385
263.336	20.190	1153.458	878.332
264.351	20.350	1152.781	878.548
265.366	20.312	1152.172	877.813
266.380	20.267	1150.983	876.603
267.395	20.188	1150.383	875.668
268.409	20.076	1149.853	874.622
269.424	20.196	1148.939	874.453
270.439	20.136	1148.494	873.736
271.453	20.192	1147.576	873.244
272.468	19.933	1146.938	871.378
273.482	19.916	1145.534	870.149
274.497	19.881	1145.748	870.056
275.512	20.003	1144.892	869.946
276.526	20.045	1143.639	869.125
277.541	20.088	1142.772	868.606
278.555	19.990	1142.925	868.153
279.570	20.260	1141.675	868.478
280.585	20.478	1140.945	868.937
281.599	20.331	1140.190	867.549
282.614	20.228	1139.271	866.259
283.628	20.139	1138.088	864.840
284.643	20.109	1137.078	863.844
285.657	20.249	1136.091	863.715
286.672	20.085	1135.751	862.567
287.687	20.089	1134.949	861.900
288.701	20.286	1133.937	862.035
289.716	20.291	1132.931	861.220
290.730	20.155	1132.242	859.941
291.745	20.248	1131.838	860.020
292.760	20.258	1131.159	859.481
293.774	20.388	1130.350	859.430
294.789	20.436	1130.171	859.456
295.803	20.537	1129.203	859.142
296.818	20.343	1128.435	857.524
297.833	20.277	1127.788	856.632
298.847	20.281	1127.099	856.053
299.862	20.358	1126.100	855.597
300.876	20.293	1126.127	855.222
301.891	20.441	1124.793	854.860
302.906	20.616	1124.287	855.265
303.920	20.620	1123.947	854.947
304.935	20.792	1123.253	855.189
305.949	20.818	1122.600	854.746
306.964	20.805	1121.891	854.067
307.979	20.660	1121.142	852.708
308.993	20.597	1120.636	851.939
310.008	20.785	1119.492	851.912
311.022	20.897	1118.776	851.841
312.037	20.681	1118.281	850.336
313.052	20.635	1116.892	848.976
314.066	20.519	1115.866	847.559
315.081	20.361	1115.370	846.336
316.095	20.352	1114.546	845.593
317.110	20.354	1114.001	845.111
318.125	20.478	1112.746	844.691
319.139	20.363	1112.307	843.724
320.154	20.489	1111.937	843.977
321.168	20.406	1111.212	842.950
322.183	20.424	1110.439	842.377
323.197	20.538	1109.843	842.401
324.212	20.485	1109.426	841.756
325.227	20.486	1108.662	841.106
326.241	20.548	1108.122	840.920
327.256	20.636	1107.172	840.551
328.270	20.560	1106.364	839.494
329.285	20.498	1105.341	838.349
330.300	20.516	1104.581	837.782
331.314	20.478	1103.711	836.868
332.329	20.491	1102.593	836.007
333.343	20.618	1102.194	836.242
334.358	20.831	1100.947	836.245
335.373	20.774	1100.488	835.550
336.387	20.819	1099.771	835.144
337.402	20.897	1098.801	834.709
338.416	20.953	1098.034	834.319
339.431	21.057	1097.537	834.366
340.446	21.022	1097.221	833.885
341.460	21.093	1096.489	833.595
342.475	21.260	1095.634	833.668
343.489	21.246	1094.845	832.925
344.504	21.333	1093.932	832.574
345.519	21.213	1093.484	831.584
346.533	21.193	1092.770	830.875
347.548	21.444	1091.951	831.374
348.562	21.451	1090.822	830.473
349.577	21.239	1089.831	828.637
350.592	21.006	1089.306	827.063
351.606	20.867	1088.203	825.490
352.621	20.935	1087.469	825.184
353.635	20.885	1086.852	824.406
354.650	20.861	1086.315	823.811
355.665	20.942	1085.411	823.437
356.679	20.879	1085.236	822.932
357.694	21.191	1084.213	823.557
358.708	21.064	1083.981	822.707
359.723	21.142	1083.560	822.685
360.738	21.123	1082.562	821.762
361.752	21.146	1082.308	821.606
362.767	21.179	1081.964	821.428
363.781	21.117	1081.253	820.522
364.796	21.296	1080.347	820.603
365.810	21.468	1079.647	820.807
366.825	21.577	1079.375	821.041
367.840	21.671	1079.041	821.155
368.854	21.734	1078.511	820.973
369.869	21.730	1077.584	820.177
370.883	21.633	1076.634	818.927
371.898	21.468	1075.989	817.591
372.913	21.539	1075.098	817.175
373.927	21.512	1075.242	817.084
374.942	21.700	1074.393	817.245
375.956	21.625	1073.921	816.463
376.971	21.600	1072.945	815.531
377.986	21.752	1072.399	815.756
379.000	21.829	1072.155	815.852
380.015	21.906	1071.649	815.754
381.029	22.005	1070.691	815.413
382.044	21.880	1070.341	814.494
383.059	21.801	1069.516	813.426
384.073	21.815	1068.813	812.884
385.088	21.920	1067.724	812.472
386.102	21.778	1066.866	811.092
387.117	21.739	1065.615	809.889
388.132	21.549	1065.055	808.511
389.146	21.495	1064.096	807.464
390.161	21.622	1063.178	807.280
391.175	21.561	1062.636	806.518
392.190	21.584	1062.351	806.333
393.205	21.746	1061.689	806.508
394.219	21.759	1060.679	805.729
395.234	21.770	1059.661	804.935
396.248	21.646	1058.654	803.530
397.263	21.629	1057.953	802.846
398.278	21.666	1056.489	801.837
399.292	21.423	1056.384	800.573
400.307	21.558	1055.192	800.217
401.321	21.444	1054.890	799.397
402.336	21.396	1054.512	798.817
403.350	21.437	1053.801	798.396
404.365	21.607	1052.865	798.393
405.380	21.650	1052.487	798.231
406.394	21.633	1051.844	797.595
407.409	21.726	1051.011	797.316
408.423	22.014	1049.745	797.593
409.438	21.915	1049.613	796.974
410.453	22.033	1048.928	796.916
411.467	22.082	1048.557	796.790
412.482	22.139	1047.766	796.374
413.496	22.156	1047.008	795.805
414.511	22.330	1046.291	795.975
415.526	22.344	1046.018	795.764
416.540	22.327	1045.931	795.547
417.555	22.393	1044.917	795.004
418.569	22.208	1044.495	793.780
419.584	22.358	1043.495	793.623
420.599	22.152	1043.397	792.552
421.613	154.742	1401.431	1791.620
422.628	141.728	1453.581	1791.748
