DTS Sentinel unit serial number:	SN413079Multiplexer serial number:	ORYXHardware model number:	OX4-SRSoftware version number:	ORYX F/W v4.00 Oryx Data Collector v3.7.2.0data status	okinstallation	princeton_trtdifferential loss correction	single-endedforward channel	channel 2reverse channel	N/Adate	2019/09/15time	08:43:34forward acquisition time	60.00reverse acquisition time	0.00gamma	496.2192k internal	0.2323k external	0.2323temperature offset calibration	1.0016default loss term (dB/km)	0.3790temperature slope calibration	1.0000multiplexer offset coefficient	1.0000multiplexer slope coefficient	1.0000fibre end	0.00T internal ref (°C)	32.11T ext. ref 1 (°C)	4.98T ext. ref 2 (°C)	29.31length (m)	temperature (°C)	Stokes	anti-Stokes-747.200	-200.000	0.057	-0.339
-746.185	-200.000	-0.054	0.268
-745.171	170.624	-0.162	0.235
-744.156	52.959	0.085	-0.083
-743.142	61.690	-0.073	0.074
-742.127	800.000	-0.052	0.220
-741.112	647.237	-0.095	0.244
-740.098	-200.000	-0.099	0.776
-739.083	69.031	0.078	0.080
-738.069	434.787	-0.108	0.236
-737.054	-7.674	-0.157	0.107
-736.039	-74.053	-0.308	-0.113
-735.025	-200.000	-0.072	0.418
-734.010	800.000	0.032	-0.095
-732.996	-200.000	-0.049	-0.278
-731.981	-10.705	-0.183	0.122
-730.966	152.861	0.091	-0.126
-729.952	792.735	0.016	0.044
-728.937	124.223	-0.098	0.124
-727.923	6.914	0.122	-0.091
-726.908	800.000	0.048	-0.202
-725.894	-131.609	0.359	0.048
-724.879	52.098	-0.185	-0.178
-723.864	24.569	0.064	-0.054
-722.850	104.685	0.110	0.131
-721.835	302.049	0.028	-0.053
-720.821	-137.342	-0.231	0.027
-719.806	-121.396	-0.212	0.036
-718.791	-91.804	0.207	0.059
-717.777	796.352	-0.078	-0.216
-716.762	143.383	-0.160	-0.214
-715.748	547.745	-0.078	-0.189
-714.733	252.373	0.160	0.276
-713.718	800.000	-0.073	0.262
-712.704	-29.222	0.253	-0.146
-711.689	34.701	-0.252	0.222
-710.675	-19.603	0.153	0.095
-709.660	-190.168	0.150	0.002
-708.645	91.419	0.181	-0.205
-707.631	128.801	0.181	0.232
-706.616	-120.611	0.091	0.016
-705.602	5.674	-0.074	-0.055
-704.587	-106.158	-0.277	-0.063
-703.572	317.164	-0.206	-0.393
-702.558	-47.149	-0.263	-0.130
-701.543	26.116	0.160	-0.134
-700.529	-149.521	-0.293	0.023
-699.514	800.000	-0.040	0.148
-698.499	-74.837	-0.269	-0.097
-697.485	-40.591	0.321	0.168
-696.470	56.419	0.132	-0.129
-695.456	46.268	-0.028	0.027
-694.441	800.000	0.015	-0.043
-693.426	800.000	-0.133	-0.394
-692.412	-32.525	0.330	-0.185
-691.397	-200.000	-0.025	-0.132
-690.383	800.000	-0.163	-0.486
-689.368	550.509	-0.088	-0.212
-688.354	-133.491	-0.225	0.028
-687.339	800.000	0.057	-0.236
-686.324	107.234	0.077	0.092
-685.310	-55.725	0.116	0.052
-684.295	202.053	-0.150	0.233
-683.281	-53.854	-0.209	0.096
-682.266	586.976	-0.125	-0.311
-681.251	98.380	0.156	-0.181
-680.237	800.000	0.153	-0.562
-679.222	732.135	-0.120	-0.322
-678.208	-103.253	0.148	0.035
-677.193	56.387	0.138	-0.135
-676.178	-78.341	0.253	-0.088
-675.164	224.052	-0.100	-0.163
-674.149	-200.000	-0.023	0.206
-673.135	414.052	0.174	0.372
-672.120	-78.676	0.106	-0.036
-671.105	-122.745	-0.235	-0.038
-670.091	135.220	-0.133	-0.175
-669.076	-124.487	-0.136	-0.021
-668.062	612.104	0.084	-0.213
-667.047	-79.959	-0.244	0.083
-666.032	85.171	-0.185	0.205
-665.018	-13.411	0.142	-0.092
-664.003	-200.000	-0.005	-0.089
-662.989	-200.000	-0.024	-0.265
-661.974	173.467	-0.091	-0.132
-660.959	-200.000	0.002	-0.027
-659.945	-8.913	-0.159	0.107
-658.930	-158.612	-0.165	0.010
-657.916	-200.000	-0.003	0.122
-656.901	-150.338	-0.244	-0.019
-655.886	35.394	0.144	0.127
-654.872	-11.077	0.260	0.173
-653.857	-16.962	-0.206	0.131
-652.843	-47.372	-0.105	-0.051
-651.828	-137.517	-0.433	0.049
-650.814	136.948	0.041	-0.054
-649.799	280.846	-0.169	0.304
-648.784	21.003	0.211	0.172
-647.770	-200.000	-0.042	0.219
-646.755	77.288	0.145	-0.156
-645.741	-34.526	-0.338	-0.186
-644.726	-46.717	0.179	-0.088
-643.711	317.013	0.052	-0.099
-642.697	-83.503	0.354	-0.114
-641.682	309.131	-0.190	-0.357
-640.668	13.432	0.229	0.179
-639.653	34.671	-0.274	0.241
-638.638	-70.469	-0.203	-0.078
-637.624	116.424	-0.084	0.103
-636.609	43.038	-0.057	0.052
-635.595	20.306	0.159	-0.130
-634.580	24.138	-0.068	-0.057
-633.565	567.977	0.039	0.096
-632.551	332.777	0.219	-0.425
-631.536	50.850	-0.102	-0.098
-630.522	800.000	-0.031	0.096
-629.507	-105.250	0.262	0.060
-628.492	144.589	0.054	0.072
-627.478	383.469	-0.092	0.189
-626.463	82.940	-0.072	0.079
-625.449	122.649	-0.204	0.256
-624.434	-91.776	-0.315	0.090
-623.419	-88.012	-0.170	0.051
-622.405	-24.577	0.065	0.039
-621.390	-73.940	0.309	-0.113
-620.376	-200.000	0.030	0.161
-619.361	-200.000	0.008	0.165
-618.346	-62.042	-0.257	-0.108
-617.332	-51.892	-0.364	-0.170
-616.317	-0.495	0.125	-0.090
-615.303	-143.109	0.136	0.013
-614.288	800.000	0.043	-0.140
-613.273	-5.244	0.304	0.210
-612.259	-200.000	0.035	0.252
-611.244	506.989	0.017	-0.040
-610.230	-92.275	-0.106	-0.030
-609.215	-200.000	0.009	-0.198
-608.201	-145.447	0.401	-0.036
-607.186	142.929	0.189	-0.252
-606.171	80.225	-0.285	0.308
-605.157	106.798	0.029	-0.034
-604.142	63.794	-0.092	-0.093
-603.128	-12.628	-0.165	-0.108
-602.113	-155.294	-0.158	-0.010
-601.098	-8.461	0.229	-0.154
-600.084	-139.236	-0.197	-0.021
-599.069	800.000	0.065	0.187
-598.055	-129.483	-0.229	-0.032
-597.040	800.000	-0.059	-0.194
-596.025	-21.818	0.272	-0.166
-595.011	-174.891	-0.180	-0.005
-593.996	-200.000	0.027	0.207
-592.982	-200.000	0.008	0.152
-591.967	800.000	-0.123	0.385
-590.952	227.282	0.124	0.202
-589.938	-85.383	0.127	0.040
-588.923	-200.000	-0.023	0.140
-587.909	688.282	0.081	-0.211
-586.894	-125.251	-0.137	0.021
-585.879	341.692	0.094	0.184
-584.865	-200.000	-0.004	-0.026
-583.850	119.382	0.170	0.211
-582.836	-146.322	0.309	-0.027
-581.821	78.893	0.135	-0.145
-580.806	40.053	-0.096	0.086
-579.792	250.647	0.200	0.341
-578.777	444.352	-0.019	0.041
-577.763	483.129	0.089	-0.203
-576.748	-200.000	-0.035	0.175
-575.733	-161.554	-0.126	-0.006
-574.719	-200.000	0.003	0.303
-573.704	-200.000	-0.033	-0.394
-572.690	107.622	0.028	-0.033
-571.675	239.098	0.147	0.245
-570.661	-18.717	0.251	0.157
-569.646	12.843	0.231	0.179
-568.631	351.327	-0.163	-0.323
-567.617	800.000	0.100	0.283
-566.602	-138.069	0.305	-0.034
-565.588	125.607	-0.110	-0.139
-564.573	800.000	-0.049	-0.170
-563.558	800.000	-0.064	0.179
-562.544	-65.498	-0.208	0.084
-561.529	-200.000	0.038	0.219
-560.515	-115.221	-0.063	-0.012
-559.500	-169.181	-0.254	-0.009
-558.485	200.239	0.263	-0.405
-557.471	-24.782	-0.173	-0.103
-556.456	-165.628	-0.398	0.017
-555.442	-2.200	0.405	0.285
-554.427	395.722	-0.103	0.215
-553.412	800.000	-0.086	0.259
-552.398	205.897	0.028	-0.044
-551.383	800.000	-0.102	0.346
-550.369	-200.000	-0.040	-0.175
-549.354	-76.532	0.066	-0.023
-548.339	97.264	0.034	0.039
-547.325	6.061	0.151	0.112
-546.310	-200.000	-0.067	0.452
-545.296	-130.289	0.327	-0.045
-544.281	-30.979	0.196	0.111
-543.266	-131.171	-0.329	-0.044
-542.252	-91.393	0.072	-0.021
-541.237	-37.633	0.077	-0.041
-540.223	-46.864	-0.263	0.129
-539.208	-79.303	-0.187	-0.064
-538.193	8.953	-0.127	0.096
-537.179	-86.340	-0.246	-0.076
-536.164	-71.254	0.059	0.022
-535.150	-200.000	-0.008	0.306
-534.135	-200.000	-0.114	-0.577
-533.121	-200.000	-0.068	-0.361
-532.106	67.404	-0.128	-0.131
-531.091	108.655	-0.103	-0.123
-530.077	-3.025	0.192	0.134
-529.062	98.564	0.178	0.206
-528.048	100.011	-0.094	0.109
-527.033	-58.488	-0.424	-0.184
-526.018	-96.173	-0.154	0.041
-525.004	510.248	0.027	-0.064
-523.989	111.939	0.052	0.063
-522.975	16.816	-0.108	-0.086
-521.960	-80.298	0.317	0.106
-520.945	26.213	-0.054	0.045
-519.931	800.000	0.053	-0.151
-518.916	-44.494	0.215	-0.108
-517.902	29.889	0.165	-0.141
-516.887	191.402	-0.281	0.424
-515.872	-29.375	0.279	0.160
-514.858	310.991	-0.102	-0.191
-513.843	179.454	-0.255	-0.374
-512.829	397.310	0.110	-0.231
-511.814	-200.000	-0.019	-0.554
-510.799	-200.000	0.034	0.250
-509.785	79.747	0.201	-0.216
-508.770	309.753	-0.131	-0.245
-507.756	122.344	-0.240	0.300
-506.741	-200.000	-0.039	0.376
-505.726	-163.279	0.070	0.003
-504.712	66.527	-0.109	-0.111
-503.697	137.390	0.258	0.338
-502.683	69.040	-0.188	-0.193
-501.668	63.159	-0.102	0.103
-500.653	-200.000	-0.006	0.097
-499.639	-83.289	-0.309	0.099
-498.624	-200.000	-0.077	0.377
-497.610	-60.038	0.218	0.093
-496.595	-200.000	-0.054	-0.258
-495.581	61.408	-0.289	-0.287
-494.566	-28.072	0.117	0.068
-493.551	-87.385	-0.294	0.089
-492.537	-7.525	-0.193	0.131
-491.522	129.631	0.182	-0.233
-490.508	800.000	0.052	-0.223
-489.493	140.486	-0.079	0.104
-488.478	117.584	-0.091	-0.112
-487.464	-27.169	-0.127	0.074
-486.449	-127.921	0.232	0.033
-485.435	800.000	-0.070	-0.272
-484.420	21.865	-0.269	-0.219
-483.405	235.577	0.043	-0.071
-482.391	-127.574	0.293	-0.043
-481.376	-173.056	-0.151	-0.005
-480.362	800.000	-0.035	0.113
-479.347	259.056	-0.147	-0.254
-478.332	162.503	-0.111	-0.156
-477.318	104.738	-0.076	0.090
-476.303	252.971	-0.123	0.210
-475.289	68.103	-0.143	-0.147
-474.274	83.300	-0.405	-0.441
-473.259	-70.708	-0.063	-0.024
-472.245	-189.126	-0.414	0.005
-471.230	-200.000	0.021	0.111
-470.216	240.714	0.105	-0.176
-469.201	31.188	-0.067	-0.058
-468.186	-110.382	0.321	0.067
-467.172	800.000	0.053	-0.150
-466.157	-200.000	-0.080	-0.366
-465.143	183.289	0.045	0.066
-464.128	265.592	0.054	-0.094
-463.113	-109.501	0.136	0.029
-462.099	62.667	-0.145	-0.144
-461.084	800.000	-0.031	0.125
-460.070	22.675	-0.183	0.150
-459.055	-1.981	-0.047	-0.033
-458.040	-100.091	0.271	0.067
-457.026	800.000	0.019	0.058
-456.011	10.187	-0.203	0.154
-454.997	120.763	0.044	0.055
-453.982	323.390	0.123	-0.235
-452.968	-191.618	-0.124	-0.001
-451.953	530.114	0.047	0.111
-450.938	-155.245	0.235	-0.015
-449.924	800.000	-0.079	0.240
-448.909	250.034	0.020	0.034
-447.895	641.699	-0.097	-0.248
-446.880	-200.000	-0.030	-0.202
-445.865	-109.356	-0.045	-0.010
-444.851	22.427	-0.131	0.107
-443.836	70.543	0.232	-0.239
-442.822	558.184	-0.031	0.075
-441.807	-55.018	0.338	-0.152
-440.792	-118.217	0.303	0.054
-439.778	-152.087	-0.089	0.006
-438.763	8.288	0.268	0.201
-437.749	-72.493	-0.141	-0.052
-436.734	-102.095	0.047	0.011
-435.719	-168.004	0.113	-0.004
-434.705	112.733	0.152	-0.184
-433.690	-72.768	-0.094	-0.035
-432.676	-8.036	0.189	-0.127
-431.661	182.025	0.109	-0.161
-430.646	16.992	-0.117	-0.093
-429.632	-92.128	0.078	0.022
-428.617	-14.414	0.099	0.063
-427.603	-78.785	0.134	0.046
-426.588	-127.628	0.095	-0.014
-425.573	157.075	-0.223	0.308
-424.559	-70.807	-0.097	0.036
-423.544	363.131	-0.139	0.278
-422.530	422.897	-0.107	0.229
-421.515	-200.000	0.025	-0.335
-420.500	-182.524	0.132	-0.002
-419.486	-70.282	-0.319	0.121
-418.471	285.606	0.016	0.029
-417.457	596.315	0.072	-0.178
-416.442	163.118	-0.160	-0.224
-415.428	-200.000	-0.003	-0.045
-414.413	45.069	-0.283	0.260
-413.398	54.802	0.132	0.127
-412.384	474.094	0.084	0.189
-411.369	511.875	0.100	0.231
-410.355	57.573	0.217	-0.212
-409.340	800.000	-0.065	-0.270
-408.325	-70.507	0.073	-0.027
-407.311	-200.000	-0.023	-0.104
-406.296	255.249	-0.229	-0.391
-405.282	-128.591	-0.346	-0.049
-404.267	-200.000	0.054	0.237
-403.252	9.774	0.163	0.123
-402.238	195.572	-0.057	-0.086
-401.223	-200.000	0.061	-0.269
-400.209	-200.000	0.034	-0.170
-399.194	-26.418	-0.118	-0.069
-398.179	-35.409	0.117	0.063
-397.165	-85.544	-0.199	0.062
-396.150	-102.033	0.191	0.046
-395.136	51.365	-0.138	-0.131
-394.121	380.580	0.185	-0.379
-393.106	93.698	0.071	0.080
-392.092	84.917	-0.185	-0.202
-391.077	-142.538	0.347	-0.034
-390.063	-200.000	0.001	-0.170
-389.048	46.310	0.112	0.103
-388.033	800.000	0.031	-0.088
-387.019	-166.031	0.219	-0.009
-386.004	250.530	0.106	0.180
-384.990	800.000	0.085	-0.289
-383.975	-116.831	-0.400	0.073
-382.960	-137.236	0.096	0.011
-381.946	730.688	-0.030	0.080
-380.931	137.261	-0.122	-0.159
-379.917	-102.282	0.065	0.016
-378.902	126.883	0.187	-0.236
-377.888	378.062	0.063	-0.128
-376.873	-200.000	-0.063	0.315
-375.858	3.827	-0.070	0.051
-374.844	-133.326	-0.277	-0.035
-373.829	358.028	-0.132	0.262
-372.815	35.881	0.094	0.082
-371.800	-29.584	-0.169	-0.096
-370.785	173.512	0.284	0.408
-369.771	27.490	0.227	-0.190
-368.756	-157.924	0.205	0.012
-367.742	320.624	-0.019	-0.035
-366.727	-4.590	0.209	-0.144
-365.712	800.000	0.078	-0.321
-364.698	362.363	0.077	-0.153
-363.683	-200.000	0.029	-0.269
-362.669	152.521	-0.074	-0.100
-361.654	0.805	0.097	-0.069
-360.639	-200.000	0.045	0.197
-359.625	-150.537	-0.357	-0.027
-358.610	17.107	-0.146	-0.115
-357.596	-200.000	0.035	0.262
-356.581	57.581	0.084	0.082
-355.566	-118.356	0.139	0.025
-354.552	225.332	0.176	-0.284
-353.537	199.200	-0.086	0.131
-352.523	9.391	-0.219	0.165
-351.508	-38.939	-0.270	-0.141
-350.493	800.000	0.043	-0.186
-349.479	-200.000	0.006	0.029
-348.464	533.019	0.145	0.341
-347.450	800.000	0.068	0.220
-346.435	-200.000	-0.021	0.148
-345.420	118.077	-0.098	0.120
-344.406	164.398	-0.054	0.075
-343.391	-175.340	0.328	-0.009
-342.377	273.577	-0.103	0.181
-341.362	-200.000	0.022	0.455
-340.348	335.858	0.146	-0.282
-339.333	-15.770	-0.257	0.163
-338.318	53.455	0.158	0.151
-337.304	-200.000	0.028	-0.371
-336.289	-104.876	0.190	-0.043
-335.275	-136.669	0.296	-0.034
-334.260	85.564	-0.147	0.161
-333.245	-9.064	-0.174	-0.116
-332.231	-171.994	-0.153	0.005
-331.216	-24.578	-0.261	0.154
-330.202	-60.506	-0.284	-0.120
-329.187	800.000	-0.009	-0.032
-328.172	-200.000	-0.104	-0.477
-327.158	241.072	0.063	-0.104
-326.143	-43.743	0.169	-0.085
-325.129	256.286	-0.107	-0.183
-324.114	800.000	0.055	-0.152
-323.099	-36.650	0.162	0.087
-322.085	-200.000	0.051	-0.322
-321.070	-102.051	0.212	0.051
-320.056	-42.494	0.158	0.080
-319.041	-200.000	-0.042	0.197
-318.026	172.242	0.122	0.174
-317.012	-200.000	-0.032	0.197
-315.997	-111.945	0.194	0.039
-314.983	361.078	-0.132	-0.263
-313.968	-21.200	-0.404	-0.245
-312.953	25.525	0.121	0.100
-311.939	61.930	-0.152	0.151
-310.924	-200.000	0.022	0.133
-309.910	-179.626	-0.078	0.002
-308.895	4.078	-0.276	0.201
-307.880	111.003	-0.267	0.319
-306.866	486.315	0.039	0.088
-305.851	-94.252	0.195	-0.053
-304.837	657.888	0.061	-0.156
-303.822	195.095	0.421	0.634
-302.807	-8.636	0.222	-0.148
-301.793	800.000	-0.138	-0.540
-300.778	-200.000	-0.007	0.196
-299.764	-132.924	-0.186	-0.024
-298.749	-93.808	0.421	-0.115
-297.735	176.123	-0.192	0.276
-296.720	-98.089	-0.338	0.086
-295.705	0.414	0.124	-0.088
-294.691	-77.186	0.550	-0.190
-293.676	-200.000	0.034	0.169
-292.662	-135.262	0.160	0.019
-291.647	149.578	0.098	-0.132
-290.632	-200.000	0.052	-0.281
-289.618	498.295	0.061	0.139
-288.603	-29.867	0.177	-0.100
-287.589	-71.372	-0.209	0.078
-286.574	-200.000	0.021	0.151
-285.559	18.290	0.166	0.131
-284.545	-147.322	-0.474	-0.040
-283.530	-109.168	-0.081	0.017
-282.516	800.000	-0.073	-0.305
-281.501	654.003	0.159	-0.403
-280.486	43.351	0.182	0.165
-279.472	-111.108	0.292	0.059
-278.457	-89.436	-0.203	-0.059
-277.443	-40.459	-0.146	0.075
-276.428	-200.000	0.011	0.121
-275.413	-200.000	-0.027	-0.123
-274.399	468.749	-0.076	-0.168
-273.384	800.000	-0.067	-0.184
-272.370	171.671	-0.128	-0.182
-271.355	-200.000	-0.056	0.263
-270.340	-69.862	-0.120	-0.045
-269.326	20.628	0.375	-0.301
-268.311	16.305	-0.242	0.189
-267.297	-91.860	0.067	0.019
-266.282	496.523	-0.126	0.287
-265.267	-200.000	-0.063	-0.383
-264.253	800.000	-0.063	0.193
-263.238	-109.766	0.069	-0.014
-262.224	-147.190	0.269	-0.023
-261.209	-28.739	-0.096	0.055
-260.195	-143.722	-0.287	0.027
-259.180	60.241	0.291	0.285
-258.165	-19.248	-0.117	0.072
-257.151	-119.209	0.253	0.044
-256.136	800.000	-0.097	0.336
-255.122	-60.995	-0.152	-0.064
-254.107	-11.960	-0.133	-0.086
-253.092	800.000	-0.008	-0.022
-252.078	800.000	-0.041	0.138
-251.063	-200.000	0.001	0.222
-250.049	-27.366	-0.134	0.077
-249.034	800.000	-0.105	0.429
-248.019	-200.000	0.015	-0.095
-247.005	193.559	-0.011	0.017
-245.990	-122.463	0.292	0.047
-244.976	16.500	0.145	0.113
-243.961	-99.295	0.218	0.054
-242.946	375.736	-0.122	0.247
-241.932	242.352	0.177	0.293
-240.917	-122.057	-0.389	0.063
-239.903	496.978	0.035	-0.079
-238.888	258.795	-0.034	-0.057
-237.873	40.507	0.214	0.191
-236.859	205.659	-0.312	-0.480
-235.844	-108.855	0.245	-0.052
-234.830	100.986	-0.210	0.241
-233.815	-200.000	0.028	0.182
-232.800	-42.756	-0.299	0.151
-231.786	672.446	0.046	0.119
-230.771	800.000	-0.080	0.226
-229.757	135.493	-0.147	-0.189
-228.742	-192.060	0.166	-0.002
-227.727	-114.665	-0.480	0.091
-226.713	-16.523	-0.199	0.125
-225.698	800.000	0.069	0.296
-224.684	389.826	0.108	-0.222
-223.669	37.724	0.041	-0.036
-222.655	-84.352	-0.134	-0.042
-221.640	40.350	0.115	-0.102
-220.625	6.375	0.247	0.181
-219.611	-200.000	-0.075	-0.397
-218.596	800.000	0.025	-0.106
-217.582	513.887	0.087	0.200
-216.567	319.056	0.103	0.194
-215.552	-101.827	-0.043	0.010
-214.538	-67.650	-0.029	0.011
-213.523	-200.000	0.008	-0.108
-212.509	0.776	0.090	-0.064
-211.494	-65.884	0.222	-0.088
-210.479	800.000	0.035	0.108
-209.465	31.833	-0.074	0.063
-208.450	383.235	-0.105	-0.215
-207.436	800.000	-0.087	0.366
-206.421	-91.418	-0.201	0.057
-205.406	-200.000	0.011	0.119
-204.392	74.687	-0.173	0.181
-203.377	107.019	0.046	-0.054
-202.363	-200.000	-0.045	-0.644
-201.348	-200.000	0.030	-0.446
-200.333	-139.601	-0.174	-0.018
-199.319	16.318	-0.082	0.064
-198.304	-43.531	0.274	0.137
-197.290	-19.017	-0.120	0.074
-196.275	-200.000	0.025	0.121
-195.260	-131.029	0.072	0.009
-194.246	-103.410	-0.179	-0.042
-193.231	800.000	-0.031	0.123
-192.217	656.960	0.168	0.426
-191.202	-154.492	0.300	0.020
-190.187	-73.053	-0.364	-0.132
-189.173	-62.079	0.211	0.087
-188.158	718.658	0.114	0.299
-187.144	-200.000	0.001	0.143
-186.129	111.272	0.013	0.015
-185.114	-79.561	-0.310	-0.103
-184.100	-94.886	-0.102	0.027
-183.085	-200.000	0.015	0.148
-182.071	-50.332	0.127	0.059
-181.056	-200.000	0.008	-0.110
-180.042	138.448	0.039	-0.051
-179.027	-73.661	0.179	-0.064
-178.012	-134.535	-0.290	-0.035
-176.998	278.976	0.272	-0.479
-175.983	-54.447	0.244	0.109
-174.969	-25.078	0.098	-0.057
-173.954	-85.982	0.181	0.055
-172.939	-115.566	-0.078	-0.014
-171.925	-28.578	-0.100	0.057
-170.910	-57.372	-0.206	0.090
-169.896	-50.472	0.250	0.116
-168.881	-125.051	-0.244	-0.037
-167.866	92.794	0.137	-0.153
-166.852	-139.406	0.358	-0.038
-165.837	800.000	-0.067	-0.196
-164.823	420.236	0.054	0.114
-163.808	34.306	0.219	-0.188
-162.793	-143.323	-0.111	0.010
-161.779	-61.200	0.134	-0.056
-160.764	14.157	0.300	-0.230
-159.750	-129.659	0.166	-0.023
-158.735	123.774	0.200	0.247
-157.720	-200.000	-0.050	-0.259
-156.706	-84.206	-0.234	0.073
-155.691	303.531	0.060	0.109
-154.677	-200.000	0.014	-0.245
-153.662	524.879	-0.152	-0.354
-152.647	-200.000	-0.019	-0.099
-151.633	-200.000	0.073	-0.351
-150.618	-122.188	0.248	-0.040
-149.604	-48.265	-0.091	-0.043
-148.589	24.327	0.246	-0.201
-147.574	164.745	0.175	-0.243
-146.560	107.595	0.173	-0.203
-145.545	135.683	0.104	-0.134
-144.531	-200.000	-0.028	0.148
-143.516	-200.000	0.001	-0.037
-142.502	210.786	0.045	0.070
-141.487	19.622	-0.156	-0.124
-140.472	800.000	0.039	0.108
-139.458	170.843	-0.092	0.130
-138.443	156.864	-0.135	0.184
-137.429	-200.000	0.038	0.312
-136.414	14.897	-0.216	0.167
-135.399	-72.011	-0.235	0.086
-134.385	9.120	-0.171	0.127
-133.370	242.357	0.076	-0.126
-132.356	-200.000	0.034	-0.252
-131.341	-91.961	0.257	0.072
-130.326	-200.000	0.019	0.153
-129.312	-27.967	0.126	0.072
-128.297	800.000	-0.067	-0.187
-127.283	800.000	0.013	-0.041
-126.268	-200.000	0.004	0.135
-125.253	69.789	0.169	-0.172
-124.239	-66.120	-0.149	-0.058
-123.224	99.164	-0.284	0.323
-122.210	-200.000	-0.027	-0.173
-121.195	-115.968	0.201	-0.037
-120.180	-200.000	0.073	-0.596
-119.166	48.171	0.196	-0.181
-118.151	-2.388	-0.255	-0.176
-117.137	-121.195	0.125	0.021
-116.122	-76.119	0.075	0.026
-115.107	-200.000	0.004	0.270
-114.093	78.181	0.300	-0.315
-113.078	-200.000	0.005	0.083
-112.064	800.000	0.039	-0.134
-111.049	81.480	-0.105	0.112
-110.034	-7.576	0.014	-0.009
-109.020	-2.782	0.080	0.055
-108.005	-43.153	-0.358	-0.178
-106.991	507.351	0.033	0.075
-105.976	159.855	0.054	0.074
-104.962	-111.296	-0.114	0.023
-103.947	59.280	0.125	0.122
-102.932	54.837	0.302	-0.287
-101.918	168.741	0.145	-0.204
-100.903	-200.000	0.001	0.177
-99.889	158.248	0.075	-0.103
-98.874	-200.000	0.026	0.251
-97.859	-56.806	0.053	-0.023
-96.845	82.768	-0.261	-0.280
-95.830	17.392	0.174	-0.136
-94.816	21.184	0.083	0.066
-93.801	311.362	0.037	-0.069
-92.786	124.195	0.095	0.118
-91.772	23.983	-0.197	-0.160
-90.757	57.371	-0.166	-0.159
-89.743	-151.710	-0.240	-0.017
-88.728	56.672	-0.203	-0.194
-87.713	9.034	0.130	-0.096
-86.699	-200.000	-0.025	-0.148
-85.684	-200.000	0.029	0.182
-84.670	-127.688	0.282	-0.040
-83.655	800.000	0.040	0.164
-82.640	-200.000	0.052	0.283
-81.626	133.851	-0.189	-0.241
-80.611	-3.064	0.069	0.047
-79.597	171.262	0.163	-0.230
-78.582	134.301	-0.147	-0.188
-77.567	725.394	0.061	-0.161
-76.553	240.522	0.131	-0.215
-75.538	694.783	0.093	-0.240
-74.524	210.000	-0.249	-0.384
-73.509	-13.820	0.175	-0.111
-72.494	-200.000	-0.009	0.166
-71.480	-34.899	0.149	0.080
-70.465	-114.051	-0.205	0.039
-69.451	-163.052	0.282	-0.013
-68.436	800.000	0.060	-0.167
-67.422	-122.546	-0.353	-0.056
-66.407	229.652	0.112	0.180
-65.392	-200.000	-0.017	0.167
-64.378	-81.369	-0.316	-0.102
-63.363	800.000	0.128	0.384
-62.349	800.000	0.026	0.072
-61.334	57.416	-1.309	-1.257
-60.319	96.073	0.620	0.696
-59.305	800.000	-0.323	-1.086
-58.290	483.699	0.469	1.049
-57.276	800.000	0.323	1.364
-56.261	-200.000	96.146	590.413
-55.246	647.131	1399.328	3515.687
-54.232	191.898	2591.374	3840.369
-53.217	113.761	2290.425	2736.251
-52.203	41.690	1909.022	1700.326
-51.188	35.451	1697.707	1464.630
-50.173	32.674	1653.428	1405.697
-49.159	50.482	1698.904	1579.183
-48.144	52.214	1715.264	1607.398
-47.130	35.049	1676.550	1443.118
-46.115	32.280	1662.089	1409.887
-45.100	32.024	1657.420	1403.954
-44.086	32.028	1654.377	1401.347
-43.071	32.056	1651.963	1399.457
-42.057	31.989	1649.810	1397.079
-41.042	32.031	1648.040	1395.836
-40.027	31.982	1645.890	1393.599
-39.013	31.907	1643.986	1391.371
-37.998	31.987	1642.599	1390.733
-36.984	31.942	1641.574	1389.483
-35.969	32.086	1639.907	1389.082
-34.954	32.155	1637.975	1387.895
-33.940	32.165	1636.526	1386.692
-32.925	32.087	1634.483	1384.327
-31.911	32.044	1632.914	1382.630
-30.896	32.083	1630.991	1381.229
-29.881	32.170	1628.750	1379.920
-28.867	32.019	1627.878	1378.015
-27.852	32.171	1625.917	1377.415
-26.838	32.087	1624.642	1375.665
-25.823	32.186	1623.048	1374.984
-24.809	32.150	1621.792	1373.600
-23.794	32.066	1620.933	1372.210
-22.779	32.134	1619.067	1371.074
-21.765	32.065	1617.690	1369.345
-20.750	32.102	1615.745	1367.917
-19.736	32.149	1614.482	1367.131
-18.721	32.250	1613.023	1366.579
-17.706	32.120	1611.773	1364.518
-16.692	32.155	1609.781	1363.030
-15.677	32.219	1608.260	1362.156
-14.663	32.167	1607.352	1360.954
-13.648	32.173	1605.969	1359.773
-12.633	32.084	1604.845	1358.124
-11.619	32.098	1603.356	1356.910
-10.604	32.130	1601.527	1355.544
-9.590	32.204	1599.802	1354.563
-8.575	32.210	1598.462	1353.414
-7.560	32.140	1597.938	1352.417
-6.546	32.126	1596.885	1351.369
-5.531	32.141	1595.326	1350.101
-4.517	32.228	1593.993	1349.550
-3.502	32.231	1592.824	1348.525
-2.487	32.303	1591.294	1347.696
-1.473	32.175	1580.022	1337.183
-0.458	29.947	1562.059	1306.230
0.556	25.796	1562.922	1277.387
1.571	23.687	1587.188	1281.894
2.586	23.265	1599.864	1288.946
3.600	20.737	1546.225	1227.817
4.615	12.677	1437.091	1087.998
5.629	6.075	1373.602	998.019
6.644	5.065	1365.766	985.860
7.659	4.979	1364.229	984.121
8.673	4.953	1362.724	982.784
9.688	4.912	1361.081	981.250
10.702	4.809	1358.115	978.377
11.717	8.078	1364.740	1003.676
12.731	15.401	1378.777	1060.345
13.746	19.480	1383.403	1089.617
14.761	18.643	1381.797	1082.976
15.775	17.610	1378.485	1073.781
16.790	16.471	1375.717	1064.361
17.804	15.590	1373.790	1057.232
18.819	15.244	1372.303	1053.818
19.834	15.030	1371.101	1051.459
20.848	14.761	1369.772	1048.661
21.863	14.633	1368.099	1046.485
22.877	14.437	1366.892	1044.239
23.892	14.295	1366.613	1043.043
24.907	14.336	1365.396	1042.281
25.921	14.353	1364.627	1041.707
26.936	14.367	1363.850	1041.108
27.950	14.451	1362.599	1040.584
28.965	14.574	1362.023	1040.824
29.980	14.662	1360.207	1039.889
30.994	14.648	1359.935	1039.501
32.009	14.670	1358.453	1038.417
33.023	14.711	1356.368	1036.982
34.038	14.615	1355.596	1035.706
35.053	14.534	1354.701	1034.431
36.067	14.487	1353.784	1033.344
37.082	14.536	1352.579	1032.636
38.096	14.561	1351.151	1031.611
39.111	14.561	1350.614	1031.110
40.126	14.544	1349.875	1030.347
41.140	14.502	1348.472	1028.930
42.155	14.374	1348.069	1027.740
43.169	14.353	1347.793	1027.309
44.184	14.313	1347.753	1026.940
45.199	14.347	1347.261	1026.683
46.213	14.463	1346.607	1026.812
47.228	14.430	1345.866	1025.952
48.242	14.495	1344.526	1025.238
49.257	14.497	1343.165	1024.122
50.271	14.412	1341.889	1022.536
51.286	14.435	1340.492	1021.523
52.301	14.474	1338.795	1020.381
53.315	14.321	1338.165	1018.872
54.330	14.405	1336.879	1018.315
55.344	14.320	1335.567	1016.709
56.359	14.318	1334.664	1015.919
57.374	14.398	1333.488	1015.420
58.388	14.219	1333.509	1014.255
59.403	14.250	1332.821	1013.829
60.417	14.250	1331.956	1013.086
61.432	14.272	1331.015	1012.412
62.447	14.143	1329.986	1010.754
63.461	14.175	1328.970	1010.090
64.476	14.113	1327.570	1008.562
65.490	14.121	1326.653	1007.819
66.505	14.172	1324.627	1006.504
67.520	14.256	1323.759	1006.260
68.534	14.266	1322.843	1005.537
69.549	14.245	1321.564	1004.348
70.563	14.154	1320.563	1002.949
71.578	14.082	1319.504	1001.622
72.593	14.100	1318.732	1001.060
73.607	13.987	1318.154	999.852
74.622	14.044	1317.226	999.397
75.636	14.078	1316.574	999.022
76.651	14.135	1315.854	998.731
77.666	14.070	1315.453	997.948
78.680	14.094	1315.166	997.782
79.695	14.186	1314.446	997.701
80.709	14.170	1313.818	997.040
81.724	14.267	1312.813	996.770
82.739	14.416	1311.240	996.378
83.753	14.395	1311.022	995.999
84.768	14.393	1310.316	995.363
85.782	14.533	1309.116	995.196
86.797	14.507	1307.360	993.623
87.812	14.449	1306.351	992.422
88.826	14.431	1305.224	991.367
89.841	14.465	1304.037	990.581
90.855	14.497	1303.292	990.122
91.870	14.577	1302.246	989.713
92.884	14.631	1301.284	989.213
93.899	14.576	1300.652	988.320
94.914	14.552	1300.050	987.629
95.928	14.545	1299.014	986.713
96.943	14.585	1298.035	986.122
97.957	14.615	1297.209	985.582
98.972	14.561	1295.575	983.936
99.987	14.549	1295.214	983.503
101.001	14.508	1293.689	982.019
102.016	14.598	1292.863	981.832
103.030	14.560	1292.258	981.061
104.045	14.549	1291.685	980.479
105.060	14.459	1289.944	978.540
106.074	14.392	1288.434	976.917
107.089	14.248	1286.870	974.801
108.103	14.202	1285.881	973.700
109.118	14.235	1284.717	972.923
110.133	14.262	1283.156	971.814
111.147	14.337	1282.030	971.310
112.162	14.294	1280.413	969.750
113.176	14.394	1279.718	969.719
114.191	14.400	1278.481	968.728
115.206	14.347	1277.478	967.575
116.220	14.325	1276.269	966.447
117.235	14.404	1275.207	966.014
118.249	14.273	1274.225	964.425
119.264	14.310	1272.846	963.513
120.279	14.299	1271.811	962.581
121.293	14.258	1270.794	961.489
122.308	14.166	1269.940	960.229
123.322	14.200	1268.747	959.438
124.337	14.276	1267.698	958.996
125.352	14.272	1266.251	957.791
126.366	14.096	1265.700	956.281
127.381	14.215	1264.860	956.242
128.395	14.236	1263.857	955.521
129.410	14.263	1262.982	954.932
130.424	14.254	1262.083	954.115
131.439	14.358	1260.535	953.452
132.454	14.358	1259.739	952.769
133.468	14.301	1258.946	951.760
134.483	14.377	1258.481	951.757
135.497	14.297	1257.494	950.470
136.512	14.396	1256.207	949.978
137.527	14.558	1254.441	949.480
138.541	14.471	1253.003	947.813
139.556	14.352	1252.298	946.519
140.570	14.479	1251.390	946.468
141.585	14.575	1249.760	945.700
142.600	14.547	1248.663	944.628
143.614	14.675	1247.777	944.598
144.629	14.744	1246.749	944.126
145.643	14.713	1245.262	942.739
146.658	14.565	1244.472	941.223
147.673	14.481	1242.833	939.425
148.687	14.452	1241.841	938.432
149.702	14.387	1240.556	937.014
150.716	14.334	1239.338	935.714
151.731	14.470	1237.765	935.207
152.746	14.510	1236.815	934.626
153.760	14.510	1235.560	933.599
154.775	14.533	1234.548	932.875
155.789	14.660	1233.524	932.729
156.804	14.599	1232.471	931.512
157.819	14.603	1231.915	931.029
158.833	14.698	1230.883	930.696
159.848	14.801	1229.551	930.184
160.862	14.743	1228.795	929.206
161.877	14.651	1227.433	927.584
162.892	14.543	1226.583	926.260
163.906	14.526	1225.667	925.393
164.921	14.607	1224.640	924.985
165.935	14.655	1223.347	924.188
166.950	14.536	1223.408	923.497
167.964	14.655	1222.035	923.035
168.979	14.616	1221.842	922.592
169.994	14.580	1220.849	921.559
171.008	14.666	1220.160	921.437
172.023	14.731	1219.419	921.154
173.037	14.824	1218.707	921.047
174.052	14.693	1218.073	919.763
175.067	14.634	1216.641	918.276
176.081	14.687	1215.649	917.739
177.096	14.610	1214.796	916.590
178.110	14.637	1213.501	915.681
179.125	14.668	1212.341	914.893
180.140	14.704	1210.943	913.955
181.154	14.766	1209.837	913.380
182.169	14.790	1208.722	912.583
183.183	14.952	1207.389	912.380
184.198	14.799	1206.652	910.911
185.213	14.906	1205.451	910.507
186.227	14.898	1204.671	909.793
187.242	14.929	1203.236	908.798
188.256	15.067	1202.364	908.809
189.271	15.015	1201.723	907.962
190.286	14.821	1200.931	906.228
191.300	14.723	1199.482	904.525
192.315	14.694	1198.446	903.506
193.329	14.647	1198.301	903.061
194.344	14.671	1198.040	902.917
195.359	14.808	1197.263	902.989
196.373	14.917	1196.733	903.101
197.388	14.947	1196.422	902.950
198.402	15.070	1196.004	903.214
199.417	15.121	1195.326	902.899
200.432	15.264	1194.234	902.766
201.446	15.179	1193.541	901.702
202.461	15.303	1192.606	901.586
203.475	15.285	1191.447	900.530
204.490	15.123	1190.451	898.830
205.504	15.167	1189.002	897.892
206.519	15.167	1187.809	896.909
207.534	15.107	1186.663	895.647
208.548	15.071	1185.782	894.709
209.563	15.018	1185.173	893.885
210.577	15.209	1183.944	893.901
211.592	15.266	1183.338	893.669
212.607	15.406	1182.354	893.591
213.621	15.308	1181.402	892.274
214.636	15.252	1180.812	891.448
215.650	15.326	1180.142	891.256
216.665	15.311	1179.113	890.320
217.680	15.398	1177.880	889.774
218.694	15.431	1177.445	889.541
219.709	15.332	1176.689	888.368
220.723	15.329	1176.178	887.887
221.738	15.519	1174.648	887.659
222.753	15.456	1174.066	886.804
223.767	15.491	1173.676	886.616
224.782	15.517	1172.885	886.078
225.796	15.540	1172.534	885.855
226.811	15.466	1172.009	884.994
227.826	15.369	1171.227	883.809
228.840	15.489	1170.091	883.509
229.855	15.536	1169.368	883.133
230.869	15.565	1168.426	882.493
231.884	15.535	1167.729	881.732
232.899	15.379	1167.361	880.557
233.913	15.392	1166.585	879.963
234.928	15.335	1165.910	879.075
235.942	15.411	1164.881	878.619
236.957	15.354	1164.422	877.898
237.972	15.440	1163.394	877.493
238.986	15.505	1162.548	877.120
240.001	15.408	1162.076	876.178
241.015	15.373	1161.025	875.125
242.030	15.473	1160.272	875.002
243.045	15.532	1159.524	874.668
244.059	15.493	1158.929	873.940
245.074	15.494	1158.331	873.415
246.088	15.622	1157.386	873.291
247.103	15.588	1156.862	872.640
248.117	15.687	1155.827	872.299
249.132	15.978	1154.981	873.090
250.147	15.954	1154.500	872.526
251.161	16.009	1153.630	872.073
252.176	16.012	1152.863	871.436
253.190	16.029	1152.817	871.408
254.205	16.013	1152.231	870.808
255.220	16.112	1151.307	870.546
256.234	16.036	1150.535	869.487
257.249	16.246	1149.700	869.866
258.263	16.127	1149.277	868.854
259.278	16.169	1148.322	868.272
260.293	16.145	1148.177	867.964
261.307	16.045	1147.874	867.143
262.322	16.202	1146.857	867.103
263.336	16.108	1146.456	866.241
264.351	16.216	1145.703	866.150
265.366	16.293	1144.587	865.623
266.380	16.208	1144.114	864.756
267.395	16.150	1143.347	863.801
268.409	16.174	1142.762	863.406
269.424	16.220	1142.028	863.011
270.439	16.236	1141.578	862.675
271.453	16.266	1140.665	862.063
272.468	16.137	1139.761	860.644
273.482	16.148	1138.931	859.997
274.497	16.141	1138.518	859.572
275.512	16.101	1137.773	858.731
276.526	16.235	1137.141	858.860
277.541	16.142	1136.367	857.725
278.555	16.224	1135.973	857.770
279.570	16.262	1135.330	857.401
280.585	16.487	1133.821	857.329
281.599	16.370	1133.396	856.338
282.614	16.344	1132.334	855.326
283.628	16.276	1131.354	854.168
284.643	16.292	1130.281	853.364
285.657	16.307	1129.532	852.798
286.672	16.325	1128.412	851.966
287.687	16.419	1127.433	851.626
288.701	16.278	1126.973	850.491
289.716	16.425	1125.859	850.317
290.730	16.459	1125.184	849.903
291.745	16.373	1124.764	849.078
292.760	16.481	1123.775	848.798
293.774	16.562	1123.206	848.703
294.789	16.610	1122.839	848.588
295.803	16.548	1122.259	847.764
296.818	16.627	1121.011	847.144
297.833	16.565	1120.355	846.264
298.847	16.530	1119.941	845.698
299.862	16.459	1119.120	844.652
300.876	16.563	1118.526	844.648
301.891	16.676	1117.486	844.350
302.906	16.719	1117.080	844.184
303.920	16.643	1116.706	843.444
304.935	16.693	1116.132	843.189
305.949	16.845	1114.884	842.925
306.964	16.717	1114.623	842.017
307.979	16.777	1113.713	841.555
308.993	16.837	1112.780	841.073
310.008	16.945	1111.952	840.907
311.022	16.854	1111.275	839.868
312.037	16.906	1110.737	839.648
313.052	16.786	1109.728	838.216
314.066	16.633	1108.920	836.775
315.081	16.696	1108.295	836.538
316.095	16.546	1107.335	835.000
317.110	16.729	1106.627	835.295
318.125	16.855	1105.425	834.935
319.139	16.727	1104.781	833.746
320.154	16.717	1104.367	833.309
321.168	16.667	1104.263	832.910
322.183	16.729	1103.496	832.564
323.197	16.776	1102.753	832.160
324.212	16.762	1102.267	831.650
325.227	16.843	1101.451	831.362
326.241	16.846	1101.095	831.032
327.256	16.844	1100.113	830.208
328.270	16.843	1099.278	829.499
329.285	16.828	1098.378	828.671
330.300	16.828	1097.123	827.653
331.314	16.884	1096.253	827.199
332.329	16.916	1095.496	826.708
333.343	16.825	1094.718	825.607
334.358	16.882	1093.842	825.149
335.373	17.050	1093.364	825.532
336.387	17.012	1092.201	824.396
337.402	17.111	1091.624	824.369
338.416	17.092	1091.056	823.777
339.431	17.053	1090.712	823.255
340.446	17.071	1089.807	822.584
341.460	17.173	1089.536	822.801
342.475	17.325	1088.479	822.664
343.489	17.176	1087.351	821.022
344.504	17.361	1086.241	821.002
345.519	17.340	1085.943	820.602
346.533	17.410	1084.779	819.987
347.548	17.450	1084.230	819.692
348.562	17.370	1083.437	818.634
349.577	17.295	1082.620	817.587
350.592	17.253	1081.899	816.767
351.606	17.256	1081.021	816.046
352.621	17.144	1080.180	814.803
353.635	17.212	1079.533	814.571
354.650	17.328	1078.888	814.563
355.665	17.235	1078.453	813.719
356.679	17.320	1077.842	813.591
357.694	17.335	1077.189	813.098
358.708	17.472	1076.574	813.221
359.723	17.412	1075.960	812.396
360.738	17.321	1075.669	811.668
361.752	17.367	1074.604	811.014
362.767	17.508	1074.073	811.216
363.781	17.443	1073.405	810.326
364.796	17.351	1073.393	809.810
365.810	17.612	1072.378	810.212
366.825	17.720	1071.370	809.894
367.840	17.601	1071.508	809.360
368.854	17.809	1070.566	809.563
369.869	17.655	1069.970	808.313
370.883	17.635	1069.254	807.603
371.898	17.663	1068.500	807.097
372.913	17.619	1067.785	806.275
373.927	17.715	1067.406	806.371
374.942	17.729	1067.213	806.221
375.956	17.726	1066.376	805.502
376.971	17.646	1065.972	804.749
377.986	17.800	1064.818	804.532
379.000	17.885	1064.777	804.832
380.015	17.939	1064.017	804.443
381.029	17.870	1063.338	803.529
382.044	17.901	1063.035	803.377
383.059	17.857	1062.196	802.466
384.073	17.869	1061.602	802.002
385.088	17.970	1060.756	801.765
386.102	17.972	1059.113	800.463
387.117	17.890	1058.777	799.752
388.132	17.801	1057.650	798.414
389.146	17.807	1056.486	797.496
390.161	18.011	1055.688	797.775
391.175	17.837	1055.428	796.693
392.190	17.920	1054.741	796.493
393.205	18.086	1053.895	796.559
394.219	17.912	1053.344	795.258
395.234	17.936	1052.359	794.559
396.248	17.960	1051.394	793.867
397.263	17.909	1050.489	792.880
398.278	17.968	1049.570	792.390
399.292	17.851	1048.664	791.094
400.307	17.888	1048.050	790.732
401.321	17.898	1047.631	790.392
402.336	17.903	1046.858	789.760
403.350	17.897	1046.037	789.044
404.365	17.983	1045.663	789.090
405.380	17.843	1045.232	788.047
406.394	17.946	1044.133	787.625
407.409	18.097	1043.418	787.711
408.423	18.172	1042.740	787.475
409.438	18.238	1042.089	787.216
410.453	18.273	1041.296	786.711
411.467	18.430	1040.596	786.833
412.482	18.328	1040.188	785.986
413.496	18.356	1039.283	785.361
414.511	18.425	1038.769	785.220
415.526	18.412	1038.305	784.737
416.540	18.486	1038.423	785.096
417.555	18.457	1038.045	784.610
418.569	18.353	1037.292	783.496
419.584	18.376	1036.875	783.219
420.599	18.360	1036.216	782.576
421.613	149.200	1401.319	1793.062
422.628	136.269	1454.506	1793.162
