DTS Sentinel unit serial number:	SN413079Multiplexer serial number:	ORYXHardware model number:	OX4-SRSoftware version number:	ORYX F/W v4.00 Oryx Data Collector v3.7.2.0data status	okinstallation	princeton_trtdifferential loss correction	single-endedforward channel	channel 2reverse channel	N/Adate	2019/09/17time	20:51:35forward acquisition time	60.00reverse acquisition time	0.00gamma	496.2192k internal	0.2335k external	0.2335temperature offset calibration	0.9987default loss term (dB/km)	0.3790temperature slope calibration	1.0000multiplexer offset coefficient	1.0000multiplexer slope coefficient	1.0000fibre end	0.00T internal ref (°C)	29.16T ext. ref 1 (°C)	0.20T ext. ref 2 (°C)	20.57length (m)	temperature (°C)	Stokes	anti-Stokes-747.200	800.000	0.020	0.078
-746.185	800.000	-0.071	0.263
-745.171	-115.828	-0.345	0.065
-744.156	25.657	-0.056	0.046
-743.142	262.625	0.105	-0.184
-742.127	201.566	-0.180	0.279
-741.112	91.299	0.219	-0.247
-740.098	-37.007	-0.143	-0.077
-739.083	716.609	-0.126	-0.335
-738.069	793.993	0.113	0.312
-737.054	-200.000	-0.001	-0.315
-736.039	-164.606	0.279	-0.013
-735.025	-52.552	-0.149	-0.069
-734.010	800.000	-0.048	-0.201
-732.996	-54.770	0.058	-0.026
-731.981	-131.554	-0.351	0.046
-730.966	-200.000	-0.041	-0.401
-729.952	99.990	-0.193	-0.224
-728.937	-53.420	0.128	0.059
-727.923	800.000	0.052	0.220
-726.908	169.424	-0.035	0.050
-725.894	33.103	-0.289	-0.252
-724.879	-30.066	-0.187	-0.107
-723.864	234.984	-0.098	0.162
-722.850	195.983	0.192	-0.293
-721.835	800.000	-0.027	-0.093
-720.821	-200.000	0.005	-0.114
-719.806	800.000	0.032	-0.097
-718.791	271.624	0.094	-0.167
-717.777	12.609	-0.218	-0.169
-716.762	-22.089	-0.446	-0.272
-715.748	-158.441	-0.104	-0.006
-714.733	276.459	-0.099	0.176
-713.718	-6.070	0.080	0.055
-712.704	-200.000	0.008	-0.219
-711.689	30.983	-0.186	0.160
-710.675	800.000	-0.152	-0.564
-709.660	-26.948	-0.227	-0.133
-708.645	-35.099	-0.129	-0.070
-707.631	-93.576	-0.190	-0.053
-706.616	38.496	0.312	-0.279
-705.602	82.234	-0.095	-0.103
-704.587	269.814	-0.109	-0.191
-703.572	-73.877	-0.190	0.069
-702.558	-200.000	-0.009	-0.098
-701.543	-102.364	0.393	-0.095
-700.529	-163.959	-0.381	-0.018
-699.514	-186.238	0.149	-0.002
-698.499	725.553	-0.100	0.266
-697.485	99.409	-0.270	0.313
-696.470	-200.000	-0.001	0.185
-695.456	-78.219	-0.072	0.025
-694.441	800.000	0.086	-0.276
-693.426	-200.000	0.029	-0.149
-692.412	800.000	-0.088	-0.324
-691.397	237.272	0.195	-0.324
-690.383	-200.000	0.063	-0.380
-689.368	-22.416	-0.308	-0.187
-688.354	206.650	-0.072	-0.113
-687.339	800.000	0.138	-0.409
-686.324	-200.000	0.018	-0.170
-685.310	800.000	0.051	-0.153
-684.295	800.000	-0.088	0.249
-683.281	49.270	-0.141	-0.133
-682.266	237.374	-0.180	-0.300
-681.251	-200.000	0.013	-0.350
-680.237	32.667	0.287	-0.249
-679.222	247.086	-0.087	0.147
-678.208	6.679	-0.130	0.097
-677.193	297.264	-0.073	0.134
-676.178	800.000	-0.007	0.031
-675.164	-200.000	-0.027	0.145
-674.149	-182.973	-0.423	-0.008
-673.135	23.923	0.155	0.128
-672.120	13.992	0.133	-0.104
-671.105	-73.101	-0.299	0.110
-670.091	800.000	-0.078	-0.222
-669.076	30.467	0.195	-0.167
-668.062	-56.905	-0.136	0.060
-667.047	-91.918	0.087	-0.025
-666.032	-200.000	0.017	-0.131
-665.018	800.000	-0.105	0.346
-664.003	-200.000	0.021	0.293
-662.989	800.000	0.018	0.068
-661.974	-67.634	-0.236	-0.093
-660.959	-77.105	-0.117	0.041
-659.945	-101.242	0.252	-0.062
-658.930	-18.738	-0.167	0.104
-657.916	111.339	0.062	-0.075
-656.901	-200.000	-0.045	0.202
-655.886	-11.309	-0.360	-0.237
-654.872	-200.000	-0.009	-0.316
-653.857	-200.000	0.016	-0.289
-652.843	31.381	-0.233	0.201
-651.828	-101.311	0.276	0.067
-650.814	-25.496	-0.233	-0.138
-649.799	-144.505	0.130	0.012
-648.784	-30.107	0.238	0.135
-647.770	-7.292	0.232	0.158
-646.755	41.155	0.130	-0.118
-645.741	-16.325	-0.295	0.187
-644.726	383.430	-0.056	-0.116
-643.711	-85.747	-0.242	0.075
-642.697	25.079	-0.322	-0.267
-641.682	107.759	-0.218	0.260
-640.668	-175.215	0.261	-0.007
-639.653	63.383	0.040	-0.040
-638.638	-8.047	-0.157	-0.106
-637.624	-200.000	0.007	-0.264
-636.609	-72.619	0.252	0.093
-635.595	60.752	0.055	0.055
-634.580	-200.000	0.080	-0.350
-633.565	-200.000	-0.017	0.134
-632.551	17.978	-0.124	-0.099
-631.536	-136.154	0.238	-0.028
-630.522	-200.000	0.040	-0.236
-629.507	-31.163	0.462	-0.261
-628.492	-200.000	-0.002	-0.074
-627.478	-200.000	0.014	-0.142
-626.463	214.863	-0.199	-0.315
-625.449	3.553	0.182	-0.133
-624.434	11.499	0.166	-0.127
-623.419	159.540	-0.173	0.240
-622.405	37.496	-0.080	0.071
-621.390	100.542	-0.098	0.114
-620.376	-64.929	0.328	-0.133
-619.361	311.251	-0.200	-0.375
-618.346	-200.000	0.022	-0.139
-617.332	293.292	-0.058	-0.106
-616.317	-46.924	-0.105	-0.051
-615.303	-200.000	0.014	-0.366
-614.288	-151.956	0.062	0.004
-613.273	-200.000	0.028	-0.210
-612.259	800.000	-0.109	-0.342
-611.244	-153.622	-0.101	-0.007
-610.230	-135.856	0.210	0.025
-609.215	609.015	0.096	0.240
-608.201	-118.954	0.340	0.060
-607.186	57.088	-0.058	0.056
-606.171	800.000	-0.081	0.243
-605.157	54.250	0.148	-0.142
-604.142	-106.547	-0.512	0.114
-603.128	165.500	-0.129	-0.182
-602.113	-79.254	0.217	-0.074
-601.098	42.182	-0.178	-0.161
-600.084	-7.624	-0.201	0.136
-599.069	13.135	-0.207	0.160
-598.055	-200.000	-0.010	-0.137
-597.040	-80.443	-0.277	0.092
-596.025	5.497	-0.096	0.071
-595.011	182.729	-0.152	-0.224
-593.996	-200.000	-0.003	-0.286
-592.982	-48.576	0.120	-0.058
-591.967	-200.000	-0.014	-0.151
-590.952	-200.000	0.045	0.202
-589.938	-143.432	-0.315	-0.030
-588.923	-72.448	0.096	-0.036
-587.909	126.082	-0.170	0.215
-586.894	0.998	0.290	0.208
-585.879	42.011	0.050	-0.045
-584.865	-51.419	0.268	0.125
-583.850	-42.122	0.203	0.104
-582.836	575.021	-0.029	0.071
-581.821	-5.692	0.271	-0.186
-580.806	800.000	0.048	-0.183
-579.792	-200.000	-0.043	-0.197
-578.777	28.454	-0.051	0.043
-577.763	-152.212	-0.291	-0.021
-576.748	409.439	0.173	-0.365
-575.733	800.000	0.031	-0.129
-574.719	-159.926	0.266	-0.015
-573.704	73.281	-0.115	-0.120
-572.690	-72.559	0.180	0.066
-571.675	-115.715	0.069	-0.013
-570.661	800.000	0.018	-0.052
-569.646	-65.296	0.256	0.103
-568.631	226.664	-0.103	-0.166
-567.617	800.000	-0.152	-0.426
-566.602	116.957	-0.132	-0.161
-565.588	-44.311	0.104	-0.052
-564.573	-103.942	0.145	-0.034
-563.558	-200.000	0.032	0.177
-562.544	205.745	-0.080	0.124
-561.529	59.008	0.196	-0.192
-560.515	335.186	-0.051	0.099
-559.500	-200.000	-0.052	0.325
-558.485	-119.105	-0.243	-0.042
-557.471	52.567	-0.040	-0.038
-556.456	128.936	-0.123	0.156
-555.442	-168.761	0.253	0.010
-554.427	112.192	0.051	0.062
-553.412	-200.000	-0.024	-0.231
-552.398	-200.000	0.007	-0.179
-551.383	-145.207	-0.229	-0.021
-550.369	-24.473	0.084	-0.050
-549.354	119.521	0.096	-0.118
-548.339	-125.103	0.094	-0.014
-547.325	42.115	0.070	-0.063
-546.310	-111.984	-0.456	-0.092
-545.296	-200.000	0.003	0.044
-544.281	91.925	0.322	0.361
-543.266	-58.824	0.070	0.030
-542.252	800.000	-0.063	-0.212
-541.237	-36.916	0.174	0.093
-540.223	-161.873	0.282	-0.014
-539.208	-45.186	-0.255	-0.126
-538.193	-20.910	-0.267	0.163
-537.179	800.000	0.066	0.241
-536.164	-105.308	-0.018	-0.004
-535.150	288.563	-0.025	-0.046
-534.135	-200.000	0.027	0.181
-533.121	111.287	0.032	0.038
-532.106	-35.523	-0.273	0.148
-531.091	330.354	-0.157	-0.302
-530.077	-150.131	0.121	-0.009
-529.062	-200.000	-0.004	0.243
-528.048	0.733	-0.158	-0.112
-527.033	-65.792	-0.179	0.071
-526.018	-200.000	0.005	-0.268
-525.004	44.626	-0.058	-0.053
-523.989	-137.624	0.492	-0.055
-522.975	-65.729	-0.283	-0.113
-521.960	80.847	-0.014	-0.015
-520.945	-71.664	-0.060	-0.022
-519.931	-200.000	-0.011	-0.111
-518.916	-131.027	0.155	-0.021
-517.902	-200.000	-0.008	-0.143
-516.887	-75.544	-0.195	-0.069
-515.872	258.109	-0.033	0.057
-514.858	-200.000	0.035	-0.316
-513.843	-65.085	0.129	0.052
-512.829	-147.671	-0.154	-0.013
-511.814	-46.396	-0.183	0.089
-510.799	18.169	-0.175	-0.139
-509.785	-166.456	-0.320	-0.013
-508.770	20.705	-0.126	0.102
-507.756	-200.000	0.011	-0.185
-506.741	-154.075	-0.168	-0.011
-505.726	-144.710	-0.105	-0.010
-504.712	201.804	-0.115	0.176
-503.697	-106.349	-0.470	0.105
-502.683	-50.378	-0.092	0.043
-501.668	-24.650	0.146	0.086
-500.653	197.062	-0.070	0.107
-499.639	800.000	-0.048	0.173
-498.624	514.320	0.108	0.252
-497.610	800.000	-0.050	0.218
-496.595	363.936	-0.035	0.069
-495.581	-200.000	0.026	0.180
-494.566	800.000	-0.049	-0.158
-493.551	33.192	-0.149	-0.129
-492.537	-157.576	-0.086	0.005
-491.522	-63.587	-0.245	0.100
-490.508	-200.000	-0.029	-0.135
-489.493	402.883	-0.082	-0.172
-488.478	-160.906	0.216	0.011
-487.464	127.238	-0.259	0.326
-486.449	-15.253	-0.209	-0.133
-485.435	800.000	0.041	0.170
-484.420	-132.012	-0.094	-0.012
-483.405	755.895	-0.121	-0.326
-482.391	416.911	0.054	-0.115
-481.376	-76.161	-0.104	0.036
-480.362	72.365	0.205	-0.213
-479.347	-16.652	0.156	-0.098
-478.332	-25.656	0.176	-0.103
-477.318	-58.133	-0.247	-0.107
-476.303	345.732	0.076	0.148
-475.289	-155.824	0.117	0.007
-474.274	-200.000	0.026	-0.164
-473.259	-4.408	-0.141	-0.097
-472.245	-135.341	-0.330	-0.039
-471.230	189.463	0.128	0.191
-470.216	30.990	-0.175	0.149
-469.201	-130.777	0.401	-0.054
-468.186	-142.225	-0.299	0.029
-467.172	166.519	-0.198	0.279
-466.157	290.145	0.138	-0.250
-465.143	180.992	-0.071	0.103
-464.128	-200.000	0.020	0.089
-463.113	34.897	0.118	0.103
-462.099	-200.000	0.016	0.094
-461.084	39.773	0.382	-0.340
-460.070	25.158	0.124	-0.103
-459.055	161.852	0.094	0.130
-458.040	475.108	0.064	-0.144
-457.026	-133.288	-0.180	0.023
-456.011	7.361	0.414	0.307
-454.997	68.891	0.256	-0.261
-453.982	573.720	0.201	-0.487
-452.968	241.116	-0.100	0.166
-451.953	-200.000	0.035	-0.211
-450.938	-138.310	-0.059	-0.007
-449.924	-34.301	0.229	-0.125
-448.909	-108.623	-0.278	0.059
-447.895	-200.000	-0.011	-0.096
-446.880	-116.340	-0.309	-0.057
-445.865	246.213	-0.022	0.037
-444.851	-96.999	0.179	0.047
-443.836	-139.099	-0.250	0.027
-442.822	800.000	-0.031	-0.108
-441.807	-169.467	0.157	0.006
-440.792	69.048	-0.226	-0.231
-439.778	-92.272	0.303	0.085
-438.763	377.729	0.230	0.468
-437.749	-200.000	-0.024	0.183
-436.734	32.075	0.139	0.119
-435.719	-52.683	-0.163	0.074
-434.705	-57.840	-0.384	0.167
-433.690	143.249	0.050	-0.067
-432.676	243.154	0.109	0.182
-431.661	-124.599	0.107	-0.016
-430.646	74.250	0.143	-0.149
-429.632	-200.000	-0.013	0.125
-428.617	-2.233	0.035	0.024
-427.603	96.824	0.045	0.052
-426.588	-86.991	0.314	0.095
-425.573	-104.992	-0.244	-0.055
-424.559	242.566	0.054	-0.090
-423.544	13.235	-0.069	0.053
-422.530	-117.524	0.220	-0.039
-421.515	40.831	0.259	0.232
-420.500	536.640	-0.070	0.165
-419.486	800.000	-0.077	0.268
-418.471	73.672	0.086	-0.090
-417.457	-200.000	-0.017	-0.179
-416.442	195.304	0.268	-0.404
-415.428	-152.403	0.118	-0.008
-414.413	-200.000	0.010	-0.058
-413.398	-113.761	0.157	-0.030
-412.384	35.248	0.307	0.267
-411.369	800.000	0.011	0.049
-410.355	-29.642	-0.339	0.192
-409.340	242.555	-0.118	0.195
-408.325	-11.184	0.353	-0.231
-407.311	-35.059	-0.211	0.114
-406.296	-200.000	-0.058	-0.396
-405.282	163.583	0.148	0.206
-404.267	800.000	-0.023	0.063
-403.252	-55.716	0.226	0.100
-402.238	381.051	-0.095	0.193
-401.223	-90.542	-0.465	-0.133
-400.209	0.925	-0.187	0.133
-399.194	34.989	0.069	0.060
-398.179	57.398	-0.203	-0.197
-397.165	800.000	0.054	-0.165
-396.150	28.004	0.187	0.156
-395.136	-40.725	0.259	0.133
-394.121	555.368	0.074	0.177
-393.106	-200.000	0.015	0.181
-392.092	207.646	0.055	0.085
-391.077	-45.418	0.215	-0.105
-390.063	23.081	0.218	-0.178
-389.048	-37.231	-0.248	-0.131
-388.033	14.770	0.222	-0.172
-387.019	-75.175	0.314	0.111
-386.004	-200.000	-0.072	-0.599
-384.990	-9.749	-0.311	0.205
-383.975	46.218	-0.254	-0.234
-382.960	-107.630	0.441	-0.095
-381.946	4.074	0.123	0.089
-380.931	-110.179	-0.126	0.026
-379.917	-123.188	-0.123	0.020
-378.902	-58.562	0.226	-0.097
-377.888	-86.790	-0.218	-0.066
-376.873	-122.360	-0.041	-0.007
-375.858	-103.518	-0.246	0.057
-374.844	-158.849	-0.322	-0.018
-373.829	-89.165	0.213	0.062
-372.815	214.221	0.187	-0.293
-371.800	-200.000	0.016	0.199
-370.785	800.000	0.041	-0.121
-369.771	-63.652	-0.452	-0.183
-368.756	-35.494	0.284	0.153
-367.742	-69.444	-0.176	0.067
-366.727	-138.135	-0.314	-0.035
-365.712	-200.000	0.003	0.149
-364.698	-55.416	0.085	0.038
-363.683	-57.167	0.138	-0.060
-362.669	236.988	-0.055	0.090
-361.654	-200.000	0.022	0.119
-360.639	800.000	0.040	0.122
-359.625	-77.625	-0.248	-0.085
-358.610	107.134	0.050	-0.059
-357.596	-15.379	0.194	-0.123
-356.581	12.661	0.099	-0.076
-355.566	188.292	-0.132	0.195
-354.552	137.217	0.238	0.308
-353.537	104.903	0.117	-0.137
-352.523	569.800	-0.053	-0.129
-351.508	-200.000	-0.008	0.042
-350.493	51.804	0.162	-0.152
-349.479	800.000	-0.074	-0.256
-348.464	34.160	-0.453	0.391
-347.450	-200.000	0.037	-0.309
-346.435	-69.599	0.268	0.101
-345.420	9.795	0.100	-0.075
-344.406	-161.865	-0.134	0.007
-343.391	41.513	0.075	0.067
-342.377	21.953	0.087	0.070
-341.362	-34.109	-0.146	0.079
-340.348	-200.000	0.009	0.165
-339.333	-130.487	0.170	0.023
-338.318	177.689	-0.029	0.042
-337.304	11.437	-0.102	-0.077
-336.289	184.432	0.225	0.329
-335.275	-200.000	0.005	-0.060
-334.260	-200.000	-0.000	0.032
-333.245	-80.641	-0.219	0.072
-332.231	-130.232	-0.181	0.024
-331.216	4.645	-0.186	-0.135
-330.202	-200.000	-0.014	0.101
-329.187	40.979	-0.098	0.087
-328.172	24.141	0.072	0.059
-327.158	29.034	-0.133	0.112
-326.143	314.663	0.034	0.063
-325.129	34.371	0.121	-0.104
-324.114	-165.902	0.328	-0.014
-323.099	175.760	-0.121	0.173
-322.085	445.489	-0.057	0.123
-321.070	540.408	-0.079	0.186
-320.056	-200.000	-0.025	-0.138
-319.041	-200.000	0.013	-0.068
-318.026	22.206	-0.091	-0.074
-317.012	121.695	-0.103	0.127
-315.997	105.954	0.247	0.289
-314.983	266.791	0.060	-0.103
-313.968	93.118	0.019	0.021
-312.953	447.482	-0.119	0.259
-311.939	-160.226	0.290	-0.016
-310.924	-200.000	0.016	0.114
-309.910	-72.012	-0.214	-0.079
-308.895	747.153	0.048	-0.127
-307.880	800.000	-0.064	0.180
-306.866	-152.473	0.023	0.002
-305.851	-192.420	0.459	-0.004
-304.837	60.826	0.266	-0.261
-303.822	-82.013	0.237	-0.077
-302.807	800.000	0.029	-0.092
-301.793	-33.329	-0.336	-0.184
-300.778	245.814	0.137	-0.228
-299.764	130.247	0.158	-0.199
-298.749	-16.120	-0.174	-0.109
-297.735	39.352	-0.254	-0.225
-296.720	235.347	-0.058	-0.095
-295.705	-69.306	0.222	-0.084
-294.691	-162.307	0.184	0.009
-293.676	-32.251	0.123	0.068
-292.662	-141.115	0.215	0.022
-291.647	34.752	-0.035	0.030
-290.632	-134.688	0.148	0.018
-289.618	29.385	-0.211	0.177
-288.603	-106.983	0.109	-0.024
-287.589	296.783	0.109	0.198
-286.574	-200.000	-0.047	0.218
-285.559	258.832	0.087	0.147
-284.545	-200.000	-0.019	-0.276
-283.530	-186.087	-0.222	-0.003
-282.516	-65.135	0.319	-0.127
-281.501	800.000	-0.102	-0.323
-280.486	22.420	0.106	0.085
-279.472	-82.581	0.287	-0.092
-278.457	115.564	0.068	-0.082
-277.443	-101.520	0.266	0.064
-276.428	-135.953	0.017	-0.002
-275.413	-106.809	-0.334	0.073
-274.399	-200.000	0.003	-0.121
-273.384	-57.614	0.169	0.073
-272.370	-147.478	0.361	-0.030
-271.355	738.972	-0.073	-0.195
-270.340	-57.722	0.270	-0.116
-269.326	-200.000	-0.023	0.116
-268.311	2.759	0.116	-0.083
-267.297	-29.077	-0.086	0.049
-266.282	800.000	-0.045	-0.150
-265.267	-2.122	-0.145	0.101
-264.253	-200.000	0.015	0.228
-263.238	28.950	-0.146	0.122
-262.224	-82.881	-0.102	0.032
-261.209	546.306	0.022	0.052
-260.195	-200.000	0.014	-0.093
-259.180	86.313	0.074	-0.081
-258.165	75.492	-0.183	-0.190
-257.151	-200.000	-0.007	-0.041
-256.136	-164.458	-0.313	-0.014
-255.122	156.318	-0.180	-0.245
-254.107	800.000	0.031	0.121
-253.092	113.046	0.098	0.117
-252.078	-58.724	-0.086	0.037
-251.063	800.000	0.029	0.125
-250.049	-200.000	0.006	0.192
-249.034	28.183	-0.103	-0.086
-248.019	800.000	0.062	0.205
-247.005	-41.044	-0.230	0.117
-245.990	283.886	0.106	-0.189
-244.976	79.672	0.255	-0.269
-243.961	800.000	-0.103	0.351
-242.946	-134.706	-0.466	-0.056
-241.932	96.971	0.256	0.290
-240.917	-118.258	0.059	-0.010
-239.903	-67.964	-0.442	0.170
-238.888	8.817	-0.306	0.227
-237.873	418.774	0.122	0.257
-236.859	-41.584	0.096	0.049
-235.844	437.085	0.167	0.357
-234.830	-156.222	-0.386	0.024
-233.815	-37.934	0.406	-0.213
-232.800	-62.381	-0.293	-0.120
-231.786	-200.000	-0.015	-0.156
-230.771	126.462	-0.058	0.072
-229.757	-12.937	0.249	-0.160
-228.742	319.434	-0.160	0.298
-227.727	116.925	-0.116	0.140
-226.713	-36.775	-0.486	-0.257
-225.698	43.086	-0.055	-0.050
-224.684	-43.103	-0.209	0.104
-223.669	-25.756	-0.257	0.149
-222.655	130.165	0.122	0.154
-221.640	259.217	0.142	0.241
-220.625	-35.464	-0.091	-0.049
-219.611	90.072	0.154	-0.169
-218.596	-200.000	-0.027	-0.218
-217.582	-200.000	0.063	0.360
-216.567	-200.000	-0.017	0.099
-215.552	-102.714	-0.180	0.042
-214.538	800.000	-0.060	0.214
-213.523	218.568	-0.033	-0.052
-212.509	-45.493	-0.126	-0.062
-211.494	165.967	-0.108	-0.151
-210.479	441.182	-0.053	0.113
-209.465	26.270	-0.115	0.094
-208.450	800.000	0.007	-0.024
-207.436	124.520	-0.281	-0.348
-206.421	212.149	0.043	-0.066
-205.406	86.551	-0.098	-0.106
-204.392	-14.229	0.058	0.037
-203.377	-69.176	-0.420	-0.159
-202.363	71.577	0.177	0.181
-201.348	26.972	0.180	0.148
-200.333	-176.038	0.089	-0.002
-199.319	50.398	0.222	0.206
-198.304	800.000	-0.090	-0.359
-197.290	125.006	-0.160	-0.198
-196.275	-200.000	-0.029	0.364
-195.260	218.262	-0.044	0.069
-194.246	3.622	0.373	0.268
-193.231	704.781	-0.041	0.107
-192.217	209.386	0.119	0.184
-191.202	-140.539	-0.110	0.011
-190.187	800.000	0.146	-0.509
-189.173	-34.502	0.231	-0.124
-188.158	61.798	0.264	0.258
-187.144	-129.231	0.269	0.037
-186.129	208.146	0.094	-0.145
-185.114	415.154	-0.133	0.280
-184.100	-15.423	0.160	-0.100
-183.085	102.108	0.088	0.101
-182.071	-50.449	-0.061	0.029
-181.056	-95.524	0.210	0.055
-180.042	-111.856	0.129	-0.026
-179.027	-52.364	0.081	0.037
-178.012	209.282	0.114	0.175
-176.998	43.517	0.305	0.274
-175.983	800.000	0.068	0.207
-174.969	-89.215	0.084	-0.024
-173.954	153.695	-0.160	0.216
-172.939	-120.681	-0.100	0.017
-171.925	-128.973	-0.143	0.020
-170.910	-100.017	-0.320	-0.078
-169.896	-200.000	0.009	0.083
-168.881	-168.178	0.265	-0.010
-167.866	26.894	0.076	0.062
-166.852	528.905	0.074	-0.171
-165.837	-127.503	-0.172	-0.025
-164.823	-200.000	-0.017	-0.083
-163.808	594.582	0.029	0.070
-162.793	-32.214	0.123	-0.068
-161.779	-188.608	-0.126	0.002
-160.764	-38.045	-0.281	0.147
-159.750	-70.073	-0.089	0.033
-158.735	79.437	0.181	0.191
-157.720	-200.000	-0.024	0.112
-156.706	-18.369	-0.396	-0.243
-155.691	14.127	0.181	0.138
-154.677	-76.047	0.203	0.070
-153.662	-200.000	0.009	0.040
-152.647	297.594	-0.124	0.223
-151.633	513.677	-0.105	0.240
-150.618	-52.388	-0.297	0.135
-149.604	800.000	-0.074	0.209
-148.589	-9.766	-0.277	0.181
-147.574	-133.910	0.346	0.042
-146.560	66.371	-0.052	0.052
-145.545	-200.000	-0.012	-0.485
-144.531	30.354	0.264	-0.222
-143.516	394.543	-0.107	-0.219
-142.502	130.253	0.148	-0.186
-141.487	135.171	0.152	0.194
-140.472	-151.609	0.127	0.009
-139.458	285.823	0.040	0.071
-138.443	-200.000	-0.084	0.408
-137.429	-200.000	-0.036	-0.196
-136.414	-89.367	-0.041	-0.012
-135.399	509.759	0.131	0.298
-134.385	-200.000	-0.005	-0.088
-133.370	800.000	0.057	0.242
-132.356	101.508	0.318	0.364
-131.341	-200.000	0.088	0.424
-130.326	197.353	-0.070	-0.105
-129.312	780.267	0.198	0.533
-128.297	179.697	-0.242	0.347
-127.283	-174.229	-0.059	0.002
-126.268	-59.172	-0.249	0.105
-125.253	68.825	0.048	-0.048
-124.239	62.674	0.152	-0.149
-123.224	399.282	0.050	0.104
-122.210	429.291	0.124	0.262
-121.195	-12.114	-0.369	-0.237
-120.180	82.233	-0.206	-0.219
-119.166	-200.000	-0.045	-0.214
-118.151	-89.519	0.326	-0.094
-117.137	-106.061	-0.112	0.025
-116.122	-102.010	-0.126	0.030
-115.107	-200.000	0.013	0.241
-114.093	601.390	-0.119	-0.290
-113.078	73.726	-0.260	0.267
-112.064	-3.054	-0.271	-0.186
-111.049	-6.867	0.098	0.065
-110.034	29.153	0.296	-0.246
-109.020	153.900	-0.130	-0.174
-108.005	0.718	0.236	0.165
-106.991	132.934	-0.203	0.257
-105.976	-200.000	-0.000	-0.186
-104.962	800.000	-0.101	0.387
-103.947	800.000	-0.159	-0.431
-102.932	117.687	-0.068	-0.082
-101.918	-200.000	-0.088	0.422
-100.903	281.390	-0.174	-0.306
-99.889	800.000	-0.058	-0.231
-98.874	794.865	0.036	0.098
-97.859	800.000	-0.008	0.034
-96.845	168.987	0.167	-0.234
-95.830	-65.663	0.272	0.107
-94.816	525.753	-0.082	0.189
-93.801	311.589	-0.074	-0.135
-92.786	-200.000	-0.046	0.484
-91.772	-65.665	-0.063	-0.025
-90.757	800.000	-0.105	0.308
-89.743	-200.000	-0.017	0.169
-88.728	4.254	0.139	-0.100
-87.713	-180.170	-0.251	0.005
-86.699	-200.000	-0.002	0.161
-85.684	8.612	0.327	0.241
-84.670	-51.661	-0.017	-0.008
-83.655	-200.000	-0.094	0.414
-82.640	-200.000	-0.052	-0.300
-81.626	800.000	-0.065	-0.268
-80.611	259.919	0.083	-0.141
-79.597	-84.792	0.289	0.089
-78.582	-82.344	-0.375	0.119
-77.567	-200.000	0.006	-0.201
-76.553	690.442	0.177	-0.452
-75.538	111.022	0.086	0.102
-74.524	800.000	0.010	0.033
-73.509	-119.617	-0.114	-0.019
-72.494	14.768	0.174	-0.133
-71.480	288.462	0.014	0.026
-70.465	205.967	0.081	-0.123
-69.451	433.897	-0.052	-0.111
-68.436	800.000	0.017	-0.051
-67.422	-139.601	0.402	-0.042
-66.407	-63.561	0.197	-0.079
-65.392	-200.000	0.024	0.293
-64.378	-200.000	-0.049	0.289
-63.363	20.409	-0.187	-0.148
-62.349	800.000	-0.059	-0.161
-61.334	167.196	-0.974	-1.353
-60.319	182.070	0.415	0.598
-59.305	595.411	-0.376	-0.911
-58.290	688.971	0.501	1.282
-57.276	800.000	0.497	1.572
-56.261	-200.000	109.140	664.853
-55.246	521.061	1467.277	3366.222
-54.232	152.822	2636.373	3524.125
-53.217	102.425	2265.451	2589.975
-52.203	38.304	1887.186	1643.639
-51.188	32.347	1681.976	1420.043
-50.173	29.744	1640.345	1365.646
-49.159	53.304	1693.338	1586.633
-48.144	52.697	1708.460	1596.212
-47.130	32.176	1667.526	1406.343
-46.115	29.226	1653.434	1372.468
-45.100	29.029	1648.707	1367.022
-44.086	29.035	1646.374	1365.078
-43.071	29.031	1643.805	1362.862
-42.057	29.002	1641.610	1360.779
-41.042	29.087	1639.716	1359.782
-40.027	29.026	1637.935	1357.798
-39.013	29.029	1635.753	1355.955
-37.998	28.959	1634.663	1354.485
-36.984	29.016	1633.361	1353.773
-35.969	29.158	1631.246	1353.010
-34.954	29.151	1629.705	1351.624
-33.940	29.143	1628.502	1350.516
-32.925	29.100	1626.436	1348.435
-31.911	29.095	1624.807	1346.990
-30.896	29.166	1623.228	1346.154
-29.881	29.162	1621.468	1344.608
-28.867	29.145	1619.882	1343.118
-27.852	29.136	1618.642	1341.968
-26.838	29.140	1616.920	1340.514
-25.823	29.150	1616.043	1339.806
-24.809	29.200	1614.775	1339.068
-23.794	29.109	1613.510	1337.303
-22.779	29.171	1612.209	1336.621
-21.765	29.130	1610.050	1334.486
-20.750	29.169	1608.603	1333.517
-19.736	29.172	1607.803	1332.819
-18.721	29.207	1605.963	1331.492
-17.706	29.194	1604.676	1330.281
-16.692	29.178	1603.022	1328.739
-15.677	29.180	1601.590	1327.518
-14.663	29.162	1600.642	1326.550
-13.648	29.253	1599.130	1325.895
-12.633	29.184	1597.670	1324.139
-11.619	29.271	1595.910	1323.254
-10.604	29.219	1594.297	1321.488
-9.590	29.265	1592.842	1320.557
-8.575	29.261	1591.782	1319.601
-7.560	29.321	1590.828	1319.183
-6.546	29.174	1589.960	1317.361
-5.531	29.190	1588.593	1316.290
-4.517	29.187	1587.666	1315.450
-3.502	29.206	1586.795	1314.813
-2.487	29.293	1584.726	1313.665
-1.473	28.621	1572.081	1298.376
-0.458	24.831	1551.430	1254.756
0.556	18.645	1550.318	1213.765
1.571	15.655	1572.827	1209.789
2.586	15.136	1584.423	1214.837
3.600	13.741	1532.746	1165.314
4.615	7.816	1427.287	1046.176
5.629	1.584	1366.286	962.053
6.644	0.294	1358.392	948.295
7.659	0.179	1356.892	946.441
8.673	0.214	1355.787	945.807
9.688	0.133	1354.032	943.992
10.702	-0.003	1350.691	940.726
11.717	2.935	1355.076	962.121
12.731	10.300	1366.281	1016.366
13.746	15.984	1373.406	1057.345
14.761	16.994	1374.414	1064.364
15.775	16.305	1372.551	1058.513
16.790	15.261	1370.066	1049.962
17.804	14.542	1367.598	1043.484
18.819	14.168	1366.153	1039.952
19.834	13.856	1364.892	1036.950
20.848	13.706	1363.465	1034.836
21.863	13.336	1362.936	1032.036
22.877	13.282	1361.022	1030.163
23.892	13.133	1360.471	1028.721
24.907	13.115	1359.557	1027.830
25.921	13.163	1358.806	1027.470
26.936	13.261	1357.976	1027.359
27.950	13.329	1356.736	1026.752
28.965	13.409	1355.732	1026.401
29.980	13.423	1354.900	1025.767
30.994	13.420	1354.195	1025.120
32.009	13.419	1353.228	1024.295
33.023	13.515	1351.581	1023.549
34.038	13.435	1350.429	1022.093
35.053	13.436	1349.200	1021.080
36.067	13.388	1348.269	1019.988
37.082	13.343	1347.593	1019.105
38.096	13.390	1346.564	1018.531
39.111	13.435	1346.205	1018.445
40.126	13.298	1345.269	1016.803
41.140	13.249	1344.535	1015.857
42.155	13.242	1344.008	1015.327
43.169	13.218	1343.637	1014.809
44.184	13.186	1343.147	1014.150
45.199	13.172	1343.040	1013.896
46.213	13.232	1342.506	1013.773
47.228	13.263	1341.600	1013.189
48.242	13.345	1340.061	1012.437
49.257	13.329	1338.655	1011.190
50.271	13.313	1337.137	1009.852
51.286	13.306	1336.134	1008.966
52.301	13.353	1334.214	1007.711
53.315	13.270	1333.989	1006.948
54.330	13.252	1332.798	1005.851
55.344	13.271	1331.308	1004.751
56.359	13.353	1330.368	1004.452
57.374	13.154	1329.837	1002.754
58.388	13.112	1328.972	1001.760
59.403	13.099	1328.974	1001.590
60.417	13.129	1327.781	1000.785
61.432	13.078	1327.381	1000.087
62.447	13.147	1325.675	999.133
63.461	13.104	1324.701	998.048
64.476	13.057	1323.863	997.047
65.490	13.138	1322.386	996.333
66.505	13.158	1320.680	995.082
67.520	13.159	1319.490	994.100
68.534	13.164	1318.481	993.281
69.549	13.165	1317.303	992.315
70.563	13.268	1316.160	991.982
71.578	13.128	1315.305	990.415
72.593	13.052	1314.616	989.352
73.607	13.016	1313.673	988.334
74.622	13.062	1312.977	988.003
75.636	12.980	1312.791	987.283
76.651	13.009	1311.906	986.701
77.666	13.021	1310.983	985.994
78.680	13.125	1310.498	986.161
79.695	13.106	1309.681	985.349
80.709	13.141	1309.026	984.976
81.724	13.219	1307.492	984.198
82.739	13.299	1306.843	984.102
83.753	13.232	1306.111	983.063
84.768	13.250	1304.865	982.145
85.782	13.406	1303.611	982.039
86.797	13.270	1302.677	980.444
87.812	13.175	1301.359	978.804
88.826	13.245	1300.063	978.154
89.841	13.366	1298.857	977.876
90.855	13.277	1297.883	976.530
91.870	13.403	1296.911	976.455
92.884	13.366	1296.163	975.587
93.899	13.227	1295.782	974.394
94.914	13.445	1294.673	974.759
95.928	13.451	1293.633	973.928
96.943	13.383	1293.247	973.152
97.957	13.385	1292.108	972.219
98.972	13.352	1291.188	971.247
99.987	13.310	1290.068	970.073
101.001	13.349	1288.841	969.292
102.016	13.366	1287.971	968.652
103.030	13.383	1287.108	968.014
104.045	13.391	1286.180	967.277
105.060	13.459	1284.620	966.413
106.074	13.353	1283.770	965.075
107.089	13.261	1282.089	963.190
108.103	13.161	1281.422	962.018
109.118	13.189	1280.201	961.179
110.133	13.239	1278.692	960.252
111.147	13.227	1277.326	959.074
112.162	13.278	1275.748	958.100
113.176	13.303	1275.147	957.708
114.191	13.342	1274.233	957.159
115.206	13.268	1273.146	955.834
116.220	13.299	1272.056	955.110
117.235	13.273	1270.701	953.859
118.249	13.218	1269.853	952.817
119.264	13.333	1268.267	952.207
120.279	13.191	1267.740	950.912
121.293	13.238	1267.001	950.540
122.308	13.235	1265.655	949.432
123.322	13.256	1264.640	948.708
124.337	13.279	1263.045	947.556
125.352	13.152	1262.535	946.362
126.366	13.247	1261.324	945.913
127.381	13.166	1260.465	944.723
128.395	13.346	1258.889	944.488
129.410	13.253	1258.410	943.512
130.424	13.233	1257.589	942.701
131.439	13.311	1256.302	942.094
132.454	13.256	1255.935	941.424
133.468	13.333	1254.854	940.969
134.483	13.249	1254.002	939.768
135.497	13.298	1253.066	939.261
136.512	13.235	1251.852	937.912
137.527	13.254	1250.436	936.874
138.541	13.232	1248.860	935.488
139.556	13.291	1247.628	934.816
140.570	13.313	1246.718	934.174
141.585	13.378	1245.608	933.629
142.600	13.361	1244.500	932.617
143.614	13.485	1243.818	932.725
144.629	13.563	1242.466	932.067
145.643	13.419	1241.523	930.468
146.658	13.424	1240.329	929.521
147.673	13.372	1238.963	928.119
148.687	13.457	1237.670	927.546
149.702	13.345	1236.602	926.039
150.716	13.327	1235.066	924.703
151.731	13.446	1233.799	924.340
152.746	13.402	1232.998	923.412
153.760	13.497	1231.258	922.556
154.775	13.461	1230.515	921.716
155.789	13.523	1229.327	921.088
156.804	13.458	1228.633	920.130
157.819	13.435	1227.831	919.318
158.833	13.545	1226.926	919.172
159.848	13.580	1225.293	918.059
160.862	13.589	1224.497	917.432
161.877	13.454	1223.704	916.010
162.892	13.440	1222.872	915.227
163.906	13.421	1221.741	914.193
164.921	13.452	1220.776	913.562
165.935	13.514	1219.948	913.205
166.950	13.565	1219.300	912.921
167.964	13.481	1218.886	912.068
168.979	13.591	1217.683	911.690
169.994	13.625	1216.767	911.109
171.008	13.652	1216.213	910.763
172.023	13.667	1215.712	910.389
173.037	13.689	1214.680	909.655
174.052	13.667	1213.626	908.670
175.067	13.630	1212.548	907.578
176.081	13.653	1211.618	906.926
177.096	13.580	1210.592	905.677
178.110	13.649	1209.625	905.251
179.125	13.617	1208.527	904.174
180.140	13.679	1206.957	903.261
181.154	13.610	1205.982	902.075
182.169	13.677	1204.855	901.515
183.183	13.757	1203.308	900.710
184.198	13.733	1202.838	900.152
185.213	13.790	1201.231	899.178
186.227	13.826	1199.998	898.372
187.242	13.895	1199.078	897.974
188.256	13.944	1197.923	897.295
189.271	13.979	1196.866	896.614
190.286	13.822	1196.174	895.171
191.300	13.660	1195.423	893.654
192.315	13.746	1194.955	893.688
193.329	13.816	1194.075	893.327
194.344	13.751	1193.377	892.377
195.359	13.797	1192.941	892.220
196.373	13.836	1192.054	891.689
197.388	13.904	1191.817	891.797
198.402	13.860	1191.537	891.271
199.417	14.072	1190.351	891.444
200.432	14.007	1189.904	890.678
201.446	14.122	1188.811	890.400
202.461	14.109	1187.468	889.246
203.475	14.234	1186.191	888.877
204.490	14.140	1185.122	887.495
205.504	14.120	1184.437	886.796
206.519	14.003	1183.154	885.134
207.534	13.994	1182.260	884.340
208.548	13.960	1181.250	883.326
209.563	14.154	1180.345	883.600
210.577	14.100	1179.487	882.593
211.592	14.120	1178.833	882.136
212.607	14.229	1178.080	882.073
213.621	14.163	1177.297	881.057
214.636	14.192	1176.170	880.287
215.650	14.178	1174.819	879.123
216.665	14.257	1174.056	878.895
217.680	14.324	1173.166	878.505
218.694	14.221	1172.764	877.579
219.709	14.327	1171.765	877.315
220.723	14.262	1171.421	876.639
221.738	14.245	1170.898	876.080
222.753	14.281	1169.773	875.348
223.767	14.354	1169.400	875.377
224.782	14.362	1168.797	874.889
225.796	14.502	1167.981	874.933
226.811	14.445	1166.923	873.764
227.826	14.386	1166.815	873.298
228.840	14.373	1165.550	872.208
229.855	14.437	1164.817	871.917
230.869	14.409	1164.281	871.293
231.884	14.251	1163.763	870.000
232.899	14.364	1162.622	869.659
233.913	14.401	1161.923	869.252
234.928	14.406	1161.355	868.777
235.942	14.422	1160.829	868.389
236.957	14.407	1159.740	867.423
237.972	14.376	1159.135	866.730
238.986	14.431	1158.266	866.289
240.001	14.458	1157.751	865.971
241.015	14.502	1156.285	865.022
242.030	14.351	1156.404	864.251
243.045	14.440	1155.032	863.613
244.059	14.624	1153.977	863.698
245.074	14.575	1153.741	863.195
246.088	14.611	1152.495	862.369
247.103	14.575	1151.731	861.537
248.117	14.725	1151.351	861.950
249.132	14.664	1150.670	861.050
250.147	14.702	1149.982	860.657
251.161	14.834	1149.058	860.565
252.176	14.807	1148.437	859.885
253.190	14.817	1148.011	859.544
254.205	14.898	1147.304	859.353
255.220	14.838	1146.999	858.743
256.234	14.884	1145.862	858.051
257.249	14.985	1145.095	857.919
258.263	14.891	1144.997	857.288
259.278	14.961	1143.986	856.814
260.293	14.940	1143.452	856.227
261.307	14.953	1143.101	855.957
262.322	14.936	1142.534	855.368
263.336	15.073	1141.556	855.261
264.351	15.102	1140.867	854.816
265.366	15.095	1140.073	854.113
266.380	15.075	1139.753	853.693
267.395	15.026	1138.775	852.638
268.409	14.973	1138.430	852.032
269.424	14.903	1138.139	851.382
270.439	15.043	1137.084	851.231
271.453	15.061	1136.150	850.546
272.468	15.071	1135.238	849.839
273.482	15.029	1134.709	849.157
274.497	15.046	1134.663	849.134
275.512	15.165	1133.529	848.811
276.526	15.097	1132.646	847.732
277.541	15.109	1131.883	847.144
278.555	15.144	1131.397	846.883
279.570	15.162	1130.358	846.124
280.585	15.286	1129.661	846.150
281.599	15.276	1128.841	845.410
282.614	15.265	1127.745	844.459
283.628	15.183	1126.884	843.326
284.643	15.306	1125.574	842.890
285.657	15.201	1125.152	841.972
286.672	15.338	1124.252	841.912
287.687	15.340	1123.603	841.362
288.701	15.251	1122.699	840.165
289.716	15.276	1121.979	839.679
290.730	15.437	1120.829	839.549
291.745	15.451	1120.265	839.121
292.760	15.300	1119.677	837.853
293.774	15.472	1119.033	838.157
294.789	15.486	1118.497	837.750
295.803	15.452	1117.868	837.033
296.818	15.522	1117.219	836.821
297.833	15.524	1116.337	836.097
298.847	15.508	1115.825	835.564
299.862	15.487	1114.574	834.447
300.876	15.511	1114.359	834.331
301.891	15.530	1113.760	833.902
302.906	15.581	1112.903	833.440
303.920	15.649	1112.324	833.272
304.935	15.836	1111.093	833.202
305.949	15.825	1110.490	832.620
306.964	15.689	1110.281	831.719
307.979	15.576	1109.985	830.863
308.993	15.638	1109.057	830.403
310.008	15.686	1107.915	829.711
311.022	15.664	1107.343	829.098
312.037	15.710	1106.469	828.599
313.052	15.651	1105.734	827.685
314.066	15.666	1104.902	827.062
315.081	15.684	1103.971	826.381
316.095	15.668	1103.479	825.857
317.110	15.686	1102.618	825.229
318.125	15.672	1101.650	824.362
319.139	15.718	1100.616	823.742
320.154	15.689	1100.465	823.418
321.168	15.591	1100.005	822.521
322.183	15.781	1099.341	822.879
323.197	15.794	1098.525	822.257
324.212	15.702	1097.853	821.234
325.227	15.856	1097.172	821.403
326.241	15.807	1096.522	820.604
327.256	15.840	1095.832	820.175
328.270	15.755	1094.952	819.034
329.285	15.896	1094.009	818.938
330.300	15.884	1093.343	818.310
331.314	15.879	1092.128	817.304
332.329	15.813	1091.353	816.330
333.343	15.819	1090.618	815.741
334.358	15.943	1089.521	815.444
335.373	15.895	1089.101	814.827
336.387	15.909	1088.211	814.157
337.402	15.995	1087.270	813.795
338.416	16.010	1086.866	813.493
339.431	16.006	1086.618	813.217
340.446	16.053	1085.771	812.737
341.460	16.094	1085.163	812.410
342.475	16.115	1084.150	811.682
343.489	16.216	1082.930	811.179
344.504	16.239	1082.091	810.592
345.519	16.252	1081.660	810.260
346.533	16.296	1080.517	809.540
347.548	16.305	1079.722	808.917
348.562	16.262	1079.107	808.177
349.577	16.271	1078.163	807.445
350.592	16.169	1077.504	806.393
351.606	16.213	1076.744	805.963
352.621	16.132	1076.737	805.497
353.635	16.215	1075.835	805.148
354.650	16.184	1074.896	804.227
355.665	16.366	1074.371	804.630
356.679	16.274	1073.542	803.499
357.694	16.418	1073.283	803.918
358.708	16.442	1072.107	803.079
359.723	16.446	1071.631	802.672
360.738	16.366	1071.350	802.009
361.752	16.385	1070.748	801.580
362.767	16.405	1069.914	800.979
363.781	16.420	1069.368	800.571
364.796	16.440	1069.071	800.373
365.810	16.505	1068.244	799.991
366.825	16.571	1067.627	799.769
367.840	16.560	1067.416	799.488
368.854	16.559	1066.510	798.737
369.869	16.691	1065.831	798.777
370.883	16.616	1064.929	797.677
371.898	16.604	1063.994	796.850
372.913	16.600	1063.390	796.310
373.927	16.557	1063.250	795.933
374.942	16.748	1062.602	796.272
375.956	16.677	1062.289	795.635
376.971	16.722	1061.101	794.886
377.986	16.671	1061.077	794.560
379.000	16.814	1060.483	794.712
380.015	16.773	1059.998	794.087
381.029	16.747	1059.556	793.567
382.044	16.674	1059.155	792.851
383.059	16.757	1058.196	792.453
384.073	16.933	1057.021	792.326
385.088	16.855	1056.228	791.298
386.102	16.840	1055.432	790.559
387.117	16.835	1054.479	789.753
388.132	16.945	1053.062	789.135
389.146	16.839	1052.623	788.244
390.161	16.804	1052.351	787.804
391.175	16.802	1051.643	787.197
392.190	16.992	1050.709	787.311
393.205	16.908	1049.836	786.196
394.219	17.041	1049.247	786.300
395.234	16.932	1048.346	785.053
396.248	16.948	1047.349	784.313
397.263	16.856	1046.490	783.175
398.278	16.879	1045.731	782.641
399.292	16.790	1045.223	781.783
400.307	16.857	1044.830	781.726
401.321	16.858	1044.083	781.106
402.336	16.872	1043.416	780.599
403.350	17.015	1042.433	780.456
404.365	17.073	1041.789	780.168
405.380	16.972	1041.134	779.144
406.394	16.996	1040.430	778.658
407.409	17.042	1039.733	778.280
408.423	17.196	1038.883	778.279
409.438	17.266	1037.945	777.828
410.453	17.194	1037.605	777.176
411.467	17.283	1036.858	776.954
412.482	17.357	1036.244	776.762
413.496	17.257	1035.419	775.621
414.511	17.315	1035.076	775.559
415.526	17.207	1034.903	774.871
416.540	17.347	1034.366	775.035
417.555	17.374	1033.595	774.515
418.569	17.363	1033.308	774.182
419.584	17.452	1032.217	773.698
420.599	17.381	1032.325	773.387
421.613	105.660	1323.551	1476.205
422.628	96.806	1365.916	1476.304
