DTS Sentinel unit serial number:	SN413079Multiplexer serial number:	ORYXHardware model number:	OX4-SRSoftware version number:	ORYX F/W v4.00 Oryx Data Collector v3.7.2.0data status	okinstallation	princeton_trtdifferential loss correction	single-endedforward channel	channel 2reverse channel	N/Adate	2019/09/17time	09:59:35forward acquisition time	60.00reverse acquisition time	0.00gamma	496.2192k internal	0.2327k external	0.2327temperature offset calibration	0.9978default loss term (dB/km)	0.3790temperature slope calibration	1.0000multiplexer offset coefficient	1.0000multiplexer slope coefficient	1.0000fibre end	0.00T internal ref (°C)	29.62T ext. ref 1 (°C)	0.18T ext. ref 2 (°C)	25.28length (m)	temperature (°C)	Stokes	anti-Stokes-747.200	800.000	-0.117	-0.341
-746.185	51.720	-0.251	-0.241
-745.171	-34.184	0.228	-0.126
-744.156	-127.744	-0.363	-0.053
-743.142	160.605	0.047	0.066
-742.127	-200.000	0.006	0.136
-741.112	-48.610	0.281	0.136
-740.098	130.063	-0.178	0.230
-739.083	56.248	0.162	0.159
-738.069	186.770	0.111	0.167
-737.054	-200.000	-0.016	0.403
-736.039	-15.433	-0.332	0.213
-735.025	-107.003	0.302	0.067
-734.010	-200.000	-0.054	0.240
-732.996	42.041	-0.298	0.273
-731.981	800.000	-0.040	0.167
-730.966	24.536	0.020	0.017
-729.952	-156.806	-0.386	-0.024
-728.937	478.762	-0.191	-0.435
-727.923	-200.000	0.112	-0.536
-726.908	220.971	-0.031	0.050
-725.894	-107.684	-0.158	0.035
-724.879	-76.578	0.322	0.114
-723.864	-129.502	0.103	-0.014
-722.850	-79.773	-0.082	0.028
-721.835	63.976	0.099	-0.101
-720.821	96.147	0.200	0.230
-719.806	-85.907	-0.398	0.124
-718.791	-72.136	-0.377	-0.141
-717.777	-24.303	0.118	0.071
-716.762	114.787	0.047	0.058
-715.748	800.000	-0.089	-0.259
-714.733	-43.414	-0.215	-0.110
-713.718	-176.621	-0.094	-0.002
-712.704	118.227	0.215	-0.267
-711.689	-136.966	0.090	0.010
-710.675	272.372	-0.076	0.136
-709.660	79.767	0.052	-0.057
-708.645	800.000	0.011	0.032
-707.631	-105.955	0.308	-0.070
-706.616	22.556	0.286	-0.236
-705.602	-40.974	0.260	0.135
-704.587	-176.731	-0.124	-0.003
-703.572	406.041	0.037	0.080
-702.558	-69.975	0.185	0.071
-701.543	-138.313	0.310	-0.034
-700.529	79.030	0.020	0.021
-699.514	-114.455	-0.226	0.044
-698.499	120.389	0.292	-0.365
-697.485	-12.933	-0.084	-0.055
-696.470	-25.120	-0.319	-0.190
-695.456	28.342	-0.198	-0.169
-694.441	-184.261	-0.147	-0.002
-693.426	143.189	0.111	-0.148
-692.412	16.077	0.046	0.037
-691.397	-122.997	-0.525	-0.085
-690.383	-171.122	-0.368	0.013
-689.368	800.000	0.024	-0.097
-688.354	494.611	0.075	0.174
-687.339	186.303	-0.114	-0.171
-686.324	-200.000	-0.027	0.313
-685.310	-94.353	-0.302	-0.083
-684.295	800.000	-0.021	0.071
-683.281	-88.097	-0.240	0.072
-682.266	488.936	0.183	0.421
-681.251	113.443	0.263	0.321
-680.237	-141.191	0.163	0.017
-679.222	64.187	-0.216	-0.219
-678.208	-131.215	0.322	-0.043
-677.193	-182.133	0.128	-0.002
-676.178	46.378	0.147	-0.137
-675.164	-200.000	-0.070	-0.310
-674.149	237.526	0.155	-0.258
-673.135	82.140	-0.009	0.009
-672.120	93.350	0.153	0.174
-671.105	-60.080	-0.122	-0.052
-670.091	273.717	0.144	-0.256
-669.076	800.000	0.044	0.181
-668.062	-128.396	-0.309	-0.044
-667.047	32.849	-0.206	-0.179
-666.032	222.344	-0.113	-0.182
-665.018	-200.000	0.004	0.064
-664.003	-18.259	-0.245	0.154
-662.989	137.241	-0.151	-0.198
-661.974	-68.151	0.090	-0.035
-660.959	-78.561	-0.186	-0.064
-659.945	-200.000	0.013	0.170
-658.930	-136.887	-0.190	0.022
-657.916	244.123	0.086	0.145
-656.901	595.303	0.065	0.162
-655.886	-126.001	0.101	-0.015
-654.872	-147.497	-0.315	-0.027
-653.857	13.048	-0.348	0.271
-652.843	-126.387	-0.040	-0.006
-651.828	-58.289	0.149	-0.065
-650.814	-30.266	-0.119	-0.068
-649.799	-0.542	-0.187	-0.134
-648.784	-200.000	0.021	0.163
-647.770	-88.785	-0.161	0.048
-646.755	136.518	0.051	-0.067
-645.741	-98.609	0.180	0.046
-644.726	-26.390	-0.190	-0.112
-643.711	37.828	-0.068	-0.061
-642.697	800.000	0.002	0.006
-641.682	-75.266	0.187	-0.067
-640.668	-200.000	0.008	-0.052
-639.653	-183.793	-0.100	0.002
-638.638	-200.000	-0.007	0.055
-637.624	800.000	0.045	0.150
-636.609	800.000	0.013	-0.054
-635.595	574.080	0.104	-0.254
-634.580	98.663	-0.072	0.084
-633.565	175.006	0.047	0.069
-632.551	-29.048	0.146	0.084
-631.536	37.912	0.281	-0.250
-630.522	3.779	0.022	0.016
-629.507	30.444	-0.233	0.200
-628.492	-179.551	0.158	-0.003
-627.478	-119.915	-0.216	0.037
-626.463	-64.897	0.123	-0.050
-625.449	-89.195	-0.397	0.118
-624.434	642.124	-0.099	0.253
-623.419	94.326	-0.354	-0.404
-622.405	269.775	-0.080	0.140
-621.390	465.873	-0.145	-0.326
-620.376	29.232	0.130	-0.110
-619.361	-200.000	-0.002	-0.265
-618.346	-52.094	-0.080	0.037
-617.332	230.146	0.191	0.314
-616.317	39.114	0.055	-0.050
-615.303	307.660	-0.137	0.256
-614.288	-6.904	0.235	0.160
-613.273	-88.606	-0.059	0.018
-612.259	-117.542	-0.231	-0.042
-611.244	181.801	0.055	0.082
-610.230	-32.271	0.114	0.064
-609.215	538.446	-0.020	0.048
-608.201	-200.000	0.011	-0.205
-607.186	-200.000	0.008	-0.293
-606.171	158.968	0.171	0.238
-605.157	258.780	0.086	0.148
-604.142	800.000	0.040	0.155
-603.128	-136.114	-0.175	-0.021
-602.113	-129.420	0.177	0.025
-601.098	-39.216	-0.117	-0.061
-600.084	168.115	0.036	-0.051
-599.069	800.000	-0.062	0.198
-598.055	-150.626	-0.143	0.011
-597.040	-200.000	0.002	0.252
-596.025	-73.493	-0.072	-0.026
-595.011	1.721	-0.180	0.130
-593.996	-22.506	-0.223	-0.135
-592.982	29.796	-0.163	0.139
-591.967	682.171	0.041	0.107
-590.952	24.780	0.141	0.117
-589.938	65.139	-0.377	-0.382
-588.923	0.598	-0.142	0.102
-587.909	-152.898	0.464	0.033
-586.894	250.589	-0.199	-0.338
-585.879	131.291	0.037	-0.048
-584.865	-7.348	0.078	0.053
-583.850	-9.138	0.326	-0.218
-582.836	800.000	0.042	0.171
-581.821	66.874	-0.346	0.353
-580.806	-131.699	-0.138	0.018
-579.792	-117.212	0.136	-0.025
-578.777	13.449	0.234	-0.182
-577.763	195.412	0.122	0.185
-576.748	800.000	0.039	-0.119
-575.733	6.654	0.176	-0.131
-574.719	437.741	0.186	-0.407
-573.704	-6.990	0.192	-0.131
-572.690	21.572	-0.093	-0.076
-571.675	631.710	0.077	-0.197
-570.661	-200.000	0.024	0.139
-569.646	800.000	0.024	-0.079
-568.631	800.000	0.028	-0.094
-567.617	-200.000	-0.027	-0.260
-566.602	-30.129	-0.339	0.193
-565.588	800.000	0.055	-0.193
-564.573	-124.076	0.147	0.023
-563.558	800.000	-0.087	-0.352
-562.544	3.702	-0.236	-0.172
-561.529	391.699	-0.157	-0.327
-560.515	-200.000	0.006	-0.425
-559.500	-2.606	-0.262	0.183
-558.485	800.000	-0.048	0.176
-557.471	-60.554	0.371	-0.158
-556.456	99.203	0.069	-0.080
-555.442	800.000	-0.075	-0.224
-554.427	88.546	-0.054	-0.060
-553.412	-200.000	-0.014	-0.139
-552.398	181.011	0.283	-0.417
-551.383	45.446	0.159	0.147
-550.369	227.995	0.024	0.039
-549.354	-63.397	-0.145	-0.060
-548.339	-200.000	-0.112	-0.569
-547.325	87.220	-0.208	-0.230
-546.310	785.739	-0.128	0.351
-545.296	-159.991	-0.270	-0.015
-544.281	-7.578	0.209	0.141
-543.266	-139.338	0.293	0.032
-542.252	195.494	0.151	0.229
-541.237	11.131	-0.107	0.082
-540.223	-72.907	-0.208	0.076
-539.208	50.747	0.015	-0.014
-538.193	-28.750	-0.157	0.090
-537.179	-200.000	-0.008	-0.078
-536.164	-37.800	0.112	-0.060
-535.150	3.816	-0.209	-0.152
-534.135	61.377	0.272	0.270
-533.121	-200.000	0.023	0.238
-532.106	-152.405	-0.207	-0.015
-531.091	-120.491	-0.391	-0.066
-530.077	-67.375	-0.126	0.049
-529.062	-200.000	0.006	-0.199
-528.048	-138.630	0.254	0.028
-527.033	-200.000	0.013	-0.159
-526.018	-74.692	0.076	-0.027
-525.004	362.715	0.125	-0.251
-523.989	-200.000	0.019	-0.180
-522.975	7.510	-0.265	0.198
-521.960	438.114	0.129	0.280
-520.945	-87.213	0.256	0.078
-519.931	603.316	0.108	-0.268
-518.916	69.487	-0.164	0.169
-517.902	800.000	-0.020	-0.085
-516.887	326.789	0.090	0.172
-515.872	-200.000	-0.047	-0.296
-514.858	-48.644	-0.259	0.124
-513.843	-200.000	-0.055	0.243
-512.829	-168.080	-0.127	-0.005
-511.814	-179.661	0.195	0.004
-510.799	477.821	-0.123	-0.278
-509.785	251.999	0.294	-0.500
-508.770	32.267	0.083	0.071
-507.756	64.823	0.275	0.277
-506.741	-60.899	-0.122	0.051
-505.726	800.000	-0.036	0.129
-504.712	-79.660	0.190	0.064
-503.697	12.856	0.198	0.153
-502.683	-200.000	-0.023	0.152
-501.668	-104.562	-0.283	-0.065
-500.653	441.906	-0.087	0.191
-499.639	3.366	-0.261	0.190
-498.624	-103.685	0.030	0.007
-497.610	308.347	0.089	-0.166
-496.595	32.093	-0.185	0.160
-495.581	295.719	-0.101	0.184
-494.566	-122.936	-0.108	0.017
-493.551	8.548	-0.078	-0.059
-492.537	-131.571	-0.110	-0.014
-491.522	-43.266	-0.171	-0.086
-490.508	11.759	0.286	0.220
-489.493	235.506	0.178	0.293
-488.478	32.120	0.111	-0.096
-487.464	800.000	0.028	0.115
-486.449	60.525	-0.088	0.087
-485.435	-200.000	-0.031	-0.171
-484.420	19.666	-0.309	-0.248
-483.405	103.876	-0.211	0.247
-482.391	800.000	-0.016	0.045
-481.376	56.097	-0.173	-0.168
-480.362	-112.959	0.236	0.047
-479.347	-87.698	-0.218	-0.066
-478.332	-200.000	-0.043	-0.221
-477.318	-35.112	0.054	-0.029
-476.303	-84.962	-0.086	0.027
-475.289	-95.060	-0.061	-0.016
-474.274	800.000	-0.029	0.103
-473.259	800.000	0.096	-0.274
-472.245	-30.861	0.069	0.039
-471.230	251.058	-0.155	-0.264
-470.216	800.000	-0.115	0.372
-469.201	-129.612	-0.301	0.041
-468.186	-130.990	-0.075	-0.010
-467.172	-146.645	0.083	0.007
-466.157	-167.312	0.364	0.015
-465.143	78.456	0.051	0.054
-464.128	87.785	0.127	0.140
-463.113	-86.408	0.180	0.055
-462.099	-200.000	0.004	-0.216
-461.084	186.141	0.185	-0.274
-460.070	-21.412	-0.270	-0.164
-459.055	-200.000	0.018	0.217
-458.040	800.000	0.064	-0.252
-457.026	50.881	0.031	0.029
-456.011	-200.000	0.007	0.300
-454.997	198.194	-0.219	-0.334
-453.982	-43.592	0.444	0.223
-452.968	-200.000	-0.047	-0.282
-451.953	16.998	0.093	-0.073
-450.938	-117.952	-0.137	-0.025
-449.924	79.383	-0.227	0.242
-448.909	583.048	0.144	0.351
-447.895	-200.000	-0.013	-0.089
-446.880	-68.975	0.155	-0.060
-445.865	-200.000	0.008	0.134
-444.851	144.449	0.063	-0.084
-443.836	-4.894	-0.143	0.098
-442.822	-48.235	-0.343	-0.165
-441.807	-1.463	-0.233	0.164
-440.792	172.007	-0.234	0.336
-439.778	27.684	0.044	0.037
-438.763	224.902	-0.265	0.426
-437.749	-63.439	0.074	0.030
-436.734	169.277	0.070	-0.100
-435.719	-200.000	0.304	-0.000
-434.705	-200.000	-0.003	0.080
-433.690	-200.000	-0.009	0.116
-432.676	233.837	-0.117	0.191
-431.661	54.850	0.130	0.125
-430.646	605.684	-0.084	0.209
-429.632	-81.318	-0.299	0.098
-428.617	800.000	0.166	-0.465
-427.603	800.000	-0.071	0.197
-426.588	389.794	-0.101	0.209
-425.573	-200.000	0.025	0.221
-424.559	-88.277	-0.093	-0.028
-423.544	-147.833	0.334	0.028
-422.530	-200.000	-0.005	-0.179
-421.515	552.496	-0.112	0.269
-420.500	473.848	0.056	0.127
-419.486	-66.359	0.101	0.040
-418.471	38.607	-0.120	0.106
-417.457	-200.000	0.024	0.131
-416.442	-56.405	0.077	-0.034
-415.428	-53.053	-0.354	0.162
-414.413	51.602	-0.120	0.113
-413.398	-200.000	0.024	-0.131
-412.384	-200.000	0.028	-0.181
-411.369	48.195	0.168	-0.157
-410.355	1.999	0.187	0.134
-409.340	800.000	-0.102	0.396
-408.325	283.998	0.084	0.151
-407.311	-22.247	0.191	-0.115
-406.296	-171.141	-0.381	-0.013
-405.282	-200.000	-0.010	-0.107
-404.267	-67.897	0.149	-0.058
-403.252	-3.308	-0.202	-0.140
-402.238	800.000	-0.054	0.176
-401.223	-89.078	-0.122	0.036
-400.209	-74.417	0.377	-0.135
-399.194	-66.756	0.157	0.062
-398.179	-122.161	0.276	-0.045
-397.165	12.839	-0.167	0.128
-396.150	-157.074	0.119	-0.007
-395.136	133.601	-0.244	0.314
-394.121	398.045	-0.123	0.255
-393.106	-166.266	-0.192	-0.008
-392.092	800.000	0.090	-0.299
-391.077	381.742	0.112	-0.229
-390.063	-53.203	0.217	-0.099
-389.048	92.902	-0.046	0.052
-388.033	-125.311	0.222	0.034
-387.019	-64.929	-0.134	-0.054
-386.004	-152.033	0.304	0.022
-384.990	-7.283	0.328	-0.221
-383.975	84.767	-0.266	0.290
-382.960	-105.483	-0.265	0.060
-381.946	127.959	-0.068	0.086
-380.931	63.071	-0.207	-0.206
-379.917	-131.246	0.081	-0.011
-378.902	-62.200	-0.138	-0.057
-377.888	356.645	-0.140	0.278
-376.873	-200.000	0.018	-0.116
-375.858	660.047	0.100	-0.255
-374.844	-12.493	0.159	-0.103
-373.829	46.274	-0.130	0.120
-372.815	-200.000	0.017	-0.179
-371.800	-48.533	0.308	0.147
-370.785	-75.329	0.146	0.052
-369.771	-200.000	0.028	-0.174
-368.756	800.000	-0.058	-0.201
-367.742	32.694	-0.272	0.233
-366.727	800.000	-0.120	0.358
-365.712	-7.743	0.275	-0.184
-364.698	96.312	-0.136	-0.154
-363.683	388.777	0.162	-0.333
-362.669	-64.281	-0.237	0.096
-361.654	-55.291	0.298	0.133
-360.639	-91.019	-0.157	0.045
-359.625	-6.817	0.058	0.039
-358.610	-200.000	0.014	-0.086
-357.596	-38.012	-0.165	0.087
-356.581	-200.000	0.001	0.092
-355.566	-200.000	-0.102	-0.497
-354.552	-146.580	0.432	-0.037
-353.537	800.000	-0.098	0.354
-352.523	445.150	0.128	-0.280
-351.508	612.636	-0.026	-0.064
-350.493	-130.399	-0.294	-0.039
-349.479	23.972	-0.212	0.174
-348.464	537.014	-0.087	0.205
-347.450	-9.519	-0.128	-0.085
-346.435	-37.638	0.309	0.163
-345.420	-136.795	0.403	0.046
-344.406	348.420	0.070	-0.136
-343.391	-91.288	-0.063	0.018
-342.377	84.940	0.360	-0.392
-341.362	-132.244	-0.071	0.009
-340.348	-78.887	-0.204	-0.069
-339.333	800.000	-0.050	0.212
-338.318	36.285	0.134	-0.117
-337.304	-200.000	0.033	-0.186
-336.289	800.000	-0.040	-0.120
-335.275	-200.000	-0.015	-0.301
-334.260	-63.820	-0.156	-0.064
-333.245	648.914	-0.048	0.122
-332.231	-3.823	-0.052	0.036
-331.216	5.035	-0.027	0.020
-330.202	270.559	-0.094	0.165
-329.187	666.917	-0.013	0.032
-328.172	53.003	-0.103	-0.097
-327.158	518.054	-0.085	0.198
-326.143	30.737	0.095	0.081
-325.129	-62.401	-0.235	0.097
-324.114	800.000	0.035	-0.149
-323.099	-130.938	0.181	-0.024
-322.085	-128.229	0.287	-0.041
-321.070	183.374	0.164	0.241
-320.056	-28.996	0.090	0.051
-319.041	-200.000	-0.000	-0.172
-318.026	-200.000	0.022	-0.254
-317.012	249.857	0.053	0.089
-315.997	107.780	-0.173	0.204
-314.983	-123.924	-0.344	-0.054
-313.968	-156.255	-0.118	0.007
-312.953	97.701	0.099	0.113
-311.939	-29.171	0.186	-0.105
-310.924	800.000	0.038	-0.121
-309.910	-35.415	-0.034	0.018
-308.895	-157.766	-0.480	0.028
-307.880	-115.470	-0.202	-0.038
-306.866	-39.087	0.298	-0.155
-305.851	24.412	-0.077	0.063
-304.837	323.029	0.052	-0.098
-303.822	800.000	-0.146	-0.449
-302.807	94.274	0.240	-0.270
-301.793	115.138	-0.194	-0.235
-300.778	-29.185	-0.247	0.140
-299.764	800.000	0.023	0.077
-298.749	689.686	-0.067	0.175
-297.735	-5.714	0.192	-0.131
-296.720	-196.995	0.103	-0.001
-295.705	152.288	-0.363	0.491
-294.691	-140.284	0.208	-0.022
-293.676	174.152	-0.138	-0.198
-292.662	-41.764	0.290	0.148
-291.647	6.629	-0.172	-0.127
-290.632	-200.000	0.004	0.084
-289.618	800.000	-0.123	-0.386
-288.603	800.000	0.020	0.072
-287.589	248.127	0.087	-0.145
-286.574	-200.000	-0.004	-0.021
-285.559	32.007	-0.082	0.070
-284.545	27.725	0.178	-0.148
-283.530	-200.000	-0.056	-0.333
-282.516	800.000	-0.090	0.265
-281.501	-135.578	-0.201	-0.024
-280.486	-135.269	-0.262	-0.031
-279.472	-119.648	-0.217	0.037
-278.457	0.713	0.165	0.117
-277.443	19.308	0.236	-0.188
-276.428	-94.807	0.209	0.056
-275.413	206.128	-0.132	0.204
-274.399	-200.000	0.002	0.289
-273.384	-178.667	-0.083	0.002
-272.370	-89.502	-0.418	-0.122
-271.355	95.648	0.151	-0.170
-270.340	57.720	0.105	-0.102
-269.326	-118.374	-0.086	-0.015
-268.311	115.811	0.239	0.289
-267.297	-200.000	0.018	-0.121
-266.282	-102.200	0.263	-0.063
-265.267	161.609	-0.124	-0.172
-264.253	-200.000	-0.031	0.259
-263.238	-155.181	0.070	0.005
-262.224	-200.000	0.034	-0.176
-261.209	800.000	0.038	-0.106
-260.195	-1.143	0.066	-0.046
-259.180	-83.976	0.150	0.047
-258.165	-154.529	-0.369	-0.024
-257.151	25.355	0.251	-0.206
-256.136	-99.551	0.407	0.101
-255.122	-62.039	0.109	-0.045
-254.107	7.253	-0.308	0.228
-253.092	535.800	0.163	0.382
-252.078	266.905	-0.169	-0.293
-251.063	-59.049	0.316	0.135
-250.049	-131.132	-0.021	0.003
-249.034	-65.622	0.287	-0.114
-248.019	31.591	-0.197	0.167
-247.005	64.995	-0.133	-0.132
-245.990	500.009	0.061	0.140
-244.976	96.918	0.046	-0.053
-243.961	-37.187	0.294	0.155
-242.946	800.000	0.076	-0.270
-241.932	-72.974	0.292	-0.106
-240.917	109.234	0.268	0.317
-239.903	5.547	0.246	-0.180
-238.888	78.212	-0.119	0.126
-237.873	84.762	-0.071	-0.077
-236.859	800.000	0.123	0.420
-235.844	180.962	-0.257	0.373
-234.830	800.000	-0.015	-0.055
-233.815	-200.000	-0.036	-0.163
-232.800	91.480	-0.229	-0.255
-231.786	7.682	0.239	0.177
-230.771	-151.554	0.121	0.009
-229.757	210.617	-0.063	-0.097
-228.742	-108.589	0.164	-0.035
-227.727	424.627	0.112	-0.237
-226.713	-83.749	-0.252	-0.080
-225.698	800.000	0.076	-0.267
-224.684	-59.055	-0.067	-0.029
-223.669	267.519	0.119	0.205
-222.655	128.733	0.197	0.248
-221.640	-95.280	-0.085	0.022
-220.625	-25.704	-0.092	0.054
-219.611	411.000	-0.091	0.191
-218.596	102.964	0.157	0.181
-217.582	62.426	0.338	-0.333
-216.567	110.168	0.187	0.221
-215.552	20.894	-0.349	-0.279
-214.538	-200.000	0.042	-0.341
-213.523	210.674	0.220	0.342
-212.509	-200.000	-0.013	0.330
-211.494	-52.394	-0.133	-0.061
-210.479	53.072	-0.109	-0.103
-209.465	-37.639	-0.145	0.076
-208.450	-189.455	0.253	0.003
-207.436	10.952	-0.419	-0.316
-206.421	-200.000	0.035	0.239
-205.406	-200.000	-0.039	-0.179
-204.392	-3.007	-0.271	-0.186
-203.377	-200.000	-0.011	0.116
-202.363	-74.722	-0.446	0.158
-201.348	48.711	-0.105	-0.097
-200.333	120.113	-0.119	0.146
-199.319	-200.000	-0.007	-0.126
-198.304	16.275	0.068	-0.053
-197.290	125.576	0.086	0.108
-196.275	-138.469	-0.448	-0.049
-195.260	-79.400	-0.151	0.051
-194.246	143.786	-0.265	-0.348
-193.231	-47.115	0.077	-0.037
-192.217	-86.588	0.189	0.057
-191.202	112.929	0.122	0.146
-190.187	-112.102	0.180	0.036
-189.173	-122.995	-0.142	0.022
-188.158	800.000	-0.075	0.314
-187.144	518.721	0.052	0.121
-186.129	545.598	-0.182	-0.430
-185.114	-200.000	-0.013	0.099
-184.100	64.141	0.221	0.219
-183.085	-200.000	0.092	-0.396
-182.071	-200.000	-0.013	-0.252
-181.056	-200.000	0.018	0.301
-180.042	444.195	0.188	0.406
-179.027	658.416	-0.064	0.162
-178.012	-62.796	0.355	0.145
-176.998	800.000	-0.041	-0.145
-175.983	200.954	0.127	0.193
-174.969	215.419	0.084	0.132
-173.954	-62.179	-0.372	0.153
-172.939	-130.586	0.263	-0.035
-171.925	-59.505	0.320	0.135
-170.910	-200.000	0.007	-0.286
-169.896	-200.000	0.018	0.078
-168.881	191.181	0.120	0.178
-167.866	3.825	0.174	0.125
-166.852	800.000	0.062	-0.184
-165.837	-61.277	-0.025	-0.010
-164.823	-34.770	0.256	-0.138
-163.808	-119.742	0.498	-0.085
-162.793	-142.762	0.188	0.018
-161.779	334.649	0.141	-0.270
-160.764	-0.329	0.127	-0.089
-159.750	137.591	0.130	0.168
-158.735	71.654	0.077	0.078
-157.720	-200.000	-0.010	-0.198
-156.706	800.000	-0.019	-0.065
-155.691	46.449	-0.220	0.201
-154.677	800.000	0.061	0.218
-153.662	-200.000	0.029	0.605
-152.647	35.605	-0.334	-0.289
-151.633	14.578	0.163	-0.125
-150.618	5.896	0.190	-0.139
-149.604	539.251	-0.049	-0.116
-148.589	-96.261	0.179	-0.047
-147.574	596.954	0.067	-0.165
-146.560	-142.348	-0.076	0.007
-145.545	-129.790	-0.163	-0.022
-144.531	141.826	-0.140	-0.182
-143.516	-139.822	0.178	-0.019
-142.502	605.483	0.081	0.198
-141.487	-89.832	-0.216	-0.062
-140.472	-81.823	-0.356	-0.115
-139.458	-83.514	0.064	0.020
-138.443	40.210	-0.034	0.030
-137.429	-153.284	0.171	-0.012
-136.414	-134.563	-0.236	-0.028
-135.399	-152.684	-0.289	0.020
-134.385	198.581	0.059	-0.090
-133.370	-72.763	-0.445	0.161
-132.356	-65.012	-0.228	-0.091
-131.341	371.218	0.027	0.054
-130.326	107.951	-0.113	0.132
-129.312	42.729	0.132	-0.119
-128.297	800.000	0.101	0.297
-127.283	72.744	-0.227	-0.233
-126.268	-200.000	-0.060	0.311
-125.253	-57.408	0.050	0.021
-124.239	-72.835	0.141	-0.051
-123.224	134.899	-0.128	0.163
-122.210	-200.000	-0.020	0.136
-121.195	542.910	-0.180	-0.423
-120.180	800.000	-0.116	0.326
-119.166	137.575	-0.291	0.375
-118.151	-43.655	-0.321	-0.159
-117.137	-180.785	0.047	-0.001
-116.122	-29.359	-0.222	-0.125
-115.107	800.000	-0.017	-0.072
-114.093	-60.049	0.169	-0.071
-113.078	106.065	0.092	-0.108
-112.064	221.090	0.119	-0.188
-111.049	-73.507	0.045	-0.016
-110.034	32.009	0.381	0.323
-109.020	35.453	0.115	0.099
-108.005	-141.951	-0.321	-0.032
-106.991	-93.480	-0.127	-0.034
-105.976	617.323	-0.150	0.370
-104.962	18.616	0.031	0.025
-103.947	-119.035	-0.116	-0.020
-102.932	294.278	-0.149	-0.268
-101.918	55.914	0.130	0.124
-100.903	173.306	-0.068	0.096
-99.889	134.377	0.109	-0.138
-98.874	-115.597	0.169	0.031
-97.859	-47.044	0.085	0.041
-96.845	800.000	-0.048	0.191
-95.830	-200.000	-0.001	0.164
-94.816	-108.518	0.289	0.061
-93.801	-27.277	0.024	0.014
-92.786	33.356	-0.212	-0.181
-91.772	139.992	-0.259	0.336
-90.757	-17.577	0.302	0.187
-89.743	-200.000	0.046	-0.329
-88.728	-200.000	0.052	0.230
-87.713	208.546	0.145	0.223
-86.699	-36.134	-0.228	-0.121
-85.684	-104.399	-0.135	0.031
-84.670	19.919	-0.263	0.208
-83.655	-60.287	-0.143	0.060
-82.640	-17.180	0.217	0.135
-81.626	376.989	0.090	-0.180
-80.611	-100.697	0.054	-0.013
-79.597	140.106	0.168	0.217
-78.582	800.000	0.040	-0.168
-77.567	-200.000	-0.019	-0.239
-76.553	-200.000	-0.042	-0.466
-75.538	261.783	-0.094	0.159
-74.524	-91.720	-0.027	0.008
-73.509	-139.495	-0.133	0.014
-72.494	-68.038	0.231	0.089
-71.480	8.585	0.254	0.188
-70.465	800.000	0.039	-0.165
-69.451	-77.253	0.173	0.059
-68.436	-34.885	0.187	-0.100
-67.422	244.376	0.145	-0.239
-66.407	-13.881	-0.298	-0.189
-65.392	-86.084	0.234	0.071
-64.378	24.923	-0.210	-0.171
-63.363	198.808	0.102	0.153
-62.349	117.620	-0.250	0.302
-61.334	185.346	-0.947	-1.381
-60.319	-40.332	0.705	0.360
-59.305	-200.000	-0.046	-1.168
-58.290	296.705	0.590	1.063
-57.276	800.000	0.613	1.703
-56.261	-200.000	105.270	571.115
-55.246	448.335	1465.580	3168.495
-54.232	146.702	2665.658	3515.925
-53.217	99.325	2303.754	2614.363
-52.203	38.621	1913.443	1675.236
-51.188	32.801	1700.488	1444.330
-50.173	30.155	1657.133	1387.675
-49.159	48.661	1708.558	1571.821
-48.144	48.722	1725.246	1587.575
-47.130	32.303	1683.362	1425.779
-46.115	29.714	1668.898	1393.981
-45.100	29.559	1663.837	1388.534
-44.086	29.595	1660.966	1386.357
-43.071	29.452	1658.958	1383.549
-42.057	29.436	1656.142	1381.028
-41.042	29.396	1653.862	1378.776
-40.027	29.370	1652.605	1377.477
-39.013	29.455	1650.329	1376.159
-37.998	29.447	1648.586	1374.591
-36.984	29.474	1647.119	1373.515
-35.969	29.639	1645.930	1373.693
-34.954	29.766	1644.004	1372.973
-33.940	29.641	1642.458	1370.705
-32.925	29.589	1640.948	1369.004
-31.911	29.609	1638.956	1367.436
-30.896	29.642	1637.624	1366.513
-29.881	29.579	1635.515	1364.232
-28.867	29.649	1633.909	1363.359
-27.852	29.597	1632.553	1361.784
-26.838	29.645	1631.041	1360.825
-25.823	29.646	1630.048	1359.950
-24.809	29.628	1628.980	1358.870
-23.794	29.607	1627.067	1357.072
-22.779	29.709	1625.596	1356.536
-21.765	29.632	1624.133	1354.699
-20.750	29.630	1622.287	1353.090
-19.736	29.617	1620.827	1351.721
-18.721	29.691	1619.599	1351.189
-17.706	29.611	1618.167	1349.354
-16.692	29.637	1616.539	1348.129
-15.677	29.650	1615.014	1346.902
-14.663	29.720	1613.794	1346.338
-13.648	29.599	1612.708	1344.504
-12.633	29.720	1610.870	1343.796
-11.619	29.629	1609.481	1341.921
-10.604	29.610	1607.723	1340.263
-9.590	29.730	1606.366	1339.948
-8.575	29.731	1605.255	1338.981
-7.560	29.665	1604.205	1337.567
-6.546	29.744	1602.547	1336.704
-5.531	29.564	1602.315	1335.155
-4.517	29.572	1601.245	1334.271
-3.502	29.570	1600.037	1333.201
-2.487	29.664	1598.112	1332.221
-1.473	29.504	1586.126	1321.031
-0.458	26.811	1567.144	1286.094
0.556	21.558	1568.603	1254.525
1.571	19.267	1591.886	1256.353
2.586	18.915	1605.261	1264.208
3.600	17.439	1552.422	1211.982
4.615	9.841	1441.551	1074.898
5.629	1.929	1375.783	975.318
6.644	0.256	1367.547	958.747
7.659	0.192	1366.461	957.495
8.673	0.134	1365.632	956.459
9.688	0.129	1363.450	954.814
10.702	-0.129	1360.725	951.188
11.717	4.038	1367.140	982.061
12.731	12.714	1381.058	1047.355
13.746	17.592	1386.644	1082.572
14.761	17.246	1385.187	1079.143
15.775	16.355	1382.132	1071.020
16.790	15.266	1379.624	1062.088
17.804	14.533	1377.811	1055.957
18.819	14.196	1376.240	1052.528
19.834	13.887	1374.510	1049.161
20.848	13.591	1373.516	1046.443
21.863	13.397	1372.035	1043.999
22.877	13.242	1370.880	1042.049
23.892	13.173	1369.951	1040.814
24.907	13.076	1369.385	1039.683
25.921	13.131	1368.456	1039.231
26.936	13.237	1367.642	1039.183
27.950	13.276	1366.652	1038.585
28.965	13.302	1365.759	1037.980
29.980	13.393	1364.816	1037.741
30.994	13.416	1363.935	1037.124
32.009	13.368	1363.327	1036.268
33.023	13.310	1362.367	1035.087
34.038	13.404	1360.629	1034.260
35.053	13.303	1360.176	1033.191
36.067	13.270	1359.390	1032.300
37.082	13.329	1358.048	1031.555
38.096	13.407	1356.681	1030.912
39.111	13.357	1356.202	1030.144
40.126	13.354	1355.276	1029.334
41.140	13.235	1354.414	1027.849
42.155	13.283	1353.889	1027.657
43.169	13.109	1353.652	1026.304
44.184	13.121	1353.095	1025.869
45.199	13.123	1352.961	1025.686
46.213	13.178	1352.518	1025.603
47.228	13.312	1350.947	1025.147
48.242	13.363	1349.984	1024.644
49.257	13.377	1348.063	1023.183
50.271	13.300	1347.139	1021.916
51.286	13.367	1345.854	1021.261
52.301	13.354	1344.349	1019.948
53.315	13.258	1343.584	1018.686
54.330	13.250	1342.895	1018.027
55.344	13.196	1341.758	1016.744
56.359	13.213	1340.013	1015.436
57.374	13.129	1339.496	1014.436
58.388	13.187	1338.496	1013.946
59.403	13.024	1338.319	1012.722
60.417	13.111	1337.587	1012.611
61.432	13.215	1336.391	1012.251
62.447	13.062	1335.535	1010.577
63.461	13.054	1334.344	1009.539
64.476	13.069	1333.471	1008.880
65.490	13.109	1331.826	1007.790
66.505	13.198	1330.009	1006.872
67.520	13.090	1328.910	1005.290
68.534	13.153	1328.059	1004.944
69.549	13.090	1327.243	1003.854
70.563	13.006	1326.349	1002.579
71.578	13.060	1324.964	1001.768
72.593	13.118	1323.937	1001.257
73.607	12.999	1323.479	1000.097
74.622	12.998	1322.569	999.320
75.636	13.023	1321.796	998.797
76.651	13.090	1320.544	998.168
77.666	13.092	1319.943	997.636
78.680	13.106	1319.717	997.461
79.695	13.052	1318.740	996.308
80.709	13.109	1317.797	995.854
81.724	13.188	1316.840	995.517
82.739	13.094	1316.403	994.531
83.753	13.166	1315.611	994.278
84.768	13.308	1314.481	994.191
85.782	13.333	1313.204	993.289
86.797	13.269	1311.622	991.618
87.812	13.238	1310.289	990.338
88.826	13.208	1308.869	988.996
89.841	13.282	1307.890	988.612
90.855	13.304	1307.384	988.276
91.870	13.330	1306.411	987.606
92.884	13.321	1305.482	986.762
93.899	13.389	1304.790	986.560
94.914	13.363	1304.316	985.956
95.928	13.459	1303.228	985.622
96.943	13.392	1302.122	984.300
97.957	13.293	1301.739	983.334
98.972	13.365	1300.602	982.812
99.987	13.398	1299.262	981.912
101.001	13.293	1298.578	980.683
102.016	13.360	1297.541	980.208
103.030	13.346	1296.510	979.265
104.045	13.369	1295.576	978.604
105.060	13.335	1294.507	977.510
106.074	13.184	1293.145	975.503
107.089	13.211	1291.672	974.467
108.103	13.137	1290.882	973.350
109.118	13.155	1289.500	972.328
110.133	13.268	1287.819	971.638
111.147	13.152	1286.710	970.035
112.162	13.238	1285.716	969.702
113.176	13.190	1284.552	968.460
114.191	13.335	1283.496	968.422
115.206	13.206	1282.776	967.044
116.220	13.221	1281.658	966.199
117.235	13.218	1280.451	965.186
118.249	13.266	1279.284	964.502
119.264	13.209	1278.100	963.191
120.279	13.093	1277.237	961.779
121.293	13.204	1275.791	961.256
122.308	13.245	1274.526	960.456
123.322	13.194	1273.454	959.263
124.337	13.247	1272.485	958.756
125.352	13.210	1271.508	957.720
126.366	13.199	1270.097	956.510
127.381	13.127	1269.521	955.574
128.395	13.136	1268.375	954.680
129.410	13.276	1267.426	954.687
130.424	13.149	1267.386	953.844
131.439	13.215	1265.833	952.967
132.454	13.253	1264.577	952.155
133.468	13.223	1264.191	951.610
134.483	13.254	1263.315	951.043
135.497	13.168	1262.039	949.505
136.512	13.197	1260.457	948.397
137.527	13.365	1259.018	948.194
138.541	13.265	1257.625	946.490
139.556	13.376	1255.990	945.811
140.570	13.235	1255.527	944.570
141.585	13.442	1254.160	944.639
142.600	13.385	1252.795	943.205
143.614	13.376	1252.564	942.896
144.629	13.469	1251.111	942.251
145.643	13.410	1249.773	940.820
146.658	13.478	1248.145	939.900
147.673	13.432	1247.151	938.806
148.687	13.341	1246.389	937.635
149.702	13.363	1244.700	936.404
150.716	13.371	1243.094	935.157
151.731	13.365	1242.264	934.421
152.746	13.292	1241.150	933.087
153.760	13.429	1240.048	932.946
154.775	13.505	1238.601	932.202
155.789	13.471	1237.746	931.287
156.804	13.457	1236.855	930.457
157.819	13.529	1235.633	929.855
158.833	13.490	1235.204	929.235
159.848	13.561	1234.036	928.669
160.862	13.571	1232.450	927.451
161.877	13.444	1231.688	926.084
162.892	13.467	1230.492	925.230
163.906	13.444	1229.465	924.249
164.921	13.526	1228.689	924.045
165.935	13.470	1227.714	922.916
166.950	13.612	1226.846	922.973
167.964	13.567	1226.602	922.458
168.979	13.558	1225.929	921.817
169.994	13.521	1225.235	921.010
171.008	13.645	1223.843	920.572
172.023	13.627	1223.303	919.982
173.037	13.615	1222.362	919.128
174.052	13.656	1221.458	918.594
175.067	13.633	1220.323	917.529
176.081	13.561	1219.227	916.227
177.096	13.547	1218.847	915.781
178.110	13.640	1217.442	915.162
179.125	13.543	1216.470	913.812
180.140	13.639	1215.091	913.224
181.154	13.639	1214.034	912.350
182.169	13.689	1212.493	911.387
183.183	13.812	1211.404	911.162
184.198	13.713	1210.623	909.950
185.213	13.826	1209.032	909.297
186.227	13.791	1207.892	908.168
187.242	13.901	1207.309	908.250
188.256	13.910	1206.024	907.252
189.271	13.893	1204.955	906.273
190.286	13.721	1203.853	904.425
191.300	13.629	1203.310	903.434
192.315	13.588	1202.323	902.394
193.329	13.614	1201.773	902.041
194.344	13.668	1200.784	901.515
195.359	13.841	1200.443	902.118
196.373	13.801	1200.216	901.648
197.388	13.823	1199.908	901.458
198.402	13.937	1198.963	901.289
199.417	13.989	1198.078	900.824
200.432	14.004	1197.314	900.250
201.446	14.022	1196.438	899.612
202.461	14.096	1195.663	899.348
203.475	14.112	1194.492	898.473
204.490	14.090	1193.307	897.384
205.504	14.044	1191.711	895.857
206.519	14.139	1190.693	895.522
207.534	14.094	1189.488	894.299
208.548	14.056	1188.872	893.553
209.563	14.107	1187.837	892.968
210.577	14.103	1187.042	892.269
211.592	14.125	1186.086	891.591
212.607	14.216	1185.342	891.440
213.621	14.124	1184.683	890.374
214.636	14.019	1183.925	889.163
215.650	14.201	1182.494	888.978
216.665	14.243	1181.847	888.639
217.680	14.154	1181.193	887.596
218.694	14.229	1180.414	887.330
219.709	14.272	1179.228	886.588
220.723	14.292	1178.341	885.953
221.738	14.275	1178.020	885.540
222.753	14.232	1177.385	884.757
223.767	14.352	1176.491	884.642
224.782	14.392	1175.981	884.393
225.796	14.382	1175.356	883.791
226.811	14.355	1174.595	882.998
227.826	14.443	1174.047	882.974
228.840	14.375	1173.093	881.820
229.855	14.347	1172.286	880.987
230.869	14.467	1171.818	881.191
231.884	14.382	1170.413	879.607
232.899	14.331	1169.780	878.784
233.913	14.285	1169.311	878.114
234.928	14.275	1168.665	877.497
235.942	14.236	1168.310	876.946
236.957	14.288	1167.093	876.228
237.972	14.355	1166.357	875.954
238.986	14.343	1165.632	875.265
240.001	14.461	1164.817	875.200
241.015	14.495	1163.806	874.541
242.030	14.478	1163.322	874.009
243.045	14.526	1162.916	873.876
244.059	14.514	1161.886	872.962
245.074	14.502	1161.020	872.171
246.088	14.495	1160.266	871.491
247.103	14.521	1159.644	871.086
248.117	14.711	1158.526	871.156
249.132	14.743	1157.803	870.704
250.147	14.720	1157.367	870.181
251.161	14.793	1156.446	869.792
252.176	14.798	1155.903	869.330
253.190	14.827	1155.146	868.837
254.205	14.964	1154.455	868.953
255.220	14.801	1154.439	868.017
256.234	14.911	1153.553	867.841
257.249	14.907	1152.889	867.244
258.263	14.966	1151.995	866.801
259.278	14.908	1151.550	866.089
260.293	14.855	1151.183	865.463
261.307	14.914	1150.597	865.251
262.322	15.034	1149.170	864.720
263.336	15.104	1148.408	864.435
264.351	15.022	1147.990	863.621
265.366	14.974	1147.830	863.176
266.380	15.049	1146.698	862.635
267.395	15.029	1146.221	862.097
268.409	15.078	1145.300	861.579
269.424	15.012	1144.793	860.780
270.439	15.103	1144.067	860.627
271.453	15.130	1143.418	860.203
272.468	15.006	1142.717	858.963
273.482	15.104	1141.483	858.462
274.497	15.050	1141.271	857.951
275.512	14.986	1140.858	857.232
276.526	15.071	1139.925	856.893
277.541	15.116	1139.189	856.490
278.555	15.189	1138.404	856.197
279.570	15.232	1137.943	855.999
280.585	15.259	1136.825	855.219
281.599	15.387	1135.893	855.095
282.614	15.213	1135.302	853.689
283.628	15.281	1133.870	852.880
284.643	15.230	1133.089	851.959
285.657	15.111	1132.246	850.642
286.672	15.251	1131.526	850.737
287.687	15.222	1130.473	849.724
288.701	15.200	1130.037	849.208
289.716	15.352	1129.144	849.234
290.730	15.292	1128.363	848.268
291.745	15.291	1128.047	847.953
292.760	15.442	1127.026	847.870
293.774	15.501	1126.230	847.495
294.789	15.493	1126.189	847.347
295.803	15.490	1125.030	846.389
296.818	15.475	1124.311	845.694
297.833	15.396	1123.784	844.828
298.847	15.427	1123.060	844.364
299.862	15.489	1122.093	843.872
300.876	15.504	1121.748	843.612
301.891	15.569	1120.506	842.932
302.906	15.608	1120.039	842.702
303.920	15.474	1119.717	841.711
304.935	15.658	1118.512	841.652
305.949	15.619	1118.348	841.258
306.964	15.739	1117.497	841.145
307.979	15.633	1116.516	839.804
308.993	15.577	1116.124	839.153
310.008	15.771	1115.043	839.234
311.022	15.681	1114.522	838.320
312.037	15.850	1112.963	837.914
313.052	15.800	1112.616	837.333
314.066	15.652	1111.743	835.863
315.081	15.616	1110.728	834.850
316.095	15.700	1110.249	834.829
317.110	15.717	1109.418	834.216
318.125	15.670	1108.899	833.521
319.139	15.692	1108.295	833.103
320.154	15.646	1107.535	832.226
321.168	15.736	1106.823	832.066
322.183	15.741	1106.325	831.640
323.197	15.660	1105.620	830.638
324.212	15.694	1105.227	830.439
325.227	15.731	1104.467	829.976
326.241	15.788	1103.833	829.706
327.256	15.813	1103.031	829.155
328.270	15.774	1102.298	828.338
329.285	15.833	1101.092	827.647
330.300	15.733	1100.359	826.534
331.314	15.753	1099.343	825.795
332.329	15.880	1098.383	825.620
333.343	15.824	1097.507	824.616
334.358	15.981	1096.699	824.705
335.373	15.936	1095.814	823.746
336.387	15.963	1095.664	823.693
337.402	15.999	1094.468	822.897
338.416	16.039	1093.859	822.562
339.431	15.915	1093.435	821.566
340.446	15.999	1092.887	821.491
341.460	16.114	1091.871	821.216
342.475	16.206	1091.123	821.027
343.489	16.178	1090.592	820.419
344.504	16.144	1089.708	819.514
345.519	16.113	1088.541	818.417
346.533	16.250	1087.787	818.441
347.548	16.277	1087.166	818.028
348.562	16.221	1086.542	817.220
349.577	16.160	1085.671	816.194
350.592	16.413	1084.475	816.448
351.606	16.218	1084.278	815.284
352.621	16.218	1083.247	814.435
353.635	16.308	1082.471	814.216
354.650	16.121	1082.221	813.053
355.665	16.185	1081.632	812.848
356.679	16.260	1080.280	812.119
357.694	16.278	1080.274	812.130
358.708	16.239	1079.605	811.370
359.723	16.341	1079.112	811.414
360.738	16.403	1078.107	810.885
361.752	16.282	1077.913	810.089
362.767	16.329	1077.172	809.687
363.781	16.315	1076.718	809.204
364.796	16.371	1075.967	808.838
365.810	16.476	1075.216	808.705
366.825	16.538	1074.628	808.484
367.840	16.604	1074.226	808.426
368.854	16.592	1073.286	807.590
369.869	16.541	1072.988	807.051
370.883	16.650	1071.446	806.338
371.898	16.525	1071.202	805.491
372.913	16.627	1070.585	805.438
373.927	16.579	1070.268	804.899
374.942	16.604	1069.548	804.409
375.956	16.565	1069.390	804.033
376.971	16.658	1068.390	803.648
377.986	16.663	1068.144	803.417
379.000	16.700	1067.662	803.160
380.015	16.859	1067.137	803.447
381.029	16.805	1066.550	802.677
382.044	16.795	1065.530	801.794
383.059	16.841	1064.858	801.432
384.073	16.804	1064.008	800.549
385.088	16.873	1063.242	800.227
386.102	16.843	1062.367	799.355
387.117	16.689	1061.253	797.721
388.132	16.708	1060.463	797.147
389.146	16.935	1059.265	797.242
390.161	16.738	1059.162	796.167
391.175	16.890	1058.243	796.123
392.190	16.910	1057.356	795.476
393.205	16.952	1057.025	795.353
394.219	16.995	1055.983	794.703
395.234	17.008	1055.186	794.093
396.248	16.915	1054.564	793.120
397.263	16.967	1053.238	792.294
398.278	16.900	1052.543	791.389
399.292	16.970	1051.676	790.994
400.307	16.884	1051.287	790.232
401.321	16.891	1050.987	789.968
402.336	16.900	1050.123	789.288
403.350	16.936	1049.541	788.949
404.365	16.960	1048.476	788.193
405.380	17.101	1047.500	788.043
406.394	17.051	1047.025	787.385
407.409	17.075	1046.702	787.182
408.423	17.152	1045.493	786.560
409.438	17.199	1044.780	786.170
410.453	17.259	1044.026	785.811
411.467	17.211	1043.681	785.262
412.482	17.269	1042.781	784.784
413.496	17.186	1042.596	784.190
414.511	17.279	1041.878	784.012
415.526	17.368	1041.332	783.940
416.540	17.321	1041.171	783.533
417.555	17.421	1040.206	783.195
418.569	17.398	1039.514	782.503
419.584	17.496	1039.395	782.792
420.599	17.460	1038.562	781.933
421.613	103.234	1321.448	1468.056
422.628	94.708	1362.645	1468.131
