DTS Sentinel unit serial number:	SN413079Multiplexer serial number:	ORYXHardware model number:	OX4-SRSoftware version number:	ORYX F/W v4.00 Oryx Data Collector v3.7.2.0data status	okinstallation	princeton_trtdifferential loss correction	single-endedforward channel	channel 2reverse channel	N/Adate	2019/09/16time	02:15:35forward acquisition time	60.00reverse acquisition time	0.00gamma	496.2192k internal	0.2335k external	0.2335temperature offset calibration	0.9967default loss term (dB/km)	0.3790temperature slope calibration	1.0000multiplexer offset coefficient	1.0000multiplexer slope coefficient	1.0000fibre end	0.00T internal ref (°C)	27.56T ext. ref 1 (°C)	10.18T ext. ref 2 (°C)	22.50length (m)	temperature (°C)	Stokes	anti-Stokes-747.200	-200.000	-0.046	0.348
-746.185	-27.354	0.085	-0.050
-745.171	161.165	0.283	-0.398
-744.156	-22.991	-0.201	0.122
-743.142	-200.000	-0.020	-0.144
-742.127	-200.000	0.020	0.193
-741.112	800.000	-0.098	0.321
-740.098	-160.201	0.277	0.015
-739.083	284.178	0.074	0.135
-738.069	-91.899	-0.269	-0.077
-737.054	-90.129	-0.122	0.036
-736.039	-72.054	-0.157	0.059
-735.025	299.839	-0.127	0.234
-734.010	-200.000	0.007	-0.173
-732.996	36.544	0.103	0.091
-731.981	179.624	-0.189	-0.278
-730.966	12.506	-0.164	0.127
-729.952	-148.970	-0.220	-0.018
-728.937	-37.016	-0.121	-0.065
-727.923	75.231	-0.283	0.300
-726.908	-200.000	0.033	-0.266
-725.894	-24.098	-0.400	-0.240
-724.879	-47.897	-0.349	0.170
-723.864	434.746	0.185	0.403
-722.850	13.722	-0.175	0.136
-721.835	214.786	0.068	-0.108
-720.821	800.000	-0.055	-0.239
-719.806	-141.541	-0.108	0.011
-718.791	800.000	0.006	-0.025
-717.777	-104.631	0.143	0.033
-716.762	-200.000	-0.022	-0.262
-715.748	-200.000	0.012	-0.164
-714.733	198.685	-0.083	0.128
-713.718	562.554	-0.064	0.155
-712.704	-92.215	-0.372	0.105
-711.689	484.510	-0.071	-0.163
-710.675	-200.000	0.059	0.417
-709.660	14.947	-0.112	0.088
-708.645	-200.000	-0.018	0.086
-707.631	221.679	0.110	-0.177
-706.616	59.887	0.108	0.107
-705.602	-74.098	-0.154	-0.056
-704.587	84.631	0.114	0.125
-703.572	-46.037	0.244	0.121
-702.558	37.705	-0.018	-0.016
-701.543	-57.353	0.359	0.158
-700.529	-173.428	-0.120	0.004
-699.514	-87.369	-0.144	-0.044
-698.499	8.329	-0.102	0.077
-697.485	-150.327	-0.119	-0.009
-696.470	526.905	0.005	0.012
-695.456	80.710	0.115	0.125
-694.441	254.604	0.047	0.081
-693.426	-42.920	-0.147	0.075
-692.412	-200.000	-0.020	-0.290
-691.397	-200.000	0.012	-0.064
-690.383	-91.998	0.126	0.036
-689.368	-200.000	-0.081	-0.360
-688.354	-93.079	-0.445	0.124
-687.339	-21.314	0.131	-0.080
-686.324	-78.240	-0.235	-0.081
-685.310	-35.072	0.265	0.145
-684.295	153.073	0.166	0.227
-683.281	-80.009	-0.316	0.106
-682.266	800.000	-0.113	-0.332
-681.251	50.694	0.111	-0.105
-680.237	676.870	0.083	0.215
-679.222	-91.589	-0.081	0.023
-678.208	-19.226	-0.141	0.088
-677.193	800.000	0.114	-0.459
-676.178	200.274	0.064	-0.099
-675.164	198.611	-0.338	-0.518
-674.149	278.093	0.198	-0.354
-673.135	800.000	-0.071	0.262
-672.120	349.929	-0.243	-0.481
-671.105	164.008	0.143	-0.202
-670.091	-95.800	-0.355	0.095
-669.076	-91.752	0.539	0.154
-668.062	36.173	-0.120	0.106
-667.047	800.000	-0.053	-0.160
-666.032	-200.000	-0.010	-0.230
-665.018	-192.958	0.127	0.001
-664.003	-177.920	0.028	0.001
-662.989	-41.854	0.071	-0.036
-661.974	-200.000	0.012	0.275
-660.959	-141.239	-0.092	-0.009
-659.945	23.850	0.091	0.075
-658.930	139.158	-0.214	-0.282
-657.916	136.479	-0.077	-0.101
-656.901	623.709	0.062	-0.157
-655.886	-48.938	0.174	-0.083
-654.872	380.362	-0.053	0.109
-653.857	-100.366	-0.170	-0.042
-652.843	-200.000	-0.048	-0.425
-651.828	-200.000	-0.020	0.117
-650.814	81.050	0.346	0.374
-649.799	-2.200	-0.294	0.207
-648.784	125.217	0.146	-0.184
-647.770	227.511	0.011	-0.018
-646.755	800.000	-0.015	-0.050
-645.741	800.000	-0.062	-0.242
-644.726	381.446	0.170	-0.349
-643.711	-200.000	0.018	-0.150
-642.697	800.000	0.037	-0.134
-641.682	-200.000	0.003	-0.159
-640.668	-3.354	0.073	0.051
-639.653	-200.000	0.013	0.095
-638.638	152.276	-0.202	-0.276
-637.624	258.225	-0.234	-0.403
-636.609	800.000	-0.084	-0.240
-635.595	50.114	0.138	0.131
-634.580	88.141	-0.122	0.135
-633.565	-119.798	0.308	-0.053
-632.551	-162.437	0.215	0.011
-631.536	-200.000	0.024	-0.205
-630.522	-50.086	-0.204	0.097
-629.507	-200.000	-0.008	0.125
-628.492	-70.832	0.373	-0.141
-627.478	-200.000	-0.011	-0.099
-626.463	-191.317	0.214	0.002
-625.449	-131.647	0.039	-0.005
-624.434	-200.000	0.005	-0.139
-623.419	-124.044	0.167	0.026
-622.405	-55.248	0.361	0.162
-621.390	-200.000	-0.000	0.035
-620.376	196.914	-0.113	-0.172
-619.361	-44.842	-0.092	-0.046
-618.346	-200.000	-0.082	0.367
-617.332	-118.864	-0.184	0.032
-616.317	69.608	0.186	-0.192
-615.303	149.311	-0.068	0.092
-614.288	-98.293	-0.170	-0.044
-613.273	800.000	-0.045	0.137
-612.259	-64.693	-0.517	-0.209
-611.244	-7.373	0.281	-0.190
-610.230	-69.523	-0.164	-0.063
-609.215	-136.345	-0.318	0.037
-608.201	800.000	-0.051	-0.152
-607.186	119.320	0.217	-0.268
-606.171	160.692	-0.112	0.156
-605.157	-14.581	-0.500	0.321
-604.142	-200.000	0.022	0.167
-603.128	-38.234	0.180	0.095
-602.113	-115.138	0.219	0.041
-601.098	88.623	-0.144	-0.160
-600.084	-200.000	0.014	0.357
-599.069	-200.000	-0.048	-0.274
-598.055	-200.000	0.018	0.125
-597.040	-200.000	0.023	0.104
-596.025	-10.366	-0.069	-0.045
-595.011	-80.260	0.252	-0.084
-593.996	121.429	-0.134	-0.167
-592.982	-100.870	-0.489	-0.120
-591.967	-72.850	-0.093	-0.034
-590.952	23.008	-0.297	0.244
-589.938	-157.521	0.071	0.004
-588.923	-55.434	-0.186	0.083
-587.909	66.329	0.165	0.167
-586.894	10.520	0.028	-0.021
-585.879	26.715	-0.280	0.234
-584.865	311.914	0.184	0.345
-583.850	281.310	-0.085	0.151
-582.836	-200.000	-0.045	0.320
-581.821	800.000	0.055	-0.163
-580.806	800.000	0.097	-0.334
-579.792	-43.346	0.168	-0.085
-578.777	-55.723	-0.342	-0.153
-577.763	-56.828	0.221	-0.097
-576.748	800.000	-0.053	-0.175
-575.733	270.089	-0.101	0.177
-574.719	-45.172	0.195	-0.097
-573.704	224.524	-0.132	0.213
-572.690	-200.000	-0.019	-0.124
-571.675	86.133	0.140	-0.154
-570.661	-21.929	0.294	0.178
-569.646	91.946	0.256	0.288
-568.631	256.256	-0.091	-0.156
-567.617	83.293	-0.143	-0.156
-566.602	-200.000	-0.052	-0.327
-565.588	68.987	0.118	0.121
-564.573	800.000	-0.082	0.241
-563.558	70.552	0.186	0.192
-562.544	-41.281	0.185	-0.095
-561.529	-200.000	-0.028	-0.291
-560.515	-46.851	-0.145	0.071
-559.500	69.140	-0.118	0.121
-558.485	11.059	0.042	-0.032
-557.471	17.516	0.062	-0.049
-556.456	-20.803	-0.158	0.097
-555.442	6.909	0.112	0.083
-554.427	165.758	-0.055	0.078
-553.412	-200.000	-0.075	-0.430
-552.398	-22.344	0.151	-0.091
-551.383	79.051	0.231	0.247
-550.369	-21.456	0.474	-0.288
-549.354	-155.642	-0.164	0.010
-548.339	-94.469	-0.279	0.076
-547.325	-5.210	-0.100	0.069
-546.310	-48.085	-0.264	-0.127
-545.296	-27.047	0.198	0.115
-544.281	35.007	0.175	0.153
-543.266	-7.272	0.196	0.133
-542.252	800.000	0.061	-0.248
-541.237	-200.000	0.004	-0.156
-540.223	39.945	-0.208	0.187
-539.208	-153.716	0.108	0.007
-538.193	133.605	-0.019	-0.024
-537.179	-55.042	-0.360	-0.161
-536.164	178.923	0.065	0.095
-535.150	489.199	-0.021	-0.048
-534.135	-182.339	-0.172	-0.003
-533.121	800.000	0.033	-0.134
-532.106	107.626	-0.087	-0.103
-531.091	71.908	0.202	-0.209
-530.077	-98.098	-0.117	0.030
-529.062	-81.015	0.239	0.079
-528.048	-121.091	-0.096	0.016
-527.033	-72.916	0.256	0.094
-526.018	-47.948	-0.366	0.176
-525.004	-200.000	-0.016	-0.274
-523.989	-135.716	0.135	0.016
-522.975	-116.695	0.086	-0.016
-521.960	800.000	0.077	-0.272
-520.945	-98.733	0.413	-0.105
-519.931	-169.866	-0.516	-0.018
-518.916	57.111	-0.096	0.094
-517.902	5.303	-0.160	-0.118
-516.887	240.808	0.099	0.165
-515.872	-116.227	-0.550	-0.102
-514.858	116.875	0.202	-0.247
-513.843	-102.866	0.110	-0.026
-512.829	-32.616	-0.210	0.116
-511.814	-73.855	0.324	-0.117
-510.799	-131.868	-0.467	0.061
-509.785	800.000	0.033	0.095
-508.770	-95.375	0.144	-0.039
-507.756	-39.326	0.122	0.064
-506.741	-138.766	0.061	0.007
-505.726	-188.726	0.189	0.002
-504.712	241.671	-0.098	-0.162
-503.697	213.236	0.105	-0.165
-502.683	479.460	0.061	0.137
-501.668	367.518	0.104	0.208
-500.653	30.534	0.214	-0.182
-499.639	-200.000	0.049	-0.305
-498.624	-144.050	0.139	-0.013
-497.610	549.700	-0.039	0.093
-496.595	-200.000	-0.010	0.348
-495.581	-18.623	-0.287	-0.178
-494.566	-200.000	-0.013	0.119
-493.551	-50.906	-0.244	-0.114
-492.537	523.179	-0.078	-0.183
-491.522	-46.799	0.237	-0.116
-490.508	358.802	-0.197	0.391
-489.493	-200.000	-0.078	0.538
-488.478	291.080	-0.056	-0.102
-487.464	-200.000	-0.008	0.071
-486.449	800.000	-0.078	-0.253
-485.435	6.708	0.123	-0.091
-484.420	469.209	0.081	0.181
-483.405	-200.000	0.044	-0.295
-482.391	-34.936	0.223	0.121
-481.376	-200.000	0.045	-0.196
-480.362	-36.529	-0.249	0.133
-479.347	-53.578	0.158	-0.072
-478.332	-128.419	-0.322	-0.046
-477.318	36.078	0.283	-0.248
-476.303	-64.242	0.124	0.050
-475.289	414.661	-0.064	0.136
-474.274	47.981	-0.026	0.025
-473.259	329.516	0.105	0.200
-472.245	-27.694	0.407	0.235
-471.230	516.809	-0.087	-0.202
-470.216	800.000	-0.081	-0.237
-469.201	39.583	0.117	0.104
-468.186	-200.000	-0.019	0.128
-467.172	-137.114	-0.309	0.035
-466.157	-137.950	0.274	0.030
-465.143	800.000	0.017	-0.067
-464.128	-38.246	0.097	0.051
-463.113	-179.771	-0.287	-0.006
-462.099	800.000	-0.179	-0.493
-461.084	161.802	0.145	-0.202
-460.070	-27.427	0.073	-0.042
-459.055	57.121	0.066	-0.064
-458.040	-200.000	0.019	0.185
-457.026	-121.370	0.371	-0.061
-456.011	182.006	0.242	0.354
-454.997	-101.121	-0.220	-0.053
-453.982	-200.000	-0.034	0.177
-452.968	87.959	-0.021	-0.024
-451.953	-151.849	0.120	0.009
-450.938	-14.939	-0.140	0.089
-449.924	800.000	-0.058	-0.210
-448.909	-48.827	-0.097	0.046
-447.895	76.697	0.111	0.117
-446.880	69.500	0.094	0.096
-445.865	-200.000	0.033	0.250
-444.851	90.855	0.184	-0.204
-443.836	-55.643	0.044	0.020
-442.822	243.468	-0.146	-0.243
-441.807	-46.248	0.251	0.123
-440.792	153.382	0.157	0.214
-439.778	800.000	0.035	-0.118
-438.763	-200.000	-0.006	-0.304
-437.749	-100.346	0.263	-0.065
-436.734	-200.000	-0.008	-0.143
-435.719	54.616	-0.346	-0.332
-434.705	800.000	-0.083	0.296
-433.690	-200.000	0.007	-0.240
-432.676	16.568	0.121	0.095
-431.661	686.678	0.076	-0.198
-430.646	-101.562	0.217	-0.052
-429.632	174.279	0.158	0.227
-428.617	268.398	0.069	-0.121
-427.603	-125.889	-0.489	0.073
-426.588	83.996	-0.083	-0.090
-425.573	31.155	-0.092	0.079
-424.559	170.475	0.163	0.232
-423.544	-200.000	-0.058	0.266
-422.530	-116.340	0.466	-0.085
-421.515	-86.266	-0.342	0.105
-420.500	-94.524	0.417	0.113
-419.486	-92.687	-0.282	0.078
-418.471	73.466	0.116	0.121
-417.457	102.371	0.107	-0.124
-416.442	-198.048	0.190	0.001
-415.428	800.000	0.014	-0.043
-414.413	-150.197	0.408	0.031
-413.398	-129.897	-0.160	0.022
-412.384	-147.612	0.145	-0.012
-411.369	490.737	-0.079	-0.179
-410.355	-200.000	0.081	0.411
-409.340	673.758	0.102	-0.262
-408.325	82.499	0.157	-0.169
-407.311	47.485	0.041	0.038
-406.296	-89.744	0.397	0.115
-405.282	-60.138	0.472	0.199
-404.267	37.039	0.125	-0.110
-403.252	-129.083	0.110	-0.015
-402.238	800.000	0.114	0.314
-401.223	39.938	0.272	0.242
-400.209	-95.975	0.456	-0.120
-399.194	100.191	-0.232	-0.266
-398.179	-126.365	-0.512	-0.076
-397.165	-27.718	0.296	0.170
-396.150	53.969	0.248	-0.236
-395.136	-91.965	-0.042	0.012
-394.121	477.212	-0.110	0.248
-393.106	45.436	-0.212	0.194
-392.092	-45.634	-0.175	0.086
-391.077	800.000	0.078	0.240
-390.063	-200.000	-0.006	0.086
-389.048	800.000	-0.038	-0.130
-388.033	-94.236	0.380	-0.103
-387.019	-200.000	-0.054	-0.299
-386.004	10.649	-0.298	0.225
-384.990	-44.721	0.097	0.048
-383.975	-123.549	0.063	-0.010
-382.960	22.774	0.179	0.146
-381.946	-11.392	-0.371	0.242
-380.931	800.000	0.065	-0.185
-379.917	412.891	0.017	0.036
-378.902	-57.028	0.135	-0.059
-377.888	800.000	-0.009	-0.026
-376.873	-35.873	-0.136	0.073
-375.858	719.046	-0.064	-0.167
-374.844	48.470	-0.077	0.072
-373.829	800.000	0.070	0.192
-372.815	19.551	-0.273	0.217
-371.800	800.000	-0.006	-0.018
-370.785	-200.000	-0.005	-0.077
-369.771	-140.535	0.145	0.015
-368.756	-39.983	0.358	0.185
-367.742	-73.003	0.220	0.080
-366.727	373.827	0.172	-0.346
-365.712	86.248	0.068	-0.074
-364.698	800.000	0.126	-0.509
-363.683	32.092	0.161	-0.137
-362.669	5.863	0.114	-0.084
-361.654	393.517	-0.118	0.243
-360.639	417.106	0.152	-0.321
-359.625	-200.000	-0.007	-0.093
-358.610	800.000	0.045	-0.130
-357.596	-200.000	-0.049	0.221
-356.581	-31.519	0.253	0.141
-355.566	523.809	0.060	-0.138
-354.552	800.000	0.090	0.324
-353.537	-41.392	-0.103	0.052
-352.523	-78.207	0.148	-0.050
-351.508	-39.230	-0.200	-0.104
-350.493	40.030	0.313	-0.278
-349.479	-70.302	0.168	0.063
-348.464	-137.591	-0.135	0.015
-347.450	-68.764	0.096	0.037
-346.435	709.501	0.051	0.133
-345.420	-102.695	0.295	-0.069
-344.406	351.788	-0.042	-0.082
-343.391	-200.000	0.008	-0.094
-342.377	57.306	-0.086	-0.083
-341.362	-131.417	-0.317	-0.041
-340.348	-29.555	0.170	0.096
-339.333	233.335	0.157	-0.256
-338.318	-98.121	0.069	0.018
-337.304	321.985	0.086	0.161
-336.289	-122.821	0.298	0.048
-335.275	376.192	-0.165	-0.334
-334.260	-200.000	-0.048	-0.324
-333.245	170.667	0.047	-0.066
-332.231	-57.952	0.301	-0.130
-331.216	800.000	0.048	0.184
-330.202	109.864	-0.301	0.357
-329.187	253.200	-0.104	0.175
-328.172	-107.069	-0.182	0.040
-327.158	-64.936	0.153	-0.061
-326.143	-134.300	-0.318	-0.039
-325.129	-103.866	0.079	-0.018
-324.114	-162.743	-0.366	-0.018
-323.099	-7.971	-0.225	-0.150
-322.085	-45.357	-0.413	-0.202
-321.070	-200.000	0.036	0.406
-320.056	-42.875	0.222	0.111
-319.041	-194.277	-0.047	0.000
-318.026	108.839	-0.081	0.096
-317.012	101.697	-0.239	-0.276
-315.997	-158.185	0.067	-0.004
-314.983	-160.280	0.152	0.008
-313.968	11.263	-0.258	0.195
-312.953	55.450	0.074	-0.071
-311.939	55.200	-0.321	-0.306
-310.924	-71.438	0.221	-0.082
-309.910	-200.000	-0.033	0.175
-308.895	-104.902	0.139	-0.032
-307.880	-200.000	-0.002	0.058
-306.866	-97.142	-0.229	0.059
-305.851	-150.365	-0.207	-0.016
-304.837	-150.141	-0.136	-0.010
-303.822	25.809	-0.140	0.115
-302.807	-86.862	-0.133	0.040
-301.793	33.886	-0.108	-0.093
-300.778	-200.000	-0.010	0.145
-299.764	20.609	-0.215	-0.172
-298.749	-107.175	-0.272	0.059
-297.735	132.487	-0.142	-0.180
-296.720	-98.897	-0.361	-0.091
-295.705	40.040	0.215	-0.190
-294.691	152.907	-0.158	0.213
-293.676	-110.937	0.344	0.070
-292.662	-14.833	0.151	-0.096
-291.647	-166.369	-0.223	-0.009
-290.632	800.000	-0.084	0.329
-289.618	-67.358	0.093	-0.036
-288.603	411.644	0.070	0.147
-287.589	105.987	0.242	0.283
-286.574	-2.275	0.238	0.165
-285.559	-200.000	-0.067	-0.312
-284.545	25.192	-0.231	-0.189
-283.530	-144.978	-0.291	0.026
-282.516	22.853	-0.106	-0.085
-281.501	-5.563	0.048	0.033
-280.486	-187.075	0.290	0.004
-279.472	293.566	0.172	-0.309
-278.457	95.279	-0.238	-0.268
-277.443	-30.165	-0.236	-0.133
-276.428	-97.420	0.177	0.045
-275.413	237.265	-0.176	0.288
-274.399	215.702	0.205	0.321
-273.384	800.000	0.096	0.268
-272.370	-200.000	0.035	0.166
-271.355	131.302	-0.143	-0.181
-270.340	-143.868	-0.095	0.009
-269.326	486.372	0.121	-0.271
-268.311	211.897	0.138	0.214
-267.297	231.626	0.205	0.331
-266.282	-200.000	0.058	0.605
-265.267	-128.912	0.329	0.046
-264.253	-135.822	0.147	-0.017
-263.238	517.780	0.136	0.315
-262.224	-200.000	0.103	-0.490
-261.209	99.485	-0.260	-0.297
-260.195	-200.000	0.022	0.109
-259.180	-34.890	0.378	0.203
-258.165	-200.000	0.022	0.169
-257.151	-136.141	0.173	0.020
-256.136	800.000	-0.080	0.284
-255.122	141.707	-0.107	0.140
-254.107	-0.689	0.179	-0.125
-253.092	478.322	-0.055	0.123
-252.078	249.789	0.224	0.374
-251.063	-135.236	0.509	0.060
-250.049	800.000	0.014	-0.046
-249.034	-200.000	0.014	0.224
-248.019	-112.887	-0.388	0.076
-247.005	-8.000	0.216	-0.144
-245.990	-96.677	0.324	-0.084
-244.976	126.589	-0.229	0.286
-243.961	-31.025	0.297	-0.165
-242.946	-146.105	0.239	-0.021
-241.932	-147.173	-0.101	-0.009
-240.917	-76.316	-0.332	0.115
-239.903	12.360	-0.014	-0.011
-238.888	120.890	-0.117	0.143
-237.873	-100.062	-0.098	-0.024
-236.859	64.847	0.190	-0.189
-235.844	-114.645	0.276	0.052
-234.830	-158.707	-0.261	-0.015
-233.815	-200.000	0.022	-0.244
-232.800	-56.516	0.197	0.086
-231.786	313.833	0.049	-0.092
-230.771	-73.589	-0.246	0.088
-229.757	277.997	0.144	0.252
-228.742	-78.520	-0.143	0.048
-227.727	23.768	-0.054	0.044
-226.713	-200.000	-0.018	-0.349
-225.698	121.296	-0.051	0.063
-224.684	-177.237	0.083	0.002
-223.669	-129.342	-0.351	0.048
-222.655	162.558	0.159	0.219
-221.640	421.697	-0.114	0.240
-220.625	-11.284	-0.332	0.215
-219.611	106.902	0.081	-0.095
-218.596	-200.000	0.038	-0.335
-217.582	-35.831	-0.057	-0.030
-216.567	-39.935	-0.212	0.109
-215.552	-76.508	-0.324	-0.112
-214.538	-27.380	0.010	0.006
-213.523	70.626	0.230	-0.235
-212.509	-37.971	-0.358	0.187
-211.494	-99.142	-0.097	0.024
-210.479	230.695	-0.044	-0.071
-209.465	92.284	-0.171	-0.190
-208.450	-200.000	0.019	-0.115
-207.436	251.267	-0.176	0.294
-206.421	-123.793	0.566	-0.088
-205.406	-153.454	0.129	0.009
-204.392	-40.315	0.183	0.094
-203.377	-146.433	-0.540	-0.046
-202.363	800.000	-0.085	-0.256
-201.348	800.000	-0.134	0.380
-200.333	109.846	-0.117	-0.138
-199.319	-105.126	0.229	0.051
-198.304	-68.762	-0.264	0.101
-197.290	124.210	-0.134	-0.166
-196.275	73.004	-0.289	-0.297
-195.260	-127.795	0.217	0.031
-194.246	-153.201	-0.490	-0.034
-193.231	800.000	0.035	0.115
-192.217	256.588	0.080	-0.136
-191.202	-42.293	0.099	0.049
-190.187	-196.954	-0.540	-0.003
-189.173	-67.718	0.110	-0.042
-188.158	800.000	0.096	-0.270
-187.144	328.632	0.099	-0.186
-186.129	339.664	-0.119	0.229
-185.114	-87.882	0.195	-0.058
-184.100	-11.328	0.197	0.127
-183.085	624.530	0.082	-0.203
-182.071	-200.000	0.032	-0.179
-181.056	-200.000	-0.069	0.375
-180.042	228.107	-0.060	0.096
-179.027	800.000	-0.083	-0.298
-178.012	-170.960	-0.382	-0.013
-176.998	-103.611	-0.133	0.031
-175.983	500.545	-0.089	-0.202
-174.969	-170.428	0.162	0.006
-173.954	44.527	-0.207	0.187
-172.939	396.910	-0.081	0.166
-171.925	101.240	0.293	0.335
-170.910	-91.109	-0.190	0.053
-169.896	-200.000	0.010	0.116
-168.881	11.916	-0.262	-0.198
-167.866	-15.189	-0.065	-0.041
-166.852	347.219	-0.167	-0.324
-165.837	-114.989	-0.340	0.064
-164.823	223.333	-0.084	-0.133
-163.808	72.885	-0.358	0.367
-162.793	94.792	-0.173	0.193
-161.779	112.763	-0.096	0.114
-160.764	15.096	-0.072	0.056
-159.750	272.136	-0.053	-0.092
-158.735	-8.126	-0.267	-0.176
-157.720	157.711	0.082	0.112
-156.706	800.000	-0.079	0.228
-155.691	138.980	-0.092	-0.119
-154.677	-200.000	0.053	0.262
-153.662	60.682	-0.070	0.068
-152.647	60.199	0.034	0.033
-151.633	671.269	0.087	-0.222
-150.618	-149.552	-0.037	-0.003
-149.604	36.399	-0.442	0.382
-148.589	-33.726	0.295	-0.160
-147.574	149.051	0.259	-0.343
-146.560	594.555	-0.073	-0.177
-145.545	800.000	-0.058	-0.163
-144.531	-183.435	-0.187	0.003
-143.516	236.602	-0.031	-0.050
-142.502	238.871	-0.033	-0.054
-141.487	800.000	0.119	-0.444
-140.472	-11.667	-0.312	-0.201
-139.458	800.000	0.079	-0.238
-138.443	621.305	-0.107	-0.264
-137.429	55.023	0.008	0.008
-136.414	55.052	-0.186	-0.176
-135.399	-153.375	-0.034	0.002
-134.385	-200.000	-0.037	-0.166
-133.370	474.708	0.230	0.510
-132.356	800.000	-0.127	-0.372
-131.341	-200.000	0.009	-0.051
-130.326	-200.000	-0.051	-0.423
-129.312	-25.489	-0.126	-0.073
-128.297	89.474	0.179	0.196
-127.283	-102.384	-0.272	0.064
-126.268	-200.000	-0.356	0.002
-125.253	-94.282	-0.236	0.063
-124.239	77.527	-0.087	-0.091
-123.224	-66.686	0.234	0.091
-122.210	111.434	0.101	0.119
-121.195	-80.171	0.335	0.110
-120.180	-200.000	-0.031	-0.160
-119.166	648.052	-0.038	0.095
-118.151	26.010	-0.148	-0.121
-117.137	33.508	-0.056	0.047
-116.122	-186.692	-0.177	-0.002
-115.107	-36.868	0.068	-0.036
-114.093	-20.719	-0.119	0.072
-113.078	-105.252	-0.130	0.029
-112.064	-128.075	-0.320	-0.045
-111.049	50.091	-0.283	0.262
-110.034	-90.921	0.224	0.063
-109.020	-88.682	0.119	-0.035
-108.005	-113.337	-0.069	-0.013
-106.991	-200.000	-0.021	0.141
-105.976	-200.000	0.029	-0.139
-104.962	-10.706	0.332	0.215
-103.947	-12.450	0.362	0.231
-102.932	-30.149	-0.254	0.142
-101.918	-29.792	0.430	0.240
-100.903	87.573	-0.070	-0.076
-99.889	-200.000	0.046	-0.219
-98.874	800.000	0.059	0.209
-97.859	-98.550	0.236	0.059
-96.845	800.000	-0.021	-0.070
-95.830	800.000	-0.062	-0.200
-94.816	82.328	-0.234	-0.248
-93.801	-134.130	-0.161	0.020
-92.786	800.000	-0.051	0.149
-91.772	-13.740	-0.180	0.114
-90.757	-106.844	-0.063	0.014
-89.743	92.720	-0.046	-0.051
-88.728	800.000	-0.055	-0.197
-87.713	46.563	0.198	-0.180
-86.699	-156.867	0.250	-0.015
-85.684	800.000	-0.074	-0.317
-84.670	800.000	0.138	0.413
-83.655	214.993	-0.069	0.107
-82.640	25.737	-0.166	0.136
-81.626	163.502	0.069	-0.094
-80.611	-200.000	-0.019	0.261
-79.597	-15.343	0.166	0.104
-78.582	-180.429	0.086	0.002
-77.567	387.411	0.063	0.128
-76.553	20.231	-0.279	0.221
-75.538	-131.226	0.288	-0.037
-74.524	-72.110	-0.261	0.095
-73.509	-85.331	0.378	0.116
-72.494	800.000	0.093	0.280
-71.480	-31.538	-0.239	0.132
-70.465	665.201	-0.060	-0.150
-69.451	800.000	0.017	0.055
-68.436	24.082	0.121	-0.097
-67.422	119.036	0.048	-0.058
-66.407	-107.082	-0.248	-0.054
-65.392	-70.224	-0.144	-0.053
-64.378	325.161	0.135	-0.253
-63.363	668.121	0.061	0.154
-62.349	-54.832	-0.063	0.028
-61.334	192.098	-1.023	-1.509
-60.319	154.334	0.421	0.565
-59.305	203.129	-0.868	-1.312
-58.290	800.000	0.431	1.266
-57.276	800.000	0.412	1.415
-56.261	-200.000	112.679	646.746
-55.246	480.043	1501.751	3330.334
-54.232	147.456	2675.561	3524.046
-53.217	98.406	2285.639	2576.186
-52.203	36.625	1899.403	1640.190
-51.188	30.688	1691.700	1415.759
-50.173	28.130	1650.135	1361.901
-49.159	50.299	1703.933	1574.302
-48.144	49.130	1719.056	1579.396
-47.130	30.448	1677.193	1401.589
-46.115	27.648	1663.155	1368.816
-45.100	27.495	1658.011	1363.378
-44.086	27.478	1655.704	1361.305
-43.071	27.526	1652.827	1359.241
-42.057	27.465	1650.141	1356.524
-41.042	27.511	1648.181	1355.202
-40.027	27.471	1646.405	1353.388
-39.013	27.413	1644.434	1351.285
-37.998	27.430	1642.860	1350.067
-36.984	27.461	1641.533	1349.149
-35.969	27.583	1640.378	1349.048
-34.954	27.570	1638.688	1347.510
-33.940	27.544	1637.202	1346.041
-32.925	27.520	1635.319	1344.268
-31.911	27.539	1633.343	1342.729
-30.896	27.597	1631.418	1341.519
-29.881	27.481	1630.116	1339.545
-28.867	27.633	1627.967	1338.842
-27.852	27.590	1626.570	1337.320
-26.838	27.521	1625.274	1335.695
-25.823	27.529	1624.285	1334.888
-24.809	27.593	1622.941	1334.199
-23.794	27.510	1621.717	1332.535
-22.779	27.554	1619.993	1331.385
-21.765	27.633	1618.228	1330.460
-20.750	27.539	1616.922	1328.645
-19.736	27.495	1615.398	1327.020
-18.721	27.684	1613.885	1327.103
-17.706	27.643	1612.334	1325.478
-16.692	27.601	1610.732	1323.801
-15.677	27.536	1609.963	1322.644
-14.663	27.740	1608.266	1322.679
-13.648	27.662	1607.038	1321.054
-12.633	27.586	1605.402	1319.104
-11.619	27.567	1604.003	1317.763
-10.604	27.604	1602.117	1316.431
-9.590	27.625	1601.493	1316.013
-8.575	27.622	1599.861	1314.603
-7.560	27.577	1598.883	1313.418
-6.546	27.597	1597.884	1312.696
-5.531	27.579	1596.911	1311.710
-4.517	27.534	1595.871	1310.482
-3.502	27.570	1594.694	1309.724
-2.487	27.609	1593.226	1308.741
-1.473	27.394	1580.849	1296.993
-0.458	24.819	1562.424	1263.667
0.556	19.642	1564.781	1234.790
1.571	17.548	1588.736	1238.374
2.586	17.392	1601.012	1246.688
3.600	16.596	1551.055	1202.023
4.615	13.732	1451.710	1105.870
5.629	10.810	1396.489	1044.940
6.644	10.260	1389.667	1036.227
7.659	10.184	1388.960	1035.123
8.673	10.159	1387.425	1033.725
9.688	10.106	1385.297	1031.710
10.702	10.119	1381.916	1029.181
11.717	11.423	1384.253	1039.137
12.731	14.746	1389.928	1064.518
13.746	17.268	1393.337	1083.124
14.761	17.480	1392.491	1083.724
15.775	16.526	1389.924	1075.566
16.790	15.469	1387.825	1067.129
17.804	14.694	1385.030	1059.971
18.819	14.127	1383.820	1055.349
19.834	13.898	1382.426	1052.740
20.848	13.677	1381.108	1050.245
21.863	13.396	1380.039	1047.560
22.877	13.221	1378.853	1045.461
23.892	13.257	1377.665	1044.695
24.907	13.203	1376.842	1043.637
25.921	13.255	1375.766	1043.057
26.936	13.306	1375.106	1042.786
27.950	13.399	1373.985	1042.432
28.965	13.372	1372.939	1041.376
29.980	13.422	1371.554	1040.545
30.994	13.543	1370.342	1040.293
32.009	13.565	1369.603	1039.783
33.023	13.546	1368.170	1038.480
34.038	13.568	1366.210	1037.040
35.053	13.442	1365.745	1035.805
36.067	13.489	1364.775	1035.273
37.082	13.387	1363.730	1033.754
38.096	13.360	1363.029	1032.959
39.111	13.463	1361.863	1032.630
40.126	13.448	1360.909	1031.717
41.140	13.233	1360.414	1029.917
42.155	13.269	1359.135	1029.078
43.169	13.158	1359.238	1028.373
44.184	13.233	1358.894	1028.490
45.199	13.297	1358.309	1028.352
46.213	13.355	1357.350	1027.896
47.228	13.371	1356.823	1027.504
48.242	13.372	1355.570	1026.474
49.257	13.350	1354.219	1025.223
50.271	13.348	1352.396	1023.742
51.286	13.383	1351.463	1023.158
52.301	13.441	1350.065	1022.366
53.315	13.326	1349.477	1021.120
54.330	13.346	1348.266	1020.242
55.344	13.241	1346.778	1018.374
56.359	13.215	1345.854	1017.431
57.374	13.164	1345.352	1016.646
58.388	13.217	1344.323	1016.103
59.403	13.132	1343.874	1015.153
60.417	13.189	1343.187	1014.891
61.432	13.116	1342.322	1013.703
62.447	13.056	1341.398	1012.547
63.461	13.174	1339.647	1011.855
64.476	13.130	1338.626	1010.726
65.490	13.135	1337.617	1009.904
66.505	13.106	1336.094	1008.492
67.520	13.102	1334.835	1007.423
68.534	13.210	1334.043	1007.396
69.549	13.189	1332.721	1006.181
70.563	13.228	1331.930	1005.732
71.578	13.000	1330.657	1003.299
72.593	12.965	1330.124	1002.595
73.607	12.949	1329.123	1001.657
74.622	13.005	1328.185	1001.195
75.636	13.000	1327.807	1000.797
76.651	13.077	1326.457	1000.152
77.666	13.063	1325.748	999.444
78.680	13.076	1325.801	999.478
79.695	12.988	1324.926	998.195
80.709	13.118	1324.058	998.242
81.724	13.251	1323.100	998.231
82.739	13.327	1322.157	997.890
83.753	13.342	1321.506	997.404
84.768	13.455	1320.143	996.966
85.782	13.399	1318.976	995.659
86.797	13.433	1317.865	994.937
87.812	13.326	1316.904	993.482
88.826	13.341	1315.550	992.462
89.841	13.363	1314.709	991.868
90.855	13.450	1313.569	991.442
91.870	13.547	1312.410	991.060
92.884	13.469	1311.962	990.172
93.899	13.433	1311.279	989.349
94.914	13.503	1310.245	988.900
95.928	13.559	1309.465	988.561
96.943	13.530	1308.271	987.395
97.957	13.478	1307.117	986.132
98.972	13.411	1306.347	985.062
99.987	13.477	1305.428	984.677
101.001	13.436	1304.334	983.521
102.016	13.496	1303.130	982.882
103.030	13.457	1302.863	982.363
104.045	13.424	1301.743	981.235
105.060	13.399	1300.441	980.020
106.074	13.307	1298.778	978.133
107.089	13.158	1297.791	976.426
108.103	13.238	1296.667	975.966
109.118	13.155	1295.248	974.320
110.133	13.226	1293.282	973.175
111.147	13.277	1292.207	972.576
112.162	13.268	1291.289	971.744
113.176	13.326	1290.020	971.048
114.191	13.322	1289.163	970.294
115.206	13.353	1288.158	969.629
116.220	13.220	1286.910	967.825
117.235	13.301	1285.144	966.888
118.249	13.252	1284.615	966.117
119.264	13.196	1283.720	965.034
120.279	13.193	1282.793	964.233
121.293	13.235	1281.631	963.518
122.308	13.156	1280.356	962.016
123.322	13.249	1279.556	961.872
124.337	13.212	1277.985	960.390
125.352	13.219	1277.203	959.755
126.366	13.214	1275.980	958.726
127.381	13.126	1275.033	957.417
128.395	13.223	1274.017	957.130
129.410	13.246	1273.079	956.475
130.424	13.167	1272.294	955.343
131.439	13.300	1271.245	955.241
132.454	13.067	1270.467	953.226
133.468	13.327	1269.297	953.765
134.483	13.374	1268.265	953.172
135.497	13.250	1267.558	951.845
136.512	13.261	1265.880	950.565
137.527	13.270	1264.761	949.692
138.541	13.382	1263.275	949.136
139.556	13.301	1261.660	947.375
140.570	13.319	1261.174	947.027
141.585	13.459	1259.702	946.640
142.600	13.533	1258.666	946.200
143.614	13.526	1257.937	945.524
144.629	13.549	1256.865	944.772
145.643	13.579	1255.852	944.097
146.658	13.511	1254.376	942.517
147.673	13.408	1253.019	940.828
148.687	13.343	1251.514	939.243
149.702	13.367	1250.202	938.312
150.716	13.312	1249.444	937.347
151.731	13.405	1247.699	936.485
152.746	13.414	1246.909	935.859
153.760	13.478	1245.602	935.155
154.775	13.559	1244.053	934.367
155.789	13.476	1243.417	933.337
156.804	13.572	1242.112	932.815
157.819	13.501	1241.344	931.758
158.833	13.650	1240.426	931.826
159.848	13.763	1239.204	931.459
160.862	13.599	1238.062	929.597
161.877	13.512	1237.342	928.487
162.892	13.496	1236.393	927.605
163.906	13.450	1235.361	926.492
164.921	13.540	1234.722	926.430
165.935	13.618	1233.624	925.962
166.950	13.653	1232.518	925.243
167.964	13.588	1231.891	924.329
168.979	13.680	1231.093	924.161
169.994	13.509	1231.086	923.122
171.008	13.578	1229.729	922.409
172.023	13.626	1229.446	922.378
173.037	13.772	1228.361	922.294
174.052	13.658	1227.688	921.073
175.067	13.693	1226.063	919.967
176.081	13.657	1225.462	919.237
177.096	13.540	1224.796	918.011
178.110	13.622	1223.498	917.409
179.125	13.585	1222.382	916.286
180.140	13.710	1220.886	915.775
181.154	13.763	1219.724	915.111
182.169	13.754	1218.576	914.121
183.183	13.662	1217.935	913.054
184.198	13.884	1216.157	912.858
185.213	13.927	1214.796	911.995
186.227	13.870	1214.055	911.044
187.242	13.899	1213.115	910.415
188.256	13.829	1212.063	909.162
189.271	14.008	1211.340	909.518
190.286	13.817	1210.061	907.437
191.300	13.612	1209.549	905.851
192.315	13.587	1208.820	905.090
193.329	13.608	1207.842	904.392
194.344	13.714	1207.201	904.411
195.359	13.753	1207.148	904.503
196.373	13.877	1206.069	904.286
197.388	13.912	1205.381	903.884
198.402	14.020	1205.317	904.344
199.417	14.096	1204.486	904.051
200.432	14.108	1203.555	903.341
201.446	14.108	1202.765	902.667
202.461	14.010	1202.063	901.528
203.475	14.134	1201.151	901.434
204.490	14.191	1199.319	900.288
205.504	14.079	1198.029	898.639
206.519	14.042	1197.291	897.802
207.534	14.079	1195.932	896.906
208.548	14.016	1194.927	895.733
209.563	14.115	1194.074	895.550
210.577	14.032	1193.483	894.577
211.592	14.139	1192.285	894.177
212.607	14.299	1191.393	894.286
213.621	14.348	1190.694	893.944
214.636	14.228	1189.961	892.672
215.650	14.158	1189.474	891.853
216.665	14.211	1188.486	891.316
217.680	14.382	1187.436	891.368
218.694	14.294	1186.693	890.258
219.709	14.251	1185.944	889.389
220.723	14.288	1185.363	889.074
221.738	14.328	1184.043	888.218
222.753	14.259	1183.795	887.582
223.767	14.342	1182.869	887.255
224.782	14.471	1181.976	887.189
225.796	14.491	1181.156	886.603
226.811	14.533	1180.689	886.400
227.826	14.355	1179.948	884.816
228.840	14.420	1179.320	884.614
229.855	14.353	1179.209	884.096
230.869	14.414	1177.744	883.242
231.884	14.346	1176.824	882.116
232.899	14.332	1175.869	881.248
233.913	14.321	1175.309	880.692
234.928	14.410	1174.672	880.606
235.942	14.340	1173.787	879.495
236.957	14.446	1172.882	879.298
237.972	14.282	1172.685	878.208
238.986	14.464	1171.661	878.321
240.001	14.404	1171.159	877.550
241.015	14.263	1170.505	876.244
242.030	14.396	1169.633	876.210
243.045	14.517	1168.639	876.023
244.059	14.571	1167.769	875.579
245.074	14.552	1166.959	874.796
246.088	14.555	1166.098	874.090
247.103	14.525	1165.618	873.495
248.117	14.637	1164.717	873.326
249.132	14.764	1164.153	873.490
250.147	14.808	1163.186	872.920
251.161	14.889	1162.633	872.846
252.176	14.830	1161.965	871.960
253.190	14.940	1161.415	872.045
254.205	14.943	1161.023	871.692
255.220	15.031	1159.724	871.098
256.234	14.875	1159.486	870.029
257.249	14.967	1158.521	869.706
258.263	15.037	1157.920	869.540
259.278	14.965	1157.176	868.533
260.293	15.025	1156.742	868.437
261.307	15.056	1156.293	868.184
262.322	15.098	1155.658	867.849
263.336	15.081	1155.138	867.298
264.351	15.130	1154.361	866.887
265.366	15.110	1153.669	866.190
266.380	15.174	1152.842	865.820
267.395	15.171	1152.008	865.102
268.409	15.131	1151.055	864.104
269.424	15.146	1150.623	863.784
270.439	15.108	1150.290	863.259
271.453	15.188	1149.265	862.826
272.468	15.066	1148.332	861.419
273.482	15.048	1147.910	860.935
274.497	15.000	1147.294	860.151
275.512	15.158	1146.620	860.382
276.526	15.128	1146.083	859.746
277.541	15.236	1144.652	859.153
278.555	15.105	1144.558	858.332
279.570	15.268	1143.816	858.537
280.585	15.223	1142.532	857.265
281.599	15.243	1141.959	856.866
282.614	15.232	1140.985	856.002
283.628	15.194	1139.474	854.595
284.643	15.286	1138.743	854.443
285.657	15.338	1137.788	853.913
286.672	15.364	1136.935	853.330
287.687	15.344	1135.927	852.397
288.701	15.291	1135.727	851.904
289.716	15.310	1134.930	851.329
290.730	15.440	1133.929	851.161
291.745	15.365	1133.048	850.044
292.760	15.366	1132.660	849.682
293.774	15.387	1132.386	849.508
294.789	15.537	1131.468	849.502
295.803	15.505	1130.862	848.809
296.818	15.312	1130.389	847.406
297.833	15.428	1129.310	847.109
298.847	15.517	1128.202	846.650
299.862	15.559	1127.361	846.154
300.876	15.574	1126.871	845.785
301.891	15.627	1126.675	845.831
302.906	15.564	1126.011	844.941
303.920	15.650	1125.036	844.568
304.935	15.754	1124.335	844.490
305.949	15.648	1124.308	843.861
306.964	15.634	1123.194	842.881
307.979	15.696	1122.233	842.397
308.993	15.805	1121.538	842.344
310.008	15.784	1120.797	841.609
311.022	15.724	1119.979	840.618
312.037	15.742	1119.376	840.185
313.052	15.766	1118.364	839.467
314.066	15.764	1117.123	838.452
315.081	15.754	1116.160	837.610
316.095	15.665	1115.588	836.660
317.110	15.755	1114.675	836.351
318.125	15.764	1114.099	835.887
319.139	15.724	1113.570	835.217
320.154	15.696	1112.896	834.499
321.168	15.637	1112.537	833.863
322.183	15.659	1111.980	833.482
323.197	15.751	1111.436	833.457
324.212	15.849	1110.615	833.254
325.227	15.775	1109.958	832.319
326.241	15.824	1109.150	831.881
327.256	15.865	1108.169	831.273
328.270	15.823	1107.056	830.157
329.285	15.808	1106.239	829.398
330.300	15.789	1105.882	828.965
331.314	15.829	1104.906	828.359
332.329	15.726	1103.684	826.861
333.343	15.767	1103.303	826.702
334.358	15.842	1102.103	826.100
335.373	15.898	1101.312	825.710
336.387	16.083	1100.116	825.645
337.402	15.917	1100.147	824.783
338.416	15.919	1099.078	823.919
339.431	16.108	1098.232	824.132
340.446	16.090	1097.914	823.736
341.460	16.225	1097.110	823.716
342.475	16.145	1096.449	822.757
343.489	16.119	1095.276	821.676
344.504	16.231	1094.224	821.361
345.519	16.063	1093.913	820.238
346.533	16.233	1093.038	820.334
347.548	16.230	1092.281	819.681
348.562	16.283	1091.468	819.255
349.577	16.313	1090.449	818.563
350.592	16.265	1089.864	817.819
351.606	16.144	1088.919	816.451
352.621	16.043	1088.605	815.654
353.635	16.155	1087.874	815.576
354.650	16.305	1086.894	815.493
355.665	16.327	1085.929	814.807
356.679	16.245	1085.579	814.075
357.694	16.248	1085.065	813.632
358.708	16.342	1084.375	813.496
359.723	16.345	1083.449	812.745
360.738	16.347	1083.258	812.537
361.752	16.385	1082.768	812.282
362.767	16.363	1082.382	811.811
363.781	16.336	1081.575	811.007
364.796	16.490	1080.832	811.118
365.810	16.527	1080.165	810.720
366.825	16.464	1079.899	810.147
367.840	16.639	1079.107	810.320
368.854	16.599	1078.639	809.705
369.869	16.653	1077.972	809.393
370.883	16.623	1077.001	808.449
371.898	16.625	1076.051	807.671
372.913	16.514	1076.008	807.041
373.927	16.603	1075.295	806.860
374.942	16.561	1075.041	806.396
375.956	16.632	1074.307	806.113
376.971	16.694	1073.675	805.859
377.986	16.754	1073.220	805.732
379.000	16.764	1072.758	805.362
380.015	16.787	1072.034	804.856
381.029	16.830	1071.378	804.497
382.044	16.829	1070.674	803.892
383.059	16.839	1069.754	803.180
384.073	16.783	1069.378	802.562
385.088	16.797	1068.349	801.784
386.102	16.911	1067.145	801.346
387.117	16.921	1066.206	800.617
388.132	16.769	1065.379	799.211
389.146	16.794	1064.531	798.619
390.161	16.751	1064.066	798.000
391.175	16.867	1063.316	797.912
392.190	16.952	1062.426	797.574
393.205	16.977	1061.655	797.040
394.219	17.048	1060.639	796.540
395.234	16.962	1059.943	795.543
396.248	16.996	1059.054	794.968
397.263	16.914	1058.000	793.721
398.278	16.736	1057.916	792.757
399.292	16.991	1056.495	792.811
400.307	16.888	1056.195	792.035
401.321	16.771	1055.630	790.995
402.336	16.768	1055.130	790.537
403.350	16.792	1054.218	789.894
404.365	16.880	1053.464	789.669
405.380	16.923	1052.886	789.365
406.394	16.930	1051.966	788.640
407.409	17.003	1051.544	788.594
408.423	17.120	1050.593	788.353
409.438	17.158	1049.970	787.991
410.453	17.115	1049.375	787.276
411.467	17.292	1048.488	787.364
412.482	17.363	1047.977	787.238
413.496	17.378	1047.434	786.829
414.511	17.269	1046.874	785.836
415.526	17.413	1046.451	786.112
416.540	17.383	1046.010	785.575
417.555	17.305	1045.343	784.643
418.569	17.331	1045.149	784.546
419.584	17.440	1044.382	784.404
420.599	17.348	1043.926	783.567
421.613	104.580	1325.739	1476.210
422.628	96.062	1366.749	1476.312
