DTS Sentinel unit serial number:	SN413079Multiplexer serial number:	ORYXHardware model number:	OX4-SRSoftware version number:	ORYX F/W v4.00 Oryx Data Collector v3.7.2.0data status	okinstallation	princeton_trtdifferential loss correction	single-endedforward channel	channel 2reverse channel	N/Adate	2019/09/13time	15:19:35forward acquisition time	60.00reverse acquisition time	0.00gamma	496.2192k internal	0.2316k external	0.2316temperature offset calibration	1.0212default loss term (dB/km)	0.3790temperature slope calibration	1.0000multiplexer offset coefficient	1.0000multiplexer slope coefficient	1.0000fibre end	0.00T internal ref (°C)	35.44T ext. ref 1 (°C)	4.72T ext. ref 2 (°C)	29.39length (m)	temperature (°C)	Stokes	anti-Stokes-747.200	-49.993	-0.179	0.086
-746.185	-200.000	0.004	0.238
-745.171	11.879	-0.202	-0.157
-744.156	-156.545	-0.260	-0.016
-743.142	-93.001	-0.249	-0.070
-742.127	-98.091	0.506	-0.132
-741.112	136.895	0.341	0.451
-740.098	-105.189	0.103	-0.024
-739.083	-88.250	0.050	-0.015
-738.069	101.439	0.248	0.292
-737.054	-200.000	-0.016	0.146
-736.039	-107.007	-0.397	0.089
-735.025	-3.965	0.098	0.069
-734.010	-200.000	-0.084	-0.522
-732.996	800.000	-0.099	-0.353
-731.981	278.487	0.088	-0.158
-730.966	-200.000	-0.024	0.373
-729.952	224.885	-0.069	-0.114
-728.937	173.732	-0.156	-0.228
-727.923	-42.995	-0.180	0.093
-726.908	5.341	-0.126	0.094
-725.894	800.000	0.084	-0.333
-724.879	-122.702	-0.270	0.044
-723.864	-115.906	-0.203	-0.038
-722.850	-102.477	0.257	-0.062
-721.835	-75.250	-0.201	-0.072
-720.821	-163.641	-0.139	0.007
-719.806	-27.445	-0.282	0.166
-718.791	479.117	0.097	0.222
-717.777	330.425	-0.068	0.132
-716.762	400.713	0.097	0.205
-715.748	92.484	0.146	-0.166
-714.733	800.000	-0.078	-0.278
-713.718	10.999	-0.048	0.037
-712.704	-84.347	-0.137	0.044
-711.689	-200.000	-0.009	-0.478
-710.675	749.626	-0.081	-0.222
-709.660	-75.336	-0.203	0.073
-708.645	-18.184	0.214	0.135
-707.631	159.738	0.112	-0.158
-706.616	-200.000	0.018	0.100
-705.602	-34.313	-0.205	0.114
-704.587	106.672	-0.022	0.027
-703.572	30.697	-0.055	0.047
-702.558	-122.420	0.196	-0.032
-701.543	3.824	0.304	-0.224
-700.529	-200.000	-0.063	-0.364
-699.514	-200.000	-0.016	0.202
-698.499	105.273	0.200	-0.238
-697.485	177.540	-0.174	-0.257
-696.470	196.368	0.136	0.209
-695.456	476.521	-0.013	-0.029
-694.441	-29.596	-0.114	0.066
-693.426	-104.536	0.182	-0.042
-692.412	-110.921	-0.414	-0.086
-691.397	213.697	-0.043	0.069
-690.383	-148.868	0.209	-0.017
-689.368	42.512	-0.018	-0.016
-688.354	187.195	-0.026	-0.039
-687.339	225.128	-0.165	-0.270
-686.324	-200.000	-0.040	-0.457
-685.310	800.000	-0.090	-0.315
-684.295	113.280	-0.064	0.078
-683.281	-26.412	-0.295	-0.175
-682.266	-140.512	-0.173	0.018
-681.251	-200.000	0.004	-0.211
-680.237	-200.000	0.062	0.000
-679.222	44.880	-0.109	-0.102
-678.208	-126.837	0.062	-0.009
-677.193	2.906	0.406	-0.298
-676.178	-115.255	0.189	0.036
-675.164	800.000	-0.043	-0.122
-674.149	800.000	-0.147	-0.427
-673.135	176.385	0.218	-0.320
-672.120	-83.614	-0.192	0.062
-671.105	800.000	-0.014	0.053
-670.091	-125.644	0.358	-0.055
-669.076	-47.467	-0.148	0.072
-668.062	-135.622	-0.122	0.015
-667.047	-48.864	0.014	-0.007
-666.032	-61.967	-0.146	0.062
-665.018	-200.000	0.028	0.204
-664.003	-11.731	-0.329	-0.218
-662.989	-142.768	0.213	-0.021
-661.974	-86.909	0.142	-0.044
-660.959	158.770	0.141	0.198
-659.945	42.451	-0.196	0.180
-658.930	-117.755	0.213	0.039
-657.916	-83.616	0.474	-0.153
-656.901	-200.000	-0.022	-0.101
-655.886	-94.416	-0.201	0.055
-654.872	-87.533	-0.158	0.048
-653.857	-89.182	-0.430	-0.128
-652.843	800.000	-0.101	-0.376
-651.828	-200.000	0.041	0.235
-650.814	-79.866	0.176	0.060
-649.799	-17.996	-0.136	0.086
-648.784	47.938	0.258	0.243
-647.770	115.732	0.162	0.200
-646.755	-130.077	-0.120	-0.017
-645.741	240.989	0.106	0.179
-644.726	-200.000	-0.017	-0.335
-643.711	-57.629	-0.275	0.122
-642.697	153.931	-0.070	-0.097
-641.682	-200.000	0.005	0.038
-640.668	-24.614	0.428	-0.257
-639.653	-164.217	-0.330	-0.015
-638.638	-200.000	-0.003	-0.138
-637.624	-200.000	-0.011	0.104
-636.609	-200.000	-0.438	-0.002
-635.595	-30.305	0.170	0.098
-634.580	391.732	0.130	0.272
-633.565	-117.271	-0.240	0.044
-632.551	110.225	-0.156	0.188
-631.536	-97.391	-0.296	0.078
-630.522	-67.358	0.086	0.034
-629.507	-200.000	0.050	-0.250
-628.492	-200.000	-0.036	0.299
-627.478	-200.000	-0.012	-0.078
-626.463	12.488	-0.130	0.101
-625.449	-2.341	-0.191	-0.135
-624.434	-200.000	-0.039	-0.246
-623.419	217.496	0.058	0.093
-622.405	-89.229	0.123	-0.037
-621.390	800.000	-0.068	-0.240
-620.376	522.121	-0.176	0.416
-619.361	81.638	-0.230	-0.251
-618.346	535.607	-0.086	0.205
-617.332	207.486	0.141	0.222
-616.317	-42.726	0.217	-0.111
-615.303	106.137	-0.093	0.111
-614.288	-200.000	0.010	0.057
-613.273	-200.000	0.028	-0.127
-612.259	-29.272	0.159	0.092
-611.244	186.698	-0.133	-0.199
-610.230	445.028	0.098	-0.217
-609.215	-200.000	-0.013	-0.154
-608.201	-200.000	0.051	-0.314
-607.186	-192.595	0.202	0.002
-606.171	-96.969	0.285	0.075
-605.157	800.000	-0.033	0.140
-604.142	-41.067	0.131	0.068
-603.128	453.823	0.055	-0.123
-602.113	-100.663	0.128	0.032
-601.098	-200.000	-0.011	-0.236
-600.084	-200.000	0.026	0.308
-599.069	-147.096	0.101	0.009
-598.055	12.328	-0.133	-0.103
-597.040	759.625	0.035	-0.096
-596.025	-27.413	-0.041	-0.024
-595.011	315.569	0.040	0.075
-593.996	800.000	-0.090	-0.298
-592.982	9.007	0.135	0.103
-591.967	-45.515	0.187	0.093
-590.952	-200.000	0.049	-0.292
-589.938	392.466	0.034	0.071
-588.923	75.367	-0.162	0.172
-587.909	-151.673	0.133	0.010
-586.894	-91.004	-0.072	0.021
-585.879	-200.000	0.006	0.167
-584.865	-56.596	-0.230	0.103
-583.850	-200.000	0.076	-0.377
-582.836	466.306	0.011	0.024
-581.821	211.082	-0.040	-0.064
-580.806	-27.610	-0.030	-0.017
-579.792	-200.000	-0.018	0.078
-578.777	-96.427	0.112	0.030
-577.763	-121.256	0.067	-0.011
-576.748	73.308	0.031	-0.033
-575.733	63.393	0.104	0.104
-574.719	-52.175	-0.097	0.045
-573.704	-200.000	0.028	-0.290
-572.690	-99.391	-0.288	-0.073
-571.675	800.000	0.065	-0.256
-570.661	63.617	0.148	-0.149
-569.646	-200.000	0.032	0.277
-568.631	-127.110	0.229	0.034
-567.617	99.112	-0.215	-0.250
-566.602	-109.692	-0.098	-0.021
-565.588	800.000	-0.072	-0.230
-564.573	1.486	0.385	-0.279
-563.558	22.776	-0.225	0.185
-562.544	-200.000	0.006	-0.288
-561.529	-135.111	-0.202	-0.024
-560.515	180.712	0.096	-0.142
-559.500	-119.763	0.168	-0.029
-558.485	182.808	-0.132	-0.196
-557.471	-200.000	0.116	-0.000
-556.456	49.225	-0.177	-0.168
-555.442	-24.901	0.160	-0.095
-554.427	800.000	0.043	-0.122
-553.412	27.224	-0.092	-0.078
-552.398	-65.951	-0.373	-0.150
-551.383	415.666	0.056	0.121
-550.369	-23.742	-0.289	0.174
-549.354	-54.481	-0.199	-0.091
-548.339	-200.000	-0.053	-0.423
-547.325	-140.488	-0.321	0.034
-546.310	265.032	0.250	0.438
-545.296	-29.346	0.279	-0.160
-544.281	-152.626	-0.194	0.014
-543.266	800.000	0.007	-0.022
-542.252	272.044	-0.177	-0.314
-541.237	214.941	0.107	-0.170
-540.223	-200.000	0.019	-0.230
-539.208	-108.132	0.407	0.089
-538.193	-34.793	0.342	0.188
-537.179	-200.000	-0.009	-0.085
-536.164	185.043	0.127	-0.190
-535.150	-200.000	-0.009	-0.051
-534.135	-121.765	0.156	0.026
-533.121	-91.030	0.098	-0.028
-532.106	46.051	0.103	0.096
-531.091	-61.233	-0.394	0.167
-530.077	-24.580	-0.123	0.074
-529.062	55.710	0.131	0.127
-528.048	183.915	-0.083	-0.124
-527.033	105.593	0.085	-0.101
-526.018	-200.000	-0.006	0.046
-525.004	-71.400	0.181	-0.068
-523.989	-140.137	-0.105	0.011
-522.975	579.746	0.162	0.398
-521.960	-186.328	-0.290	-0.004
-520.945	244.202	0.141	0.238
-519.931	-54.186	0.158	0.072
-518.916	117.596	0.170	-0.210
-517.902	800.000	0.064	0.247
-516.887	800.000	-0.095	-0.390
-515.872	-126.571	-0.012	-0.002
-514.858	354.812	0.130	-0.259
-513.843	-75.599	0.435	-0.155
-512.829	800.000	-0.110	0.398
-511.814	-75.245	0.292	-0.104
-510.799	-200.000	0.012	0.061
-509.785	315.481	0.136	-0.258
-508.770	35.727	-0.266	-0.235
-507.756	-52.214	0.051	0.024
-506.741	-75.373	0.159	-0.057
-505.726	-200.000	-0.032	-0.228
-504.712	66.828	0.106	0.109
-503.697	-124.113	0.242	-0.038
-502.683	199.081	0.040	-0.061
-501.668	-200.000	0.057	-0.280
-500.653	495.478	-0.148	0.342
-499.639	-200.000	0.013	0.180
-498.624	38.509	-0.037	0.033
-497.610	-112.052	-0.279	0.056
-496.595	800.000	0.029	0.122
-495.581	-23.264	0.095	-0.057
-494.566	11.683	0.221	-0.170
-493.551	800.000	-0.085	-0.259
-492.537	5.081	-0.143	0.105
-491.522	-42.272	-0.082	0.042
-490.508	152.398	-0.123	0.169
-489.493	352.244	0.141	0.280
-488.478	-71.814	0.198	0.074
-487.464	-200.000	0.019	-0.167
-486.449	800.000	-0.090	-0.252
-485.435	-10.673	0.435	-0.289
-484.420	-200.000	0.017	-0.096
-483.405	-200.000	0.003	-0.224
-482.391	800.000	-0.063	-0.268
-481.376	-200.000	0.008	0.058
-480.362	-75.774	-0.139	-0.049
-479.347	606.004	-0.126	0.315
-478.332	-90.879	0.220	0.063
-477.318	401.196	-0.095	-0.200
-476.303	-127.485	0.149	-0.022
-475.289	50.189	0.116	-0.110
-474.274	614.826	0.057	-0.143
-473.259	2.290	-0.101	0.073
-472.245	56.602	-0.069	0.067
-471.230	-83.770	0.380	-0.121
-470.216	-200.000	0.021	-0.104
-469.201	-200.000	-0.002	-0.262
-468.186	-154.100	0.374	-0.025
-467.172	-14.521	0.218	0.141
-466.157	-68.319	0.111	-0.043
-465.143	14.053	-0.035	-0.027
-464.128	-87.797	0.048	0.014
-463.113	-22.376	0.047	-0.028
-462.099	-200.000	0.028	-0.387
-461.084	-200.000	0.041	-0.204
-460.070	611.546	0.073	-0.182
-459.055	800.000	-0.043	-0.127
-458.040	-200.000	-0.157	0.000
-457.026	-200.000	-0.003	-0.164
-456.011	-30.511	-0.216	0.122
-454.997	123.184	-0.086	0.107
-453.982	-70.937	-0.085	0.032
-452.968	-38.502	0.217	-0.115
-451.953	43.331	0.311	0.284
-450.938	-200.000	-0.024	0.322
-449.924	-40.453	0.151	-0.079
-448.909	-200.000	-0.052	0.295
-447.895	525.893	0.082	-0.193
-446.880	-137.371	-0.099	0.011
-445.865	67.469	0.118	0.120
-444.851	-22.520	-0.047	0.029
-443.836	253.336	0.107	0.184
-442.822	-200.000	0.008	-0.037
-441.807	-29.481	0.147	0.084
-440.792	800.000	-0.087	0.319
-439.778	-200.000	-0.045	-0.307
-438.763	265.344	0.201	0.351
-437.749	350.806	0.055	0.110
-436.734	56.823	0.176	-0.172
-435.719	-0.850	-0.049	-0.034
-434.705	800.000	0.147	0.448
-433.690	-32.141	0.221	-0.123
-432.676	87.075	-0.194	-0.215
-431.661	109.762	0.097	-0.116
-430.646	-200.000	0.097	-0.427
-429.632	449.834	0.103	0.227
-428.617	53.141	-0.273	0.261
-427.603	-100.392	0.073	0.018
-426.588	-200.000	-0.010	-0.151
-425.573	129.838	-0.124	-0.159
-424.559	-26.859	0.115	-0.067
-423.544	-59.446	-0.411	-0.177
-422.530	-200.000	0.025	-0.155
-421.515	-16.638	-0.266	-0.168
-420.500	226.313	-0.099	-0.160
-419.486	-113.834	0.150	-0.029
-418.471	747.663	-0.037	0.099
-417.457	-69.041	-0.260	-0.100
-416.442	68.550	0.112	0.115
-415.428	-200.000	-0.026	0.138
-414.413	-20.573	0.241	0.148
-413.398	-10.851	-0.394	0.260
-412.384	87.799	-0.108	-0.120
-411.369	-144.417	0.268	-0.025
-410.355	-58.655	-0.153	0.066
-409.340	523.406	0.105	0.246
-408.325	-58.926	0.131	-0.056
-407.311	-71.804	-0.189	0.070
-406.296	42.376	0.058	-0.053
-405.282	216.166	-0.054	0.085
-404.267	236.256	-0.303	0.500
-403.252	-14.820	0.152	-0.098
-402.238	800.000	0.053	-0.156
-401.223	265.543	0.197	-0.344
-400.209	9.168	0.147	-0.111
-399.194	375.451	-0.069	-0.141
-398.179	-200.000	-0.056	0.365
-397.165	-200.000	-0.035	0.251
-396.150	36.839	-0.141	0.125
-395.136	-89.526	-0.237	-0.069
-394.121	-63.757	0.099	-0.040
-393.106	129.758	-0.149	0.191
-392.092	-200.000	-0.123	0.548
-391.077	-107.640	-0.271	-0.059
-390.063	-200.000	-0.058	-0.318
-389.048	-200.000	0.000	0.279
-388.033	-200.000	-0.019	0.257
-387.019	-74.095	0.214	0.078
-386.004	-61.206	0.064	-0.027
-384.990	8.608	-0.179	0.135
-383.975	43.741	-0.117	-0.107
-382.960	-52.619	-0.306	0.141
-381.946	134.476	-0.277	0.359
-380.931	13.934	0.405	-0.314
-379.917	-13.495	0.254	-0.164
-378.902	-19.695	-0.144	0.089
-377.888	800.000	-0.052	-0.185
-376.873	-200.000	-0.036	0.418
-375.858	508.862	0.028	-0.065
-374.844	-78.966	0.490	0.166
-373.829	93.197	0.187	0.211
-372.815	800.000	-0.064	-0.276
-371.800	-200.000	-0.004	0.088
-370.785	-63.424	0.075	-0.031
-369.771	-168.836	-0.066	0.002
-368.756	-72.834	-0.094	-0.034
-367.742	-145.430	-0.321	0.029
-366.727	227.718	-0.144	0.233
-365.712	61.971	0.188	0.187
-364.698	-6.799	-0.171	-0.116
-363.683	-92.420	0.162	0.045
-362.669	95.969	-0.300	0.342
-361.654	355.939	0.066	0.131
-360.639	-109.380	0.196	-0.041
-359.625	-200.000	0.037	-0.269
-358.610	-200.000	0.009	0.090
-357.596	-116.736	0.119	-0.022
-356.581	140.718	-0.137	-0.181
-355.566	-88.287	-0.090	0.027
-354.552	-111.332	0.192	-0.039
-353.537	800.000	0.035	-0.114
-352.523	164.488	0.106	-0.150
-351.508	41.844	-0.178	-0.161
-350.493	53.585	-0.427	-0.409
-349.479	4.701	0.191	0.140
-348.464	53.062	0.107	0.102
-347.450	105.781	0.063	-0.074
-346.435	217.720	0.104	0.166
-345.420	-137.941	-0.324	-0.036
-344.406	-130.813	0.279	0.037
-343.391	577.768	0.092	-0.223
-342.377	800.000	-0.059	0.231
-341.362	-99.070	0.121	0.031
-340.348	-188.853	0.397	-0.005
-339.333	800.000	0.033	0.129
-338.318	59.626	0.246	0.242
-337.304	800.000	0.099	0.278
-336.289	56.960	0.123	-0.119
-335.275	-11.509	0.123	-0.080
-334.260	234.817	-0.063	-0.104
-333.245	-58.412	-0.157	-0.068
-332.231	111.229	0.067	0.080
-331.216	-100.989	0.141	0.035
-330.202	-147.484	0.114	-0.010
-329.187	-43.918	0.023	-0.011
-328.172	-200.000	-0.001	0.043
-327.158	-200.000	0.006	0.099
-326.143	-68.184	-0.138	0.054
-325.129	800.000	-0.009	0.035
-324.114	555.701	-0.098	0.235
-323.099	800.000	0.096	-0.317
-322.085	-108.521	-0.086	0.018
-321.070	-162.447	0.170	0.008
-320.056	-154.340	-0.532	0.036
-319.041	800.000	0.101	0.279
-318.026	-63.540	-0.203	0.083
-317.012	28.781	-0.305	0.257
-315.997	477.624	-0.080	0.181
-314.983	-136.280	0.319	-0.037
-313.968	800.000	0.004	-0.011
-312.953	15.573	0.226	-0.177
-311.939	800.000	0.054	0.188
-310.924	-118.867	0.127	-0.022
-309.910	-122.144	-0.214	-0.035
-308.895	94.470	0.125	0.141
-307.880	-101.872	0.112	0.027
-306.866	800.000	-0.065	-0.243
-305.851	-200.000	-0.006	-0.173
-304.837	26.966	-0.093	-0.078
-303.822	-200.000	0.093	-0.485
-302.807	800.000	0.099	-0.376
-301.793	81.531	0.289	-0.311
-300.778	469.112	-0.119	0.266
-299.764	339.708	-0.072	-0.139
-298.749	56.659	-0.154	-0.149
-297.735	25.753	0.299	-0.248
-296.720	-145.286	-0.164	-0.015
-295.705	-193.204	0.464	0.004
-294.691	-152.724	-0.362	0.026
-293.676	-200.000	-0.002	-0.109
-292.662	800.000	-0.036	0.109
-291.647	-200.000	-0.018	0.541
-290.632	183.708	0.014	0.021
-289.618	-79.366	-0.106	0.036
-288.603	562.066	0.095	0.228
-287.589	-164.396	-0.412	-0.019
-286.574	366.403	0.091	0.183
-285.559	-47.807	-0.037	0.018
-284.545	-200.000	-0.003	-0.038
-283.530	-186.692	-0.661	-0.009
-282.516	-32.762	-0.033	-0.018
-281.501	234.236	0.134	-0.220
-280.486	-163.511	-0.395	0.019
-279.472	800.000	-0.172	0.511
-278.457	-68.664	-0.179	-0.069
-277.443	543.127	0.120	-0.285
-276.428	-55.792	0.204	-0.091
-275.413	45.842	0.130	-0.120
-274.399	635.425	0.041	0.102
-273.384	-53.655	-0.175	0.080
-272.370	114.473	-0.024	-0.029
-271.355	179.104	0.231	0.336
-270.340	-46.253	0.210	0.103
-269.326	-90.596	-0.113	0.032
-268.311	-139.689	-0.021	0.002
-267.297	113.305	-0.152	0.183
-266.282	-200.000	0.052	0.254
-265.267	63.410	-0.025	0.025
-264.253	-81.179	-0.382	0.126
-263.238	-62.483	0.067	0.028
-262.224	289.754	0.118	-0.213
-261.209	160.058	0.082	0.114
-260.195	46.668	0.229	-0.211
-259.180	800.000	-0.037	0.103
-258.165	-112.841	0.170	-0.033
-257.151	43.750	0.093	0.084
-256.136	23.171	-0.254	-0.207
-255.122	-41.492	-0.198	0.101
-254.107	35.426	0.125	-0.109
-253.092	-150.302	0.067	0.005
-252.078	66.124	0.077	0.078
-251.063	800.000	0.082	0.275
-250.049	206.478	-0.092	-0.142
-249.034	125.245	-0.253	-0.316
-248.019	70.866	-0.203	-0.209
-247.005	43.369	0.250	0.227
-245.990	739.292	-0.106	0.283
-244.976	-131.033	0.093	0.012
-243.961	-172.426	0.064	0.002
-242.946	-200.000	-0.039	0.184
-241.932	566.207	-0.086	-0.208
-240.917	95.889	-0.114	-0.130
-239.903	-200.000	-0.017	-0.400
-238.888	109.032	0.070	-0.083
-237.873	345.821	-0.047	-0.091
-236.859	389.561	0.083	0.171
-235.844	-103.265	-0.263	-0.062
-234.830	45.039	-0.328	0.300
-233.815	162.782	0.098	0.137
-232.800	-60.867	-0.342	-0.144
-231.786	759.138	0.133	0.358
-230.771	-200.000	0.011	0.158
-229.757	771.137	0.028	-0.077
-228.742	37.816	-0.344	-0.303
-227.727	-200.000	0.010	-0.188
-226.713	-86.730	0.149	0.045
-225.698	-200.000	-0.008	-0.108
-224.684	-200.000	0.019	-0.150
-223.669	-67.328	0.340	-0.133
-222.655	109.399	-0.175	-0.208
-221.640	-95.545	0.146	-0.039
-220.625	-91.921	0.200	0.056
-219.611	207.038	0.235	0.364
-218.596	-200.000	-0.012	-0.101
-217.582	-31.518	-0.394	0.220
-216.567	-6.792	-0.034	-0.023
-215.552	-70.349	-0.139	0.052
-214.538	124.149	-0.244	-0.304
-213.523	-200.000	0.008	0.279
-212.509	71.437	-0.231	-0.238
-211.494	-194.329	-0.105	0.001
-210.479	102.673	-0.024	0.028
-209.465	-200.000	-0.014	-0.087
-208.450	-82.372	-0.216	0.070
-207.436	-29.380	0.271	-0.154
-206.421	147.368	0.082	-0.109
-205.406	800.000	0.079	0.289
-204.392	-115.361	0.323	0.060
-203.377	800.000	-0.030	0.126
-202.363	-132.702	-0.381	-0.048
-201.348	-154.640	-0.098	0.006
-200.333	-114.288	-0.348	-0.067
-199.319	16.304	0.298	0.233
-198.304	800.000	0.103	0.318
-197.290	-143.233	-0.324	-0.031
-196.275	800.000	-0.055	0.228
-195.260	-200.000	0.008	0.412
-194.246	-103.684	0.017	-0.004
-193.231	-75.353	-0.271	0.096
-192.217	800.000	-0.071	-0.231
-191.202	800.000	-0.066	-0.210
-190.187	-78.459	0.155	-0.053
-189.173	9.192	0.099	-0.074
-188.158	800.000	-0.042	0.160
-187.144	-88.151	0.107	0.032
-186.129	-183.197	0.234	-0.004
-185.114	-12.785	-0.194	-0.126
-184.100	-200.000	-0.040	-0.176
-183.085	-200.000	0.021	-0.276
-182.071	-72.313	-0.176	-0.064
-181.056	-40.155	-0.419	-0.216
-180.042	-81.067	-0.276	0.090
-179.027	321.836	0.201	0.378
-178.012	215.679	0.030	0.048
-176.998	-135.147	-0.095	-0.011
-175.983	-21.551	0.241	-0.146
-174.969	-101.981	-0.066	-0.016
-173.954	-110.229	0.071	0.015
-172.939	-30.843	0.240	0.134
-171.925	-200.000	-0.048	0.220
-170.910	-200.000	-0.022	0.225
-169.896	-75.870	0.332	-0.117
-168.881	-200.000	-0.038	0.258
-167.866	141.702	-0.101	0.133
-166.852	-200.000	0.041	0.198
-165.837	-108.213	-0.344	0.074
-164.823	-21.487	0.166	0.100
-163.808	-17.776	0.119	0.074
-162.793	-37.161	-0.079	-0.042
-161.779	-49.321	-0.114	-0.054
-160.764	-117.501	-0.212	-0.038
-159.750	-200.000	0.047	-0.220
-158.735	30.689	0.156	0.132
-157.720	800.000	0.064	-0.274
-156.706	-200.000	-0.083	0.407
-155.691	716.000	0.035	-0.092
-154.677	800.000	0.060	-0.166
-153.662	-11.673	0.256	0.166
-152.647	39.326	-0.137	0.121
-151.633	-120.914	-0.225	-0.037
-150.618	759.004	-0.014	-0.037
-149.604	205.597	-0.158	-0.243
-148.589	-77.404	0.180	0.062
-147.574	-200.000	-0.050	-0.241
-146.560	-133.671	-0.186	-0.023
-145.545	243.663	0.084	-0.139
-144.531	-200.000	0.038	0.238
-143.516	-129.408	0.159	-0.022
-142.502	-200.000	-0.019	0.177
-141.487	-200.000	0.006	0.086
-140.472	-87.796	-0.042	0.012
-139.458	-135.103	0.204	0.024
-138.443	1.882	0.119	0.085
-137.429	124.049	-0.171	0.213
-136.414	-7.472	-0.131	-0.088
-135.399	-200.000	0.027	-0.165
-134.385	-200.000	-0.020	-0.269
-133.370	-200.000	-0.023	0.108
-132.356	54.734	-0.210	0.200
-131.341	800.000	-0.089	0.312
-130.326	-30.623	0.234	-0.131
-129.312	-130.028	0.171	0.023
-128.297	800.000	-0.043	0.161
-127.283	256.838	0.027	-0.046
-126.268	192.857	0.026	-0.038
-125.253	56.454	0.044	-0.042
-124.239	-88.318	0.036	-0.011
-123.224	-7.645	-0.075	0.050
-122.210	190.627	0.144	0.214
-121.195	142.404	0.180	0.237
-120.180	-102.579	-0.210	-0.050
-119.166	-200.000	0.014	-0.134
-118.151	435.806	-0.120	-0.258
-117.137	124.434	0.142	0.176
-116.122	-134.991	-0.151	0.018
-115.107	166.347	-0.091	0.128
-114.093	800.000	0.097	0.368
-113.078	800.000	0.086	-0.251
-112.064	-33.629	0.048	-0.026
-111.049	800.000	-0.037	-0.134
-110.034	37.012	0.205	-0.179
-109.020	224.504	0.073	0.117
-108.005	-63.750	0.171	0.069
-106.991	-145.956	0.316	0.028
-105.976	-142.873	0.149	0.014
-104.962	183.845	-0.273	-0.400
-103.947	-200.000	-0.008	0.063
-102.932	46.716	0.197	0.181
-101.918	4.976	-0.184	-0.134
-100.903	-101.845	0.332	-0.079
-99.889	48.010	0.283	-0.262
-98.874	-2.525	0.133	-0.092
-97.859	-200.000	-0.017	-0.302
-96.845	-62.299	0.288	0.118
-95.830	-18.990	0.194	0.119
-94.816	-52.844	-0.239	-0.109
-93.801	-200.000	0.042	0.318
-92.786	-151.259	0.262	0.019
-91.772	31.805	0.081	0.069
-90.757	-118.276	0.058	0.010
-89.743	84.917	-0.168	0.182
-88.728	-200.000	0.003	0.055
-87.713	209.313	0.122	0.188
-86.699	-60.303	-0.150	0.063
-85.684	1.300	-0.131	0.093
-84.670	-89.567	-0.137	0.040
-83.655	11.691	0.249	0.189
-82.640	64.556	-0.224	-0.223
-81.626	162.277	0.292	-0.403
-80.611	-76.531	-0.254	0.088
-79.597	286.244	-0.062	0.110
-78.582	94.909	0.078	-0.087
-77.567	21.820	0.191	0.154
-76.553	-149.763	-0.110	0.009
-75.538	-200.000	0.032	-0.162
-74.524	-118.305	-0.028	0.005
-73.509	77.700	-0.016	-0.017
-72.494	68.436	0.084	-0.085
-71.480	-167.966	-0.060	0.002
-70.465	83.912	0.142	0.152
-69.451	27.876	0.246	0.205
-68.436	-38.626	0.162	0.085
-67.422	566.314	0.043	-0.103
-66.407	73.524	0.241	0.249
-65.392	43.277	-0.168	0.151
-64.378	-67.561	0.407	0.157
-63.363	-89.696	-0.180	0.052
-62.349	-79.635	0.113	-0.038
-61.334	42.585	-1.123	-1.008
-60.319	230.289	0.400	0.644
-59.305	-200.000	-0.214	-1.040
-58.290	456.977	0.472	1.033
-57.276	432.719	0.718	1.537
-56.261	-200.000	95.518	564.749
-55.246	641.492	1385.328	3479.008
-54.232	187.137	2609.315	3835.581
-53.217	116.909	2313.924	2801.176
-52.203	45.294	1926.685	1752.001
-51.188	38.815	1712.671	1507.739
-50.173	35.962	1667.882	1446.847
-49.159	52.731	1715.843	1616.564
-48.144	56.073	1733.956	1659.011
-47.130	38.439	1690.372	1485.019
-46.115	35.547	1674.763	1449.458
-45.100	35.311	1670.076	1443.568
-44.086	35.277	1667.605	1441.118
-43.071	35.339	1664.677	1438.998
-42.057	35.202	1662.654	1436.162
-41.042	35.319	1660.756	1435.345
-40.027	35.293	1659.067	1433.635
-39.013	35.302	1656.461	1431.387
-37.998	35.309	1655.049	1430.163
-36.984	35.237	1654.108	1428.758
-35.969	35.325	1652.352	1427.843
-34.954	35.506	1650.429	1427.467
-33.940	35.535	1648.739	1426.166
-32.925	35.473	1646.829	1423.994
-31.911	35.350	1645.873	1422.204
-30.896	35.347	1644.092	1420.587
-29.881	35.388	1641.730	1418.792
-28.867	35.379	1640.218	1417.359
-27.852	35.380	1639.341	1416.553
-26.838	35.404	1637.400	1414.997
-25.823	35.515	1635.820	1414.396
-24.809	35.534	1634.423	1413.266
-23.794	35.410	1633.334	1411.363
-22.779	35.396	1631.670	1409.759
-21.765	35.434	1630.090	1408.621
-20.750	35.442	1628.098	1406.899
-19.736	35.485	1626.286	1405.599
-18.721	35.601	1624.986	1405.268
-17.706	35.456	1623.858	1403.173
-16.692	35.438	1621.738	1401.154
-15.677	35.588	1620.778	1401.366
-14.663	35.548	1619.379	1399.810
-13.648	35.544	1618.084	1398.601
-12.633	35.512	1616.085	1396.589
-11.619	35.555	1614.466	1395.442
-10.604	35.440	1613.477	1393.703
-9.590	35.466	1612.025	1392.576
-8.575	35.473	1610.860	1391.569
-7.560	35.434	1609.353	1389.930
-6.546	35.481	1608.024	1389.065
-5.531	35.433	1607.253	1387.999
-4.517	35.450	1606.353	1387.287
-3.502	35.454	1605.327	1386.374
-2.487	35.585	1603.803	1385.948
-1.473	35.189	1591.713	1372.607
-0.458	31.735	1570.901	1330.140
0.556	29.766	1568.533	1288.775
1.571	26.566	1591.794	1285.098
2.586	25.285	1603.367	1285.165
3.600	22.215	1550.180	1221.135
4.615	13.770	1440.171	1079.647
5.629	6.281	1374.301	983.512
6.644	4.716	1365.846	967.648
7.659	4.690	1364.486	966.438
8.673	4.699	1363.747	965.886
9.688	4.796	1361.825	965.039
10.702	4.715	1359.700	962.950
11.717	8.328	1366.464	990.093
12.731	16.819	1381.749	1054.114
13.746	22.343	1390.156	1094.901
14.761	22.663	1389.195	1096.042
15.775	21.830	1387.246	1089.231
16.790	20.824	1384.727	1080.916
17.804	20.034	1382.374	1074.087
18.819	19.704	1381.331	1071.137
19.834	19.538	1380.423	1069.311
20.848	19.340	1378.888	1066.803
21.863	19.180	1378.136	1065.136
22.877	19.186	1376.488	1063.805
23.892	19.083	1375.584	1062.379
24.907	19.060	1374.752	1061.503
25.921	18.835	1374.407	1059.750
26.936	18.882	1373.409	1059.176
27.950	18.988	1372.340	1058.911
28.965	19.162	1371.204	1059.016
29.980	19.250	1370.130	1058.633
30.994	19.435	1368.858	1058.688
32.009	19.442	1368.069	1058.027
33.023	19.439	1366.858	1056.980
34.038	19.378	1365.183	1055.218
35.053	19.198	1363.808	1052.964
36.067	19.232	1362.605	1052.148
37.082	19.186	1362.506	1051.694
38.096	19.331	1361.128	1051.422
39.111	19.184	1360.637	1050.059
40.126	19.125	1359.485	1048.715
41.140	18.835	1358.738	1046.279
42.155	18.742	1357.548	1044.704
43.169	18.656	1358.031	1044.462
44.184	18.738	1357.307	1044.314
45.199	18.810	1356.797	1044.261
46.213	18.944	1356.669	1044.884
47.228	19.102	1356.242	1045.426
48.242	19.242	1354.399	1044.760
49.257	19.181	1352.937	1043.174
50.271	19.088	1352.117	1041.887
51.286	19.136	1350.608	1040.918
52.301	19.081	1349.431	1039.586
53.315	18.992	1348.490	1038.235
54.330	18.849	1347.343	1036.397
55.344	18.858	1345.638	1035.049
56.359	18.880	1344.596	1034.286
57.374	18.788	1344.235	1033.364
58.388	18.702	1343.497	1032.190
59.403	18.671	1343.199	1031.683
60.417	18.738	1342.092	1031.141
61.432	18.734	1341.081	1030.253
62.447	18.657	1339.533	1028.511
63.461	18.508	1339.067	1027.167
64.476	18.572	1337.541	1026.291
65.490	18.543	1335.867	1024.743
66.505	18.569	1335.125	1024.233
67.520	18.592	1333.754	1023.228
68.534	18.608	1332.858	1022.550
69.549	18.618	1331.335	1021.348
70.563	18.561	1330.537	1020.306
71.578	18.458	1329.794	1019.036
72.593	18.393	1328.534	1017.592
73.607	18.391	1328.063	1017.131
74.622	18.358	1327.749	1016.605
75.636	18.441	1326.368	1015.949
76.651	18.457	1325.673	1015.421
77.666	18.464	1325.390	1015.154
78.680	18.550	1324.884	1015.186
79.695	18.679	1324.345	1015.447
80.709	18.744	1323.384	1015.003
81.724	18.706	1323.303	1014.630
82.739	18.869	1322.297	1014.730
83.753	18.972	1321.172	1014.387
84.768	19.070	1320.572	1014.413
85.782	19.181	1319.843	1014.418
86.797	19.255	1318.213	1013.511
87.812	19.180	1316.936	1011.997
88.826	19.082	1315.841	1010.493
89.841	19.163	1314.642	1009.955
90.855	19.225	1313.602	1009.431
91.870	19.244	1313.505	1009.379
92.884	19.267	1312.608	1008.736
93.899	19.217	1311.968	1007.862
94.914	19.421	1310.532	1007.858
95.928	19.360	1310.516	1007.401
96.943	19.377	1309.185	1006.387
97.957	19.166	1308.523	1004.559
98.972	19.198	1307.553	1003.912
99.987	19.214	1306.289	1002.949
101.001	19.247	1305.218	1002.229
102.016	19.257	1304.195	1001.412
103.030	19.315	1303.507	1001.131
104.045	19.198	1302.887	999.887
105.060	19.074	1301.484	998.001
106.074	18.855	1299.624	995.218
107.089	18.667	1297.925	992.743
108.103	18.605	1297.029	991.615
109.118	18.638	1295.574	990.606
110.133	18.539	1294.225	988.915
111.147	18.569	1293.141	988.169
112.162	18.688	1291.400	987.436
113.176	18.660	1290.945	986.841
114.191	18.841	1289.515	986.702
115.206	18.798	1288.835	985.847
116.220	18.723	1287.577	984.364
117.235	18.731	1286.181	983.256
118.249	18.687	1285.342	982.279
119.264	18.695	1283.983	981.196
120.279	18.583	1283.012	979.729
121.293	18.519	1282.014	978.514
122.308	18.370	1281.467	977.159
123.322	18.294	1280.132	975.621
124.337	18.459	1278.577	975.291
125.352	18.459	1277.466	974.360
126.366	18.428	1276.665	973.486
127.381	18.468	1275.569	972.792
128.395	18.372	1275.096	971.800
129.410	18.535	1273.541	971.450
130.424	18.509	1273.260	971.005
131.439	18.694	1272.195	971.154
132.454	18.727	1271.308	970.578
133.468	18.796	1270.295	970.106
134.483	18.795	1269.707	969.567
135.497	18.825	1268.754	968.918
136.512	18.701	1267.806	967.413
137.527	18.792	1266.179	966.598
138.541	18.791	1264.837	965.481
139.556	18.982	1263.553	965.490
140.570	18.875	1263.395	964.682
141.585	19.036	1261.869	964.333
142.600	19.163	1260.779	964.129
143.614	19.244	1260.059	963.945
144.629	19.351	1258.822	963.513
145.643	19.249	1257.994	962.221
146.658	19.089	1256.521	960.117
147.673	18.971	1254.874	958.118
148.687	18.880	1253.923	956.801
149.702	18.834	1252.301	955.221
150.716	18.760	1250.777	953.562
151.731	18.844	1249.728	953.144
152.746	18.846	1248.759	952.335
153.760	18.895	1247.507	951.563
154.775	18.978	1246.292	951.013
155.789	19.091	1245.638	951.057
156.804	19.089	1244.760	950.286
157.819	19.069	1243.657	949.250
158.833	19.149	1243.171	949.237
159.848	19.325	1242.132	949.333
160.862	19.261	1241.241	948.211
161.877	19.047	1239.478	945.609
162.892	18.827	1238.480	943.554
163.906	18.758	1237.571	942.401
164.921	18.884	1236.444	942.147
165.935	18.913	1235.589	941.571
166.950	18.987	1235.249	941.635
167.964	19.037	1233.905	940.802
168.979	18.992	1233.549	940.202
169.994	18.969	1232.788	939.409
171.008	18.959	1232.045	938.708
172.023	19.111	1231.501	939.040
173.037	19.440	1230.074	939.659
174.052	19.142	1229.818	937.758
175.067	18.992	1228.383	935.763
176.081	18.848	1227.067	933.898
177.096	18.907	1226.260	933.523
178.110	18.985	1225.025	932.919
179.125	18.987	1224.051	932.107
180.140	19.040	1223.109	931.596
181.154	19.090	1222.331	931.193
182.169	19.208	1220.898	930.653
183.183	19.314	1219.870	930.362
184.198	19.393	1219.081	930.100
185.213	19.379	1217.858	929.013
186.227	19.419	1216.892	928.409
187.242	19.412	1216.103	927.686
188.256	19.424	1214.994	926.822
189.271	19.492	1213.840	926.225
190.286	19.332	1212.560	924.311
191.300	18.930	1211.808	921.498
192.315	18.678	1210.797	919.301
193.329	18.909	1210.346	920.114
194.344	18.974	1209.668	919.862
195.359	19.025	1209.508	919.931
196.373	19.256	1208.931	920.646
197.388	19.332	1208.541	920.676
198.402	19.504	1208.377	921.384
199.417	19.564	1207.737	921.138
200.432	19.788	1206.533	921.330
201.446	19.770	1206.255	920.939
202.461	19.856	1205.440	920.695
203.475	19.826	1204.573	919.789
204.490	19.588	1202.539	916.892
205.504	19.480	1201.677	915.581
206.519	19.410	1200.579	914.291
207.534	19.332	1199.272	912.802
208.548	19.427	1198.292	912.480
209.563	19.411	1197.755	911.906
210.577	19.420	1196.810	911.155
211.592	19.560	1196.118	911.285
212.607	19.713	1195.143	911.270
213.621	19.537	1194.584	909.836
214.636	19.559	1193.505	909.046
215.650	19.709	1192.022	908.623
216.665	19.746	1191.568	908.394
217.680	19.875	1190.840	908.435
218.694	19.940	1189.918	907.994
219.709	19.805	1189.333	906.758
220.723	19.871	1188.399	906.314
221.738	19.802	1187.803	905.414
222.753	19.794	1186.954	904.648
223.767	19.755	1186.050	903.672
224.782	19.995	1185.634	904.529
225.796	20.077	1185.037	904.422
226.811	20.101	1184.172	903.806
227.826	19.799	1183.567	901.692
228.840	19.857	1182.564	901.149
229.855	19.725	1182.173	900.089
230.869	19.789	1181.222	899.614
231.884	19.790	1180.162	898.735
232.899	19.668	1179.370	897.420
233.913	19.593	1178.860	896.561
234.928	19.553	1178.272	895.826
235.942	19.502	1177.169	894.641
236.957	19.569	1176.283	894.238
237.972	19.582	1175.515	893.643
238.986	19.621	1174.848	893.257
240.001	19.600	1174.440	892.760
241.015	19.655	1173.496	892.251
242.030	19.789	1172.461	892.075
243.045	19.861	1172.027	892.033
244.059	19.888	1171.106	891.395
245.074	19.846	1170.550	890.677
246.088	19.883	1170.233	890.547
247.103	20.001	1169.456	890.482
248.117	20.168	1168.426	890.478
249.132	20.246	1167.997	890.471
250.147	20.470	1167.496	891.160
251.161	20.487	1167.358	891.064
252.176	20.675	1165.946	890.868
253.190	20.638	1165.797	890.490
254.205	20.667	1165.214	890.112
255.220	20.697	1164.555	889.684
256.234	20.782	1163.698	889.384
257.249	20.717	1162.963	888.410
258.263	20.705	1162.459	887.885
259.278	20.657	1161.647	886.944
260.293	20.695	1161.558	886.991
261.307	20.734	1160.616	886.394
262.322	20.736	1160.497	886.234
263.336	20.747	1159.509	885.457
264.351	20.795	1159.061	885.279
265.366	20.901	1158.141	885.039
266.380	20.760	1157.810	883.988
267.395	20.857	1156.248	883.211
268.409	20.610	1155.812	881.547
269.424	20.623	1154.986	880.904
270.439	20.620	1154.235	880.237
271.453	20.648	1153.439	879.696
272.468	20.549	1152.510	878.410
273.482	20.521	1151.765	877.624
274.497	20.431	1151.823	877.132
275.512	20.542	1150.863	876.887
276.526	20.531	1149.918	876.033
277.541	20.606	1149.328	875.882
278.555	20.675	1148.445	875.480
279.570	20.711	1147.928	875.192
280.585	20.825	1147.332	875.230
281.599	20.946	1146.362	875.019
282.614	20.674	1145.483	872.909
283.628	20.703	1143.904	871.772
284.643	20.622	1143.420	870.922
285.657	20.720	1142.463	870.608
286.672	20.530	1141.556	868.890
287.687	20.773	1140.249	869.029
288.701	20.710	1140.037	868.478
289.716	20.762	1138.732	867.663
290.730	20.725	1138.509	867.233
291.745	20.822	1138.028	867.273
292.760	20.827	1137.031	866.463
293.774	20.995	1136.528	866.838
294.789	20.941	1136.314	866.327
295.803	20.902	1135.532	865.461
296.818	20.879	1134.161	864.227
297.833	20.784	1133.768	863.377
298.847	20.884	1132.987	863.205
299.862	20.868	1132.201	862.447
300.876	20.872	1131.818	862.100
301.891	20.829	1131.274	861.399
302.906	21.042	1130.765	861.988
303.920	21.123	1130.026	861.749
304.935	21.257	1129.190	861.694
305.949	21.368	1128.677	861.772
306.964	21.335	1127.826	860.883
307.979	21.224	1127.405	859.942
308.993	21.258	1126.482	859.331
310.008	21.365	1125.358	858.922
311.022	21.340	1125.012	858.459
312.037	21.336	1123.698	857.361
313.052	21.229	1122.816	856.088
314.066	21.017	1121.795	854.196
315.081	20.904	1120.961	852.930
316.095	20.852	1120.260	852.068
317.110	20.803	1120.129	851.655
318.125	20.927	1119.057	851.368
319.139	20.828	1118.457	850.354
320.154	20.885	1118.160	850.332
321.168	20.819	1116.884	848.963
322.183	20.837	1116.409	848.615
323.197	20.969	1115.844	848.754
324.212	20.971	1115.250	848.235
325.227	21.151	1114.696	848.611
326.241	21.062	1113.989	847.568
327.256	21.003	1113.024	846.472
328.270	20.910	1112.193	845.315
329.285	20.971	1111.179	844.767
330.300	20.892	1110.626	843.886
331.314	21.002	1109.469	843.466
332.329	21.029	1108.736	842.963
333.343	21.229	1107.487	842.906
334.358	21.161	1106.907	842.061
335.373	21.215	1106.653	842.055
336.387	21.292	1105.640	841.579
337.402	21.270	1104.893	840.830
338.416	21.444	1104.156	841.031
339.431	21.459	1103.837	840.785
340.446	21.520	1103.561	840.797
341.460	21.638	1102.676	840.613
342.475	21.685	1102.011	840.258
343.489	21.710	1101.049	839.567
344.504	21.866	1100.244	839.627
345.519	21.902	1099.332	839.030
346.533	21.871	1098.531	838.194
347.548	21.976	1097.782	838.051
348.562	21.885	1097.047	836.980
349.577	21.677	1096.280	835.333
350.592	21.569	1095.245	833.956
351.606	21.332	1094.748	832.372
352.621	21.356	1093.704	831.618
353.635	21.259	1093.248	830.739
354.650	21.401	1092.379	830.681
355.665	21.368	1091.832	830.032
356.679	21.485	1091.107	829.965
357.694	21.596	1090.744	830.138
358.708	21.670	1090.113	829.938
359.723	21.702	1089.555	829.593
360.738	21.698	1088.511	828.703
361.752	21.687	1087.687	827.951
362.767	21.873	1087.518	828.625
363.781	21.713	1087.258	827.602
364.796	21.910	1086.621	827.970
365.810	21.981	1086.177	827.896
366.825	22.113	1085.687	828.072
367.840	22.175	1085.345	828.026
368.854	22.286	1084.778	828.047
369.869	22.259	1083.293	826.713
370.883	22.155	1082.658	825.665
371.898	22.058	1082.188	824.777
372.913	22.047	1081.592	824.201
373.927	22.143	1081.340	824.383
374.942	22.091	1081.018	823.822
375.956	22.139	1080.366	823.476
376.971	22.094	1079.623	822.626
377.986	22.152	1079.321	822.598
379.000	22.293	1078.226	822.349
380.015	22.290	1078.059	822.133
381.029	22.461	1077.235	822.232
382.044	22.421	1076.573	821.466
383.059	22.296	1075.677	820.126
384.073	22.210	1075.064	819.188
385.088	22.456	1073.923	819.389
386.102	22.456	1072.806	818.466
387.117	22.298	1072.256	817.239
388.132	22.079	1070.828	815.061
389.146	22.030	1070.386	814.427
390.161	21.968	1069.720	813.559
391.175	21.974	1069.127	813.064
392.190	22.190	1068.437	813.467
393.205	22.318	1067.962	813.626
394.219	22.381	1066.854	813.003
395.234	22.160	1065.773	811.087
396.248	22.171	1064.349	809.981
397.263	22.093	1063.188	808.669
398.278	22.078	1062.662	808.125
399.292	21.938	1061.841	806.789
400.307	21.977	1061.350	806.522
401.321	22.001	1060.403	805.844
402.336	22.009	1059.785	805.335
403.350	21.929	1059.468	804.658
404.365	22.128	1058.611	804.850
405.380	22.064	1057.850	803.905
406.394	22.143	1057.472	803.906
407.409	22.330	1056.995	804.329
408.423	22.409	1056.273	804.071
409.438	22.472	1055.566	803.747
410.453	22.530	1055.086	803.573
411.467	22.595	1054.225	803.146
412.482	22.767	1053.579	803.364
413.496	22.831	1052.659	802.884
414.511	22.664	1052.541	801.963
415.526	22.853	1052.222	802.507
416.540	22.902	1051.899	802.413
417.555	22.805	1051.509	801.603
418.569	22.806	1050.644	800.880
419.584	22.872	1049.617	800.326
420.599	22.774	1049.740	799.904
421.613	154.300	1400.725	1787.929
422.628	141.543	1451.861	1788.027
