DTS Sentinel unit serial number:	SN413079Multiplexer serial number:	ORYXHardware model number:	OX4-SRSoftware version number:	ORYX F/W v4.00 Oryx Data Collector v3.7.2.0data status	okinstallation	princeton_trtdifferential loss correction	single-endedforward channel	channel 2reverse channel	N/Adate	2019/09/15time	15:07:35forward acquisition time	60.00reverse acquisition time	0.00gamma	496.2192k internal	0.2298k external	0.2298temperature offset calibration	0.9964default loss term (dB/km)	0.3790temperature slope calibration	1.0000multiplexer offset coefficient	1.0000multiplexer slope coefficient	1.0000fibre end	0.00T internal ref (°C)	40.39T ext. ref 1 (°C)	4.94T ext. ref 2 (°C)	37.54length (m)	temperature (°C)	Stokes	anti-Stokes-747.200	471.045	0.137	-0.314
-746.185	-5.020	-0.208	0.146
-745.171	316.402	-0.055	-0.106
-744.156	-200.000	-0.061	-0.350
-743.142	-95.495	0.337	0.092
-742.127	246.902	-0.120	0.207
-741.112	250.663	-0.135	0.234
-740.098	537.372	-0.285	0.691
-739.083	-200.000	-0.022	-0.302
-738.069	497.812	0.214	0.503
-737.054	179.442	0.195	-0.292
-736.039	370.554	-0.060	0.123
-735.025	-113.088	0.265	0.053
-734.010	291.140	0.149	0.276
-732.996	85.388	-0.087	-0.098
-731.981	-63.689	-0.346	-0.145
-730.966	137.675	-0.259	-0.347
-729.952	53.256	-0.070	-0.069
-728.937	-184.508	-0.291	0.005
-727.923	47.610	0.120	0.115
-726.908	-200.000	0.027	0.194
-725.894	-9.029	-0.339	0.231
-724.879	-200.000	-0.010	0.158
-723.864	-159.560	0.169	-0.010
-722.850	278.180	-0.183	-0.332
-721.835	-200.000	0.012	0.057
-720.821	14.516	0.104	-0.083
-719.806	-15.286	-0.244	0.159
-718.791	235.611	0.094	-0.158
-717.777	-200.000	-0.001	-0.244
-716.762	-200.000	0.016	-0.130
-715.748	-163.271	-0.195	0.010
-714.733	622.719	0.103	0.265
-713.718	-126.475	0.078	-0.012
-712.704	-200.000	-0.013	-0.140
-711.689	-45.283	0.457	0.231
-710.675	46.306	0.140	-0.132
-709.660	-141.787	0.306	-0.031
-708.645	160.306	0.110	0.156
-707.631	800.000	-0.050	-0.210
-706.616	12.703	-0.376	-0.296
-705.602	218.722	-0.161	0.262
-704.587	100.033	0.287	-0.339
-703.572	-52.270	0.025	-0.012
-702.558	256.229	0.101	-0.177
-701.543	-180.899	0.415	-0.009
-700.529	746.905	-0.083	0.229
-699.514	-200.000	-0.000	-0.237
-698.499	539.113	0.159	-0.386
-697.485	260.529	0.202	0.355
-696.470	-152.477	0.612	0.045
-695.456	-67.517	-0.230	0.092
-694.441	-68.690	-0.108	-0.042
-693.426	570.338	0.037	0.091
-692.412	740.410	-0.050	-0.137
-691.397	800.000	0.143	0.421
-690.383	-200.000	0.018	0.175
-689.368	-200.000	0.001	-0.020
-688.354	800.000	-0.169	-0.511
-687.339	-98.131	-0.135	0.035
-686.324	-158.968	0.327	0.019
-685.310	-32.027	-0.261	0.149
-684.295	147.891	-0.147	-0.202
-683.281	484.593	-0.129	-0.298
-682.266	-64.146	0.058	0.024
-681.251	-78.621	-0.532	-0.185
-680.237	49.652	0.250	-0.240
-679.222	250.958	-0.148	-0.256
-678.208	-50.878	0.005	-0.002
-677.193	-49.539	0.223	-0.108
-676.178	-200.000	-0.027	-0.495
-675.164	-73.615	0.363	-0.135
-674.149	-107.008	-0.214	-0.048
-673.135	-0.704	-0.185	-0.134
-672.120	-63.607	-0.277	-0.116
-671.105	525.483	-0.022	-0.052
-670.091	-43.830	0.143	0.073
-669.076	-200.000	0.008	0.251
-668.062	11.482	-0.216	0.168
-667.047	-200.000	-0.002	0.141
-666.032	800.000	0.149	-0.462
-665.018	-52.622	-0.116	-0.054
-664.003	-24.191	0.177	-0.107
-662.989	800.000	0.056	0.192
-661.974	-200.000	0.036	-0.238
-660.959	-3.941	0.112	0.079
-659.945	56.719	0.186	-0.184
-658.930	-48.597	-0.075	-0.037
-657.916	-84.563	-0.298	0.096
-656.901	800.000	-0.041	0.163
-655.886	-200.000	-0.005	-0.322
-654.872	-4.642	0.239	0.168
-653.857	179.400	0.081	-0.121
-652.843	-200.000	0.010	-0.150
-651.828	-84.423	-0.122	-0.039
-650.814	-88.743	0.258	-0.078
-649.799	-21.421	0.204	-0.126
-648.784	-19.367	-0.074	0.047
-647.770	800.000	-0.085	0.242
-646.755	-85.882	0.398	-0.125
-645.741	24.530	-0.056	0.047
-644.726	185.623	-0.205	-0.309
-643.711	-200.000	0.012	-0.245
-642.697	70.504	0.133	-0.140
-641.682	-81.755	0.272	-0.091
-640.668	-80.377	-0.298	0.101
-639.653	-119.113	-0.483	-0.086
-638.638	45.072	0.175	-0.164
-637.624	-55.602	0.133	-0.061
-636.609	81.912	-0.156	-0.172
-635.595	91.516	-0.081	0.093
-634.580	-89.279	-0.147	-0.044
-633.565	90.018	0.045	0.051
-632.551	800.000	-0.058	-0.227
-631.536	235.200	0.025	-0.041
-630.522	-189.329	-0.158	-0.002
-629.507	-60.198	-0.328	0.142
-628.492	0.523	-0.100	0.073
-627.478	-200.000	0.005	0.134
-626.463	68.966	0.127	0.133
-625.449	800.000	-0.015	0.067
-624.434	-200.000	0.045	0.232
-623.419	-136.061	-0.346	-0.041
-622.405	193.636	-0.147	0.226
-621.390	-117.904	0.236	-0.043
-620.376	-139.118	0.155	-0.017
-619.361	114.650	0.065	-0.081
-618.346	-200.000	0.001	-0.333
-617.332	-200.000	-0.018	-0.294
-616.317	-5.585	-0.098	-0.068
-615.303	98.237	0.155	0.181
-614.288	-48.306	-0.322	0.158
-613.273	800.000	0.076	-0.221
-612.259	-151.805	-0.216	-0.016
-611.244	-64.318	-0.059	0.024
-610.230	-140.507	0.099	-0.010
-609.215	800.000	0.056	-0.246
-608.201	741.578	0.080	0.218
-607.186	-200.000	-0.005	-0.173
-606.171	71.683	0.127	-0.134
-605.157	234.260	-0.172	-0.287
-604.142	138.914	-0.083	0.111
-603.128	-35.617	-0.368	0.202
-602.113	800.000	0.051	-0.196
-601.098	-200.000	0.021	0.255
-600.084	-67.203	-0.215	0.086
-599.069	800.000	-0.111	0.331
-598.055	346.761	-0.138	0.276
-597.040	168.872	-0.116	0.168
-596.025	-200.000	0.018	-0.155
-595.011	260.661	0.178	-0.313
-593.996	800.000	-0.047	-0.141
-592.982	517.407	-0.049	-0.116
-591.967	697.751	-0.023	-0.061
-590.952	-200.000	0.000	-0.046
-589.938	106.540	-0.262	0.315
-588.923	-32.233	0.140	0.079
-587.909	-200.000	-0.007	-0.183
-586.894	41.469	-0.203	-0.187
-585.879	40.895	-0.147	-0.134
-584.865	-76.256	-0.469	0.168
-583.850	-159.004	0.092	-0.005
-582.836	-18.395	0.296	-0.188
-581.821	-131.622	0.223	-0.030
-580.806	-103.674	-0.188	-0.045
-579.792	-103.733	0.412	0.098
-578.777	141.994	0.129	-0.173
-577.763	-200.000	0.018	0.144
-576.748	-68.924	0.111	-0.043
-575.733	-9.895	-0.130	0.088
-574.719	-20.123	0.073	0.045
-573.704	800.000	0.062	0.251
-572.690	-36.183	-0.210	-0.115
-571.675	-200.000	0.027	-0.147
-570.661	175.098	0.211	0.311
-569.646	82.985	0.101	-0.111
-568.631	-200.000	0.009	-0.143
-567.617	-34.616	-0.260	0.144
-566.602	800.000	0.119	-0.346
-565.588	-64.384	-0.362	-0.149
-564.573	206.389	0.229	0.361
-563.558	145.238	0.171	0.232
-562.544	-200.000	0.002	-0.071
-561.529	-122.002	0.172	-0.029
-560.515	800.000	-0.142	-0.442
-559.500	-100.166	0.298	-0.075
-558.485	-104.776	0.213	0.050
-557.471	-114.264	0.040	-0.008
-556.456	-120.326	0.160	0.028
-555.442	243.816	-0.111	-0.188
-554.427	-200.000	-0.002	-0.077
-553.412	87.424	0.218	-0.244
-552.398	800.000	-0.068	0.295
-551.383	-200.000	0.020	0.300
-550.369	-50.860	-0.196	-0.093
-549.354	-73.654	-0.082	0.030
-548.339	-143.063	-0.126	-0.012
-547.325	-200.000	0.022	0.432
-546.310	258.159	-0.111	0.194
-545.296	-200.000	-0.000	0.073
-544.281	-81.546	-0.193	-0.064
-543.266	117.312	-0.217	-0.271
-542.252	72.754	-0.072	-0.076
-541.237	262.534	0.014	0.025
-540.223	-59.609	-0.059	-0.025
-539.208	-98.697	0.177	0.046
-538.193	367.644	0.091	0.186
-537.179	717.903	0.112	-0.302
-536.164	100.792	0.125	0.147
-535.150	320.407	0.065	0.126
-534.135	-10.060	-0.156	0.105
-533.121	168.145	0.135	0.194
-532.106	-147.253	-0.273	0.024
-531.091	800.000	-0.055	-0.161
-530.077	-78.082	0.177	0.062
-529.062	162.641	0.118	-0.167
-528.048	8.935	-0.105	-0.080
-527.033	-200.000	0.010	0.181
-526.018	13.642	-0.105	-0.082
-525.004	-155.505	0.250	0.016
-523.989	25.432	0.059	0.049
-522.975	406.136	-0.023	-0.049
-521.960	-84.934	0.121	0.038
-520.945	-125.479	0.552	-0.085
-519.931	510.647	0.061	-0.145
-518.916	-95.398	-0.116	-0.032
-517.902	-80.894	0.314	0.105
-516.887	-200.000	-0.053	-0.333
-515.872	4.205	-0.194	-0.144
-514.858	10.434	-0.190	-0.146
-513.843	114.238	-0.140	-0.172
-512.829	-200.000	-0.024	-0.120
-511.814	-102.922	-0.102	-0.025
-510.799	-168.340	-0.258	-0.010
-509.785	-23.734	-0.060	-0.036
-508.770	-107.713	-0.243	-0.054
-507.756	144.463	-0.198	0.267
-506.741	-148.039	-0.280	-0.024
-505.726	-185.333	0.329	0.005
-504.712	-84.629	0.198	-0.063
-503.697	-156.262	0.265	-0.017
-502.683	-128.906	0.150	-0.021
-501.668	26.908	0.221	0.187
-500.653	-37.674	-0.208	0.112
-499.639	-129.134	0.323	-0.046
-498.624	-21.449	0.141	0.087
-497.610	-8.554	0.201	-0.137
-496.595	15.412	0.137	-0.109
-495.581	-200.000	-0.046	-0.232
-494.566	-31.619	0.189	-0.107
-493.551	-94.640	-0.365	0.100
-492.537	60.329	0.061	-0.061
-491.522	-106.546	0.237	-0.053
-490.508	88.370	0.169	0.190
-489.493	512.864	0.014	0.032
-488.478	287.605	-0.231	-0.422
-487.464	-96.653	-0.068	0.018
-486.449	-128.455	0.015	0.002
-485.435	800.000	-0.054	0.199
-484.420	16.407	0.261	0.208
-483.405	-200.000	0.025	-0.237
-482.391	-28.127	0.069	0.040
-481.376	-139.866	-0.304	0.033
-480.362	-163.598	0.197	0.009
-479.347	800.000	-0.095	-0.276
-478.332	49.236	-0.106	0.101
-477.318	-200.000	0.013	-0.235
-476.303	138.191	-0.124	0.164
-475.289	800.000	-0.093	-0.293
-474.274	-23.846	0.148	-0.089
-473.259	-103.876	0.398	-0.094
-472.245	54.210	-0.231	-0.224
-471.230	-200.000	0.039	-0.321
-470.216	-2.852	-0.138	0.097
-469.201	-67.381	-0.019	-0.008
-468.186	773.948	-0.092	-0.254
-467.172	-93.645	-0.173	-0.048
-466.157	800.000	0.013	-0.039
-465.143	800.000	-0.019	-0.080
-464.128	800.000	0.098	-0.322
-463.113	-93.537	0.097	-0.027
-462.099	17.810	0.229	0.184
-461.084	-2.827	0.087	-0.061
-460.070	35.032	0.265	-0.234
-459.055	-10.906	-0.030	-0.020
-458.040	138.111	-0.143	0.189
-457.026	67.300	-0.124	0.128
-456.011	-174.042	0.482	0.014
-454.997	75.035	0.066	-0.070
-453.982	117.904	-0.039	-0.048
-452.968	350.990	0.055	0.111
-451.953	407.314	0.067	0.143
-450.938	112.475	-0.060	-0.073
-449.924	95.829	-0.209	-0.241
-448.909	382.469	0.183	-0.380
-447.895	-200.000	0.031	-0.169
-446.880	-107.979	0.101	0.022
-445.865	54.156	0.143	0.139
-444.851	208.267	-0.181	-0.285
-443.836	-46.136	-0.134	0.066
-442.822	-160.412	0.116	0.006
-441.807	102.862	0.175	-0.207
-440.792	-99.651	0.117	0.030
-439.778	172.741	-0.010	0.015
-438.763	25.767	-0.298	0.251
-437.749	800.000	-0.050	-0.154
-436.734	-73.968	0.326	0.119
-435.719	-47.190	-0.139	0.068
-434.705	345.530	0.073	0.146
-433.690	34.499	-0.241	0.212
-432.676	-200.000	-0.009	-0.283
-431.661	-200.000	-0.002	0.037
-430.646	-200.000	0.354	0.000
-429.632	-200.000	0.005	-0.376
-428.617	42.369	0.181	0.166
-427.603	-104.320	0.318	0.074
-426.588	310.402	0.085	0.160
-425.573	-100.138	-0.415	-0.104
-424.559	441.901	-0.066	-0.146
-423.544	35.617	-0.330	0.292
-422.530	98.939	-0.209	-0.243
-421.515	189.158	-0.176	0.266
-420.500	150.602	-0.107	-0.146
-419.486	388.704	0.062	0.129
-418.471	-200.000	-0.038	0.218
-417.457	27.080	-0.156	-0.132
-416.442	-200.000	-0.010	-0.148
-415.428	287.872	0.076	-0.139
-414.413	-200.000	-0.013	0.488
-413.398	-153.911	-0.292	0.020
-412.384	66.376	-0.123	-0.126
-411.369	-2.453	0.216	-0.152
-410.355	-166.497	0.171	0.007
-409.340	424.596	-0.030	-0.065
-408.325	555.700	0.032	-0.077
-407.311	-133.504	-0.234	-0.030
-406.296	800.000	-0.067	-0.201
-405.282	710.982	-0.053	-0.140
-404.267	384.244	0.152	0.316
-403.252	-200.000	-0.015	0.278
-402.238	-200.000	-0.003	-0.093
-401.223	-2.119	0.220	0.155
-400.209	-96.819	0.124	0.033
-399.194	-200.000	-0.013	-0.136
-398.179	-182.303	-0.225	-0.004
-397.165	-99.326	0.088	0.022
-396.150	800.000	-0.057	0.182
-395.136	800.000	-0.007	0.019
-394.121	-46.989	-0.113	0.055
-393.106	-39.555	-0.228	-0.120
-392.092	-148.464	0.235	0.019
-391.077	-200.000	0.073	-0.329
-390.063	-200.000	-0.028	-0.125
-389.048	42.486	-0.088	0.081
-388.033	140.873	-0.196	-0.261
-387.019	-200.000	-0.058	-0.273
-386.004	800.000	0.058	-0.171
-384.990	-155.284	0.309	0.020
-383.975	-90.797	0.368	-0.107
-382.960	800.000	-0.046	0.131
-381.946	-160.516	0.021	0.001
-380.931	142.159	0.038	0.051
-379.917	254.401	-0.155	-0.267
-378.902	-200.000	0.033	0.237
-377.888	-200.000	-0.038	-0.218
-376.873	-146.058	-0.168	-0.015
-375.858	144.603	-0.063	-0.084
-374.844	92.219	-0.356	0.404
-373.829	12.255	0.288	-0.223
-372.815	-118.634	-0.467	0.083
-371.800	17.710	-0.218	0.174
-370.785	-105.743	-0.193	-0.044
-369.771	-200.000	-0.009	0.103
-368.756	1.305	0.125	0.090
-367.742	-200.000	0.015	0.206
-366.727	800.000	-0.123	-0.452
-365.712	-14.354	-0.308	0.199
-364.698	-200.000	0.028	0.204
-363.683	800.000	0.070	0.194
-362.669	-102.296	0.196	0.047
-361.654	-112.707	0.265	0.053
-360.639	-200.000	0.026	-0.197
-359.625	-43.033	-0.277	-0.141
-358.610	105.072	-0.067	-0.080
-357.596	800.000	0.086	-0.277
-356.581	-200.000	-0.010	0.195
-355.566	-200.000	-0.011	0.141
-354.552	-184.705	0.273	-0.004
-353.537	-15.284	-0.143	0.092
-352.523	-162.283	0.138	-0.007
-351.508	-81.656	0.307	0.101
-350.493	-149.764	-0.180	-0.014
-349.479	-200.000	0.004	0.062
-348.464	-40.653	0.196	0.102
-347.450	-44.370	-0.144	0.072
-346.435	800.000	-0.092	0.312
-345.420	321.881	0.173	0.332
-344.406	201.037	-0.080	-0.124
-343.391	-200.000	-0.014	-0.093
-342.377	16.777	0.464	0.369
-341.362	-79.972	-0.118	-0.040
-340.348	800.000	-0.046	0.187
-339.333	-141.318	0.107	-0.011
-338.318	-52.647	0.132	-0.061
-337.304	-200.000	0.005	-0.158
-336.289	-200.000	-0.018	-0.328
-335.275	-42.716	0.389	0.199
-334.260	-124.338	-0.306	0.048
-333.245	800.000	0.071	0.207
-332.231	-200.000	-0.031	0.210
-331.216	-32.347	0.030	0.017
-330.202	137.076	-0.095	-0.125
-329.187	-200.000	-0.025	-0.188
-328.172	-129.052	-0.096	0.014
-327.158	-75.671	-0.255	0.091
-326.143	293.790	-0.038	0.069
-325.129	-200.000	-0.022	0.306
-324.114	43.071	0.204	0.187
-323.099	800.000	0.031	0.135
-322.085	158.957	0.070	0.097
-321.070	71.369	0.265	0.277
-320.056	75.356	-0.363	0.384
-319.041	52.889	-0.120	-0.115
-318.026	800.000	-0.060	0.174
-317.012	-27.385	0.100	-0.058
-315.997	122.123	-0.173	-0.217
-314.983	361.571	-0.203	0.409
-313.968	-2.214	0.208	-0.146
-312.953	-200.000	-0.014	0.075
-311.939	19.759	-0.160	0.129
-310.924	434.119	-0.138	-0.302
-309.910	-127.278	0.135	-0.020
-308.895	78.905	-0.062	-0.066
-307.880	-125.796	0.159	0.024
-306.866	800.000	0.144	0.410
-305.851	-113.239	0.153	-0.030
-304.837	-200.000	0.033	-0.288
-303.822	192.472	0.125	-0.190
-302.807	8.065	0.225	-0.169
-301.793	-49.500	0.132	0.063
-300.778	225.450	0.029	-0.047
-299.764	-200.000	-0.005	0.113
-298.749	-200.000	-0.010	0.252
-297.735	21.174	0.174	-0.142
-296.720	496.199	0.069	-0.159
-295.705	-200.000	0.038	0.183
-294.691	-26.779	0.190	-0.111
-293.676	14.018	-0.242	-0.189
-292.662	23.508	-0.225	0.186
-291.647	260.185	0.078	-0.135
-290.632	113.196	0.104	0.127
-289.618	-200.000	0.043	0.223
-288.603	-155.064	0.150	0.010
-287.589	387.770	-0.107	-0.221
-286.574	-200.000	0.005	0.282
-285.559	800.000	0.075	-0.262
-284.545	331.837	-0.233	-0.450
-283.530	-149.453	0.303	0.024
-282.516	265.595	0.067	0.118
-281.501	800.000	0.050	-0.153
-280.486	-200.000	0.002	0.298
-279.472	677.645	0.029	-0.077
-278.457	300.876	0.070	0.130
-277.443	95.784	-0.046	-0.052
-276.428	-142.402	-0.221	-0.022
-275.413	-51.471	0.063	0.030
-274.399	-108.616	0.044	0.009
-273.384	-200.000	-0.006	-0.057
-272.370	-50.376	0.166	-0.078
-271.355	-41.898	0.037	-0.019
-270.340	-155.584	0.167	-0.011
-269.326	800.000	0.093	-0.363
-268.311	-110.326	-0.219	0.046
-267.297	800.000	-0.162	0.597
-266.282	6.321	-0.215	-0.160
-265.267	-83.242	-0.088	0.028
-264.253	-109.410	-0.216	0.046
-263.238	800.000	-0.120	0.342
-262.224	-200.000	-0.038	0.374
-261.209	800.000	0.051	-0.167
-260.195	147.047	0.116	-0.156
-259.180	393.104	-0.069	-0.143
-258.165	-200.000	-0.090	-0.508
-257.151	800.000	-0.046	-0.136
-256.136	-31.530	-0.097	-0.055
-255.122	800.000	-0.090	-0.374
-254.107	-49.923	-0.115	0.055
-253.092	142.825	0.134	-0.178
-252.078	-123.277	0.055	-0.009
-251.063	-200.000	-0.001	-0.202
-250.049	-200.000	-0.052	0.409
-249.034	26.079	0.052	0.043
-248.019	-200.000	-0.005	-0.181
-247.005	9.823	0.141	0.107
-245.990	46.453	0.247	-0.229
-244.976	250.954	0.076	-0.129
-243.961	-98.355	-0.224	0.057
-242.946	60.306	0.251	0.248
-241.932	320.759	0.168	-0.320
-240.917	-15.106	-0.159	-0.102
-239.903	800.000	-0.108	0.374
-238.888	-174.415	0.202	0.006
-237.873	-160.399	-0.305	0.016
-236.859	-58.574	-0.285	-0.124
-235.844	-54.468	0.194	0.088
-234.830	-200.000	-0.024	0.111
-233.815	-74.028	-0.178	0.065
-232.800	-8.969	-0.002	0.002
-231.786	-137.841	-0.307	0.034
-230.771	-85.061	-0.341	0.107
-229.757	-200.000	-0.003	0.098
-228.742	-116.724	-0.235	-0.043
-227.727	68.664	0.068	0.070
-226.713	163.130	-0.237	0.334
-225.698	99.913	-0.123	-0.142
-224.684	-73.153	-0.187	-0.068
-223.669	51.219	0.318	0.301
-222.655	-70.458	-0.245	0.093
-221.640	513.461	-0.106	0.248
-220.625	-200.000	-0.021	0.165
-219.611	800.000	-0.076	-0.293
-218.596	105.090	-0.181	-0.213
-217.582	-122.912	-0.220	0.036
-216.567	-30.323	-0.310	0.176
-215.552	-114.330	0.314	-0.060
-214.538	197.105	0.040	-0.061
-213.523	800.000	-0.030	0.091
-212.509	-43.087	-0.243	0.123
-211.494	257.739	-0.058	-0.100
-210.479	1.319	0.155	-0.111
-209.465	-200.000	-0.062	-0.383
-208.450	0.170	-0.264	0.188
-207.436	-102.673	-0.100	0.024
-206.421	43.534	-0.241	0.221
-205.406	-1.503	0.125	-0.088
-204.392	-141.065	0.222	0.023
-203.377	-155.592	-0.188	-0.012
-202.363	570.019	-0.095	0.230
-201.348	-32.706	-0.289	-0.161
-200.333	14.301	0.094	-0.073
-199.319	-200.000	-0.006	0.115
-198.304	-200.000	-0.004	0.149
-197.290	555.117	0.135	0.326
-196.275	-111.340	0.151	-0.031
-195.260	-200.000	0.084	0.393
-194.246	-169.280	-0.071	-0.003
-193.231	325.909	-0.035	-0.067
-192.217	800.000	0.036	0.136
-191.202	395.899	-0.035	-0.073
-190.187	800.000	0.041	-0.156
-189.173	17.547	-0.299	0.238
-188.158	86.926	0.113	0.125
-187.144	42.851	0.076	-0.069
-186.129	-59.234	0.419	0.180
-185.114	-200.000	-0.010	0.145
-184.100	441.463	0.103	0.226
-183.085	27.104	-0.228	0.191
-182.071	122.968	0.003	0.003
-181.056	102.419	0.221	-0.258
-180.042	-200.000	-0.025	-0.346
-179.027	400.405	0.044	0.092
-178.012	244.291	0.122	-0.204
-176.998	-42.925	-0.211	0.107
-175.983	535.750	-0.122	0.289
-174.969	-146.449	0.277	0.024
-173.954	-104.908	0.054	0.012
-172.939	-9.910	0.254	-0.169
-171.925	39.412	-0.046	-0.041
-170.910	649.514	0.096	-0.244
-169.896	-109.046	-0.141	-0.030
-168.881	-30.747	0.220	0.124
-167.866	36.547	0.154	0.135
-166.852	-200.000	-0.020	0.140
-165.837	204.095	0.041	0.064
-164.823	501.215	-0.007	-0.016
-163.808	-89.159	0.433	-0.128
-162.793	123.507	-0.212	0.266
-161.779	-132.190	0.122	0.016
-160.764	21.173	-0.096	0.078
-159.750	130.198	0.210	0.269
-158.735	-2.628	0.092	0.064
-157.720	-200.000	0.015	0.075
-156.706	-27.062	0.249	-0.145
-155.691	282.639	0.154	-0.275
-154.677	-200.000	-0.052	0.450
-153.662	-54.331	0.191	0.086
-152.647	-133.747	0.303	-0.038
-151.633	-40.292	0.208	0.108
-150.618	129.859	0.077	0.098
-149.604	-126.381	-0.028	0.004
-148.589	576.144	0.136	-0.331
-147.574	51.678	-0.215	-0.204
-146.560	78.089	-0.353	-0.375
-145.545	800.000	-0.052	-0.212
-144.531	-200.000	0.027	-0.150
-143.516	109.037	-0.119	0.142
-142.502	61.164	0.210	0.208
-141.487	167.410	0.098	-0.139
-140.472	-69.429	0.079	0.030
-139.458	-60.410	0.279	-0.118
-138.443	-200.000	0.081	0.390
-137.429	371.364	0.213	-0.431
-136.414	-23.473	0.089	0.053
-135.399	-200.000	0.069	0.466
-134.385	-200.000	-0.031	0.196
-133.370	800.000	0.049	0.186
-132.356	-87.519	0.124	-0.037
-131.341	-13.786	0.193	-0.124
-130.326	-118.055	0.169	0.030
-129.312	800.000	0.043	0.160
-128.297	-60.989	0.316	-0.133
-127.283	51.815	0.137	-0.130
-126.268	178.431	-0.145	-0.211
-125.253	647.767	-0.084	-0.215
-124.239	-94.767	-0.101	0.027
-123.224	125.496	0.071	0.090
-122.210	-75.044	0.256	0.091
-121.195	-40.657	-0.203	0.105
-120.180	-200.000	0.032	-0.604
-119.166	42.958	0.108	-0.098
-118.151	-39.045	0.233	0.122
-117.137	-104.165	0.250	0.058
-116.122	611.336	-0.179	-0.445
-115.107	302.947	-0.117	0.217
-114.093	-120.610	0.487	0.082
-113.078	-200.000	0.013	-0.166
-112.064	40.033	0.034	-0.030
-111.049	183.906	0.163	-0.240
-110.034	-82.002	-0.360	0.117
-109.020	-4.853	0.087	-0.060
-108.005	800.000	-0.101	0.322
-106.991	-93.743	-0.088	-0.024
-105.976	125.535	-0.276	0.346
-104.962	17.147	0.390	-0.308
-103.947	-200.000	-0.001	-0.048
-102.932	-200.000	0.024	-0.204
-101.918	137.322	0.132	-0.171
-100.903	-200.000	-0.032	0.323
-99.889	-200.000	-0.038	-0.194
-98.874	800.000	0.003	-0.009
-97.859	-200.000	0.011	-0.096
-96.845	-96.751	0.010	-0.003
-95.830	-200.000	-0.036	-0.387
-94.816	800.000	0.097	0.308
-93.801	-200.000	0.022	-0.188
-92.786	-200.000	0.006	0.312
-91.772	800.000	0.070	0.212
-90.757	-200.000	-0.023	0.167
-89.743	200.024	0.097	0.148
-88.728	-200.000	0.012	0.154
-87.713	-200.000	0.043	-0.265
-86.699	-16.131	-0.289	-0.182
-85.684	-200.000	-0.048	-0.294
-84.670	203.742	0.284	-0.437
-83.655	-84.858	-0.163	0.051
-82.640	-62.064	0.192	0.080
-81.626	-83.683	-0.161	-0.051
-80.611	216.285	0.119	0.189
-79.597	-200.000	0.025	0.234
-78.582	148.135	-0.188	-0.252
-77.567	-133.793	0.125	0.016
-76.553	88.325	0.183	0.202
-75.538	-4.345	-0.124	0.086
-74.524	-62.891	-0.268	-0.110
-73.509	-24.048	0.165	0.098
-72.494	-200.000	-0.001	-0.153
-71.480	-67.462	0.066	-0.026
-70.465	-152.482	-0.115	0.008
-69.451	800.000	0.100	-0.371
-68.436	346.954	-0.112	0.218
-67.422	509.001	-0.104	0.240
-66.407	-80.001	0.217	-0.072
-65.392	39.610	-0.104	0.092
-64.378	-11.114	0.334	-0.219
-63.363	800.000	-0.031	0.090
-62.349	135.954	-0.083	0.107
-61.334	-6.161	-0.873	-0.593
-60.319	15.152	0.399	0.310
-59.305	-200.000	-0.117	-0.830
-58.290	685.932	0.336	0.873
-57.276	800.000	0.605	1.769
-56.261	-200.000	76.522	510.830
-55.246	514.278	1338.737	3103.743
-54.232	143.951	2584.603	3424.326
-53.217	109.989	2360.370	2814.139
-52.203	49.629	1972.655	1845.934
-51.188	43.594	1760.671	1599.944
-50.173	40.848	1714.875	1537.066
-49.159	55.059	1749.829	1679.407
-48.144	60.254	1768.239	1737.461
-47.130	43.624	1732.503	1574.337
-46.115	40.410	1718.553	1536.721
-45.100	40.345	1713.463	1531.603
-44.086	40.322	1710.783	1528.974
-43.071	40.238	1708.776	1526.468
-42.057	40.244	1706.213	1524.169
-41.042	40.265	1704.037	1522.327
-40.027	40.279	1702.259	1520.782
-39.013	40.363	1700.312	1519.627
-37.998	40.278	1698.818	1517.576
-36.984	40.346	1697.382	1516.757
-35.969	40.357	1696.063	1515.605
-34.954	40.492	1693.994	1514.728
-33.940	40.408	1692.396	1512.595
-32.925	40.335	1690.784	1510.535
-31.911	40.380	1688.719	1508.978
-30.896	40.359	1686.678	1506.935
-29.881	40.343	1685.428	1505.636
-28.867	40.332	1683.648	1503.900
-27.852	40.434	1682.220	1503.337
-26.838	40.451	1680.448	1501.825
-25.823	40.336	1679.346	1499.913
-24.809	40.374	1677.834	1498.787
-23.794	40.408	1676.423	1497.724
-22.779	40.353	1674.813	1495.811
-21.765	40.378	1673.340	1494.627
-20.750	40.361	1671.493	1492.786
-19.736	40.458	1669.747	1491.897
-18.721	40.465	1668.370	1490.666
-17.706	40.502	1666.664	1489.359
-16.692	40.418	1665.651	1487.759
-15.677	40.339	1664.279	1485.889
-14.663	40.490	1662.467	1485.338
-13.648	40.410	1661.617	1483.923
-12.633	40.424	1659.826	1482.372
-11.619	40.410	1658.285	1480.827
-10.604	40.415	1656.368	1479.093
-9.590	40.490	1654.989	1478.367
-8.575	40.380	1653.864	1476.480
-7.560	40.440	1653.026	1476.123
-6.546	40.418	1651.899	1474.893
-5.531	40.396	1650.396	1473.332
-4.517	40.393	1649.152	1472.135
-3.502	40.386	1648.521	1471.467
-2.487	40.510	1646.459	1470.487
-1.473	40.582	1635.897	1461.525
-0.458	38.395	1616.579	1428.261
0.556	32.633	1614.828	1391.605
1.571	29.403	1638.012	1387.213
2.586	28.205	1651.921	1389.777
3.600	24.922	1597.452	1319.684
4.615	15.241	1481.440	1157.227
5.629	6.769	1410.346	1045.694
6.644	5.078	1400.461	1027.142
7.659	4.992	1398.876	1025.326
8.673	4.881	1397.931	1023.813
9.688	4.819	1395.768	1021.732
10.702	4.622	1393.271	1018.521
11.717	8.447	1401.417	1049.548
12.731	16.593	1416.490	1114.621
13.746	19.823	1420.181	1138.719
14.761	17.930	1415.845	1122.710
15.775	16.686	1412.219	1111.569
16.790	15.603	1409.723	1102.410
17.804	14.732	1407.458	1094.835
18.819	14.334	1405.893	1090.910
19.834	13.976	1404.337	1087.262
20.848	13.708	1403.073	1084.435
21.863	13.511	1401.612	1081.925
22.877	13.391	1400.447	1080.145
23.892	13.329	1399.651	1079.033
24.907	13.337	1398.799	1078.331
25.921	13.287	1397.875	1077.197
26.936	13.350	1397.179	1076.980
27.950	13.469	1395.713	1076.523
28.965	13.421	1395.080	1075.634
29.980	13.469	1394.026	1075.036
30.994	13.609	1392.430	1074.617
32.009	13.558	1391.548	1073.508
33.023	13.545	1390.284	1072.357
34.038	13.595	1388.579	1071.267
35.053	13.515	1387.179	1069.581
36.067	13.507	1386.336	1068.785
37.082	13.520	1385.134	1067.846
38.096	13.580	1384.202	1067.416
39.111	13.600	1383.378	1066.819
40.126	13.469	1382.535	1065.227
41.140	13.384	1381.752	1063.986
42.155	13.390	1381.004	1063.357
43.169	13.278	1380.872	1062.439
44.184	13.352	1380.772	1062.743
45.199	13.252	1380.409	1061.725
46.213	13.378	1379.766	1061.947
47.228	13.391	1378.852	1061.232
48.242	13.498	1377.582	1060.850
49.257	13.460	1375.716	1059.072
50.271	13.382	1374.452	1057.509
51.286	13.425	1372.883	1056.483
52.301	13.518	1371.700	1056.071
53.315	13.396	1370.704	1054.437
54.330	13.435	1369.791	1053.887
55.344	13.320	1368.421	1052.009
56.359	13.346	1367.356	1051.260
57.374	13.343	1366.555	1050.531
58.388	13.236	1365.748	1049.139
59.403	13.213	1364.835	1048.202
60.417	13.380	1364.309	1048.765
61.432	13.263	1363.564	1047.358
62.447	13.199	1362.381	1045.950
63.461	13.217	1361.546	1045.328
64.476	13.179	1360.561	1044.239
65.490	13.223	1358.821	1043.089
66.505	13.139	1357.261	1041.271
67.520	13.161	1356.642	1040.846
68.534	13.203	1355.031	1039.779
69.549	13.214	1353.909	1038.899
70.563	13.212	1353.147	1038.206
71.578	13.147	1351.752	1036.634
72.593	13.050	1350.903	1035.286
73.607	13.023	1350.350	1034.599
74.622	13.051	1349.334	1033.908
75.636	13.050	1349.132	1033.656
76.651	12.970	1347.883	1032.106
77.666	13.096	1347.627	1032.607
78.680	13.046	1346.974	1031.700
79.695	13.123	1346.179	1031.480
80.709	13.087	1345.773	1030.855
81.724	13.264	1344.686	1031.037
82.739	13.239	1343.510	1029.888
83.753	13.385	1342.695	1030.081
84.768	13.427	1341.901	1029.640
85.782	13.517	1340.872	1029.321
86.797	13.461	1339.478	1027.810
87.812	13.280	1338.254	1025.655
88.826	13.352	1337.100	1025.131
89.841	13.522	1335.883	1025.155
90.855	13.388	1335.243	1023.748
91.870	13.423	1334.238	1023.104
92.884	13.502	1333.291	1022.772
93.899	13.482	1332.337	1021.826
94.914	13.540	1331.355	1021.339
95.928	13.588	1330.974	1021.255
96.943	13.479	1330.095	1019.815
97.957	13.492	1328.818	1018.828
98.972	13.483	1327.989	1018.050
99.987	13.513	1326.792	1017.222
101.001	13.536	1325.952	1016.633
102.016	13.515	1324.962	1015.651
103.030	13.472	1324.256	1014.758
104.045	13.511	1323.395	1014.249
105.060	13.433	1321.742	1012.412
106.074	13.348	1320.663	1010.980
107.089	13.255	1318.913	1008.985
108.103	13.205	1318.128	1007.985
109.118	13.234	1316.114	1006.536
110.133	13.249	1315.373	1005.968
111.147	13.332	1313.397	1004.874
112.162	13.190	1312.544	1003.272
113.176	13.312	1311.100	1002.816
114.191	13.249	1310.208	1001.668
115.206	13.399	1308.907	1001.493
116.220	13.394	1308.021	1000.697
117.235	13.308	1307.109	999.386
118.249	13.286	1305.981	998.305
119.264	13.283	1304.911	997.379
120.279	13.264	1303.475	996.081
121.293	13.211	1302.439	994.878
122.308	13.225	1301.422	994.099
123.322	13.218	1300.395	993.183
124.337	13.199	1299.353	992.186
125.352	13.112	1298.529	990.946
126.366	13.110	1297.409	989.993
127.381	13.165	1296.125	989.259
128.395	13.243	1295.266	988.981
129.410	13.144	1294.517	987.731
130.424	13.234	1293.400	987.324
131.439	13.220	1292.760	986.664
132.454	13.320	1291.599	986.288
133.468	13.388	1290.393	985.689
134.483	13.432	1289.946	985.521
135.497	13.335	1288.786	983.968
136.512	13.310	1287.705	982.910
137.527	13.301	1286.225	981.636
138.541	13.385	1284.780	980.945
139.556	13.531	1283.089	980.433
140.570	13.492	1282.636	979.772
141.585	13.488	1280.878	978.320
142.600	13.526	1279.768	977.608
143.614	13.555	1278.913	977.039
144.629	13.664	1278.118	976.984
145.643	13.555	1276.798	975.248
146.658	13.451	1275.700	973.714
147.673	13.427	1274.115	972.277
148.687	13.409	1273.003	971.237
149.702	13.461	1271.336	970.185
150.716	13.390	1269.985	968.649
151.731	13.457	1269.128	968.300
152.746	13.477	1268.082	967.536
153.760	13.457	1266.788	966.348
154.775	13.566	1265.666	966.042
155.789	13.608	1264.410	965.243
156.804	13.670	1263.218	964.610
157.819	13.467	1262.558	962.838
158.833	13.589	1261.779	962.868
159.848	13.724	1260.380	962.499
160.862	13.744	1259.685	962.000
161.877	13.642	1258.499	960.418
162.892	13.554	1257.194	958.827
163.906	13.481	1256.521	957.803
164.921	13.492	1255.819	957.250
165.935	13.476	1254.985	956.435
166.950	13.583	1253.915	956.155
167.964	13.622	1253.210	955.756
168.979	13.686	1252.384	955.409
169.994	13.687	1251.783	954.871
171.008	13.612	1251.093	953.828
172.023	13.724	1250.108	953.638
173.037	13.686	1249.303	952.724
174.052	13.614	1248.935	951.942
175.067	13.590	1247.277	950.460
176.081	13.605	1246.200	949.641
177.096	13.623	1245.127	948.841
178.110	13.600	1244.423	948.091
179.125	13.668	1243.193	947.456
180.140	13.633	1241.944	946.220
181.154	13.620	1240.839	945.219
182.169	13.715	1239.341	944.536
183.183	13.827	1238.417	944.388
184.198	13.780	1237.107	943.040
185.213	13.935	1236.067	943.040
186.227	13.849	1235.019	941.671
187.242	13.812	1233.835	940.477
188.256	13.904	1232.920	940.214
189.271	13.920	1232.273	939.728
190.286	13.788	1231.474	938.292
191.300	13.541	1230.575	936.124
192.315	13.625	1229.469	935.677
193.329	13.672	1228.874	935.405
194.344	13.625	1228.091	934.462
195.359	13.713	1227.374	934.331
196.373	13.816	1227.084	934.608
197.388	13.960	1226.102	934.587
198.402	13.904	1226.104	934.190
199.417	13.988	1225.933	934.452
200.432	14.105	1224.479	933.915
201.446	14.205	1223.696	933.794
202.461	14.147	1222.397	932.399
203.475	14.216	1221.655	932.139
204.490	14.254	1219.795	930.847
205.504	14.085	1218.848	929.099
206.519	14.086	1217.734	928.172
207.534	13.931	1217.093	926.734
208.548	14.044	1215.819	926.316
209.563	13.998	1215.222	925.521
210.577	13.988	1214.348	924.716
211.592	14.159	1213.250	924.748
212.607	14.196	1212.713	924.468
213.621	14.190	1211.486	923.414
214.636	14.245	1210.357	922.776
215.650	14.326	1209.370	922.394
216.665	14.278	1209.126	921.859
217.680	14.358	1207.516	920.994
218.694	14.300	1206.989	920.188
219.709	14.389	1206.251	920.033
220.723	14.323	1205.538	919.043
221.738	14.360	1204.803	918.608
222.753	14.402	1204.012	918.157
223.767	14.352	1203.396	917.331
224.782	14.581	1202.321	917.691
225.796	14.463	1201.982	916.697
226.811	14.487	1201.353	916.272
227.826	14.489	1200.241	915.352
228.840	14.473	1199.387	914.532
229.855	14.367	1198.922	913.516
230.869	14.382	1198.322	913.059
231.884	14.360	1197.367	912.128
232.899	14.383	1196.624	911.612
233.913	14.360	1195.648	910.660
234.928	14.290	1195.049	909.741
235.942	14.373	1194.019	909.329
236.957	14.330	1193.214	908.400
237.972	14.371	1192.423	907.943
238.986	14.349	1192.068	907.471
240.001	14.414	1191.116	907.017
241.015	14.436	1189.940	906.164
242.030	14.488	1189.345	905.911
243.045	14.559	1188.471	905.553
244.059	14.497	1188.142	904.887
245.074	14.615	1186.714	904.359
246.088	14.617	1186.188	903.887
247.103	14.622	1185.270	903.135
248.117	14.576	1185.189	902.744
249.132	14.626	1184.383	902.322
250.147	14.853	1183.450	902.758
251.161	14.919	1182.548	902.345
252.176	14.906	1182.200	901.927
253.190	14.952	1181.404	901.490
254.205	15.035	1180.781	901.383
255.220	15.058	1179.935	900.782
256.234	15.099	1179.232	900.384
257.249	15.072	1178.897	899.905
258.263	14.995	1178.248	898.912
259.278	15.035	1177.443	898.434
260.293	15.005	1176.816	897.716
261.307	14.985	1176.277	897.118
262.322	14.998	1175.846	896.780
263.336	15.079	1174.948	896.450
264.351	15.194	1174.523	896.660
265.366	15.213	1173.669	896.032
266.380	15.150	1173.089	895.172
267.395	15.100	1171.941	893.953
268.409	15.081	1171.391	893.353
269.424	15.154	1170.394	892.903
270.439	15.127	1170.393	892.679
271.453	15.140	1169.609	892.068
272.468	15.100	1168.820	891.174
273.482	15.122	1167.637	890.311
274.497	15.116	1167.025	889.735
275.512	15.109	1166.341	889.098
276.526	15.118	1165.788	888.647
277.541	15.214	1164.717	888.257
278.555	15.239	1164.079	887.825
279.570	15.210	1163.381	887.064
280.585	15.418	1162.356	887.301
281.599	15.364	1161.655	886.402
282.614	15.309	1160.787	885.374
283.628	15.205	1159.959	884.116
284.643	15.269	1158.622	883.350
285.657	15.360	1157.754	883.091
286.672	15.252	1157.020	881.884
287.687	15.269	1156.249	881.309
288.701	15.444	1154.889	881.114
289.716	15.413	1154.322	880.439
290.730	15.396	1153.792	879.870
291.745	15.388	1153.124	879.241
292.760	15.462	1152.442	879.030
293.774	15.530	1151.489	878.581
294.789	15.520	1151.173	878.207
295.803	15.416	1151.122	877.547
296.818	15.532	1149.464	876.811
297.833	15.435	1148.574	875.553
298.847	15.472	1147.980	875.213
299.862	15.303	1147.622	873.981
300.876	15.396	1146.750	873.724
301.891	15.494	1146.355	873.855
302.906	15.615	1145.303	873.605
303.920	15.693	1144.238	873.121
304.935	15.797	1143.645	873.133
305.949	15.688	1143.463	872.352
306.964	15.798	1142.590	872.177
307.979	15.717	1141.659	870.969
308.993	15.736	1140.922	870.427
310.008	15.833	1140.443	870.488
311.022	15.754	1139.835	869.539
312.037	15.820	1138.636	868.887
313.052	15.727	1137.732	867.644
314.066	15.567	1136.857	866.072
315.081	15.617	1135.847	865.482
316.095	15.723	1134.783	865.141
317.110	15.594	1134.799	864.417
318.125	15.661	1133.748	863.881
319.139	15.635	1133.285	863.321
320.154	15.668	1132.457	862.780
321.168	15.665	1131.676	862.093
322.183	15.613	1131.254	861.428
323.197	15.849	1130.398	861.909
324.212	15.760	1130.085	861.139
325.227	15.790	1129.321	860.635
326.241	15.812	1128.707	860.202
327.256	15.684	1128.229	859.108
328.270	15.766	1126.836	858.393
329.285	15.863	1125.530	857.812
330.300	15.763	1125.114	856.911
331.314	15.759	1124.656	856.467
332.329	15.914	1122.887	855.834
333.343	15.964	1121.929	855.282
334.358	15.897	1121.391	854.455
335.373	15.864	1121.133	854.017
336.387	15.929	1120.020	853.420
337.402	15.962	1119.343	852.995
338.416	15.953	1118.410	852.165
339.431	16.077	1117.626	852.117
340.446	16.076	1117.149	851.675
341.460	16.277	1116.342	851.999
342.475	16.109	1115.904	850.739
343.489	16.202	1115.077	850.503
344.504	16.188	1113.670	849.285
345.519	16.159	1113.184	848.693
346.533	16.299	1111.867	848.318
347.548	16.356	1111.568	848.299
348.562	16.411	1110.192	847.452
349.577	16.262	1109.663	846.226
350.592	16.128	1109.099	845.048
351.606	16.232	1108.522	845.055
352.621	16.103	1107.848	843.822
353.635	16.069	1107.084	842.993
354.650	16.094	1106.047	842.254
355.665	16.035	1105.824	841.716
356.679	16.232	1105.056	842.039
357.694	16.318	1104.300	841.817
358.708	16.223	1103.759	840.858
359.723	16.338	1103.096	840.854
360.738	16.449	1102.220	840.663
361.752	16.181	1102.196	839.237
362.767	16.330	1101.305	839.223
363.781	16.389	1100.569	838.880
364.796	16.593	1099.901	839.311
365.810	16.561	1099.327	838.638
366.825	16.602	1098.943	838.477
367.840	16.554	1098.039	837.473
368.854	16.697	1097.694	837.844
369.869	16.656	1097.063	837.086
370.883	16.597	1096.305	836.142
371.898	16.616	1094.866	835.062
372.913	16.572	1094.678	834.630
373.927	16.619	1094.261	834.470
374.942	16.705	1093.865	834.520
375.956	16.681	1093.460	834.015
376.971	16.609	1092.856	833.127
377.986	16.678	1092.265	832.941
379.000	16.788	1091.755	833.023
380.015	16.820	1090.901	832.452
381.029	16.816	1090.094	831.746
382.044	16.833	1089.342	831.183
383.059	16.802	1088.722	830.482
384.073	16.819	1088.096	830.013
385.088	16.895	1086.955	829.441
386.102	16.855	1086.238	828.628
387.117	16.781	1084.981	827.231
388.132	16.687	1084.372	826.235
389.146	16.744	1083.723	825.947
390.161	16.727	1082.829	825.108
391.175	16.833	1081.879	824.830
392.190	16.790	1081.452	824.218
393.205	16.876	1080.822	824.083
394.219	16.952	1079.367	823.273
395.234	16.910	1078.671	822.467
396.248	16.927	1077.430	821.529
397.263	16.972	1076.457	820.933
398.278	16.887	1075.926	820.042
399.292	16.706	1075.545	818.806
400.307	16.759	1074.967	818.548
401.321	16.756	1074.216	817.889
402.336	16.821	1073.564	817.632
403.350	16.963	1072.754	817.628
404.365	16.824	1072.353	816.581
405.380	16.848	1071.259	815.790
406.394	17.019	1070.270	815.791
407.409	17.099	1069.570	815.565
408.423	17.027	1069.242	814.898
409.438	17.145	1068.608	814.911
410.453	17.109	1068.129	814.302
411.467	17.297	1066.900	814.190
412.482	17.127	1066.592	813.069
413.496	17.215	1065.903	812.896
414.511	17.139	1065.530	812.174
415.526	17.364	1065.014	812.784
416.540	17.382	1064.483	812.394
417.555	17.337	1063.935	811.689
418.569	17.398	1063.203	811.348
419.584	17.356	1062.740	810.722
420.599	17.439	1061.848	810.366
421.613	86.764	1297.934	1376.196
422.628	80.114	1332.349	1376.372
