DTS Sentinel unit serial number:	SN413079Multiplexer serial number:	ORYXHardware model number:	OX4-SRSoftware version number:	ORYX F/W v4.00 Oryx Data Collector v3.7.2.0data status	okinstallation	princeton_trtdifferential loss correction	single-endedforward channel	channel 2reverse channel	N/Adate	2019/09/15time	18:51:34forward acquisition time	60.00reverse acquisition time	0.00gamma	496.2192k internal	0.2292k external	0.2292temperature offset calibration	0.9923default loss term (dB/km)	0.3790temperature slope calibration	1.0000multiplexer offset coefficient	1.0000multiplexer slope coefficient	1.0000fibre end	0.00T internal ref (°C)	42.95T ext. ref 1 (°C)	6.94T ext. ref 2 (°C)	33.61length (m)	temperature (°C)	Stokes	anti-Stokes-747.200	19.893	0.163	0.134
-746.185	800.000	-0.077	0.244
-745.171	113.538	-0.058	0.072
-744.156	-129.422	0.122	-0.017
-743.142	67.863	-0.054	0.056
-742.127	-89.481	-0.263	0.079
-741.112	13.012	-0.292	0.232
-740.098	-46.245	0.127	0.064
-739.083	-200.000	0.079	-0.365
-738.069	192.449	-0.098	0.151
-737.054	155.858	0.147	0.208
-736.039	-77.374	-0.206	-0.073
-735.025	-73.917	-0.109	0.041
-734.010	800.000	0.026	-0.093
-732.996	16.244	-0.263	-0.212
-731.981	800.000	0.038	0.143
-730.966	-200.000	-0.061	0.317
-729.952	800.000	-0.121	0.352
-728.937	-98.419	0.306	0.080
-727.923	331.277	0.110	-0.217
-726.908	800.000	-0.098	0.297
-725.894	800.000	-0.064	0.270
-724.879	27.293	-0.173	-0.148
-723.864	-200.000	-0.030	0.149
-722.850	-68.550	0.185	-0.073
-721.835	-200.000	-0.013	-0.206
-720.821	-164.282	-0.152	-0.007
-719.806	-200.000	0.033	-0.250
-718.791	65.842	-0.168	-0.174
-717.777	8.479	-0.374	-0.288
-716.762	373.886	0.077	0.160
-715.748	289.530	0.032	0.059
-714.733	13.079	0.211	0.167
-713.718	-200.000	0.046	-0.570
-712.704	-93.917	-0.187	-0.053
-711.689	-109.208	-0.360	-0.078
-710.675	-60.921	-0.179	0.077
-709.660	-146.306	0.239	0.021
-708.645	800.000	-0.065	0.287
-707.631	-31.447	-0.232	0.133
-706.616	800.000	-0.036	-0.149
-705.602	-182.826	-0.260	0.005
-704.587	10.794	-0.176	-0.137
-703.572	-68.411	-0.263	-0.104
-702.558	28.247	-0.171	-0.147
-701.543	-200.000	0.026	-0.237
-700.529	-75.245	-0.486	-0.177
-699.514	-78.462	-0.371	0.130
-698.499	-188.218	-0.157	0.002
-697.485	7.688	-0.156	-0.120
-696.470	76.852	0.095	0.103
-695.456	-200.000	0.041	0.271
-694.441	-119.086	0.378	-0.068
-693.426	-65.798	-0.072	-0.029
-692.412	432.438	-0.107	0.237
-691.397	800.000	-0.029	0.096
-690.383	189.165	-0.182	0.278
-689.368	-200.000	-0.018	0.166
-688.354	-200.000	0.023	-0.282
-687.339	46.075	0.101	-0.095
-686.324	140.774	0.081	-0.109
-685.310	-200.000	0.023	-0.164
-684.295	49.219	0.277	0.266
-683.281	306.149	0.044	-0.083
-682.266	348.355	-0.121	0.243
-681.251	-1.497	0.208	-0.150
-680.237	-200.000	-0.021	0.163
-679.222	-200.000	0.001	0.118
-678.208	-2.926	0.149	0.106
-677.193	-159.870	-0.381	-0.021
-676.178	800.000	-0.003	0.011
-675.164	-20.467	0.185	0.116
-674.149	96.037	0.212	-0.247
-673.135	27.432	-0.107	-0.091
-672.120	157.180	-0.054	-0.076
-671.105	-67.732	0.092	0.037
-670.091	-200.000	0.040	-0.207
-669.076	-200.000	0.017	-0.084
-668.062	800.000	0.078	-0.266
-667.047	-82.730	-0.037	-0.012
-666.032	54.516	0.123	0.121
-665.018	-85.476	0.261	0.083
-664.003	-53.121	0.104	-0.049
-662.989	-200.000	0.053	-0.317
-661.974	47.820	-0.181	-0.172
-660.959	236.918	-0.084	-0.142
-659.945	186.953	-0.110	-0.167
-658.930	-118.786	-0.141	-0.025
-657.916	-42.544	-0.273	-0.142
-656.901	139.462	-0.161	-0.216
-655.886	800.000	0.036	0.143
-654.872	-200.000	-0.009	-0.161
-653.857	132.956	0.077	0.101
-652.843	514.663	-0.068	0.163
-651.828	63.439	0.121	-0.123
-650.814	-128.993	0.232	0.033
-649.799	-47.430	-0.170	-0.084
-648.784	-55.320	-0.325	0.149
-647.770	-200.000	0.018	-0.129
-646.755	-79.246	0.129	-0.045
-645.741	607.395	-0.078	0.200
-644.726	311.724	-0.029	-0.056
-643.711	23.307	0.141	-0.118
-642.697	-13.238	0.143	-0.095
-641.682	-129.314	0.238	0.034
-640.668	-142.882	0.191	-0.019
-639.653	588.679	0.087	-0.218
-638.638	79.556	0.090	-0.099
-637.624	6.105	-0.169	0.128
-636.609	-39.589	0.127	-0.068
-635.595	-200.000	-0.021	-0.106
-634.580	226.834	-0.206	-0.342
-633.565	57.899	0.066	-0.065
-632.551	-30.495	0.200	0.116
-631.536	197.389	0.203	-0.316
-630.522	-90.922	0.293	-0.086
-629.507	-200.000	-0.021	-0.230
-628.492	-94.389	0.360	0.100
-627.478	14.192	-0.112	-0.089
-626.463	367.624	-0.034	0.070
-625.449	800.000	0.049	0.153
-624.434	-182.518	-0.343	0.006
-623.419	-200.000	0.016	0.124
-622.405	800.000	-0.045	0.130
-621.390	800.000	-0.134	-0.396
-620.376	15.449	0.141	-0.113
-619.361	-60.088	-0.198	0.086
-618.346	-39.091	-0.093	-0.050
-617.332	-70.407	-0.209	0.081
-616.317	58.598	-0.246	-0.246
-615.303	-49.588	0.201	-0.097
-614.288	-200.000	-0.004	-0.147
-613.273	132.218	-0.200	0.263
-612.259	-41.086	-0.026	-0.013
-611.244	-56.942	0.135	-0.061
-610.230	181.771	0.093	0.140
-609.215	224.935	0.111	0.182
-608.201	63.852	0.185	-0.189
-607.186	135.098	0.036	-0.048
-606.171	-7.855	0.048	-0.033
-605.157	-74.474	-0.325	-0.119
-604.142	-5.517	-0.098	-0.068
-603.128	-83.901	0.361	0.117
-602.113	-29.509	0.068	-0.039
-601.098	-200.000	-0.016	-0.103
-600.084	-148.310	-0.442	-0.037
-599.069	-200.000	0.003	-0.332
-598.055	395.218	-0.114	-0.243
-597.040	297.692	-0.128	-0.239
-596.025	75.400	0.066	-0.071
-595.011	-54.474	-0.038	-0.018
-593.996	-74.008	-0.194	0.072
-592.982	257.629	0.070	0.122
-591.967	-116.205	-0.317	0.060
-590.952	-55.143	0.223	-0.102
-589.938	-160.337	0.413	-0.023
-588.923	38.771	-0.130	0.118
-587.909	-110.507	0.171	-0.036
-586.894	225.109	-0.146	-0.241
-585.879	194.754	0.112	0.173
-584.865	-111.521	0.396	0.082
-583.850	475.994	-0.044	-0.101
-582.836	-154.259	-0.301	-0.021
-581.821	224.418	0.154	-0.253
-580.806	-140.586	0.201	0.021
-579.792	352.209	-0.092	-0.186
-578.777	255.761	0.114	-0.200
-577.763	-57.082	-0.176	0.079
-576.748	319.332	-0.190	-0.366
-575.733	-200.000	-0.026	0.597
-574.719	-100.350	0.080	-0.020
-573.704	-200.000	-0.272	-0.001
-572.690	-200.000	-0.023	0.188
-571.675	572.805	-0.089	-0.220
-570.661	1.370	0.138	0.101
-569.646	-113.444	0.128	0.026
-568.631	-200.000	0.010	-0.168
-567.617	14.821	0.116	0.092
-566.602	800.000	-0.111	0.336
-565.588	-188.482	-0.289	-0.004
-564.573	-200.000	-0.033	0.161
-563.558	-153.605	-0.488	-0.034
-562.544	-200.000	-0.004	0.278
-561.529	-109.870	0.302	0.064
-560.515	58.131	-0.251	0.250
-559.500	-200.000	-0.002	-0.038
-558.485	-200.000	-0.040	0.478
-557.471	128.763	0.105	0.136
-556.456	-112.819	0.094	-0.019
-555.442	-200.000	0.015	-0.240
-554.427	-102.688	0.165	-0.040
-553.412	-168.617	0.136	0.005
-552.398	154.402	-0.094	0.132
-551.383	121.389	-0.174	0.220
-550.369	800.000	-0.064	-0.179
-549.354	597.170	-0.070	-0.175
-548.339	18.733	0.032	0.026
-547.325	128.676	0.111	0.143
-546.310	21.397	0.079	0.065
-545.296	800.000	-0.044	0.138
-544.281	41.731	-0.372	-0.343
-543.266	213.321	0.166	-0.267
-542.252	189.753	0.146	0.223
-541.237	187.306	0.025	0.037
-540.223	-200.000	-0.022	-0.143
-539.208	-142.434	0.114	-0.011
-538.193	65.902	-0.080	0.082
-537.179	-200.000	0.020	0.090
-536.164	10.163	0.051	-0.039
-535.150	-13.639	0.220	-0.145
-534.135	-123.977	-0.115	-0.018
-533.121	46.388	0.281	-0.265
-532.106	-56.458	0.391	0.176
-531.091	-33.800	0.217	-0.121
-530.077	392.347	0.039	0.082
-529.062	-104.433	-0.257	-0.060
-528.048	-162.028	-0.175	-0.009
-527.033	109.720	-0.071	-0.087
-526.018	-8.876	-0.163	0.111
-525.004	26.460	-0.232	0.197
-523.989	418.680	0.105	0.228
-522.975	28.292	-0.126	0.108
-521.960	-200.000	-0.025	-0.316
-520.945	170.462	-0.225	-0.328
-519.931	800.000	0.030	-0.126
-518.916	-200.000	0.046	0.293
-517.902	725.446	-0.116	-0.314
-516.887	-114.667	-0.305	0.059
-515.872	56.284	0.195	0.192
-514.858	217.952	-0.131	0.212
-513.843	179.707	0.104	0.155
-512.829	84.463	-0.127	-0.141
-511.814	9.723	0.410	-0.315
-510.799	-109.295	-0.306	0.066
-509.785	-78.882	-0.126	-0.044
-508.770	88.330	-0.174	-0.196
-507.756	47.976	0.179	-0.170
-506.741	502.810	-0.069	0.161
-505.726	-200.000	0.127	-0.000
-504.712	522.741	-0.106	0.252
-503.697	-27.154	0.260	0.154
-502.683	800.000	-0.114	0.495
-501.668	-67.139	0.091	-0.037
-500.653	-62.131	0.157	0.067
-499.639	-167.857	0.191	-0.008
-498.624	468.774	0.071	-0.161
-497.610	91.410	0.200	-0.227
-496.595	-130.653	0.066	-0.009
-495.581	31.562	0.028	-0.024
-494.566	-65.384	-0.145	0.059
-493.551	-24.425	-0.053	-0.032
-492.537	173.959	0.149	0.218
-491.522	-91.432	0.351	0.102
-490.508	-200.000	0.016	-0.120
-489.493	375.582	-0.080	-0.165
-488.478	-200.000	0.002	0.120
-487.464	14.735	-0.020	0.016
-486.449	518.118	0.140	-0.332
-485.435	-27.506	0.150	-0.088
-484.420	200.620	-0.233	-0.363
-483.405	-200.000	-0.004	-0.225
-482.391	-22.702	-0.020	-0.012
-481.376	800.000	0.043	-0.132
-480.362	493.185	0.090	0.210
-479.347	-200.000	0.004	-0.252
-478.332	-171.663	-0.176	-0.006
-477.318	-128.449	-0.027	-0.004
-476.303	-72.648	0.388	0.145
-475.289	29.984	0.221	-0.191
-474.274	-200.000	-0.046	-0.208
-473.259	-200.000	-0.036	-0.291
-472.245	-200.000	-0.011	0.361
-471.230	-117.398	0.337	0.062
-470.216	-35.858	0.207	-0.114
-469.201	800.000	-0.038	0.149
-468.186	-72.688	0.213	-0.080
-467.172	800.000	0.126	0.466
-466.157	-138.705	-0.156	0.017
-465.143	-200.000	-0.018	-0.288
-464.128	38.915	0.212	-0.191
-463.113	-200.000	-0.027	0.236
-462.099	97.126	-0.128	0.148
-461.084	-13.485	0.036	0.023
-460.070	781.325	-0.068	-0.190
-459.055	295.118	-0.083	-0.153
-458.040	-150.894	0.228	-0.017
-457.026	252.570	0.160	0.276
-456.011	63.244	-0.414	0.420
-454.997	317.699	-0.089	0.170
-453.982	-200.000	0.010	-0.263
-452.968	-98.490	-0.174	-0.045
-451.953	800.000	-0.089	0.338
-450.938	130.407	0.087	-0.113
-449.924	-28.505	-0.346	0.202
-448.909	-9.661	-0.099	-0.067
-447.895	-83.919	0.112	-0.036
-446.880	-117.239	-0.109	-0.020
-445.865	598.141	0.057	-0.144
-444.851	-124.109	-0.458	-0.073
-443.836	-200.000	0.006	-0.189
-442.822	-67.215	-0.213	-0.085
-441.807	-200.000	-0.008	0.264
-440.792	1.020	-0.129	0.094
-439.778	576.008	-0.110	-0.271
-438.763	247.907	0.046	0.079
-437.749	-38.569	0.110	0.059
-436.734	-50.497	0.136	-0.065
-435.719	-200.000	0.012	-0.083
-434.705	-200.000	0.014	0.192
-433.690	-82.598	-0.327	0.107
-432.676	-51.581	0.235	-0.111
-431.661	265.211	0.052	-0.091
-430.646	800.000	0.065	-0.225
-429.632	284.309	0.050	0.091
-428.617	-200.000	-0.033	-0.464
-427.603	49.758	-0.119	-0.113
-426.588	53.698	-0.223	0.216
-425.573	-179.520	0.197	0.004
-424.559	-200.000	-0.046	0.234
-423.544	-26.236	-0.161	0.095
-422.530	205.591	-0.136	0.213
-421.515	-46.555	-0.139	0.069
-420.500	800.000	0.126	0.385
-419.486	47.280	0.163	0.153
-418.471	356.392	0.055	0.111
-417.457	746.647	-0.063	0.172
-416.442	34.522	-0.019	0.017
-415.428	-163.031	0.131	0.006
-414.413	8.947	-0.041	0.031
-413.398	-200.000	-0.059	-0.329
-412.384	333.271	0.153	0.299
-411.369	92.906	-0.240	-0.274
-410.355	65.242	-0.096	0.098
-409.340	-61.079	-0.003	0.001
-408.325	-15.196	0.288	0.186
-407.311	-130.164	-0.232	-0.032
-406.296	132.739	0.089	-0.116
-405.282	664.660	0.062	-0.161
-404.267	-45.844	0.311	-0.155
-403.252	81.528	-0.040	0.044
-402.238	29.370	0.107	0.092
-401.223	-108.746	-0.330	0.071
-400.209	355.829	-0.054	-0.108
-399.194	35.501	-0.253	0.224
-398.179	-200.000	-0.017	0.165
-397.165	34.762	-0.293	-0.259
-396.150	-51.524	-0.139	0.066
-395.136	-200.000	-0.033	-0.537
-394.121	-200.000	0.062	0.321
-393.106	149.199	-0.183	0.250
-392.092	297.987	-0.062	0.116
-391.077	-200.000	-0.015	0.129
-390.063	258.167	0.043	-0.074
-389.048	-131.115	0.057	0.008
-388.033	-200.000	0.001	0.255
-387.019	800.000	0.029	0.120
-386.004	-69.398	-0.105	0.041
-384.990	-177.055	-0.166	0.004
-383.975	-82.358	-0.154	-0.050
-382.960	456.018	0.116	0.260
-381.946	-135.165	0.196	-0.024
-380.931	-131.818	-0.170	0.022
-379.917	736.227	-0.172	0.464
-378.902	-35.951	0.095	0.052
-377.888	212.341	0.196	0.311
-376.873	192.114	0.246	0.375
-375.858	43.563	-0.052	0.048
-374.844	32.188	-0.094	0.082
-373.829	-200.000	0.027	0.259
-372.815	105.395	-0.125	0.149
-371.800	800.000	0.039	0.145
-370.785	-46.210	0.271	0.135
-369.771	-86.022	-0.659	0.206
-368.756	150.248	0.284	-0.389
-367.742	-149.633	0.196	-0.016
-366.727	-74.107	0.317	-0.116
-365.712	140.477	-0.116	-0.155
-364.698	-18.415	0.057	0.036
-363.683	71.501	-0.082	0.085
-362.669	5.276	0.409	0.304
-361.654	254.845	-0.056	-0.098
-360.639	-19.312	-0.290	-0.182
-359.625	667.588	0.100	-0.261
-358.610	-70.901	-0.153	0.058
-357.596	-108.577	0.009	-0.002
-356.581	245.188	-0.170	0.288
-355.566	123.265	0.075	0.094
-354.552	504.447	0.114	-0.265
-353.537	-136.954	0.388	-0.045
-352.523	-44.791	-0.106	0.053
-351.508	167.980	-0.097	0.139
-350.493	752.859	0.097	-0.263
-349.479	-12.866	0.365	-0.240
-348.464	-141.632	0.299	0.030
-347.450	800.000	0.092	-0.367
-346.435	29.425	0.168	0.144
-345.420	-37.731	0.399	0.214
-344.406	-52.245	-0.045	-0.021
-343.391	-173.481	-0.379	0.012
-342.377	-140.754	-0.218	-0.023
-341.362	10.669	-0.275	0.211
-340.348	90.584	0.253	-0.286
-339.333	-100.181	-0.317	-0.080
-338.318	435.290	0.026	0.058
-337.304	800.000	-0.033	-0.134
-336.289	-53.655	-0.082	-0.038
-335.275	3.411	0.046	-0.034
-334.260	701.673	0.035	-0.092
-333.245	-61.323	-0.325	-0.138
-332.231	-96.889	0.162	0.043
-331.216	-7.431	-0.212	0.144
-330.202	-62.415	0.361	0.151
-329.187	51.581	0.023	0.022
-328.172	-88.623	0.252	0.076
-327.158	-86.038	-0.077	0.024
-326.143	-22.153	0.332	0.203
-325.129	-94.287	-0.399	-0.110
-324.114	49.099	-0.137	-0.130
-323.099	5.390	-0.031	-0.023
-322.085	-200.000	-0.034	0.334
-321.070	116.711	-0.164	0.202
-320.056	229.182	0.056	0.092
-319.041	13.665	-0.034	-0.026
-318.026	800.000	0.078	-0.291
-317.012	-43.992	0.322	0.163
-315.997	-61.319	-0.159	0.067
-314.983	32.837	-0.148	0.129
-313.968	-200.000	0.006	0.310
-312.953	277.347	-0.192	-0.344
-311.939	800.000	0.032	-0.110
-310.924	280.801	0.066	-0.118
-309.910	24.640	-0.012	-0.010
-308.895	421.046	0.086	0.185
-307.880	143.182	-0.124	-0.165
-306.866	-96.364	0.168	-0.045
-305.851	-70.700	-0.266	-0.101
-304.837	141.236	0.244	-0.325
-303.822	-92.966	-0.175	-0.049
-302.807	-200.000	-0.000	0.216
-301.793	-164.106	-0.385	-0.018
-300.778	800.000	-0.054	-0.152
-299.764	-200.000	-0.021	-0.154
-298.749	58.543	-0.202	0.200
-297.735	315.969	0.093	-0.176
-296.720	30.259	0.298	-0.256
-295.705	-36.454	-0.367	0.199
-294.691	-200.000	-0.053	-0.313
-293.676	289.508	0.079	-0.144
-292.662	190.995	0.123	-0.186
-291.647	209.406	0.046	-0.072
-290.632	-200.000	0.002	0.056
-289.618	-79.536	0.260	0.088
-288.603	-200.000	0.021	-0.120
-287.589	-27.617	-0.207	0.121
-286.574	423.336	-0.153	-0.330
-285.559	-29.739	0.053	-0.031
-284.545	-101.348	-0.368	0.090
-283.530	-48.455	0.186	0.090
-282.516	372.594	0.069	0.142
-281.501	-168.145	-0.250	-0.010
-280.486	-103.844	-0.335	-0.079
-279.472	-76.992	0.304	-0.107
-278.457	1.908	-0.098	-0.071
-277.443	182.257	0.097	-0.144
-276.428	288.956	-0.149	0.271
-275.413	-112.638	0.260	0.052
-274.399	173.779	-0.079	-0.115
-273.384	1.341	0.017	0.012
-272.370	146.855	-0.054	0.073
-271.355	-84.200	0.243	-0.078
-270.340	494.030	-0.073	-0.168
-269.326	-68.838	-0.086	0.033
-268.311	-127.671	-0.105	0.015
-267.297	-8.272	-0.133	0.090
-266.282	-13.855	0.250	0.162
-265.267	-123.225	0.083	0.013
-264.253	-200.000	-0.008	-0.270
-263.238	-200.000	-0.039	-0.194
-262.224	800.000	-0.117	-0.410
-261.209	-107.812	-0.258	0.056
-260.195	800.000	-0.063	0.271
-259.180	-156.146	-0.429	0.027
-258.165	501.302	-0.114	-0.265
-257.151	-200.000	0.046	0.315
-256.136	-108.551	0.027	0.006
-255.122	45.657	-0.225	0.209
-254.107	29.827	-0.170	-0.145
-253.092	-119.894	-0.277	-0.048
-252.078	800.000	0.114	-0.328
-251.063	-200.000	-0.002	0.124
-250.049	-200.000	-0.032	0.181
-249.034	-56.731	0.183	-0.081
-248.019	543.269	-0.040	0.096
-247.005	-41.860	0.105	-0.054
-245.990	800.000	0.125	0.541
-244.976	-76.322	-0.368	0.130
-243.961	290.483	0.161	-0.294
-242.946	-39.927	0.182	-0.096
-241.932	-200.000	0.044	0.346
-240.917	-151.300	-0.359	0.027
-239.903	800.000	-0.045	-0.197
-238.888	-200.000	0.033	-0.170
-237.873	-200.000	0.025	0.134
-236.859	122.050	0.103	-0.129
-235.844	-101.355	-0.361	0.088
-234.830	-22.519	0.082	0.050
-233.815	-54.226	0.258	0.118
-232.800	26.839	0.173	-0.146
-231.786	-163.134	0.253	-0.012
-230.771	-102.056	0.366	0.088
-229.757	-200.000	0.042	-0.185
-228.742	348.459	-0.085	-0.169
-227.727	-103.045	0.192	-0.046
-226.713	26.358	0.145	-0.122
-225.698	47.603	-0.332	0.311
-224.684	170.810	0.113	-0.162
-223.669	67.352	0.135	0.138
-222.655	57.878	-0.289	-0.284
-221.640	-200.000	0.042	0.232
-220.625	366.798	0.066	-0.133
-219.611	-200.000	-0.058	-0.303
-218.596	89.079	-0.137	0.153
-217.582	-26.856	0.103	-0.060
-216.567	675.101	0.034	-0.089
-215.552	32.461	0.106	0.092
-214.538	800.000	0.074	-0.226
-213.523	587.726	-0.193	0.476
-212.509	-4.787	-0.162	-0.112
-211.494	136.660	0.081	0.106
-210.479	678.191	0.025	0.064
-209.465	232.024	0.239	-0.393
-208.450	116.850	0.165	-0.204
-207.436	-178.775	0.196	-0.004
-206.421	-2.915	0.147	0.103
-205.406	170.407	-0.081	0.116
-204.392	107.968	0.097	0.116
-203.377	359.741	-0.142	-0.285
-202.363	120.969	0.083	-0.104
-201.348	-200.000	0.088	-0.395
-200.333	146.782	0.132	0.177
-199.319	-11.745	0.065	0.043
-198.304	370.910	-0.136	0.275
-197.290	427.081	-0.090	-0.194
-196.275	712.425	0.040	0.107
-195.260	86.709	0.257	-0.284
-194.246	-200.000	-0.016	0.129
-193.231	-127.715	-0.048	0.007
-192.217	-66.910	0.190	-0.075
-191.202	-52.848	-0.147	0.068
-190.187	74.736	-0.338	0.357
-189.173	741.815	-0.077	0.208
-188.158	-178.912	0.231	0.005
-187.144	52.799	0.195	0.187
-186.129	-97.958	0.136	0.035
-185.114	-84.303	0.135	-0.043
-184.100	-200.000	0.002	0.135
-183.085	-132.882	-0.146	-0.019
-182.071	281.849	-0.110	0.197
-181.056	-63.553	-0.114	-0.047
-180.042	-200.000	-0.010	0.154
-179.027	-65.301	0.364	0.147
-178.012	-4.953	0.137	-0.095
-176.998	226.781	-0.059	-0.096
-175.983	-200.000	0.055	-0.337
-174.969	-29.417	-0.082	-0.047
-173.954	-200.000	-0.009	0.059
-172.939	-200.000	0.027	-0.160
-171.925	800.000	0.068	-0.279
-170.910	174.015	0.134	-0.193
-169.896	-84.015	0.175	0.056
-168.881	-200.000	-0.021	0.267
-167.866	800.000	-0.018	0.068
-166.852	800.000	-0.079	-0.256
-165.837	47.308	0.028	-0.026
-164.823	-67.847	0.111	-0.043
-163.808	-188.734	-0.064	0.001
-162.793	-129.763	-0.230	-0.032
-161.779	-83.881	0.474	0.151
-160.764	30.912	-0.350	0.300
-159.750	-115.441	0.062	0.012
-158.735	242.570	0.104	0.174
-157.720	-200.000	-0.028	0.190
-156.706	217.312	-0.078	0.124
-155.691	-177.121	0.406	0.010
-154.677	1.262	-0.283	0.203
-153.662	-117.806	-0.118	0.021
-152.647	-12.463	-0.197	0.129
-151.633	-95.103	0.305	0.082
-150.618	-200.000	-0.042	0.229
-149.604	-200.000	0.064	0.300
-148.589	-26.670	0.215	0.126
-147.574	-23.244	-0.234	0.141
-146.560	-200.000	0.006	0.394
-145.545	558.389	0.060	0.146
-144.531	-126.455	-0.273	-0.041
-143.516	-200.000	0.001	0.164
-142.502	800.000	-0.123	0.403
-141.487	157.076	0.200	-0.276
-140.472	-200.000	0.000	0.114
-139.458	-36.731	-0.198	0.107
-138.443	-93.905	0.232	-0.064
-137.429	-190.543	0.312	-0.003
-136.414	54.599	0.207	0.200
-135.399	193.628	0.246	-0.372
-134.385	-5.308	0.253	0.174
-133.370	-200.000	0.053	-0.425
-132.356	-126.980	-0.069	0.010
-131.341	647.521	0.105	0.269
-130.326	800.000	0.049	0.177
-129.312	-48.801	0.065	0.031
-128.297	-51.864	-0.306	0.142
-127.283	-96.526	0.098	-0.026
-126.268	93.684	0.113	0.128
-125.253	62.272	-0.175	0.174
-124.239	800.000	0.052	0.170
-123.224	-7.581	-0.065	0.044
-122.210	88.543	0.077	0.086
-121.195	-64.257	-0.163	0.067
-120.180	-138.690	-0.172	0.019
-119.166	800.000	-0.049	-0.205
-118.151	-5.377	-0.195	0.134
-117.137	2.747	-0.121	0.088
-116.122	-19.764	-0.160	-0.099
-115.107	107.928	0.307	-0.365
-114.093	-160.101	0.253	0.014
-113.078	-43.450	0.098	0.050
-112.064	-11.466	-0.083	0.055
-111.049	-102.326	-0.606	-0.145
-110.034	391.604	-0.048	-0.099
-109.020	105.861	0.265	-0.313
-108.005	192.760	-0.058	-0.088
-106.991	-200.000	0.012	0.056
-105.976	-48.007	-0.169	-0.082
-104.962	-127.692	0.164	0.024
-103.947	35.348	-0.186	0.163
-102.932	-50.746	-0.268	0.126
-101.918	139.695	0.133	-0.175
-100.903	-200.000	-0.004	0.169
-99.889	-149.215	0.237	0.019
-98.874	-200.000	0.017	-0.222
-97.859	168.526	0.112	0.159
-96.845	-200.000	0.029	-0.243
-95.830	269.508	-0.183	0.320
-94.816	424.399	-0.115	0.248
-93.801	-147.235	0.274	0.023
-92.786	448.654	-0.039	-0.087
-91.772	598.079	0.100	0.248
-90.757	116.367	0.084	0.102
-89.743	-68.267	-0.094	-0.037
-88.728	-81.347	0.199	0.065
-87.713	-98.101	-0.121	0.031
-86.699	-88.008	0.361	-0.108
-85.684	-85.178	0.286	-0.089
-84.670	-21.098	0.196	-0.120
-83.655	-132.852	-0.113	-0.014
-82.640	338.547	0.025	0.049
-81.626	-200.000	-0.022	0.250
-80.611	-200.000	-0.010	0.054
-79.597	-200.000	0.018	0.135
-78.582	-96.306	0.118	-0.031
-77.567	800.000	-0.040	-0.162
-76.553	-200.000	0.059	0.380
-75.538	-166.487	0.129	-0.005
-74.524	306.666	-0.063	0.117
-73.509	800.000	-0.106	0.408
-72.494	400.132	0.173	0.362
-71.480	132.295	0.077	-0.099
-70.465	-200.000	0.041	0.260
-69.451	-123.327	-0.352	-0.056
-68.436	-43.898	-0.331	-0.166
-67.422	-50.053	0.067	-0.031
-66.407	-193.264	0.259	0.002
-65.392	-200.000	0.028	-0.202
-64.378	-154.236	-0.189	-0.013
-63.363	132.624	0.045	0.058
-62.349	-63.904	-0.411	-0.167
-61.334	36.598	-0.814	-0.717
-60.319	372.098	0.180	0.364
-59.305	171.526	-0.349	-0.499
-58.290	68.971	0.445	0.455
-57.276	744.369	0.663	1.779
-56.261	-200.000	75.842	550.524
-55.246	569.741	1307.851	3169.703
-54.232	146.929	2525.265	3383.860
-53.217	115.595	2340.189	2850.944
-52.203	52.857	1961.652	1869.212
-51.188	46.367	1755.184	1621.499
-50.173	43.445	1710.149	1557.341
-49.159	58.369	1743.664	1703.878
-48.144	64.565	1761.581	1769.247
-47.130	46.398	1726.258	1594.761
-46.115	43.128	1711.622	1555.995
-45.100	42.836	1708.178	1550.551
-44.086	42.818	1705.514	1547.930
-43.071	42.821	1702.756	1545.389
-42.057	42.857	1700.180	1543.264
-41.042	42.928	1698.011	1541.779
-40.027	42.861	1696.125	1539.491
-39.013	42.811	1694.339	1537.428
-37.998	42.803	1692.695	1535.816
-36.984	42.803	1691.502	1534.670
-35.969	42.932	1690.085	1534.306
-34.954	43.025	1687.742	1532.833
-33.940	43.021	1685.612	1530.802
-32.925	42.954	1684.156	1528.913
-31.911	42.916	1682.990	1527.504
-30.896	42.975	1680.677	1525.791
-29.881	42.895	1678.633	1523.272
-28.867	42.886	1677.443	1522.059
-27.852	42.914	1675.730	1520.661
-26.838	42.887	1674.247	1519.047
-25.823	42.981	1672.349	1517.977
-24.809	43.119	1671.087	1517.806
-23.794	42.905	1669.721	1514.894
-22.779	42.933	1668.012	1513.500
-21.765	43.024	1666.431	1512.688
-20.750	42.899	1665.069	1510.455
-19.736	42.944	1663.339	1509.159
-18.721	42.994	1661.619	1507.913
-17.706	43.042	1660.063	1506.805
-16.692	43.031	1658.650	1505.379
-15.677	43.013	1657.654	1504.278
-14.663	43.051	1656.177	1503.165
-13.648	43.010	1654.983	1501.715
-12.633	43.042	1653.194	1500.270
-11.619	42.957	1651.501	1498.043
-10.604	42.938	1650.122	1496.590
-9.590	42.929	1648.951	1495.402
-8.575	42.917	1647.992	1494.380
-7.560	43.067	1646.225	1493.835
-6.546	42.994	1645.055	1492.170
-5.531	43.054	1643.995	1491.597
-4.517	42.893	1642.865	1489.318
-3.502	43.020	1641.284	1488.765
-2.487	43.144	1640.097	1488.547
-1.473	42.425	1627.656	1471.928
-0.458	38.207	1603.169	1419.165
0.556	29.571	1596.730	1363.169
1.571	25.655	1617.604	1351.516
2.586	24.031	1630.174	1349.597
3.600	21.130	1578.951	1285.731
4.615	14.556	1471.278	1152.670
5.629	8.452	1404.181	1059.639
6.644	7.090	1394.290	1043.115
7.659	6.918	1393.730	1041.466
8.673	6.924	1392.423	1040.437
9.688	6.828	1389.975	1037.888
10.702	6.608	1387.577	1034.565
11.717	9.207	1392.059	1054.897
12.731	14.695	1402.776	1099.142
13.746	17.569	1406.936	1121.248
14.761	16.989	1403.922	1114.937
15.775	15.868	1401.753	1105.758
16.790	14.896	1398.738	1096.906
17.804	13.862	1396.596	1088.352
18.819	13.437	1395.053	1084.275
19.834	13.230	1393.302	1081.463
20.848	12.906	1392.344	1078.501
21.863	12.714	1390.924	1076.052
22.877	12.578	1389.566	1074.017
23.892	12.570	1388.509	1073.055
24.907	12.613	1388.251	1073.039
25.921	12.528	1387.386	1071.723
26.936	12.638	1386.262	1071.479
27.950	12.746	1384.873	1071.013
28.965	12.692	1384.110	1069.975
29.980	12.735	1382.873	1069.206
30.994	12.809	1381.279	1068.354
32.009	12.940	1379.996	1068.119
33.023	12.837	1379.081	1066.651
34.038	12.795	1377.985	1065.438
35.053	12.717	1376.218	1063.471
36.067	12.695	1375.142	1062.405
37.082	12.811	1374.078	1062.232
38.096	12.708	1373.699	1061.182
39.111	12.761	1372.601	1060.584
40.126	12.737	1371.872	1059.775
41.140	12.648	1370.999	1058.433
42.155	12.586	1370.307	1057.405
43.169	12.570	1370.160	1057.093
44.184	12.536	1370.021	1056.676
45.199	12.467	1369.766	1055.941
46.213	12.615	1368.852	1056.096
47.228	12.752	1368.090	1056.294
48.242	12.674	1367.016	1054.870
49.257	12.667	1365.681	1053.699
50.271	12.636	1363.982	1052.098
51.286	12.654	1362.950	1051.327
52.301	12.695	1361.450	1050.338
53.315	12.636	1359.789	1048.584
54.330	12.603	1359.494	1048.055
55.344	12.710	1357.601	1047.186
56.359	12.579	1356.793	1045.636
57.374	12.520	1355.928	1044.502
58.388	12.510	1355.530	1044.036
59.403	12.524	1354.800	1043.470
60.417	12.538	1353.406	1042.398
61.432	12.450	1353.044	1041.467
62.447	12.329	1352.446	1040.148
63.461	12.378	1350.781	1039.088
64.476	12.428	1349.810	1038.560
65.490	12.411	1348.692	1037.505
66.505	12.414	1347.050	1036.171
67.520	12.452	1345.688	1035.269
68.534	12.461	1344.555	1034.360
69.549	12.471	1343.563	1033.569
70.563	12.445	1342.183	1032.250
71.578	12.340	1341.550	1031.016
72.593	12.337	1340.606	1030.180
73.607	12.352	1339.793	1029.558
74.622	12.256	1339.284	1028.473
75.636	12.216	1338.400	1027.453
76.651	12.279	1337.789	1027.287
77.666	12.344	1337.245	1027.184
78.680	12.243	1337.167	1026.402
79.695	12.461	1335.452	1026.356
80.709	12.467	1335.097	1026.033
81.724	12.457	1334.569	1025.472
82.739	12.559	1333.509	1025.202
83.753	12.682	1332.393	1025.020
84.768	12.552	1331.596	1023.509
85.782	12.662	1330.534	1023.282
86.797	12.664	1328.966	1022.002
87.812	12.627	1327.766	1020.755
88.826	12.597	1326.810	1019.749
89.841	12.695	1325.454	1019.219
90.855	12.695	1324.565	1018.448
91.870	12.595	1324.196	1017.457
92.884	12.714	1322.991	1017.175
93.899	12.781	1322.286	1016.953
94.914	12.824	1321.227	1016.319
95.928	12.899	1319.983	1015.731
96.943	12.813	1319.272	1014.568
97.957	12.775	1318.438	1013.603
98.972	12.730	1317.883	1012.810
99.987	12.723	1316.492	1011.605
101.001	12.721	1315.231	1010.535
102.016	12.785	1314.355	1010.166
103.030	12.735	1313.731	1009.291
104.045	12.776	1312.442	1008.461
105.060	12.726	1311.231	1007.134
106.074	12.640	1309.601	1005.268
107.089	12.463	1308.460	1003.223
108.103	12.485	1307.570	1002.587
109.118	12.438	1305.969	1000.983
110.133	12.425	1304.822	999.935
111.147	12.421	1303.361	998.706
112.162	12.435	1301.941	997.616
113.176	12.545	1300.538	997.118
114.191	12.568	1299.746	996.564
115.206	12.587	1298.474	995.612
116.220	12.508	1297.382	994.208
117.235	12.621	1296.051	993.784
118.249	12.576	1295.223	992.789
119.264	12.525	1294.059	991.506
120.279	12.503	1293.179	990.610
121.293	12.582	1291.658	989.829
122.308	12.393	1291.330	988.357
123.322	12.480	1289.992	987.767
124.337	12.472	1288.981	986.859
125.352	12.482	1287.774	985.909
126.366	12.481	1286.589	984.905
127.381	12.456	1285.948	984.179
128.395	12.459	1284.488	982.993
129.410	12.516	1283.775	982.700
130.424	12.542	1282.669	981.919
131.439	12.562	1282.148	981.556
132.454	12.574	1280.827	980.526
133.468	12.576	1280.295	980.047
134.483	12.578	1279.451	979.328
135.497	12.712	1278.489	979.300
136.512	12.685	1277.400	978.216
137.527	12.663	1275.865	976.825
138.541	12.717	1273.965	975.602
139.556	12.704	1273.093	974.775
140.570	12.796	1271.963	974.368
141.585	12.869	1270.719	973.758
142.600	12.787	1269.683	972.395
143.614	12.827	1268.896	971.941
144.629	12.889	1267.530	971.177
145.643	12.806	1266.192	969.573
146.658	12.777	1265.030	968.428
147.673	12.735	1263.727	967.098
148.687	12.734	1262.452	966.030
149.702	12.608	1261.096	964.168
150.716	12.540	1260.024	962.867
151.731	12.638	1258.692	962.336
152.746	12.642	1257.190	961.128
153.760	12.740	1256.271	960.909
154.775	12.714	1254.958	959.669
155.789	12.691	1254.082	958.781
156.804	12.827	1252.679	958.418
157.819	12.864	1251.991	958.019
158.833	12.913	1250.962	957.430
159.848	12.900	1250.427	956.864
160.862	12.891	1249.406	955.944
161.877	12.768	1247.815	953.929
162.892	12.726	1246.862	952.872
163.906	12.615	1246.470	951.846
164.921	12.802	1244.921	951.662
165.935	12.836	1243.923	951.008
166.950	12.857	1243.264	950.545
167.964	12.855	1242.557	949.905
168.979	12.789	1241.963	948.989
169.994	12.871	1241.024	948.661
171.008	12.821	1240.582	947.949
172.023	12.829	1239.752	947.279
173.037	12.927	1238.763	947.001
174.052	13.025	1237.371	946.414
175.067	12.903	1236.392	944.884
176.081	12.712	1235.594	943.095
177.096	12.849	1234.654	943.078
178.110	12.787	1233.751	941.950
179.125	12.796	1232.471	940.941
180.140	12.858	1231.280	940.305
181.154	12.977	1230.222	940.090
182.169	12.908	1228.730	938.474
183.183	13.094	1227.265	938.332
184.198	13.101	1226.233	937.495
185.213	13.047	1225.175	936.298
186.227	13.012	1224.610	935.586
187.242	13.118	1223.311	935.109
188.256	13.156	1222.233	934.421
189.271	13.131	1221.441	933.589
190.286	13.023	1220.235	931.977
191.300	12.819	1219.358	930.070
192.315	12.807	1218.629	929.364
193.329	12.774	1218.208	928.777
194.344	12.919	1217.528	928.992
195.359	12.981	1216.588	928.541
196.373	13.045	1216.351	928.638
197.388	13.091	1215.835	928.423
198.402	13.171	1215.428	928.479
199.417	13.320	1214.547	928.563
200.432	13.348	1213.864	928.112
201.446	13.448	1212.868	927.830
202.461	13.418	1211.753	926.727
203.475	13.418	1210.856	925.959
204.490	13.398	1209.164	924.469
205.504	13.330	1208.216	923.286
206.519	13.237	1206.921	921.696
207.534	13.327	1205.655	921.150
208.548	13.348	1204.612	920.385
209.563	13.275	1204.154	919.551
210.577	13.260	1203.386	918.797
211.592	13.410	1202.348	918.759
212.607	13.423	1201.569	918.151
213.621	13.485	1200.852	917.868
214.636	13.481	1199.772	916.938
215.650	13.408	1199.273	916.070
216.665	13.388	1198.066	914.957
217.680	13.573	1196.946	915.042
218.694	13.617	1196.165	914.606
219.709	13.534	1195.613	913.646
220.723	13.536	1195.080	913.168
221.738	13.560	1194.025	912.419
222.753	13.599	1193.336	912.022
223.767	13.559	1192.632	911.186
224.782	13.677	1191.633	910.991
225.796	13.625	1191.694	910.670
226.811	13.623	1190.659	909.787
227.826	13.722	1189.554	909.403
228.840	13.661	1188.887	908.482
229.855	13.640	1188.500	907.988
230.869	13.688	1187.074	907.083
231.884	13.722	1186.221	906.537
232.899	13.704	1185.970	906.165
233.913	13.586	1184.920	904.637
234.928	13.574	1184.151	903.904
235.942	13.476	1183.806	903.026
236.957	13.571	1182.369	902.367
237.972	13.545	1181.718	901.649
238.986	13.655	1180.991	901.617
240.001	13.679	1180.254	901.101
241.015	13.645	1179.637	900.366
242.030	13.588	1178.762	899.309
243.045	13.599	1178.261	898.910
244.059	13.746	1176.858	898.554
245.074	13.826	1176.296	898.482
246.088	13.810	1175.606	897.787
247.103	13.847	1174.896	897.367
248.117	13.843	1174.248	896.769
249.132	13.964	1173.431	896.719
250.147	14.114	1172.749	896.927
251.161	14.013	1172.239	895.916
252.176	14.148	1170.920	895.551
253.190	14.078	1171.126	895.254
254.205	14.237	1170.359	895.448
255.220	14.189	1169.627	894.548
256.234	14.233	1169.018	894.240
257.249	14.256	1168.225	893.676
258.263	14.207	1167.292	892.619
259.278	14.176	1167.229	892.327
260.293	14.245	1166.541	892.093
261.307	14.263	1165.646	891.424
262.322	14.262	1165.304	891.077
263.336	14.331	1164.373	890.658
264.351	14.308	1163.879	890.076
265.366	14.402	1163.242	890.016
266.380	14.326	1162.584	889.025
267.395	14.359	1161.768	888.498
268.409	14.366	1160.847	887.755
269.424	14.357	1160.348	887.248
270.439	14.308	1159.600	886.338
271.453	14.328	1159.093	885.975
272.468	14.380	1157.828	885.205
273.482	14.321	1156.955	884.146
274.497	14.390	1156.522	884.103
275.512	14.329	1155.698	883.070
276.526	14.332	1154.732	882.274
277.541	14.414	1154.132	882.168
278.555	14.401	1153.791	881.762
279.570	14.480	1152.736	881.293
280.585	14.506	1152.178	880.928
281.599	14.522	1151.169	880.162
282.614	14.435	1150.375	879.021
283.628	14.439	1148.953	877.876
284.643	14.394	1148.073	876.888
285.657	14.600	1147.231	877.254
286.672	14.497	1146.455	876.038
287.687	14.530	1145.462	875.379
288.701	14.618	1144.790	875.246
289.716	14.538	1144.013	874.155
290.730	14.639	1143.073	873.891
291.745	14.679	1142.161	873.324
292.760	14.616	1141.919	872.735
293.774	14.567	1141.252	871.890
294.789	14.572	1141.204	871.804
295.803	14.691	1140.049	871.462
296.818	14.670	1139.041	870.505
297.833	14.663	1138.279	869.812
298.847	14.697	1137.818	869.558
299.862	14.629	1136.911	868.432
300.876	14.795	1135.990	868.518
301.891	14.727	1136.067	868.148
302.906	14.715	1135.055	867.235
303.920	14.750	1134.448	866.872
304.935	14.883	1133.648	866.877
305.949	14.890	1132.756	866.154
306.964	14.962	1132.346	866.136
307.979	14.927	1131.416	865.167
308.993	14.945	1130.504	864.484
310.008	14.945	1130.170	864.154
311.022	14.941	1129.224	863.334
312.037	14.931	1128.153	862.387
313.052	14.966	1126.997	861.607
314.066	14.857	1126.139	860.315
315.081	14.884	1125.461	859.861
316.095	14.876	1124.730	859.181
317.110	14.754	1124.505	858.311
318.125	14.828	1123.579	857.906
319.139	14.909	1122.448	857.380
320.154	14.825	1122.055	856.575
321.168	14.808	1121.386	855.900
322.183	14.889	1120.828	855.814
323.197	14.930	1119.866	855.213
324.212	14.929	1119.592	854.925
325.227	14.940	1119.116	854.539
326.241	14.984	1118.280	854.051
327.256	14.930	1117.561	853.152
328.270	14.958	1116.644	852.519
329.285	15.067	1115.313	851.982
330.300	15.009	1114.626	851.087
331.314	14.994	1114.012	850.465
332.329	15.047	1112.879	849.795
333.343	15.087	1111.851	849.140
334.358	15.064	1111.057	848.341
335.373	15.196	1110.252	848.318
336.387	15.157	1109.634	847.573
337.402	15.081	1109.114	846.716
338.416	15.183	1108.457	846.658
339.431	15.215	1107.532	846.034
340.446	15.344	1106.731	846.002
341.460	15.397	1106.323	845.879
342.475	15.363	1105.455	844.970
343.489	15.421	1104.690	844.602
344.504	15.444	1103.519	843.748
345.519	15.374	1102.789	842.762
346.533	15.451	1102.060	842.517
347.548	15.502	1101.723	842.441
348.562	15.510	1100.365	841.372
349.577	15.494	1099.616	840.641
350.592	15.441	1098.699	839.604
351.606	15.407	1098.046	838.861
352.621	15.447	1097.142	838.293
353.635	15.391	1096.811	837.689
354.650	15.403	1095.423	836.613
355.665	15.517	1094.923	836.726
356.679	15.392	1095.182	836.227
357.694	15.479	1094.231	835.860
358.708	15.522	1093.710	835.602
359.723	15.563	1092.844	835.069
360.738	15.462	1092.168	833.975
361.752	15.540	1091.944	834.119
362.767	15.561	1091.531	833.835
363.781	15.604	1090.288	833.023
364.796	15.578	1089.855	832.491
365.810	15.598	1089.825	832.491
366.825	15.794	1088.675	832.509
367.840	15.755	1088.433	832.059
368.854	15.985	1087.312	832.268
369.869	15.777	1087.026	830.944
370.883	15.771	1086.311	830.295
371.898	15.732	1085.410	829.340
372.913	15.706	1084.480	828.429
373.927	15.821	1083.941	828.513
374.942	15.867	1083.863	828.606
375.956	15.780	1083.263	827.646
376.971	15.931	1082.590	827.800
377.986	15.952	1082.195	827.528
379.000	15.920	1081.431	826.710
380.015	15.959	1080.778	826.329
381.029	16.081	1079.909	826.190
382.044	16.015	1079.136	825.204
383.059	16.062	1078.632	824.978
384.073	16.089	1077.993	824.545
385.088	16.000	1077.104	823.360
386.102	16.076	1076.108	822.896
387.117	16.071	1075.253	822.145
388.132	15.876	1074.518	820.560
389.146	15.891	1073.794	820.009
390.161	16.015	1072.835	819.805
391.175	15.956	1071.897	818.728
392.190	16.041	1071.487	818.758
393.205	16.190	1070.759	818.852
394.219	16.154	1069.994	818.018
395.234	16.085	1068.962	816.821
396.248	15.977	1067.781	815.326
397.263	15.976	1067.124	814.746
398.278	16.027	1066.497	814.444
399.292	16.036	1065.316	813.514
400.307	15.971	1064.914	812.822
401.321	16.083	1064.026	812.612
402.336	15.973	1063.596	811.681
403.350	16.056	1062.290	811.011
404.365	16.007	1062.025	810.501
405.380	16.267	1061.073	810.950
406.394	16.153	1060.266	809.717
407.409	16.176	1059.730	809.343
408.423	16.300	1059.266	809.514
409.438	16.338	1058.557	809.081
410.453	16.275	1057.887	808.196
411.467	16.429	1057.202	808.341
412.482	16.334	1056.833	807.533
413.496	16.420	1055.836	807.108
414.511	16.494	1055.028	806.773
415.526	16.462	1054.987	806.516
416.540	16.547	1054.233	806.274
417.555	16.596	1053.616	805.965
418.569	16.602	1053.367	805.733
419.584	16.523	1052.805	804.853
420.599	16.552	1052.020	804.321
421.613	79.577	1286.634	1335.794
422.628	73.166	1320.819	1335.916
