DTS Sentinel unit serial number:	SN413079Multiplexer serial number:	ORYXHardware model number:	OX4-SRSoftware version number:	ORYX F/W v4.00 Oryx Data Collector v3.7.2.0data status	okinstallation	princeton_trtdifferential loss correction	single-endedforward channel	channel 2reverse channel	N/Adate	2019/09/17time	22:03:34forward acquisition time	60.00reverse acquisition time	0.00gamma	496.2192k internal	0.2343k external	0.2343temperature offset calibration	0.9982default loss term (dB/km)	0.3790temperature slope calibration	1.0000multiplexer offset coefficient	1.0000multiplexer slope coefficient	1.0000fibre end	0.00T internal ref (°C)	26.00T ext. ref 1 (°C)	0.18T ext. ref 2 (°C)	18.78length (m)	temperature (°C)	Stokes	anti-Stokes-747.200	106.640	-0.081	-0.096
-746.185	-95.573	-0.213	-0.057
-745.171	-76.783	-0.224	0.079
-744.156	-115.280	-0.308	-0.058
-743.142	326.789	-0.125	0.240
-742.127	731.742	0.079	0.211
-741.112	166.340	-0.091	0.130
-740.098	94.609	-0.072	0.082
-739.083	-200.000	-0.032	-0.198
-738.069	699.510	0.041	0.108
-737.054	133.398	-0.065	0.084
-736.039	-100.989	-0.519	0.127
-735.025	-1.129	-0.224	-0.158
-734.010	-56.958	-0.117	-0.052
-732.996	667.189	0.119	-0.309
-731.981	-139.588	-0.206	-0.022
-730.966	570.502	-0.054	-0.131
-729.952	5.207	-0.064	-0.047
-728.937	455.679	0.110	0.243
-727.923	-75.921	0.163	-0.058
-726.908	-60.377	0.208	-0.089
-725.894	800.000	-0.047	-0.171
-724.879	-200.000	0.039	0.350
-723.864	-115.724	0.316	-0.059
-722.850	374.053	0.098	-0.200
-721.835	-8.995	0.109	0.073
-720.821	281.405	0.074	-0.132
-719.806	-116.322	-0.484	-0.090
-718.791	-200.000	0.001	-0.009
-717.777	70.819	0.264	0.274
-716.762	95.089	-0.387	-0.440
-715.748	578.662	-0.061	-0.150
-714.733	-121.372	0.213	0.036
-713.718	372.765	-0.075	-0.152
-712.704	-193.383	-0.215	0.002
-711.689	-200.000	-0.026	-0.174
-710.675	-200.000	-0.055	0.295
-709.660	241.946	0.172	0.287
-708.645	-85.312	-0.296	0.092
-707.631	-200.000	-0.040	0.286
-706.616	800.000	0.057	-0.243
-705.602	83.195	-0.119	0.130
-704.587	-200.000	-0.004	0.171
-703.572	52.011	-0.333	-0.317
-702.558	31.610	-0.305	-0.262
-701.543	800.000	0.036	0.143
-700.529	-200.000	-0.002	0.343
-699.514	-200.000	-0.015	0.370
-698.499	501.168	-0.111	-0.256
-697.485	182.539	-0.194	0.285
-696.470	10.604	0.218	0.166
-695.456	-68.265	0.188	-0.073
-694.441	800.000	0.118	-0.368
-693.426	-200.000	0.006	0.198
-692.412	39.591	0.267	-0.239
-691.397	-46.908	-0.202	-0.099
-690.383	-98.662	0.184	-0.047
-689.368	35.486	-0.185	-0.162
-688.354	-58.633	-0.223	-0.097
-687.339	-154.619	0.286	-0.019
-686.324	-2.972	0.235	-0.164
-685.310	-181.787	0.429	-0.008
-684.295	-108.788	-0.190	0.041
-683.281	-200.000	-0.021	0.153
-682.266	295.016	0.135	-0.247
-681.251	-200.000	0.015	0.067
-680.237	200.868	-0.062	0.096
-679.222	-45.281	0.102	-0.051
-678.208	-107.627	-0.212	-0.046
-677.193	129.421	-0.310	-0.396
-676.178	-100.152	0.153	-0.038
-675.164	-98.178	0.129	-0.033
-674.149	-147.721	-0.178	0.015
-673.135	-200.000	0.011	0.160
-672.120	-49.984	-0.060	0.028
-671.105	-87.933	-0.045	0.013
-670.091	-34.344	-0.150	0.082
-669.076	-49.624	0.148	-0.071
-668.062	-111.286	0.325	0.066
-667.047	-51.772	-0.120	-0.056
-666.032	-3.039	0.485	0.338
-665.018	334.666	-0.099	0.192
-664.003	38.169	-0.236	-0.209
-662.989	-33.744	-0.314	-0.173
-661.974	-118.676	-0.074	0.013
-660.959	-200.000	0.040	-0.418
-659.945	193.423	-0.028	0.042
-658.930	-109.696	-0.024	-0.005
-657.916	91.969	0.005	-0.005
-656.901	-96.731	0.432	-0.113
-655.886	78.035	-0.087	-0.093
-654.872	-200.000	0.060	0.270
-653.857	134.847	-0.211	0.274
-652.843	-46.868	0.182	0.089
-651.828	-42.725	-0.135	0.069
-650.814	-200.000	-0.014	0.133
-649.799	-155.721	0.117	-0.007
-648.784	14.644	-0.376	-0.293
-647.770	82.210	0.159	0.173
-646.755	304.221	0.135	0.250
-645.741	-89.135	-0.186	-0.055
-644.726	261.134	-0.102	-0.177
-643.711	41.645	-0.140	-0.127
-642.697	71.605	-0.254	-0.263
-641.682	-6.161	-0.337	-0.230
-640.668	14.321	0.378	-0.294
-639.653	-88.402	-0.149	0.044
-638.638	568.253	0.055	0.133
-637.624	-200.000	0.012	0.133
-636.609	-62.403	-0.047	0.020
-635.595	-108.735	-0.297	0.063
-634.580	-28.064	-0.192	0.111
-633.565	-114.172	0.071	0.014
-632.551	-164.718	-0.295	0.013
-631.536	6.688	-0.338	0.250
-630.522	443.100	0.024	0.051
-629.507	800.000	0.073	0.253
-628.492	-47.406	-0.273	-0.132
-627.478	-200.000	0.001	-0.114
-626.463	54.077	-0.212	-0.203
-625.449	800.000	0.139	0.411
-624.434	555.252	0.073	-0.175
-623.419	-35.955	-0.168	0.091
-622.405	-200.000	0.003	-0.029
-621.390	-200.000	0.009	0.186
-620.376	-200.000	0.013	-0.184
-619.361	-84.733	-0.119	0.037
-618.346	-200.000	-0.023	-0.118
-617.332	691.088	-0.105	-0.275
-616.317	-97.396	0.148	-0.038
-615.303	-12.433	-0.248	0.161
-614.288	566.866	0.153	0.369
-613.273	479.431	0.132	-0.298
-612.259	117.579	0.100	-0.123
-611.244	800.000	-0.079	-0.309
-610.230	-200.000	-0.039	-0.179
-609.215	245.475	0.126	-0.212
-608.201	-161.621	-0.237	-0.012
-607.186	-200.000	-0.033	0.244
-606.171	-65.655	-0.061	-0.025
-605.157	-200.000	-0.031	-0.264
-604.142	800.000	0.052	0.220
-603.128	264.530	-0.206	-0.357
-602.113	107.258	0.178	0.211
-601.098	-72.665	-0.266	0.098
-600.084	-200.000	-0.014	0.163
-599.069	-200.000	0.013	0.067
-598.055	223.865	-0.070	0.113
-597.040	-76.802	0.239	0.083
-596.025	754.585	0.031	-0.083
-595.011	201.062	-0.103	0.158
-593.996	-2.338	0.275	-0.192
-592.982	-200.000	-0.012	-0.057
-591.967	-106.297	-0.233	-0.052
-590.952	196.364	-0.045	0.068
-589.938	-124.230	-0.044	-0.007
-588.923	-116.781	0.233	-0.042
-587.909	-60.870	-0.319	-0.134
-586.894	210.661	-0.023	0.036
-585.879	-200.000	0.086	0.440
-584.865	-67.494	0.264	-0.103
-583.850	-145.042	0.367	-0.033
-582.836	-147.385	0.049	0.004
-581.821	55.273	0.249	-0.239
-580.806	19.219	-0.121	-0.097
-579.792	-200.000	0.019	-0.251
-578.777	-200.000	-0.018	0.324
-577.763	330.744	0.217	0.416
-576.748	-124.797	0.206	0.032
-575.733	-136.713	0.134	-0.015
-574.719	-200.000	0.003	-0.054
-573.704	547.262	0.045	-0.108
-572.690	-187.349	-0.206	0.003
-571.675	-61.386	0.068	-0.028
-570.661	142.792	0.182	-0.240
-569.646	45.744	-0.241	-0.222
-568.631	19.908	0.098	0.078
-567.617	659.121	-0.100	-0.256
-566.602	-200.000	0.040	-0.183
-565.588	4.414	0.140	-0.102
-564.573	87.018	0.030	-0.033
-563.558	365.701	-0.100	-0.200
-562.544	-200.000	0.024	0.131
-561.529	-200.000	-0.036	0.538
-560.515	-172.842	-0.366	-0.011
-559.500	320.803	-0.080	-0.150
-558.485	-200.000	-0.055	0.255
-557.471	51.751	0.121	0.114
-556.456	-200.000	-0.001	-0.068
-555.442	124.445	0.096	-0.121
-554.427	41.431	-0.112	-0.101
-553.412	118.718	-0.027	0.033
-552.398	-86.199	-0.353	-0.108
-551.383	-163.513	-0.134	-0.006
-550.369	94.299	0.151	0.171
-549.354	-188.847	-0.215	0.003
-548.339	186.732	-0.161	-0.238
-547.325	620.325	0.120	0.300
-546.310	479.356	0.083	-0.186
-545.296	28.412	-0.093	0.078
-544.281	-200.000	0.010	0.156
-543.266	-153.589	0.193	0.013
-542.252	79.837	-0.200	0.214
-541.237	800.000	-0.030	-0.105
-540.223	-21.856	0.067	0.040
-539.208	513.910	0.122	0.283
-538.193	227.043	0.122	-0.196
-537.179	-95.021	0.297	-0.080
-536.164	-108.393	-0.177	-0.038
-535.150	8.972	0.187	-0.140
-534.135	-129.348	0.226	0.031
-533.121	441.964	-0.101	0.219
-532.106	666.184	0.010	0.025
-531.091	-35.566	0.054	0.029
-530.077	800.000	-0.039	-0.149
-529.062	138.029	0.275	0.358
-528.048	-18.744	-0.207	0.128
-527.033	-61.178	-0.107	-0.045
-526.018	-200.000	-0.012	0.075
-525.004	-87.859	0.194	0.058
-523.989	-200.000	-0.011	-0.318
-522.975	-200.000	0.056	-0.268
-521.960	800.000	0.152	-0.480
-520.945	235.491	-0.023	0.038
-519.931	-51.518	-0.247	0.114
-518.916	-13.575	-0.126	-0.081
-517.902	-200.000	-0.041	0.271
-516.887	-41.092	-0.116	0.059
-515.872	800.000	0.093	0.255
-514.858	-59.680	0.144	0.061
-513.843	-113.747	0.109	0.021
-512.829	-200.000	0.053	0.412
-511.814	11.706	0.143	-0.109
-510.799	22.377	-0.303	-0.246
-509.785	444.524	0.114	0.248
-508.770	-48.535	-0.116	-0.055
-507.756	-19.192	0.319	0.197
-506.741	-5.803	-0.505	0.343
-505.726	-200.000	0.041	-0.219
-504.712	-0.591	0.097	-0.068
-503.697	19.706	0.250	0.199
-502.683	-200.000	0.034	0.211
-501.668	6.406	0.078	-0.057
-500.653	800.000	0.054	-0.152
-499.639	95.878	0.163	0.185
-498.624	-80.116	0.115	-0.038
-497.610	800.000	0.024	0.086
-496.595	-87.085	-0.201	-0.061
-495.581	-200.000	0.067	-0.353
-494.566	235.971	0.213	-0.349
-493.551	-200.000	0.014	0.238
-492.537	800.000	0.079	0.317
-491.522	800.000	-0.045	0.134
-490.508	25.526	-0.307	0.254
-489.493	-68.427	-0.120	-0.046
-488.478	4.415	-0.324	-0.236
-487.464	-130.043	-0.202	-0.027
-486.449	-135.080	-0.466	-0.056
-485.435	800.000	-0.076	-0.219
-484.420	-136.796	0.120	0.014
-483.405	67.190	0.195	0.197
-482.391	-66.684	0.291	0.114
-481.376	-120.856	-0.340	-0.057
-480.362	65.545	0.081	-0.081
-479.347	800.000	0.011	-0.032
-478.332	-28.320	-0.303	0.173
-477.318	-66.482	0.022	0.009
-476.303	-200.000	0.043	-0.468
-475.289	-154.649	-0.125	0.008
-474.274	-158.199	0.385	-0.022
-473.259	-133.193	-0.234	-0.029
-472.245	800.000	-0.036	0.119
-471.230	184.919	0.131	-0.192
-470.216	-22.445	-0.325	-0.195
-469.201	-27.410	-0.251	-0.145
-468.186	-98.108	-0.049	-0.013
-467.172	-200.000	0.025	-0.169
-466.157	-124.259	0.246	0.038
-465.143	-200.000	-0.058	0.298
-464.128	-97.273	0.189	0.049
-463.113	54.570	-0.096	-0.091
-462.099	-200.000	0.016	-0.661
-461.084	248.370	0.099	0.165
-460.070	800.000	0.099	-0.348
-459.055	-128.758	-0.358	-0.050
-458.040	-85.072	0.111	-0.034
-457.026	-111.690	0.336	0.067
-456.011	178.376	-0.122	-0.177
-454.997	-130.381	0.182	-0.024
-453.982	-112.710	0.171	-0.034
-452.968	159.573	0.073	0.100
-451.953	-27.938	0.162	-0.093
-450.938	409.198	-0.059	0.125
-449.924	-200.000	-0.023	0.307
-448.909	-126.913	0.280	-0.041
-447.895	-200.000	0.022	-0.166
-446.880	-118.375	-0.213	0.037
-445.865	17.137	-0.315	0.247
-444.851	-134.930	0.323	-0.039
-443.836	290.957	0.038	0.069
-442.822	-200.000	0.026	-0.167
-441.807	1.548	0.138	0.098
-440.792	-27.318	-0.319	0.184
-439.778	496.089	-0.032	0.072
-438.763	155.056	0.162	-0.220
-437.749	60.938	0.131	0.129
-436.734	-50.377	-0.187	0.087
-435.719	184.564	-0.047	-0.069
-434.705	-79.056	-0.274	0.092
-433.690	186.922	0.118	0.173
-432.676	-55.933	-0.321	-0.142
-431.661	-200.000	-0.052	-0.264
-430.646	-200.000	0.010	-0.081
-429.632	47.676	-0.173	-0.160
-428.617	800.000	-0.041	-0.125
-427.603	-162.486	0.432	-0.021
-426.588	398.983	0.103	0.214
-425.573	71.058	0.318	-0.326
-424.559	137.326	0.288	0.373
-423.544	199.641	-0.198	0.301
-422.530	-66.482	-0.094	-0.037
-421.515	-163.453	0.374	0.018
-420.500	-101.031	-0.267	-0.065
-419.486	78.004	-0.095	0.101
-418.471	-92.394	-0.073	0.020
-417.457	453.937	-0.177	0.388
-416.442	-93.555	-0.400	0.109
-415.428	-58.212	0.304	0.131
-414.413	800.000	0.084	0.319
-413.398	-200.000	-0.006	0.132
-412.384	-200.000	-0.025	-0.132
-411.369	312.674	-0.119	-0.222
-410.355	100.275	0.188	0.216
-409.340	427.172	0.118	-0.252
-408.325	324.588	0.112	-0.212
-407.311	800.000	-0.058	0.218
-406.296	360.629	0.103	0.204
-405.282	65.461	-0.066	0.066
-404.267	26.672	-0.068	-0.056
-403.252	59.782	0.025	0.024
-402.238	0.893	0.221	-0.157
-401.223	180.711	-0.108	-0.156
-400.209	55.973	0.144	-0.138
-399.194	-200.000	-0.010	0.161
-398.179	293.326	0.056	-0.101
-397.165	-134.140	-0.340	0.041
-396.150	412.370	-0.007	0.014
-395.136	37.177	0.098	-0.086
-394.121	424.915	0.054	-0.116
-393.106	508.315	0.051	-0.116
-392.092	112.795	0.145	-0.173
-391.077	44.308	-0.130	0.118
-390.063	-200.000	0.026	-0.156
-389.048	-47.084	-0.178	-0.086
-388.033	-94.249	0.101	-0.027
-387.019	-200.000	0.039	-0.335
-386.004	-200.000	-0.053	-0.532
-384.990	-100.858	0.159	-0.039
-383.975	-10.202	0.125	0.082
-382.960	187.478	0.099	-0.146
-381.946	109.056	-0.099	-0.117
-380.931	-47.691	0.329	0.158
-379.917	-51.731	0.443	-0.204
-378.902	-92.591	0.119	0.033
-377.888	115.067	-0.090	-0.109
-376.873	-40.220	-0.340	0.175
-375.858	-101.431	0.214	0.051
-374.844	-45.129	0.439	0.216
-373.829	-200.000	-0.002	-0.404
-372.815	-200.000	-0.061	-0.318
-371.800	-200.000	0.016	0.125
-370.785	800.000	0.095	0.339
-369.771	-67.800	0.094	0.036
-368.756	800.000	0.053	0.196
-367.742	-200.000	0.001	-0.218
-366.727	-75.287	0.323	-0.114
-365.712	77.353	0.066	0.069
-364.698	-118.855	0.133	-0.023
-363.683	-200.000	0.013	0.297
-362.669	697.405	-0.134	0.348
-361.654	-19.827	0.297	0.181
-360.639	-0.397	0.164	-0.115
-359.625	-52.484	0.102	0.047
-358.610	-32.297	-0.464	-0.255
-357.596	800.000	0.082	-0.292
-356.581	51.252	0.142	0.133
-355.566	-7.921	-0.220	0.147
-354.552	78.876	-0.104	-0.110
-353.537	-94.990	0.082	0.022
-352.523	-103.592	0.174	0.040
-351.508	800.000	-0.017	-0.048
-350.493	339.349	0.062	-0.119
-349.479	-200.000	-0.030	-0.289
-348.464	-31.372	-0.222	-0.123
-347.450	202.320	0.078	0.119
-346.435	800.000	-0.080	-0.268
-345.420	-80.978	-0.313	-0.102
-344.406	-133.068	0.152	-0.019
-343.391	39.160	-0.044	-0.039
-342.377	-38.574	-0.190	-0.099
-341.362	-5.759	-0.229	0.154
-340.348	-156.124	0.211	0.013
-339.333	-104.756	-0.228	-0.052
-338.318	-87.721	0.125	-0.037
-337.304	416.631	-0.095	0.201
-336.289	-82.176	0.230	0.074
-335.275	-64.767	-0.217	-0.087
-334.260	-23.080	0.422	-0.251
-333.245	74.790	-0.239	0.248
-332.231	658.705	-0.122	-0.309
-331.216	637.013	-0.052	-0.131
-330.202	-76.043	0.400	0.139
-329.187	-181.915	-0.256	-0.005
-328.172	101.055	0.146	0.167
-327.158	-200.000	-0.018	0.169
-326.143	406.799	-0.067	-0.140
-325.129	-66.654	-0.192	0.075
-324.114	28.404	-0.365	-0.304
-323.099	83.826	-0.251	-0.270
-322.085	-200.000	-0.013	0.215
-321.070	399.937	0.044	-0.091
-320.056	6.639	0.284	0.208
-319.041	-200.000	0.067	0.343
-318.026	65.896	-0.101	0.101
-317.012	800.000	0.097	-0.372
-315.997	-188.887	-0.217	-0.003
-314.983	-200.000	-0.041	0.346
-313.968	-128.561	0.094	0.013
-312.953	-200.000	-0.028	0.128
-311.939	18.046	0.257	-0.201
-310.924	199.786	0.077	-0.116
-309.910	-200.000	0.005	-0.069
-308.895	376.068	0.061	0.123
-307.880	800.000	-0.063	0.258
-306.866	-42.232	0.374	-0.188
-305.851	-3.540	-0.374	0.256
-304.837	-143.183	-0.240	-0.023
-303.822	800.000	-0.043	-0.161
-302.807	-200.000	0.042	0.206
-301.793	138.434	-0.158	0.204
-300.778	-117.238	-0.503	0.090
-299.764	-96.449	-0.035	-0.009
-298.749	-126.540	-0.050	0.007
-297.735	143.052	-0.089	0.117
-296.720	-26.067	0.228	-0.132
-295.705	728.690	-0.154	0.405
-294.691	528.597	0.046	0.107
-293.676	20.560	-0.104	0.083
-292.662	-7.582	0.128	0.085
-291.647	86.743	-0.074	-0.081
-290.632	166.842	0.250	-0.349
-289.618	82.390	-0.224	0.239
-288.603	238.296	-0.086	-0.141
-287.589	-200.000	0.041	0.311
-286.574	20.150	0.073	-0.058
-285.559	800.000	0.056	-0.191
-284.545	40.710	-0.124	0.110
-283.530	295.350	-0.045	-0.081
-282.516	800.000	-0.046	-0.144
-281.501	52.416	-0.123	-0.115
-280.486	-79.807	0.180	0.060
-279.472	-18.020	0.260	-0.160
-278.457	-46.572	-0.291	-0.140
-277.443	553.191	0.156	-0.370
-276.428	800.000	-0.024	0.073
-275.413	-174.531	-0.129	0.004
-274.399	461.539	0.034	0.074
-273.384	-142.630	-0.360	0.035
-272.370	-109.793	-0.197	0.041
-271.355	153.903	-0.140	0.189
-270.340	-200.000	-0.009	-0.231
-269.326	135.123	-0.050	0.064
-268.311	50.360	0.063	-0.058
-267.297	296.357	-0.182	-0.327
-266.282	800.000	-0.042	0.122
-265.267	100.165	-0.114	0.129
-264.253	-32.472	0.125	0.068
-263.238	-4.630	-0.262	-0.178
-262.224	-200.000	0.026	-0.365
-261.209	507.463	-0.037	-0.084
-260.195	-133.624	-0.074	-0.009
-259.180	-200.000	0.007	-0.324
-258.165	-200.000	-0.015	0.228
-257.151	-15.623	-0.077	-0.049
-256.136	194.659	0.204	0.304
-255.122	93.462	0.145	-0.162
-254.107	5.504	0.206	-0.150
-253.092	648.624	-0.122	0.306
-252.078	-49.823	0.169	0.079
-251.063	-141.706	0.492	-0.049
-250.049	-14.551	-0.406	0.257
-249.034	2.325	-0.244	-0.174
-248.019	-46.251	0.124	0.060
-247.005	-0.119	-0.111	0.077
-245.990	517.425	0.047	-0.108
-244.976	-200.000	0.020	0.094
-243.961	-200.000	0.008	0.209
-242.946	-30.740	-0.242	0.135
-241.932	-9.000	0.059	-0.038
-240.917	-200.000	0.042	-0.259
-239.903	5.490	-0.254	0.184
-238.888	263.358	-0.082	0.140
-237.873	-66.460	-0.163	-0.064
-236.859	67.577	0.106	0.106
-235.844	-135.853	0.432	0.050
-234.830	800.000	0.088	-0.328
-233.815	-49.027	0.268	-0.126
-232.800	-167.387	0.201	0.008
-231.786	-200.000	0.051	0.256
-230.771	-200.000	0.001	-0.040
-229.757	-125.574	0.099	0.015
-228.742	337.364	0.162	0.309
-227.727	-22.407	0.108	-0.064
-226.713	-80.411	0.113	0.037
-225.698	153.727	-0.118	-0.158
-224.684	37.061	-0.150	0.130
-223.669	372.414	0.105	-0.209
-222.655	61.271	-0.308	-0.300
-221.640	-61.241	0.304	0.126
-220.625	-38.467	-0.147	0.076
-219.611	239.502	-0.199	0.326
-218.596	-200.000	-0.048	-0.000
-217.582	-170.103	-0.023	-0.001
-216.567	10.451	-0.201	0.150
-215.552	-65.655	-0.027	-0.011
-214.538	-186.182	-0.327	-0.005
-213.523	-160.774	0.259	0.013
-212.509	30.009	0.273	0.228
-211.494	242.950	0.188	0.309
-210.479	129.964	0.197	-0.247
-209.465	-149.540	0.423	-0.033
-208.450	407.650	-0.115	-0.238
-207.436	-200.000	0.016	0.086
-206.421	-95.593	-0.169	0.044
-205.406	-106.273	0.061	-0.013
-204.392	-84.611	-0.177	-0.055
-203.377	800.000	-0.075	-0.204
-202.363	-118.669	-0.346	0.060
-201.348	-132.983	0.213	-0.027
-200.333	2.029	0.210	-0.148
-199.319	99.185	-0.231	-0.261
-198.304	-22.187	0.275	-0.164
-197.290	-47.456	-0.162	0.077
-196.275	-96.675	-0.190	-0.049
-195.260	-72.536	0.098	-0.035
-194.246	178.790	-0.240	0.343
-193.231	315.021	0.098	-0.180
-192.217	-76.306	-0.175	0.060
-191.202	95.144	-0.121	-0.135
-190.187	53.808	0.402	0.379
-189.173	-107.105	-0.283	-0.061
-188.158	20.510	0.254	0.202
-187.144	-116.688	-0.094	0.017
-186.129	17.741	0.423	0.330
-185.114	10.012	0.045	-0.033
-184.100	-200.000	-0.032	-0.327
-183.085	-200.000	0.010	0.185
-182.071	19.794	0.245	0.193
-181.056	-48.088	-0.087	0.041
-180.042	-200.000	0.025	0.144
-179.027	169.649	-0.108	-0.152
-178.012	403.315	0.037	0.077
-176.998	-110.892	0.216	0.044
-175.983	-200.000	0.009	0.123
-174.969	800.000	0.129	0.409
-173.954	-20.950	0.065	0.039
-172.939	136.277	0.142	0.182
-171.925	386.515	-0.104	-0.209
-170.910	-200.000	-0.006	0.116
-169.896	-200.000	-0.017	0.148
-168.881	-151.030	0.456	0.034
-167.866	800.000	-0.040	-0.159
-166.852	-34.229	0.155	0.083
-165.837	-1.914	-0.158	0.108
-164.823	202.370	-0.154	0.233
-163.808	-63.394	0.211	0.085
-162.793	175.595	-0.114	-0.162
-161.779	-200.000	-0.011	0.277
-160.764	-200.000	-0.077	-0.358
-159.750	800.000	-0.030	0.105
-158.735	-113.325	-0.129	0.025
-157.720	-119.163	-0.091	0.015
-156.706	-123.483	0.115	0.018
-155.691	-200.000	0.108	-0.000
-154.677	-68.974	0.136	0.051
-153.662	84.389	-0.169	0.181
-152.647	-2.944	0.287	-0.196
-151.633	800.000	0.062	-0.185
-150.618	297.932	-0.154	0.277
-149.604	-65.871	0.152	0.059
-148.589	257.744	-0.049	-0.082
-147.574	118.635	-0.129	0.156
-146.560	408.833	-0.254	-0.527
-145.545	-200.000	-0.012	0.074
-144.531	74.973	-0.131	-0.135
-143.516	-31.239	0.138	-0.076
-142.502	542.066	0.044	-0.101
-141.487	519.240	-0.064	-0.147
-140.472	372.632	-0.112	0.222
-139.458	169.122	0.255	-0.356
-138.443	283.351	0.076	0.133
-137.429	-97.249	-0.040	-0.010
-136.414	26.687	0.126	0.103
-135.399	8.459	0.121	0.089
-134.385	25.961	0.239	-0.195
-133.370	238.305	0.103	0.168
-132.356	79.524	-0.103	0.108
-131.341	-87.396	-0.515	0.153
-130.326	66.544	0.325	0.323
-129.312	800.000	0.028	-0.091
-128.297	50.158	0.054	0.050
-127.283	-39.324	0.116	-0.060
-126.268	-154.741	0.125	0.008
-125.253	-45.415	0.041	0.020
-124.239	461.069	-0.098	0.212
-123.224	800.000	0.049	0.206
-122.210	-200.000	0.103	0.445
-121.195	501.940	-0.088	0.200
-120.180	-16.990	0.201	-0.124
-119.166	-79.959	-0.279	0.092
-118.151	-82.533	-0.289	-0.092
-117.137	398.621	0.079	-0.162
-116.122	-123.792	0.235	-0.036
-115.107	374.974	-0.039	0.077
-114.093	-200.000	-0.026	-0.118
-113.078	760.380	0.009	0.023
-112.064	42.117	0.281	-0.249
-111.049	14.121	0.069	0.052
-110.034	-71.286	-0.496	0.182
-109.020	-131.217	0.162	0.021
-108.005	800.000	0.063	-0.173
-106.991	-131.371	-0.303	0.039
-105.976	-132.516	0.227	-0.029
-104.962	-14.527	-0.096	-0.060
-103.947	33.483	0.172	-0.146
-102.932	59.161	-0.069	0.066
-101.918	51.800	0.184	0.171
-100.903	-16.282	0.184	0.114
-99.889	800.000	0.048	-0.179
-98.874	-118.686	-0.362	0.062
-97.859	51.621	0.236	0.219
-96.845	-103.277	-0.027	0.006
-95.830	-200.000	-0.007	0.298
-94.816	-200.000	-0.064	0.312
-93.801	-147.380	0.375	-0.031
-92.786	-34.746	0.237	-0.126
-91.772	-200.000	0.035	0.153
-90.757	75.492	0.160	0.165
-89.743	-16.630	0.275	0.170
-88.728	501.351	0.048	-0.108
-87.713	144.107	0.302	0.394
-86.699	73.521	0.047	0.048
-85.684	-95.304	-0.291	0.076
-84.670	68.111	0.314	0.314
-83.655	800.000	-0.015	0.049
-82.640	122.457	0.150	-0.183
-81.626	-200.000	-0.034	0.206
-80.611	-190.046	0.292	0.003
-79.597	638.673	-0.087	0.217
-78.582	189.349	0.045	0.065
-77.567	614.367	0.080	0.196
-76.553	-43.689	-0.553	0.272
-75.538	-141.571	0.284	0.028
-74.524	654.020	0.076	0.191
-73.509	-33.900	0.130	-0.070
-72.494	333.295	-0.150	0.283
-71.480	-200.000	0.022	-0.185
-70.465	94.486	0.204	-0.226
-69.451	-144.529	0.249	0.022
-68.436	-28.263	0.065	0.037
-67.422	-104.062	0.130	0.029
-66.407	188.454	0.083	0.122
-65.392	-64.542	0.125	0.049
-64.378	268.284	-0.084	0.143
-63.363	-200.000	-0.034	0.207
-62.349	171.055	-0.087	-0.121
-61.334	40.785	-0.944	-0.830
-60.319	-4.458	1.107	0.746
-59.305	551.690	-0.550	-1.288
-58.290	800.000	0.511	1.446
-57.276	800.000	0.596	1.777
-56.261	-200.000	117.678	599.793
-55.246	411.996	1519.208	3145.220
-54.232	148.343	2682.042	3529.641
-53.217	90.587	2261.798	2468.978
-52.203	34.285	1875.256	1594.420
-51.188	29.018	1672.108	1382.200
-50.173	26.783	1631.798	1332.421
-49.159	45.247	1693.764	1522.220
-48.144	44.192	1707.334	1526.425
-47.130	28.471	1662.290	1369.780
-46.115	26.120	1646.452	1339.259
-45.100	25.921	1641.740	1333.897
-44.086	25.879	1639.521	1331.734
-43.071	25.840	1636.785	1329.170
-42.057	25.848	1634.449	1327.278
-41.042	25.849	1632.980	1326.041
-40.027	25.860	1630.551	1324.097
-39.013	25.896	1628.689	1322.793
-37.998	25.801	1627.385	1320.987
-36.984	25.839	1626.109	1320.175
-35.969	25.909	1624.555	1319.373
-34.954	26.047	1622.855	1318.955
-33.940	25.996	1621.609	1317.517
-32.925	25.982	1619.840	1315.920
-31.911	25.917	1618.088	1313.971
-30.896	25.941	1617.099	1313.289
-29.881	25.872	1615.878	1311.743
-28.867	26.025	1613.175	1310.613
-27.852	26.074	1611.798	1309.796
-26.838	26.003	1610.683	1308.324
-25.823	26.051	1609.468	1307.636
-24.809	26.125	1608.179	1307.073
-23.794	26.003	1607.139	1305.287
-22.779	26.034	1605.748	1304.335
-21.765	26.030	1604.115	1302.924
-20.750	26.052	1602.169	1301.450
-19.736	26.052	1601.010	1300.458
-18.721	26.000	1599.858	1299.092
-17.706	26.109	1598.053	1298.364
-16.692	25.951	1596.874	1296.215
-15.677	26.008	1595.324	1295.320
-14.663	26.021	1593.879	1294.184
-13.648	26.086	1592.606	1293.567
-12.633	26.057	1590.539	1291.631
-11.619	25.997	1589.381	1290.212
-10.604	26.137	1587.481	1289.618
-9.590	26.018	1586.839	1288.191
-8.575	26.054	1585.207	1287.073
-7.560	26.009	1584.395	1286.040
-6.546	26.111	1582.896	1285.498
-5.531	26.040	1581.797	1284.053
-4.517	25.996	1580.854	1282.923
-3.502	26.015	1579.678	1282.056
-2.487	26.049	1578.110	1280.972
-1.473	25.550	1565.546	1267.202
-0.458	22.357	1545.776	1228.893
0.556	16.860	1546.544	1194.979
1.571	14.236	1569.873	1194.097
2.586	13.840	1581.504	1199.973
3.600	12.608	1528.724	1151.213
4.615	6.991	1424.513	1035.934
5.629	1.348	1364.381	956.643
6.644	0.320	1357.047	944.975
7.659	0.145	1356.259	943.242
8.673	0.132	1355.492	942.547
9.688	0.123	1353.008	940.676
10.702	-0.016	1349.858	937.541
11.717	2.787	1353.564	957.537
12.731	9.880	1364.492	1009.673
13.746	15.712	1372.357	1051.996
14.761	16.904	1373.287	1060.072
15.775	16.114	1371.227	1053.452
16.790	15.187	1369.102	1045.942
17.804	14.466	1366.472	1039.344
18.819	14.067	1365.357	1035.922
19.834	13.876	1364.166	1033.738
20.848	13.629	1363.121	1031.317
21.863	13.321	1361.468	1028.057
22.877	13.243	1360.290	1026.598
23.892	13.218	1359.371	1025.657
24.907	13.127	1358.899	1024.642
25.921	13.330	1357.497	1024.756
26.936	13.182	1357.134	1023.471
27.950	13.262	1355.675	1022.778
28.965	13.343	1354.785	1022.517
29.980	13.362	1354.232	1022.123
30.994	13.322	1352.988	1020.850
32.009	13.455	1351.576	1020.515
33.023	13.340	1351.137	1019.383
34.038	13.383	1349.561	1018.366
35.053	13.407	1348.414	1017.562
36.067	13.304	1347.660	1016.268
37.082	13.392	1346.328	1015.717
38.096	13.394	1345.293	1014.855
39.111	13.274	1344.784	1013.649
40.126	13.322	1343.592	1012.955
41.140	13.109	1343.135	1011.211
42.155	13.228	1342.692	1011.517
43.169	13.139	1342.648	1010.852
44.184	13.184	1341.865	1010.450
45.199	13.144	1341.664	1009.961
46.213	13.174	1341.158	1009.675
47.228	13.168	1339.960	1008.650
48.242	13.253	1338.994	1008.349
49.257	13.322	1337.333	1007.433
50.271	13.273	1335.846	1005.926
51.286	13.216	1334.950	1004.815
52.301	13.290	1333.629	1004.178
53.315	13.216	1332.566	1002.843
54.330	13.247	1331.732	1002.315
55.344	13.165	1330.646	1000.910
56.359	13.219	1329.375	1000.192
57.374	13.085	1328.648	998.748
58.388	13.079	1327.636	997.859
59.403	13.177	1326.915	997.821
60.417	13.145	1326.605	997.308
61.432	13.103	1325.470	996.115
62.447	13.104	1324.758	995.498
63.461	13.006	1323.596	993.947
64.476	13.066	1322.240	993.201
65.490	12.943	1321.674	991.948
66.505	13.052	1319.398	990.804
67.520	13.061	1318.295	989.944
68.534	13.188	1316.967	989.620
69.549	13.044	1316.056	987.983
70.563	13.127	1314.342	987.107
71.578	12.972	1313.907	985.769
72.593	13.018	1312.874	985.180
73.607	12.977	1311.980	984.173
74.622	13.094	1311.721	984.593
75.636	12.989	1310.988	983.331
76.651	13.060	1309.616	982.636
77.666	13.049	1309.241	982.201
78.680	13.016	1309.147	981.848
79.695	12.999	1307.939	980.752
80.709	13.114	1307.104	980.723
81.724	13.092	1306.465	980.029
82.739	13.130	1305.218	979.230
83.753	13.211	1304.308	978.941
84.768	13.217	1303.168	978.035
85.782	13.374	1302.046	978.035
86.797	13.336	1300.779	976.769
87.812	13.181	1299.564	974.857
88.826	13.182	1298.931	974.301
89.841	13.239	1297.645	973.589
90.855	13.221	1296.788	972.752
91.870	13.272	1296.128	972.473
92.884	13.311	1294.878	971.677
93.899	13.358	1294.194	971.352
94.914	13.455	1293.150	971.051
95.928	13.342	1292.783	970.028
96.943	13.417	1291.469	969.394
97.957	13.255	1290.914	967.947
98.972	13.425	1289.615	967.880
99.987	13.229	1288.901	966.112
101.001	13.297	1287.726	965.543
102.016	13.323	1286.525	964.709
103.030	13.368	1285.586	964.183
104.045	13.396	1284.682	963.585
105.060	13.241	1283.838	961.961
106.074	13.203	1282.825	960.898
107.089	13.240	1281.074	959.713
108.103	13.177	1279.627	958.182
109.118	13.193	1278.754	957.537
110.133	13.060	1277.822	955.983
111.147	13.136	1276.112	955.056
112.162	13.241	1274.634	954.476
113.176	13.186	1274.011	953.606
114.191	13.240	1272.589	952.768
115.206	13.270	1271.523	952.061
116.220	13.265	1270.284	951.018
117.235	13.169	1269.386	949.709
118.249	13.233	1268.377	949.240
119.264	13.241	1267.001	948.170
120.279	13.217	1266.209	947.357
121.293	13.241	1265.128	946.604
122.308	13.108	1264.459	945.257
123.322	13.165	1263.023	944.426
124.337	13.197	1262.126	943.850
125.352	13.175	1260.603	942.508
126.366	13.278	1259.625	942.277
127.381	13.151	1258.913	940.936
128.395	13.138	1257.900	940.026
129.410	13.165	1256.983	939.411
130.424	13.142	1255.950	938.423
131.439	13.136	1255.061	937.643
132.454	13.211	1254.353	937.453
133.468	13.192	1253.505	936.631
134.483	13.236	1252.465	936.018
135.497	13.247	1251.571	935.331
136.512	13.237	1250.387	934.306
137.527	13.240	1248.913	933.140
138.541	13.255	1247.176	931.842
139.556	13.308	1246.123	931.276
140.570	13.374	1244.916	930.659
141.585	13.375	1243.940	929.853
142.600	13.378	1242.571	928.764
143.614	13.468	1241.727	928.559
144.629	13.456	1240.712	927.648
145.643	13.395	1239.931	926.642
146.658	13.456	1238.405	925.762
147.673	13.288	1237.185	923.826
148.687	13.409	1235.772	923.367
149.702	13.264	1234.887	921.813
150.716	13.297	1233.135	920.607
151.731	13.213	1232.389	919.502
152.746	13.329	1231.020	919.046
153.760	13.423	1229.664	918.472
154.775	13.404	1229.054	917.828
155.789	13.472	1227.535	916.993
156.804	13.417	1226.905	916.138
157.819	13.465	1225.413	915.205
158.833	13.478	1224.550	914.554
159.848	13.583	1223.841	914.519
160.862	13.574	1222.618	913.477
161.877	13.436	1221.656	911.919
162.892	13.376	1220.281	910.477
163.906	13.480	1219.418	910.326
164.921	13.388	1218.692	909.201
165.935	13.414	1217.631	908.470
166.950	13.509	1217.103	908.515
167.964	13.622	1216.163	908.356
168.979	13.615	1215.321	907.606
169.994	13.575	1214.698	906.844
171.008	13.524	1214.441	906.289
172.023	13.697	1212.966	906.054
173.037	13.715	1212.317	905.591
174.052	13.623	1211.456	904.365
175.067	13.577	1210.562	903.367
176.081	13.564	1209.616	902.507
177.096	13.576	1208.482	901.648
178.110	13.572	1207.653	900.926
179.125	13.567	1206.040	899.619
180.140	13.623	1204.940	899.021
181.154	13.658	1203.755	898.250
182.169	13.573	1202.940	897.098
183.183	13.708	1201.606	896.756
184.198	13.765	1200.052	895.823
185.213	13.702	1199.091	894.688
186.227	13.775	1198.342	894.445
187.242	13.835	1196.844	893.572
188.256	13.867	1196.275	893.237
189.271	13.906	1195.078	892.475
190.286	13.746	1193.885	890.648
191.300	13.617	1193.329	889.457
192.315	13.648	1192.676	889.061
193.329	13.602	1192.279	888.438
194.344	13.692	1191.569	888.313
195.359	13.875	1190.171	888.172
196.373	13.772	1190.224	887.581
197.388	13.910	1189.356	887.592
198.402	13.876	1189.315	887.301
199.417	13.924	1188.733	887.049
200.432	13.979	1187.680	886.473
201.446	14.053	1186.700	886.058
202.461	14.125	1185.931	885.793
203.475	14.075	1184.761	884.573
204.490	14.057	1183.645	883.565
205.504	13.953	1182.648	882.193
206.519	14.016	1181.391	881.511
207.534	13.970	1179.972	880.130
208.548	13.934	1179.610	879.592
209.563	13.958	1178.572	878.868
210.577	14.059	1177.886	878.811
211.592	14.069	1177.292	878.342
212.607	14.113	1176.012	877.541
213.621	14.220	1174.995	877.270
214.636	14.163	1174.365	876.419
215.650	14.122	1173.098	875.183
216.665	14.307	1172.353	875.523
217.680	14.181	1171.737	874.319
218.694	14.122	1171.108	873.468
219.709	14.266	1169.864	873.217
220.723	14.237	1169.685	872.852
221.738	14.230	1168.752	872.045
222.753	14.307	1167.859	871.704
223.767	14.273	1166.722	870.598
224.782	14.352	1166.065	870.445
225.796	14.515	1165.401	870.722
226.811	14.423	1164.660	869.611
227.826	14.352	1164.398	868.971
228.840	14.405	1163.329	868.373
229.855	14.299	1163.040	867.525
230.869	14.448	1162.001	867.447
231.884	14.385	1161.163	866.422
232.899	14.332	1160.082	865.262
233.913	14.359	1159.769	865.093
234.928	14.282	1158.969	864.020
235.942	14.307	1158.258	863.541
236.957	14.330	1157.203	862.795
237.972	14.352	1156.497	862.310
238.986	14.328	1156.090	861.804
240.001	14.383	1155.158	861.317
241.015	14.458	1154.215	860.926
242.030	14.487	1153.697	860.613
243.045	14.435	1153.023	859.765
244.059	14.532	1151.989	859.419
245.074	14.531	1151.183	858.737
246.088	14.491	1150.733	858.117
247.103	14.517	1149.597	857.327
248.117	14.617	1148.866	857.222
249.132	14.626	1148.663	857.044
250.147	14.713	1147.582	856.603
251.161	14.757	1147.062	856.369
252.176	14.827	1146.131	855.952
253.190	14.747	1145.524	855.017
254.205	14.745	1145.032	854.563
255.220	14.916	1144.651	855.078
256.234	14.870	1144.009	854.288
257.249	14.855	1143.202	853.533
258.263	14.812	1142.730	852.886
259.278	14.854	1141.810	852.336
260.293	14.815	1141.352	851.719
261.307	14.959	1140.593	851.810
262.322	14.971	1139.915	851.293
263.336	14.951	1139.391	850.722
264.351	15.008	1138.858	850.540
265.366	14.983	1138.662	850.189
266.380	15.028	1137.552	849.515
267.395	15.017	1136.596	848.671
268.409	15.025	1135.571	847.870
269.424	15.003	1135.062	847.305
270.439	15.012	1134.871	847.130
271.453	15.084	1133.545	846.431
272.468	15.073	1133.031	845.918
273.482	15.131	1132.217	845.528
274.497	15.148	1131.336	844.881
275.512	15.075	1130.949	844.149
276.526	15.145	1130.410	844.022
277.541	15.123	1129.378	843.071
278.555	15.089	1129.158	842.659
279.570	15.192	1128.112	842.320
280.585	15.168	1127.540	841.699
281.599	15.333	1126.353	841.568
282.614	15.294	1125.142	840.393
283.628	15.185	1124.344	839.177
284.643	15.175	1123.602	838.495
285.657	15.211	1122.603	837.857
286.672	15.209	1121.874	837.230
287.687	15.239	1121.195	836.799
288.701	15.305	1120.378	836.443
289.716	15.279	1119.543	835.615
290.730	15.269	1118.847	834.976
291.745	15.347	1118.320	834.896
292.760	15.342	1117.604	834.262
293.774	15.438	1116.833	834.088
294.789	15.448	1116.238	833.620
295.803	15.446	1115.793	833.205
296.818	15.415	1114.779	832.220
297.833	15.438	1114.371	831.956
298.847	15.339	1113.734	830.916
299.862	15.480	1112.630	830.715
300.876	15.684	1111.602	830.883
301.891	15.492	1111.623	829.876
302.906	15.497	1110.666	829.115
303.920	15.600	1110.077	829.109
304.935	15.629	1109.277	828.583
305.949	15.718	1108.581	828.427
306.964	15.576	1108.549	827.627
307.979	15.708	1107.461	827.392
308.993	15.663	1107.063	826.802
310.008	15.675	1105.907	825.925
311.022	15.652	1105.209	825.216
312.037	15.748	1103.982	824.700
313.052	15.721	1103.406	824.065
314.066	15.665	1102.384	822.951
315.081	15.714	1101.348	822.345
316.095	15.643	1100.964	821.642
317.110	15.578	1100.443	820.859
318.125	15.646	1099.883	820.700
319.139	15.675	1098.745	819.920
320.154	15.748	1098.122	819.739
321.168	15.585	1098.025	818.801
322.183	15.692	1097.097	818.557
323.197	15.656	1096.743	818.047
324.212	15.766	1095.609	817.662
325.227	15.733	1095.313	817.207
326.241	15.838	1094.480	817.027
327.256	15.776	1093.791	816.139
328.270	15.698	1093.149	815.207
329.285	15.682	1092.129	814.295
330.300	15.818	1090.849	813.927
331.314	15.822	1090.111	813.327
332.329	15.864	1089.312	812.860
333.343	15.809	1088.572	811.973
334.358	15.977	1087.442	811.868
335.373	15.985	1087.089	811.568
336.387	15.919	1086.112	810.452
337.402	15.967	1085.764	810.351
338.416	16.026	1084.910	809.923
339.431	16.036	1084.140	809.324
340.446	16.042	1083.354	808.697
341.460	16.154	1082.567	808.572
342.475	16.211	1081.700	808.126
343.489	16.216	1081.128	807.653
344.504	16.088	1080.267	806.326
345.519	16.240	1079.308	806.265
346.533	16.160	1078.751	805.395
347.548	16.196	1077.774	804.769
348.562	16.165	1077.278	804.178
349.577	16.221	1076.523	803.811
350.592	16.117	1075.849	802.739
351.606	16.133	1075.246	802.293
352.621	16.174	1074.383	801.777
353.635	16.186	1073.955	801.442
354.650	16.208	1072.820	800.627
355.665	16.216	1071.924	799.928
356.679	16.231	1071.732	799.785
357.694	16.266	1071.301	799.559
358.708	16.345	1070.534	799.287
359.723	16.202	1069.909	798.076
360.738	16.298	1069.045	797.814
361.752	16.211	1068.882	797.209
362.767	16.438	1067.800	797.404
363.781	16.394	1067.384	796.813
364.796	16.418	1066.827	796.440
365.810	16.407	1066.115	795.790
366.825	16.416	1065.861	795.571
367.840	16.557	1065.068	795.572
368.854	16.633	1064.601	795.508
369.869	16.532	1063.770	794.343
370.883	16.553	1062.964	793.771
371.898	16.390	1062.466	792.563
372.913	16.521	1061.816	792.624
373.927	16.495	1061.475	792.177
374.942	16.612	1060.599	791.999
375.956	16.516	1059.918	790.971
376.971	16.613	1059.803	791.268
377.986	16.667	1058.858	790.745
379.000	16.774	1058.148	790.645
380.015	16.730	1057.834	790.135
381.029	16.741	1057.279	789.703
382.044	16.863	1056.369	789.521
383.059	16.877	1055.827	789.111
384.073	16.726	1055.023	787.739
385.088	16.935	1053.892	787.793
386.102	16.648	1053.506	786.104
387.117	16.782	1052.251	785.721
388.132	16.805	1051.139	784.925
389.146	16.758	1050.454	784.129
390.161	16.767	1049.923	783.706
391.175	16.804	1049.291	783.332
392.190	16.848	1048.448	782.839
393.205	16.761	1047.919	781.970
394.219	16.897	1047.017	781.855
395.234	16.875	1046.225	781.097
396.248	16.948	1044.748	780.262
397.263	16.786	1044.320	779.127
398.278	16.896	1043.585	779.012
399.292	16.889	1042.576	778.161
400.307	16.830	1042.246	777.573
401.321	16.921	1041.746	777.548
402.336	16.941	1040.793	776.858
403.350	16.822	1040.326	775.899
404.365	16.948	1039.049	775.451
405.380	17.077	1039.167	776.063
406.394	16.992	1038.375	775.014
407.409	16.930	1037.690	774.152
408.423	17.044	1037.215	774.248
409.438	17.131	1036.123	773.763
410.453	17.119	1035.711	773.329
411.467	17.241	1034.461	772.882
412.482	17.293	1033.776	772.540
413.496	17.185	1033.335	771.652
414.511	17.185	1032.976	771.317
415.526	17.283	1032.400	771.262
416.540	17.239	1032.115	770.782
417.555	17.342	1031.327	770.592
418.569	17.340	1031.034	770.295
419.584	17.390	1030.384	769.969
420.599	17.285	1030.024	769.156
421.613	107.080	1326.675	1482.943
422.628	98.012	1369.837	1483.009
