DTS Sentinel unit serial number:	SN413079Multiplexer serial number:	ORYXHardware model number:	OX4-SRSoftware version number:	ORYX F/W v4.00 Oryx Data Collector v3.7.2.0data status	okinstallation	princeton_trtdifferential loss correction	single-endedforward channel	channel 2reverse channel	N/Adate	2019/09/17time	00:39:34forward acquisition time	60.00reverse acquisition time	0.00gamma	496.2192k internal	0.2329k external	0.2329temperature offset calibration	0.9972default loss term (dB/km)	0.3790temperature slope calibration	1.0000multiplexer offset coefficient	1.0000multiplexer slope coefficient	1.0000fibre end	0.00T internal ref (°C)	29.44T ext. ref 1 (°C)	0.10T ext. ref 2 (°C)	23.97length (m)	temperature (°C)	Stokes	anti-Stokes-747.200	-200.000	0.014	-0.150
-746.185	115.894	-0.149	0.184
-745.171	-30.656	-0.155	0.088
-744.156	252.841	0.244	0.420
-743.142	-64.210	0.438	0.180
-742.127	46.306	0.131	-0.122
-741.112	143.612	0.139	-0.186
-740.098	800.000	-0.077	-0.308
-739.083	192.931	0.133	0.202
-738.069	-200.000	-0.001	0.085
-737.054	-121.009	0.157	0.027
-736.039	800.000	-0.015	0.043
-735.025	-73.454	0.312	0.115
-734.010	-200.000	-0.025	-0.143
-732.996	-111.439	-0.090	-0.019
-731.981	44.355	-0.089	0.082
-730.966	800.000	0.109	0.363
-729.952	-115.867	-0.437	0.082
-728.937	-151.346	-0.199	-0.015
-727.923	114.518	-0.159	0.195
-726.908	39.936	0.079	0.072
-725.894	144.219	-0.144	-0.194
-724.879	493.777	0.107	0.246
-723.864	113.244	0.226	-0.276
-722.850	119.600	0.200	-0.250
-721.835	-200.000	0.040	-0.198
-720.821	800.000	-0.065	0.258
-719.806	800.000	0.043	-0.132
-718.791	-200.000	0.027	-0.173
-717.777	-154.347	-0.232	-0.016
-716.762	-144.030	-0.194	-0.018
-715.748	2.443	-0.216	0.158
-714.733	58.928	0.149	-0.147
-713.718	-163.820	0.324	0.015
-712.704	-118.641	-0.312	0.055
-711.689	86.559	0.282	-0.313
-710.675	-200.000	0.033	0.309
-709.660	-27.742	0.213	0.125
-708.645	272.682	-0.060	0.107
-707.631	-129.882	0.044	-0.006
-706.616	-196.206	-0.443	-0.003
-705.602	-52.227	-0.149	-0.069
-704.587	-97.346	-0.042	-0.011
-703.572	553.582	0.070	0.170
-702.558	174.828	-0.187	-0.273
-701.543	10.839	-0.322	-0.247
-700.529	-165.928	-0.290	0.012
-699.514	5.399	0.226	-0.168
-698.499	-200.000	0.040	-0.239
-697.485	327.051	0.035	-0.068
-696.470	-91.411	0.194	-0.056
-695.456	539.770	-0.094	0.225
-694.441	800.000	-0.126	0.448
-693.426	-200.000	-0.002	-0.230
-692.412	-200.000	0.014	0.068
-691.397	-200.000	0.035	-0.234
-690.383	439.968	-0.041	-0.089
-689.368	-200.000	0.038	-0.344
-688.354	360.433	-0.084	0.169
-687.339	-59.359	0.313	-0.135
-686.324	-77.496	-0.220	0.077
-685.310	440.240	-0.173	-0.380
-684.295	508.646	0.073	0.171
-683.281	800.000	0.062	-0.250
-682.266	174.877	-0.025	-0.036
-681.251	-80.609	-0.270	0.090
-680.237	-72.405	-0.390	-0.145
-679.222	-200.000	-0.020	-0.159
-678.208	-171.331	0.331	0.011
-677.193	567.466	-0.073	-0.178
-676.178	263.781	-0.164	0.287
-675.164	-7.383	-0.102	0.069
-674.149	-52.967	0.202	0.094
-673.135	602.241	0.125	-0.311
-672.120	800.000	0.075	-0.211
-671.105	81.803	0.152	0.165
-670.091	-105.591	0.292	-0.066
-669.076	-60.922	0.133	-0.056
-668.062	-59.875	0.130	-0.056
-667.047	-200.000	-0.006	0.449
-666.032	524.957	-0.123	0.290
-665.018	-89.747	-0.182	0.053
-664.003	583.333	0.029	-0.071
-662.989	-105.779	-0.108	0.024
-661.974	44.225	-0.232	0.214
-660.959	513.822	0.088	0.207
-659.945	800.000	0.054	-0.180
-658.930	346.380	-0.088	-0.174
-657.916	-134.154	-0.114	-0.014
-656.901	80.616	-0.088	-0.095
-655.886	120.353	0.140	0.175
-654.872	-17.942	0.183	-0.115
-653.857	489.191	0.070	-0.161
-652.843	-34.221	0.221	-0.122
-651.828	423.477	-0.178	0.385
-650.814	101.836	0.155	-0.181
-649.799	110.502	0.205	-0.247
-648.784	100.121	-0.115	-0.133
-647.770	-41.211	-0.226	0.117
-646.755	-131.925	0.105	-0.014
-645.741	-129.601	-0.217	0.030
-644.726	2.326	0.146	0.106
-643.711	-95.041	0.212	-0.058
-642.697	-200.000	-0.006	0.131
-641.682	-117.083	-0.185	0.034
-640.668	503.435	-0.072	0.168
-639.653	20.092	0.150	-0.121
-638.638	-60.554	0.234	-0.100
-637.624	532.365	-0.125	0.297
-636.609	-0.323	0.255	0.182
-635.595	-16.117	0.229	-0.146
-634.580	-200.000	0.010	0.313
-633.565	-55.648	0.281	-0.126
-632.551	23.958	0.188	-0.156
-631.536	212.832	0.119	-0.189
-630.522	-123.635	-0.077	-0.012
-629.507	-91.298	-0.106	0.030
-628.492	-120.974	0.054	-0.009
-627.478	-174.573	0.255	0.007
-626.463	-200.000	-0.009	0.040
-625.449	800.000	0.042	0.151
-624.434	303.457	0.057	0.107
-623.419	-146.984	-0.079	-0.007
-622.405	99.201	0.270	0.312
-621.390	-101.834	0.198	0.048
-620.376	94.912	0.347	-0.396
-619.361	137.686	0.161	-0.211
-618.346	390.126	-0.068	-0.141
-617.332	-44.127	-0.326	0.164
-616.317	126.013	-0.091	-0.115
-615.303	-200.000	-0.004	-0.049
-614.288	20.545	-0.141	0.114
-613.273	93.802	0.091	0.104
-612.259	9.531	0.056	0.043
-611.244	-118.636	-0.119	0.021
-610.230	99.745	0.022	0.025
-609.215	-62.680	-0.348	-0.144
-608.201	-200.000	-0.042	-0.361
-607.186	-12.087	-0.078	0.051
-606.171	-67.991	0.084	0.033
-605.157	152.791	0.195	0.267
-604.142	-190.122	-0.212	-0.002
-603.128	585.365	0.101	0.249
-602.113	62.123	0.262	0.261
-601.098	292.039	-0.091	-0.165
-600.084	211.863	0.172	-0.271
-599.069	-53.879	-0.278	-0.127
-598.055	58.823	-0.070	0.069
-597.040	13.209	0.123	-0.096
-596.025	260.535	0.041	-0.071
-595.011	-80.130	-0.042	-0.014
-593.996	157.354	-0.082	-0.114
-592.982	445.567	-0.042	0.093
-591.967	-200.000	0.055	-0.486
-590.952	327.532	0.079	-0.151
-589.938	99.518	-0.039	0.045
-588.923	285.713	0.072	-0.129
-587.909	-200.000	-0.009	-0.181
-586.894	800.000	0.007	0.027
-585.879	800.000	0.037	0.133
-584.865	-200.000	0.001	-0.135
-583.850	-200.000	0.012	0.167
-582.836	-39.604	-0.155	-0.081
-581.821	-200.000	-0.032	-0.308
-580.806	30.885	-0.243	0.208
-579.792	482.022	0.021	0.048
-578.777	563.127	-0.046	-0.112
-577.763	-200.000	0.016	-0.074
-576.748	-127.311	-0.406	0.059
-575.733	716.790	0.183	-0.486
-574.719	800.000	-0.066	-0.277
-573.704	742.276	0.071	0.190
-572.690	-31.387	0.164	-0.092
-571.675	91.013	-0.189	0.212
-570.661	134.020	0.202	-0.261
-569.646	185.684	-0.080	-0.118
-568.631	101.139	0.210	0.245
-567.617	800.000	-0.037	-0.160
-566.602	-75.536	0.202	0.072
-565.588	133.163	0.062	-0.080
-564.573	-200.000	-0.007	-0.318
-563.558	-30.395	0.283	0.160
-562.544	-131.334	-0.245	0.033
-561.529	75.234	-0.172	-0.182
-560.515	800.000	-0.138	-0.485
-559.500	17.419	-0.218	0.173
-558.485	-154.729	-0.134	-0.009
-557.471	-200.000	-0.003	-0.067
-556.456	-200.000	-0.008	-0.047
-555.442	-131.989	0.297	0.039
-554.427	376.922	0.029	0.059
-553.412	23.623	-0.091	0.075
-552.398	498.365	0.004	-0.010
-551.383	-4.064	-0.315	-0.218
-550.369	-200.000	-0.007	-0.150
-549.354	-11.039	0.218	0.144
-548.339	81.429	-0.168	-0.181
-547.325	68.507	-0.384	0.393
-546.310	469.220	-0.065	0.146
-545.296	-200.000	0.009	-0.249
-544.281	-149.429	-0.041	0.003
-543.266	124.730	-0.105	-0.133
-542.252	273.375	0.093	-0.165
-541.237	-41.966	-0.090	-0.046
-540.223	-68.845	-0.142	0.055
-539.208	314.048	-0.138	0.259
-538.193	332.918	0.110	-0.211
-537.179	300.452	-0.152	0.281
-536.164	246.834	0.185	0.313
-535.150	369.749	0.121	0.244
-534.135	-22.121	-0.220	-0.133
-533.121	-200.000	-0.001	-0.193
-532.106	84.123	-0.146	-0.160
-531.091	-12.319	0.190	-0.124
-530.077	-69.494	-0.213	0.081
-529.062	-29.351	0.209	-0.120
-528.048	23.547	-0.125	-0.102
-527.033	-200.000	-0.010	-0.116
-526.018	-85.335	-0.162	-0.051
-525.004	-72.859	0.222	-0.082
-523.989	800.000	0.151	-0.438
-522.975	174.920	-0.157	-0.226
-521.960	-87.905	0.130	0.039
-520.945	-70.416	0.213	-0.081
-519.931	174.474	-0.093	0.134
-518.916	-200.000	0.016	0.127
-517.902	476.131	0.071	0.160
-516.887	255.678	0.052	0.089
-515.872	-200.000	0.051	-0.277
-514.858	37.687	-0.382	-0.338
-513.843	800.000	-0.068	-0.208
-512.829	-147.019	-0.146	0.012
-511.814	-200.000	0.008	0.078
-510.799	-200.000	0.006	0.165
-509.785	-121.669	-0.043	0.007
-508.770	-39.222	0.169	-0.089
-507.756	-13.106	0.092	-0.060
-506.741	322.901	-0.086	0.164
-505.726	-200.000	-0.015	-0.304
-504.712	-57.977	-0.240	0.105
-503.697	107.296	-0.128	-0.152
-502.683	-133.700	-0.039	-0.005
-501.668	-200.000	-0.094	0.448
-500.653	-200.000	0.028	-0.311
-499.639	800.000	-0.031	0.112
-498.624	800.000	-0.096	0.289
-497.610	533.732	-0.019	0.045
-496.595	221.453	-0.080	0.128
-495.581	72.481	0.088	0.091
-494.566	-86.147	-0.457	-0.141
-493.551	297.946	-0.024	-0.044
-492.537	246.576	-0.165	0.277
-491.522	-62.328	0.249	-0.103
-490.508	250.455	-0.106	-0.179
-489.493	-200.000	-0.011	0.058
-488.478	429.236	-0.133	-0.287
-487.464	136.544	-0.307	-0.400
-486.449	-117.721	-0.225	-0.040
-485.435	-135.052	0.185	0.022
-484.420	-0.941	-0.087	0.062
-483.405	-8.403	-0.045	0.030
-482.391	-97.323	-0.195	0.051
-481.376	-200.000	0.011	-0.320
-480.362	-130.682	-0.166	-0.022
-479.347	169.047	-0.037	0.053
-478.332	-43.343	0.096	-0.048
-477.318	150.335	0.103	-0.139
-476.303	-200.000	-0.016	0.079
-475.289	-200.000	-0.002	0.279
-474.274	-67.216	0.175	0.069
-473.259	-200.000	-0.107	0.000
-472.245	96.323	0.270	-0.308
-471.230	49.295	0.027	0.025
-470.216	-200.000	-0.036	0.187
-469.201	-200.000	-0.009	-0.254
-468.186	418.643	0.085	-0.180
-467.172	224.822	-0.014	0.022
-466.157	-106.817	0.049	0.011
-465.143	88.439	0.124	-0.137
-464.128	67.143	-0.223	0.226
-463.113	770.293	-0.122	0.331
-462.099	484.923	-0.172	0.391
-461.084	176.736	-0.185	-0.268
-460.070	-200.000	-0.006	-0.227
-459.055	-200.000	-0.014	-0.098
-458.040	-24.078	0.101	-0.060
-457.026	-200.000	0.013	0.179
-456.011	-136.224	-0.276	0.032
-454.997	-169.011	-0.394	-0.015
-453.982	-22.041	0.085	-0.051
-452.968	313.150	-0.072	-0.135
-451.953	-2.899	0.181	0.126
-450.938	-119.371	-0.447	-0.077
-449.924	-13.092	-0.186	0.120
-448.909	510.226	-0.083	-0.192
-447.895	371.543	-0.050	-0.102
-446.880	-130.563	0.418	0.056
-445.865	-26.698	-0.175	0.102
-444.851	36.946	-0.025	0.022
-443.836	15.219	-0.151	-0.118
-442.822	800.000	-0.050	-0.200
-441.807	-200.000	-0.036	-0.247
-440.792	-79.751	0.103	-0.035
-439.778	-200.000	0.009	-0.208
-438.763	12.997	0.099	0.076
-437.749	-200.000	-0.016	0.399
-436.734	186.190	-0.184	0.273
-435.719	800.000	-0.097	0.296
-434.705	-200.000	0.003	-0.063
-433.690	-137.995	0.267	0.030
-432.676	112.052	0.124	0.149
-431.661	43.908	0.108	0.099
-430.646	800.000	0.009	-0.027
-429.632	-44.771	0.360	0.179
-428.617	134.884	0.073	0.095
-427.603	190.588	0.119	0.178
-426.588	174.838	0.032	-0.046
-425.573	-74.525	0.245	0.088
-424.559	-200.000	-0.042	-0.193
-423.544	-200.000	0.018	-0.177
-422.530	-44.027	-0.065	0.033
-421.515	-200.000	0.052	-0.344
-420.500	58.310	0.136	-0.133
-419.486	-160.823	-0.423	0.022
-418.471	-119.913	0.329	-0.056
-417.457	17.458	-0.166	-0.131
-416.442	-200.000	-0.018	0.225
-415.428	234.630	-0.070	0.115
-414.413	133.588	0.037	0.048
-413.398	-105.648	-0.124	0.028
-412.384	36.317	0.130	0.114
-411.369	-200.000	-0.011	0.107
-410.355	5.176	0.273	-0.200
-409.340	-16.653	-0.361	-0.227
-408.325	-113.968	-0.398	0.077
-407.311	-40.281	0.152	-0.079
-406.296	81.448	-0.305	0.327
-405.282	340.998	-0.028	0.053
-404.267	125.328	0.014	0.018
-403.252	-35.245	0.149	0.081
-402.238	-37.663	0.083	-0.044
-401.223	-113.152	-0.342	0.067
-400.209	35.679	0.039	-0.034
-399.194	-200.000	0.004	0.228
-398.179	-87.011	0.178	-0.054
-397.165	664.726	-0.116	-0.299
-396.150	-2.265	0.181	0.126
-395.136	-62.920	-0.262	-0.108
-394.121	-200.000	-0.012	-0.262
-393.106	-10.679	0.392	0.258
-392.092	-200.000	0.005	0.316
-391.077	-200.000	0.046	-0.249
-390.063	-123.080	-0.115	0.018
-389.048	800.000	0.026	0.088
-388.033	201.211	0.034	-0.052
-387.019	800.000	-0.068	0.278
-386.004	-200.000	-0.029	-0.179
-384.990	-126.863	0.060	-0.009
-383.975	-94.678	-0.051	0.014
-382.960	-200.000	-0.039	-0.184
-381.946	25.113	0.261	-0.215
-380.931	-77.681	0.130	-0.045
-379.917	93.183	0.095	0.107
-378.902	-88.365	0.055	0.016
-377.888	-200.000	0.002	0.157
-376.873	-200.000	-0.060	-0.264
-375.858	344.665	-0.089	0.174
-374.844	104.112	-0.133	0.156
-373.829	106.601	-0.148	-0.174
-372.815	-171.430	-0.139	-0.005
-371.800	-94.360	-0.338	0.092
-370.785	-200.000	0.014	-0.071
-369.771	88.622	-0.022	-0.024
-368.756	106.853	0.095	0.112
-367.742	-62.860	0.272	-0.112
-366.727	-200.000	0.109	0.560
-365.712	800.000	0.132	0.455
-364.698	-78.933	0.111	-0.038
-363.683	748.530	-0.034	0.091
-362.669	175.240	-0.301	0.433
-361.654	83.638	-0.123	-0.133
-360.639	430.974	-0.202	-0.434
-359.625	38.901	-0.067	0.059
-358.610	-79.426	0.244	-0.082
-357.596	-119.598	-0.032	0.006
-356.581	-64.069	0.448	0.181
-355.566	354.972	0.171	-0.337
-354.552	-117.513	0.190	-0.034
-353.537	-20.687	0.078	0.048
-352.523	-47.702	0.301	-0.145
-351.508	387.202	0.029	-0.060
-350.493	98.094	-0.296	0.338
-349.479	-101.257	-0.238	-0.058
-348.464	48.837	-0.116	0.108
-347.450	186.123	-0.058	0.085
-346.435	-100.638	-0.044	0.011
-345.420	181.121	-0.049	-0.071
-344.406	-73.803	-0.090	-0.032
-343.391	-83.476	0.282	0.089
-342.377	-200.000	-0.023	0.189
-341.362	-200.000	-0.027	0.369
-340.348	-53.333	0.152	0.069
-339.333	-99.499	0.045	0.011
-338.318	-20.994	0.046	-0.028
-337.304	-200.000	-0.004	-0.508
-336.289	-200.000	0.038	0.206
-335.275	-200.000	-0.025	-0.126
-334.260	129.079	0.136	-0.172
-333.245	-200.000	0.013	0.364
-332.231	126.142	-0.200	-0.250
-331.216	-27.133	0.154	-0.089
-330.202	250.070	0.182	0.305
-329.187	-118.751	-0.170	-0.030
-328.172	-200.000	-0.024	0.145
-327.158	51.027	0.188	-0.177
-326.143	-46.235	-0.471	0.230
-325.129	170.946	-0.152	0.216
-324.114	-122.875	0.210	0.034
-323.099	-200.000	0.020	-0.224
-322.085	-57.356	0.180	0.078
-321.070	800.000	-0.037	-0.112
-320.056	-151.912	0.336	-0.024
-319.041	137.426	0.044	0.058
-318.026	30.004	-0.142	0.120
-317.012	800.000	-0.063	-0.259
-315.997	638.292	0.049	-0.124
-314.983	47.645	-0.104	0.096
-313.968	21.856	-0.195	0.157
-312.953	30.347	-0.273	-0.231
-311.939	-78.076	0.415	-0.141
-310.924	0.488	0.204	-0.144
-309.910	-100.103	0.219	-0.054
-308.895	-126.569	0.138	0.020
-307.880	-200.000	0.003	-0.020
-306.866	183.280	0.192	-0.280
-305.851	67.558	-0.114	0.115
-304.837	394.041	0.044	0.090
-303.822	-14.315	-0.179	-0.114
-302.807	246.595	-0.182	0.304
-301.793	-44.154	0.080	0.040
-300.778	50.547	0.266	-0.249
-299.764	138.669	-0.176	0.229
-298.749	-17.336	-0.186	0.116
-297.735	-89.312	-0.030	-0.009
-296.720	800.000	0.075	-0.230
-295.705	-114.244	-0.267	0.051
-294.691	-28.885	0.206	-0.117
-293.676	800.000	0.133	0.531
-292.662	-200.000	0.067	0.429
-291.647	-144.338	-0.166	0.015
-290.632	-101.556	-0.366	-0.088
-289.618	-125.543	0.427	-0.064
-288.603	-200.000	0.061	0.285
-287.589	2.666	-0.224	-0.161
-286.574	19.526	-0.124	0.099
-285.559	316.397	0.257	-0.481
-284.545	-66.052	0.172	0.068
-283.530	46.970	-0.127	-0.117
-282.516	-191.131	-0.229	-0.002
-281.501	-142.516	0.176	-0.017
-280.486	-200.000	0.001	-0.065
-279.472	-200.000	0.010	0.063
-278.457	-200.000	0.022	0.105
-277.443	-81.342	-0.193	0.063
-276.428	-177.593	0.301	-0.007
-275.413	-181.132	-0.076	0.001
-274.399	727.774	0.110	0.289
-273.384	-150.711	-0.185	0.014
-272.370	-200.000	-0.045	0.335
-271.355	-200.000	0.010	0.286
-270.340	800.000	-0.055	0.156
-269.326	206.425	0.164	-0.252
-268.311	800.000	0.112	-0.437
-267.297	-108.350	-0.201	-0.043
-266.282	-156.225	0.325	0.020
-265.267	-200.000	-0.017	-0.145
-264.253	800.000	-0.049	0.145
-263.238	800.000	0.068	-0.193
-262.224	540.686	-0.142	0.334
-261.209	800.000	-0.046	-0.176
-260.195	-22.911	0.129	0.077
-259.180	-200.000	0.023	0.109
-258.165	-200.000	0.060	0.301
-257.151	-57.334	-0.155	-0.067
-256.136	-200.000	0.006	0.405
-255.122	-12.755	0.156	-0.100
-254.107	208.374	-0.079	-0.122
-253.092	-40.561	0.207	0.106
-252.078	161.359	-0.167	0.231
-251.063	-86.708	0.309	-0.094
-250.049	70.732	0.090	0.092
-249.034	-105.819	-0.181	0.040
-248.019	475.433	0.102	0.228
-247.005	-200.000	-0.003	-0.203
-245.990	162.862	-0.172	0.238
-244.976	310.510	0.111	0.205
-243.961	70.164	-0.165	-0.168
-242.946	738.343	0.060	0.159
-241.932	-104.716	0.414	-0.094
-240.917	-149.414	-0.489	-0.038
-239.903	534.172	0.133	0.312
-238.888	-37.285	-0.196	0.103
-237.873	-27.554	-0.091	0.052
-236.859	-146.569	-0.031	0.003
-235.844	217.030	0.105	0.164
-234.830	-135.133	-0.110	0.013
-233.815	-58.047	0.170	0.073
-232.800	-56.309	0.190	-0.083
-231.786	-200.000	0.031	-0.156
-230.771	3.122	0.305	0.219
-229.757	-65.456	-0.218	0.086
-228.742	193.074	0.017	-0.025
-227.727	800.000	-0.092	-0.357
-226.713	98.993	-0.069	0.079
-225.698	158.398	-0.164	0.224
-224.684	22.480	0.123	0.099
-223.669	25.574	0.234	0.193
-222.655	37.473	-0.243	-0.213
-221.640	-63.196	0.254	-0.103
-220.625	692.199	-0.026	-0.068
-219.611	1.896	-0.191	-0.136
-218.596	74.289	-0.123	-0.128
-217.582	140.992	-0.167	0.218
-216.567	251.770	-0.154	-0.259
-215.552	-71.574	-0.276	-0.102
-214.538	-71.747	0.145	0.053
-213.523	-94.660	0.386	0.104
-212.509	166.766	0.258	-0.360
-211.494	-200.000	-0.009	0.073
-210.479	236.790	-0.062	-0.101
-209.465	-33.966	0.349	0.189
-208.450	-39.306	-0.166	0.086
-207.436	-200.000	0.066	0.286
-206.421	-153.560	-0.206	-0.014
-205.406	-142.264	-0.225	-0.022
-204.392	800.000	-0.022	-0.074
-203.377	47.634	-0.244	0.224
-202.363	101.022	0.323	0.370
-201.348	-143.583	0.215	0.020
-200.333	-97.610	-0.037	0.010
-199.319	81.783	0.140	0.149
-198.304	394.583	0.159	-0.326
-197.290	-200.000	0.044	0.276
-196.275	-54.623	0.140	-0.062
-195.260	387.601	0.142	-0.289
-194.246	119.583	-0.091	0.111
-193.231	-8.942	-0.288	-0.190
-192.217	-134.975	-0.093	0.011
-191.202	-200.000	0.010	-0.085
-190.187	800.000	-0.027	-0.084
-189.173	800.000	-0.074	-0.227
-188.158	-200.000	-0.013	0.089
-187.144	-200.000	0.071	0.498
-186.129	-138.352	0.200	-0.022
-185.114	800.000	0.089	-0.257
-184.100	8.085	-0.263	-0.195
-183.085	-6.288	-0.154	-0.103
-182.071	800.000	0.105	0.382
-181.056	304.170	0.174	0.318
-180.042	115.121	-0.169	-0.204
-179.027	-16.702	-0.258	-0.161
-178.012	176.345	0.119	0.171
-176.998	-122.561	0.209	0.033
-175.983	-4.852	0.007	-0.005
-174.969	410.324	0.126	0.263
-173.954	800.000	-0.060	-0.170
-172.939	420.028	-0.024	-0.051
-171.925	-200.000	-0.046	-0.268
-170.910	576.007	-0.102	-0.245
-169.896	417.437	-0.103	0.217
-168.881	97.732	-0.248	0.281
-167.866	7.541	0.456	0.336
-166.852	-25.537	-0.176	0.102
-165.837	-110.775	0.181	-0.037
-164.823	800.000	0.103	-0.306
-163.808	-6.937	-0.293	-0.196
-162.793	-88.924	-0.095	-0.028
-161.779	370.019	0.056	0.112
-160.764	-200.000	-0.009	0.197
-159.750	-76.490	0.252	0.087
-158.735	-108.292	0.128	0.027
-157.720	6.207	-0.143	-0.105
-156.706	-73.546	0.403	-0.145
-155.691	-141.475	0.314	0.031
-154.677	183.319	-0.081	-0.118
-153.662	-164.046	0.227	-0.010
-152.647	137.216	0.071	-0.091
-151.633	-200.000	-0.001	-0.293
-150.618	-200.000	0.007	-0.204
-149.604	147.339	-0.228	0.302
-148.589	703.870	0.140	0.363
-147.574	415.395	0.083	-0.175
-146.560	-143.915	0.139	-0.013
-145.545	103.697	0.236	-0.273
-144.531	-35.058	0.070	-0.037
-143.516	150.915	0.173	0.232
-142.502	130.166	0.126	-0.159
-141.487	768.423	0.035	-0.093
-140.472	800.000	-0.107	0.334
-139.458	-77.086	0.191	0.066
-138.443	128.720	-0.132	0.166
-137.429	800.000	-0.031	-0.133
-136.414	238.511	0.175	-0.286
-135.399	554.953	-0.021	-0.051
-134.385	-84.667	0.269	-0.083
-133.370	470.836	0.096	-0.212
-132.356	-200.000	-0.007	0.131
-131.341	218.239	-0.160	-0.251
-130.326	236.275	0.165	0.268
-129.312	-200.000	-0.036	0.214
-128.297	-51.243	0.268	-0.123
-127.283	259.767	0.008	-0.013
-126.268	-198.849	-0.142	0.001
-125.253	368.118	0.047	0.093
-124.239	-200.000	-0.006	0.138
-123.224	74.291	-0.148	0.152
-122.210	-75.906	0.429	-0.149
-121.195	-200.000	-0.568	0.003
-120.180	126.471	0.118	-0.147
-119.166	-110.937	-0.150	0.030
-118.151	130.982	0.184	0.232
-117.137	581.739	-0.113	-0.272
-116.122	111.278	0.270	-0.320
-115.107	81.032	-0.130	-0.138
-114.093	800.000	0.077	-0.304
-113.078	14.830	-0.079	0.061
-112.064	-26.645	0.173	-0.099
-111.049	306.350	-0.025	0.046
-110.034	234.413	-0.070	0.113
-109.020	-200.000	0.054	-0.320
-108.005	574.552	0.092	-0.222
-106.991	156.611	0.016	-0.022
-105.976	-200.000	0.025	0.160
-104.962	-200.000	-0.071	0.540
-103.947	800.000	-0.058	0.163
-102.932	-62.596	-0.129	-0.053
-101.918	215.514	0.109	-0.171
-100.903	-35.047	0.097	-0.052
-99.889	681.415	-0.126	0.322
-98.874	11.519	0.209	-0.157
-97.859	800.000	0.026	-0.084
-96.845	-87.622	-0.065	0.019
-95.830	148.545	0.142	0.189
-94.816	39.043	-0.027	0.024
-93.801	-200.000	0.043	0.257
-92.786	-38.177	-0.220	-0.114
-91.772	182.056	0.142	-0.206
-90.757	419.548	0.048	0.101
-89.743	-136.041	0.239	0.028
-88.728	94.961	0.093	-0.103
-87.713	-58.159	0.402	0.172
-86.699	-121.324	-0.299	0.049
-85.684	800.000	-0.081	-0.313
-84.670	51.061	0.080	0.075
-83.655	71.173	-0.151	-0.154
-82.640	78.432	0.255	0.267
-81.626	-117.072	0.232	0.042
-80.611	-144.235	-0.084	0.008
-79.597	-27.009	-0.205	0.117
-78.582	-200.000	0.010	0.401
-77.567	-153.856	0.027	0.002
-76.553	-147.642	0.358	-0.030
-75.538	800.000	0.049	0.135
-74.524	-59.191	-0.204	0.086
-73.509	-114.063	-0.311	0.059
-72.494	52.971	0.018	-0.017
-71.480	-65.854	0.145	-0.057
-70.465	-147.496	-0.263	-0.022
-69.451	-114.614	0.249	-0.047
-68.436	-158.899	0.334	-0.019
-67.422	-8.342	-0.224	0.148
-66.407	250.725	-0.146	0.243
-65.392	178.872	0.043	0.061
-64.378	38.246	-0.111	-0.097
-63.363	38.917	0.169	0.148
-62.349	-118.176	-0.158	-0.028
-61.334	88.114	-1.126	-1.225
-60.319	44.301	0.669	0.603
-59.305	-200.000	-0.192	-1.056
-58.290	308.178	0.495	0.905
-57.276	-200.000	0.293	1.384
-56.261	-200.000	108.975	595.483
-55.246	445.425	1487.977	3204.803
-54.232	145.778	2676.322	3517.318
-53.217	99.663	2285.853	2594.618
-52.203	38.378	1896.526	1656.725
-51.188	32.700	1685.505	1429.423
-50.173	30.015	1642.903	1373.366
-49.159	49.577	1696.668	1566.177
-48.144	49.695	1711.735	1580.914
-47.130	32.307	1669.297	1412.506
-46.115	29.551	1654.905	1379.709
-45.100	29.369	1649.776	1374.021
-44.086	29.360	1647.070	1371.651
-43.071	29.284	1645.020	1369.327
-42.057	29.339	1642.030	1367.191
-41.042	29.340	1639.518	1365.052
-40.027	29.364	1638.259	1364.121
-39.013	29.299	1636.255	1361.923
-37.998	29.233	1634.896	1360.248
-36.984	29.257	1633.843	1359.500
-35.969	29.491	1631.596	1359.294
-34.954	29.475	1630.612	1358.305
-33.940	29.466	1628.639	1356.541
-32.925	29.361	1627.229	1354.543
-31.911	29.341	1625.973	1353.297
-30.896	29.475	1623.514	1352.178
-29.881	29.395	1622.004	1350.279
-28.867	29.357	1620.915	1349.045
-27.852	29.422	1618.668	1347.593
-26.838	29.448	1617.534	1346.783
-25.823	29.453	1616.111	1345.581
-24.809	29.470	1614.827	1344.587
-23.794	29.450	1613.969	1343.670
-22.779	29.538	1611.948	1342.574
-21.765	29.364	1610.695	1340.215
-20.750	29.471	1608.592	1339.186
-19.736	29.471	1607.249	1338.020
-18.721	29.550	1605.993	1337.490
-17.706	29.525	1604.405	1335.937
-16.692	29.561	1602.607	1334.648
-15.677	29.538	1601.492	1333.497
-14.663	29.524	1600.489	1332.510
-13.648	29.457	1598.834	1330.591
-12.633	29.430	1597.234	1329.018
-11.619	29.479	1595.393	1327.787
-10.604	29.524	1594.023	1326.911
-9.590	29.444	1593.034	1325.460
-8.575	29.522	1591.835	1324.970
-7.560	29.425	1590.823	1323.381
-6.546	29.454	1589.526	1322.461
-5.531	29.441	1588.495	1321.451
-4.517	29.516	1587.106	1320.783
-3.502	29.486	1585.994	1319.591
-2.487	29.604	1583.345	1318.174
-1.473	29.266	1572.149	1306.411
-0.458	26.526	1553.605	1271.724
0.556	21.271	1554.877	1241.036
1.571	19.160	1578.287	1244.368
2.586	18.757	1591.696	1251.891
3.600	17.149	1538.781	1198.824
4.615	9.533	1429.243	1063.277
5.629	1.728	1365.122	966.110
6.644	0.272	1356.134	950.485
7.659	0.106	1355.406	948.843
8.673	0.054	1354.217	947.598
9.688	-0.031	1352.608	945.854
10.702	-0.162	1349.424	942.726
11.717	3.545	1355.258	970.052
12.731	12.078	1368.580	1033.486
13.746	17.236	1375.612	1071.306
14.761	17.283	1374.198	1070.406
15.775	16.241	1371.261	1061.473
16.790	15.175	1368.878	1052.842
17.804	14.363	1366.514	1045.834
18.819	14.001	1365.200	1042.461
19.834	13.745	1363.825	1039.720
20.848	13.528	1362.668	1037.387
21.863	13.305	1361.257	1034.822
22.877	13.184	1360.076	1033.076
23.892	13.041	1359.238	1031.456
24.907	13.111	1358.414	1031.177
25.921	13.115	1357.514	1030.424
26.936	13.236	1356.394	1030.240
27.950	13.288	1355.435	1029.746
28.965	13.253	1354.966	1029.076
29.980	13.353	1353.440	1028.449
30.994	13.363	1352.728	1027.879
32.009	13.434	1351.785	1027.517
33.023	13.394	1350.580	1026.256
34.038	13.348	1349.615	1025.150
35.053	13.269	1348.408	1023.651
36.067	13.268	1347.432	1022.815
37.082	13.339	1346.436	1022.406
38.096	13.296	1345.690	1021.483
39.111	13.299	1344.734	1020.686
40.126	13.304	1344.216	1020.237
41.140	13.135	1343.046	1018.213
42.155	13.022	1343.422	1017.710
43.169	13.056	1342.934	1017.460
44.184	13.038	1342.747	1017.123
45.199	13.169	1341.889	1017.186
46.213	13.148	1341.439	1016.625
47.228	13.310	1340.170	1016.569
48.242	13.211	1339.357	1015.255
49.257	13.249	1337.672	1014.119
50.271	13.298	1336.392	1013.362
51.286	13.301	1335.096	1012.310
52.301	13.230	1334.088	1011.017
53.315	13.216	1333.006	1010.023
54.330	13.187	1331.908	1008.926
55.344	13.102	1330.412	1007.184
56.359	13.103	1329.585	1006.474
57.374	13.111	1328.745	1005.799
58.388	13.150	1327.918	1005.323
59.403	13.036	1327.788	1004.440
60.417	13.010	1326.628	1003.315
61.432	13.011	1325.929	1002.707
62.447	13.079	1324.678	1002.085
63.461	13.014	1323.361	1000.604
64.476	12.920	1322.843	999.555
65.490	13.048	1321.307	999.083
66.505	13.046	1319.501	997.614
67.520	13.032	1318.351	996.573
68.534	13.087	1317.563	996.222
69.549	13.073	1316.361	995.140
70.563	13.083	1315.574	994.518
71.578	13.066	1314.327	993.384
72.593	12.914	1313.558	991.798
73.607	12.979	1312.775	991.513
74.622	12.915	1312.427	990.775
75.636	12.964	1311.154	990.019
76.651	12.952	1310.618	989.460
77.666	12.982	1309.925	989.026
78.680	12.999	1309.571	988.775
79.695	12.936	1308.779	987.710
80.709	12.963	1308.102	987.274
81.724	13.067	1307.569	987.410
82.739	13.159	1305.983	986.673
83.753	13.283	1304.861	986.476
84.768	13.251	1304.019	985.563
85.782	13.348	1302.308	984.759
86.797	13.420	1300.886	984.026
87.812	13.080	1300.796	981.846
88.826	13.208	1299.331	981.417
89.841	13.214	1298.275	980.564
90.855	13.326	1297.017	980.193
91.870	13.215	1296.861	979.332
92.884	13.245	1295.932	978.722
93.899	13.332	1295.067	978.496
94.914	13.294	1294.589	977.823
95.928	13.393	1293.157	977.237
96.943	13.218	1292.564	975.673
97.957	13.271	1291.275	974.928
98.972	13.309	1290.476	974.458
99.987	13.302	1289.726	973.764
101.001	13.304	1287.919	972.330
102.016	13.228	1287.510	971.486
103.030	13.368	1286.200	971.234
104.045	13.241	1285.490	969.868
105.060	13.320	1284.263	969.319
106.074	13.245	1283.273	968.044
107.089	13.023	1281.756	965.518
108.103	13.135	1280.511	965.146
109.118	13.067	1279.398	963.827
110.133	13.145	1277.796	962.990
111.147	13.132	1276.435	961.803
112.162	13.161	1275.092	960.874
113.176	13.136	1274.613	960.282
114.191	13.244	1272.937	959.565
115.206	13.182	1272.293	958.630
116.220	13.202	1271.002	957.693
117.235	13.186	1269.759	956.578
118.249	13.126	1269.159	955.696
119.264	13.190	1267.449	954.690
120.279	13.081	1266.575	953.318
121.293	13.120	1265.419	952.588
122.308	13.087	1264.453	951.589
123.322	13.133	1263.290	950.893
124.337	13.155	1262.369	950.240
125.352	13.142	1261.261	949.249
126.366	13.020	1260.201	947.664
127.381	13.140	1259.123	947.461
128.395	13.189	1257.809	946.670
129.410	13.224	1256.807	946.032
130.424	13.179	1256.123	945.176
131.439	13.232	1255.676	945.061
132.454	13.121	1254.646	943.564
133.468	13.269	1253.553	943.504
134.483	13.258	1252.533	942.590
135.497	13.159	1252.158	941.663
136.512	13.235	1250.143	940.496
137.527	13.209	1249.182	939.543
138.541	13.258	1247.534	938.497
139.556	13.255	1246.070	937.297
140.570	13.224	1245.407	936.540
141.585	13.210	1244.270	935.523
142.600	13.328	1242.701	934.928
143.614	13.315	1242.399	934.544
144.629	13.439	1240.843	933.988
145.643	13.450	1239.782	933.169
146.658	13.420	1238.344	931.838
147.673	13.299	1237.573	930.492
148.687	13.297	1236.447	929.551
149.702	13.254	1235.066	928.191
150.716	13.226	1234.084	927.212
151.731	13.258	1232.608	926.203
152.746	13.300	1231.291	925.365
153.760	13.402	1230.252	925.071
154.775	13.355	1229.144	923.892
155.789	13.423	1228.489	923.698
156.804	13.352	1227.409	922.410
157.819	13.440	1226.392	922.056
158.833	13.516	1225.461	921.697
159.848	13.590	1224.198	921.077
160.862	13.506	1223.663	920.128
161.877	13.476	1222.282	918.839
162.892	13.393	1221.378	917.617
163.906	13.328	1220.725	916.683
164.921	13.381	1219.481	915.962
165.935	13.431	1218.542	915.455
166.950	13.532	1217.808	915.383
167.964	13.551	1217.009	914.806
168.979	13.486	1216.354	913.870
169.994	13.586	1215.792	913.923
171.008	13.568	1214.593	912.839
172.023	13.482	1214.379	912.123
173.037	13.559	1213.399	911.731
174.052	13.690	1212.414	911.628
175.067	13.614	1211.410	910.378
176.081	13.615	1210.610	909.700
177.096	13.644	1209.526	908.965
178.110	13.522	1208.457	907.410
179.125	13.435	1207.372	906.043
180.140	13.484	1206.554	905.615
181.154	13.592	1204.659	904.704
182.169	13.610	1203.601	903.929
183.183	13.723	1202.640	903.740
184.198	13.766	1201.404	902.963
185.213	13.775	1200.363	902.151
186.227	13.825	1198.573	900.997
187.242	13.777	1197.967	900.201
188.256	13.894	1197.283	900.242
189.271	13.876	1196.069	899.155
190.286	13.722	1194.978	897.419
191.300	13.617	1194.404	896.343
192.315	13.504	1193.973	895.328
193.329	13.626	1193.081	895.242
194.344	13.640	1192.468	894.773
195.359	13.717	1192.103	894.836
196.373	13.731	1191.220	894.175
197.388	13.795	1190.936	894.224
198.402	13.908	1190.007	894.055
199.417	13.951	1189.339	893.709
200.432	13.911	1188.720	892.947
201.446	13.986	1187.608	892.435
202.461	14.008	1187.058	892.061
203.475	14.025	1185.566	890.952
204.490	14.065	1183.882	889.822
205.504	13.979	1183.188	888.762
206.519	13.957	1181.878	887.583
207.534	13.903	1180.824	886.424
208.548	13.837	1180.076	885.432
209.563	14.022	1179.003	885.536
210.577	13.965	1178.152	884.511
211.592	14.022	1177.661	884.371
212.607	14.199	1176.136	884.087
213.621	14.125	1175.569	883.191
214.636	14.167	1174.888	882.821
215.650	14.132	1173.924	881.835
216.665	14.166	1173.100	881.319
217.680	14.164	1172.086	880.465
218.694	14.227	1171.300	880.132
219.709	14.251	1170.218	879.369
220.723	14.247	1169.599	878.803
221.738	14.184	1169.108	878.022
222.753	14.209	1168.427	877.567
223.767	14.212	1167.955	877.150
224.782	14.248	1167.364	876.819
225.796	14.327	1166.334	876.381
226.811	14.224	1165.874	875.420
227.826	14.367	1165.123	875.528
228.840	14.368	1164.400	874.911
229.855	14.350	1163.415	874.001
230.869	14.267	1162.890	873.094
231.884	14.299	1161.924	872.458
232.899	14.240	1160.955	871.347
233.913	14.225	1160.181	870.607
234.928	14.385	1159.311	870.717
235.942	14.282	1158.755	869.682
236.957	14.317	1158.016	869.236
237.972	14.337	1157.459	868.845
238.986	14.247	1157.140	868.056
240.001	14.334	1156.214	867.741
241.015	14.353	1155.314	867.089
242.030	14.391	1154.676	866.728
243.045	14.356	1154.233	866.139
244.059	14.347	1152.988	865.081
245.074	14.421	1152.280	864.854
246.088	14.467	1151.304	864.288
247.103	14.580	1150.257	864.010
248.117	14.581	1149.484	863.357
249.132	14.727	1148.882	863.582
250.147	14.640	1148.635	862.872
251.161	14.788	1147.568	862.759
252.176	14.741	1147.205	862.167
253.190	14.772	1146.304	861.573
254.205	14.774	1146.032	861.301
255.220	14.826	1145.407	861.024
256.234	14.819	1145.077	860.665
257.249	14.825	1143.937	859.762
258.263	14.802	1143.418	859.178
259.278	14.957	1142.581	859.266
260.293	14.849	1142.077	858.258
261.307	15.065	1141.106	858.558
262.322	14.947	1140.917	857.737
263.336	14.962	1140.118	857.139
264.351	15.018	1139.521	856.901
265.366	15.066	1138.600	856.378
266.380	15.015	1138.134	855.689
267.395	14.981	1137.436	854.915
268.409	15.053	1136.535	854.529
269.424	14.971	1136.472	853.989
270.439	15.013	1135.690	853.538
271.453	14.930	1135.102	852.600
272.468	14.978	1133.599	851.639
273.482	14.994	1132.837	851.075
274.497	14.955	1132.829	850.794
275.512	14.994	1132.259	850.488
276.526	15.097	1131.233	850.163
277.541	15.166	1130.113	849.598
278.555	15.176	1129.544	849.146
279.570	15.229	1128.896	848.852
280.585	15.262	1127.897	848.194
281.599	15.308	1126.971	847.654
282.614	15.125	1126.771	846.504
283.628	15.142	1125.156	845.300
284.643	15.088	1124.472	844.439
285.657	15.153	1123.507	843.967
286.672	15.159	1122.807	843.397
287.687	15.161	1121.694	842.497
288.701	15.216	1121.135	842.281
289.716	15.216	1120.178	841.487
290.730	15.267	1119.333	841.030
291.745	15.322	1118.883	840.895
292.760	15.378	1117.902	840.366
293.774	15.434	1117.326	840.137
294.789	15.424	1117.022	839.785
295.803	15.430	1116.009	838.981
296.818	15.356	1115.567	838.202
297.833	15.323	1114.914	837.472
298.847	15.402	1114.215	837.266
299.862	15.469	1113.088	836.681
300.876	15.502	1112.386	836.243
301.891	15.446	1111.862	835.497
302.906	15.427	1111.351	834.944
303.920	15.475	1110.743	834.655
304.935	15.512	1110.155	834.319
305.949	15.544	1109.280	833.749
306.964	15.646	1108.627	833.687
307.979	15.561	1108.309	832.953
308.993	15.585	1107.122	832.106
310.008	15.501	1106.865	831.423
311.022	15.642	1105.617	831.111
312.037	15.743	1104.632	830.796
313.052	15.617	1103.757	829.441
314.066	15.632	1102.811	828.735
315.081	15.643	1102.022	828.119
316.095	15.634	1101.245	827.421
317.110	15.602	1100.654	826.744
318.125	15.612	1099.947	826.192
319.139	15.627	1099.268	825.683
320.154	15.719	1098.565	825.532
321.168	15.531	1098.352	824.374
322.183	15.673	1097.507	824.363
323.197	15.718	1096.708	823.914
324.212	15.658	1096.272	823.215
325.227	15.654	1095.825	822.791
326.241	15.670	1095.088	822.240
327.256	15.710	1094.134	821.647
328.270	15.774	1093.228	821.209
329.285	15.682	1092.172	819.894
330.300	15.719	1091.304	819.347
331.314	15.790	1090.510	819.025
332.329	15.699	1089.654	817.865
333.343	15.798	1088.776	817.616
334.358	15.868	1088.042	817.334
335.373	15.927	1087.318	817.003
336.387	15.862	1086.530	816.022
337.402	15.823	1085.756	815.181
338.416	15.888	1085.136	814.959
339.431	15.963	1084.802	815.000
340.446	16.127	1083.527	814.762
341.460	15.932	1083.351	813.614
342.475	16.082	1082.374	813.534
343.489	16.112	1081.334	812.823
344.504	16.134	1080.423	812.175
345.519	16.188	1079.461	811.636
346.533	16.158	1079.098	811.149
347.548	16.206	1078.345	810.742
348.562	16.148	1077.445	809.714
349.577	16.143	1077.046	809.321
350.592	16.095	1076.435	808.560
351.606	16.157	1075.173	807.836
352.621	16.182	1074.705	807.531
353.635	16.150	1074.049	806.817
354.650	16.061	1073.421	805.849
355.665	16.026	1072.831	805.166
356.679	16.190	1071.869	805.154
357.694	16.273	1071.227	804.998
358.708	16.274	1070.804	804.611
359.723	16.389	1069.971	804.465
360.738	16.246	1069.710	803.516
361.752	16.327	1068.957	803.263
362.767	16.247	1068.752	802.659
363.781	16.399	1067.815	802.604
364.796	16.506	1067.078	802.490
365.810	16.371	1067.108	801.800
366.825	16.491	1066.132	801.565
367.840	16.504	1065.648	801.190
368.854	16.620	1064.983	801.170
369.869	16.537	1064.105	800.045
370.883	16.529	1063.124	799.199
371.898	16.546	1062.427	798.686
372.913	16.413	1062.031	797.688
373.927	16.613	1061.370	798.066
374.942	16.647	1060.675	797.633
375.956	16.520	1060.737	797.011
376.971	16.631	1059.921	796.847
377.986	16.649	1059.298	796.394
379.000	16.676	1058.809	796.085
380.015	16.738	1058.270	795.900
381.029	16.806	1057.435	795.522
382.044	16.785	1056.655	794.762
383.059	16.691	1056.734	794.311
384.073	16.756	1055.649	793.729
385.088	16.764	1054.473	792.812
386.102	16.767	1053.784	792.238
387.117	16.668	1052.682	790.877
388.132	16.794	1051.097	790.207
389.146	16.734	1050.916	789.722
390.161	16.638	1050.592	788.957
391.175	16.711	1049.960	788.755
392.190	16.751	1049.396	788.447
393.205	16.883	1048.285	788.154
394.219	16.986	1047.275	787.807
395.234	16.997	1046.622	787.294
396.248	16.913	1045.484	785.981
397.263	16.917	1044.553	785.230
398.278	16.967	1043.660	784.720
399.292	16.813	1043.265	783.641
400.307	16.812	1042.451	782.955
401.321	16.790	1041.995	782.443
402.336	16.853	1041.538	782.323
403.350	16.781	1040.804	781.368
404.365	16.869	1040.086	781.165
405.380	16.788	1039.368	780.184
406.394	16.974	1038.473	780.299
407.409	16.969	1037.719	779.639
408.423	17.129	1037.183	779.904
409.438	17.114	1036.389	779.171
410.453	17.159	1035.594	778.707
411.467	17.058	1035.062	777.778
412.482	17.192	1034.490	777.891
413.496	17.141	1034.100	777.298
414.511	17.264	1033.571	777.395
415.526	17.346	1032.558	776.936
416.540	17.341	1032.228	776.595
417.555	17.365	1031.463	776.061
418.569	17.306	1031.117	775.466
419.584	17.282	1030.915	775.136
420.599	17.384	1030.061	774.888
421.613	103.472	1322.102	1469.443
422.628	94.677	1364.613	1469.522
