DTS Sentinel unit serial number:	SN413079Multiplexer serial number:	ORYXHardware model number:	OX4-SRSoftware version number:	ORYX F/W v4.00 Oryx Data Collector v3.7.2.0data status	okinstallation	princeton_trtdifferential loss correction	single-endedforward channel	channel 2reverse channel	N/Adate	2019/09/18time	02:11:34forward acquisition time	60.00reverse acquisition time	0.00gamma	496.2192k internal	0.2350k external	0.2350temperature offset calibration	0.9980default loss term (dB/km)	0.3790temperature slope calibration	1.0000multiplexer offset coefficient	1.0000multiplexer slope coefficient	1.0000fibre end	0.00T internal ref (°C)	22.87T ext. ref 1 (°C)	0.17T ext. ref 2 (°C)	16.79length (m)	temperature (°C)	Stokes	anti-Stokes-747.200	-200.000	0.002	0.095
-746.185	-200.000	-0.080	0.463
-745.171	12.319	0.172	-0.132
-744.156	800.000	0.075	0.326
-743.142	-200.000	-0.046	-0.306
-742.127	22.253	-0.171	0.139
-741.112	403.202	-0.029	-0.060
-740.098	-121.799	-0.182	0.030
-739.083	-200.000	-0.049	-0.310
-738.069	292.060	-0.104	0.189
-737.054	-16.965	0.322	-0.203
-736.039	-131.093	-0.493	-0.066
-735.025	-200.000	0.023	0.282
-734.010	110.226	-0.331	-0.396
-732.996	428.348	-0.062	-0.134
-731.981	-140.092	0.100	0.011
-730.966	-6.715	0.174	0.118
-729.952	-21.895	-0.095	-0.058
-728.937	-2.262	-0.036	-0.025
-727.923	-142.262	-0.275	-0.027
-726.908	-200.000	0.004	-0.295
-725.894	-66.674	-0.200	0.079
-724.879	-25.105	0.376	0.222
-723.864	17.052	-0.106	0.084
-722.850	-200.000	-0.010	0.120
-721.835	298.864	0.088	-0.162
-720.821	-81.230	0.135	0.044
-719.806	-90.669	-0.317	-0.091
-718.791	269.989	-0.135	0.237
-717.777	518.089	-0.178	0.416
-716.762	-32.614	-0.384	0.213
-715.748	-200.000	0.028	-0.564
-714.733	800.000	-0.040	-0.132
-713.718	27.895	0.053	-0.044
-712.704	-86.194	0.135	0.042
-711.689	-12.050	-0.386	-0.252
-710.675	-200.000	-0.001	0.054
-709.660	22.825	-0.220	-0.180
-708.645	-200.000	0.055	0.295
-707.631	405.428	-0.033	0.068
-706.616	-82.916	-0.248	-0.080
-705.602	100.213	0.221	-0.256
-704.587	-29.912	0.336	-0.191
-703.572	-85.784	0.226	-0.070
-702.558	-31.081	0.307	0.173
-701.543	-200.000	-0.007	-0.264
-700.529	-200.000	0.030	-0.212
-699.514	8.716	0.259	-0.195
-698.499	60.202	0.099	-0.098
-697.485	-200.000	-0.064	0.354
-696.470	122.565	-0.090	-0.112
-695.456	-131.278	-0.233	-0.031
-694.441	-102.883	-0.186	-0.044
-693.426	184.791	-0.098	0.144
-692.412	31.673	0.103	-0.089
-691.397	36.784	-0.319	-0.281
-690.383	-38.478	0.100	0.053
-689.368	9.459	0.066	0.050
-688.354	-154.265	-0.245	0.016
-687.339	183.340	0.080	-0.118
-686.324	401.147	-0.212	-0.444
-685.310	11.175	-0.448	0.342
-684.295	-95.665	0.316	-0.084
-683.281	-113.745	-0.165	-0.032
-682.266	-59.658	0.050	-0.022
-681.251	-79.122	-0.138	0.047
-680.237	800.000	-0.092	0.297
-679.222	-200.000	-0.006	0.102
-678.208	-117.705	0.235	-0.042
-677.193	12.272	-0.297	0.228
-676.178	-35.539	-0.215	-0.116
-675.164	132.792	-0.074	0.095
-674.149	-200.000	-0.037	-0.385
-673.135	-200.000	0.001	0.056
-672.120	-85.513	-0.062	0.019
-671.105	-2.735	0.233	-0.162
-670.091	-52.329	0.285	0.132
-669.076	781.860	0.046	0.126
-668.062	165.722	-0.066	-0.093
-667.047	-54.801	-0.160	0.072
-666.032	-98.407	0.145	0.037
-665.018	-26.365	0.255	-0.149
-664.003	195.799	0.113	0.171
-662.989	72.535	0.087	-0.090
-661.974	8.420	-0.178	0.133
-660.959	-11.458	-0.092	-0.060
-659.945	27.687	-0.289	0.242
-658.930	-200.000	-0.007	-0.373
-657.916	61.408	0.093	0.092
-656.901	-124.022	-0.047	0.007
-655.886	-40.322	0.223	-0.115
-654.872	-71.940	0.034	0.012
-653.857	163.873	0.139	-0.194
-652.843	-113.885	0.493	0.095
-651.828	323.216	-0.083	0.157
-650.814	-115.476	0.117	0.022
-649.799	-200.000	0.022	-0.480
-648.784	79.893	0.261	-0.279
-647.770	-200.000	-0.031	-0.295
-646.755	-181.076	0.082	-0.002
-645.741	-138.306	-0.262	0.029
-644.726	-200.000	0.004	-0.075
-643.711	800.000	0.093	-0.338
-642.697	137.036	0.128	-0.166
-641.682	-200.000	-0.020	-0.151
-640.668	-200.000	-0.008	0.382
-639.653	-119.576	-0.258	0.044
-638.638	-177.653	-0.172	0.004
-637.624	372.358	-0.100	0.202
-636.609	-103.103	-0.181	0.043
-635.595	-141.304	-0.072	0.007
-634.580	413.904	-0.030	0.064
-633.565	-72.299	0.187	0.069
-632.551	-167.415	0.405	-0.016
-631.536	-69.004	-0.169	0.065
-630.522	222.727	-0.153	0.244
-629.507	-107.555	0.241	-0.052
-628.492	185.700	-0.054	0.079
-627.478	-64.431	-0.223	-0.090
-626.463	-90.007	0.161	-0.047
-625.449	-200.000	0.003	-0.224
-624.434	-62.930	-0.228	0.094
-623.419	-8.943	-0.120	-0.080
-622.405	-55.449	-0.217	-0.097
-621.390	-86.704	-0.168	0.051
-620.376	800.000	0.058	0.251
-619.361	158.724	0.092	-0.127
-618.346	228.900	0.110	-0.179
-617.332	-19.405	-0.204	-0.126
-616.317	-200.000	0.009	-0.144
-615.303	365.877	0.169	0.339
-614.288	-28.919	0.181	-0.103
-613.273	147.117	-0.300	-0.400
-612.259	21.666	-0.244	0.198
-611.244	-111.006	0.317	-0.065
-610.230	69.295	-0.352	0.359
-609.215	800.000	0.022	-0.085
-608.201	-200.000	-0.022	-0.420
-607.186	3.437	0.040	0.029
-606.171	-24.670	0.117	-0.069
-605.157	-200.000	-0.028	0.158
-604.142	447.827	-0.151	0.330
-603.128	-200.000	-0.041	-0.232
-602.113	370.835	-0.152	-0.306
-601.098	-55.200	0.190	-0.085
-600.084	-40.352	-0.209	0.108
-599.069	-200.000	0.050	0.281
-598.055	730.698	-0.070	0.187
-597.040	214.195	0.237	0.373
-596.025	-200.000	0.017	-0.110
-595.011	54.563	0.157	-0.150
-593.996	-111.954	-0.069	0.014
-592.982	-98.482	-0.210	-0.053
-591.967	131.083	-0.100	0.128
-590.952	358.152	-0.078	0.154
-589.938	-129.092	-0.354	-0.049
-588.923	-56.037	0.510	-0.225
-587.909	-73.364	0.057	0.021
-586.894	-43.388	-0.262	0.131
-585.879	-6.954	-0.217	0.146
-584.865	-200.000	0.013	0.290
-583.850	-15.890	0.082	0.052
-582.836	-200.000	0.021	0.153
-581.821	-107.961	-0.223	-0.048
-580.806	110.021	-0.123	0.147
-579.792	-11.653	-0.229	-0.149
-578.777	-133.057	0.017	-0.002
-577.763	156.268	-0.191	-0.261
-576.748	297.192	-0.102	0.186
-575.733	-99.256	-0.191	0.048
-574.719	-52.896	-0.131	-0.060
-573.704	-200.000	0.002	-0.082
-572.690	119.101	0.079	0.097
-571.675	483.618	0.072	0.163
-570.661	474.574	0.055	0.122
-569.646	16.427	-0.335	-0.262
-568.631	88.691	-0.163	-0.180
-567.617	800.000	0.035	0.099
-566.602	800.000	-0.054	-0.160
-565.588	300.071	0.065	-0.119
-564.573	-37.460	0.146	-0.077
-563.558	536.572	0.140	0.329
-562.544	-87.962	-0.352	-0.105
-561.529	-149.912	0.134	0.010
-560.515	8.752	0.061	-0.045
-559.500	-200.000	-0.031	0.252
-558.485	82.043	0.181	-0.194
-557.471	-108.625	-0.017	0.004
-556.456	800.000	-0.136	-0.422
-555.442	514.194	-0.097	-0.225
-554.427	-200.000	-0.127	0.000
-553.412	753.194	0.086	-0.231
-552.398	143.017	-0.056	0.074
-551.383	-0.861	0.172	0.121
-550.369	4.434	-0.249	0.181
-549.354	800.000	0.012	0.035
-548.339	-107.153	0.227	-0.050
-547.325	630.109	-0.154	-0.386
-546.310	-157.320	0.131	0.008
-545.296	-200.000	-0.033	-0.226
-544.281	11.797	0.355	-0.270
-543.266	-200.000	-0.038	-0.184
-542.252	0.049	0.328	0.231
-541.237	223.061	-0.287	-0.458
-540.223	174.591	0.069	-0.099
-539.208	-200.000	-0.065	0.324
-538.193	-145.806	0.123	0.011
-537.179	-181.485	-0.230	-0.004
-536.164	194.340	-0.193	-0.289
-535.150	-134.125	-0.073	-0.009
-534.135	154.557	0.177	-0.241
-533.121	-47.221	-0.073	-0.035
-532.106	315.039	-0.191	-0.357
-531.091	-57.377	-0.094	0.041
-530.077	-76.296	0.293	-0.102
-529.062	203.883	0.046	0.071
-528.048	-200.000	-0.016	-0.078
-527.033	-14.676	-0.289	0.184
-526.018	800.000	-0.086	0.257
-525.004	-200.000	-0.007	0.245
-523.989	800.000	-0.034	0.137
-522.975	-126.184	-0.299	0.044
-521.960	-83.604	-0.479	-0.152
-520.945	113.143	0.115	0.138
-519.931	16.041	-0.272	0.212
-518.916	-200.000	0.033	-0.154
-517.902	-21.729	-0.050	-0.030
-516.887	800.000	0.033	-0.096
-515.872	-200.000	-0.033	-0.149
-514.858	751.691	0.016	0.044
-513.843	-15.094	0.078	-0.050
-512.829	-82.574	0.185	0.059
-511.814	-200.000	0.011	-0.085
-510.799	265.952	-0.218	-0.376
-509.785	91.530	0.257	-0.285
-508.770	74.833	-0.157	-0.163
-507.756	5.065	-0.072	0.053
-506.741	800.000	0.031	-0.117
-505.726	423.521	-0.086	-0.184
-504.712	-67.702	-0.193	-0.075
-503.697	-200.000	-0.023	-0.180
-502.683	800.000	0.072	-0.207
-501.668	-183.043	-0.101	0.002
-500.653	-36.736	0.029	-0.016
-499.639	149.135	0.089	-0.119
-498.624	-200.000	0.021	-0.198
-497.610	-200.000	0.008	0.235
-496.595	507.432	-0.105	0.241
-495.581	-100.573	0.356	-0.087
-494.566	-9.270	0.212	-0.140
-493.551	-83.323	-0.158	0.050
-492.537	-91.132	-0.430	-0.122
-491.522	-102.944	-0.195	0.046
-490.508	-200.000	-0.005	0.145
-489.493	381.675	-0.183	0.373
-488.478	-200.000	-0.007	0.201
-487.464	-200.000	-0.052	-0.330
-486.449	125.181	0.139	-0.174
-485.435	451.738	0.135	0.295
-484.420	800.000	0.111	-0.307
-483.405	-8.870	0.150	-0.100
-482.391	50.433	-0.143	-0.133
-481.376	-118.910	-0.146	0.025
-480.362	-12.260	-0.018	-0.011
-479.347	-200.000	-0.045	-0.281
-478.332	155.887	-0.129	-0.175
-477.318	-9.692	0.068	0.045
-476.303	-200.000	0.004	0.090
-475.289	800.000	-0.083	-0.260
-474.274	-200.000	0.072	0.487
-473.259	-200.000	-0.056	0.329
-472.245	-57.997	0.394	0.170
-471.230	331.234	-0.106	-0.203
-470.216	100.978	0.145	-0.166
-469.201	-57.476	-0.086	-0.037
-468.186	276.871	0.077	-0.135
-467.172	-200.000	-0.028	0.140
-466.157	-53.536	-0.472	-0.213
-465.143	-79.876	-0.248	0.082
-464.128	-200.000	0.047	-0.219
-463.113	119.172	0.208	-0.254
-462.099	-67.928	-0.170	-0.066
-461.084	56.984	0.271	-0.261
-460.070	22.006	0.189	-0.153
-459.055	-79.855	0.135	-0.045
-458.040	-84.040	-0.214	-0.067
-457.026	272.207	0.232	-0.404
-456.011	-200.000	-0.077	-0.403
-454.997	183.534	-0.139	0.202
-453.982	429.694	0.084	0.179
-452.968	53.481	0.353	0.334
-451.953	26.312	0.277	-0.228
-450.938	86.608	-0.156	0.170
-449.924	94.958	0.150	0.169
-448.909	-93.948	-0.214	0.058
-447.895	-68.017	0.309	-0.119
-446.880	30.476	0.165	0.139
-445.865	-100.988	-0.450	-0.109
-444.851	38.674	0.199	-0.176
-443.836	117.160	0.320	-0.388
-442.822	-200.000	-0.019	-0.304
-441.807	800.000	-0.100	-0.279
-440.792	-200.000	-0.025	0.277
-439.778	25.486	-0.260	0.213
-438.763	-109.196	-0.192	-0.040
-437.749	91.827	-0.242	0.269
-436.734	664.180	0.124	0.316
-435.719	92.702	0.119	-0.133
-434.705	-27.369	0.157	-0.090
-433.690	241.403	0.083	0.137
-432.676	-66.032	0.396	-0.156
-431.661	-23.715	-0.420	0.249
-430.646	278.320	0.133	0.233
-429.632	-140.954	0.116	-0.012
-428.617	-170.005	-0.156	-0.005
-427.603	456.379	-0.132	0.290
-426.588	-200.000	0.014	0.146
-425.573	35.086	0.135	0.116
-424.559	15.630	0.203	0.158
-423.544	-200.000	-0.028	-0.247
-422.530	-115.051	-0.238	0.045
-421.515	-143.850	0.317	0.030
-420.500	-87.423	-0.210	-0.063
-419.486	260.857	-0.227	-0.388
-418.471	314.942	0.116	0.216
-417.457	-92.844	0.202	0.056
-416.442	-200.000	0.033	0.292
-415.428	-197.057	-0.095	-0.001
-414.413	275.053	-0.041	0.071
-413.398	-40.240	0.276	0.141
-412.384	-154.139	-0.309	0.021
-411.369	-200.000	-0.010	-0.181
-410.355	-200.000	0.070	0.326
-409.340	-5.430	-0.207	0.140
-408.325	6.298	-0.274	-0.201
-407.311	749.348	-0.091	0.242
-406.296	-67.892	-0.329	0.126
-405.282	3.245	-0.081	-0.058
-404.267	-76.192	-0.079	-0.028
-403.252	-200.000	-0.011	-0.303
-402.238	-117.509	-0.151	0.027
-401.223	-200.000	0.070	0.377
-400.209	800.000	0.068	-0.287
-399.194	89.939	0.213	-0.234
-398.179	231.375	0.109	-0.176
-397.165	-89.343	0.326	0.095
-396.150	45.101	-0.124	0.113
-395.136	-119.334	0.145	-0.025
-394.121	-200.000	0.025	0.224
-393.106	-200.000	-0.009	-0.262
-392.092	-38.774	0.090	-0.047
-391.077	317.409	0.048	0.089
-390.063	-39.810	0.105	-0.054
-389.048	-65.477	0.226	0.089
-388.033	800.000	0.099	-0.328
-387.019	800.000	0.093	-0.312
-386.004	800.000	0.072	-0.256
-384.990	-87.744	0.200	-0.059
-383.975	49.474	0.339	0.314
-382.960	-17.051	0.330	0.205
-381.946	-93.440	-0.450	-0.123
-380.931	42.281	0.187	-0.167
-379.917	504.720	-0.033	0.075
-378.902	-200.000	0.035	-0.171
-377.888	620.062	-0.181	0.449
-376.873	-79.087	0.195	0.065
-375.858	-164.397	-0.151	0.007
-374.844	-200.000	0.012	-0.198
-373.829	380.124	-0.063	-0.128
-372.815	64.161	0.089	0.088
-371.800	-171.412	-0.289	0.009
-370.785	38.537	0.210	0.184
-369.771	26.471	-0.275	-0.226
-368.756	-110.726	0.218	0.044
-367.742	-72.918	-0.331	0.120
-366.727	800.000	0.051	-0.153
-365.712	-151.475	-0.217	-0.016
-364.698	-200.000	-0.016	-0.180
-363.683	-32.135	-0.313	0.172
-362.669	-200.000	0.018	-0.160
-361.654	-179.495	-0.234	-0.005
-360.639	-200.000	0.024	0.265
-359.625	125.421	0.205	0.255
-358.610	-144.958	-0.315	0.028
-357.596	-159.001	-0.064	0.004
-356.581	800.000	-0.113	0.364
-355.566	800.000	-0.140	0.481
-354.552	800.000	-0.052	-0.152
-353.537	-66.755	0.297	-0.116
-352.523	-0.057	0.255	0.178
-351.508	184.618	0.185	-0.270
-350.493	-59.293	0.299	0.127
-349.479	800.000	0.097	-0.336
-348.464	84.011	-0.119	-0.127
-347.450	255.332	-0.194	-0.327
-346.435	-16.530	-0.164	-0.102
-345.420	800.000	-0.051	-0.214
-344.406	800.000	-0.014	0.050
-343.391	488.561	-0.113	0.254
-342.377	-200.000	0.037	0.226
-341.362	-200.000	-0.024	-0.141
-340.348	-36.316	0.142	0.075
-339.333	52.691	0.053	-0.049
-338.318	-27.517	-0.213	0.122
-337.304	-200.000	0.005	0.268
-336.289	-87.611	-0.202	-0.060
-335.275	-200.000	0.042	0.283
-334.260	-200.000	-0.085	0.395
-333.245	-87.627	-0.011	0.003
-332.231	-42.519	-0.188	0.094
-331.216	101.330	0.018	-0.020
-330.202	-134.361	0.068	0.008
-329.187	800.000	-0.037	0.127
-328.172	8.089	0.156	0.115
-327.158	112.953	-0.144	0.171
-326.143	-200.000	0.003	-0.181
-325.129	599.824	-0.055	-0.135
-324.114	471.108	0.036	0.079
-323.099	-200.000	0.012	-0.239
-322.085	474.651	0.108	-0.240
-321.070	-29.938	-0.186	-0.104
-320.056	-200.000	-0.029	-0.159
-319.041	-200.000	0.022	-0.097
-318.026	48.442	-0.098	-0.090
-317.012	-92.368	0.114	-0.032
-315.997	-59.288	-0.083	0.035
-314.983	-200.000	0.020	0.125
-313.968	-49.236	0.246	0.116
-312.953	-128.717	0.279	0.039
-311.939	-71.515	-0.040	0.015
-310.924	262.089	0.090	0.154
-309.910	-102.252	-0.120	-0.028
-308.895	-200.000	0.040	0.224
-307.880	-52.092	-0.074	0.034
-306.866	-31.815	0.331	-0.182
-305.851	-47.896	0.259	0.123
-304.837	-11.794	0.436	0.281
-303.822	132.343	-0.194	-0.245
-302.807	-116.796	0.178	-0.032
-301.793	65.219	-0.099	0.098
-300.778	331.621	0.175	0.331
-299.764	36.554	0.201	0.174
-298.749	-42.354	-0.151	0.076
-297.735	800.000	0.030	0.088
-296.720	33.791	0.194	-0.166
-295.705	225.149	-0.079	0.126
-294.691	-66.511	-0.106	0.041
-293.676	423.487	-0.077	0.163
-292.662	71.970	-0.106	-0.108
-291.647	15.949	-0.107	-0.083
-290.632	-5.896	-0.186	0.125
-289.618	114.908	0.207	0.248
-288.603	800.000	-0.040	-0.132
-287.589	-16.392	-0.081	0.050
-286.574	-81.008	-0.107	0.035
-285.559	-60.319	0.253	-0.106
-284.545	105.026	-0.110	0.128
-283.530	-105.091	-0.184	0.041
-282.516	-200.000	0.004	0.032
-281.501	145.518	0.106	-0.139
-280.486	-200.000	-0.006	-0.109
-279.472	-12.568	-0.240	-0.153
-278.457	-60.567	0.355	-0.148
-277.443	-200.000	0.063	0.351
-276.428	303.882	0.122	0.221
-275.413	-131.711	-0.037	-0.005
-274.399	209.867	0.069	0.106
-273.384	-7.954	-0.403	0.266
-272.370	-154.256	-0.137	-0.009
-271.355	-79.245	0.076	-0.025
-270.340	320.259	-0.039	-0.073
-269.326	50.358	0.267	-0.247
-268.311	-200.000	-0.002	0.228
-267.297	-200.000	-0.015	-0.496
-266.282	-20.744	-0.080	-0.048
-265.267	19.381	0.162	0.127
-264.253	-78.089	-0.048	-0.016
-263.238	-200.000	0.001	0.140
-262.224	-24.209	0.330	0.193
-261.209	-200.000	-0.027	0.117
-260.195	-173.289	-0.144	0.004
-259.180	686.543	0.070	0.179
-258.165	-200.000	-0.025	0.337
-257.151	287.854	-0.049	0.086
-256.136	63.332	-0.094	-0.092
-255.122	800.000	0.089	-0.357
-254.107	-200.000	0.065	-0.311
-253.092	-119.153	0.093	-0.016
-252.078	50.490	0.208	0.193
-251.063	96.369	-0.167	-0.187
-250.049	-200.000	-0.004	-0.219
-249.034	369.755	-0.031	0.061
-248.019	-200.000	0.035	-0.576
-247.005	91.746	-0.146	0.161
-245.990	185.656	0.138	0.200
-244.976	145.207	-0.195	0.255
-243.961	-175.662	0.208	-0.005
-242.946	-83.836	0.183	0.057
-241.932	-200.000	0.095	0.432
-240.917	-75.217	-0.078	0.027
-239.903	-54.594	-0.272	-0.120
-238.888	-49.089	0.325	0.152
-237.873	-200.000	-0.001	0.067
-236.859	-116.253	0.158	0.029
-235.844	-1.183	-0.127	0.088
-234.830	-200.000	-0.021	-0.322
-233.815	68.608	0.124	0.124
-232.800	643.751	-0.095	0.237
-231.786	-200.000	0.010	-0.227
-230.771	8.618	-0.179	-0.132
-229.757	7.095	0.117	-0.086
-228.742	106.000	-0.045	-0.052
-227.727	-26.596	0.164	-0.094
-226.713	-64.310	0.353	0.141
-225.698	50.324	0.351	-0.324
-224.684	11.041	0.277	-0.207
-223.669	689.563	0.040	-0.104
-222.655	135.038	0.118	0.150
-221.640	-200.000	0.028	0.272
-220.625	194.335	-0.287	0.426
-219.611	-5.070	0.233	-0.157
-218.596	9.169	-0.442	-0.327
-217.582	-200.000	0.041	-0.178
-216.567	-200.000	-0.012	0.111
-215.552	73.420	-0.117	0.120
-214.538	53.522	0.126	-0.118
-213.523	102.027	-0.196	-0.223
-212.509	-140.343	0.254	-0.026
-211.494	-22.914	0.245	0.144
-210.479	223.394	0.071	0.112
-209.465	800.000	-0.063	0.212
-208.450	-124.631	0.188	0.028
-207.436	131.261	-0.159	0.199
-206.421	226.257	0.088	0.139
-205.406	-7.320	-0.160	0.106
-204.392	455.019	-0.057	-0.123
-203.377	-100.167	0.079	-0.019
-202.363	-155.905	0.401	0.025
-201.348	-61.472	0.199	0.082
-200.333	639.264	0.041	-0.103
-199.319	51.533	0.129	0.120
-198.304	8.467	-0.060	0.044
-197.290	94.494	-0.065	0.073
-196.275	473.284	-0.044	-0.096
-195.260	70.292	0.237	0.239
-194.246	-157.917	0.311	-0.018
-193.231	-200.000	0.034	-0.277
-192.217	-200.000	-0.012	0.161
-191.202	-52.474	0.213	-0.096
-190.187	223.104	-0.114	0.179
-189.173	70.319	-0.167	0.168
-188.158	-82.784	0.268	0.085
-187.144	170.244	-0.137	-0.192
-186.129	800.000	0.109	0.295
-185.114	242.254	-0.158	0.259
-184.100	16.539	-0.183	-0.141
-183.085	-118.470	0.472	0.082
-182.071	-14.225	-0.265	0.167
-181.056	89.225	-0.173	0.188
-180.042	-52.998	0.273	0.123
-179.027	85.199	-0.479	0.513
-178.012	12.887	0.026	0.020
-176.998	-78.513	0.079	-0.026
-175.983	319.482	0.073	0.135
-174.969	278.029	0.074	0.128
-173.954	130.778	0.223	-0.279
-172.939	-135.257	0.288	-0.034
-171.925	13.468	-0.083	-0.063
-170.910	17.532	-0.178	0.138
-169.896	-200.000	0.031	-0.195
-168.881	194.393	0.104	0.154
-167.866	-200.000	0.009	-0.191
-166.852	19.695	-0.101	0.079
-165.837	-75.255	0.317	0.111
-164.823	130.424	-0.070	0.088
-163.808	-200.000	-0.045	0.202
-162.793	133.044	0.156	-0.196
-161.779	-168.081	-0.125	0.005
-160.764	-17.559	-0.085	0.052
-159.750	-82.776	0.182	-0.057
-158.735	-166.567	-0.183	-0.007
-157.720	800.000	-0.130	0.396
-156.706	180.329	0.181	-0.260
-155.691	-109.195	-0.316	0.066
-154.677	4.095	0.156	-0.111
-153.662	-67.324	0.138	-0.053
-152.647	257.107	-0.100	-0.167
-151.633	459.168	0.083	0.180
-150.618	800.000	-0.097	0.412
-149.604	5.900	0.285	-0.206
-148.589	-39.511	-0.052	-0.027
-147.574	-2.945	-0.105	-0.071
-146.560	-58.132	0.232	-0.099
-145.545	223.827	-0.178	-0.280
-144.531	-123.614	0.171	-0.026
-143.516	-200.000	0.037	0.164
-142.502	-200.000	-0.013	0.224
-141.487	255.770	-0.142	0.238
-140.472	-118.444	-0.056	-0.010
-139.458	800.000	-0.036	0.143
-138.443	-99.560	0.409	0.100
-137.429	800.000	0.055	0.231
-136.414	0.684	0.083	-0.058
-135.399	762.181	0.074	-0.195
-134.385	-33.350	-0.061	0.033
-133.370	-26.328	-0.147	-0.084
-132.356	-88.251	-0.192	-0.056
-131.341	39.635	-0.182	0.159
-130.326	-52.306	0.381	0.172
-129.312	-81.954	-0.277	-0.088
-128.297	105.984	-0.188	-0.217
-127.283	-71.104	-0.284	0.104
-126.268	800.000	-0.050	-0.194
-125.253	573.015	-0.044	-0.105
-124.239	800.000	-0.058	0.184
-123.224	27.315	0.124	0.102
-122.210	-21.517	-0.071	-0.042
-121.195	-200.000	0.038	-0.184
-120.180	557.803	-0.077	0.182
-119.166	63.699	-0.292	0.285
-118.151	-4.726	0.224	-0.151
-117.137	-105.564	-0.346	0.076
-116.122	226.793	0.174	-0.275
-115.107	-200.000	0.007	-0.113
-114.093	-200.000	0.022	0.278
-113.078	-20.718	0.126	0.075
-112.064	197.078	-0.128	-0.191
-111.049	15.453	-0.238	0.182
-110.034	-33.287	0.188	0.101
-109.020	315.461	0.075	0.138
-108.005	800.000	-0.055	0.222
-106.991	-30.596	0.441	-0.244
-105.976	-197.768	-0.250	0.001
-104.962	55.300	0.341	0.321
-103.947	18.081	-0.130	0.101
-102.932	171.289	-0.152	0.212
-101.918	-46.668	0.260	0.124
-100.903	-139.454	-0.105	0.011
-99.889	-41.874	0.047	-0.023
-98.874	118.400	0.338	0.406
-97.859	112.099	0.330	-0.388
-96.845	-156.863	-0.265	0.016
-95.830	83.129	0.121	-0.128
-94.816	800.000	-0.089	0.347
-93.801	-200.000	0.027	0.552
-92.786	157.417	-0.347	0.467
-91.772	22.624	0.232	-0.184
-90.757	-161.840	-0.291	0.014
-89.743	-50.139	0.154	-0.071
-88.728	174.550	0.056	0.079
-87.713	63.758	-0.088	0.086
-86.699	-24.459	0.006	-0.003
-85.684	-128.642	-0.158	0.022
-84.670	111.968	-0.128	-0.150
-83.655	-3.034	-0.046	-0.031
-82.640	-3.941	0.240	-0.162
-81.626	345.896	0.114	-0.218
-80.611	-9.054	0.381	0.248
-79.597	-52.980	-0.261	0.117
-78.582	-55.479	0.130	-0.057
-77.567	-200.000	0.016	0.419
-76.553	800.000	0.016	-0.046
-75.538	-71.146	0.123	-0.045
-74.524	91.349	0.111	-0.122
-73.509	-102.086	0.077	-0.018
-72.494	-48.641	0.165	-0.077
-71.480	800.000	0.094	-0.253
-70.465	-105.882	0.069	0.015
-69.451	49.141	-0.157	0.144
-68.436	-54.313	-0.302	0.133
-67.422	-118.571	0.130	-0.022
-66.407	-73.892	0.074	-0.026
-65.392	-13.994	0.439	0.275
-64.378	-167.723	0.177	-0.007
-63.363	-10.726	-0.154	0.099
-62.349	26.964	-0.044	0.036
-61.334	-10.686	-1.462	-0.940
-60.319	104.162	0.870	0.995
-59.305	331.579	-0.602	-1.129
-58.290	331.075	0.864	1.619
-57.276	800.000	0.576	1.577
-56.261	-200.000	127.412	676.178
-55.246	413.894	1605.646	3320.662
-54.232	138.723	2770.787	3536.703
-53.217	90.052	2301.828	2499.972
-52.203	32.043	1903.863	1594.784
-51.188	25.778	1699.252	1375.647
-50.173	23.741	1660.730	1329.182
-49.159	46.097	1730.819	1557.221
-48.144	43.237	1741.852	1545.223
-47.130	25.456	1693.016	1367.933
-46.115	22.915	1678.071	1336.604
-45.100	22.774	1672.888	1331.359
-44.086	22.738	1669.900	1328.652
-43.071	22.757	1667.603	1326.920
-42.057	22.755	1665.303	1325.017
-41.042	22.770	1663.156	1323.369
-40.027	22.769	1661.581	1322.058
-39.013	22.638	1659.687	1319.517
-37.998	22.685	1658.308	1318.723
-36.984	22.818	1656.961	1318.589
-35.969	22.875	1655.346	1317.681
-34.954	22.833	1654.233	1316.430
-33.940	22.893	1652.174	1315.183
-32.925	22.828	1650.507	1313.324
-31.911	22.914	1648.741	1312.500
-30.896	22.907	1647.234	1311.202
-29.881	22.820	1645.793	1309.353
-28.867	22.907	1644.098	1308.598
-27.852	22.791	1642.729	1306.596
-26.838	22.889	1641.235	1306.083
-25.823	22.842	1640.172	1304.836
-24.809	22.899	1638.643	1303.992
-23.794	22.867	1637.770	1303.005
-22.779	22.924	1635.925	1301.904
-21.765	22.964	1634.013	1300.631
-20.750	22.908	1632.536	1298.988
-19.736	23.009	1631.149	1298.578
-18.721	22.876	1630.486	1297.021
-17.706	22.883	1628.654	1295.565
-16.692	22.870	1627.094	1294.178
-15.677	22.985	1625.252	1293.502
-14.663	22.942	1624.001	1292.140
-13.648	22.916	1623.019	1291.118
-12.633	22.848	1621.589	1289.433
-11.619	22.860	1620.057	1288.250
-10.604	22.929	1618.653	1287.588
-9.590	22.942	1617.051	1286.351
-8.575	22.974	1615.300	1285.141
-7.560	22.914	1614.938	1284.366
-6.546	22.944	1613.625	1283.492
-5.531	22.895	1612.724	1282.367
-4.517	22.909	1611.171	1281.186
-3.502	22.888	1610.508	1280.449
-2.487	22.910	1608.622	1279.062
-1.473	22.449	1597.245	1266.648
-0.458	19.648	1577.269	1230.837
0.556	14.521	1579.697	1200.206
1.571	12.460	1603.331	1202.984
2.586	12.261	1615.173	1210.292
3.600	11.240	1561.391	1162.614
4.615	6.248	1455.073	1050.101
5.629	1.085	1397.509	975.304
6.644	0.195	1389.996	964.277
7.659	0.179	1389.080	963.451
8.673	0.123	1388.260	962.444
9.688	0.163	1385.787	960.899
10.702	-0.007	1382.693	957.584
11.717	2.566	1385.953	976.164
12.731	9.311	1395.839	1026.214
13.746	15.054	1404.953	1069.616
14.761	16.751	1406.786	1081.764
15.775	16.161	1404.691	1076.294
16.790	15.161	1402.435	1068.100
17.804	14.432	1399.962	1061.478
18.819	14.067	1398.449	1057.918
19.834	13.873	1397.121	1055.587
20.848	13.621	1395.882	1052.957
21.863	13.338	1394.931	1050.349
22.877	13.220	1393.451	1048.393
23.892	13.150	1392.704	1047.295
24.907	13.134	1391.675	1046.324
25.921	13.232	1390.767	1046.172
26.936	13.190	1390.325	1045.480
27.950	13.252	1388.630	1044.502
28.965	13.197	1387.804	1043.445
29.980	13.344	1386.743	1043.478
30.994	13.322	1385.944	1042.647
32.009	13.357	1385.118	1042.157
33.023	13.369	1383.761	1041.119
34.038	13.295	1382.701	1039.760
35.053	13.328	1381.147	1038.708
36.067	13.298	1380.490	1037.937
37.082	13.292	1379.298	1036.907
38.096	13.395	1378.186	1036.626
39.111	13.432	1377.576	1036.306
40.126	13.289	1376.434	1034.463
41.140	13.207	1376.045	1033.564
42.155	13.146	1375.477	1032.665
43.169	13.180	1375.411	1032.736
44.184	13.173	1374.716	1032.079
45.199	13.179	1374.766	1032.067
46.213	13.234	1373.848	1031.628
47.228	13.226	1373.041	1030.878
48.242	13.296	1371.735	1030.246
49.257	13.309	1370.224	1029.099
50.271	13.211	1369.150	1027.596
51.286	13.242	1367.613	1026.542
52.301	13.146	1366.753	1025.209
53.315	13.188	1365.390	1024.358
54.330	13.245	1364.133	1023.675
55.344	13.148	1363.193	1022.281
56.359	13.105	1362.054	1021.070
57.374	13.178	1360.472	1020.243
58.388	13.129	1360.076	1019.552
59.403	13.010	1359.792	1018.513
60.417	13.079	1358.855	1018.152
61.432	13.016	1358.106	1017.112
62.447	13.057	1356.868	1016.347
63.461	13.086	1355.369	1015.310
64.476	12.951	1354.570	1013.796
65.490	13.094	1353.120	1013.497
66.505	13.147	1351.446	1012.480
67.520	13.158	1350.368	1011.645
68.534	13.140	1349.316	1010.659
69.549	13.155	1348.033	1009.701
70.563	13.176	1347.042	1008.997
71.578	13.056	1345.923	1007.338
72.593	13.169	1344.981	1007.230
73.607	13.014	1344.591	1005.906
74.622	12.972	1343.456	1004.711
75.636	13.004	1343.256	1004.669
76.651	13.014	1341.695	1003.474
77.666	12.975	1341.442	1002.959
78.680	12.980	1340.763	1002.393
79.695	13.046	1340.014	1002.143
80.709	13.072	1339.441	1001.786
81.724	13.221	1338.215	1001.684
82.739	13.073	1337.391	1000.083
83.753	13.148	1336.344	999.664
84.768	13.246	1335.246	999.348
85.782	13.276	1333.705	998.287
86.797	13.225	1333.083	997.424
87.812	13.169	1331.337	995.695
88.826	13.112	1330.752	994.820
89.841	13.259	1329.250	994.493
90.855	13.358	1328.284	994.283
91.870	13.280	1327.022	992.778
92.884	13.203	1326.549	991.876
93.899	13.299	1325.752	991.768
94.914	13.398	1324.531	991.363
95.928	13.368	1323.583	990.384
96.943	13.305	1323.041	989.516
97.957	13.251	1322.255	988.513
98.972	13.330	1321.163	988.083
99.987	13.353	1319.920	987.200
101.001	13.302	1318.952	986.090
102.016	13.202	1318.091	984.761
103.030	13.295	1317.410	984.717
104.045	13.340	1316.327	984.089
105.060	13.308	1315.133	982.917
106.074	13.148	1313.868	980.940
107.089	13.158	1312.126	979.611
108.103	13.100	1311.069	978.387
109.118	13.271	1309.820	978.380
110.133	13.195	1308.564	976.910
111.147	13.193	1306.943	975.599
112.162	13.228	1305.448	974.606
113.176	13.267	1304.638	974.141
114.191	13.217	1304.142	973.395
115.206	13.234	1302.918	972.490
116.220	13.229	1300.917	970.886
117.235	13.240	1300.357	970.447
118.249	13.169	1299.564	969.351
119.264	13.237	1298.235	968.669
120.279	13.260	1296.973	967.779
121.293	13.126	1296.265	966.384
122.308	13.144	1295.007	965.461
123.322	13.110	1294.338	964.678
124.337	13.041	1293.117	963.283
125.352	13.177	1291.806	963.013
126.366	13.125	1290.437	961.606
127.381	13.148	1289.596	961.028
128.395	13.100	1288.455	959.813
129.410	13.188	1287.432	959.478
130.424	13.187	1286.699	958.841
131.439	13.171	1285.698	957.915
132.454	13.102	1285.178	957.045
133.468	13.190	1283.862	956.489
134.483	13.180	1283.147	955.812
135.497	13.284	1281.959	955.444
136.512	13.222	1280.456	953.885
137.527	13.202	1279.297	952.822
138.541	13.299	1277.981	952.313
139.556	13.260	1276.654	951.019
140.570	13.332	1275.398	950.412
141.585	13.363	1274.076	949.520
142.600	13.302	1273.228	948.456
143.614	13.322	1272.406	947.871
144.629	13.494	1270.809	947.586
145.643	13.388	1269.989	946.284
146.658	13.346	1268.837	945.099
147.673	13.232	1267.382	943.284
148.687	13.268	1266.143	942.483
149.702	13.296	1264.436	941.286
150.716	13.380	1263.113	940.698
151.731	13.325	1262.047	939.508
152.746	13.298	1261.133	938.588
153.760	13.438	1260.020	938.471
154.775	13.563	1258.339	937.843
155.789	13.492	1257.309	936.590
156.804	13.479	1256.601	935.908
157.819	13.451	1255.732	935.021
158.833	13.563	1254.462	934.626
159.848	13.537	1253.394	933.601
160.862	13.605	1252.465	933.207
161.877	13.626	1251.203	932.301
162.892	13.483	1250.385	930.805
163.906	13.470	1249.505	929.999
164.921	13.470	1248.422	929.108
165.935	13.547	1247.562	928.817
166.950	13.617	1246.965	928.683
167.964	13.508	1246.221	927.434
168.979	13.557	1245.517	927.104
169.994	13.604	1244.620	926.616
171.008	13.514	1243.656	925.316
172.023	13.597	1243.135	925.310
173.037	13.734	1241.591	924.840
174.052	13.688	1241.058	924.109
175.067	13.666	1239.897	923.038
176.081	13.579	1239.095	921.878
177.096	13.683	1238.058	921.601
178.110	13.616	1237.141	920.462
179.125	13.497	1236.461	919.215
180.140	13.642	1234.520	918.497
181.154	13.647	1233.423	917.626
182.169	13.751	1231.993	917.054
183.183	13.796	1230.922	916.428
184.198	13.697	1230.070	915.164
185.213	13.873	1228.351	914.775
186.227	13.793	1227.653	913.734
187.242	13.854	1226.452	913.097
188.256	13.750	1225.885	912.021
189.271	13.820	1224.781	911.502
190.286	13.775	1223.732	910.392
191.300	13.725	1222.759	909.316
192.315	13.651	1222.312	908.494
193.329	13.675	1221.903	908.246
194.344	13.789	1221.142	908.222
195.359	13.806	1219.845	907.271
196.373	13.934	1219.736	907.806
197.388	13.905	1219.574	907.448
198.402	13.930	1218.861	906.974
199.417	13.937	1218.498	906.664
200.432	14.016	1217.639	906.372
201.446	14.118	1216.343	905.882
202.461	14.138	1215.225	905.083
203.475	14.164	1213.908	904.158
204.490	14.010	1212.989	902.558
205.504	14.057	1212.023	902.016
206.519	14.019	1210.565	900.647
207.534	14.024	1209.987	900.164
208.548	14.068	1208.939	899.543
209.563	14.075	1208.201	898.951
210.577	14.062	1207.062	897.953
211.592	14.112	1206.232	897.527
212.607	14.149	1205.264	896.929
213.621	14.203	1204.164	896.319
214.636	14.332	1203.195	896.213
215.650	14.223	1202.515	895.040
216.665	14.294	1201.736	894.764
217.680	14.148	1201.048	893.388
218.694	14.377	1199.871	893.660
219.709	14.348	1199.056	892.823
220.723	14.320	1198.527	892.196
221.738	14.258	1197.707	891.175
222.753	14.228	1197.200	890.560
223.767	14.323	1196.211	890.252
224.782	14.334	1195.851	889.964
225.796	14.440	1195.040	889.850
226.811	14.460	1194.254	889.293
227.826	14.328	1193.942	888.275
228.840	14.467	1192.444	887.822
229.855	14.429	1191.592	886.910
230.869	14.395	1191.065	886.255
231.884	14.273	1190.551	885.149
232.899	14.270	1190.173	884.773
233.913	14.310	1188.814	883.896
234.928	14.321	1188.118	883.356
235.942	14.331	1187.307	882.730
236.957	14.423	1186.310	882.397
237.972	14.387	1185.631	881.622
238.986	14.455	1185.030	881.457
240.001	14.338	1184.813	880.604
241.015	14.410	1183.350	879.818
242.030	14.554	1182.684	880.003
243.045	14.503	1182.187	879.286
244.059	14.466	1181.100	878.204
245.074	14.440	1180.539	877.572
246.088	14.514	1179.509	877.121
247.103	14.541	1179.125	876.896
248.117	14.662	1177.923	876.563
249.132	14.638	1177.522	876.059
250.147	14.693	1176.800	875.734
251.161	14.770	1175.842	875.346
252.176	14.864	1175.066	875.182
253.190	14.916	1174.688	875.097
254.205	14.893	1173.602	874.089
255.220	14.815	1173.278	873.362
256.234	14.870	1173.152	873.481
257.249	14.895	1172.083	872.738
258.263	14.968	1171.748	872.794
259.278	14.902	1170.857	871.706
260.293	14.924	1170.184	871.242
261.307	14.868	1169.747	870.552
262.322	15.032	1168.847	870.657
263.336	15.048	1168.415	870.340
264.351	15.083	1167.435	869.713
265.366	15.108	1166.562	869.117
266.380	15.066	1166.264	868.601
267.395	15.148	1165.115	868.091
268.409	15.096	1164.606	867.369
269.424	15.132	1163.983	867.012
270.439	15.074	1163.542	866.306
271.453	15.026	1162.726	865.377
272.468	15.118	1161.543	864.895
273.482	15.046	1160.682	863.806
274.497	15.142	1160.532	864.111
275.512	14.997	1159.779	862.724
276.526	15.229	1158.580	862.953
277.541	15.036	1158.220	861.614
278.555	15.032	1157.842	861.236
279.570	15.219	1156.899	861.420
280.585	15.198	1156.281	860.776
281.599	15.248	1154.990	859.995
282.614	15.367	1153.636	859.520
283.628	15.197	1152.967	858.075
284.643	15.201	1152.009	857.307
285.657	15.417	1150.920	857.528
286.672	15.363	1150.143	856.594
287.687	15.360	1148.994	855.648
288.701	15.318	1148.453	854.957
289.716	15.320	1147.828	854.423
290.730	15.289	1147.360	853.841
291.745	15.485	1146.364	854.023
292.760	15.295	1145.791	852.555
293.774	15.367	1145.130	852.354
294.789	15.457	1144.615	852.351
295.803	15.444	1144.032	851.776
296.818	15.472	1143.005	851.079
297.833	15.478	1142.636	850.759
298.847	15.623	1141.602	850.645
299.862	15.507	1141.058	849.580
300.876	15.605	1139.694	848.983
301.891	15.511	1139.737	848.467
302.906	15.444	1139.102	847.581
303.920	15.575	1138.355	847.609
304.935	15.668	1137.054	847.035
305.949	15.692	1136.819	846.906
306.964	15.838	1135.725	846.751
307.979	15.746	1135.564	846.093
308.993	15.721	1134.278	844.933
310.008	15.722	1133.668	844.409
311.022	15.696	1133.031	843.731
312.037	15.710	1132.267	843.155
313.052	15.784	1131.119	842.598
314.066	15.702	1130.475	841.633
315.081	15.747	1129.793	841.275
316.095	15.669	1129.113	840.308
317.110	15.719	1128.085	839.717
318.125	15.685	1127.513	839.048
319.139	15.672	1126.737	838.331
320.154	15.767	1125.893	838.099
321.168	15.708	1125.856	837.708
322.183	15.812	1124.887	837.430
323.197	15.804	1123.981	836.639
324.212	15.722	1123.620	835.888
325.227	15.808	1122.768	835.609
326.241	15.789	1122.331	835.116
327.256	15.732	1121.502	834.141
328.270	15.762	1120.497	833.467
329.285	15.910	1119.318	833.250
330.300	15.828	1118.342	832.046
331.314	15.871	1117.623	831.649
332.329	15.767	1116.937	830.549
333.343	15.933	1115.916	830.540
334.358	15.779	1115.174	829.154
335.373	16.092	1114.010	829.753
336.387	16.025	1112.903	828.528
337.402	15.931	1112.659	827.810
338.416	16.072	1111.909	827.874
339.431	16.102	1111.393	827.563
340.446	16.175	1110.681	827.318
341.460	16.172	1109.885	826.634
342.475	16.132	1109.105	825.785
343.489	16.057	1108.644	825.001
344.504	16.094	1107.313	824.121
345.519	16.249	1106.258	824.019
346.533	16.253	1105.457	823.370
347.548	16.221	1104.902	822.725
348.562	16.165	1104.629	822.179
349.577	16.262	1103.606	821.815
350.592	16.143	1102.859	820.605
351.606	16.167	1102.260	820.208
352.621	16.265	1101.046	819.704
353.635	16.159	1100.799	818.936
354.650	16.280	1099.879	818.765
355.665	16.303	1099.347	818.409
356.679	16.275	1098.594	817.641
357.694	16.461	1097.677	817.784
358.708	16.309	1097.184	816.611
359.723	16.302	1096.833	816.243
360.738	16.420	1096.235	816.295
361.752	16.372	1095.378	815.354
362.767	16.383	1094.935	815.004
363.781	16.497	1093.999	814.782
364.796	16.424	1093.638	814.094
365.810	16.424	1093.323	813.785
366.825	16.511	1092.499	813.517
367.840	16.620	1092.016	813.611
368.854	16.608	1091.093	812.793
369.869	16.641	1090.217	812.229
370.883	16.619	1089.681	811.649
371.898	16.681	1089.140	811.471
372.913	16.653	1088.114	810.500
373.927	16.578	1087.766	809.811
374.942	16.612	1087.335	809.583
375.956	16.722	1086.976	809.770
376.971	16.628	1086.303	808.747
377.986	16.743	1085.617	808.717
379.000	16.713	1085.096	808.112
380.015	16.727	1084.836	807.916
381.029	16.766	1084.123	807.499
382.044	16.889	1083.036	807.200
383.059	16.823	1082.147	806.156
384.073	16.688	1081.787	805.170
385.088	16.940	1080.498	805.336
386.102	16.980	1079.618	804.801
387.117	16.881	1078.608	803.510
388.132	16.826	1077.939	802.678
389.146	16.879	1076.936	802.112
390.161	16.879	1076.209	801.498
391.175	16.894	1075.218	800.760
392.190	16.941	1075.103	800.823
393.205	17.086	1074.172	800.747
394.219	17.093	1073.461	800.176
395.234	16.919	1072.533	798.595
396.248	16.951	1071.626	798.001
397.263	16.937	1070.425	796.967
398.278	16.836	1070.351	796.369
399.292	16.890	1069.448	795.880
400.307	16.977	1068.624	795.606
401.321	16.954	1067.717	794.753
402.336	16.944	1067.325	794.342
403.350	16.859	1066.798	793.484
404.365	17.045	1065.848	793.575
405.380	17.046	1065.179	793.009
406.394	17.059	1064.360	792.393
407.409	17.181	1063.363	792.147
408.423	17.197	1062.572	791.566
409.438	17.133	1062.280	790.979
410.453	17.163	1061.799	790.689
411.467	17.317	1061.048	790.777
412.482	17.247	1060.234	789.774
413.496	17.355	1059.527	789.681
414.511	17.301	1059.269	789.168
415.526	17.333	1058.971	789.023
416.540	17.297	1058.316	788.301
417.555	17.393	1057.635	788.167
418.569	17.473	1056.905	787.925
419.584	17.435	1056.620	787.464
420.599	17.412	1055.936	786.777
421.613	108.247	1330.971	1489.318
422.628	99.801	1370.971	1489.407
