DTS Sentinel unit serial number:	SN413079Multiplexer serial number:	ORYXHardware model number:	OX4-SRSoftware version number:	ORYX F/W v4.00 Oryx Data Collector v3.7.2.0data status	okinstallation	princeton_trtdifferential loss correction	single-endedforward channel	channel 2reverse channel	N/Adate	2019/09/15time	22:27:34forward acquisition time	60.00reverse acquisition time	0.00gamma	496.2192k internal	0.2335k external	0.2335temperature offset calibration	0.9945default loss term (dB/km)	0.3790temperature slope calibration	1.0000multiplexer offset coefficient	1.0000multiplexer slope coefficient	1.0000fibre end	0.00T internal ref (°C)	29.19T ext. ref 1 (°C)	8.72T ext. ref 2 (°C)	22.65length (m)	temperature (°C)	Stokes	anti-Stokes-747.200	75.860	-0.113	0.120
-746.185	-118.147	-0.277	0.050
-745.171	-88.201	0.162	0.049
-744.156	521.322	0.098	-0.230
-743.142	-156.353	0.120	-0.008
-742.127	-108.773	0.084	0.018
-741.112	-93.070	-0.217	0.061
-740.098	-200.000	0.014	0.381
-739.083	44.629	-0.300	0.277
-738.069	-58.195	-0.056	-0.025
-737.054	307.311	-0.161	-0.301
-736.039	643.907	0.056	0.142
-735.025	800.000	0.081	0.335
-734.010	133.522	-0.236	-0.307
-732.996	800.000	0.057	0.217
-731.981	-134.127	0.204	-0.025
-730.966	171.076	-0.072	0.103
-729.952	800.000	-0.022	0.070
-728.937	218.825	-0.035	0.056
-727.923	166.405	-0.164	-0.234
-726.908	-55.292	-0.267	0.121
-725.894	107.843	-0.247	-0.296
-724.879	800.000	-0.095	-0.297
-723.864	-95.083	0.011	-0.003
-722.850	-128.213	-0.190	0.027
-721.835	5.472	0.174	0.129
-720.821	-75.751	0.213	-0.076
-719.806	-58.315	0.368	0.161
-718.791	-94.009	-0.172	-0.047
-717.777	86.611	0.200	-0.221
-716.762	-53.889	-0.173	-0.079
-715.748	250.408	0.216	0.368
-714.733	429.594	-0.216	0.468
-713.718	449.841	-0.127	-0.281
-712.704	-124.997	-0.137	0.021
-711.689	17.725	-0.024	-0.019
-710.675	-68.104	-0.081	-0.032
-709.660	-157.498	0.139	-0.008
-708.645	121.077	-0.111	-0.138
-707.631	-114.930	-0.267	-0.051
-706.616	-89.127	-0.199	0.059
-705.602	466.206	0.102	-0.230
-704.587	-156.028	-0.061	0.004
-703.572	147.390	-0.239	0.323
-702.558	62.148	0.055	0.055
-701.543	784.538	-0.085	-0.235
-700.529	-198.476	-0.181	-0.001
-699.514	-200.000	-0.012	0.129
-698.499	-200.000	0.026	0.215
-697.485	-200.000	0.011	0.168
-696.470	-91.708	-0.338	0.097
-695.456	-8.742	-0.082	-0.055
-694.441	438.534	0.076	0.166
-693.426	631.724	0.182	0.461
-692.412	130.952	-0.103	-0.132
-691.397	331.403	-0.100	-0.194
-690.383	-200.000	-0.069	0.467
-689.368	800.000	0.047	0.160
-688.354	-200.000	-0.007	-0.235
-687.339	114.221	-0.068	0.083
-686.324	265.673	0.137	-0.239
-685.310	32.774	0.120	0.104
-684.295	-200.000	0.027	-0.305
-683.281	302.754	-0.113	0.209
-682.266	121.462	-0.140	-0.175
-681.251	-9.408	0.090	-0.060
-680.237	-200.000	-0.002	-0.025
-679.222	800.000	0.103	-0.303
-678.208	-200.000	-0.213	-0.001
-677.193	247.957	-0.192	-0.326
-676.178	-55.642	-0.356	0.160
-675.164	-7.883	0.188	0.127
-674.149	92.788	0.149	0.169
-673.135	35.883	0.169	0.149
-672.120	-29.480	-0.094	-0.054
-671.105	235.591	-0.213	-0.353
-670.091	-200.000	-0.007	0.382
-669.076	74.053	0.166	0.175
-668.062	87.771	-0.082	-0.091
-667.047	695.724	0.208	0.547
-666.032	-200.000	-0.022	-0.218
-665.018	-200.000	0.009	-0.067
-664.003	425.608	0.079	-0.170
-662.989	-30.050	0.149	0.085
-661.974	192.393	-0.096	0.146
-660.959	-58.763	0.162	-0.070
-659.945	127.216	0.172	0.219
-658.930	659.897	0.057	-0.148
-657.916	-165.449	0.511	0.022
-656.901	29.790	0.094	-0.080
-655.886	58.254	0.152	-0.149
-654.872	-40.972	-0.175	-0.091
-653.857	800.000	-0.135	-0.376
-652.843	800.000	0.047	0.166
-651.828	-64.541	-0.187	-0.076
-650.814	79.703	0.151	-0.163
-649.799	-90.862	-0.196	0.057
-648.784	206.719	0.084	-0.130
-647.770	378.797	0.068	-0.139
-646.755	-73.100	-0.221	-0.081
-645.741	-61.857	-0.156	0.065
-644.726	-200.000	-0.042	-0.194
-643.711	-200.000	0.021	-0.166
-642.697	-200.000	0.023	-0.246
-641.682	-200.000	0.018	-0.121
-640.668	-200.000	0.036	-0.225
-639.653	-162.974	-0.199	-0.010
-638.638	162.180	-0.096	-0.135
-637.624	29.514	-0.209	-0.178
-636.609	31.462	0.102	0.088
-635.595	67.701	-0.123	0.126
-634.580	102.831	0.123	-0.145
-633.565	800.000	0.031	-0.114
-632.551	-15.209	-0.091	0.059
-631.536	81.742	0.247	-0.268
-630.522	147.537	0.111	-0.149
-629.507	-66.793	-0.231	-0.091
-628.492	201.079	0.256	0.395
-627.478	-63.085	-0.512	-0.211
-626.463	288.778	-0.132	-0.239
-625.449	-51.789	0.346	-0.161
-624.434	628.028	-0.064	0.162
-623.419	-200.000	0.041	-0.300
-622.405	-200.000	-0.016	-0.187
-621.390	-8.685	-0.382	0.256
-620.376	-115.920	-0.406	0.076
-619.361	-92.398	0.220	0.062
-618.346	-104.412	0.218	0.050
-617.332	800.000	-0.038	-0.125
-616.317	-200.000	-0.012	0.288
-615.303	800.000	0.037	-0.139
-614.288	-200.000	-0.028	0.253
-613.273	-125.524	-0.130	0.020
-612.259	324.387	-0.125	0.240
-611.244	-109.947	0.240	0.050
-610.230	429.729	0.062	-0.134
-609.215	75.690	0.300	-0.316
-608.201	-29.082	0.316	-0.181
-607.186	76.297	-0.075	0.080
-606.171	58.194	0.177	-0.173
-605.157	-2.231	0.217	0.152
-604.142	-200.000	0.031	0.151
-603.128	-82.303	-0.397	0.129
-602.113	-14.600	0.170	0.109
-601.098	-13.638	-0.394	-0.255
-600.084	-93.456	0.368	-0.102
-599.069	67.742	-0.110	0.112
-598.055	-200.000	-0.033	-0.276
-597.040	218.583	0.079	-0.126
-596.025	-163.069	-0.045	-0.002
-595.011	580.616	-0.129	0.316
-593.996	-55.310	-0.361	-0.162
-592.982	340.905	0.171	-0.333
-591.967	-115.262	0.507	-0.096
-590.952	-39.377	-0.352	0.184
-589.938	-200.000	-0.045	-0.446
-588.923	-15.555	0.191	0.122
-587.909	-97.486	-0.467	0.121
-586.894	-161.213	0.311	-0.016
-585.879	103.053	-0.349	-0.408
-584.865	321.518	-0.126	-0.240
-583.850	-110.597	0.168	0.035
-582.836	74.273	0.216	-0.227
-581.821	433.056	-0.026	0.056
-580.806	122.508	-0.420	0.524
-579.792	-200.000	-0.004	-0.250
-578.777	-192.541	-0.400	0.004
-577.763	-44.766	-0.400	-0.199
-576.748	420.681	-0.199	-0.426
-575.733	800.000	0.068	-0.239
-574.719	-96.307	-0.342	-0.090
-573.704	-44.328	0.114	0.057
-572.690	266.403	0.093	-0.162
-571.675	-134.696	-0.156	0.019
-570.661	-98.272	-0.215	0.055
-569.646	-59.938	0.209	-0.089
-568.631	8.364	0.305	0.229
-567.617	-166.445	-0.250	0.010
-566.602	-98.562	0.062	-0.016
-565.588	-78.271	-0.065	-0.022
-564.573	-39.197	-0.283	0.148
-563.558	-70.724	0.235	0.089
-562.544	24.826	0.264	-0.218
-561.529	73.926	-0.243	-0.255
-560.515	-68.989	0.113	0.043
-559.500	-49.174	-0.457	0.218
-558.485	-90.145	-0.119	-0.035
-557.471	-45.119	0.204	-0.101
-556.456	336.709	0.205	0.396
-555.442	-200.000	-0.046	0.226
-554.427	-97.637	-0.097	-0.025
-553.412	-200.000	-0.004	0.138
-552.398	-169.786	-0.128	-0.005
-551.383	-200.000	-0.000	-0.173
-550.369	-154.573	0.194	0.013
-549.354	508.794	0.040	-0.093
-548.339	491.926	-0.146	-0.334
-547.325	378.353	0.018	-0.036
-546.310	-127.122	-0.307	0.045
-545.296	557.487	-0.042	-0.102
-544.281	16.660	0.176	0.139
-543.266	57.706	-0.134	0.131
-542.252	-84.263	-0.302	0.096
-541.237	800.000	0.030	-0.088
-540.223	381.326	0.088	-0.180
-539.208	212.605	0.123	0.193
-538.193	-200.000	-0.053	0.320
-537.179	-99.330	-0.178	0.045
-536.164	196.284	-0.115	0.174
-535.150	-200.000	0.068	0.327
-534.135	800.000	0.027	-0.117
-533.121	-200.000	-0.024	0.413
-532.106	-51.208	-0.517	-0.241
-531.091	59.812	0.022	-0.021
-530.077	113.446	-0.148	0.179
-529.062	-200.000	0.037	-0.202
-528.048	53.910	0.345	-0.331
-527.033	-200.000	0.050	0.219
-526.018	-65.736	0.207	-0.083
-525.004	800.000	-0.066	-0.192
-523.989	163.412	-0.181	-0.253
-522.975	-177.244	0.483	0.012
-521.960	334.788	0.145	-0.279
-520.945	-45.514	0.237	0.117
-519.931	521.108	0.055	-0.129
-518.916	170.414	-0.063	-0.091
-517.902	265.735	0.165	0.287
-516.887	313.436	-0.123	0.231
-515.872	123.761	0.213	-0.266
-514.858	150.731	-0.032	-0.043
-513.843	-200.000	0.001	-0.088
-512.829	-200.000	-0.099	0.446
-511.814	800.000	-0.039	0.160
-510.799	-200.000	0.014	-0.323
-509.785	-200.000	-0.032	0.190
-508.770	115.929	-0.240	0.292
-507.756	-200.000	0.043	-0.232
-506.741	-13.846	0.258	-0.166
-505.726	800.000	-0.014	0.043
-504.712	-200.000	0.002	-0.102
-503.697	-104.631	-0.193	0.044
-502.683	-29.939	0.177	-0.100
-501.668	162.803	-0.191	0.267
-500.653	-200.000	-0.010	0.045
-499.639	282.222	-0.084	0.151
-498.624	260.813	-0.013	-0.023
-497.610	14.220	0.262	-0.203
-496.595	-34.553	0.089	0.049
-495.581	200.055	0.116	0.177
-494.566	25.410	-0.136	-0.113
-493.551	251.275	-0.191	0.324
-492.537	-200.000	0.005	-0.326
-491.522	-90.099	0.028	-0.008
-490.508	800.000	-0.027	0.103
-489.493	529.740	-0.072	-0.170
-488.478	58.674	-0.095	0.093
-487.464	11.023	-0.139	-0.106
-486.449	-151.686	0.379	0.028
-485.435	-155.256	-0.206	-0.013
-484.420	69.433	-0.212	-0.217
-483.405	800.000	0.057	0.167
-482.391	-77.816	0.364	0.125
-481.376	-200.000	-0.032	0.185
-480.362	23.415	-0.107	0.088
-479.347	-200.000	-0.020	-0.096
-478.332	72.794	0.103	0.107
-477.318	-180.912	-0.148	0.003
-476.303	800.000	0.099	-0.322
-475.289	-200.000	-0.002	0.144
-474.274	37.319	0.129	-0.114
-473.259	-98.379	-0.108	0.027
-472.245	83.003	0.143	-0.155
-471.230	800.000	0.087	-0.344
-470.216	-46.865	0.219	-0.106
-469.201	-22.016	-0.169	0.102
-468.186	-96.631	0.435	0.114
-467.172	-123.145	-0.191	-0.030
-466.157	-18.587	0.540	0.335
-465.143	51.319	-0.159	-0.150
-464.128	-40.096	-0.160	0.083
-463.113	380.886	0.100	-0.204
-462.099	-110.464	0.289	-0.060
-461.084	46.569	-0.203	-0.187
-460.070	800.000	0.026	-0.102
-459.055	-44.878	0.341	0.169
-458.040	-49.756	0.144	-0.068
-457.026	12.414	0.141	0.108
-456.011	-200.000	0.044	0.218
-454.997	293.662	0.037	0.067
-453.982	-200.000	0.001	0.124
-452.968	-46.198	-0.357	0.175
-451.953	662.605	0.015	-0.039
-450.938	800.000	0.086	-0.262
-449.924	339.645	0.055	-0.106
-448.909	-54.305	0.460	-0.207
-447.895	-101.495	-0.143	0.035
-446.880	-18.560	0.211	0.131
-445.865	197.228	-0.296	0.448
-444.851	487.927	0.191	0.433
-443.836	-110.061	-0.356	0.074
-442.822	800.000	0.118	0.386
-441.807	-161.796	0.154	0.008
-440.792	48.836	0.102	0.095
-439.778	-200.000	0.011	-0.050
-438.763	30.851	-0.162	-0.138
-437.749	120.656	-0.233	0.288
-436.734	573.173	-0.107	0.258
-435.719	-200.000	-0.004	0.150
-434.705	-74.945	0.251	0.089
-433.690	172.530	-0.140	-0.200
-432.676	447.789	0.178	-0.389
-431.661	-200.000	-0.043	-0.316
-430.646	126.456	0.336	-0.422
-429.632	-70.427	-0.296	-0.111
-428.617	-200.000	-0.018	0.177
-427.603	486.421	0.101	0.229
-426.588	-147.472	-0.271	0.023
-425.573	25.855	0.235	0.194
-424.559	-90.366	0.118	-0.034
-423.544	-99.173	-0.298	-0.075
-422.530	800.000	-0.004	-0.012
-421.515	-112.768	-0.197	0.039
-420.500	85.644	0.328	-0.358
-419.486	-31.793	-0.116	-0.064
-418.471	-175.158	0.221	-0.006
-417.457	-96.776	-0.373	-0.097
-416.442	-200.000	0.040	0.189
-415.428	-200.000	0.025	-0.235
-414.413	55.820	0.139	-0.133
-413.398	-200.000	-0.026	0.418
-412.384	-87.191	-0.174	0.052
-411.369	15.987	-0.123	0.096
-410.355	242.160	0.182	-0.302
-409.340	-200.000	0.015	-0.113
-408.325	-117.780	-0.364	-0.065
-407.311	-142.862	-0.402	-0.039
-406.296	-82.632	-0.177	0.057
-405.282	-49.212	-0.185	0.088
-404.267	-200.000	-0.017	0.274
-403.252	-105.342	0.090	-0.020
-402.238	800.000	-0.104	-0.331
-401.223	-21.577	0.217	0.131
-400.209	-179.012	-0.046	-0.001
-399.194	-42.745	-0.230	0.116
-398.179	179.198	0.111	0.161
-397.165	1.170	-0.138	0.098
-396.150	-61.604	0.212	-0.088
-395.136	-155.095	-0.271	-0.018
-394.121	-200.000	-0.012	0.064
-393.106	-44.677	0.291	0.144
-392.092	569.492	-0.131	0.317
-391.077	-200.000	-0.020	-0.161
-390.063	60.579	0.136	0.133
-389.048	318.248	0.081	0.151
-388.033	-88.206	-0.287	-0.085
-387.019	-200.000	-0.028	0.298
-386.004	455.081	0.104	0.228
-384.990	36.537	-0.248	-0.217
-383.975	79.836	-0.167	-0.178
-382.960	84.168	-0.097	-0.106
-381.946	1.418	0.208	0.148
-380.931	-85.327	0.375	-0.116
-379.917	-200.000	0.093	-0.443
-378.902	-60.321	0.240	-0.101
-377.888	296.361	0.062	-0.112
-376.873	-148.447	-0.213	-0.017
-375.858	-200.000	0.264	-0.001
-374.844	-15.923	-0.156	-0.098
-373.829	336.690	0.135	0.259
-372.815	256.887	-0.223	0.380
-371.800	124.173	0.101	-0.126
-370.785	-95.613	-0.254	0.067
-369.771	-200.000	-0.057	0.398
-368.756	-65.165	0.478	-0.191
-367.742	-200.000	0.003	0.208
-366.727	22.009	-0.151	-0.122
-365.712	-22.828	-0.171	0.102
-364.698	-200.000	0.012	-0.265
-363.683	-107.882	-0.067	0.014
-362.669	121.566	-0.187	0.230
-361.654	54.232	0.232	-0.221
-360.639	-141.353	0.131	0.013
-359.625	126.941	0.156	0.196
-358.610	-108.963	-0.205	0.043
-357.596	-200.000	-0.046	-0.238
-356.581	-45.201	-0.245	-0.120
-355.566	156.532	-0.088	-0.120
-354.552	624.468	-0.025	-0.063
-353.537	54.505	0.137	-0.130
-352.523	-200.000	0.008	-0.376
-351.508	472.595	-0.163	-0.364
-350.493	-82.294	-0.546	-0.176
-349.479	96.469	0.048	-0.055
-348.464	54.296	0.104	-0.099
-347.450	-162.705	-0.260	-0.013
-346.435	-34.501	-0.231	-0.125
-345.420	-200.000	0.009	-0.131
-344.406	800.000	0.071	-0.273
-343.391	192.600	0.072	0.107
-342.377	-50.141	-0.127	0.059
-341.362	319.464	-0.143	0.269
-340.348	-124.245	0.309	-0.048
-339.333	-90.758	0.183	0.052
-338.318	-200.000	-0.033	0.213
-337.304	21.018	0.221	-0.177
-336.289	516.683	-0.133	-0.308
-335.275	-0.049	0.246	0.173
-334.260	-200.000	0.050	0.412
-333.245	-200.000	-0.004	0.223
-332.231	-15.381	0.171	0.108
-331.216	-157.994	-0.293	0.017
-330.202	285.617	0.368	-0.657
-329.187	800.000	0.035	-0.145
-328.172	216.978	-0.108	0.170
-327.158	177.226	0.086	0.124
-326.143	-165.432	0.338	-0.015
-325.129	-50.105	0.198	0.093
-324.114	-107.714	-0.185	0.040
-323.099	136.963	-0.203	-0.262
-322.085	183.076	0.120	0.176
-321.070	63.245	0.235	0.233
-320.056	-200.000	-0.004	0.180
-319.041	-166.872	0.175	0.007
-318.026	-31.771	-0.157	-0.087
-317.012	800.000	-0.054	-0.148
-315.997	-129.699	0.182	0.025
-314.983	-200.000	0.005	0.230
-313.968	-102.237	0.076	-0.018
-312.953	-31.425	-0.253	-0.141
-311.939	-156.150	0.215	0.013
-310.924	-200.000	0.069	-0.306
-309.910	-38.906	0.116	-0.061
-308.895	11.114	-0.229	-0.173
-307.880	196.007	0.057	0.086
-306.866	19.245	0.127	0.101
-305.851	-134.453	-0.279	-0.034
-304.837	-142.805	0.238	0.023
-303.822	442.625	-0.056	0.122
-302.807	369.903	-0.137	0.274
-301.793	-2.713	-0.223	-0.154
-300.778	-6.522	-0.083	0.056
-299.764	800.000	-0.044	-0.189
-298.749	263.782	-0.141	0.243
-297.735	30.185	-0.319	0.269
-296.720	-57.246	-0.072	-0.031
-295.705	-200.000	-0.003	-0.047
-294.691	800.000	-0.121	-0.410
-293.676	18.736	0.116	-0.092
-292.662	-2.398	-0.390	-0.270
-291.647	800.000	-0.075	0.276
-290.632	-98.769	0.119	-0.030
-289.618	74.239	0.277	0.287
-288.603	-200.000	-0.063	0.311
-287.589	42.543	0.086	0.078
-286.574	317.873	0.117	0.219
-285.559	800.000	-0.022	-0.074
-284.545	303.565	0.121	0.222
-283.530	-89.654	-0.167	-0.048
-282.516	407.795	0.121	0.252
-281.501	-144.655	-0.228	0.021
-280.486	99.627	-0.123	-0.140
-279.472	-80.472	-0.161	0.053
-278.457	331.395	0.028	-0.054
-277.443	-200.000	0.013	0.086
-276.428	-200.000	0.000	-0.074
-275.413	-45.926	-0.243	0.118
-274.399	-167.292	0.078	0.003
-273.384	92.913	-0.159	-0.177
-272.370	-13.055	0.205	-0.132
-271.355	-61.418	0.427	0.177
-270.340	-24.918	-0.164	0.096
-269.326	-138.140	0.212	-0.023
-268.311	-200.000	0.003	0.110
-267.297	-77.534	0.192	-0.066
-266.282	-32.382	-0.231	0.127
-265.267	-200.000	-0.257	0.001
-264.253	97.370	0.175	-0.198
-263.238	294.901	-0.154	0.278
-262.224	800.000	0.103	-0.297
-261.209	52.918	0.323	-0.304
-260.195	153.594	0.306	0.413
-259.180	-58.866	-0.243	0.104
-258.165	800.000	-0.109	-0.306
-257.151	38.027	-0.078	-0.068
-256.136	198.277	-0.011	0.017
-255.122	-105.872	-0.386	0.086
-254.107	40.483	0.161	0.143
-253.092	-61.470	0.130	-0.054
-252.078	26.769	-0.223	0.184
-251.063	128.018	0.218	0.274
-250.049	-93.115	0.079	-0.022
-249.034	267.320	-0.213	0.368
-248.019	-11.972	-0.261	0.169
-247.005	188.043	0.109	0.161
-245.990	198.457	-0.059	0.089
-244.976	707.146	-0.049	-0.126
-243.961	-121.182	-0.058	0.010
-242.946	-200.000	0.009	0.288
-241.932	219.046	0.268	0.423
-240.917	-200.000	0.051	-0.547
-239.903	360.432	-0.063	-0.124
-238.888	34.530	0.166	0.143
-237.873	-200.000	-0.016	0.078
-236.859	2.789	0.241	0.173
-235.844	-36.220	0.428	0.228
-234.830	-63.907	0.223	-0.090
-233.815	-75.739	0.013	0.005
-232.800	-200.000	0.023	0.132
-231.786	-40.545	-0.051	0.026
-230.771	49.169	-0.115	-0.106
-229.757	-110.236	-0.050	0.010
-228.742	800.000	0.050	-0.208
-227.727	800.000	0.044	0.146
-226.713	174.317	0.168	-0.240
-225.698	579.156	0.176	-0.425
-224.684	144.147	-0.040	0.053
-223.669	131.847	0.129	0.163
-222.655	91.351	0.071	0.079
-221.640	-123.916	-0.022	0.003
-220.625	164.542	-0.266	0.369
-219.611	40.971	-0.167	0.148
-218.596	330.502	0.109	-0.206
-217.582	472.278	0.119	-0.263
-216.567	-160.500	0.373	0.020
-215.552	-200.000	0.050	0.291
-214.538	253.038	0.196	0.329
-213.523	124.103	-0.090	0.111
-212.509	606.224	-0.078	0.191
-211.494	800.000	0.058	-0.158
-210.479	-14.097	-0.139	-0.088
-209.465	800.000	-0.146	-0.446
-208.450	-176.946	-0.374	0.009
-207.436	-40.946	0.162	0.083
-206.421	36.690	-0.120	0.104
-205.406	800.000	-0.027	0.090
-204.392	718.134	0.141	0.369
-203.377	225.483	0.157	0.250
-202.363	42.333	0.420	0.375
-201.348	-109.147	-0.267	-0.056
-200.333	56.505	-0.180	-0.173
-199.319	-26.807	-0.170	-0.098
-198.304	24.803	0.285	-0.232
-197.290	496.350	-0.094	-0.213
-196.275	363.719	0.191	-0.378
-195.260	-54.315	0.457	0.204
-194.246	-200.000	-0.004	-0.171
-193.231	-8.150	-0.030	-0.020
-192.217	-22.690	0.267	0.159
-191.202	-200.000	-0.022	0.134
-190.187	-200.000	-0.008	0.171
-189.173	70.642	0.190	-0.193
-188.158	-200.000	-0.043	0.240
-187.144	286.360	-0.126	0.224
-186.129	-182.336	0.102	0.002
-185.114	215.210	-0.110	0.171
-184.100	-38.361	0.338	0.176
-183.085	-200.000	0.010	-0.196
-182.071	-76.920	-0.137	0.047
-181.056	597.369	0.061	-0.148
-180.042	-9.950	0.310	-0.203
-179.027	-200.000	-0.029	0.159
-178.012	119.337	-0.222	0.270
-176.998	456.417	0.110	0.240
-175.983	219.117	0.023	0.037
-174.969	790.486	0.114	0.307
-173.954	-46.407	0.243	-0.117
-172.939	159.863	0.188	0.257
-171.925	-120.554	-0.207	-0.034
-170.910	88.663	-0.016	0.017
-169.896	441.559	-0.183	-0.393
-168.881	800.000	0.053	-0.202
-167.866	-24.073	0.190	-0.111
-166.852	-125.699	-0.197	0.029
-165.837	-55.045	-0.125	-0.055
-164.823	48.829	-0.046	-0.042
-163.808	-86.751	0.155	0.047
-162.793	220.155	-0.072	0.114
-161.779	-76.324	-0.300	0.104
-160.764	98.038	0.109	-0.124
-159.750	-200.000	-0.003	-0.155
-158.735	-67.843	0.314	0.121
-157.720	-200.000	-0.028	0.167
-156.706	-200.000	0.076	-0.370
-155.691	43.139	0.199	-0.178
-154.677	133.730	-0.099	0.126
-153.662	-113.506	-0.162	0.031
-152.647	27.669	0.128	-0.106
-151.633	-200.000	-0.023	-0.190
-150.618	80.726	0.242	0.256
-149.604	-200.000	0.023	0.112
-148.589	-105.478	-0.130	-0.029
-147.574	800.000	-0.153	0.552
-146.560	228.366	0.285	0.456
-145.545	-200.000	0.008	-0.127
-144.531	-200.000	0.005	-0.043
-143.516	-165.142	0.050	0.002
-142.502	-15.576	-0.100	0.063
-141.487	-200.000	0.007	0.042
-140.472	800.000	-0.094	0.333
-139.458	800.000	0.116	-0.420
-138.443	30.558	-0.174	-0.146
-137.429	-109.877	0.181	0.037
-136.414	89.873	0.070	-0.077
-135.399	-170.208	-0.242	-0.008
-134.385	114.620	-0.116	0.139
-133.370	800.000	-0.058	0.212
-132.356	220.495	0.091	-0.143
-131.341	162.158	0.213	-0.292
-130.326	118.560	-0.065	-0.079
-129.312	82.966	0.090	0.096
-128.297	-55.564	0.395	0.174
-127.283	-200.000	0.057	-0.263
-126.268	800.000	0.081	0.312
-125.253	800.000	0.022	0.061
-124.239	134.675	-0.137	-0.174
-123.224	-151.594	0.083	0.006
-122.210	-56.091	0.352	0.154
-121.195	312.414	0.103	0.190
-120.180	-58.808	-0.205	0.087
-119.166	-194.966	-0.226	-0.002
-118.151	25.214	0.219	0.178
-117.137	-200.000	-0.014	0.092
-116.122	-200.000	0.017	0.177
-115.107	-9.590	0.169	0.110
-114.093	-48.283	0.024	-0.011
-113.078	310.929	-0.059	-0.108
-112.064	566.413	-0.099	-0.236
-111.049	294.064	0.187	-0.334
-110.034	-200.000	0.030	0.187
-109.020	-33.559	-0.199	0.108
-108.005	-84.586	-0.090	0.028
-106.991	328.606	-0.119	0.223
-105.976	-12.440	0.161	-0.103
-104.962	-4.807	0.167	-0.113
-103.947	136.918	0.038	-0.049
-102.932	436.824	-0.059	-0.125
-101.918	396.949	-0.067	-0.137
-100.903	-200.000	0.077	-0.360
-99.889	-95.314	0.186	-0.049
-98.874	-131.709	0.078	-0.010
-97.859	-18.348	0.184	-0.113
-96.845	123.088	0.169	0.207
-95.830	-135.563	0.010	0.001
-94.816	-63.970	-0.171	0.069
-93.801	-200.000	0.001	0.414
-92.786	-7.669	-0.084	0.056
-91.772	-78.759	0.234	0.078
-90.757	-53.040	0.308	-0.139
-89.743	-88.737	0.380	0.111
-88.728	237.383	-0.067	0.109
-87.713	-68.609	0.137	0.052
-86.699	-130.209	0.243	0.032
-85.684	-63.300	-0.193	0.078
-84.670	-28.232	-0.195	0.110
-83.655	800.000	0.072	-0.232
-82.640	-40.103	0.138	0.071
-81.626	-200.000	-0.002	-0.061
-80.611	30.715	0.202	-0.169
-79.597	-32.770	0.166	-0.090
-78.582	-200.000	-0.003	-0.061
-77.567	-23.135	0.189	0.112
-76.553	-200.000	0.025	0.180
-75.538	-20.683	-0.235	-0.141
-74.524	-200.000	0.055	-0.283
-73.509	-81.599	0.294	-0.094
-72.494	-45.461	0.129	-0.063
-71.480	800.000	0.159	-0.442
-70.465	-200.000	-0.011	-0.176
-69.451	-89.383	-0.083	0.024
-68.436	-200.000	0.006	-0.129
-67.422	91.828	-0.186	0.205
-66.407	-76.335	-0.292	0.101
-65.392	-200.000	0.068	0.320
-64.378	327.944	-0.092	-0.173
-63.363	-200.000	-0.047	0.273
-62.349	43.622	0.210	0.188
-61.334	18.622	-1.231	-0.963
-60.319	-34.179	0.681	0.366
-59.305	800.000	-0.334	-1.332
-58.290	800.000	0.417	1.237
-57.276	800.000	0.369	1.568
-56.261	-200.000	109.366	632.525
-55.246	477.497	1489.539	3296.217
-54.232	148.199	2667.945	3521.687
-53.217	101.847	2270.771	2591.258
-52.203	38.422	1884.179	1642.317
-51.188	32.387	1675.305	1414.977
-50.173	29.895	1632.469	1360.447
-49.159	50.686	1686.429	1561.152
-48.144	50.945	1702.193	1577.614
-47.130	32.095	1660.354	1399.951
-46.115	29.347	1645.392	1366.942
-45.100	29.099	1641.005	1361.412
-44.086	29.046	1638.433	1358.832
-43.071	29.053	1636.344	1357.097
-42.057	29.028	1633.821	1354.764
-41.042	29.037	1631.942	1353.218
-40.027	29.099	1629.323	1351.447
-39.013	28.986	1627.823	1349.325
-37.998	28.998	1626.390	1348.172
-36.984	29.068	1625.011	1347.485
-35.969	29.216	1623.353	1347.141
-34.954	29.207	1622.127	1346.003
-33.940	29.224	1620.037	1344.340
-32.925	29.144	1618.321	1342.275
-31.911	29.225	1616.927	1341.656
-30.896	29.195	1615.370	1340.095
-29.881	29.173	1613.794	1338.572
-28.867	29.132	1612.429	1337.092
-27.852	29.175	1610.588	1335.822
-26.838	29.075	1609.406	1334.066
-25.823	29.191	1607.649	1333.393
-24.809	29.243	1606.716	1332.948
-23.794	29.223	1605.267	1331.544
-22.779	29.199	1603.931	1330.212
-21.765	29.272	1601.847	1328.954
-20.750	29.183	1600.612	1327.241
-19.736	29.158	1599.820	1326.345
-18.721	29.177	1597.957	1324.887
-17.706	29.248	1596.528	1324.162
-16.692	29.213	1594.940	1322.537
-15.677	29.178	1593.421	1320.978
-14.663	29.244	1592.067	1320.273
-13.648	29.268	1590.842	1319.379
-12.633	29.205	1589.135	1317.461
-11.619	29.288	1587.611	1316.735
-10.604	29.210	1586.541	1315.241
-9.590	29.265	1584.811	1314.146
-8.575	29.263	1584.204	1313.579
-7.560	29.289	1582.890	1312.620
-6.546	29.325	1581.587	1311.742
-5.531	29.150	1580.958	1309.923
-4.517	29.196	1579.807	1309.247
-3.502	29.315	1578.480	1308.940
-2.487	29.443	1576.617	1308.250
-1.473	28.854	1564.807	1294.252
-0.458	25.759	1545.631	1256.780
0.556	19.726	1545.856	1223.209
1.571	17.327	1569.678	1224.696
2.586	16.771	1582.669	1230.686
3.600	15.910	1532.689	1185.652
4.615	12.551	1434.451	1087.392
5.629	9.449	1378.536	1025.177
6.644	8.831	1370.700	1015.348
7.659	8.689	1369.994	1013.831
8.673	8.715	1368.987	1013.163
9.688	8.625	1366.791	1010.883
10.702	8.526	1363.674	1007.859
11.717	10.009	1365.934	1018.798
12.731	13.823	1373.090	1048.175
13.746	16.712	1377.252	1069.536
14.761	17.147	1376.325	1071.466
15.775	16.138	1374.274	1063.412
16.790	15.103	1371.419	1054.596
17.804	14.246	1369.172	1047.387
18.819	13.877	1367.579	1043.753
19.834	13.491	1366.352	1040.299
20.848	13.362	1365.112	1038.456
21.863	13.142	1363.677	1035.891
22.877	13.032	1362.806	1034.449
23.892	13.009	1361.237	1033.024
24.907	12.926	1360.513	1031.863
25.921	12.907	1360.078	1031.323
26.936	13.023	1358.374	1030.662
27.950	13.011	1357.880	1030.124
28.965	13.147	1356.943	1030.171
29.980	13.218	1355.864	1029.703
30.994	13.230	1354.541	1028.680
32.009	13.174	1353.563	1027.495
33.023	13.225	1352.239	1026.718
34.038	13.121	1350.811	1024.897
35.053	13.118	1349.893	1024.091
36.067	13.101	1348.870	1023.121
37.082	13.078	1347.879	1022.136
38.096	13.173	1346.469	1021.564
39.111	13.106	1345.623	1020.415
40.126	13.028	1344.915	1019.307
41.140	12.931	1344.067	1017.980
42.155	12.832	1343.876	1017.134
43.169	12.824	1343.983	1017.073
44.184	12.902	1342.993	1016.713
45.199	12.991	1342.529	1016.824
46.213	12.890	1342.441	1016.045
47.228	13.048	1340.981	1015.818
48.242	13.001	1340.232	1014.875
49.257	12.990	1338.808	1013.636
50.271	13.000	1337.416	1012.554
51.286	13.049	1335.681	1011.456
52.301	13.109	1334.270	1010.665
53.315	12.959	1333.766	1009.276
54.330	12.936	1332.905	1008.391
55.344	12.920	1331.430	1007.089
56.359	12.953	1330.362	1006.397
57.374	12.965	1329.605	1005.804
58.388	12.940	1328.191	1004.492
59.403	12.870	1327.940	1003.789
60.417	12.881	1327.540	1003.466
61.432	12.877	1326.582	1002.628
62.447	12.787	1325.901	1001.476
63.461	12.813	1324.632	1000.587
64.476	12.770	1323.792	999.607
65.490	12.741	1322.431	998.314
66.505	12.720	1321.048	997.054
67.520	12.801	1319.475	996.268
68.534	12.757	1318.336	995.055
69.549	12.863	1317.662	995.097
70.563	12.784	1316.321	993.522
71.578	12.741	1315.066	992.227
72.593	12.669	1314.633	991.379
73.607	12.677	1313.685	990.621
74.622	12.636	1313.138	989.874
75.636	12.766	1312.071	989.766
76.651	12.681	1312.227	989.284
77.666	12.758	1311.329	988.983
78.680	12.806	1310.650	988.671
79.695	12.708	1310.003	987.509
80.709	12.815	1308.891	987.226
81.724	12.847	1308.175	986.785
82.739	12.954	1307.288	986.672
83.753	12.944	1306.447	985.892
84.768	13.014	1305.700	985.659
85.782	13.130	1304.213	985.136
86.797	13.044	1302.872	983.528
87.812	12.930	1301.879	982.012
88.826	12.992	1300.557	981.297
89.841	13.055	1299.604	980.865
90.855	13.100	1298.695	980.361
91.870	13.030	1298.190	979.477
92.884	13.027	1297.395	978.770
93.899	13.095	1296.522	978.429
94.914	13.140	1295.596	977.912
95.928	13.176	1295.108	977.667
96.943	13.132	1293.479	976.093
97.957	13.161	1292.634	975.538
98.972	13.095	1292.156	974.703
99.987	13.114	1290.515	973.488
101.001	13.129	1289.575	972.785
102.016	13.146	1288.801	972.216
103.030	13.152	1287.827	971.429
104.045	13.040	1286.949	970.019
105.060	13.112	1285.815	969.506
106.074	12.920	1284.454	967.268
107.089	12.868	1283.151	965.896
108.103	12.774	1282.234	964.569
109.118	12.892	1280.842	964.126
110.133	12.831	1279.527	962.694
111.147	12.973	1278.158	962.408
112.162	12.954	1276.559	961.011
113.176	13.017	1275.645	960.599
114.191	12.876	1274.970	959.189
115.206	12.845	1273.598	957.890
116.220	12.942	1272.200	957.316
117.235	12.950	1271.005	956.378
118.249	12.821	1270.615	955.256
119.264	12.933	1269.155	954.719
120.279	12.909	1268.186	953.771
121.293	12.898	1266.972	952.706
122.308	12.892	1265.511	951.489
123.322	12.890	1265.043	951.044
124.337	12.832	1264.251	950.027
125.352	12.881	1262.794	949.131
126.366	12.875	1261.572	948.094
127.381	12.850	1260.467	947.034
128.395	12.906	1259.493	946.542
129.410	12.781	1259.091	945.439
130.424	12.966	1257.561	945.270
131.439	12.953	1256.838	944.567
132.454	12.925	1255.838	943.569
133.468	12.860	1255.250	942.676
134.483	12.964	1254.404	942.547
135.497	12.924	1253.880	941.843
136.512	12.973	1251.799	940.478
137.527	12.958	1251.004	939.711
138.541	12.982	1248.825	938.126
139.556	12.983	1247.863	937.324
140.570	13.020	1246.749	936.615
141.585	13.166	1245.736	936.602
142.600	13.200	1244.620	935.873
143.614	13.140	1244.039	935.012
144.629	13.289	1242.682	934.755
145.643	13.233	1241.234	933.264
146.658	13.149	1240.614	932.244
147.673	13.015	1239.243	930.375
148.687	13.125	1237.991	929.972
149.702	13.096	1236.471	928.584
150.716	13.044	1235.278	927.311
151.731	12.993	1233.876	925.893
152.746	13.111	1232.503	925.439
153.760	13.140	1231.572	924.825
154.775	13.143	1230.598	924.029
155.789	13.143	1230.098	923.569
156.804	13.222	1228.566	922.779
157.819	13.178	1227.471	921.631
158.833	13.285	1226.630	921.514
159.848	13.345	1225.614	921.000
160.862	13.407	1224.444	920.385
161.877	13.257	1223.003	918.389
162.892	13.219	1222.519	917.729
163.906	13.205	1221.267	916.636
164.921	13.252	1220.044	915.896
165.935	13.063	1220.277	914.944
166.950	13.199	1219.729	915.202
167.964	13.203	1218.885	914.509
168.979	13.159	1217.661	913.271
169.994	13.234	1217.269	913.310
171.008	13.178	1216.266	912.165
172.023	13.295	1215.470	912.131
173.037	13.308	1214.838	911.650
174.052	13.401	1213.668	911.202
175.067	13.383	1212.337	910.024
176.081	13.261	1211.809	908.877
177.096	13.322	1210.502	908.149
178.110	13.382	1209.695	907.795
179.125	13.288	1208.728	906.475
180.140	13.246	1207.646	905.352
181.154	13.370	1206.143	904.821
182.169	13.430	1205.039	904.244
183.183	13.365	1204.450	903.366
184.198	13.428	1202.623	902.259
185.213	13.523	1201.595	901.928
186.227	13.569	1200.410	901.204
187.242	13.620	1199.203	900.500
188.256	13.514	1198.994	899.685
189.271	13.547	1197.583	898.725
190.286	13.502	1196.775	897.795
191.300	13.298	1195.649	895.766
192.315	13.276	1195.130	895.182
193.329	13.238	1194.324	894.289
194.344	13.279	1193.822	894.058
195.359	13.385	1193.214	894.095
196.373	13.512	1192.860	894.440
197.388	13.566	1192.089	894.074
198.402	13.602	1191.769	893.945
199.417	13.706	1191.454	894.191
200.432	13.797	1190.158	893.633
201.446	13.724	1189.664	892.787
202.461	13.807	1188.713	892.444
203.475	13.755	1187.735	891.347
204.490	13.778	1186.340	890.347
205.504	13.735	1185.167	889.155
206.519	13.719	1183.892	888.035
207.534	13.649	1182.623	886.633
208.548	13.684	1181.678	886.031
209.563	13.736	1180.895	885.645
210.577	13.796	1179.962	885.185
211.592	13.853	1179.409	884.998
212.607	13.938	1178.448	884.650
213.621	13.958	1177.379	883.873
214.636	13.878	1176.831	882.961
215.650	13.862	1175.869	882.076
216.665	13.864	1175.084	881.421
217.680	14.016	1174.183	881.471
218.694	14.000	1173.200	880.572
219.709	13.948	1172.863	879.967
220.723	13.993	1171.660	879.221
221.738	14.020	1171.302	879.018
222.753	14.015	1170.494	878.308
223.767	13.940	1170.120	877.554
224.782	14.000	1169.234	877.127
225.796	14.126	1168.688	877.306
226.811	14.119	1167.908	876.604
227.826	14.038	1166.870	875.323
228.840	14.053	1166.195	874.817
229.855	14.011	1165.623	874.089
230.869	13.993	1165.035	873.479
231.884	13.992	1163.666	872.370
232.899	14.075	1163.330	872.473
233.913	13.967	1162.621	871.298
234.928	13.853	1161.864	870.060
235.942	14.011	1161.154	870.277
236.957	13.978	1160.041	869.193
237.972	13.964	1159.712	868.794
238.986	14.065	1158.574	868.396
240.001	14.087	1157.732	867.801
241.015	14.148	1156.777	867.326
242.030	14.012	1156.607	866.413
243.045	14.232	1155.651	866.766
244.059	14.200	1154.615	865.748
245.074	14.134	1153.971	864.843
246.088	14.256	1153.373	864.954
247.103	14.242	1152.155	863.891
248.117	14.272	1151.937	863.806
249.132	14.419	1151.079	863.850
250.147	14.529	1150.512	863.918
251.161	14.595	1149.766	863.622
252.176	14.437	1149.437	862.480
253.190	14.546	1148.391	862.183
254.205	14.611	1147.479	861.758
255.220	14.759	1146.873	861.991
256.234	14.654	1146.596	861.161
257.249	14.588	1145.956	860.264
258.263	14.613	1145.402	859.904
259.278	14.708	1144.513	859.646
260.293	14.597	1144.183	858.755
261.307	14.705	1143.423	858.661
262.322	14.669	1143.156	858.198
263.336	14.769	1142.270	857.973
264.351	14.674	1141.857	857.099
265.366	14.780	1141.137	857.028
266.380	14.818	1140.280	856.502
267.395	14.719	1139.511	855.339
268.409	14.752	1138.910	854.984
269.424	14.722	1138.209	854.230
270.439	14.741	1137.736	853.896
271.453	14.778	1136.702	853.234
272.468	14.733	1135.625	852.117
273.482	14.670	1135.137	851.358
274.497	14.711	1134.699	851.163
275.512	14.721	1133.838	850.493
276.526	14.869	1132.415	850.102
277.541	14.840	1132.113	849.653
278.555	14.780	1131.811	849.045
279.570	14.865	1130.919	848.731
280.585	14.979	1130.238	848.726
281.599	14.952	1129.139	847.689
282.614	14.909	1128.413	846.851
283.628	14.916	1127.133	845.846
284.643	14.893	1126.296	845.031
285.657	14.856	1125.534	844.197
286.672	15.022	1124.505	844.187
287.687	15.036	1123.594	843.499
288.701	15.014	1123.354	843.135
289.716	14.951	1122.370	842.006
290.730	14.911	1121.557	841.119
291.745	15.004	1120.613	840.802
292.760	15.047	1120.198	840.634
293.774	14.931	1120.109	839.910
294.789	15.095	1119.595	840.273
295.803	15.135	1118.632	839.678
296.818	15.056	1117.899	838.657
297.833	15.068	1116.986	837.956
298.847	15.070	1116.483	837.517
299.862	15.054	1115.683	836.759
300.876	15.244	1114.742	836.929
301.891	15.206	1114.063	836.157
302.906	15.324	1113.393	836.170
303.920	15.344	1112.262	835.345
304.935	15.347	1111.871	834.991
305.949	15.287	1111.739	834.522
306.964	15.395	1111.129	834.526
307.979	15.350	1110.295	833.600
308.993	15.330	1109.353	832.719
310.008	15.444	1108.644	832.682
311.022	15.430	1107.568	831.732
312.037	15.462	1106.771	831.215
313.052	15.371	1105.614	829.826
314.066	15.308	1105.298	829.199
315.081	15.281	1104.219	828.186
316.095	15.282	1103.701	827.730
317.110	15.301	1103.181	827.359
318.125	15.259	1102.293	826.412
319.139	15.356	1101.094	825.916
320.154	15.357	1100.727	825.575
321.168	15.320	1100.047	824.810
322.183	15.304	1099.782	824.458
323.197	15.436	1099.201	824.601
324.212	15.358	1098.536	823.643
325.227	15.406	1097.782	823.243
326.241	15.380	1097.083	822.517
327.256	15.350	1096.499	821.862
328.270	15.418	1095.172	821.127
329.285	15.493	1094.298	820.765
330.300	15.507	1093.541	820.193
331.314	15.389	1092.387	818.679
332.329	15.478	1091.407	818.304
333.343	15.464	1090.632	817.584
334.358	15.601	1089.773	817.536
335.373	15.609	1088.879	816.831
336.387	15.592	1088.481	816.378
337.402	15.515	1087.989	815.561
338.416	15.643	1087.170	815.495
339.431	15.717	1086.712	815.441
340.446	15.703	1085.728	814.559
341.460	15.763	1085.254	814.425
342.475	15.892	1084.280	814.247
343.489	15.831	1083.422	813.232
344.504	15.924	1082.478	812.901
345.519	15.879	1081.711	812.038
346.533	15.829	1081.193	811.335
347.548	16.002	1080.259	811.394
348.562	15.888	1079.730	810.379
349.577	15.833	1078.832	809.367
350.592	15.819	1077.641	808.335
351.606	15.790	1077.260	807.839
352.621	15.813	1076.604	807.387
353.635	15.834	1075.643	806.694
354.650	15.785	1075.135	806.009
355.665	15.925	1074.266	805.955
356.679	15.725	1074.227	804.897
357.694	15.879	1073.588	805.085
358.708	15.880	1072.977	804.559
359.723	15.784	1072.248	803.484
360.738	16.006	1071.412	803.843
361.752	15.920	1071.071	803.107
362.767	15.957	1070.366	802.682
363.781	15.956	1070.098	802.409
364.796	16.044	1069.561	802.355
365.810	16.050	1069.050	801.925
366.825	16.277	1067.873	802.051
367.840	16.295	1067.438	801.740
368.854	16.276	1066.952	801.214
369.869	16.372	1065.978	800.868
370.883	16.182	1065.324	799.405
371.898	16.181	1064.505	798.711
372.913	16.256	1063.799	798.467
373.927	16.337	1063.391	798.473
374.942	16.282	1063.012	797.857
375.956	16.231	1062.519	797.179
376.971	16.260	1061.882	796.766
377.986	16.253	1061.539	796.403
379.000	16.380	1061.099	796.604
380.015	16.401	1060.650	796.293
381.029	16.435	1059.750	795.708
382.044	16.485	1059.128	795.407
383.059	16.522	1057.996	794.661
384.073	16.470	1057.128	793.692
385.088	16.594	1056.353	793.624
386.102	16.547	1055.634	792.794
387.117	16.489	1054.494	791.596
388.132	16.415	1053.920	790.749
389.146	16.335	1053.195	789.761
390.161	16.401	1052.207	789.258
391.175	16.453	1051.542	788.929
392.190	16.554	1051.191	789.068
393.205	16.523	1050.466	788.308
394.219	16.675	1049.177	787.978
395.234	16.472	1048.357	786.352
396.248	16.575	1047.377	786.025
397.263	16.539	1046.488	785.119
398.278	16.445	1045.966	784.224
399.292	16.469	1044.972	783.520
400.307	16.444	1044.285	782.818
401.321	16.526	1043.586	782.607
402.336	16.454	1043.208	781.922
403.350	16.473	1042.611	781.490
404.365	16.563	1041.902	781.308
405.380	16.599	1041.173	780.856
406.394	16.800	1040.415	781.145
407.409	16.615	1039.742	779.720
408.423	16.625	1039.111	779.225
409.438	16.780	1038.520	779.423
410.453	16.776	1037.839	778.828
411.467	16.909	1036.913	778.673
412.482	16.884	1036.432	778.127
413.496	17.005	1035.425	777.857
414.511	16.985	1035.428	777.702
415.526	17.026	1034.492	777.116
416.540	16.951	1034.497	776.707
417.555	16.943	1033.869	776.130
418.569	16.917	1033.341	775.548
419.584	16.968	1032.602	775.156
420.599	16.998	1032.233	774.946
421.613	104.001	1323.221	1473.764
422.628	95.222	1365.559	1473.840
