DTS Sentinel unit serial number:	SN413079Multiplexer serial number:	ORYXHardware model number:	OX4-SRSoftware version number:	ORYX F/W v4.00 Oryx Data Collector v3.7.2.0data status	okinstallation	princeton_trtdifferential loss correction	single-endedforward channel	channel 2reverse channel	N/Adate	2019/09/15time	07:39:35forward acquisition time	60.00reverse acquisition time	0.00gamma	496.2192k internal	0.2326k external	0.2326temperature offset calibration	1.0032default loss term (dB/km)	0.3790temperature slope calibration	1.0000multiplexer offset coefficient	1.0000multiplexer slope coefficient	1.0000fibre end	0.00T internal ref (°C)	30.62T ext. ref 1 (°C)	4.97T ext. ref 2 (°C)	25.52length (m)	temperature (°C)	Stokes	anti-Stokes-747.200	273.458	0.179	0.319
-746.185	334.669	0.048	0.094
-745.171	21.715	-0.039	0.032
-744.156	40.285	0.115	0.105
-743.142	41.266	-0.250	0.228
-742.127	62.809	-0.233	0.235
-741.112	339.372	-0.068	0.134
-740.098	-200.000	-0.011	0.064
-739.083	323.021	-0.012	-0.023
-738.069	60.154	-0.346	0.345
-737.054	-66.878	0.233	0.093
-736.039	8.768	-0.290	0.221
-735.025	133.819	-0.120	0.156
-734.010	-59.603	-0.256	-0.111
-732.996	53.623	-0.068	-0.066
-731.981	110.683	-0.026	0.031
-730.966	-200.000	-0.036	0.320
-729.952	24.043	0.100	-0.083
-728.937	-200.000	0.093	0.410
-727.923	-187.273	-0.140	-0.002
-726.908	98.767	-0.169	0.197
-725.894	-181.176	-0.319	0.006
-724.879	-200.000	0.062	0.295
-723.864	-51.790	0.184	0.086
-722.850	23.209	-0.167	0.138
-721.835	35.580	0.025	-0.022
-720.821	130.600	0.139	0.179
-719.806	237.289	-0.300	-0.501
-718.791	-144.473	0.283	-0.026
-717.777	143.843	-0.183	0.246
-716.762	-52.416	-0.154	0.072
-715.748	800.000	0.069	0.204
-714.733	713.880	0.051	-0.136
-713.718	-61.429	0.304	0.129
-712.704	-200.000	-0.030	-0.136
-711.689	-200.000	0.016	-0.125
-710.675	293.314	-0.038	0.070
-709.660	800.000	0.076	-0.293
-708.645	291.166	0.154	-0.282
-707.631	177.137	0.024	0.035
-706.616	800.000	-0.025	-0.084
-705.602	-114.826	0.266	0.051
-704.587	180.035	-0.120	0.178
-703.572	248.509	0.162	-0.277
-702.558	106.558	0.053	-0.063
-701.543	800.000	-0.018	0.079
-700.529	-140.435	0.194	-0.020
-699.514	-79.772	-0.108	0.037
-698.499	-200.000	0.003	0.323
-697.485	45.224	-0.118	0.109
-696.470	152.462	0.114	0.157
-695.456	-6.984	0.197	0.135
-694.441	3.201	-0.134	-0.098
-693.426	800.000	0.083	-0.244
-692.412	56.070	0.184	-0.180
-691.397	49.295	0.144	0.137
-690.383	303.990	0.018	-0.034
-689.368	131.216	0.171	0.221
-688.354	-93.509	-0.210	0.059
-687.339	-200.000	-0.033	-0.241
-686.324	-200.000	-0.015	-0.189
-685.310	800.000	-0.047	-0.156
-684.295	-32.856	0.220	0.123
-683.281	135.288	0.180	-0.235
-682.266	49.872	0.174	0.165
-681.251	-160.293	0.197	0.011
-680.237	-34.450	0.198	0.109
-679.222	-93.448	-0.183	0.051
-678.208	-200.000	0.016	0.109
-677.193	-200.000	-0.021	0.251
-676.178	-136.174	-0.199	0.023
-675.164	133.214	0.137	0.179
-674.149	48.967	-0.146	0.138
-673.135	290.384	0.142	0.259
-672.120	800.000	-0.045	-0.142
-671.105	52.153	0.152	-0.145
-670.091	78.134	0.109	-0.116
-669.076	431.800	-0.228	-0.496
-668.062	25.897	-0.208	0.174
-667.047	69.064	-0.075	-0.077
-666.032	-200.000	-0.048	-0.295
-665.018	800.000	0.049	0.197
-664.003	164.169	-0.062	-0.088
-662.989	800.000	-0.003	-0.010
-661.974	28.053	-0.192	0.163
-660.959	-138.434	-0.438	-0.048
-659.945	800.000	0.092	-0.391
-658.930	-99.177	-0.146	-0.037
-657.916	-28.676	-0.128	0.074
-656.901	-200.000	0.005	-0.063
-655.886	203.315	-0.165	0.257
-654.872	-76.137	0.329	0.117
-653.857	141.912	0.123	-0.164
-652.843	-86.599	-0.118	-0.036
-651.828	800.000	0.052	-0.205
-650.814	0.558	-0.110	0.079
-649.799	-63.935	-0.144	-0.059
-648.784	592.721	-0.108	0.267
-647.770	615.140	-0.042	-0.105
-646.755	-3.727	-0.132	-0.092
-645.741	-24.940	0.104	0.062
-644.726	800.000	-0.088	-0.288
-643.711	800.000	0.058	0.222
-642.697	250.015	0.074	-0.125
-641.682	-51.843	-0.201	-0.094
-640.668	-70.773	-0.154	0.058
-639.653	-200.000	-0.002	0.044
-638.638	-200.000	0.039	-0.358
-637.624	204.945	-0.062	0.097
-636.609	-48.623	-0.147	-0.071
-635.595	-27.241	-0.209	-0.122
-634.580	200.063	-0.090	-0.138
-633.565	800.000	-0.075	0.323
-632.551	-46.953	-0.132	0.065
-631.536	14.736	0.202	-0.158
-630.522	-121.589	0.179	-0.030
-629.507	-56.173	0.144	-0.064
-628.492	135.709	-0.198	0.258
-627.478	41.599	-0.109	-0.100
-626.463	800.000	-0.024	-0.088
-625.449	72.072	0.262	-0.274
-624.434	571.747	-0.162	-0.396
-623.419	-200.000	0.005	-0.025
-622.405	116.638	0.159	0.196
-621.390	118.342	-0.116	0.144
-620.376	-156.327	-0.078	-0.005
-619.361	495.843	0.096	0.222
-618.346	446.112	0.260	-0.574
-617.332	800.000	-0.103	0.284
-616.317	133.479	-0.235	0.305
-615.303	-194.585	0.192	-0.002
-614.288	47.166	0.191	0.179
-613.273	-24.010	0.168	-0.101
-612.259	-4.251	-0.316	0.219
-611.244	39.653	0.165	0.148
-610.230	-200.000	-0.022	0.099
-609.215	-108.904	0.198	0.043
-608.201	90.088	0.179	-0.201
-607.186	172.335	-0.234	0.338
-606.171	-106.175	0.084	0.019
-605.157	-110.989	-0.273	0.056
-604.142	-200.000	-0.006	0.073
-603.128	-95.286	0.157	0.043
-602.113	0.742	0.329	-0.237
-601.098	367.876	-0.035	0.070
-600.084	91.441	0.091	0.103
-599.069	68.327	-0.056	0.058
-598.055	-200.000	0.006	-0.204
-597.040	48.343	-0.138	-0.130
-596.025	195.185	-0.040	0.061
-595.011	-48.638	-0.286	-0.138
-593.996	-200.000	0.045	0.446
-592.982	-200.000	0.022	0.448
-591.967	189.229	-0.049	0.074
-590.952	394.955	-0.055	-0.116
-589.938	105.238	-0.148	-0.175
-588.923	-200.000	0.009	0.064
-587.909	-54.501	-0.139	-0.063
-586.894	-200.000	0.004	0.078
-585.879	-12.919	0.100	-0.065
-584.865	-144.992	-0.262	0.024
-583.850	-50.122	-0.238	-0.113
-582.836	649.491	-0.090	0.232
-581.821	-100.972	0.296	0.073
-580.806	-74.354	-0.273	0.099
-579.792	-177.395	0.301	0.007
-578.777	800.000	0.036	-0.113
-577.763	-140.631	0.243	-0.025
-576.748	61.894	-0.054	0.054
-575.733	-115.249	-0.239	0.045
-574.719	624.514	0.146	0.370
-573.704	104.160	0.123	0.145
-572.690	-114.973	-0.197	-0.038
-571.675	171.601	-0.159	0.228
-570.661	-43.474	-0.150	0.076
-569.646	-96.189	0.200	0.053
-568.631	284.868	0.125	-0.225
-567.617	-200.000	0.024	0.338
-566.602	105.579	-0.124	-0.147
-565.588	-98.294	-0.242	0.062
-564.573	586.436	0.057	0.140
-563.558	-200.000	-0.037	-0.212
-562.544	111.653	0.224	0.271
-561.529	-119.539	0.184	-0.032
-560.515	-99.352	0.278	0.070
-559.500	112.971	-0.144	0.175
-558.485	57.264	-0.323	0.316
-557.471	27.337	0.128	0.108
-556.456	-39.660	0.083	0.043
-555.442	295.751	-0.025	0.045
-554.427	-200.000	0.014	0.139
-553.412	-4.414	-0.096	0.066
-552.398	-19.617	0.209	0.129
-551.383	800.000	-0.072	0.314
-550.369	800.000	0.032	0.138
-549.354	90.918	0.185	-0.208
-548.339	800.000	0.042	-0.141
-547.325	-200.000	-0.056	0.457
-546.310	94.132	0.335	0.381
-545.296	-200.000	-0.009	0.284
-544.281	-141.577	-0.104	0.010
-543.266	-65.354	0.150	-0.060
-542.252	146.108	-0.133	-0.178
-541.237	-96.054	0.199	-0.053
-540.223	-114.039	0.151	-0.029
-539.208	24.313	0.112	-0.092
-538.193	800.000	0.130	-0.402
-537.179	-171.504	-0.245	-0.008
-536.164	-103.856	-0.366	0.086
-535.150	-128.066	-0.217	-0.031
-534.135	-110.182	0.252	0.053
-533.121	-141.438	0.111	-0.011
-532.106	-200.000	0.007	-0.161
-531.091	0.309	0.212	0.151
-530.077	-200.000	-0.031	0.272
-529.062	-137.825	0.108	-0.012
-528.048	-112.141	-0.121	0.024
-527.033	800.000	0.083	0.339
-526.018	108.760	0.104	-0.124
-525.004	800.000	-0.106	-0.372
-523.989	-200.000	0.000	0.063
-522.975	-58.922	0.260	0.112
-521.960	-200.000	0.011	-0.058
-520.945	48.443	-0.068	-0.063
-519.931	800.000	0.078	0.236
-518.916	-35.404	0.196	-0.106
-517.902	-200.000	0.016	0.076
-516.887	112.305	0.311	-0.375
-515.872	-59.187	-0.514	0.222
-514.858	-200.000	0.008	0.038
-513.843	582.738	0.073	-0.179
-512.829	13.777	-0.148	-0.115
-511.814	-200.000	0.023	0.169
-510.799	398.160	-0.212	0.443
-509.785	-64.884	-0.362	0.146
-508.770	-167.730	0.214	0.008
-507.756	24.231	-0.221	0.182
-506.741	175.691	0.193	-0.280
-505.726	-20.872	0.211	0.129
-504.712	-200.000	-0.315	0.001
-503.697	294.324	0.113	0.205
-502.683	104.410	-0.210	-0.247
-501.668	800.000	0.079	-0.239
-500.653	-200.000	0.039	-0.269
-499.639	-5.165	-0.382	-0.262
-498.624	-59.286	-0.244	-0.105
-497.610	-97.467	-0.124	0.032
-496.595	-29.716	0.148	0.085
-495.581	-124.422	-0.104	-0.016
-494.566	-61.302	-0.194	-0.081
-493.551	215.836	-0.047	0.074
-492.537	174.981	-0.197	-0.285
-491.522	264.250	-0.199	-0.346
-490.508	343.606	0.220	-0.431
-489.493	13.659	-0.196	-0.152
-488.478	29.245	0.034	0.029
-487.464	-116.280	0.272	-0.050
-486.449	115.953	0.268	0.327
-485.435	-200.000	0.017	-0.193
-484.420	-4.854	-0.191	0.132
-483.405	584.586	0.119	-0.292
-482.391	-2.513	-0.113	0.079
-481.376	420.888	-0.135	0.288
-480.362	22.259	0.253	-0.207
-479.347	348.796	-0.165	0.326
-478.332	57.356	-0.123	-0.120
-477.318	-108.576	-0.355	-0.076
-476.303	-200.000	-0.036	0.219
-475.289	-40.696	-0.189	0.098
-474.274	-200.000	-0.001	-0.067
-473.259	-140.541	0.308	-0.032
-472.245	-53.991	0.123	0.056
-471.230	-200.000	0.027	0.195
-470.216	199.913	0.065	0.100
-469.201	-200.000	-0.037	-0.198
-468.186	-25.126	0.071	-0.042
-467.172	-200.000	0.005	-0.066
-466.157	94.627	-0.104	-0.118
-465.143	-64.010	0.269	0.110
-464.128	19.005	0.146	0.117
-463.113	19.524	-0.155	-0.124
-462.099	65.447	-0.448	-0.452
-461.084	-200.000	0.046	-0.416
-460.070	-28.256	0.114	-0.066
-459.055	-125.885	-0.199	0.030
-458.040	-103.349	-0.121	0.028
-457.026	800.000	0.056	0.170
-456.011	396.982	-0.103	0.214
-454.997	234.434	-0.114	-0.188
-453.982	-138.160	0.524	-0.058
-452.968	-148.015	-0.254	0.021
-451.953	-200.000	-0.019	-0.292
-450.938	-200.000	0.020	0.176
-449.924	800.000	0.044	-0.157
-448.909	-200.000	-0.076	-0.334
-447.895	-116.943	-0.285	-0.052
-446.880	-137.505	-0.345	-0.039
-445.865	800.000	0.016	-0.055
-444.851	34.812	-0.158	-0.137
-443.836	161.306	0.114	0.159
-442.822	-93.834	0.182	0.050
-441.807	14.430	0.109	0.085
-440.792	-76.227	-0.438	-0.154
-439.778	205.839	-0.134	0.208
-438.763	74.884	0.115	-0.121
-437.749	800.000	-0.009	0.029
-436.734	-200.000	0.010	-0.199
-435.719	-200.000	-0.006	0.093
-434.705	-61.160	-0.112	0.047
-433.690	-175.012	0.234	-0.007
-432.676	-89.602	0.165	0.048
-431.661	151.903	0.117	0.160
-430.646	19.569	-0.136	0.109
-429.632	166.737	-0.187	0.264
-428.617	-200.000	-0.013	0.224
-427.603	238.263	0.101	0.167
-426.588	-200.000	0.006	0.132
-425.573	-150.228	-0.138	-0.011
-424.559	152.006	-0.221	0.301
-423.544	28.781	-0.059	-0.050
-422.530	-6.786	0.103	-0.070
-421.515	-80.402	-0.205	-0.068
-420.500	461.405	0.124	0.275
-419.486	-111.292	-0.306	-0.062
-418.471	-200.000	-0.065	-0.286
-417.457	-200.000	-0.009	0.162
-416.442	-13.801	-0.206	-0.133
-415.428	800.000	-0.068	0.261
-414.413	-200.000	0.004	0.039
-413.398	-125.524	-0.212	0.032
-412.384	800.000	0.023	-0.065
-411.369	-82.004	-0.287	0.093
-410.355	-89.105	0.228	0.067
-409.340	-200.000	-0.003	-0.448
-408.325	70.117	0.144	0.148
-407.311	414.345	0.138	0.292
-406.296	-68.332	-0.240	-0.093
-405.282	234.744	-0.028	-0.046
-404.267	160.145	-0.099	0.137
-403.252	-55.596	-0.257	-0.114
-402.238	800.000	-0.057	-0.184
-401.223	800.000	-0.032	0.105
-400.209	61.602	0.078	0.077
-399.194	-70.513	-0.290	0.109
-398.179	20.237	-0.226	-0.182
-397.165	-63.073	0.277	-0.114
-396.150	-69.038	0.133	0.051
-395.136	-200.000	-0.033	-0.168
-394.121	800.000	-0.092	0.322
-393.106	-84.129	0.202	0.064
-392.092	-107.214	0.094	-0.021
-391.077	264.285	0.042	-0.073
-390.063	12.594	0.208	0.160
-389.048	319.163	0.126	0.238
-388.033	800.000	-0.082	0.245
-387.019	563.452	-0.149	-0.359
-386.004	-66.422	0.081	-0.032
-384.990	185.535	0.064	-0.094
-383.975	201.954	-0.075	-0.115
-382.960	118.954	0.191	0.235
-381.946	180.750	-0.220	0.321
-380.931	-200.000	-0.080	-0.000
-379.917	200.089	0.176	0.269
-378.902	86.370	-0.163	0.178
-377.888	-178.328	0.263	-0.006
-376.873	-108.830	0.069	0.015
-375.858	-111.516	0.088	0.018
-374.844	329.513	-0.110	-0.210
-373.829	-109.807	0.123	0.026
-372.815	800.000	-0.053	0.162
-371.800	800.000	-0.012	0.036
-370.785	-149.464	0.188	-0.015
-369.771	-147.468	-0.109	0.009
-368.756	-47.390	-0.474	-0.229
-367.742	518.715	-0.072	-0.166
-366.727	800.000	-0.076	0.310
-365.712	-49.776	-0.133	0.063
-364.698	-78.779	0.179	-0.061
-363.683	82.582	0.176	0.190
-362.669	-84.264	-0.332	0.104
-361.654	-9.636	-0.166	-0.110
-360.639	-51.485	-0.182	-0.085
-359.625	-200.000	0.069	0.377
-358.610	-29.101	-0.376	0.214
-357.596	800.000	0.116	0.349
-356.581	88.407	0.110	-0.121
-355.566	268.248	0.037	-0.064
-354.552	-200.000	0.013	-0.131
-353.537	772.524	0.119	-0.322
-352.523	-124.877	-0.043	0.007
-351.508	176.647	-0.183	-0.265
-350.493	-88.016	0.247	0.074
-349.479	-93.992	0.060	0.016
-348.464	-60.055	0.278	-0.118
-347.450	-200.000	0.017	-0.162
-346.435	749.647	-0.077	0.207
-345.420	-37.540	-0.156	0.082
-344.406	-102.052	0.288	0.069
-343.391	-14.689	0.044	0.028
-342.377	800.000	0.101	-0.325
-341.362	-22.509	0.154	-0.093
-340.348	-138.603	-0.364	0.040
-339.333	111.435	0.138	-0.165
-338.318	-110.956	0.220	-0.045
-337.304	-200.000	-0.028	0.248
-336.289	536.511	-0.091	-0.216
-335.275	92.485	0.193	-0.216
-334.260	-21.578	-0.344	-0.208
-333.245	-100.495	0.224	-0.055
-332.231	556.428	-0.096	0.230
-331.216	3.904	-0.218	0.158
-330.202	497.197	0.081	-0.186
-329.187	188.796	-0.051	-0.076
-328.172	63.697	-0.171	0.170
-327.158	-58.964	-0.180	0.077
-326.143	800.000	-0.152	-0.441
-325.129	800.000	0.081	-0.297
-324.114	576.555	0.103	-0.250
-323.099	109.884	-0.139	0.166
-322.085	-68.646	0.369	-0.142
-321.070	366.306	0.147	-0.294
-320.056	-66.259	-0.302	0.119
-319.041	-110.204	0.137	0.028
-318.026	32.047	-0.216	-0.185
-317.012	226.331	-0.046	-0.074
-315.997	-75.065	0.097	-0.035
-314.983	366.662	0.098	-0.197
-313.968	-200.000	0.046	-0.335
-312.953	53.478	0.184	-0.175
-311.939	12.281	0.209	-0.159
-310.924	376.628	0.178	-0.361
-309.910	275.945	-0.074	-0.129
-308.895	800.000	0.097	0.372
-307.880	-200.000	-0.007	-0.075
-306.866	800.000	0.108	-0.305
-305.851	-4.021	-0.076	-0.052
-304.837	800.000	0.013	-0.043
-303.822	-200.000	0.010	-0.295
-302.807	-75.488	0.304	0.107
-301.793	409.103	-0.090	0.190
-300.778	-76.549	-0.327	-0.114
-299.764	-200.000	0.033	-0.217
-298.749	210.333	-0.120	-0.186
-297.735	800.000	-0.035	-0.117
-296.720	-200.000	0.013	0.328
-295.705	366.047	-0.058	0.116
-294.691	-33.337	0.063	-0.034
-293.676	94.028	0.255	-0.287
-292.662	54.137	0.175	0.167
-291.647	800.000	-0.027	0.105
-290.632	800.000	-0.053	0.161
-289.618	-200.000	-0.007	0.561
-288.603	-200.000	-0.002	0.196
-287.589	8.646	0.137	0.102
-286.574	179.107	-0.181	-0.262
-285.559	94.171	-0.035	-0.039
-284.545	-35.433	-0.198	0.106
-283.530	-60.482	0.067	-0.028
-282.516	800.000	-0.098	-0.328
-281.501	-200.000	-0.008	0.238
-280.486	-154.952	0.375	0.024
-279.472	66.777	0.015	-0.015
-278.457	-200.000	-0.029	0.132
-277.443	-200.000	-0.008	0.368
-276.428	310.682	-0.182	-0.338
-275.413	760.470	0.058	0.157
-274.399	402.696	0.118	-0.247
-273.384	-73.041	-0.112	0.041
-272.370	70.799	-0.108	0.111
-271.355	-139.393	0.243	-0.026
-270.340	-136.398	-0.249	0.029
-269.326	-18.186	0.073	-0.045
-268.311	-200.000	0.008	-0.499
-267.297	-200.000	0.003	0.345
-266.282	24.864	0.108	0.089
-265.267	-98.293	0.088	-0.022
-264.253	-168.194	-0.262	0.010
-263.238	-89.088	0.277	-0.081
-262.224	-41.589	-0.203	0.103
-261.209	180.164	0.115	-0.167
-260.195	24.024	-0.273	0.223
-259.180	-77.752	0.309	0.106
-258.165	86.421	0.109	0.119
-257.151	-200.000	0.026	0.245
-256.136	155.978	0.099	0.135
-255.122	800.000	-0.099	0.392
-254.107	-123.350	0.401	-0.063
-253.092	-7.852	0.314	0.210
-252.078	800.000	-0.084	-0.278
-251.063	-14.033	-0.180	0.115
-250.049	288.207	0.173	-0.310
-249.034	800.000	-0.069	-0.268
-248.019	-127.308	0.151	-0.022
-247.005	75.293	-0.164	-0.171
-245.990	88.482	-0.088	0.096
-244.976	-177.237	-0.078	-0.002
-243.961	-132.979	0.346	-0.043
-242.946	-41.943	-0.262	-0.133
-241.932	409.048	0.118	-0.247
-240.917	700.789	0.133	-0.347
-239.903	-200.000	-0.022	-0.562
-238.888	-200.000	-0.001	0.073
-237.873	86.497	0.044	0.048
-236.859	-200.000	0.030	0.295
-235.844	-124.598	-0.201	-0.031
-234.830	607.509	0.070	-0.172
-233.815	-200.000	0.033	0.167
-232.800	207.861	-0.111	-0.171
-231.786	38.152	0.296	0.261
-230.771	-25.386	0.077	-0.045
-229.757	766.577	-0.143	0.386
-228.742	244.030	0.096	0.159
-227.727	668.654	-0.069	0.176
-226.713	800.000	-0.062	0.251
-225.698	800.000	0.110	0.431
-224.684	31.285	0.069	0.058
-223.669	1.934	-0.282	-0.201
-222.655	-29.696	0.077	0.043
-221.640	171.993	-0.215	0.306
-220.625	-200.000	0.000	0.127
-219.611	-200.000	0.057	-0.354
-218.596	280.096	0.098	0.173
-217.582	-77.829	0.213	0.073
-216.567	-170.006	0.123	0.004
-215.552	-85.973	0.341	0.104
-214.538	97.357	0.113	-0.129
-213.523	-68.072	-0.073	-0.028
-212.509	-48.599	0.099	-0.047
-211.494	-108.856	-0.157	0.033
-210.479	-200.000	-0.008	0.214
-209.465	800.000	0.062	-0.241
-208.450	-113.095	-0.160	-0.031
-207.436	-19.932	0.130	0.079
-206.421	285.934	-0.075	-0.134
-205.406	-85.184	-0.180	-0.056
-204.392	68.794	0.182	0.184
-203.377	-108.071	-0.181	0.039
-202.363	-106.921	0.190	0.042
-201.348	-97.915	-0.121	-0.031
-200.333	-192.397	-0.270	-0.003
-199.319	768.957	0.021	-0.056
-198.304	-36.065	-0.212	-0.113
-197.290	-72.007	0.188	-0.069
-196.275	-34.159	-0.226	0.123
-195.260	21.389	0.520	-0.417
-194.246	96.497	0.245	-0.277
-193.231	-44.829	0.335	-0.165
-192.217	-22.120	0.200	0.120
-191.202	-68.010	0.178	-0.069
-190.187	-71.216	0.178	-0.066
-189.173	-52.758	0.333	0.152
-188.158	95.243	0.149	0.167
-187.144	-109.389	0.146	-0.030
-186.129	-94.818	-0.182	0.049
-185.114	282.684	0.135	-0.239
-184.100	800.000	0.090	-0.285
-183.085	-93.127	0.240	-0.066
-182.071	-152.011	0.136	-0.010
-181.056	-170.523	0.072	0.002
-180.042	-200.000	-0.024	-0.217
-179.027	-94.807	0.234	0.063
-178.012	-14.894	-0.236	0.150
-176.998	-154.060	-0.059	0.004
-175.983	-157.299	-0.087	-0.005
-174.969	-114.358	0.286	-0.054
-173.954	-116.719	-0.270	-0.049
-172.939	-200.000	-0.029	-0.165
-171.925	-43.111	0.179	-0.090
-170.910	-45.743	0.203	-0.099
-169.896	-17.682	0.260	0.161
-168.881	-161.769	0.070	0.004
-167.866	171.186	-0.287	0.405
-166.852	-200.000	-0.009	0.124
-165.837	-104.290	0.162	0.037
-164.823	127.394	0.134	-0.168
-163.808	-121.579	-0.138	0.023
-162.793	-200.000	-0.007	0.096
-161.779	-75.662	-0.260	0.091
-160.764	154.833	-0.071	-0.096
-159.750	-73.507	0.315	-0.113
-158.735	-99.519	-0.549	-0.136
-157.720	-30.057	0.213	-0.119
-156.706	-200.000	-0.030	-0.351
-155.691	101.594	-0.105	0.120
-154.677	800.000	0.041	-0.117
-153.662	88.967	-0.266	-0.292
-152.647	251.371	-0.150	-0.251
-151.633	-115.426	0.303	0.056
-150.618	-60.326	0.120	0.050
-149.604	398.772	0.093	-0.192
-148.589	323.314	0.070	-0.132
-147.574	-200.000	-0.074	-0.334
-146.560	245.915	0.231	-0.384
-145.545	-200.000	0.014	0.262
-144.531	444.299	-0.139	0.301
-143.516	89.064	-0.092	-0.101
-142.502	481.095	-0.092	-0.205
-141.487	-200.000	0.048	-0.319
-140.472	-176.525	0.119	-0.003
-139.458	-155.762	-0.167	0.011
-138.443	-10.792	-0.049	0.032
-137.429	-47.142	-0.053	-0.026
-136.414	613.992	0.156	0.384
-135.399	67.785	-0.048	0.048
-134.385	156.155	-0.073	0.099
-133.370	38.840	0.086	0.076
-132.356	-16.272	0.255	0.159
-131.341	800.000	0.121	0.343
-130.326	-162.854	0.188	0.009
-129.312	7.083	-0.127	0.093
-128.297	-88.256	0.068	-0.020
-127.283	-30.917	0.185	0.103
-126.268	800.000	-0.095	0.283
-125.253	-200.000	-0.012	0.205
-124.239	-19.751	-0.285	0.174
-123.224	-75.614	0.343	-0.120
-122.210	800.000	-0.078	0.219
-121.195	693.910	0.042	0.109
-120.180	-200.000	0.014	-0.067
-119.166	-200.000	0.004	0.071
-118.151	-82.878	0.231	0.074
-117.137	-9.198	0.120	0.079
-116.122	204.627	0.396	0.605
-115.107	-90.455	0.134	0.038
-114.093	75.405	0.119	0.124
-113.078	-200.000	-0.037	-0.179
-112.064	-200.000	-0.018	-0.272
-111.049	303.610	-0.090	0.164
-110.034	704.929	-0.055	0.143
-109.020	329.536	-0.048	0.091
-108.005	401.707	0.080	0.166
-106.991	61.250	0.146	-0.143
-105.976	39.850	0.152	0.135
-104.962	-67.192	0.155	0.060
-103.947	228.349	0.051	0.081
-102.932	-73.965	-0.008	-0.003
-101.918	250.158	0.144	0.240
-100.903	198.789	-0.055	0.083
-99.889	385.313	0.105	0.213
-98.874	138.474	0.264	-0.341
-97.859	-73.142	-0.361	0.130
-96.845	-106.514	0.207	-0.046
-95.830	-55.869	-0.410	-0.180
-94.816	-17.904	-0.186	-0.115
-93.801	-200.000	0.010	-0.254
-92.786	800.000	0.058	0.193
-91.772	-150.070	-0.076	-0.006
-90.757	-200.000	0.031	0.288
-89.743	-40.932	-0.185	0.094
-88.728	-200.000	-0.007	0.265
-87.713	-5.670	0.238	0.160
-86.699	79.071	0.227	0.239
-85.684	800.000	-0.052	-0.148
-84.670	-152.450	-0.294	0.021
-83.655	417.475	0.144	-0.303
-82.640	41.132	0.054	0.048
-81.626	131.284	-0.135	-0.170
-80.611	65.007	0.249	-0.247
-79.597	-200.000	-0.037	0.470
-78.582	800.000	0.119	0.507
-77.567	309.223	0.145	-0.265
-76.553	69.442	-0.207	0.209
-75.538	-115.372	0.202	0.037
-74.524	13.869	-0.222	0.170
-73.509	399.201	0.069	0.142
-72.494	205.182	-0.136	-0.207
-71.480	22.461	0.227	0.183
-70.465	82.726	-0.140	-0.150
-69.451	-200.000	0.019	0.176
-68.436	663.219	0.054	0.138
-67.422	-200.000	0.018	0.480
-66.407	800.000	-0.042	-0.117
-65.392	-13.857	-0.144	0.091
-64.378	498.876	-0.035	0.078
-63.363	317.347	-0.123	0.229
-62.349	-84.733	0.109	0.034
-61.334	15.038	-1.159	-0.892
-60.319	-113.939	0.458	0.087
-59.305	580.983	-0.426	-1.024
-58.290	322.208	0.546	1.021
-57.276	718.788	0.562	1.467
-56.261	-200.000	102.817	594.719
-55.246	553.249	1437.085	3391.572
-54.232	185.453	2635.128	3842.043
-53.217	109.843	2283.423	2688.807
-52.203	39.914	1898.989	1674.139
-51.188	33.764	1687.396	1441.039
-50.173	31.149	1644.088	1384.625
-49.159	49.635	1695.612	1567.744
-48.144	50.728	1710.844	1589.986
-47.130	33.449	1669.633	1423.274
-46.115	30.762	1655.437	1391.069
-45.100	30.619	1650.479	1385.777
-44.086	30.519	1648.128	1383.005
-43.071	30.541	1645.268	1380.717
-42.057	30.534	1643.104	1378.796
-41.042	30.443	1641.691	1376.878
-40.027	30.562	1639.062	1375.502
-39.013	30.563	1637.015	1373.732
-37.998	30.559	1635.634	1372.490
-36.984	30.528	1634.445	1371.207
-35.969	30.631	1632.959	1370.665
-34.954	30.681	1631.344	1369.625
-33.940	30.638	1629.435	1367.654
-32.925	30.589	1628.440	1366.407
-31.911	30.576	1626.389	1364.530
-30.896	30.585	1624.654	1363.087
-29.881	30.634	1622.779	1361.819
-28.867	30.675	1620.750	1360.367
-27.852	30.563	1619.924	1358.801
-26.838	30.625	1618.029	1357.604
-25.823	30.583	1617.415	1356.731
-24.809	30.676	1615.457	1355.717
-23.794	30.649	1614.469	1354.631
-22.779	30.729	1612.748	1353.719
-21.765	30.613	1611.136	1351.471
-20.750	30.688	1609.182	1350.316
-19.736	30.603	1608.477	1349.056
-18.721	30.738	1606.496	1348.319
-17.706	30.691	1604.828	1346.526
-16.692	30.684	1603.246	1345.095
-15.677	30.670	1602.243	1344.102
-14.663	30.726	1600.992	1343.402
-13.648	30.643	1599.602	1341.586
-12.633	30.634	1598.163	1340.257
-11.619	30.567	1596.422	1338.261
-10.604	30.574	1595.196	1337.234
-9.590	30.630	1593.295	1335.990
-8.575	30.715	1592.634	1335.989
-7.560	30.618	1591.458	1334.258
-6.546	30.601	1590.629	1333.383
-5.531	30.621	1589.499	1332.528
-4.517	30.572	1588.195	1331.034
-3.502	30.671	1586.386	1330.169
-2.487	30.755	1584.676	1329.288
-1.473	30.331	1573.500	1316.847
-0.458	27.740	1554.235	1282.489
0.556	23.496	1555.440	1251.417
1.571	21.191	1580.206	1254.690
2.586	20.741	1593.391	1261.782
3.600	18.487	1539.919	1203.523
4.615	11.587	1433.315	1074.866
5.629	5.840	1373.172	993.360
6.644	5.166	1365.636	983.579
7.659	4.972	1364.507	981.456
8.673	4.875	1363.467	980.011
9.688	4.877	1361.815	978.748
10.702	4.782	1358.661	975.798
11.717	7.564	1363.635	996.766
12.731	14.412	1376.193	1049.101
13.746	18.784	1382.953	1081.762
14.761	18.641	1381.637	1079.739
15.775	17.885	1378.339	1072.316
16.790	16.613	1376.196	1062.571
17.804	15.825	1373.903	1055.765
18.819	15.355	1372.756	1051.843
19.834	15.297	1371.079	1050.106
20.848	14.960	1370.131	1047.178
21.863	14.671	1369.244	1044.599
22.877	14.619	1367.407	1042.780
23.892	14.606	1366.656	1042.031
24.907	14.463	1366.213	1040.710
25.921	14.585	1365.113	1040.538
26.936	14.604	1364.172	1039.851
27.950	14.723	1363.044	1039.638
28.965	14.691	1362.529	1038.952
29.980	14.821	1360.916	1038.437
30.994	14.948	1359.581	1038.118
32.009	14.900	1358.645	1037.017
33.023	14.857	1357.584	1035.847
34.038	14.811	1356.086	1034.326
35.053	14.749	1354.720	1032.811
36.067	14.785	1353.881	1032.301
37.082	14.807	1352.779	1031.507
38.096	14.769	1351.968	1030.561
39.111	14.733	1351.382	1029.800
40.126	14.656	1350.146	1028.297
41.140	14.538	1349.771	1027.193
42.155	14.538	1349.056	1026.553
43.169	14.445	1348.959	1025.818
44.184	14.535	1348.118	1025.641
45.199	14.516	1348.054	1025.387
46.213	14.652	1346.976	1025.310
47.228	14.762	1346.326	1025.400
48.242	14.672	1345.441	1024.080
49.257	14.635	1343.881	1022.576
50.271	14.611	1342.603	1021.370
51.286	14.696	1341.347	1020.844
52.301	14.763	1339.414	1019.691
53.315	14.688	1338.914	1018.764
54.330	14.498	1338.033	1016.845
55.344	14.525	1337.252	1016.321
56.359	14.517	1335.886	1015.148
57.374	14.579	1334.753	1014.574
58.388	14.408	1334.034	1012.900
59.403	14.410	1333.597	1012.485
60.417	14.496	1333.191	1012.611
61.432	14.383	1331.947	1010.893
62.447	14.407	1331.103	1010.309
63.461	14.392	1329.629	1009.007
64.476	14.346	1329.186	1008.302
65.490	14.328	1327.904	1007.136
66.505	14.416	1325.822	1006.000
67.520	14.452	1325.079	1005.560
68.534	14.418	1323.770	1004.274
69.549	14.496	1322.461	1003.665
70.563	14.438	1321.613	1002.582
71.578	14.298	1320.710	1000.967
72.593	14.311	1319.591	1000.109
73.607	14.283	1318.579	999.082
74.622	14.322	1317.879	998.697
75.636	14.291	1317.514	998.148
76.651	14.238	1316.984	997.338
77.666	14.324	1316.242	997.205
78.680	14.323	1315.783	996.763
79.695	14.332	1315.040	996.165
80.709	14.429	1314.383	996.161
81.724	14.426	1313.461	995.357
82.739	14.575	1312.218	995.216
83.753	14.576	1311.560	994.633
84.768	14.660	1310.752	994.433
85.782	14.710	1309.806	993.924
86.797	14.689	1308.189	992.488
87.812	14.588	1307.192	991.042
88.826	14.647	1306.137	990.506
89.841	14.588	1305.536	989.609
90.855	14.803	1304.034	989.657
91.870	14.713	1303.655	988.750
92.884	14.800	1302.175	988.055
93.899	14.740	1301.552	987.138
94.914	14.821	1301.147	987.221
95.928	14.879	1299.691	986.372
96.943	14.716	1298.946	984.757
97.957	14.705	1298.155	984.008
98.972	14.710	1297.250	983.261
99.987	14.776	1295.781	982.455
101.001	14.770	1294.937	981.689
102.016	14.676	1294.113	980.427
103.030	14.787	1292.708	979.925
104.045	14.751	1292.081	979.152
105.060	14.734	1290.834	978.023
106.074	14.642	1289.310	976.245
107.089	14.456	1288.264	974.277
108.103	14.440	1287.016	973.152
109.118	14.471	1285.536	972.132
110.133	14.421	1284.547	971.005
111.147	14.561	1282.557	970.228
112.162	14.448	1281.511	968.698
113.176	14.616	1280.143	968.553
114.191	14.577	1279.655	967.868
115.206	14.542	1278.289	966.548
116.220	14.602	1277.290	966.056
117.235	14.590	1276.627	965.399
118.249	14.532	1275.037	963.774
119.264	14.604	1273.477	962.928
120.279	14.499	1273.053	961.913
121.293	14.475	1272.163	961.017
122.308	14.523	1271.018	960.345
123.322	14.484	1269.821	959.128
124.337	14.362	1269.467	958.078
125.352	14.473	1268.039	957.553
126.366	14.464	1267.104	956.711
127.381	14.414	1266.174	955.639
128.395	14.562	1264.808	955.370
129.410	14.548	1263.472	954.194
130.424	14.466	1263.299	953.509
131.439	14.504	1262.156	952.780
132.454	14.526	1261.283	952.165
133.468	14.519	1260.776	951.655
134.483	14.604	1259.402	951.021
135.497	14.588	1258.375	950.071
136.512	14.622	1257.315	949.379
137.527	14.553	1256.000	947.911
138.541	14.770	1254.391	947.839
139.556	14.671	1253.010	946.153
140.570	14.662	1252.145	945.364
141.585	14.753	1251.384	945.222
142.600	14.806	1249.731	944.188
143.614	14.832	1249.234	943.877
144.629	14.913	1247.439	942.897
145.643	14.909	1246.537	942.106
146.658	14.736	1245.904	940.569
147.673	14.711	1244.176	939.044
148.687	14.734	1242.905	938.128
149.702	14.635	1242.031	936.830
150.716	14.608	1240.499	935.442
151.731	14.712	1239.042	934.844
152.746	14.746	1237.858	934.059
153.760	14.704	1237.321	933.334
154.775	14.847	1236.109	933.133
155.789	14.800	1235.450	932.292
156.804	14.801	1234.392	931.420
157.819	14.848	1233.468	930.900
158.833	14.889	1231.914	929.872
159.848	14.954	1231.167	929.587
160.862	14.876	1230.432	928.518
161.877	14.786	1229.030	926.878
162.892	14.880	1227.770	926.365
163.906	14.890	1226.694	925.529
164.921	14.796	1226.277	924.612
165.935	14.843	1225.343	924.083
166.950	14.799	1224.930	923.448
167.964	14.863	1223.895	922.942
168.979	14.900	1223.004	922.392
169.994	14.812	1222.227	921.236
171.008	14.903	1221.706	921.268
172.023	14.917	1221.060	920.774
173.037	15.069	1220.358	920.998
174.052	15.031	1219.185	919.825
175.067	14.920	1218.138	918.344
176.081	14.884	1216.989	917.196
177.096	14.832	1216.422	916.402
178.110	14.918	1215.132	915.820
179.125	14.967	1213.818	915.018
180.140	14.970	1212.849	914.223
181.154	14.997	1211.692	913.416
182.169	15.078	1210.296	912.729
183.183	15.060	1209.533	911.972
184.198	15.133	1208.151	911.249
185.213	15.105	1207.194	910.292
186.227	15.227	1206.081	910.038
187.242	15.206	1205.047	909.058
188.256	15.234	1204.072	908.395
189.271	15.233	1203.023	907.519
190.286	15.065	1202.282	905.972
191.300	14.888	1201.522	904.362
192.315	14.756	1200.538	902.829
193.329	14.872	1199.837	902.847
194.344	14.980	1199.362	902.993
195.359	15.022	1198.835	902.741
196.373	15.168	1198.136	902.925
197.388	15.198	1197.679	902.660
198.402	15.254	1197.364	902.644
199.417	15.317	1196.719	902.419
200.432	15.325	1196.158	901.955
201.446	15.470	1195.116	901.872
202.461	15.386	1194.135	900.598
203.475	15.539	1192.817	900.348
204.490	15.384	1191.844	898.701
205.504	15.288	1190.870	897.376
206.519	15.356	1189.448	896.588
207.534	15.355	1188.111	895.495
208.548	15.438	1187.066	895.069
209.563	15.358	1186.723	894.304
210.577	15.379	1185.734	893.595
211.592	15.485	1185.182	893.661
212.607	15.507	1184.114	892.896
213.621	15.468	1183.151	891.883
214.636	15.447	1182.556	891.243
215.650	15.526	1181.552	890.828
216.665	15.510	1180.457	889.839
217.680	15.581	1179.527	889.435
218.694	15.656	1178.808	889.211
219.709	15.696	1178.303	888.965
220.723	15.653	1177.569	888.101
221.738	15.634	1176.437	887.072
222.753	15.666	1175.987	886.823
223.767	15.688	1175.339	886.373
224.782	15.841	1174.330	886.337
225.796	15.785	1173.977	885.695
226.811	15.761	1173.199	884.906
227.826	15.660	1172.577	883.824
228.840	15.734	1171.660	883.448
229.855	15.735	1170.537	882.525
230.869	15.636	1170.089	881.592
231.884	15.741	1168.995	881.239
232.899	15.625	1168.182	879.942
233.913	15.632	1167.534	879.413
234.928	15.582	1167.126	878.763
235.942	15.598	1166.431	878.248
236.957	15.626	1165.438	877.568
237.972	15.548	1165.160	876.874
238.986	15.642	1164.263	876.614
240.001	15.661	1163.669	876.188
241.015	15.740	1162.499	875.637
242.030	15.697	1162.095	875.034
243.045	15.861	1160.988	874.974
244.059	15.798	1160.648	874.315
245.074	15.794	1159.548	873.388
246.088	15.874	1158.804	873.163
247.103	15.900	1158.134	872.717
248.117	15.927	1157.309	872.156
249.132	16.098	1156.548	872.393
250.147	16.100	1156.400	872.211
251.161	16.186	1155.259	871.720
252.176	16.200	1154.574	871.197
253.190	16.296	1153.984	871.172
254.205	16.238	1153.544	870.462
255.220	16.280	1153.097	870.264
256.234	16.222	1152.538	869.466
257.249	16.337	1151.490	869.194
258.263	16.332	1150.866	868.617
259.278	16.268	1150.517	867.951
260.293	16.318	1149.814	867.600
261.307	16.426	1148.832	867.336
262.322	16.360	1148.649	866.783
263.336	16.490	1147.623	866.599
264.351	16.514	1147.208	866.332
265.366	16.358	1146.528	864.941
266.380	16.423	1145.912	864.735
267.395	16.496	1144.715	864.128
268.409	16.461	1144.031	863.356
269.424	16.471	1143.376	862.834
270.439	16.352	1143.016	861.877
271.453	16.337	1142.160	861.080
272.468	16.446	1141.104	860.765
273.482	16.348	1140.597	859.804
274.497	16.378	1139.746	859.241
275.512	16.453	1139.161	859.108
276.526	16.441	1138.266	858.292
277.541	16.487	1137.251	857.688
278.555	16.485	1136.733	857.211
279.570	16.620	1136.307	857.494
280.585	16.586	1135.683	856.778
281.599	16.655	1134.194	855.925
282.614	16.498	1133.546	854.569
283.628	16.639	1132.343	854.300
284.643	16.532	1131.483	853.036
285.657	16.475	1131.090	852.375
286.672	16.640	1129.781	852.146
287.687	16.719	1128.486	851.491
288.701	16.682	1128.178	850.996
289.716	16.612	1127.225	849.850
290.730	16.623	1126.728	849.454
291.745	16.662	1126.086	849.089
292.760	16.676	1125.659	848.762
293.774	16.601	1125.406	848.121
294.789	16.845	1124.856	848.857
295.803	16.770	1124.093	847.828
296.818	16.717	1122.867	846.564
297.833	16.667	1121.998	845.584
298.847	16.755	1121.486	845.563
299.862	16.793	1120.496	844.933
300.876	16.747	1120.083	844.318
301.891	16.849	1118.996	843.933
302.906	16.841	1119.142	843.927
303.920	16.963	1117.973	843.576
304.935	16.943	1117.558	843.089
305.949	17.098	1116.850	843.249
306.964	17.125	1116.280	842.878
307.979	17.002	1115.348	841.493
308.993	17.129	1114.445	841.364
310.008	17.065	1113.736	840.435
311.022	17.167	1113.192	840.458
312.037	17.027	1112.239	838.973
313.052	17.041	1111.313	838.268
314.066	16.947	1110.225	836.912
315.081	16.873	1109.935	836.253
316.095	17.004	1108.806	835.975
317.110	16.987	1108.015	835.218
318.125	16.994	1107.335	834.665
319.139	16.932	1106.937	833.988
320.154	16.908	1106.603	833.543
321.168	17.029	1105.617	833.324
322.183	16.964	1105.129	832.563
323.197	17.005	1104.529	832.236
324.212	17.089	1103.655	831.915
325.227	17.015	1103.084	831.049
326.241	17.138	1102.447	831.101
327.256	17.072	1101.808	830.218
328.270	17.106	1100.848	829.587
329.285	17.095	1099.618	828.537
330.300	17.058	1099.148	827.927
331.314	17.093	1098.142	827.268
332.329	17.059	1097.358	826.439
333.343	17.170	1096.109	825.965
334.358	17.136	1095.752	825.455
335.373	17.217	1095.023	825.229
336.387	17.292	1094.371	825.028
337.402	17.228	1093.617	824.074
338.416	17.371	1092.691	823.998
339.431	17.392	1091.951	823.468
340.446	17.478	1091.554	823.513
341.460	17.498	1090.902	823.043
342.475	17.568	1089.691	822.394
343.489	17.447	1089.074	821.272
344.504	17.537	1088.147	820.936
345.519	17.568	1087.653	820.639
346.533	17.668	1086.517	820.193
347.548	17.626	1086.074	819.584
348.562	17.614	1085.410	818.951
349.577	17.562	1084.584	818.004
350.592	17.549	1083.768	817.257
351.606	17.465	1083.112	816.285
352.621	17.436	1082.287	815.452
353.635	17.512	1081.259	814.970
354.650	17.516	1080.771	814.550
355.665	17.533	1080.536	814.383
356.679	17.460	1079.594	813.248
357.694	17.644	1079.179	813.746
358.708	17.667	1078.357	813.165
359.723	17.509	1078.121	812.157
360.738	17.586	1077.046	811.644
361.752	17.602	1076.661	811.356
362.767	17.607	1076.426	811.133
363.781	17.546	1075.668	810.202
364.796	17.760	1074.593	810.335
365.810	17.785	1074.117	810.024
366.825	17.906	1073.816	810.300
367.840	17.913	1073.053	809.685
368.854	17.966	1072.401	809.373
369.869	18.003	1071.971	809.153
370.883	17.908	1071.233	808.076
371.898	17.983	1070.009	807.433
372.913	17.921	1069.543	806.720
373.927	17.944	1069.184	806.481
374.942	18.021	1068.868	806.538
375.956	17.947	1068.147	805.573
376.971	17.987	1067.394	805.125
377.986	18.105	1067.093	805.380
379.000	18.133	1066.381	804.903
380.015	18.083	1066.196	804.458
381.029	18.300	1064.950	804.466
382.044	18.136	1064.165	803.030
383.059	18.073	1063.827	802.411
384.073	18.208	1062.757	802.165
385.088	18.172	1061.994	801.350
386.102	18.188	1061.162	800.724
387.117	18.306	1059.359	799.845
388.132	18.027	1059.148	798.312
389.146	18.044	1058.630	797.931
390.161	18.034	1058.112	797.423
391.175	18.100	1057.210	796.978
392.190	18.136	1056.607	796.624
393.205	18.242	1055.732	796.388
394.219	18.162	1055.207	795.547
395.234	18.238	1053.886	794.835
396.248	18.196	1052.522	793.538
397.263	18.228	1051.763	793.048
398.278	18.155	1051.547	792.475
399.292	18.217	1050.631	792.001
400.307	18.080	1049.593	790.515
401.321	18.088	1049.340	790.292
402.336	18.108	1048.958	790.025
403.350	18.121	1047.789	789.137
404.365	18.154	1047.328	788.873
405.380	18.294	1046.470	788.800
406.394	18.338	1045.921	788.519
407.409	18.293	1045.134	787.647
408.423	18.353	1044.733	787.551
409.438	18.479	1044.060	787.556
410.453	18.623	1043.238	787.527
411.467	18.558	1042.416	786.538
412.482	18.522	1041.970	785.966
413.496	18.573	1041.242	785.584
414.511	18.643	1040.788	785.492
415.526	18.680	1040.197	785.146
416.540	18.670	1040.295	785.103
417.555	18.685	1039.334	784.375
418.569	18.710	1038.370	783.692
419.584	18.603	1037.992	782.852
420.599	18.769	1037.562	783.214
421.613	150.459	1401.815	1794.812
422.628	137.481	1454.884	1794.899
