DTS Sentinel unit serial number:	SN413079Multiplexer serial number:	ORYXHardware model number:	OX4-SRSoftware version number:	ORYX F/W v4.00 Oryx Data Collector v3.7.2.0data status	okinstallation	princeton_trtdifferential loss correction	single-endedforward channel	channel 2reverse channel	N/Adate	2019/09/14time	07:47:35forward acquisition time	60.00reverse acquisition time	0.00gamma	496.2192k internal	0.2337k external	0.2337temperature offset calibration	1.0129default loss term (dB/km)	0.3790temperature slope calibration	1.0000multiplexer offset coefficient	1.0000multiplexer slope coefficient	1.0000fibre end	0.00T internal ref (°C)	26.44T ext. ref 1 (°C)	3.49T ext. ref 2 (°C)	22.81length (m)	temperature (°C)	Stokes	anti-Stokes-747.200	125.605	0.196	0.249
-746.185	54.569	0.142	0.137
-745.171	700.025	-0.051	0.135
-744.156	-121.932	0.144	-0.024
-743.142	800.000	-0.007	-0.030
-742.127	800.000	0.024	-0.097
-741.112	-97.147	-0.084	-0.022
-740.098	-200.000	-0.013	0.319
-739.083	114.849	-0.053	-0.065
-738.069	76.047	-0.220	0.233
-737.054	-120.769	0.099	0.017
-736.039	-110.368	-0.419	0.087
-735.025	42.019	0.088	-0.080
-734.010	-51.935	-0.140	-0.065
-732.996	-109.289	-0.385	0.082
-731.981	87.044	-0.089	-0.098
-730.966	294.016	-0.083	-0.153
-729.952	653.451	0.083	-0.214
-728.937	-77.813	-0.326	-0.113
-727.923	114.697	-0.209	-0.255
-726.908	-200.000	-0.004	0.140
-725.894	797.848	0.056	-0.156
-724.879	84.587	0.175	0.192
-723.864	-98.812	0.291	-0.074
-722.850	-200.000	-0.019	-0.102
-721.835	503.781	-0.087	0.201
-720.821	-163.369	-0.188	-0.009
-719.806	-191.649	-0.400	0.004
-718.791	238.681	0.036	-0.061
-717.777	227.320	-0.050	-0.081
-716.762	-117.270	-0.293	-0.053
-715.748	-29.950	0.153	-0.087
-714.733	17.250	-0.236	0.188
-713.718	800.000	0.071	-0.273
-712.704	113.903	-0.285	-0.347
-711.689	-133.358	0.122	-0.015
-710.675	68.971	-0.179	-0.185
-709.660	-41.281	0.316	-0.163
-708.645	47.337	-0.082	-0.077
-707.631	-29.116	0.198	-0.114
-706.616	-157.682	-0.207	-0.012
-705.602	-43.866	0.152	0.077
-704.587	-92.646	0.125	-0.035
-703.572	-82.381	0.010	-0.003
-702.558	671.224	0.098	0.256
-701.543	628.367	0.009	0.022
-700.529	-200.000	-0.005	-0.110
-699.514	85.107	-0.209	0.230
-698.499	-39.596	-0.250	-0.131
-697.485	254.461	0.091	0.156
-696.470	154.690	0.109	-0.151
-695.456	-39.226	-0.310	-0.163
-694.441	-200.000	0.070	0.353
-693.426	95.883	-0.125	0.143
-692.412	-200.000	0.007	-0.183
-691.397	15.171	0.161	-0.127
-690.383	179.876	-0.159	0.234
-689.368	-170.973	-0.199	0.007
-688.354	-200.000	0.059	0.464
-687.339	-95.830	-0.153	-0.041
-686.324	-111.114	0.208	-0.043
-685.310	-200.000	-0.004	-0.070
-684.295	-167.490	-0.128	-0.005
-683.281	4.877	0.085	-0.062
-682.266	-161.187	-0.257	-0.013
-681.251	-200.000	0.050	-0.247
-680.237	800.000	0.071	-0.211
-679.222	-70.496	-0.239	-0.090
-678.208	64.569	0.375	-0.378
-677.193	-92.929	-0.195	0.055
-676.178	151.213	-0.150	0.204
-675.164	-109.549	-0.237	-0.050
-674.149	489.847	0.092	-0.211
-673.135	23.307	0.129	-0.106
-672.120	-47.307	-0.154	-0.075
-671.105	-200.000	0.002	0.150
-670.091	-200.000	0.008	0.076
-669.076	-200.000	-0.048	0.229
-668.062	251.467	-0.033	-0.056
-667.047	-200.000	0.001	0.036
-666.032	800.000	0.081	-0.344
-665.018	-40.325	0.132	-0.069
-664.003	370.139	-0.156	0.317
-662.989	73.837	-0.048	-0.050
-661.974	-67.186	-0.352	0.139
-660.959	-200.000	0.004	-0.113
-659.945	-115.184	0.338	0.064
-658.930	343.940	-0.133	-0.261
-657.916	-42.590	0.228	0.116
-656.901	-3.304	-0.227	0.158
-655.886	-200.000	0.043	0.321
-654.872	82.576	-0.129	-0.140
-653.857	-191.618	-0.245	0.002
-652.843	-39.098	-0.406	0.214
-651.828	195.647	0.139	-0.212
-650.814	-163.781	0.285	-0.013
-649.799	104.606	-0.293	0.345
-648.784	-97.563	-0.201	-0.052
-647.770	489.661	0.118	-0.269
-646.755	239.090	0.066	-0.110
-645.741	53.772	0.061	-0.058
-644.726	5.248	-0.208	-0.153
-643.711	-77.212	-0.238	-0.083
-642.697	800.000	0.066	-0.194
-641.682	-200.000	0.027	0.124
-640.668	-200.000	0.031	-0.362
-639.653	17.565	-0.095	0.076
-638.638	-200.000	0.025	0.202
-637.624	-39.474	-0.288	-0.151
-636.609	-124.914	0.259	-0.040
-635.595	-200.000	-0.001	-0.205
-634.580	-36.849	-0.049	-0.026
-633.565	424.472	0.061	-0.132
-632.551	371.155	-0.089	0.181
-631.536	-67.832	-0.342	-0.134
-630.522	-43.338	-0.206	-0.104
-629.507	-32.961	-0.200	0.111
-628.492	-155.341	0.398	-0.026
-627.478	360.826	0.007	-0.013
-626.463	-99.873	0.046	0.011
-625.449	-40.583	-0.148	0.077
-624.434	75.168	0.207	-0.218
-623.419	-200.000	-0.056	-0.340
-622.405	53.970	-0.170	0.163
-621.390	-24.716	0.359	0.213
-620.376	800.000	-0.021	0.065
-619.361	-200.000	0.034	-0.236
-618.346	-102.617	-0.231	0.055
-617.332	179.098	0.156	0.228
-616.317	-163.169	0.124	-0.006
-615.303	-33.158	-0.365	-0.202
-614.288	57.120	0.284	-0.277
-613.273	-200.000	-0.008	0.085
-612.259	-120.239	-0.171	-0.029
-611.244	36.165	0.093	0.082
-610.230	130.732	0.069	-0.089
-609.215	-117.272	0.410	-0.074
-608.201	188.971	0.183	-0.274
-607.186	-98.858	-0.384	0.097
-606.171	-81.769	-0.111	0.036
-605.157	-200.000	0.010	0.168
-604.142	-200.000	-0.020	0.169
-603.128	-79.573	-0.207	-0.070
-602.113	22.780	0.132	0.108
-601.098	-120.410	0.118	0.020
-600.084	800.000	0.078	0.261
-599.069	228.889	0.066	-0.108
-598.055	-42.388	-0.376	-0.192
-597.040	-101.689	0.152	-0.037
-596.025	-142.604	0.232	-0.023
-595.011	-200.000	0.007	-0.197
-593.996	103.076	0.135	0.158
-592.982	137.378	0.088	0.115
-591.967	-135.795	0.253	-0.030
-590.952	-123.727	0.365	0.058
-589.938	183.848	0.156	-0.230
-588.923	181.036	0.209	0.306
-587.909	-21.243	0.267	0.163
-586.894	685.270	-0.050	-0.130
-585.879	-23.386	-0.241	-0.145
-584.865	87.037	-0.141	0.155
-583.850	-200.000	-0.090	0.466
-582.836	36.550	-0.204	-0.180
-581.821	206.693	0.125	-0.194
-580.806	-200.000	0.057	0.258
-579.792	-87.401	-0.215	0.065
-578.777	113.526	-0.182	-0.221
-577.763	-200.000	0.038	-0.326
-576.748	800.000	0.073	0.314
-575.733	7.746	0.483	0.361
-574.719	480.028	0.056	-0.126
-573.704	412.239	0.034	0.073
-572.690	-122.829	-0.306	0.049
-571.675	-31.095	-0.144	-0.081
-570.661	-154.899	-0.240	-0.016
-569.646	-155.209	-0.354	-0.023
-568.631	-39.923	0.157	0.082
-567.617	232.328	0.036	-0.058
-566.602	-38.575	-0.180	-0.095
-565.588	774.666	-0.088	-0.240
-564.573	79.030	0.156	0.166
-563.558	-33.147	0.193	-0.106
-562.544	-61.614	0.083	-0.035
-561.529	425.392	-0.049	0.105
-560.515	104.498	-0.169	0.199
-559.500	800.000	0.071	0.214
-558.485	-18.646	-0.211	0.131
-557.471	150.591	-0.129	-0.175
-556.456	800.000	-0.076	-0.223
-555.442	734.414	0.075	0.200
-554.427	-81.465	-0.201	0.066
-553.412	-200.000	0.021	0.478
-552.398	-69.486	-0.035	0.013
-551.383	-95.024	0.321	-0.086
-550.369	190.423	0.119	0.179
-549.354	-200.000	-0.031	0.204
-548.339	64.723	-0.035	0.036
-547.325	-41.499	-0.134	0.069
-546.310	-200.000	0.484	-0.001
-545.296	-66.057	0.166	0.066
-544.281	24.029	0.096	0.079
-543.266	-200.000	-0.043	-0.401
-542.252	-29.094	-0.144	0.082
-541.237	-98.972	0.162	0.041
-540.223	-115.634	0.426	0.080
-539.208	595.224	-0.066	-0.162
-538.193	93.481	0.122	-0.138
-537.179	-61.557	0.241	-0.101
-536.164	14.210	0.200	-0.155
-535.150	-133.582	-0.382	-0.048
-534.135	116.302	-0.130	0.158
-533.121	-42.196	0.158	0.081
-532.106	-86.395	0.335	-0.103
-531.091	203.187	0.132	-0.204
-530.077	-24.498	-0.059	-0.035
-529.062	130.286	0.182	0.233
-528.048	537.444	0.112	0.265
-527.033	-16.210	-0.192	0.121
-526.018	123.467	-0.146	0.182
-525.004	-17.778	-0.301	-0.188
-523.989	100.035	0.078	-0.090
-522.975	422.910	-0.135	0.289
-521.960	800.000	-0.047	0.187
-520.945	-90.213	-0.152	-0.044
-519.931	800.000	0.112	-0.408
-518.916	-73.881	-0.289	-0.104
-517.902	-17.118	-0.112	0.070
-516.887	335.802	-0.007	-0.014
-515.872	31.248	-0.057	0.048
-514.858	-140.873	0.102	-0.010
-513.843	-104.562	0.220	-0.051
-512.829	-63.164	0.276	0.113
-511.814	243.065	-0.082	-0.137
-510.799	800.000	-0.019	-0.072
-509.785	22.820	-0.449	0.366
-508.770	505.604	-0.053	0.122
-507.756	54.151	-0.044	-0.042
-506.741	-10.430	-0.189	0.125
-505.726	-46.174	-0.173	0.085
-504.712	174.316	-0.117	-0.168
-503.697	-70.206	0.087	0.033
-502.683	-106.862	-0.095	-0.021
-501.668	-36.805	0.066	0.035
-500.653	-153.928	-0.287	-0.019
-499.639	-200.000	-0.011	0.070
-498.624	-97.753	0.242	0.062
-497.610	553.103	-0.053	0.127
-496.595	-86.094	-0.136	0.042
-495.581	-124.798	-0.172	-0.026
-494.566	-131.215	0.148	0.020
-493.551	-200.000	-0.004	0.164
-492.537	132.604	0.095	-0.122
-491.522	-26.670	0.065	0.038
-490.508	1.142	-0.359	-0.256
-489.493	-90.056	-0.076	-0.022
-488.478	-110.327	0.272	-0.056
-487.464	-63.453	0.107	0.044
-486.449	-62.336	-0.070	-0.029
-485.435	800.000	0.014	0.051
-484.420	565.873	0.073	0.175
-483.405	149.112	0.324	0.436
-482.391	306.993	-0.063	0.117
-481.376	43.432	0.191	-0.173
-480.362	459.840	0.121	-0.268
-479.347	16.736	-0.115	-0.090
-478.332	111.350	-0.270	0.323
-477.318	-89.650	0.459	-0.134
-476.303	-200.000	0.023	-0.167
-475.289	-54.046	0.063	-0.028
-474.274	47.963	0.280	0.260
-473.259	423.328	-0.108	0.231
-472.245	-200.000	-0.014	0.109
-471.230	-44.054	-0.156	0.078
-470.216	382.623	0.023	-0.047
-469.201	-71.404	0.179	-0.067
-468.186	-41.757	-0.211	0.108
-467.172	-200.000	0.028	0.217
-466.157	-141.464	-0.151	-0.015
-465.143	-200.000	0.038	-0.219
-464.128	216.607	0.084	-0.132
-463.113	83.609	0.052	-0.056
-462.099	-200.000	0.011	-0.226
-461.084	-121.509	0.251	-0.041
-460.070	241.902	-0.078	-0.129
-459.055	-200.000	0.005	0.049
-458.040	159.331	0.102	0.141
-457.026	-67.886	0.261	-0.101
-456.011	-97.724	-0.277	0.071
-454.997	46.048	-0.329	-0.302
-453.982	-52.318	0.141	-0.065
-452.968	596.639	0.104	0.255
-451.953	800.000	-0.033	-0.117
-450.938	22.389	0.259	-0.210
-449.924	-54.624	-0.038	-0.017
-448.909	50.424	0.214	0.201
-447.895	-90.872	-0.466	0.133
-446.880	195.008	0.092	-0.138
-445.865	-10.498	-0.172	0.113
-444.851	281.481	0.036	-0.064
-443.836	155.906	-0.063	-0.086
-442.822	-45.361	0.093	0.046
-441.807	47.181	-0.063	0.058
-440.792	122.770	-0.346	-0.430
-439.778	-129.828	-0.231	-0.031
-438.763	-88.248	0.204	0.061
-437.749	-16.386	0.110	-0.069
-436.734	-160.982	-0.161	-0.008
-435.719	800.000	-0.057	0.241
-434.705	-142.958	-0.331	-0.032
-433.690	-39.814	-0.309	0.160
-432.676	800.000	0.055	-0.153
-431.661	116.585	0.203	-0.247
-430.646	354.299	0.035	-0.068
-429.632	800.000	0.056	-0.236
-428.617	-146.969	0.323	0.028
-427.603	-200.000	-0.027	0.418
-426.588	109.556	-0.201	0.238
-425.573	666.397	0.032	-0.081
-424.559	60.655	0.028	0.027
-423.544	43.092	-0.123	-0.111
-422.530	7.407	-0.156	-0.116
-421.515	800.000	0.059	0.199
-420.500	-121.559	-0.069	-0.011
-419.486	800.000	0.027	0.108
-418.471	118.001	0.071	0.087
-417.457	136.668	-0.060	0.078
-416.442	54.137	0.188	-0.180
-415.428	-200.000	0.070	-0.309
-414.413	66.926	-0.132	-0.133
-413.398	-106.179	0.199	-0.044
-412.384	-200.000	0.012	-0.255
-411.369	-200.000	0.046	0.427
-410.355	-40.877	-0.198	-0.102
-409.340	-104.089	-0.327	-0.075
-408.325	-200.000	0.035	0.207
-407.311	-58.829	-0.344	0.148
-406.296	-108.567	-0.308	0.066
-405.282	-131.321	-0.190	0.025
-404.267	108.794	-0.076	0.090
-403.252	267.327	-0.046	-0.079
-402.238	-122.351	-0.207	0.033
-401.223	143.541	0.125	-0.165
-400.209	94.736	0.056	0.063
-399.194	-140.326	-0.050	-0.005
-398.179	-200.000	0.046	-0.398
-397.165	-149.098	-0.203	0.016
-396.150	-58.092	-0.204	0.088
-395.136	-200.000	-0.032	0.424
-394.121	-80.166	-0.311	-0.103
-393.106	800.000	0.045	0.136
-392.092	58.724	-0.064	0.062
-391.077	12.684	0.116	0.089
-390.063	184.392	0.135	-0.198
-389.048	421.553	0.111	-0.236
-388.033	179.539	-0.117	0.170
-387.019	119.548	-0.280	-0.343
-386.004	102.709	-0.183	0.212
-384.990	38.741	-0.135	0.120
-383.975	-39.907	-0.092	0.047
-382.960	152.748	0.319	0.432
-381.946	-50.768	-0.238	0.111
-380.931	169.261	-0.409	-0.578
-379.917	51.003	-0.232	-0.218
-378.902	-87.287	0.332	-0.100
-377.888	679.557	-0.062	0.161
-376.873	800.000	0.072	0.247
-375.858	-124.076	0.137	-0.021
-374.844	199.321	0.135	0.204
-373.829	-121.321	-0.177	0.029
-372.815	800.000	0.050	0.157
-371.800	45.090	0.036	-0.032
-370.785	-125.959	0.336	0.050
-369.771	-52.771	-0.152	-0.069
-368.756	-110.880	-0.100	0.020
-367.742	-200.000	-0.037	0.175
-366.727	-92.695	-0.389	-0.108
-365.712	800.000	-0.135	-0.522
-364.698	-131.170	-0.224	0.029
-363.683	35.758	0.213	0.185
-362.669	-85.198	0.245	-0.076
-361.654	-179.056	-0.344	0.008
-360.639	53.518	0.037	-0.035
-359.625	-87.164	-0.426	-0.128
-358.610	-157.044	0.138	-0.008
-357.596	-200.000	-0.019	-0.297
-356.581	-200.000	0.006	-0.474
-355.566	-200.000	0.009	0.084
-354.552	-104.828	-0.430	-0.098
-353.537	-8.283	0.253	-0.168
-352.523	64.656	0.133	-0.133
-351.508	42.202	-0.283	0.254
-350.493	389.043	-0.049	0.099
-349.479	-12.231	0.272	0.176
-348.464	35.334	0.072	0.063
-347.450	34.513	0.124	-0.107
-346.435	800.000	0.177	-0.521
-345.420	800.000	-0.046	-0.166
-344.406	800.000	-0.038	0.162
-343.391	800.000	0.071	0.211
-342.377	-200.000	0.036	0.231
-341.362	-20.919	-0.272	-0.165
-340.348	-200.000	0.041	0.389
-339.333	-18.933	0.219	0.135
-338.318	-144.705	-0.202	-0.018
-337.304	-110.991	0.206	0.042
-336.289	-200.000	0.026	-0.114
-335.275	124.630	0.125	-0.156
-334.260	77.668	0.100	0.105
-333.245	73.167	-0.200	-0.206
-332.231	-30.797	0.136	-0.076
-331.216	56.803	0.036	0.035
-330.202	217.553	0.127	0.200
-329.187	-200.000	-0.090	0.588
-328.172	630.406	-0.177	-0.443
-327.158	99.835	-0.127	0.145
-326.143	199.382	-0.054	0.081
-325.129	-128.367	0.207	-0.029
-324.114	10.568	-0.221	-0.166
-323.099	800.000	-0.046	-0.153
-322.085	330.523	-0.121	-0.230
-321.070	-134.963	0.156	0.019
-320.056	-200.000	-0.019	-0.147
-319.041	-154.654	0.308	0.020
-318.026	-54.502	0.262	-0.117
-317.012	-76.538	-0.078	0.027
-315.997	135.946	-0.091	0.117
-314.983	-48.812	-0.085	-0.040
-313.968	-200.000	-0.018	-0.364
-312.953	55.587	-0.201	0.192
-311.939	125.957	-0.221	-0.275
-310.924	261.895	0.147	-0.252
-309.910	317.376	-0.037	-0.069
-308.895	10.949	-0.047	0.035
-307.880	396.225	0.092	0.189
-306.866	-200.000	-0.095	-0.705
-305.851	8.601	0.068	-0.051
-304.837	800.000	0.036	-0.153
-303.822	276.336	-0.262	-0.459
-302.807	20.515	0.095	0.076
-301.793	225.589	-0.174	0.278
-300.778	-14.832	0.177	0.112
-299.764	279.405	0.132	-0.232
-298.749	-200.000	0.006	-0.042
-297.735	800.000	0.043	0.133
-296.720	-200.000	0.005	0.189
-295.705	-120.610	-0.129	0.021
-294.691	105.956	0.056	0.065
-293.676	8.120	0.147	-0.109
-292.662	-89.101	-0.050	0.014
-291.647	-121.626	-0.403	-0.066
-290.632	-200.000	0.002	-0.041
-289.618	243.045	-0.101	0.167
-288.603	198.516	0.106	0.159
-287.589	77.312	0.141	-0.148
-286.574	-126.292	-0.134	0.020
-285.559	-200.000	0.012	0.124
-284.545	-200.000	-0.030	-0.183
-283.530	800.000	-0.077	-0.300
-282.516	-71.407	-0.075	-0.028
-281.501	512.687	0.078	0.179
-280.486	800.000	0.105	0.425
-279.472	-200.000	0.031	0.234
-278.457	800.000	0.045	0.149
-277.443	-60.708	0.202	-0.084
-276.428	-53.380	-0.016	-0.007
-275.413	-132.848	-0.203	-0.026
-274.399	-200.000	0.020	-0.116
-273.384	526.838	0.073	-0.169
-272.370	-33.944	0.227	0.123
-271.355	0.944	0.223	-0.157
-270.340	-153.004	-0.206	0.014
-269.326	-123.787	0.354	0.055
-268.311	-200.000	0.046	-0.460
-267.297	800.000	-0.073	0.294
-266.282	16.726	0.123	0.096
-265.267	-100.735	0.202	0.049
-264.253	-111.586	0.247	-0.049
-263.238	-90.771	-0.474	-0.135
-262.224	-53.985	-0.039	-0.018
-261.209	691.805	0.076	0.196
-260.195	384.608	0.160	-0.324
-259.180	-8.905	0.054	-0.035
-258.165	800.000	-0.035	-0.126
-257.151	800.000	-0.051	-0.146
-256.136	-83.154	0.338	-0.107
-255.122	-40.647	0.091	0.046
-254.107	-200.000	-0.016	-0.180
-253.092	-49.584	0.087	-0.041
-252.078	107.222	0.042	0.050
-251.063	-200.000	-0.025	0.125
-250.049	-102.128	0.160	0.038
-249.034	5.214	-0.187	0.136
-248.019	300.132	0.075	0.136
-247.005	-83.869	0.090	0.028
-245.990	58.996	-0.158	0.153
-244.976	-200.000	-0.009	0.208
-243.961	-200.000	-0.067	0.304
-242.946	477.872	-0.100	0.223
-241.932	-99.200	0.301	-0.075
-240.917	-75.809	-0.029	-0.010
-239.903	-200.000	0.033	-0.235
-238.888	42.914	-0.148	0.132
-237.873	-105.605	-0.069	0.015
-236.859	-200.000	0.001	-0.084
-235.844	68.621	-0.066	-0.067
-234.830	-46.998	0.095	0.046
-233.815	-105.707	-0.534	0.119
-232.800	282.752	-0.129	0.228
-231.786	-122.930	0.269	0.043
-230.771	64.128	0.117	0.116
-229.757	85.563	0.190	0.205
-228.742	360.532	0.131	-0.258
-227.727	-79.792	0.271	-0.090
-226.713	-94.079	-0.122	-0.033
-225.698	-121.818	-0.315	-0.051
-224.684	-19.652	0.175	0.107
-223.669	61.623	-0.322	0.315
-222.655	-13.169	0.220	-0.141
-221.640	-200.000	0.048	-0.420
-220.625	-119.856	-0.201	0.034
-219.611	243.680	0.062	0.103
-218.596	-200.000	0.046	-0.280
-217.582	11.539	0.101	-0.076
-216.567	-69.817	0.179	0.067
-215.552	32.351	0.200	-0.169
-214.538	-71.125	-0.123	-0.046
-213.523	466.336	0.069	0.152
-212.509	71.298	-0.160	0.164
-211.494	800.000	-0.035	-0.111
-210.479	30.835	0.192	0.162
-209.465	18.875	-0.074	-0.059
-208.450	-108.336	0.183	-0.039
-207.436	-51.866	0.275	0.126
-206.421	379.812	-0.121	-0.244
-205.406	354.590	-0.214	-0.419
-204.392	-200.000	-0.039	0.191
-203.377	800.000	0.062	0.171
-202.363	76.385	0.349	0.363
-201.348	-120.694	0.269	-0.045
-200.333	800.000	-0.053	-0.163
-199.319	-194.868	-0.165	0.001
-198.304	800.000	0.083	-0.320
-197.290	58.627	-0.117	-0.113
-196.275	-200.000	0.021	-0.441
-195.260	257.933	0.095	-0.160
-194.246	76.806	0.195	0.203
-193.231	-200.000	-0.039	-0.257
-192.217	257.590	-0.015	-0.026
-191.202	800.000	-0.103	0.295
-190.187	-200.000	-0.008	0.118
-189.173	-125.994	0.179	-0.026
-188.158	283.508	-0.072	-0.127
-187.144	5.816	0.172	0.125
-186.129	239.487	-0.131	0.213
-185.114	-45.601	0.186	0.090
-184.100	171.549	0.195	0.274
-183.085	88.250	-0.188	0.205
-182.071	163.239	0.236	0.326
-181.056	55.107	0.096	-0.091
-180.042	-200.000	0.033	-0.197
-179.027	-137.981	0.026	0.003
-178.012	-57.953	-0.195	-0.084
-176.998	211.090	-0.176	0.271
-175.983	-200.000	-0.005	-0.280
-174.969	496.574	-0.086	-0.194
-173.954	467.022	-0.037	-0.081
-172.939	58.154	-0.276	0.265
-171.925	-39.422	0.060	0.031
-170.910	138.928	-0.159	-0.205
-169.896	800.000	-0.136	0.421
-168.881	-140.685	0.275	-0.028
-167.866	84.922	0.130	0.139
-166.852	-138.447	0.069	-0.007
-165.837	-91.623	0.202	-0.057
-164.823	-200.000	0.053	-0.289
-163.808	-110.692	0.290	-0.059
-162.793	-200.000	0.009	0.132
-161.779	-200.000	0.051	0.411
-160.764	-200.000	-0.049	-0.235
-159.750	12.921	0.039	0.030
-158.735	-32.034	-0.021	0.011
-157.720	-14.158	0.146	0.092
-156.706	-10.765	0.304	0.197
-155.691	-57.246	0.279	0.120
-154.677	-200.000	-0.069	0.547
-153.662	800.000	0.030	-0.124
-152.647	-104.126	-0.034	-0.008
-151.633	-108.578	0.027	0.006
-150.618	409.104	0.025	-0.053
-149.604	110.113	0.041	0.048
-148.589	-200.000	0.012	0.186
-147.574	-13.541	0.324	0.206
-146.560	766.329	-0.046	0.123
-145.545	-134.210	-0.212	0.026
-144.531	-83.502	0.225	0.071
-143.516	-123.096	-0.408	-0.064
-142.502	-159.970	-0.148	-0.008
-141.487	31.327	0.084	0.071
-140.472	-200.000	0.002	0.019
-139.458	800.000	-0.124	-0.337
-138.443	800.000	-0.059	-0.222
-137.429	110.509	-0.027	0.032
-136.414	79.775	-0.253	0.267
-135.399	800.000	-0.040	-0.147
-134.385	800.000	-0.030	-0.126
-133.370	-54.241	0.118	0.052
-132.356	133.244	-0.117	0.149
-131.341	800.000	0.075	0.252
-130.326	70.067	-0.261	-0.264
-129.312	800.000	-0.089	-0.264
-128.297	-102.588	0.283	-0.066
-127.283	-22.768	-0.154	-0.091
-126.268	187.929	0.212	0.311
-125.253	68.228	0.311	-0.312
-124.239	-200.000	0.015	-0.106
-123.224	-98.305	-0.007	-0.002
-122.210	800.000	-0.025	-0.104
-121.195	-3.849	0.183	0.124
-120.180	-92.793	-0.114	-0.031
-119.166	-10.083	0.120	-0.078
-118.151	-200.000	0.035	-0.240
-117.137	117.226	-0.204	0.246
-116.122	-200.000	0.022	0.297
-115.107	-150.532	0.156	0.012
-114.093	800.000	-0.031	0.085
-113.078	800.000	-0.038	0.107
-112.064	-200.000	0.002	0.135
-111.049	-200.000	-0.033	0.174
-110.034	-200.000	-0.044	0.298
-109.020	800.000	0.063	0.209
-108.005	83.111	0.054	0.057
-106.991	119.856	0.099	-0.120
-105.976	-79.711	0.175	-0.058
-104.962	-168.524	0.289	0.011
-103.947	-200.000	-0.008	0.317
-102.932	-16.379	0.113	-0.070
-101.918	800.000	0.015	0.058
-100.903	529.737	0.092	0.212
-99.889	-200.000	-0.032	0.159
-98.874	-41.020	-0.174	0.088
-97.859	354.461	0.089	0.174
-96.845	-60.267	-0.081	-0.034
-95.830	-82.423	-0.092	-0.029
-94.816	-38.606	0.242	-0.125
-93.801	-75.079	-0.160	-0.056
-92.786	11.453	-0.113	-0.085
-91.772	-39.512	-0.109	0.056
-90.757	216.203	0.144	0.224
-89.743	-80.388	0.068	-0.022
-88.728	172.224	0.127	-0.179
-87.713	638.061	-0.047	-0.116
-86.699	-151.977	0.095	0.007
-85.684	-72.151	-0.248	0.090
-84.670	168.665	-0.082	-0.114
-83.655	-113.209	0.121	-0.023
-82.640	63.473	-0.113	-0.111
-81.626	-68.625	0.397	0.150
-80.611	-200.000	-0.003	0.019
-79.597	-200.000	-0.000	0.314
-78.582	-5.360	0.174	0.117
-77.567	51.593	0.296	0.275
-76.553	-200.000	0.018	0.100
-75.538	38.090	-0.096	-0.083
-74.524	-95.460	0.150	-0.039
-73.509	-200.000	-0.026	0.169
-72.494	56.459	0.165	-0.157
-71.480	-70.129	0.180	0.067
-70.465	330.195	0.195	0.367
-69.451	-9.389	-0.350	-0.228
-68.436	-52.992	-0.047	-0.021
-67.422	24.032	0.182	0.147
-66.407	-161.856	0.359	-0.018
-65.392	-105.503	-0.244	-0.054
-64.378	-200.000	0.001	0.154
-63.363	140.032	0.109	0.141
-62.349	-200.000	0.017	0.127
-61.334	66.593	-0.908	-0.903
-60.319	72.529	0.510	0.520
-59.305	-200.000	0.054	-1.151
-58.290	517.839	0.585	1.337
-57.276	800.000	0.587	1.740
-56.261	-200.000	116.873	652.847
-55.246	512.416	1542.771	3512.154
-54.232	173.311	2727.092	3842.277
-53.217	99.620	2304.313	2606.107
-52.203	35.684	1907.681	1637.774
-51.188	29.512	1697.234	1410.079
-50.173	27.211	1655.060	1357.823
-49.159	48.396	1712.316	1566.274
-48.144	46.978	1725.590	1567.602
-47.130	29.219	1683.525	1396.246
-46.115	26.484	1669.320	1363.830
-45.100	26.431	1664.075	1359.087
-44.086	26.302	1661.737	1356.155
-43.071	26.310	1658.704	1353.688
-42.057	26.310	1656.259	1351.642
-41.042	26.343	1654.267	1350.204
-40.027	26.336	1652.188	1348.407
-39.013	26.289	1649.936	1346.161
-37.998	26.304	1648.542	1345.084
-36.984	26.218	1647.596	1343.615
-35.969	26.433	1645.785	1343.689
-34.954	26.482	1643.902	1342.461
-33.940	26.410	1642.585	1340.799
-32.925	26.369	1640.966	1339.115
-31.911	26.490	1639.223	1338.538
-30.896	26.417	1637.555	1336.582
-29.881	26.430	1635.705	1335.113
-28.867	26.393	1634.617	1333.899
-27.852	26.507	1632.786	1333.194
-26.838	26.475	1631.515	1331.871
-25.823	26.456	1629.912	1330.371
-24.809	26.520	1628.576	1329.696
-23.794	26.563	1627.100	1328.750
-22.779	26.494	1625.963	1327.266
-21.765	26.364	1624.276	1324.885
-20.750	26.477	1622.505	1324.209
-19.736	26.383	1621.260	1322.454
-18.721	26.490	1619.599	1321.829
-17.706	26.465	1618.383	1320.603
-16.692	26.482	1616.336	1319.003
-15.677	26.409	1615.625	1317.842
-14.663	26.577	1613.747	1317.476
-13.648	26.576	1612.120	1316.088
-12.633	26.467	1610.850	1314.209
-11.619	26.487	1609.375	1313.100
-10.604	26.458	1607.769	1311.529
-9.590	26.443	1606.441	1310.284
-8.575	26.464	1605.250	1309.410
-7.560	26.417	1604.269	1308.217
-6.546	26.413	1602.979	1307.086
-5.531	26.482	1601.692	1306.484
-4.517	26.475	1600.585	1305.476
-3.502	26.508	1599.351	1304.661
-2.487	26.513	1598.103	1303.623
-1.473	26.334	1586.042	1292.451
-0.458	23.863	1568.320	1260.465
0.556	21.669	1569.890	1232.177
1.571	19.614	1594.993	1237.065
2.586	19.383	1607.425	1244.928
3.600	16.919	1551.553	1184.360
4.615	9.905	1443.151	1055.796
5.629	4.329	1384.445	977.699
6.644	3.554	1376.959	967.470
7.659	3.392	1376.093	965.762
8.673	3.423	1374.633	964.844
9.688	3.582	1372.373	964.168
10.702	3.520	1370.143	962.127
11.717	6.145	1375.222	982.026
12.731	13.470	1388.296	1037.325
13.746	19.178	1397.309	1079.860
14.761	20.228	1398.371	1087.165
15.775	19.707	1396.070	1082.021
16.790	18.618	1393.137	1072.845
17.804	17.840	1391.150	1066.364
18.819	17.449	1390.242	1063.131
19.834	17.232	1388.997	1060.730
20.848	17.160	1387.793	1059.268
21.863	16.930	1386.233	1056.547
22.877	16.723	1385.019	1054.240
23.892	16.697	1384.338	1053.468
24.907	16.748	1383.885	1053.344
25.921	16.751	1382.661	1052.340
26.936	16.734	1381.974	1051.618
27.950	16.871	1380.653	1051.370
28.965	16.903	1379.409	1050.531
29.980	16.973	1378.783	1050.393
30.994	17.052	1377.396	1049.735
32.009	17.101	1376.590	1049.329
33.023	17.079	1375.357	1048.161
34.038	17.009	1373.852	1046.487
35.053	16.921	1372.616	1044.914
36.067	16.911	1371.288	1043.744
37.082	16.868	1370.603	1042.868
38.096	16.979	1369.926	1042.944
39.111	17.083	1368.944	1042.740
40.126	16.931	1367.959	1040.966
41.140	16.744	1366.791	1038.842
42.155	16.664	1366.180	1037.792
43.169	16.574	1366.176	1037.147
44.184	16.544	1366.096	1036.812
45.199	16.643	1365.617	1036.957
46.213	16.747	1364.598	1036.732
47.228	16.862	1363.864	1036.786
48.242	16.823	1362.799	1035.647
49.257	16.812	1361.752	1034.695
50.271	16.878	1359.560	1033.336
51.286	16.901	1358.307	1032.433
52.301	16.830	1357.528	1031.318
53.315	16.770	1356.234	1029.879
54.330	16.660	1355.265	1028.380
55.344	16.609	1354.242	1027.209
56.359	16.763	1352.544	1026.763
57.374	16.626	1352.147	1025.538
58.388	16.553	1351.567	1024.565
59.403	16.468	1350.611	1023.233
60.417	16.511	1350.297	1023.168
61.432	16.400	1349.335	1021.679
62.447	16.538	1348.189	1021.554
63.461	16.440	1346.927	1019.918
64.476	16.416	1345.320	1018.461
65.490	16.410	1344.241	1017.520
66.505	16.478	1342.207	1016.297
67.520	16.497	1341.607	1015.872
68.534	16.545	1340.716	1015.394
69.549	16.426	1340.095	1014.120
70.563	16.348	1338.743	1012.535
71.578	16.300	1337.869	1011.501
72.593	16.260	1337.070	1010.565
73.607	16.267	1336.534	1010.111
74.622	16.375	1335.702	1010.042
75.636	16.369	1334.562	1009.055
76.651	16.295	1334.127	1008.196
77.666	16.332	1333.710	1008.010
78.680	16.350	1333.531	1007.892
79.695	16.450	1332.638	1007.728
80.709	16.545	1331.918	1007.660
81.724	16.620	1331.197	1007.470
82.739	16.607	1330.147	1006.510
83.753	16.751	1329.210	1006.565
84.768	16.842	1328.363	1006.376
85.782	16.948	1326.897	1005.803
86.797	16.933	1325.539	1004.599
87.812	16.792	1324.493	1002.881
88.826	16.826	1323.181	1002.004
89.841	16.967	1322.077	1001.910
90.855	16.953	1321.488	1001.290
91.870	17.037	1320.389	1000.868
92.884	16.898	1319.484	999.271
93.899	16.947	1318.556	998.772
94.914	17.087	1317.713	998.869
95.928	17.067	1316.835	997.994
96.943	16.996	1316.048	996.895
97.957	16.905	1315.474	995.833
98.972	16.950	1314.023	994.915
99.987	16.921	1313.203	994.032
101.001	17.019	1311.801	993.458
102.016	16.953	1310.814	992.240
103.030	16.989	1310.239	991.925
104.045	16.875	1309.291	990.454
105.060	16.763	1308.341	988.992
106.074	16.802	1305.890	987.280
107.089	16.537	1305.136	985.078
108.103	16.563	1303.556	983.953
109.118	16.495	1302.386	982.583
110.133	16.560	1300.948	981.789
111.147	16.496	1299.951	980.579
112.162	16.659	1298.483	980.332
113.176	16.751	1297.216	979.819
114.191	16.647	1296.794	978.810
115.206	16.645	1295.775	977.945
116.220	16.632	1294.184	976.581
117.235	16.526	1293.688	975.511
118.249	16.608	1292.075	974.681
119.264	16.601	1290.826	973.613
120.279	16.464	1289.970	972.093
121.293	16.501	1288.930	971.436
122.308	16.382	1287.801	969.815
123.322	16.422	1286.630	969.078
124.337	16.266	1286.160	967.746
125.352	16.318	1284.888	966.996
126.366	16.461	1283.115	966.399
127.381	16.407	1282.578	965.597
128.395	16.443	1281.139	964.635
129.410	16.344	1280.457	963.473
130.424	16.465	1279.555	963.394
131.439	16.560	1278.983	963.422
132.454	16.594	1277.678	962.544
133.468	16.601	1276.973	961.971
134.483	16.630	1276.568	961.746
135.497	16.661	1275.095	960.726
136.512	16.661	1274.219	959.983
137.527	16.646	1272.752	958.707
138.541	16.643	1271.521	957.676
139.556	16.732	1269.938	956.904
140.570	16.783	1268.877	956.307
141.585	16.871	1267.778	955.891
142.600	16.993	1266.808	955.762
143.614	17.022	1266.093	955.301
144.629	17.023	1264.912	954.329
145.643	16.964	1264.206	953.385
146.658	16.878	1262.403	951.453
147.673	16.854	1260.946	950.142
148.687	16.772	1260.122	948.973
149.702	16.745	1258.524	947.535
150.716	16.801	1257.086	946.680
151.731	16.653	1256.525	945.351
152.746	16.688	1255.237	944.492
153.760	16.831	1253.866	944.172
154.775	16.881	1252.960	943.688
155.789	16.946	1252.350	943.508
156.804	16.935	1250.853	942.233
157.819	17.034	1249.805	941.911
158.833	17.032	1248.986	941.196
159.848	17.194	1248.215	941.434
160.862	17.186	1247.016	940.398
161.877	16.964	1245.843	938.206
162.892	16.770	1244.944	936.372
163.906	16.795	1244.008	935.725
164.921	16.830	1242.712	934.861
165.935	16.933	1242.007	934.814
166.950	16.851	1241.812	934.131
167.964	16.892	1241.067	933.714
168.979	16.883	1240.216	932.945
169.994	16.933	1239.124	932.314
171.008	16.887	1238.605	931.589
172.023	16.998	1237.685	931.425
173.037	17.124	1237.162	931.639
174.052	17.031	1235.963	930.144
175.067	16.923	1234.785	928.580
176.081	16.879	1233.565	927.341
177.096	16.871	1232.898	926.713
178.110	16.927	1231.652	926.004
179.125	16.978	1230.469	925.311
180.140	16.983	1229.261	924.348
181.154	17.061	1228.031	923.765
182.169	16.999	1227.377	922.853
183.183	17.204	1225.515	922.483
184.198	17.075	1224.730	921.110
185.213	17.248	1223.399	920.969
186.227	17.203	1222.657	920.082
187.242	17.288	1221.573	919.648
188.256	17.247	1220.509	918.541
189.271	17.258	1219.437	917.713
190.286	17.118	1218.592	916.239
191.300	16.879	1217.575	914.105
192.315	16.739	1216.997	912.836
193.329	16.834	1216.047	912.555
194.344	16.868	1215.677	912.378
195.359	17.008	1214.859	912.440
196.373	17.255	1213.844	912.925
197.388	17.241	1213.961	912.852
198.402	17.256	1213.789	912.723
199.417	17.384	1213.039	912.767
200.432	17.538	1212.001	912.729
201.446	17.568	1211.376	912.339
202.461	17.497	1210.372	911.121
203.475	17.639	1209.208	910.926
204.490	17.489	1207.715	908.922
205.504	17.308	1206.552	907.000
206.519	17.428	1205.324	906.632
207.534	17.295	1204.494	905.221
208.548	17.288	1203.488	904.348
209.563	17.290	1202.774	903.740
210.577	17.403	1201.714	903.466
211.592	17.453	1200.950	903.077
212.607	17.610	1200.112	903.197
213.621	17.576	1199.481	902.465
214.636	17.527	1198.471	901.365
215.650	17.633	1197.274	900.945
216.665	17.501	1196.918	899.902
217.680	17.704	1195.884	900.116
218.694	17.779	1194.698	899.538
219.709	17.536	1194.142	897.761
220.723	17.641	1193.310	897.607
221.738	17.608	1192.872	897.026
222.753	17.618	1191.861	896.240
223.767	17.654	1191.199	895.849
224.782	17.860	1190.483	896.312
225.796	17.911	1189.870	896.040
226.811	17.891	1188.952	895.164
227.826	17.817	1188.077	894.040
228.840	17.778	1187.463	893.296
229.855	17.723	1186.801	892.430
230.869	17.727	1185.475	891.374
231.884	17.686	1184.690	890.489
232.899	17.621	1183.911	889.489
233.913	17.691	1183.221	889.256
234.928	17.581	1182.928	888.382
235.942	17.501	1182.338	887.443
236.957	17.513	1181.146	886.531
237.972	17.496	1180.967	886.230
238.986	17.632	1179.458	885.728
240.001	17.552	1179.266	885.088
241.015	17.667	1178.241	884.839
242.030	17.680	1177.555	884.312
243.045	17.749	1176.919	884.117
244.059	17.764	1176.011	883.434
245.074	17.783	1175.191	882.835
246.088	17.737	1174.729	882.171
247.103	17.863	1173.746	882.007
248.117	18.006	1173.081	882.170
249.132	18.170	1172.558	882.546
250.147	18.235	1171.734	882.183
251.161	18.305	1170.943	881.869
252.176	18.422	1170.328	881.928
253.190	18.364	1170.084	881.366
254.205	18.375	1169.736	881.087
255.220	18.354	1169.043	880.376
256.234	18.427	1168.199	880.039
257.249	18.498	1167.174	879.555
258.263	18.371	1166.811	878.549
259.278	18.477	1165.632	878.128
260.293	18.575	1165.434	878.404
261.307	18.618	1164.919	878.155
262.322	18.565	1164.424	877.436
263.336	18.525	1163.427	876.400
264.351	18.570	1163.145	876.342
265.366	18.474	1162.593	875.356
266.380	18.623	1161.511	875.225
267.395	18.565	1160.612	874.174
268.409	18.536	1160.058	873.531
269.424	18.510	1159.184	872.665
270.439	18.521	1158.722	872.296
271.453	18.384	1158.117	871.067
272.468	18.359	1157.140	870.126
273.482	18.412	1156.298	869.686
274.497	18.351	1155.805	868.932
275.512	18.595	1154.698	869.255
276.526	18.593	1153.774	868.473
277.541	18.496	1153.218	867.490
278.555	18.506	1152.508	866.929
279.570	18.556	1152.015	866.735
280.585	18.623	1151.338	866.483
281.599	18.700	1150.104	865.868
282.614	18.656	1148.916	864.678
283.628	18.633	1147.510	863.427
284.643	18.536	1147.519	862.870
285.657	18.569	1146.247	862.000
286.672	18.622	1145.073	861.308
287.687	18.599	1144.550	860.723
288.701	18.706	1143.381	860.306
289.716	18.817	1142.894	860.416
290.730	18.713	1142.142	859.254
291.745	18.559	1141.839	858.178
292.760	18.638	1141.132	857.965
293.774	18.812	1140.505	858.290
294.789	18.890	1139.840	858.103
295.803	18.841	1139.348	857.412
296.818	18.802	1138.430	856.453
297.833	18.733	1137.741	855.513
298.847	18.706	1136.687	854.509
299.862	18.690	1136.116	853.926
300.876	18.864	1135.034	853.901
301.891	18.765	1135.219	853.472
302.906	18.993	1133.818	853.477
303.920	19.081	1133.587	853.663
304.935	19.126	1132.750	853.182
305.949	19.078	1132.484	852.668
306.964	19.173	1131.374	852.228
307.979	19.043	1130.918	851.167
308.993	19.111	1129.847	850.619
310.008	19.081	1129.183	849.896
311.022	19.160	1128.365	849.596
312.037	19.175	1127.363	848.837
313.052	19.000	1126.756	847.446
314.066	19.032	1125.341	846.462
315.081	18.946	1124.362	845.228
316.095	18.844	1124.285	844.596
317.110	18.818	1123.667	843.928
318.125	18.911	1122.591	843.502
319.139	18.861	1122.009	842.745
320.154	18.971	1121.075	842.507
321.168	18.797	1120.618	841.237
322.183	18.924	1119.976	841.305
323.197	19.012	1119.257	841.120
324.212	18.837	1119.426	840.313
325.227	18.985	1118.586	840.331
326.241	19.028	1117.692	839.799
327.256	19.022	1116.989	839.167
328.270	19.046	1115.423	838.032
329.285	19.113	1114.640	837.696
330.300	19.053	1113.698	836.619
331.314	19.059	1112.768	835.876
332.329	19.106	1112.113	835.539
333.343	19.135	1111.143	834.879
334.358	19.159	1110.644	834.546
335.373	19.245	1110.005	834.409
336.387	19.332	1108.939	833.953
337.402	19.338	1108.184	833.342
338.416	19.363	1107.528	832.893
339.431	19.466	1106.945	832.880
340.446	19.495	1106.260	832.432
341.460	19.516	1105.903	832.189
342.475	19.646	1105.029	832.082
343.489	19.512	1104.515	830.979
344.504	19.654	1103.266	830.646
345.519	19.661	1102.969	830.382
346.533	19.720	1101.671	829.619
347.548	19.783	1100.665	829.088
348.562	19.751	1100.112	828.443
349.577	19.637	1099.354	827.254
350.592	19.547	1098.426	826.055
351.606	19.417	1097.845	824.924
352.621	19.270	1097.435	823.837
353.635	19.302	1096.218	823.001
354.650	19.427	1095.545	823.021
355.665	19.511	1094.968	822.918
356.679	19.487	1094.537	822.405
357.694	19.575	1093.800	822.200
358.708	19.622	1092.946	821.708
359.723	19.543	1092.774	821.130
360.738	19.697	1091.837	821.083
361.752	19.496	1091.476	819.784
362.767	19.664	1090.919	820.090
363.781	19.707	1090.488	819.897
364.796	19.694	1089.628	819.118
365.810	19.891	1089.053	819.548
366.825	19.897	1088.504	819.088
367.840	19.977	1088.629	819.489
368.854	20.028	1087.579	818.867
369.869	19.996	1086.649	817.943
370.883	19.941	1085.849	817.009
371.898	19.949	1085.307	816.569
372.913	19.945	1084.332	815.741
373.927	19.963	1083.790	815.349
374.942	20.091	1083.284	815.495
375.956	20.084	1082.454	814.765
376.971	20.071	1081.725	814.086
377.986	20.096	1081.403	813.887
379.000	20.168	1080.991	813.843
380.015	20.182	1080.643	813.577
381.029	20.310	1079.933	813.567
382.044	20.260	1079.145	812.668
383.059	20.203	1078.413	811.779
384.073	20.169	1077.582	810.922
385.088	20.270	1076.913	810.822
386.102	20.197	1075.964	809.692
387.117	20.170	1074.872	808.672
388.132	19.965	1073.869	806.893
389.146	20.060	1073.055	806.653
390.161	20.091	1072.274	806.139
391.175	20.043	1071.580	805.322
392.190	20.082	1070.918	804.935
393.205	20.223	1070.478	805.188
394.219	20.327	1069.046	804.518
395.234	20.219	1068.338	803.414
396.248	20.102	1067.430	802.120
397.263	20.222	1066.319	801.771
398.278	20.058	1065.701	800.474
399.292	20.126	1064.675	799.951
400.307	19.882	1064.390	798.535
401.321	20.013	1063.931	798.725
402.336	19.964	1063.092	797.801
403.350	20.132	1062.275	797.891
404.365	20.054	1061.859	797.148
405.380	20.208	1060.565	796.813
406.394	20.345	1059.953	796.912
407.409	20.343	1059.439	796.445
408.423	20.312	1059.061	795.949
409.438	20.326	1058.372	795.424
410.453	20.513	1057.688	795.698
411.467	20.535	1056.897	795.134
412.482	20.588	1056.502	795.006
413.496	20.574	1055.904	794.421
414.511	20.621	1055.036	793.914
415.526	20.693	1054.803	793.999
416.540	20.794	1054.324	794.025
417.555	20.748	1053.584	793.192
418.569	20.704	1052.960	792.452
419.584	20.712	1052.466	792.044
420.599	20.688	1051.781	791.351
421.613	155.471	1404.105	1796.518
422.628	142.637	1455.402	1796.623
