DTS Sentinel unit serial number:	SN413079Multiplexer serial number:	ORYXHardware model number:	OX4-SRSoftware version number:	ORYX F/W v4.00 Oryx Data Collector v3.7.2.0data status	okinstallation	princeton_trtdifferential loss correction	single-endedforward channel	channel 2reverse channel	N/Adate	2019/09/13time	19:39:35forward acquisition time	60.00reverse acquisition time	0.00gamma	496.2192k internal	0.2330k external	0.2330temperature offset calibration	1.0146default loss term (dB/km)	0.3790temperature slope calibration	1.0000multiplexer offset coefficient	1.0000multiplexer slope coefficient	1.0000fibre end	0.00T internal ref (°C)	30.42T ext. ref 1 (°C)	3.40T ext. ref 2 (°C)	24.42length (m)	temperature (°C)	Stokes	anti-Stokes-747.200	800.000	-0.062	-0.256
-746.185	130.126	-0.117	0.151
-745.171	1.867	-0.139	0.101
-744.156	-29.319	0.183	0.105
-743.142	-63.287	-0.198	0.082
-742.127	182.485	0.229	0.340
-741.112	389.828	-0.174	-0.364
-740.098	265.368	-0.209	0.367
-739.083	-0.586	0.334	0.239
-738.069	-56.307	0.061	0.027
-737.054	-34.593	0.103	-0.057
-736.039	-81.887	-0.303	-0.100
-735.025	-115.559	0.348	0.066
-734.010	18.800	-0.287	-0.232
-732.996	-200.000	-0.389	0.001
-731.981	-0.069	-0.213	-0.152
-730.966	-24.316	-0.200	0.120
-729.952	104.221	-0.175	-0.207
-728.937	-78.873	-0.070	-0.024
-727.923	43.446	0.084	0.077
-726.908	-200.000	0.023	0.155
-725.894	800.000	0.060	0.251
-724.879	7.775	0.070	-0.053
-723.864	-200.000	-0.009	-0.100
-722.850	-38.312	-0.435	-0.232
-721.835	-13.105	0.133	-0.087
-720.821	-102.857	-0.195	0.047
-719.806	189.036	-0.150	-0.226
-718.791	248.050	-0.085	-0.144
-717.777	-146.630	-0.187	-0.016
-716.762	-200.000	-0.064	0.313
-715.748	-32.216	0.146	-0.082
-714.733	-147.223	-0.224	0.019
-713.718	167.634	-0.050	-0.071
-712.704	-120.430	-0.198	-0.034
-711.689	-46.619	0.140	0.069
-710.675	800.000	0.036	-0.132
-709.660	-15.574	0.251	0.161
-708.645	-16.172	-0.220	0.141
-707.631	-14.202	-0.350	-0.227
-706.616	-129.189	-0.124	0.017
-705.602	-68.339	-0.090	-0.035
-704.587	-200.000	0.017	-0.248
-703.572	-116.648	-0.133	0.025
-702.558	-24.871	-0.218	-0.130
-701.543	308.311	0.096	-0.181
-700.529	24.762	-0.048	-0.040
-699.514	-200.000	-0.002	0.057
-698.499	-134.828	0.395	-0.048
-697.485	201.214	-0.153	-0.236
-696.470	-103.876	0.296	0.069
-695.456	-133.470	-0.292	-0.037
-694.441	14.936	0.031	-0.025
-693.426	-51.961	-0.044	0.021
-692.412	-200.000	-0.036	-0.176
-691.397	590.260	-0.060	0.149
-690.383	-137.106	-0.223	-0.026
-689.368	248.399	0.083	0.141
-688.354	-200.000	0.042	-0.409
-687.339	-96.762	-0.036	-0.010
-686.324	361.336	0.079	0.159
-685.310	-6.183	0.072	0.049
-684.295	-46.283	-0.223	0.110
-683.281	75.054	-0.286	-0.303
-682.266	391.847	-0.163	-0.339
-681.251	27.601	-0.226	0.191
-680.237	-84.426	-0.188	0.060
-679.222	-157.010	-0.217	0.013
-678.208	800.000	-0.131	-0.379
-677.193	-25.310	0.342	-0.203
-676.178	-200.000	-0.052	-0.240
-675.164	-198.092	0.148	0.001
-674.149	57.693	-0.181	-0.178
-673.135	795.192	-0.179	0.496
-672.120	-109.393	-0.259	-0.055
-671.105	32.152	-0.312	0.270
-670.091	-170.360	-0.263	-0.009
-669.076	307.835	-0.099	-0.185
-668.062	672.334	-0.047	-0.123
-667.047	800.000	-0.070	-0.263
-666.032	0.956	0.275	-0.198
-665.018	-121.386	-0.189	0.032
-664.003	117.201	0.127	-0.157
-662.989	-24.781	-0.108	-0.065
-661.974	51.816	0.098	-0.094
-660.959	800.000	0.018	-0.051
-659.945	800.000	-0.052	0.164
-658.930	170.628	-0.119	-0.170
-657.916	62.226	-0.081	-0.081
-656.901	-200.000	0.018	-0.338
-655.886	2.364	0.068	0.049
-654.872	-35.003	0.250	-0.137
-653.857	-64.520	0.286	0.116
-652.843	161.842	-0.156	0.219
-651.828	-200.000	0.027	-0.149
-650.814	-200.000	0.068	-0.349
-649.799	-51.314	-0.338	-0.159
-648.784	-2.197	-0.153	0.108
-647.770	14.469	0.194	0.152
-646.755	764.518	-0.086	-0.234
-645.741	88.894	0.217	0.242
-644.726	-75.553	-0.061	-0.022
-643.711	-200.000	0.006	0.161
-642.697	400.514	0.127	-0.266
-641.682	243.595	-0.178	0.299
-640.668	-162.731	0.353	0.017
-639.653	-200.000	0.028	-0.396
-638.638	-62.733	0.225	-0.093
-637.624	-49.252	0.160	-0.077
-636.609	-9.801	-0.070	-0.047
-635.595	254.172	0.156	-0.268
-634.580	-117.383	0.211	-0.038
-633.565	394.176	-0.133	-0.278
-632.551	800.000	-0.061	-0.171
-631.536	11.825	-0.337	-0.259
-630.522	-72.013	0.088	-0.033
-629.507	-200.000	-0.005	0.345
-628.492	521.839	0.107	-0.253
-627.478	217.473	-0.211	-0.336
-626.463	-9.855	-0.236	-0.157
-625.449	-40.629	0.277	-0.144
-624.434	800.000	0.145	-0.474
-623.419	3.064	-0.248	-0.181
-622.405	-200.000	0.029	0.293
-621.390	-200.000	-0.087	0.466
-620.376	-200.000	0.004	-0.081
-619.361	-200.000	-0.029	-0.300
-618.346	-19.674	-0.111	0.069
-617.332	-200.000	-0.017	-0.263
-616.317	-0.060	-0.191	-0.136
-615.303	35.333	0.251	-0.221
-614.288	-26.466	0.239	0.140
-613.273	62.781	0.087	-0.087
-612.259	-200.000	0.013	-0.155
-611.244	62.397	0.152	-0.152
-610.230	5.058	0.093	-0.069
-609.215	-200.000	-0.008	-0.127
-608.201	-166.113	0.206	-0.009
-607.186	8.246	-0.169	0.127
-606.171	97.389	0.290	0.333
-605.157	-65.604	-0.223	-0.090
-604.142	241.784	-0.073	-0.122
-603.128	673.568	-0.094	-0.244
-602.113	-2.198	0.131	-0.092
-601.098	-200.000	0.036	-0.217
-600.084	93.673	0.138	-0.156
-599.069	-200.000	-0.004	0.102
-598.055	-35.657	0.110	-0.060
-597.040	-149.865	0.185	0.014
-596.025	274.188	0.047	0.083
-595.011	800.000	-0.021	-0.075
-593.996	-68.575	-0.305	-0.118
-592.982	-84.759	0.182	-0.057
-591.967	-200.000	-0.037	-0.254
-590.952	800.000	-0.046	-0.156
-589.938	-61.579	-0.275	-0.116
-588.923	-157.086	-0.176	-0.011
-587.909	80.725	-0.287	0.310
-586.894	800.000	-0.126	-0.399
-585.879	-167.845	-0.354	0.014
-584.865	-17.523	0.297	-0.187
-583.850	-200.000	-0.006	-0.165
-582.836	154.691	0.236	-0.324
-581.821	-129.974	-0.245	-0.034
-580.806	-200.000	-0.008	-0.063
-579.792	112.098	-0.087	-0.105
-578.777	209.314	-0.159	-0.249
-577.763	28.383	0.143	0.121
-576.748	-62.678	-0.341	0.142
-575.733	-49.338	0.299	0.143
-574.719	-200.000	0.025	-0.589
-573.704	-200.000	-0.041	0.222
-572.690	7.516	-0.164	0.122
-571.675	188.470	-0.075	-0.112
-570.661	-72.555	0.252	0.093
-569.646	-134.008	-0.031	-0.004
-568.631	-165.453	-0.372	0.016
-567.617	-145.480	0.221	0.020
-566.602	-124.530	-0.388	-0.060
-565.588	44.369	0.214	-0.196
-564.573	20.354	0.058	0.047
-563.558	29.282	-0.268	0.227
-562.544	800.000	-0.091	-0.291
-561.529	-121.962	-0.347	-0.057
-560.515	197.915	-0.118	-0.180
-559.500	-96.601	-0.209	0.055
-558.485	-82.200	0.221	-0.072
-557.471	24.576	0.105	-0.087
-556.456	136.750	0.072	-0.093
-555.442	-68.859	0.335	-0.129
-554.427	-116.749	0.113	-0.021
-553.412	311.588	0.063	-0.118
-552.398	-38.461	0.258	0.136
-551.383	-200.000	-0.030	-0.192
-550.369	-200.000	-0.092	0.484
-549.354	-200.000	0.051	0.307
-548.339	147.306	0.171	0.230
-547.325	800.000	-0.032	-0.125
-546.310	800.000	0.030	0.127
-545.296	-30.392	-0.068	0.039
-544.281	-58.704	-0.160	-0.069
-543.266	303.321	0.016	-0.029
-542.252	78.978	0.061	0.065
-541.237	-181.713	-0.177	0.003
-540.223	-103.033	0.421	0.100
-539.208	-104.954	-0.145	-0.033
-538.193	-104.342	-0.094	-0.022
-537.179	-27.387	-0.276	0.160
-536.164	-200.000	0.015	0.088
-535.150	-200.000	0.022	-0.353
-534.135	-200.000	-0.020	0.287
-533.121	-84.757	-0.397	0.125
-532.106	277.216	0.069	0.122
-531.091	-90.763	-0.153	0.044
-530.077	14.395	-0.206	-0.160
-529.062	-39.781	-0.128	-0.067
-528.048	-97.692	0.302	-0.078
-527.033	158.514	0.196	-0.271
-526.018	-127.443	0.261	0.038
-525.004	800.000	0.057	0.184
-523.989	34.204	-0.063	-0.055
-522.975	124.554	-0.047	-0.059
-521.960	54.200	0.153	-0.147
-520.945	-81.682	-0.054	-0.018
-519.931	-45.107	0.059	0.029
-518.916	84.273	0.337	0.368
-517.902	432.800	0.101	-0.220
-516.887	275.337	-0.149	-0.264
-515.872	-91.456	0.073	0.021
-514.858	676.269	0.026	0.066
-513.843	38.195	-0.248	0.220
-512.829	-35.797	-0.310	-0.167
-511.814	-145.205	0.227	-0.021
-510.799	-2.559	0.104	0.073
-509.785	-200.000	0.049	-0.426
-508.770	800.000	0.020	-0.057
-507.756	-61.220	0.071	0.030
-506.741	-200.000	-0.070	0.580
-505.726	259.375	-0.074	0.127
-504.712	-110.441	0.342	-0.071
-503.697	-102.285	-0.151	0.036
-502.683	-200.000	-0.080	-0.568
-501.668	189.496	0.293	-0.438
-500.653	800.000	0.105	0.407
-499.639	244.340	-0.162	-0.271
-498.624	-200.000	0.007	-0.132
-497.610	-200.000	-0.023	0.169
-496.595	-200.000	0.028	-0.155
-495.581	-67.620	-0.240	-0.094
-494.566	-6.076	-0.271	0.184
-493.551	-4.712	0.183	0.126
-492.537	-75.698	0.323	0.114
-491.522	800.000	0.088	-0.261
-490.508	-48.708	-0.290	-0.139
-489.493	-162.244	0.004	-0.000
-488.478	-18.288	0.446	-0.278
-487.464	-91.917	0.094	-0.026
-486.449	86.272	-0.188	0.207
-485.435	-153.961	-0.132	0.009
-484.420	800.000	-0.095	0.280
-483.405	-163.897	0.235	0.011
-482.391	-200.000	-0.022	-0.184
-481.376	-200.000	0.000	0.010
-480.362	-61.670	0.278	-0.116
-479.347	82.230	-0.160	-0.172
-478.332	-200.000	0.019	0.118
-477.318	120.055	-0.162	-0.200
-476.303	132.029	0.092	-0.118
-475.289	-114.694	0.230	-0.044
-474.274	800.000	0.055	0.162
-473.259	90.896	0.193	-0.216
-472.245	-8.714	0.090	0.060
-471.230	-5.527	-0.149	0.102
-470.216	-50.443	-0.193	0.091
-469.201	-32.063	-0.165	0.092
-468.186	39.564	0.086	0.077
-467.172	31.032	-0.298	0.255
-466.157	263.708	0.092	0.160
-465.143	3.945	-0.177	0.129
-464.128	-6.710	-0.170	0.115
-463.113	-98.325	0.176	0.045
-462.099	65.992	0.290	0.293
-461.084	49.664	0.147	0.138
-460.070	-57.940	0.190	0.082
-459.055	88.640	0.242	-0.268
-458.040	6.432	0.042	-0.031
-457.026	-200.000	-0.050	-0.353
-456.011	-200.000	0.003	0.205
-454.997	-137.953	0.230	0.026
-453.982	-200.000	-0.033	0.174
-452.968	-147.971	0.198	0.016
-451.953	-200.000	-0.014	-0.157
-450.938	800.000	-0.008	0.033
-449.924	-100.392	-0.121	0.030
-448.909	-38.621	0.181	-0.095
-447.895	224.357	0.092	0.147
-446.880	225.724	-0.124	0.200
-445.865	0.173	0.111	-0.079
-444.851	241.997	-0.276	-0.459
-443.836	-83.120	-0.005	-0.002
-442.822	-142.784	-0.174	0.017
-441.807	175.396	0.140	0.201
-440.792	-192.393	-0.164	-0.002
-439.778	-80.994	0.106	-0.035
-438.763	101.377	0.065	0.075
-437.749	192.786	-0.151	0.226
-436.734	6.233	0.263	0.194
-435.719	80.640	-0.026	-0.028
-434.705	749.593	0.021	-0.057
-433.690	-200.000	-0.003	-0.091
-432.676	41.307	-0.274	0.247
-431.661	14.389	0.019	-0.015
-430.646	304.733	0.179	0.331
-429.632	-110.762	0.172	-0.035
-428.617	-23.853	0.073	0.044
-427.603	-200.000	0.033	0.386
-426.588	-72.618	0.357	-0.131
-425.573	-139.877	-0.157	-0.016
-424.559	245.145	0.068	-0.113
-423.544	-3.196	-0.329	-0.228
-422.530	-200.000	0.015	-0.162
-421.515	-48.427	-0.144	-0.069
-420.500	-110.297	-0.463	0.096
-419.486	-86.828	0.319	0.097
-418.471	-200.000	0.025	-0.284
-417.457	-90.199	0.135	-0.039
-416.442	-200.000	-0.038	0.196
-415.428	-200.000	-0.027	-0.143
-414.413	-20.025	-0.415	0.255
-413.398	-5.688	-0.136	0.093
-412.384	31.654	0.139	0.118
-411.369	70.065	0.315	0.324
-410.355	-200.000	-0.022	0.206
-409.340	-114.642	-0.167	0.032
-408.325	73.573	0.184	0.191
-407.311	800.000	0.060	-0.244
-406.296	-76.512	-0.123	0.043
-405.282	-110.387	-0.036	-0.007
-404.267	-133.869	-0.130	-0.016
-403.252	-34.281	0.201	-0.110
-402.238	7.844	0.193	0.144
-401.223	-200.000	0.045	0.253
-400.209	48.599	0.070	0.065
-399.194	-27.898	-0.070	0.040
-398.179	-154.970	-0.092	-0.006
-397.165	-29.254	0.255	-0.145
-396.150	-148.558	-0.057	-0.005
-395.136	-79.958	-0.053	0.018
-394.121	800.000	-0.071	0.231
-393.106	-151.470	-0.063	-0.005
-392.092	46.527	0.156	-0.144
-391.077	16.929	-0.139	-0.109
-390.063	-108.852	-0.277	0.059
-389.048	-200.000	-0.017	0.345
-388.033	-173.624	-0.263	0.008
-387.019	-13.433	-0.298	0.192
-386.004	46.634	0.091	-0.084
-384.990	-154.132	-0.159	-0.011
-383.975	430.152	0.188	-0.405
-382.960	800.000	0.043	-0.127
-381.946	-26.063	0.376	0.220
-380.931	20.415	0.311	0.250
-379.917	454.030	-0.113	-0.249
-378.902	-200.000	-0.034	-0.246
-377.888	25.979	-0.165	-0.136
-376.873	-135.914	-0.012	-0.001
-375.858	-104.795	0.067	0.015
-374.844	-200.000	-0.009	-0.048
-373.829	-146.847	-0.458	-0.039
-372.815	151.900	-0.085	0.115
-371.800	167.238	-0.019	-0.027
-370.785	24.425	0.159	0.130
-369.771	-200.000	0.031	-0.178
-368.756	800.000	0.069	-0.292
-367.742	-200.000	-0.027	0.159
-366.727	-200.000	-0.001	0.060
-365.712	-200.000	-0.025	-0.213
-364.698	-200.000	0.035	0.220
-363.683	800.000	-0.044	0.148
-362.669	-66.986	-0.512	0.201
-361.654	41.900	0.247	0.223
-360.639	40.927	-0.248	0.222
-359.625	51.581	-0.111	0.105
-358.610	800.000	0.087	-0.247
-357.596	-18.014	0.178	-0.111
-356.581	203.014	-0.099	-0.152
-355.566	-98.725	0.274	-0.069
-354.552	-113.461	0.600	-0.117
-353.537	-2.786	-0.386	0.267
-352.523	193.421	-0.206	0.309
-351.508	-8.236	0.104	-0.070
-350.493	467.272	0.118	-0.263
-349.479	-145.800	-0.270	0.024
-348.464	-5.274	0.120	-0.082
-347.450	-35.442	0.137	-0.074
-346.435	56.119	-0.164	0.157
-345.420	-149.692	-0.163	0.013
-344.406	800.000	0.068	-0.246
-343.391	-90.374	0.316	0.091
-342.377	-122.028	-0.341	-0.055
-341.362	-72.882	-0.221	-0.081
-340.348	-200.000	-0.005	-0.162
-339.333	-175.700	0.674	-0.018
-338.318	-200.000	-0.003	-0.062
-337.304	127.263	0.211	0.265
-336.289	-12.571	-0.348	-0.225
-335.275	14.172	0.172	-0.133
-334.260	-54.812	-0.272	-0.122
-333.245	-22.912	0.253	-0.151
-332.231	-0.019	-0.175	-0.124
-331.216	800.000	-0.107	0.436
-330.202	428.035	-0.136	0.292
-329.187	13.384	-0.143	0.110
-328.172	-200.000	-0.009	0.074
-327.158	-98.774	0.339	0.085
-326.143	-148.562	-0.202	0.016
-325.129	-171.977	0.169	0.005
-324.114	-31.221	-0.161	-0.090
-323.099	-200.000	-0.041	0.204
-322.085	-76.964	-0.119	0.041
-321.070	-200.000	0.012	-0.177
-320.056	401.755	-0.139	0.289
-319.041	-113.598	-0.150	-0.029
-318.026	-0.844	-0.186	0.131
-317.012	-116.633	-0.104	-0.019
-315.997	-200.000	-0.099	-0.450
-314.983	69.663	-0.079	-0.080
-313.968	304.279	0.044	-0.081
-312.953	-61.862	0.207	0.086
-311.939	212.586	0.055	-0.086
-310.924	216.439	-0.144	-0.226
-309.910	-78.024	0.177	0.060
-308.895	140.602	-0.160	0.209
-307.880	-40.429	0.292	-0.150
-306.866	-200.000	-0.003	0.109
-305.851	800.000	0.145	-0.458
-304.837	10.327	-0.206	-0.155
-303.822	800.000	-0.053	0.191
-302.807	-200.000	0.056	0.414
-301.793	-109.766	-0.159	-0.033
-300.778	-63.923	-0.197	-0.080
-299.764	173.122	0.132	-0.188
-298.749	60.543	0.139	-0.136
-297.735	-30.520	-0.346	-0.194
-296.720	461.731	0.019	0.043
-295.705	14.100	0.050	0.039
-294.691	23.925	-0.175	0.143
-293.676	-200.000	-0.013	-0.097
-292.662	60.804	-0.064	-0.063
-291.647	-74.765	-0.254	-0.090
-290.632	500.840	0.129	0.295
-289.618	-64.749	0.218	-0.087
-288.603	-31.859	-0.212	-0.117
-287.589	-161.380	-0.249	0.013
-286.574	-122.044	0.222	0.036
-285.559	189.493	-0.104	0.155
-284.545	-73.614	0.421	-0.152
-283.530	800.000	-0.059	-0.200
-282.516	-134.809	0.071	-0.009
-281.501	91.898	-0.318	0.354
-280.486	194.284	0.143	-0.214
-279.472	126.945	-0.044	0.055
-278.457	800.000	0.088	-0.303
-277.443	800.000	-0.039	0.165
-276.428	-138.078	-0.334	0.037
-275.413	-54.539	-0.330	0.148
-274.399	-200.000	0.046	0.221
-273.384	45.621	-0.039	0.035
-272.370	263.219	-0.210	-0.361
-271.355	107.709	-0.112	0.132
-270.340	-24.495	-0.121	-0.071
-269.326	-122.255	-0.044	-0.007
-268.311	-85.794	-0.344	0.105
-267.297	296.044	0.122	-0.221
-266.282	-12.183	0.038	0.025
-265.267	169.301	-0.212	-0.299
-264.253	-46.247	-0.129	0.063
-263.238	721.937	-0.133	0.349
-262.224	-200.000	0.054	0.408
-261.209	-70.705	0.281	0.105
-260.195	-112.631	-0.523	0.103
-259.180	785.085	-0.104	0.282
-258.165	2.688	-0.247	0.177
-257.151	33.154	0.030	0.026
-256.136	-95.808	0.074	0.020
-255.122	5.687	-0.083	-0.060
-254.107	-112.511	-0.173	-0.034
-253.092	-149.939	-0.142	-0.011
-252.078	-200.000	0.015	-0.149
-251.063	-48.092	0.205	-0.098
-250.049	-55.227	0.080	-0.035
-249.034	-22.758	0.167	-0.100
-248.019	-83.559	-0.290	0.092
-247.005	-93.151	0.231	-0.063
-245.990	509.990	-0.062	0.142
-244.976	-194.132	0.310	0.003
-243.961	-48.724	0.345	0.164
-242.946	-22.752	-0.241	0.144
-241.932	311.921	-0.164	0.304
-240.917	-178.923	0.087	-0.002
-239.903	800.000	-0.045	0.195
-238.888	51.780	0.135	0.127
-237.873	-200.000	0.014	-0.296
-236.859	-42.512	0.211	0.106
-235.844	-81.288	-0.317	-0.103
-234.830	59.828	0.210	0.205
-233.815	-92.282	0.155	-0.043
-232.800	191.402	0.179	0.266
-231.786	-29.622	0.130	-0.073
-230.771	57.711	0.158	0.153
-229.757	-91.637	0.255	0.072
-228.742	-200.000	-0.014	0.111
-227.727	89.499	0.307	0.337
-226.713	-200.000	0.002	0.277
-225.698	800.000	-0.088	0.282
-224.684	-137.949	0.271	-0.030
-223.669	-200.000	-0.373	-0.000
-222.655	-200.000	-0.015	0.343
-221.640	-48.220	-0.054	0.026
-220.625	-200.000	0.018	-0.124
-219.611	-42.988	-0.105	0.053
-218.596	800.000	0.015	0.051
-217.582	230.390	0.057	0.093
-216.567	433.414	0.079	0.169
-215.552	751.278	-0.072	0.191
-214.538	-128.931	0.043	0.006
-213.523	178.236	-0.095	0.137
-212.509	66.833	-0.092	0.092
-211.494	26.211	0.188	0.155
-210.479	-25.102	-0.046	-0.027
-209.465	-144.824	-0.227	-0.021
-208.450	-29.133	-0.300	-0.170
-207.436	612.150	0.159	0.393
-206.421	-85.656	0.090	-0.027
-205.406	-200.000	-0.010	0.088
-204.392	70.010	-0.126	-0.128
-203.377	-200.000	0.041	-0.228
-202.363	-99.676	0.332	-0.082
-201.348	-94.604	0.215	0.058
-200.333	-11.023	0.181	-0.118
-199.319	-200.000	-0.004	0.068
-198.304	-91.002	-0.202	-0.057
-197.290	3.165	0.169	0.121
-196.275	-19.274	-0.113	-0.069
-195.260	-200.000	0.043	-0.387
-194.246	800.000	0.039	-0.159
-193.231	800.000	0.030	0.126
-192.217	800.000	0.049	-0.159
-191.202	-200.000	0.062	0.362
-190.187	578.747	0.109	0.263
-189.173	-200.000	0.054	-0.242
-188.158	-200.000	-0.026	-0.186
-187.144	-200.000	0.013	0.070
-186.129	138.170	0.244	-0.316
-185.114	800.000	0.020	-0.081
-184.100	-200.000	-0.030	0.287
-183.085	-34.245	0.325	-0.176
-182.071	470.404	0.081	0.180
-181.056	-200.000	-0.032	-0.144
-180.042	-200.000	0.075	-0.000
-179.027	-120.072	0.274	0.046
-178.012	-120.410	-0.059	0.010
-176.998	-200.000	0.077	0.384
-175.983	-116.658	0.315	-0.057
-174.969	9.723	-0.135	-0.101
-173.954	-102.440	-0.305	-0.072
-172.939	-200.000	0.071	0.504
-171.925	-175.729	-0.056	-0.001
-170.910	30.051	-0.229	-0.193
-169.896	42.313	0.109	0.098
-168.881	66.585	-0.135	0.136
-167.866	35.764	-0.073	0.063
-166.852	-109.338	-0.188	-0.039
-165.837	48.343	0.146	-0.134
-164.823	-170.157	-0.214	-0.007
-163.808	-80.216	0.377	-0.124
-162.793	-129.045	0.016	0.002
-161.779	-200.000	0.013	0.194
-160.764	-66.763	-0.183	0.071
-159.750	800.000	0.044	0.150
-158.735	-47.539	0.163	-0.078
-157.720	-158.474	0.143	-0.008
-156.706	9.522	-0.206	0.153
-155.691	800.000	0.044	-0.125
-154.677	-45.493	0.236	0.115
-153.662	-200.000	0.034	0.157
-152.647	216.169	0.096	0.151
-151.633	-200.000	0.045	-0.321
-150.618	88.255	-0.192	-0.209
-149.604	800.000	0.065	0.216
-148.589	-6.909	0.195	-0.130
-147.574	-34.543	-0.129	0.070
-146.560	133.195	-0.252	-0.321
-145.545	-200.000	0.045	0.236
-144.531	0.773	0.122	0.086
-143.516	-200.000	-0.008	0.079
-142.502	-45.934	-0.224	-0.109
-141.487	800.000	0.075	0.228
-140.472	283.423	0.260	0.458
-139.458	-200.000	-0.023	0.374
-138.443	152.715	0.275	-0.369
-137.429	-70.085	0.094	-0.035
-136.414	-57.589	-0.195	0.084
-135.399	138.530	0.085	0.110
-134.385	-200.000	-0.004	0.108
-133.370	-59.045	-0.246	0.105
-132.356	-76.220	0.301	0.104
-131.341	457.310	-0.030	0.065
-130.326	-141.429	-0.301	-0.030
-129.312	295.582	-0.045	0.082
-128.297	379.871	-0.118	0.238
-127.283	-46.014	-0.223	0.108
-126.268	-167.993	-0.365	0.014
-125.253	800.000	-0.129	-0.363
-124.239	111.677	0.185	-0.220
-123.224	-200.000	0.005	0.196
-122.210	-200.000	0.028	-0.135
-121.195	128.937	0.229	-0.287
-120.180	-200.000	-0.067	-0.449
-119.166	-57.364	-0.366	0.158
-118.151	-106.072	0.311	-0.069
-117.137	-102.579	-0.217	0.051
-116.122	-200.000	-0.038	-0.400
-115.107	699.481	0.227	0.586
-114.093	-99.595	0.186	0.046
-113.078	-10.636	0.398	-0.259
-112.064	7.635	-0.291	-0.214
-111.049	506.117	0.093	0.211
-110.034	-133.904	-0.337	-0.041
-109.020	159.013	-0.067	-0.092
-108.005	-60.040	-0.241	-0.101
-106.991	800.000	0.017	0.053
-105.976	800.000	0.052	-0.224
-104.962	338.613	-0.110	0.209
-103.947	-64.700	0.048	0.019
-102.932	42.811	-0.146	0.130
-101.918	-50.035	0.055	-0.025
-100.903	-154.897	0.177	-0.011
-99.889	-200.000	0.025	-0.283
-98.874	-136.609	-0.300	0.034
-97.859	-96.228	0.141	-0.037
-96.845	-33.635	-0.338	0.183
-95.830	-76.853	0.262	-0.090
-94.816	109.510	-0.128	0.151
-93.801	497.334	0.018	-0.040
-92.786	18.375	0.243	-0.191
-91.772	126.967	0.112	-0.140
-90.757	-163.926	0.434	0.020
-89.743	-80.728	-0.254	0.083
-88.728	800.000	0.083	-0.256
-87.713	263.955	-0.098	-0.167
-86.699	-173.935	-0.144	-0.004
-85.684	800.000	-0.095	-0.285
-84.670	-126.699	0.241	-0.035
-83.655	224.785	0.068	-0.108
-82.640	-86.274	0.083	-0.025
-81.626	-200.000	0.049	-0.338
-80.611	800.000	0.079	0.337
-79.597	159.711	0.131	0.178
-78.582	-92.510	-0.202	0.056
-77.567	-74.932	-0.280	-0.099
-76.553	-161.371	0.103	-0.005
-75.538	109.853	0.016	-0.019
-74.524	-150.020	0.132	0.010
-73.509	-120.256	0.380	0.064
-72.494	173.748	-0.022	-0.031
-71.480	15.005	0.143	0.110
-70.465	-111.204	-0.531	0.106
-69.451	-42.237	0.233	0.117
-68.436	800.000	0.061	0.182
-67.422	413.145	-0.077	-0.160
-66.407	39.946	-0.201	0.177
-65.392	90.457	0.166	-0.182
-64.378	163.346	-0.114	0.157
-63.363	451.829	0.026	-0.056
-62.349	-88.941	0.021	-0.006
-61.334	76.175	-0.957	-0.993
-60.319	-122.666	0.945	0.150
-59.305	722.464	-0.390	-1.016
-58.290	343.533	0.655	1.258
-57.276	800.000	0.410	1.570
-56.261	-200.000	106.218	599.860
-55.246	541.317	1464.124	3418.351
-54.232	182.648	2658.932	3843.408
-53.217	108.548	2278.046	2665.432
-52.203	39.826	1894.822	1666.420
-51.188	33.820	1686.282	1437.657
-50.173	31.038	1643.378	1380.464
-49.159	50.087	1696.018	1568.386
-48.144	50.540	1712.373	1586.851
-47.130	33.099	1670.118	1418.250
-46.115	30.556	1655.604	1386.917
-45.100	30.371	1650.956	1381.592
-44.086	30.470	1647.522	1379.404
-43.071	30.397	1645.275	1376.922
-42.057	30.158	1643.450	1373.574
-41.042	30.364	1641.204	1373.162
-40.027	30.299	1639.358	1371.084
-39.013	30.234	1637.460	1368.967
-37.998	30.187	1636.359	1367.646
-36.984	30.311	1634.547	1366.985
-35.969	30.429	1633.547	1366.964
-34.954	30.465	1631.562	1365.514
-33.940	30.389	1630.061	1363.643
-32.925	30.461	1628.232	1362.586
-31.911	30.427	1626.379	1360.739
-30.896	30.445	1624.537	1359.271
-29.881	30.410	1623.274	1357.908
-28.867	30.515	1620.771	1356.522
-27.852	30.399	1619.894	1354.894
-26.838	30.487	1617.922	1353.825
-25.823	30.454	1617.006	1352.767
-24.809	30.382	1616.185	1351.504
-23.794	30.504	1614.417	1350.858
-22.779	30.504	1612.732	1349.396
-21.765	30.426	1611.176	1347.472
-20.750	30.432	1609.364	1345.946
-19.736	30.573	1608.242	1345.974
-18.721	30.550	1606.535	1344.331
-17.706	30.435	1605.437	1342.528
-16.692	30.436	1603.691	1341.020
-15.677	30.469	1602.481	1340.196
-14.663	30.418	1601.270	1338.759
-13.648	30.393	1599.990	1337.455
-12.633	30.363	1598.419	1335.876
-11.619	30.397	1596.564	1334.514
-10.604	30.475	1594.875	1333.611
-9.590	30.373	1594.244	1332.297
-8.575	30.492	1592.976	1332.036
-7.560	30.540	1591.458	1331.060
-6.546	30.408	1590.856	1329.560
-5.531	30.398	1589.641	1328.418
-4.517	30.394	1588.197	1327.132
-3.502	30.518	1586.475	1326.526
-2.487	30.516	1585.367	1325.530
-1.473	30.087	1572.886	1312.005
-0.458	26.644	1553.486	1271.646
0.556	23.852	1553.268	1235.656
1.571	21.178	1576.063	1234.788
2.586	20.476	1589.036	1239.839
3.600	18.033	1534.197	1180.089
4.615	10.544	1427.544	1049.661
5.629	4.487	1366.084	966.774
6.644	3.369	1358.626	954.489
7.659	3.368	1357.698	953.747
8.673	3.354	1356.462	952.711
9.688	3.498	1354.578	952.192
10.702	3.446	1351.861	949.876
11.717	6.034	1356.990	969.384
12.731	13.802	1370.664	1027.322
13.746	19.965	1380.647	1073.025
14.761	21.012	1381.403	1080.010
15.775	20.349	1379.395	1074.243
16.790	19.195	1376.960	1065.119
17.804	18.503	1374.308	1058.702
18.819	18.162	1373.446	1055.840
19.834	17.964	1372.262	1053.615
20.848	17.810	1371.315	1051.841
21.863	17.693	1369.810	1049.877
22.877	17.593	1368.835	1048.417
23.892	17.470	1368.175	1047.064
24.907	17.467	1367.135	1046.155
25.921	17.461	1366.129	1045.257
26.936	17.470	1365.442	1044.696
27.950	17.468	1364.676	1044.005
28.965	17.616	1363.499	1043.917
29.980	17.813	1362.059	1043.930
30.994	17.898	1360.617	1043.251
32.009	17.908	1360.077	1042.807
33.023	17.976	1358.783	1042.135
34.038	17.768	1357.414	1039.724
35.053	17.682	1356.141	1038.137
36.067	17.708	1355.501	1037.715
37.082	17.623	1354.382	1036.246
38.096	17.680	1353.392	1035.743
39.111	17.798	1352.737	1035.868
40.126	17.688	1351.409	1034.094
41.140	17.475	1350.467	1031.987
42.155	17.384	1350.023	1031.008
43.169	17.305	1349.814	1030.279
44.184	17.306	1349.220	1029.741
45.199	17.314	1349.291	1029.748
46.213	17.400	1348.958	1029.923
47.228	17.643	1347.756	1030.389
48.242	17.683	1346.423	1029.520
49.257	17.593	1344.995	1027.790
50.271	17.608	1343.852	1026.916
51.286	17.696	1342.231	1026.120
52.301	17.596	1341.335	1024.741
53.315	17.493	1339.994	1023.004
54.330	17.405	1338.915	1021.561
55.344	17.378	1337.593	1020.300
56.359	17.420	1336.728	1019.802
57.374	17.380	1335.931	1018.865
58.388	17.275	1335.021	1017.452
59.403	17.236	1334.290	1016.573
60.417	17.217	1333.915	1016.085
61.432	17.226	1332.727	1015.143
62.447	17.215	1331.860	1014.325
63.461	17.059	1330.916	1012.590
64.476	17.041	1329.707	1011.473
65.490	17.046	1328.695	1010.644
66.505	17.113	1326.883	1009.573
67.520	17.146	1325.927	1008.951
68.534	17.216	1324.681	1008.328
69.549	17.137	1323.983	1007.239
70.563	17.034	1322.681	1005.551
71.578	17.044	1321.827	1004.869
72.593	16.845	1321.042	1003.010
73.607	16.880	1320.134	1002.436
74.622	16.900	1319.287	1001.824
75.636	17.032	1318.394	1001.838
76.651	17.052	1317.947	1001.523
77.666	17.065	1317.454	1001.137
78.680	17.043	1317.367	1000.854
79.695	17.188	1316.417	1000.900
80.709	17.239	1315.708	1000.574
81.724	17.417	1315.055	1001.032
82.739	17.367	1314.286	1000.066
83.753	17.455	1313.611	999.982
84.768	17.780	1312.695	1001.102
85.782	17.817	1311.709	1000.479
86.797	17.753	1310.550	999.131
87.812	17.670	1308.687	997.139
88.826	17.670	1307.968	996.503
89.841	17.717	1307.140	996.057
90.855	17.729	1306.479	995.534
91.870	17.724	1305.708	994.831
92.884	17.919	1303.993	994.571
93.899	17.764	1304.128	993.684
94.914	17.811	1302.973	992.987
95.928	17.801	1302.457	992.452
96.943	17.902	1301.190	991.981
97.957	17.816	1300.439	990.827
98.972	17.799	1299.354	989.808
99.987	17.732	1298.270	988.507
101.001	17.685	1297.680	987.702
102.016	17.713	1296.720	987.043
103.030	17.815	1295.172	986.370
104.045	17.633	1295.330	985.350
105.060	17.655	1293.619	984.087
106.074	17.416	1291.788	981.230
107.089	17.162	1290.270	978.528
108.103	17.127	1289.136	977.377
109.118	17.136	1287.898	976.402
110.133	17.171	1286.188	975.225
111.147	17.147	1285.142	974.204
112.162	17.229	1284.129	973.823
113.176	17.300	1283.119	973.375
114.191	17.315	1282.098	972.601
115.206	17.320	1280.887	971.624
116.220	17.263	1279.917	970.477
117.235	17.347	1278.331	969.666
118.249	17.237	1277.818	968.568
119.264	17.291	1276.298	967.636
120.279	17.169	1274.931	965.820
121.293	17.067	1274.205	964.605
122.308	17.012	1272.883	963.210
123.322	16.998	1272.608	962.835
124.337	17.053	1271.032	961.871
125.352	16.946	1269.869	960.298
126.366	16.998	1268.768	959.673
127.381	17.048	1267.338	958.792
128.395	17.043	1266.792	958.261
129.410	17.105	1265.899	957.852
130.424	17.141	1265.224	957.461
131.439	17.131	1264.570	956.824
132.454	17.230	1263.473	956.467
133.468	17.253	1262.744	955.961
134.483	17.171	1262.088	954.920
135.497	17.370	1260.653	954.864
136.512	17.290	1259.850	953.722
137.527	17.290	1258.596	952.690
138.541	17.456	1256.991	952.318
139.556	17.506	1255.440	951.342
140.570	17.442	1255.055	950.605
141.585	17.572	1254.002	950.448
142.600	17.609	1253.039	949.842
143.614	17.710	1252.171	949.662
144.629	17.720	1250.994	948.740
145.643	17.695	1250.157	947.884
146.658	17.646	1248.448	946.236
147.673	17.539	1246.907	944.386
148.687	17.385	1245.780	942.599
149.702	17.386	1244.228	941.348
150.716	17.246	1243.035	939.585
151.731	17.270	1241.955	938.821
152.746	17.345	1241.068	938.481
153.760	17.442	1239.546	937.780
154.775	17.638	1238.462	937.953
155.789	17.512	1237.656	936.572
156.804	17.541	1236.481	935.756
157.819	17.624	1235.353	935.275
158.833	17.789	1234.541	935.483
159.848	17.764	1234.388	935.146
160.862	17.813	1233.274	934.487
161.877	17.599	1231.575	931.949
162.892	17.437	1230.454	930.132
163.906	17.355	1230.115	929.345
164.921	17.393	1228.916	928.567
165.935	17.468	1228.356	928.467
166.950	17.575	1227.125	928.040
167.964	17.472	1227.012	927.310
168.979	17.528	1225.781	926.605
169.994	17.534	1224.830	925.832
171.008	17.602	1224.137	925.600
172.023	17.641	1223.585	925.314
173.037	17.783	1222.809	925.412
174.052	17.868	1221.585	924.863
175.067	17.547	1221.009	922.611
176.081	17.568	1219.521	921.519
177.096	17.508	1218.886	920.633
178.110	17.554	1217.925	920.073
179.125	17.620	1216.582	919.330
180.140	17.628	1215.449	918.438
181.154	17.614	1214.374	917.469
182.169	17.730	1213.351	917.238
183.183	17.844	1212.118	916.839
184.198	17.874	1210.942	916.026
185.213	17.907	1209.750	915.223
186.227	17.960	1208.774	914.685
187.242	17.954	1207.994	913.985
188.256	17.925	1207.140	913.101
189.271	18.091	1206.358	913.315
190.286	17.919	1204.984	911.278
191.300	17.566	1204.066	908.622
192.315	17.363	1203.059	906.698
193.329	17.419	1203.075	906.929
194.344	17.487	1202.273	906.603
195.359	17.673	1201.651	907.044
196.373	17.742	1200.888	906.754
197.388	17.830	1200.849	907.117
198.402	17.959	1200.629	907.554
199.417	18.090	1199.899	907.617
200.432	18.271	1199.140	907.921
201.446	18.277	1198.517	907.405
202.461	18.453	1197.439	907.438
203.475	18.377	1196.379	906.152
204.490	18.096	1195.103	903.622
205.504	17.951	1194.174	902.073
206.519	17.945	1192.754	900.889
207.534	17.992	1191.222	899.902
208.548	18.019	1190.692	899.562
209.563	18.111	1189.371	898.965
210.577	18.036	1188.690	897.977
211.592	18.108	1188.312	897.994
212.607	18.293	1187.077	897.951
213.621	18.211	1186.369	896.904
214.636	18.150	1185.483	895.838
215.650	18.139	1184.752	895.148
216.665	18.374	1183.483	895.337
217.680	18.519	1182.874	895.555
218.694	18.476	1182.455	894.935
219.709	18.401	1181.560	893.786
220.723	18.382	1180.741	892.990
221.738	18.333	1180.174	892.226
222.753	18.295	1179.225	891.232
223.767	18.430	1178.256	891.124
224.782	18.442	1178.005	890.916
225.796	18.578	1177.460	891.134
226.811	18.424	1176.989	889.895
227.826	18.461	1175.808	889.118
228.840	18.386	1175.128	888.137
229.855	18.278	1174.417	886.962
230.869	18.499	1173.149	887.067
231.884	18.312	1172.615	885.617
232.899	18.104	1171.756	883.816
233.913	18.265	1170.817	883.861
234.928	18.050	1170.493	882.427
235.942	18.119	1169.586	882.023
236.957	18.101	1168.639	881.136
237.972	18.170	1167.745	880.741
238.986	18.154	1167.683	880.533
240.001	18.200	1166.304	879.652
241.015	18.314	1165.702	879.706
242.030	18.441	1164.397	879.296
243.045	18.418	1163.938	878.753
244.059	18.366	1163.716	878.243
245.074	18.466	1162.709	877.913
246.088	18.531	1162.199	877.786
247.103	18.624	1161.562	877.705
248.117	18.754	1160.355	877.380
249.132	18.816	1160.325	877.593
250.147	19.031	1159.673	878.118
251.161	19.181	1158.779	878.132
252.176	19.097	1158.164	877.159
253.190	19.076	1157.648	876.582
254.205	19.233	1157.099	876.887
255.220	19.326	1156.333	876.703
256.234	19.234	1155.768	875.730
257.249	19.215	1155.136	875.079
258.263	19.124	1155.041	874.463
259.278	19.078	1153.933	873.317
260.293	19.315	1153.187	873.874
261.307	19.301	1153.078	873.644
262.322	19.309	1152.183	872.931
263.336	19.369	1151.624	872.732
264.351	19.402	1150.885	872.261
265.366	19.379	1150.372	871.682
266.380	19.267	1149.740	870.556
267.395	19.313	1148.482	869.760
268.409	19.233	1147.701	868.689
269.424	19.159	1147.004	867.714
270.439	19.149	1146.986	867.571
271.453	19.084	1145.794	866.265
272.468	19.098	1144.384	865.194
273.482	19.094	1143.778	864.640
274.497	19.023	1143.733	864.169
275.512	19.116	1142.549	863.666
276.526	19.194	1141.650	863.301
277.541	19.101	1141.128	862.364
278.555	19.198	1140.650	862.414
279.570	19.280	1140.126	862.353
280.585	19.525	1139.149	862.762
281.599	19.448	1138.208	861.587
282.614	19.304	1136.771	859.703
283.628	19.238	1136.144	858.825
284.643	19.218	1135.293	858.008
285.657	19.336	1134.473	857.897
286.672	19.320	1133.214	856.789
287.687	19.301	1132.694	856.228
288.701	19.190	1132.003	855.076
289.716	19.287	1131.334	854.977
290.730	19.275	1130.622	854.305
291.745	19.361	1129.880	854.097
292.760	19.337	1129.330	853.484
293.774	19.337	1128.778	852.993
294.789	19.595	1127.822	853.469
295.803	19.540	1127.459	852.849
296.818	19.397	1126.817	851.579
297.833	19.296	1126.181	850.525
298.847	19.286	1124.889	849.426
299.862	19.448	1123.989	849.471
300.876	19.477	1123.401	849.094
301.891	19.470	1123.250	848.866
302.906	19.623	1122.204	848.754
303.920	19.727	1122.108	849.116
304.935	19.726	1121.358	848.472
305.949	19.860	1120.410	848.335
306.964	19.889	1119.435	847.666
307.979	19.709	1119.261	846.574
308.993	19.797	1118.260	846.174
310.008	19.873	1117.600	845.973
311.022	19.756	1117.623	845.343
312.037	19.861	1116.010	844.561
313.052	19.658	1114.942	842.685
314.066	19.625	1113.778	841.572
315.081	19.488	1113.180	840.377
316.095	19.355	1112.563	839.193
317.110	19.430	1112.209	839.215
318.125	19.510	1110.810	838.475
319.139	19.499	1110.298	837.960
320.154	19.514	1109.665	837.481
321.168	19.414	1109.391	836.713
322.183	19.456	1108.348	836.057
323.197	19.585	1107.851	836.232
324.212	19.653	1107.060	835.892
325.227	19.628	1106.430	835.219
326.241	19.601	1106.191	834.837
327.256	19.595	1105.393	834.130
328.270	19.580	1104.127	833.030
329.285	19.574	1103.433	832.403
330.300	19.681	1102.552	832.179
331.314	19.545	1101.702	830.809
332.329	19.501	1100.932	829.945
333.343	19.706	1099.901	830.080
334.358	19.821	1099.175	830.009
335.373	19.970	1098.431	830.086
336.387	19.766	1097.719	828.498
337.402	19.954	1097.121	828.876
338.416	19.923	1096.643	828.290
339.431	20.031	1096.023	828.266
340.446	19.999	1095.772	827.853
341.460	20.170	1095.000	828.010
342.475	20.331	1093.851	827.835
343.489	20.327	1092.934	827.049
344.504	20.547	1091.754	827.129
345.519	20.317	1091.388	825.686
346.533	20.365	1090.750	825.359
347.548	20.538	1089.949	825.502
348.562	20.382	1088.999	823.970
349.577	20.321	1088.152	822.964
350.592	20.133	1087.057	821.176
351.606	20.018	1086.600	820.213
352.621	20.019	1085.908	819.624
353.635	20.032	1084.980	818.910
354.650	19.949	1084.511	818.089
355.665	20.082	1083.883	818.174
356.679	20.126	1083.112	817.728
357.694	20.174	1082.903	817.720
358.708	20.145	1082.599	817.283
359.723	20.275	1081.994	817.367
360.738	20.303	1080.617	816.386
361.752	20.242	1080.314	815.801
362.767	20.265	1079.337	815.096
363.781	20.342	1079.083	815.194
364.796	20.381	1078.892	815.159
365.810	20.532	1078.102	815.200
366.825	20.613	1077.777	815.265
367.840	20.689	1077.420	815.277
368.854	20.657	1076.941	814.691
369.869	20.791	1075.852	814.422
370.883	20.724	1074.794	813.237
371.898	20.695	1073.993	812.425
372.913	20.533	1073.522	811.239
373.927	20.729	1073.387	811.981
374.942	20.745	1072.787	811.527
375.956	20.667	1072.252	810.690
376.971	20.696	1071.483	810.170
377.986	20.656	1071.474	809.904
379.000	20.880	1070.724	810.308
380.015	20.784	1070.650	809.735
381.029	20.890	1069.679	809.420
382.044	20.856	1069.080	808.738
383.059	20.864	1067.990	807.877
384.073	20.898	1067.119	807.307
385.088	21.017	1066.071	806.993
386.102	20.946	1065.357	806.055
387.117	20.784	1064.097	804.281
388.132	20.670	1063.552	803.271
389.146	20.579	1062.357	801.878
390.161	20.674	1061.902	801.899
391.175	20.571	1061.319	800.915
392.190	20.730	1060.509	800.966
393.205	20.840	1059.874	800.920
394.219	20.931	1058.838	800.484
395.234	20.771	1057.952	799.009
396.248	20.643	1056.919	797.574
397.263	20.788	1056.141	797.578
398.278	20.637	1055.649	796.444
399.292	20.562	1054.452	795.129
400.307	20.460	1053.975	794.231
401.321	20.596	1053.214	794.209
402.336	20.514	1052.533	793.250
403.350	20.515	1052.026	792.804
404.365	20.578	1051.031	792.271
405.380	20.774	1050.292	792.538
406.394	20.796	1049.774	792.173
407.409	20.975	1048.901	792.260
408.423	20.983	1048.460	791.895
409.438	21.117	1047.553	791.748
410.453	21.166	1047.168	791.606
411.467	21.248	1046.414	791.338
412.482	21.318	1045.564	790.941
413.496	21.221	1045.655	790.503
414.511	21.328	1045.038	790.452
415.526	21.414	1044.516	790.375
416.540	21.451	1044.123	790.176
417.555	21.451	1043.599	789.706
418.569	21.389	1042.742	788.707
419.584	21.325	1042.487	788.157
420.599	21.337	1041.858	787.669
421.613	155.450	1402.566	1796.410
422.628	142.306	1455.103	1796.514
