DTS Sentinel unit serial number:	SN413079Multiplexer serial number:	ORYXHardware model number:	OX4-SRSoftware version number:	ORYX F/W v4.00 Oryx Data Collector v3.7.2.0data status	okinstallation	princeton_trtdifferential loss correction	single-endedforward channel	channel 2reverse channel	N/Adate	2019/09/13time	15:59:35forward acquisition time	60.00reverse acquisition time	0.00gamma	496.2192k internal	0.2316k external	0.2316temperature offset calibration	1.0208default loss term (dB/km)	0.3790temperature slope calibration	1.0000multiplexer offset coefficient	1.0000multiplexer slope coefficient	1.0000fibre end	0.00T internal ref (°C)	34.62T ext. ref 1 (°C)	4.81T ext. ref 2 (°C)	31.20length (m)	temperature (°C)	Stokes	anti-Stokes-747.200	169.407	0.140	0.203
-746.185	-103.701	-0.474	0.113
-745.171	-200.000	0.015	-0.079
-744.156	34.026	-0.226	0.199
-743.142	-131.900	0.178	0.024
-742.127	411.538	0.055	-0.118
-741.112	-200.000	-0.002	-0.202
-740.098	800.000	0.064	0.251
-739.083	-200.000	0.042	-0.318
-738.069	-135.600	0.164	0.020
-737.054	-144.261	-0.140	-0.013
-736.039	-200.000	0.001	0.148
-735.025	-200.000	0.093	0.449
-734.010	-147.808	-0.193	-0.016
-732.996	-130.975	-0.366	0.050
-731.981	72.079	0.060	0.063
-730.966	-8.941	0.134	-0.091
-729.952	-109.825	-0.186	-0.040
-728.937	316.826	-0.148	-0.283
-727.923	-91.028	-0.056	0.016
-726.908	-19.255	0.195	0.123
-725.894	-144.092	-0.396	0.038
-724.879	-135.586	-0.531	0.064
-723.864	221.282	0.123	-0.200
-722.850	-200.000	-0.012	-0.167
-721.835	79.619	0.070	-0.076
-720.821	558.854	-0.126	-0.307
-719.806	7.179	-0.215	0.162
-718.791	-167.881	-0.279	0.011
-717.777	-167.596	-0.280	0.011
-716.762	-200.000	-0.054	-0.293
-715.748	-200.000	-0.002	-0.154
-714.733	-127.053	-0.081	-0.012
-713.718	-18.547	0.029	0.018
-712.704	435.823	-0.059	-0.130
-711.689	16.868	0.028	-0.022
-710.675	800.000	0.016	-0.051
-709.660	548.117	-0.019	-0.046
-708.645	345.519	0.134	-0.267
-707.631	-200.000	-0.198	-0.000
-706.616	629.833	-0.059	-0.152
-705.602	210.381	-0.169	-0.269
-704.587	63.020	0.214	-0.217
-703.572	800.000	-0.055	0.173
-702.558	1.662	0.143	0.104
-701.543	508.776	-0.125	0.293
-700.529	234.226	0.078	0.129
-699.514	-200.000	0.355	0.002
-698.499	-147.728	0.334	0.028
-697.485	-55.629	-0.244	-0.111
-696.470	-127.770	-0.440	-0.064
-695.456	-200.000	0.031	0.282
-694.441	-69.579	-0.210	0.081
-693.426	-4.152	-0.249	-0.174
-692.412	-143.206	-0.256	0.025
-691.397	-200.000	-0.036	0.284
-690.383	84.128	-0.106	0.117
-689.368	-21.871	0.099	-0.061
-688.354	-200.000	0.010	0.122
-687.339	81.336	0.150	-0.164
-686.324	577.853	-0.113	0.278
-685.310	-136.932	-0.329	0.038
-684.295	-101.326	0.053	0.013
-683.281	-38.637	0.175	-0.094
-682.266	800.000	0.078	-0.248
-681.251	800.000	-0.058	-0.225
-680.237	-91.965	0.472	-0.135
-679.222	315.219	-0.187	0.356
-678.208	-126.543	-0.241	0.036
-677.193	-59.663	-0.158	-0.068
-676.178	-200.000	-0.030	0.290
-675.164	800.000	0.025	-0.088
-674.149	800.000	-0.104	-0.378
-673.135	100.955	-0.052	-0.061
-672.120	324.392	0.097	-0.187
-671.105	-87.875	0.102	0.031
-670.091	-24.287	0.237	-0.143
-669.076	800.000	0.006	0.025
-668.062	637.456	-0.086	0.220
-667.047	800.000	-0.050	-0.159
-666.032	-106.683	-0.271	0.061
-665.018	138.139	0.158	0.209
-664.003	60.496	0.109	0.109
-662.989	-200.000	-0.033	-0.224
-661.974	-81.576	0.267	-0.089
-660.959	-44.246	-0.238	0.120
-659.945	-44.946	-0.205	0.103
-658.930	800.000	-0.099	0.342
-657.916	-45.845	0.170	0.085
-656.901	-192.141	0.261	0.003
-655.886	800.000	0.084	-0.238
-654.872	-70.937	0.188	-0.072
-653.857	84.025	0.178	0.196
-652.843	-200.000	-0.031	0.188
-651.828	-70.960	-0.209	-0.079
-650.814	800.000	0.088	-0.264
-649.799	64.760	0.041	0.041
-648.784	247.164	-0.094	0.160
-647.770	-36.935	0.239	-0.130
-646.755	800.000	-0.020	-0.059
-645.741	-200.000	0.034	-0.208
-644.726	-143.006	-0.158	-0.015
-643.711	657.783	0.053	-0.138
-642.697	800.000	0.096	-0.277
-641.682	-71.340	0.174	0.066
-640.668	-117.057	0.075	-0.014
-639.653	-200.000	-0.000	-0.082
-638.638	-10.076	-0.432	0.290
-637.624	87.455	0.121	0.135
-636.609	34.322	0.411	-0.362
-635.595	157.007	-0.203	0.283
-634.580	-200.000	0.007	-0.142
-633.565	501.526	0.056	0.132
-632.551	49.043	-0.090	0.085
-631.536	-138.389	-0.308	0.034
-630.522	65.181	-0.214	-0.218
-629.507	-200.000	0.024	0.238
-628.492	800.000	0.050	0.196
-627.478	24.419	0.197	-0.164
-626.463	115.979	0.185	-0.228
-625.449	-137.459	0.196	-0.022
-624.434	800.000	0.067	-0.212
-623.419	10.495	0.247	-0.190
-622.405	-200.000	0.035	-0.192
-621.390	800.000	0.087	0.340
-620.376	-87.756	-0.233	0.071
-619.361	-40.748	-0.257	0.134
-618.346	-35.850	0.207	0.113
-617.332	150.306	0.081	0.111
-616.317	-0.108	-0.156	-0.112
-615.303	-200.000	0.002	-0.113
-614.288	-6.374	0.158	-0.108
-613.273	-200.000	0.056	-0.274
-612.259	-102.794	0.163	-0.039
-611.244	-200.000	0.003	0.047
-610.230	14.873	-0.264	-0.208
-609.215	127.100	0.034	0.043
-608.201	494.711	-0.067	0.155
-607.186	-65.453	-0.229	0.093
-606.171	116.076	-0.131	0.161
-605.157	25.755	-0.007	0.006
-604.142	35.288	-0.139	0.122
-603.128	223.348	0.162	0.263
-602.113	140.524	0.224	-0.297
-601.098	158.037	-0.119	0.167
-600.084	268.445	-0.072	0.127
-599.069	-47.308	0.111	0.054
-598.055	693.087	-0.118	-0.313
-597.040	-57.902	-0.207	-0.091
-596.025	-155.199	-0.047	0.003
-595.011	47.907	0.031	-0.029
-593.996	-200.000	0.010	-0.067
-592.982	-197.697	-0.138	0.001
-591.967	-150.980	0.353	0.027
-590.952	800.000	-0.071	-0.257
-589.938	23.987	0.119	0.099
-588.923	9.891	-0.197	0.150
-587.909	395.784	0.152	-0.319
-586.894	800.000	-0.066	-0.255
-585.879	-200.000	0.020	0.353
-584.865	-200.000	-0.006	0.032
-583.850	800.000	-0.060	0.180
-582.836	-200.000	-0.016	0.189
-581.821	305.780	0.123	0.231
-580.806	140.948	0.107	0.142
-579.792	529.655	0.139	-0.331
-578.777	-200.000	-0.010	-0.091
-577.763	-200.000	-0.032	-0.174
-576.748	-81.837	-0.259	-0.085
-575.733	-47.293	-0.238	-0.117
-574.719	292.587	0.099	-0.181
-573.704	-45.828	0.132	-0.065
-572.690	576.411	0.066	-0.163
-571.675	154.610	0.091	-0.126
-570.661	46.624	0.116	-0.108
-569.646	71.922	0.200	0.209
-568.631	59.811	-0.134	-0.133
-567.617	-192.460	-0.299	-0.003
-566.602	-13.614	0.038	-0.025
-565.588	463.691	-0.111	-0.249
-564.573	121.511	0.017	-0.022
-563.558	-47.926	-0.342	0.167
-562.544	-125.542	-0.218	0.033
-561.529	63.774	0.137	0.139
-560.515	-90.910	0.334	-0.097
-559.500	-34.821	-0.272	0.149
-558.485	-97.537	-0.052	0.013
-557.471	99.490	0.069	0.080
-556.456	-200.000	-0.024	-0.497
-555.442	-76.729	0.127	0.045
-554.427	-144.642	-0.185	0.017
-553.412	-64.353	-0.234	-0.096
-552.398	-139.824	0.321	-0.034
-551.383	-200.000	0.035	0.261
-550.369	109.042	0.104	-0.126
-549.354	-155.242	-0.306	-0.020
-548.339	-136.873	-0.199	-0.023
-547.325	-200.000	-0.067	-0.419
-546.310	135.626	-0.162	-0.211
-545.296	-58.394	0.090	0.039
-544.281	50.912	0.069	0.065
-543.266	75.905	0.080	0.085
-542.252	-200.000	-0.021	-0.225
-541.237	-36.011	-0.101	-0.055
-540.223	782.413	-0.057	0.157
-539.208	-200.000	-0.010	0.327
-538.193	245.180	-0.102	-0.172
-537.179	31.111	-0.195	0.168
-536.164	91.451	-0.270	-0.305
-535.150	-79.497	-0.042	0.014
-534.135	-29.590	0.118	0.068
-533.121	-92.339	-0.059	0.017
-532.106	116.908	0.062	-0.076
-531.091	-94.818	0.150	0.041
-530.077	302.277	-0.095	0.177
-529.062	-53.270	0.245	0.113
-528.048	84.508	-0.166	-0.182
-527.033	-97.859	0.197	-0.051
-526.018	800.000	-0.027	-0.113
-525.004	-85.333	-0.276	-0.086
-523.989	-130.259	0.124	0.017
-522.975	-60.133	-0.187	-0.080
-521.960	-2.347	-0.126	0.089
-520.945	-39.220	-0.224	0.118
-519.931	78.195	-0.063	0.067
-518.916	556.881	0.040	-0.097
-517.902	-200.000	-0.049	-0.228
-516.887	-200.000	0.021	-0.287
-515.872	-73.267	0.277	-0.102
-514.858	-200.000	-0.037	-0.273
-513.843	-125.422	-0.091	-0.014
-512.829	-90.861	0.139	0.040
-511.814	-68.746	-0.297	-0.115
-510.799	-73.752	0.079	0.029
-509.785	-170.639	0.249	-0.009
-508.770	-200.000	0.058	0.333
-507.756	-142.375	0.202	0.020
-506.741	188.363	-0.070	0.105
-505.726	-72.398	-0.110	-0.041
-504.712	102.834	0.246	0.290
-503.697	-53.691	0.277	-0.127
-502.683	-38.741	-0.048	0.026
-501.668	800.000	-0.150	0.467
-500.653	-155.331	0.535	0.035
-499.639	-200.000	-0.048	0.275
-498.624	222.170	-0.186	0.300
-497.610	-110.255	-0.307	-0.064
-496.595	-123.621	0.132	0.021
-495.581	577.995	-0.073	-0.179
-494.566	-87.487	0.255	-0.077
-493.551	-182.212	-0.362	0.007
-492.537	-168.515	0.155	0.006
-491.522	141.878	0.093	-0.124
-490.508	-200.000	0.006	0.030
-489.493	-200.000	-0.022	-0.116
-488.478	310.915	-0.036	-0.068
-487.464	-200.000	0.003	0.195
-486.449	147.087	0.180	-0.243
-485.435	800.000	0.101	0.302
-484.420	-89.475	0.212	-0.063
-483.405	-200.000	-0.015	0.201
-482.391	-66.015	-0.284	-0.114
-481.376	-135.067	-0.151	-0.018
-480.362	800.000	0.029	0.103
-479.347	-48.172	-0.134	0.065
-478.332	-29.425	0.032	0.018
-477.318	-57.453	0.304	-0.134
-476.303	168.233	0.070	-0.100
-475.289	70.686	-0.358	0.372
-474.274	-108.576	-0.218	0.047
-473.259	-200.000	-0.064	-0.314
-472.245	601.878	0.110	0.273
-471.230	27.177	-0.117	-0.099
-470.216	-29.558	-0.212	0.122
-469.201	-60.419	0.284	-0.121
-468.186	82.829	-0.118	-0.129
-467.172	259.957	0.206	-0.357
-466.157	-7.876	0.217	-0.146
-465.143	-200.000	-0.044	0.286
-464.128	-142.652	-0.144	0.014
-463.113	495.091	0.093	-0.214
-462.099	361.976	0.068	0.136
-461.084	-151.428	0.056	-0.004
-460.070	-200.000	-0.028	0.360
-459.055	800.000	0.017	0.074
-458.040	674.263	0.070	-0.183
-457.026	-200.000	0.071	-0.376
-456.011	332.002	0.090	-0.174
-454.997	-200.000	-0.004	-0.266
-453.982	7.016	-0.208	-0.156
-452.968	-160.695	-0.222	0.012
-451.953	-52.502	-0.188	-0.087
-450.938	800.000	0.079	-0.317
-449.924	-200.000	-0.026	0.236
-448.909	-24.543	-0.074	0.044
-447.895	-100.167	-0.383	-0.095
-446.880	-40.801	0.176	0.091
-445.865	-27.624	0.172	0.100
-444.851	-32.928	-0.133	0.074
-443.836	-200.000	-0.047	-0.212
-442.822	-61.498	0.202	-0.085
-441.807	120.696	0.115	-0.143
-440.792	2.008	0.115	-0.083
-439.778	-200.000	-0.004	-0.129
-438.763	-50.893	0.091	-0.043
-437.749	800.000	0.110	0.354
-436.734	-12.848	0.196	-0.128
-435.719	-92.165	0.101	0.028
-434.705	62.788	-0.234	-0.234
-433.690	-83.670	-0.061	-0.019
-432.676	101.668	-0.128	-0.149
-431.661	-200.000	0.002	-0.061
-430.646	-116.756	0.114	0.021
-429.632	-200.000	0.012	0.170
-428.617	-85.025	-0.266	0.083
-427.603	-15.418	-0.190	-0.121
-426.588	-170.746	-0.117	-0.004
-425.573	-200.000	-0.018	0.320
-424.559	577.711	-0.074	0.181
-423.544	-77.040	-0.023	-0.008
-422.530	-79.848	-0.259	-0.087
-421.515	563.485	0.067	0.162
-420.500	800.000	-0.059	-0.186
-419.486	303.302	-0.110	-0.203
-418.471	-111.578	0.219	-0.044
-417.457	440.712	-0.038	0.082
-416.442	-99.123	0.287	-0.073
-415.428	-128.241	-0.289	0.041
-414.413	-37.536	-0.229	0.122
-413.398	-66.184	-0.245	0.098
-412.384	-103.685	0.399	0.094
-411.369	149.163	0.168	0.227
-410.355	51.662	-0.194	-0.184
-409.340	96.272	-0.153	0.175
-408.325	-2.362	0.199	-0.140
-407.311	-75.228	-0.130	-0.046
-406.296	-200.000	-0.049	-0.265
-405.282	-57.558	0.016	0.007
-404.267	-200.000	0.024	0.115
-403.252	78.830	0.063	-0.068
-402.238	-200.000	0.003	0.148
-401.223	268.251	0.080	-0.141
-400.209	-43.352	0.039	-0.020
-399.194	17.696	-0.063	-0.050
-398.179	107.884	-0.144	-0.171
-397.165	-200.000	-0.003	0.149
-396.150	110.819	-0.257	0.309
-395.136	513.635	-0.116	-0.269
-394.121	800.000	0.012	-0.040
-393.106	800.000	0.023	-0.071
-392.092	-93.096	-0.042	-0.012
-391.077	436.941	-0.066	-0.143
-390.063	23.261	-0.135	0.111
-389.048	87.549	0.183	-0.202
-388.033	-102.434	0.300	0.072
-387.019	11.878	0.308	-0.236
-386.004	-118.874	-0.282	0.050
-384.990	151.816	0.127	0.174
-383.975	-42.253	-0.145	0.074
-382.960	113.786	-0.113	-0.137
-381.946	29.091	0.491	-0.416
-380.931	-63.777	-0.249	-0.102
-379.917	17.571	0.243	0.193
-378.902	-4.881	-0.154	-0.106
-377.888	106.014	-0.186	-0.220
-376.873	-7.198	0.298	0.201
-375.858	-109.664	0.051	-0.011
-374.844	800.000	0.110	0.346
-373.829	-95.258	0.313	0.084
-372.815	-60.877	0.231	-0.097
-371.800	-200.000	0.009	0.092
-370.785	-88.491	-0.270	0.080
-369.771	335.555	-0.009	0.018
-368.756	-53.703	0.148	0.068
-367.742	-200.000	0.022	0.230
-366.727	-166.198	-0.249	-0.011
-365.712	17.932	-0.144	-0.114
-364.698	177.322	0.051	0.074
-363.683	-95.769	0.139	-0.037
-362.669	-24.837	0.218	0.129
-361.654	-200.000	0.027	0.152
-360.639	-140.527	-0.256	-0.027
-359.625	-93.492	-0.124	0.034
-358.610	123.221	0.163	-0.204
-357.596	-53.049	0.081	0.037
-356.581	-54.828	-0.529	-0.238
-355.566	48.753	-0.249	0.233
-354.552	118.714	0.193	0.238
-353.537	188.385	0.270	0.402
-352.523	106.393	0.117	-0.138
-351.508	39.022	0.185	0.165
-350.493	800.000	-0.117	-0.387
-349.479	-200.000	-0.008	0.125
-348.464	88.147	-0.107	0.119
-347.450	-127.379	0.346	0.050
-346.435	-200.000	-0.042	0.321
-345.420	-41.271	0.182	-0.094
-344.406	276.688	-0.016	0.028
-343.391	-78.083	0.403	0.138
-342.377	-136.826	0.268	-0.031
-341.362	-134.428	-0.390	0.048
-340.348	-172.753	-0.224	0.007
-339.333	-107.382	-0.381	0.083
-338.318	467.846	0.152	-0.339
-337.304	126.240	0.065	-0.082
-336.289	-36.428	0.142	-0.076
-335.275	-147.144	0.186	0.016
-334.260	296.619	0.090	0.164
-333.245	64.766	0.251	0.253
-332.231	124.421	0.019	0.023
-331.216	-89.881	0.339	0.099
-330.202	25.127	-0.055	-0.045
-329.187	-155.945	-0.161	0.010
-328.172	-108.308	-0.221	-0.047
-327.158	-200.000	0.016	0.092
-326.143	-200.000	-0.021	0.107
-325.129	-130.609	-0.193	0.026
-324.114	-13.667	0.144	-0.093
-323.099	124.167	-0.178	-0.222
-322.085	111.467	0.131	0.157
-321.070	6.640	0.080	0.059
-320.056	-200.000	-0.006	-0.377
-319.041	98.567	0.133	0.153
-318.026	-200.000	-0.008	0.154
-317.012	800.000	-0.051	0.160
-315.997	5.526	0.137	0.100
-314.983	-200.000	-0.003	-0.142
-313.968	-148.053	-0.384	-0.032
-312.953	-200.000	-0.027	-0.161
-311.939	-53.624	-0.024	0.011
-310.924	-200.000	-0.031	0.179
-309.910	-85.309	0.398	0.124
-308.895	-6.307	0.197	0.134
-307.880	-163.223	0.236	0.011
-306.866	29.770	0.054	-0.046
-305.851	-116.627	-0.202	-0.037
-304.837	43.883	-0.174	-0.159
-303.822	-146.241	0.226	0.020
-302.807	193.364	0.043	-0.065
-301.793	47.004	0.199	0.184
-300.778	129.471	-0.053	0.067
-299.764	-156.248	0.083	-0.005
-298.749	181.372	-0.053	0.077
-297.735	162.493	0.157	-0.219
-296.720	-85.694	0.049	-0.015
-295.705	-105.234	-0.069	0.016
-294.691	-10.306	-0.303	-0.200
-293.676	534.644	0.104	-0.245
-292.662	522.071	0.044	-0.103
-291.647	-200.000	-0.003	0.185
-290.632	800.000	-0.116	0.453
-289.618	-121.922	0.517	0.085
-288.603	609.380	0.185	-0.460
-287.589	-89.325	-0.484	0.142
-286.574	-200.000	-0.014	-0.075
-285.559	-21.077	0.111	0.068
-284.545	28.144	-0.102	-0.086
-283.530	-200.000	-0.021	-0.149
-282.516	-42.917	-0.205	-0.103
-281.501	312.826	0.082	-0.154
-280.486	-181.252	-0.258	-0.005
-279.472	-200.000	-0.055	0.258
-278.457	100.237	-0.147	0.169
-277.443	-200.000	0.016	0.070
-276.428	36.282	0.197	0.173
-275.413	41.763	-0.122	-0.110
-274.399	24.191	0.228	0.187
-273.384	-200.000	0.004	-0.288
-272.370	-39.799	-0.185	0.096
-271.355	-138.442	-0.347	0.038
-270.340	-200.000	0.018	-0.114
-269.326	-200.000	-0.048	0.465
-268.311	242.149	0.140	0.232
-267.297	-188.092	0.082	0.001
-266.282	188.245	0.143	-0.213
-265.267	166.454	0.217	-0.306
-264.253	22.264	-0.430	-0.349
-263.238	-89.306	0.367	0.108
-262.224	47.315	0.121	-0.112
-261.209	37.318	-0.157	-0.138
-260.195	463.007	0.028	-0.063
-259.180	-144.575	-0.267	-0.024
-258.165	-200.000	0.055	-0.269
-257.151	800.000	-0.111	0.435
-256.136	-29.919	0.202	0.115
-255.122	800.000	-0.024	-0.084
-254.107	-31.092	-0.273	-0.153
-253.092	-83.084	-0.162	0.052
-252.078	143.264	0.146	-0.193
-251.063	36.787	0.134	-0.118
-250.049	31.423	-0.225	0.192
-249.034	-200.000	-0.029	-0.141
-248.019	64.150	-0.069	-0.069
-247.005	134.403	-0.225	0.290
-245.990	800.000	0.114	0.462
-244.976	405.651	-0.091	0.190
-243.961	495.966	0.093	0.212
-242.946	-161.724	0.079	0.004
-241.932	-200.000	-0.032	-0.207
-240.917	800.000	-0.091	-0.276
-239.903	7.250	-0.167	-0.124
-238.888	465.174	-0.056	0.125
-237.873	299.359	-0.169	-0.309
-236.859	17.504	-0.114	-0.090
-235.844	118.769	0.114	0.140
-234.830	49.135	0.027	-0.025
-233.815	-13.186	0.150	0.097
-232.800	-122.310	0.232	-0.038
-231.786	344.800	-0.046	0.091
-230.771	-200.000	-0.007	-0.247
-229.757	326.932	-0.103	-0.196
-228.742	-200.000	-0.026	0.352
-227.727	-27.807	0.032	0.019
-226.713	-21.490	-0.168	-0.102
-225.698	-144.374	0.454	-0.042
-224.684	-200.000	0.021	-0.294
-223.669	636.838	-0.100	0.253
-222.655	-200.000	-0.013	-0.540
-221.640	-200.000	-0.030	-0.333
-220.625	-57.305	0.178	0.078
-219.611	-14.085	0.108	0.069
-218.596	319.301	0.047	0.089
-217.582	-198.489	-0.150	0.001
-216.567	-118.801	0.139	0.024
-215.552	-200.000	-0.160	-0.001
-214.538	152.096	0.059	0.079
-213.523	168.273	-0.245	0.346
-212.509	-46.728	0.257	0.125
-211.494	576.042	-0.037	-0.090
-210.479	-82.750	-0.115	-0.037
-209.465	800.000	0.012	0.041
-208.450	-111.300	-0.092	-0.019
-207.436	121.186	-0.245	0.302
-206.421	-10.606	0.165	0.108
-205.406	-62.596	0.193	0.079
-204.392	71.645	0.052	-0.054
-203.377	306.315	0.033	0.062
-202.363	40.613	0.141	0.126
-201.348	-34.198	0.174	0.095
-200.333	-115.495	0.210	0.039
-199.319	97.737	0.315	0.360
-198.304	286.865	0.173	0.310
-197.290	361.383	0.178	0.354
-196.275	97.068	-0.269	-0.306
-195.260	-83.953	0.356	-0.112
-194.246	-200.000	-0.005	-0.094
-193.231	-153.557	0.161	-0.011
-192.217	6.705	0.182	0.134
-191.202	51.822	-0.094	0.088
-190.187	439.390	0.222	0.480
-189.173	84.282	-0.291	0.316
-188.158	-98.624	0.134	-0.034
-187.144	216.033	-0.055	-0.087
-186.129	329.315	-0.099	0.188
-185.114	-79.589	-0.187	-0.063
-184.100	91.802	0.121	-0.135
-183.085	-59.415	-0.161	-0.069
-182.071	-200.000	0.000	0.086
-181.056	-164.246	0.012	0.001
-180.042	530.797	-0.151	-0.354
-179.027	-200.000	-0.049	-0.218
-178.012	-67.910	-0.163	0.063
-176.998	-101.711	-0.103	-0.025
-175.983	234.757	-0.131	0.215
-174.969	-104.414	0.154	-0.035
-173.954	-124.056	0.084	-0.013
-172.939	313.334	0.097	0.180
-171.925	-153.288	-0.097	-0.007
-170.910	-114.578	-0.238	-0.045
-169.896	-200.000	0.038	0.401
-168.881	800.000	0.115	0.417
-167.866	-145.448	-0.195	-0.017
-166.852	-119.557	0.334	-0.057
-165.837	-200.000	0.009	0.107
-164.823	-200.000	0.027	0.300
-163.808	-200.000	0.046	-0.214
-162.793	-87.564	0.147	-0.044
-161.779	-4.518	-0.323	-0.221
-160.764	-200.000	0.042	-0.306
-159.750	-200.000	0.005	0.194
-158.735	-200.000	-0.020	0.161
-157.720	-78.931	-0.202	0.068
-156.706	194.728	-0.085	0.128
-155.691	12.112	0.356	-0.272
-154.677	-161.645	-0.276	-0.014
-153.662	273.838	-0.059	-0.103
-152.647	-107.856	-0.094	-0.020
-151.633	-36.436	-0.090	0.048
-150.618	114.891	-0.176	0.212
-149.604	-32.350	-0.305	0.168
-148.589	-49.050	0.221	-0.104
-147.574	0.667	-0.213	0.151
-146.560	-177.878	-0.198	0.005
-145.545	-69.500	-0.142	-0.054
-144.531	19.228	0.170	0.135
-143.516	547.190	0.052	-0.123
-142.502	-95.344	0.045	-0.012
-141.487	129.493	-0.034	0.043
-140.472	-81.313	-0.241	0.079
-139.458	116.663	0.151	0.183
-138.443	-121.547	0.072	-0.012
-137.429	53.738	-0.290	-0.276
-136.414	81.549	-0.038	-0.041
-135.399	-200.000	0.035	0.220
-134.385	-200.000	-0.030	-0.183
-133.370	19.517	0.204	0.162
-132.356	245.802	0.071	0.119
-131.341	161.924	-0.181	0.250
-130.326	36.665	0.169	-0.148
-129.312	96.725	-0.334	-0.378
-128.297	-62.869	-0.134	-0.055
-127.283	-82.047	0.163	0.053
-126.268	-22.032	-0.065	-0.039
-125.253	-200.000	-0.034	-0.363
-124.239	185.048	-0.080	0.117
-123.224	-200.000	-0.001	-0.167
-122.210	-35.054	0.216	0.117
-121.195	-31.637	-0.185	0.103
-120.180	-63.810	0.082	0.033
-119.166	-92.394	-0.311	-0.087
-118.151	213.858	0.185	0.289
-117.137	109.588	0.124	-0.147
-116.122	800.000	0.002	-0.008
-115.107	-200.000	0.022	0.268
-114.093	431.862	0.058	0.124
-113.078	-14.707	-0.228	-0.145
-112.064	-159.594	0.083	0.005
-111.049	333.920	0.095	0.183
-110.034	-128.645	0.212	0.030
-109.020	-70.386	-0.321	-0.120
-108.005	479.671	0.173	0.387
-106.991	524.662	-0.127	-0.296
-105.976	-36.787	0.128	0.068
-104.962	697.039	-0.052	0.135
-103.947	682.432	0.019	-0.048
-102.932	-32.160	-0.256	-0.141
-101.918	-120.745	0.339	0.057
-100.903	-46.962	-0.183	-0.088
-99.889	-200.000	-0.018	0.241
-98.874	-179.924	0.140	-0.003
-97.859	-200.000	0.001	-0.358
-96.845	-18.156	0.233	0.144
-95.830	-84.527	0.201	-0.063
-94.816	-165.700	-0.222	-0.009
-93.801	235.860	-0.123	-0.201
-92.786	573.726	-0.135	0.324
-91.772	176.542	-0.049	0.070
-90.757	-200.000	-0.003	0.227
-89.743	-49.108	0.271	-0.128
-88.728	251.805	0.047	-0.079
-87.713	800.000	-0.133	0.367
-86.699	800.000	0.136	0.376
-85.684	-25.515	-0.141	-0.082
-84.670	30.183	0.122	-0.103
-83.655	44.475	0.169	0.153
-82.640	123.797	0.080	-0.099
-81.626	800.000	0.035	0.150
-80.611	18.900	0.046	-0.036
-79.597	145.444	-0.044	0.058
-78.582	-200.000	0.002	-0.113
-77.567	-98.981	0.225	-0.056
-76.553	-91.301	-0.171	-0.048
-75.538	231.428	-0.180	-0.291
-74.524	800.000	-0.044	-0.157
-73.509	55.742	0.182	-0.174
-72.494	134.608	0.142	-0.182
-71.480	-124.753	-0.106	0.016
-70.465	731.873	0.073	0.192
-69.451	489.308	0.043	-0.097
-68.436	-77.899	0.109	-0.037
-67.422	800.000	-0.040	0.160
-66.407	-71.522	0.214	-0.079
-65.392	-47.439	-0.102	-0.049
-64.378	-27.925	-0.135	-0.077
-63.363	-114.084	0.593	0.113
-62.349	109.270	-0.163	-0.193
-61.334	84.391	-0.732	-0.790
-60.319	202.171	0.232	0.353
-59.305	-200.000	-0.144	-0.624
-58.290	132.792	0.631	0.803
-57.276	800.000	0.471	1.305
-56.261	-200.000	97.159	574.835
-55.246	646.404	1389.465	3500.090
-54.232	186.559	2613.079	3836.534
-53.217	116.340	2305.680	2786.466
-52.203	44.392	1918.096	1736.771
-51.188	37.965	1705.459	1495.115
-50.173	35.138	1660.352	1434.387
-49.159	52.594	1708.958	1609.306
-48.144	56.057	1727.096	1652.596
-47.130	37.630	1682.849	1472.532
-46.115	34.711	1667.775	1437.354
-45.100	34.498	1663.146	1431.713
-44.086	34.491	1660.043	1428.926
-43.071	34.519	1657.467	1426.862
-42.057	34.547	1654.971	1424.866
-41.042	34.578	1652.929	1423.285
-40.027	34.533	1651.261	1421.458
-39.013	34.412	1649.304	1418.819
-37.998	34.455	1647.609	1417.620
-36.984	34.363	1646.890	1416.262
-35.969	34.640	1644.691	1416.369
-34.954	34.644	1643.132	1415.002
-33.940	34.579	1641.359	1412.935
-32.925	34.616	1639.318	1411.396
-31.911	34.607	1637.616	1409.807
-30.896	34.537	1636.227	1408.044
-29.881	34.588	1634.273	1406.677
-28.867	34.680	1632.308	1405.611
-27.852	34.600	1631.244	1404.049
-26.838	34.655	1629.187	1402.628
-25.823	34.620	1628.319	1401.568
-24.809	34.684	1626.667	1400.562
-23.794	34.690	1625.278	1399.354
-22.779	34.780	1623.483	1398.408
-21.765	34.606	1622.271	1396.041
-20.750	34.622	1620.741	1394.785
-19.736	34.702	1619.242	1394.017
-18.721	34.777	1617.792	1393.262
-17.706	34.681	1616.298	1391.224
-16.692	34.587	1614.474	1388.914
-15.677	34.540	1613.476	1387.660
-14.663	34.685	1611.371	1386.845
-13.648	34.691	1609.884	1385.554
-12.633	34.621	1608.978	1384.215
-11.619	34.617	1607.245	1382.634
-10.604	34.790	1605.261	1382.128
-9.590	34.798	1603.583	1380.684
-8.575	34.777	1602.421	1379.478
-7.560	34.609	1601.887	1377.749
-6.546	34.598	1600.920	1376.784
-5.531	34.665	1599.584	1376.062
-4.517	34.731	1598.031	1375.151
-3.502	34.700	1597.192	1374.149
-2.487	34.779	1595.365	1373.091
-1.473	34.602	1584.847	1362.722
-0.458	31.922	1565.181	1326.829
0.556	30.403	1564.479	1290.617
1.571	27.586	1587.574	1289.655
2.586	26.290	1600.319	1290.640
3.600	23.014	1545.639	1223.794
4.615	14.081	1435.790	1079.001
5.629	6.266	1369.997	980.903
6.644	4.780	1360.982	965.156
7.659	4.696	1360.111	963.932
8.673	4.901	1358.911	964.269
9.688	4.853	1357.456	962.854
10.702	4.851	1354.839	960.897
11.717	8.615	1362.258	989.385
12.731	17.410	1377.938	1055.480
13.746	22.531	1385.789	1093.260
14.761	22.583	1384.665	1092.600
15.775	21.726	1382.388	1085.401
16.790	20.706	1379.934	1077.070
17.804	19.921	1377.536	1070.246
18.819	19.595	1376.149	1067.062
19.834	19.480	1375.188	1065.516
20.848	19.406	1374.296	1064.268
21.863	19.071	1372.856	1060.995
22.877	18.873	1372.056	1059.064
23.892	18.954	1370.850	1058.538
24.907	18.847	1369.899	1057.053
25.921	18.854	1369.041	1056.339
26.936	18.891	1368.653	1056.176
27.950	19.086	1366.953	1055.968
28.965	19.123	1365.943	1055.320
29.980	19.189	1365.294	1055.126
30.994	19.178	1364.291	1054.190
32.009	19.397	1363.022	1054.458
33.023	19.362	1361.813	1053.219
34.038	19.152	1360.454	1050.789
35.053	19.157	1359.318	1049.852
36.067	19.056	1358.372	1048.414
37.082	19.146	1357.168	1047.935
38.096	19.184	1356.184	1047.315
39.111	19.203	1355.414	1046.744
40.126	19.116	1354.096	1045.105
41.140	18.827	1353.473	1042.781
42.155	18.688	1352.859	1041.371
43.169	18.606	1352.889	1040.803
44.184	18.663	1352.455	1040.721
45.199	18.714	1352.222	1040.758
46.213	18.854	1351.338	1040.836
47.228	18.974	1350.795	1041.051
48.242	19.031	1349.979	1040.675
49.257	19.035	1347.999	1039.084
50.271	18.979	1346.667	1037.625
51.286	19.102	1345.099	1037.067
52.301	19.071	1343.961	1035.912
53.315	18.914	1343.141	1034.245
54.330	18.727	1342.160	1032.268
55.344	18.658	1340.968	1030.846
56.359	18.737	1339.583	1030.166
57.374	18.638	1338.989	1029.027
58.388	18.664	1338.175	1028.462
59.403	18.562	1337.839	1027.504
60.417	18.603	1336.645	1026.740
61.432	18.661	1335.859	1026.393
62.447	18.520	1334.722	1024.586
63.461	18.450	1333.685	1023.284
64.476	18.459	1332.333	1022.205
65.490	18.418	1331.644	1021.342
66.505	18.391	1330.179	1019.971
67.520	18.541	1328.973	1019.845
68.534	18.503	1327.764	1018.605
69.549	18.492	1326.725	1017.650
70.563	18.391	1325.621	1016.116
71.578	18.300	1324.762	1014.826
72.593	18.329	1323.411	1013.874
73.607	18.256	1323.005	1013.040
74.622	18.193	1322.603	1012.273
75.636	18.207	1321.995	1011.797
76.651	18.389	1320.594	1011.713
77.666	18.390	1320.377	1011.463
78.680	18.491	1319.779	1011.510
79.695	18.406	1319.683	1010.848
80.709	18.558	1319.059	1011.176
81.724	18.675	1317.912	1010.898
82.739	18.749	1317.054	1010.581
83.753	18.870	1316.394	1010.699
84.768	19.070	1315.215	1010.877
85.782	19.047	1314.493	1010.103
86.797	19.116	1313.300	1009.498
87.812	19.074	1312.105	1008.243
88.826	19.049	1310.695	1006.926
89.841	19.069	1309.905	1006.344
90.855	19.115	1309.177	1005.964
91.870	19.146	1308.569	1005.591
92.884	19.235	1306.866	1004.712
93.899	19.120	1306.790	1003.895
94.914	19.268	1305.842	1003.942
95.928	19.334	1304.690	1003.348
96.943	19.159	1304.263	1001.915
97.957	19.231	1302.931	1001.222
98.972	19.169	1301.996	1000.055
99.987	19.183	1301.127	999.379
101.001	19.146	1300.117	998.300
102.016	19.106	1299.236	997.302
103.030	19.180	1298.313	996.934
104.045	19.107	1297.449	995.761
105.060	19.022	1296.106	994.154
106.074	18.914	1294.473	992.189
107.089	18.505	1293.369	988.894
108.103	18.432	1291.587	987.023
109.118	18.518	1290.282	986.436
110.133	18.437	1289.308	985.140
111.147	18.466	1287.830	984.088
112.162	18.536	1286.776	983.598
113.176	18.679	1285.738	983.537
114.191	18.677	1285.223	983.043
115.206	18.688	1283.854	981.975
116.220	18.686	1282.631	980.938
117.235	18.617	1281.711	979.753
118.249	18.566	1280.732	978.626
119.264	18.494	1279.724	977.359
120.279	18.487	1278.477	976.281
121.293	18.518	1277.174	975.375
122.308	18.307	1276.417	973.512
123.322	18.248	1275.211	972.174
124.337	18.303	1274.584	971.919
125.352	18.267	1273.396	970.723
126.366	18.392	1271.805	970.134
127.381	18.362	1270.900	969.185
128.395	18.355	1269.925	968.321
129.410	18.310	1269.461	967.623
130.424	18.393	1268.958	967.623
131.439	18.616	1267.488	967.676
132.454	18.679	1266.569	967.244
133.468	18.634	1265.796	966.317
134.483	18.621	1265.223	965.718
135.497	18.626	1264.046	964.766
136.512	18.683	1262.834	964.074
137.527	18.778	1261.541	963.534
138.541	18.741	1260.515	962.457
139.556	18.809	1259.243	961.784
140.570	18.814	1258.158	960.897
141.585	18.995	1257.114	961.027
142.600	19.043	1256.231	960.533
143.614	19.164	1255.474	960.546
144.629	19.207	1254.227	959.742
145.643	19.247	1252.975	958.926
146.658	19.128	1251.466	957.021
147.673	18.901	1250.121	954.651
148.687	18.751	1249.006	952.882
149.702	18.727	1247.427	951.458
150.716	18.688	1246.080	950.131
151.731	18.663	1245.097	949.161
152.746	18.779	1243.962	948.851
153.760	18.804	1242.716	947.952
154.775	18.922	1241.453	947.560
155.789	18.958	1240.725	947.115
156.804	18.992	1240.118	946.759
157.819	18.968	1239.620	946.162
158.833	19.081	1238.410	945.777
159.848	19.163	1237.556	945.490
160.862	19.149	1236.717	944.689
161.877	19.011	1234.980	942.524
162.892	18.701	1234.126	940.087
163.906	18.659	1233.269	939.125
164.921	18.747	1232.250	938.746
165.935	18.770	1231.550	938.251
166.950	18.896	1230.713	938.223
167.964	18.938	1230.185	937.963
168.979	18.831	1229.600	936.851
169.994	18.905	1228.544	936.366
171.008	18.931	1227.884	935.922
172.023	19.060	1227.111	935.954
173.037	19.235	1226.194	936.125
174.052	19.168	1225.753	935.341
175.067	18.859	1224.513	932.632
176.081	18.729	1223.310	930.931
177.096	18.825	1222.214	930.534
178.110	18.839	1221.153	929.717
179.125	18.842	1219.955	928.739
180.140	19.015	1218.866	928.762
181.154	18.953	1218.123	927.782
182.169	19.103	1216.963	927.623
183.183	19.232	1215.911	927.432
184.198	19.300	1214.399	926.563
185.213	19.228	1213.515	925.419
186.227	19.276	1212.470	924.801
187.242	19.323	1211.508	924.234
188.256	19.291	1210.907	923.524
189.271	19.474	1209.902	923.658
190.286	19.264	1208.399	921.304
191.300	18.877	1207.192	918.234
192.315	18.669	1206.440	916.473
193.329	18.899	1205.621	916.996
194.344	18.888	1205.547	916.796
195.359	19.050	1205.053	917.204
196.373	19.128	1204.755	917.315
197.388	19.285	1204.139	917.601
198.402	19.310	1204.463	917.896
199.417	19.472	1203.823	918.191
200.432	19.653	1202.996	918.441
201.446	19.691	1202.027	917.822
202.461	19.732	1201.396	917.479
203.475	19.782	1200.185	916.733
204.490	19.613	1198.672	914.603
205.504	19.364	1197.787	912.530
206.519	19.340	1196.202	911.114
207.534	19.239	1195.074	909.642
208.548	19.292	1194.424	909.345
209.563	19.367	1193.294	908.800
210.577	19.271	1192.915	907.927
211.592	19.449	1191.925	908.031
212.607	19.546	1191.304	907.987
213.621	19.566	1190.505	907.401
214.636	19.561	1189.320	906.394
215.650	19.524	1188.685	905.636
216.665	19.680	1188.030	905.874
217.680	19.793	1186.886	905.511
218.694	19.909	1185.998	905.361
219.709	19.772	1184.989	903.795
220.723	19.816	1184.200	903.346
221.738	19.784	1183.614	902.648
222.753	19.618	1183.294	901.458
223.767	19.854	1182.072	901.676
224.782	19.831	1181.686	901.184
225.796	19.901	1181.392	901.247
226.811	19.936	1180.716	900.829
227.826	19.617	1179.988	898.539
228.840	19.753	1178.851	898.300
229.855	19.566	1178.433	896.930
230.869	19.628	1177.597	896.538
231.884	19.669	1175.991	895.446
232.899	19.580	1175.509	894.537
233.913	19.484	1174.782	893.410
234.928	19.412	1174.158	892.485
235.942	19.382	1173.450	891.714
236.957	19.476	1172.189	891.161
237.972	19.453	1171.420	890.380
238.986	19.492	1170.941	890.137
240.001	19.534	1170.289	889.780
241.015	19.636	1169.287	889.463
242.030	19.730	1168.378	889.178
243.045	19.655	1168.426	888.746
244.059	19.706	1167.522	888.242
245.074	19.818	1166.314	887.822
246.088	19.796	1166.131	887.491
247.103	19.926	1165.370	887.500
248.117	20.075	1164.541	887.554
249.132	20.206	1164.067	887.784
250.147	20.434	1163.377	888.343
251.161	20.443	1163.029	888.046
252.176	20.468	1162.153	887.425
253.190	20.461	1161.795	887.038
254.205	20.540	1160.941	886.710
255.220	20.548	1160.574	886.393
256.234	20.558	1159.812	885.783
257.249	20.702	1158.818	885.678
258.263	20.455	1158.626	884.198
259.278	20.559	1157.571	883.844
260.293	20.536	1157.541	883.626
261.307	20.679	1156.559	883.524
262.322	20.652	1156.135	882.986
263.336	20.716	1155.396	882.664
264.351	20.738	1154.838	882.275
265.366	20.769	1154.115	881.800
266.380	20.863	1153.334	881.602
267.395	20.607	1152.872	879.873
268.409	20.516	1151.829	878.540
269.424	20.518	1151.262	878.042
270.439	20.546	1150.383	877.435
271.453	20.501	1149.547	876.491
272.468	20.436	1148.650	875.401
273.482	20.493	1147.574	874.795
274.497	20.425	1147.355	874.207
275.512	20.520	1146.669	874.081
276.526	20.460	1145.741	872.996
277.541	20.464	1145.009	872.384
278.555	20.650	1144.010	872.476
279.570	20.621	1144.066	872.299
280.585	20.730	1143.199	872.104
281.599	20.760	1142.290	871.482
282.614	20.658	1141.050	869.952
283.628	20.594	1140.410	869.066
284.643	20.646	1139.033	868.198
285.657	20.581	1138.231	867.188
286.672	20.566	1137.523	866.497
287.687	20.659	1136.554	866.146
288.701	20.696	1135.701	865.604
289.716	20.643	1134.957	864.693
290.730	20.644	1134.103	863.971
291.745	20.702	1133.595	863.798
292.760	20.746	1132.960	863.457
293.774	20.817	1132.561	863.429
294.789	20.832	1132.336	863.252
295.803	21.021	1131.176	863.226
296.818	20.816	1130.297	861.468
297.833	20.690	1129.481	860.147
298.847	20.718	1128.769	859.666
299.862	20.757	1128.156	859.316
300.876	20.692	1127.711	858.578
301.891	20.831	1126.684	858.405
302.906	21.094	1126.166	859.232
303.920	21.065	1125.865	858.785
304.935	21.135	1125.275	858.603
305.949	21.316	1124.366	858.722
306.964	21.261	1123.607	857.796
307.979	21.146	1122.849	856.577
308.993	21.051	1122.148	855.498
310.008	21.118	1121.806	855.491
311.022	21.165	1121.261	855.232
312.037	21.176	1119.862	854.143
313.052	21.025	1118.769	852.495
314.066	20.989	1117.726	851.448
315.081	20.821	1116.657	849.739
316.095	20.796	1116.404	849.352
317.110	20.712	1115.498	848.175
318.125	20.823	1114.708	848.043
319.139	20.870	1114.163	847.779
320.154	20.844	1113.353	846.962
321.168	20.938	1112.713	846.859
322.183	20.829	1112.411	846.023
323.197	20.885	1111.886	845.823
324.212	20.869	1111.202	845.147
325.227	20.970	1110.684	845.168
326.241	21.039	1110.203	845.063
327.256	20.992	1108.906	843.776
328.270	20.890	1108.356	842.788
329.285	20.796	1107.335	841.484
330.300	20.904	1106.319	841.158
331.314	20.979	1105.744	841.008
332.329	20.843	1104.846	839.594
333.343	20.956	1103.924	839.362
334.358	21.137	1103.085	839.520
335.373	21.143	1102.631	839.130
336.387	21.122	1101.906	838.402
337.402	21.245	1100.683	837.989
338.416	21.269	1100.467	837.865
339.431	21.322	1100.363	837.968
340.446	21.367	1099.566	837.503
341.460	21.501	1098.850	837.522
342.475	21.543	1098.214	837.164
343.489	21.728	1097.063	837.098
344.504	21.724	1096.264	836.397
345.519	21.702	1095.571	835.688
346.533	21.679	1094.854	834.956
347.548	21.877	1093.974	835.153
348.562	21.835	1093.144	834.248
349.577	21.596	1091.949	832.128
350.592	21.409	1091.640	830.929
351.606	21.423	1090.461	830.024
352.621	21.368	1089.612	829.043
353.635	21.159	1089.243	827.700
354.650	21.286	1088.554	827.701
355.665	21.380	1088.042	827.685
356.679	21.480	1087.199	827.442
357.694	21.536	1086.951	827.448
358.708	21.690	1085.982	827.361
359.723	21.685	1085.628	826.997
360.738	21.533	1084.935	825.680
361.752	21.562	1084.354	825.302
362.767	21.620	1083.569	824.903
363.781	21.660	1083.124	824.679
364.796	21.786	1082.712	824.885
365.810	21.872	1082.457	825.021
366.825	22.016	1081.879	825.184
367.840	21.993	1081.382	824.628
368.854	22.077	1080.906	824.584
369.869	22.073	1079.872	823.703
370.883	22.083	1078.904	822.940
371.898	22.003	1077.805	821.654
372.913	21.891	1077.585	820.888
373.927	21.979	1077.144	820.891
374.942	22.076	1076.711	820.944
375.956	22.017	1076.323	820.297
376.971	22.056	1075.205	819.554
377.986	22.121	1074.837	819.509
379.000	22.171	1074.427	819.356
380.015	22.252	1073.838	819.212
381.029	22.271	1073.231	818.762
382.044	22.365	1072.364	818.465
383.059	22.366	1071.786	817.960
384.073	22.252	1071.002	816.757
385.088	22.236	1069.912	815.778
386.102	22.378	1068.999	815.669
387.117	22.133	1067.862	813.598
388.132	21.929	1066.936	811.874
389.146	21.937	1066.036	811.153
390.161	21.988	1065.548	810.945
391.175	21.950	1064.987	810.271
392.190	21.986	1064.711	810.157
393.205	22.278	1063.748	810.700
394.219	22.264	1062.942	809.949
395.234	22.098	1062.031	808.420
396.248	22.069	1061.029	807.450
397.263	22.128	1059.614	806.576
398.278	22.100	1059.009	805.913
399.292	21.973	1057.972	804.469
400.307	21.878	1057.722	803.773
401.321	21.743	1057.408	802.846
402.336	21.842	1056.384	802.450
403.350	21.909	1055.529	802.038
404.365	21.873	1055.126	801.495
405.380	22.060	1054.342	801.681
406.394	22.100	1053.807	801.387
407.409	22.231	1052.874	801.202
408.423	22.429	1052.307	801.603
409.438	22.437	1051.927	801.281
410.453	22.445	1051.896	801.222
411.467	22.505	1050.811	800.598
412.482	22.596	1050.069	800.372
413.496	22.753	1049.241	800.384
414.511	22.796	1048.518	799.955
415.526	22.842	1048.326	799.947
416.540	22.916	1047.853	799.852
417.555	22.864	1047.559	799.319
418.569	22.743	1046.791	798.113
419.584	22.709	1046.312	797.526
420.599	22.621	1045.873	796.722
421.613	154.286	1400.755	1788.931
422.628	141.392	1452.458	1789.016
