DTS Sentinel unit serial number:	SN413079Multiplexer serial number:	ORYXHardware model number:	OX4-SRSoftware version number:	ORYX F/W v4.00 Oryx Data Collector v3.7.2.0data status	okinstallation	princeton_trtdifferential loss correction	single-endedforward channel	channel 2reverse channel	N/Adate	2019/09/14time	23:07:35forward acquisition time	60.00reverse acquisition time	0.00gamma	496.2192k internal	0.2324k external	0.2324temperature offset calibration	1.0056default loss term (dB/km)	0.3790temperature slope calibration	1.0000multiplexer offset coefficient	1.0000multiplexer slope coefficient	1.0000fibre end	0.00T internal ref (°C)	32.44T ext. ref 1 (°C)	4.68T ext. ref 2 (°C)	27.40length (m)	temperature (°C)	Stokes	anti-Stokes-747.200	-26.632	-0.108	0.064
-746.185	800.000	-0.129	0.473
-745.171	7.977	0.189	-0.143
-744.156	-79.544	0.291	0.099
-743.142	-147.719	0.093	-0.008
-742.127	-200.000	0.035	0.309
-741.112	225.163	-0.171	-0.280
-740.098	-200.000	0.018	-0.152
-739.083	-23.165	0.218	0.132
-738.069	153.370	-0.254	0.351
-737.054	-104.176	0.209	-0.049
-736.039	-109.991	-0.125	0.026
-735.025	-200.000	0.027	0.324
-734.010	-200.000	0.073	-0.398
-732.996	-136.584	-0.372	-0.043
-731.981	48.623	-0.292	-0.277
-730.966	-123.833	0.347	0.055
-729.952	-154.471	-0.213	0.014
-728.937	-64.911	-0.282	-0.115
-727.923	-200.000	0.049	-0.247
-726.908	52.515	-0.144	0.139
-725.894	62.821	-0.071	-0.071
-724.879	-17.884	-0.173	-0.109
-723.864	292.891	0.019	0.034
-722.850	267.115	0.117	0.207
-721.835	-78.894	-0.256	0.088
-720.821	432.110	-0.105	-0.230
-719.806	-88.442	-0.182	-0.055
-718.791	800.000	-0.099	-0.390
-717.777	319.932	-0.183	-0.351
-716.762	-14.918	0.114	-0.073
-715.748	782.294	-0.109	0.300
-714.733	32.979	0.178	0.156
-713.718	127.133	0.287	0.367
-712.704	473.780	0.017	-0.038
-711.689	556.124	0.118	-0.288
-710.675	-145.421	0.138	-0.012
-709.660	-135.293	-0.347	0.042
-708.645	-29.842	-0.233	0.134
-707.631	18.928	-0.062	0.050
-706.616	-79.943	0.427	-0.145
-705.602	544.266	-0.090	-0.216
-704.587	-25.238	-0.371	-0.221
-703.572	1.713	-0.275	0.200
-702.558	-90.120	0.017	-0.005
-701.543	137.719	0.093	0.123
-700.529	552.431	0.073	0.176
-699.514	-24.253	0.359	0.216
-698.499	20.064	-0.275	0.224
-697.485	-86.573	-0.209	-0.065
-696.470	-37.273	0.241	-0.130
-695.456	790.555	-0.048	0.132
-694.441	-200.000	-0.020	0.618
-693.426	79.065	-0.184	-0.199
-692.412	509.763	0.052	-0.123
-691.397	156.286	0.044	-0.061
-690.383	7.302	-0.248	-0.187
-689.368	-200.000	-0.024	0.198
-688.354	5.593	0.029	0.022
-687.339	-28.997	-0.612	0.354
-686.324	-200.000	0.034	0.166
-685.310	-147.363	0.228	0.019
-684.295	-195.884	0.129	-0.001
-683.281	-112.482	-0.329	0.066
-682.266	-20.625	0.066	-0.041
-681.251	150.882	0.085	-0.116
-680.237	449.439	0.124	-0.276
-679.222	-200.000	0.031	0.148
-678.208	-5.021	-0.142	0.098
-677.193	-60.327	0.099	0.042
-676.178	800.000	0.032	0.126
-675.164	-77.761	-0.058	0.020
-674.149	-200.000	0.045	0.363
-673.135	-110.971	-0.418	0.087
-672.120	445.516	-0.119	0.263
-671.105	-154.595	-0.184	0.012
-670.091	-139.491	-0.331	-0.036
-669.076	-103.343	0.157	-0.037
-668.062	105.099	-0.225	0.268
-667.047	-57.703	0.046	-0.020
-666.032	209.421	0.167	0.263
-665.018	-200.000	-0.007	-0.127
-664.003	-46.225	-0.292	0.145
-662.989	-21.386	-0.276	0.169
-661.974	-48.978	-0.293	-0.141
-660.959	-166.654	-0.185	0.008
-659.945	-50.863	-0.157	-0.074
-658.930	231.957	-0.189	-0.312
-657.916	-78.854	-0.264	-0.091
-656.901	93.283	0.144	-0.164
-655.886	538.339	0.062	0.148
-654.872	451.565	-0.116	-0.259
-653.857	-24.786	-0.252	-0.150
-652.843	-42.922	0.163	0.083
-651.828	328.809	0.129	0.250
-650.814	-113.404	0.108	0.021
-649.799	-142.126	0.280	-0.028
-648.784	635.524	-0.041	-0.104
-647.770	18.622	-0.189	-0.152
-646.755	-200.000	-0.022	-0.215
-645.741	800.000	-0.031	-0.103
-644.726	380.231	0.083	0.172
-643.711	5.822	-0.239	0.178
-642.697	49.314	-0.160	-0.151
-641.682	-200.000	-0.027	0.161
-640.668	368.178	0.145	0.295
-639.653	-200.000	0.071	0.356
-638.638	-30.629	-0.301	-0.171
-637.624	800.000	0.077	-0.257
-636.609	287.953	0.099	0.181
-635.595	-185.418	-0.200	0.003
-634.580	-200.000	-0.039	-0.315
-633.565	508.602	0.023	-0.054
-632.551	81.646	-0.145	-0.157
-631.536	800.000	0.170	-0.516
-630.522	-147.865	0.330	-0.028
-629.507	-200.000	0.018	-0.346
-628.492	418.344	-0.117	0.252
-627.478	-81.417	0.068	0.023
-626.463	-183.702	-0.287	0.005
-625.449	-168.296	-0.275	0.011
-624.434	162.870	0.267	0.377
-623.419	-55.479	-0.291	0.131
-622.405	2.294	0.128	0.093
-621.390	115.344	0.053	-0.065
-620.376	-6.146	-0.155	0.106
-619.361	-49.981	-0.293	0.140
-618.346	800.000	0.098	-0.369
-617.332	285.791	-0.123	-0.224
-616.317	-47.719	-0.258	-0.126
-615.303	-200.000	-0.025	0.169
-614.288	18.925	0.253	0.204
-613.273	-93.841	-0.331	-0.091
-612.259	181.066	-0.111	0.164
-611.244	446.728	-0.118	0.262
-610.230	-187.752	0.306	0.004
-609.215	-8.519	0.381	-0.257
-608.201	-78.840	-0.193	-0.066
-607.186	187.761	0.168	-0.251
-606.171	25.409	-0.097	0.081
-605.157	800.000	-0.055	-0.204
-604.142	-200.000	-0.017	-0.078
-603.128	173.263	-0.127	-0.185
-602.113	1.007	-0.091	0.065
-601.098	800.000	0.033	-0.112
-600.084	-200.000	-0.043	-0.328
-599.069	-20.019	0.524	-0.325
-598.055	-63.346	-0.313	0.129
-597.040	-126.015	0.098	-0.015
-596.025	-7.981	-0.209	-0.142
-595.011	195.035	-0.081	-0.123
-593.996	107.343	-0.141	-0.168
-592.982	-147.615	-0.189	0.016
-591.967	82.319	0.172	-0.187
-590.952	-200.000	0.043	0.264
-589.938	-43.776	0.323	0.163
-588.923	-153.215	0.264	0.019
-587.909	-62.117	0.444	-0.186
-586.894	-33.078	-0.286	-0.159
-585.879	-98.661	0.176	0.045
-584.865	70.498	0.090	-0.093
-583.850	-200.000	0.014	0.231
-582.836	-200.000	-0.021	0.119
-581.821	65.869	0.117	0.119
-580.806	-29.902	0.149	-0.085
-579.792	-58.881	0.170	-0.074
-578.777	191.995	-0.237	-0.359
-577.763	161.777	-0.091	0.127
-576.748	-78.054	-0.204	0.070
-575.733	-200.000	-0.027	0.364
-574.719	77.506	0.254	-0.271
-573.704	800.000	-0.068	-0.196
-572.690	506.989	0.103	0.239
-571.675	-22.146	-0.038	0.023
-570.661	-200.000	0.029	0.263
-569.646	-22.931	0.461	-0.279
-568.631	-200.000	-0.002	-0.144
-567.617	-93.556	-0.340	-0.094
-566.602	-82.857	-0.172	0.056
-565.588	-101.059	0.052	0.013
-564.573	-116.041	-0.357	-0.067
-563.558	-82.757	0.142	0.046
-562.544	-124.427	-0.033	-0.005
-561.529	-154.723	-0.423	-0.028
-560.515	-157.885	-0.388	-0.023
-559.500	800.000	0.011	-0.043
-558.485	611.123	-0.143	0.359
-557.471	-200.000	-0.088	0.458
-556.456	800.000	-0.060	0.263
-555.442	-200.000	0.021	0.399
-554.427	734.949	0.073	0.195
-553.412	76.120	0.174	-0.185
-552.398	-200.000	-0.018	-0.116
-551.383	-56.977	0.555	0.245
-550.369	-97.178	0.412	-0.108
-549.354	-200.000	-0.063	-0.332
-548.339	-14.088	-0.139	0.090
-547.325	384.023	-0.073	-0.151
-546.310	800.000	0.079	0.332
-545.296	92.845	-0.119	0.135
-544.281	-109.401	0.119	0.025
-543.266	117.925	0.021	-0.026
-542.252	51.276	0.276	-0.262
-541.237	-200.000	-0.004	0.448
-540.223	-200.000	0.007	0.125
-539.208	-170.613	0.110	-0.004
-538.193	-23.642	0.250	0.150
-537.179	-20.485	0.119	-0.073
-536.164	1.204	-0.173	0.124
-535.150	-200.000	0.030	0.265
-534.135	-104.394	-0.130	-0.030
-533.121	444.911	-0.169	0.372
-532.106	-152.331	0.448	-0.032
-531.091	-47.601	0.087	0.042
-530.077	266.934	0.091	0.160
-529.062	46.016	0.196	-0.182
-528.048	-200.000	0.051	0.254
-527.033	800.000	-0.033	-0.112
-526.018	800.000	0.011	0.040
-525.004	35.944	0.146	0.129
-523.989	-15.766	-0.106	0.068
-522.975	187.195	0.133	-0.198
-521.960	-107.490	0.335	-0.073
-520.945	-200.000	0.022	-0.466
-519.931	800.000	-0.068	-0.228
-518.916	-200.000	0.003	-0.024
-517.902	-71.606	-0.188	-0.070
-516.887	-163.005	0.030	-0.001
-515.872	-68.373	-0.374	0.145
-514.858	110.070	0.081	0.097
-513.843	-61.359	-0.124	-0.052
-512.829	644.332	0.079	0.201
-511.814	180.786	0.051	-0.076
-510.799	167.533	-0.133	-0.189
-509.785	-74.672	-0.067	0.024
-508.770	343.126	-0.120	-0.236
-507.756	54.906	0.199	0.192
-506.741	-48.738	-0.421	0.202
-505.726	-111.010	-0.276	0.057
-504.712	491.515	-0.073	-0.166
-503.697	-109.065	0.047	0.010
-502.683	-24.775	0.147	-0.087
-501.668	342.681	0.119	-0.233
-500.653	285.590	-0.158	0.286
-499.639	-38.872	0.214	0.113
-498.624	800.000	0.154	0.469
-497.610	-85.517	-0.123	-0.038
-496.595	800.000	0.078	-0.234
-495.581	-200.000	0.025	-0.131
-494.566	-78.810	-0.092	0.031
-493.551	66.324	0.063	-0.064
-492.537	-41.399	0.080	-0.041
-491.522	-63.004	-0.302	0.125
-490.508	-200.000	-0.027	-0.153
-489.493	128.022	-0.124	0.158
-488.478	193.130	0.136	0.205
-487.464	800.000	0.072	-0.224
-486.449	-21.023	-0.112	-0.069
-485.435	-200.000	-0.007	0.105
-484.420	373.903	-0.129	0.262
-483.405	-23.719	0.050	0.030
-482.391	13.514	-0.168	0.130
-481.376	84.265	-0.106	-0.115
-480.362	-83.512	-0.392	0.125
-479.347	5.262	-0.185	-0.136
-478.332	800.000	-0.061	-0.205
-477.318	-139.954	-0.249	-0.026
-476.303	476.484	-0.094	-0.213
-475.289	-37.884	-0.185	-0.099
-474.274	800.000	0.053	-0.229
-473.259	33.305	-0.285	-0.247
-472.245	-165.209	-0.276	0.012
-471.230	-49.769	0.053	-0.025
-470.216	-54.762	-0.293	-0.132
-469.201	-200.000	-0.034	0.220
-468.186	-114.576	0.319	0.061
-467.172	70.181	-0.164	-0.169
-466.157	178.298	-0.190	0.277
-465.143	800.000	0.068	-0.199
-464.128	-86.709	0.159	-0.049
-463.113	-107.872	-0.186	-0.040
-462.099	800.000	-0.007	0.026
-461.084	80.162	0.183	-0.197
-460.070	-171.742	0.123	0.004
-459.055	248.891	0.032	-0.054
-458.040	-50.349	-0.062	-0.029
-457.026	-42.643	0.498	0.253
-456.011	141.115	0.108	-0.143
-454.997	800.000	-0.051	0.186
-453.982	800.000	-0.031	0.122
-452.968	67.543	0.101	0.103
-451.953	800.000	-0.063	0.189
-450.938	202.401	-0.121	-0.186
-449.924	514.938	0.092	0.215
-448.909	-200.000	-0.004	-0.032
-447.895	-200.000	0.004	-0.249
-446.880	800.000	-0.036	0.107
-445.865	-59.925	0.172	0.073
-444.851	261.823	-0.058	0.100
-443.836	146.893	-0.054	-0.072
-442.822	800.000	0.047	0.132
-441.807	-29.199	-0.019	-0.011
-440.792	-200.000	-0.001	0.152
-439.778	596.850	-0.040	0.098
-438.763	-141.905	0.207	-0.021
-437.749	-200.000	-0.000	0.107
-436.734	-58.251	-0.071	-0.031
-435.719	800.000	-0.061	-0.196
-434.705	-24.286	0.119	-0.071
-433.690	140.676	-0.091	-0.120
-432.676	19.957	0.160	-0.129
-431.661	-33.610	-0.261	-0.144
-430.646	315.314	-0.066	0.124
-429.632	262.960	-0.118	0.204
-428.617	-8.741	0.140	-0.093
-427.603	90.935	0.141	0.158
-426.588	503.533	0.096	-0.222
-425.573	-88.162	0.112	-0.033
-424.559	109.951	-0.030	0.036
-423.544	-200.000	0.042	0.251
-422.530	-33.035	0.033	-0.018
-421.515	800.000	0.138	-0.454
-420.500	-200.000	-0.031	-0.404
-419.486	-87.656	-0.212	0.064
-418.471	305.247	-0.066	-0.122
-417.457	-200.000	0.018	0.187
-416.442	-200.000	0.028	-0.178
-415.428	331.357	0.131	0.252
-414.413	800.000	-0.036	-0.105
-413.398	-32.715	0.182	-0.101
-412.384	-126.383	-0.325	-0.048
-411.369	65.439	0.166	0.167
-410.355	-200.000	-0.007	0.182
-409.340	645.078	0.122	-0.309
-408.325	226.119	-0.045	0.073
-407.311	51.405	0.300	0.284
-406.296	-105.213	-0.184	0.042
-405.282	-160.549	-0.250	-0.013
-404.267	1.889	-0.338	0.243
-403.252	800.000	-0.050	0.167
-402.238	-102.849	0.316	-0.075
-401.223	-1.675	-0.137	-0.096
-400.209	-200.000	-0.023	0.133
-399.194	-12.139	0.213	-0.139
-398.179	-200.000	0.004	0.120
-397.165	-200.000	-0.021	-0.105
-396.150	-115.722	0.227	-0.042
-395.136	-174.385	-0.063	0.002
-394.121	67.710	0.102	0.104
-393.106	800.000	0.122	0.491
-392.092	37.862	-0.220	0.195
-391.077	35.076	0.096	0.084
-390.063	-48.142	-0.054	-0.026
-389.048	800.000	0.101	-0.416
-388.033	-200.000	0.006	0.154
-387.019	800.000	-0.100	-0.344
-386.004	800.000	-0.062	-0.172
-384.990	-95.900	0.342	0.091
-383.975	-69.977	-0.259	-0.098
-382.960	261.737	0.174	-0.300
-381.946	-200.000	-0.044	-0.228
-380.931	-41.567	-0.126	0.065
-379.917	-35.839	0.286	0.154
-378.902	-200.000	-0.050	0.381
-377.888	-87.306	0.254	0.077
-376.873	318.638	0.067	-0.126
-375.858	-64.232	0.284	-0.115
-374.844	-15.728	-0.190	0.121
-373.829	-95.135	0.535	0.144
-372.815	-84.306	0.187	0.059
-371.800	800.000	-0.068	-0.247
-370.785	86.797	0.103	-0.113
-369.771	-67.342	0.289	0.113
-368.756	626.645	0.084	0.211
-367.742	-55.036	0.125	-0.056
-366.727	152.869	-0.147	0.199
-365.712	800.000	0.086	0.252
-364.698	170.519	0.152	-0.217
-363.683	-71.697	-0.185	0.069
-362.669	-117.692	0.180	-0.032
-361.654	217.517	-0.038	0.060
-360.639	-200.000	-0.008	-0.139
-359.625	-44.549	-0.135	-0.067
-358.610	800.000	-0.050	0.186
-357.596	-157.638	-0.157	0.009
-356.581	20.473	-0.064	-0.051
-355.566	9.909	0.217	0.163
-354.552	-146.346	0.047	-0.004
-353.537	-3.978	-0.234	0.162
-352.523	150.059	-0.173	-0.233
-351.508	-46.621	0.129	-0.063
-350.493	-162.653	-0.210	0.010
-349.479	-200.000	0.000	-0.068
-348.464	-133.892	-0.119	-0.015
-347.450	-24.224	0.277	0.164
-346.435	725.648	-0.149	0.394
-345.420	-55.734	-0.174	-0.077
-344.406	-61.496	0.142	-0.059
-343.391	-200.000	0.012	0.111
-342.377	18.741	-0.109	-0.087
-341.362	592.246	0.084	-0.205
-340.348	-51.943	0.157	-0.072
-339.333	-28.128	-0.215	0.123
-338.318	800.000	0.060	0.204
-337.304	-200.000	0.052	0.267
-336.289	-111.247	0.181	0.037
-335.275	416.566	0.090	0.190
-334.260	6.265	0.428	-0.315
-333.245	-119.155	0.092	-0.016
-332.231	-71.423	0.132	-0.049
-331.216	-85.070	0.183	-0.057
-330.202	-200.000	0.049	-0.232
-329.187	-130.045	0.243	-0.033
-328.172	69.631	0.136	0.139
-327.158	230.366	-0.062	0.101
-326.143	76.187	-0.016	-0.017
-325.129	420.298	-0.148	-0.315
-324.114	800.000	0.095	-0.354
-323.099	-200.000	-0.026	-0.299
-322.085	-86.806	0.156	0.047
-321.070	-111.829	0.392	-0.079
-320.056	-99.814	0.109	-0.027
-319.041	-120.217	-0.133	-0.023
-318.026	12.887	-0.265	-0.204
-317.012	88.880	-0.043	0.047
-315.997	-50.370	-0.234	-0.110
-314.983	424.790	0.121	0.259
-313.968	-128.300	0.208	0.029
-312.953	-16.987	0.164	-0.103
-311.939	111.501	0.179	0.214
-310.924	-34.188	0.155	-0.085
-309.910	-58.677	-0.296	0.127
-308.895	717.754	-0.156	-0.412
-307.880	-59.669	-0.141	-0.060
-306.866	-189.797	0.063	0.001
-305.851	800.000	-0.080	-0.247
-304.837	-164.868	0.157	-0.007
-303.822	202.725	0.026	0.039
-302.807	118.082	0.155	-0.189
-301.793	-200.000	-0.014	-0.412
-300.778	192.461	0.339	-0.508
-299.764	-200.000	0.010	0.192
-298.749	71.964	0.056	0.058
-297.735	-110.123	-0.144	-0.030
-296.720	-53.773	0.265	0.120
-295.705	800.000	-0.064	-0.182
-294.691	-200.000	0.067	0.360
-293.676	-61.762	-0.292	-0.121
-292.662	62.657	-0.173	0.172
-291.647	800.000	0.128	0.385
-290.632	-75.433	-0.218	-0.077
-289.618	-57.528	-0.167	-0.073
-288.603	81.739	-0.095	0.102
-287.589	184.369	-0.076	0.111
-286.574	800.000	0.061	-0.195
-285.559	-62.167	-0.267	-0.110
-284.545	-6.929	0.190	0.128
-283.530	-191.916	-0.181	-0.002
-282.516	-107.653	-0.127	0.028
-281.501	-131.806	-0.225	-0.029
-280.486	-200.000	-0.003	0.279
-279.472	23.917	-0.099	0.081
-278.457	-117.640	-0.118	0.021
-277.443	461.330	0.093	-0.206
-276.428	-101.548	-0.122	-0.029
-275.413	-13.948	-0.032	-0.021
-274.399	109.884	0.093	-0.111
-273.384	-93.411	-0.089	0.025
-272.370	14.214	0.052	0.040
-271.355	800.000	-0.034	-0.100
-270.340	88.428	-0.069	-0.076
-269.326	-200.000	0.026	-0.199
-268.311	57.287	-0.311	0.301
-267.297	366.862	0.136	0.272
-266.282	-102.381	-0.299	-0.071
-265.267	133.846	-0.140	0.180
-264.253	87.463	-0.119	0.130
-263.238	-200.000	-0.000	0.025
-262.224	-130.412	-0.226	-0.030
-261.209	-200.000	0.270	-0.000
-260.195	175.730	0.086	0.124
-259.180	36.250	0.233	0.204
-258.165	-200.000	-0.068	-0.406
-257.151	32.764	0.307	-0.263
-256.136	12.824	-0.274	-0.210
-255.122	-111.938	-0.268	-0.054
-254.107	-60.705	0.236	0.099
-253.092	-200.000	-0.007	-0.058
-252.078	-200.000	-0.091	-0.433
-251.063	800.000	0.081	0.264
-250.049	228.629	-0.133	-0.215
-249.034	144.836	-0.192	-0.254
-248.019	-200.000	0.015	-0.078
-247.005	461.561	0.021	-0.046
-245.990	-126.707	0.152	-0.022
-244.976	56.245	0.208	0.200
-243.961	-200.000	0.034	0.155
-242.946	43.678	0.132	0.119
-241.932	98.152	-0.051	0.058
-240.917	-76.327	-0.091	-0.032
-239.903	158.705	-0.173	-0.238
-238.888	800.000	-0.082	0.237
-237.873	169.077	0.214	0.302
-236.859	165.110	0.136	0.190
-235.844	47.452	0.252	0.233
-234.830	-200.000	0.060	-0.277
-233.815	-4.444	0.290	-0.199
-232.800	220.264	0.091	-0.144
-231.786	23.491	-0.287	-0.233
-230.771	800.000	-0.076	-0.285
-229.757	25.298	0.034	-0.028
-228.742	800.000	-0.118	-0.366
-227.727	800.000	0.034	0.105
-226.713	-130.065	0.136	0.018
-225.698	800.000	-0.043	-0.153
-224.684	800.000	-0.044	0.154
-223.669	85.215	0.030	0.032
-222.655	800.000	0.061	-0.173
-221.640	-200.000	-0.004	0.107
-220.625	409.773	0.049	-0.102
-219.611	17.616	0.255	0.201
-218.596	-67.571	0.331	-0.128
-217.582	-152.668	-0.358	-0.025
-216.567	-200.000	-0.016	-0.239
-215.552	-48.669	-0.337	0.160
-214.538	-42.592	-0.374	-0.189
-213.523	75.990	-0.283	-0.296
-212.509	-1.282	-0.233	-0.163
-211.494	-38.539	0.294	-0.154
-210.479	-25.137	0.084	0.049
-209.465	800.000	0.026	0.083
-208.450	231.378	0.074	0.120
-207.436	-10.671	0.121	0.079
-206.421	-106.666	0.161	0.035
-205.406	71.469	-0.103	0.106
-204.392	141.074	0.080	-0.105
-203.377	-13.101	0.369	0.237
-202.363	-77.135	-0.311	0.107
-201.348	-100.723	0.534	0.130
-200.333	-73.848	0.297	0.107
-199.319	-200.000	0.033	-0.278
-198.304	-55.810	0.116	-0.051
-197.290	-152.297	-0.172	0.012
-196.275	139.157	-0.072	0.093
-195.260	-200.000	0.010	-0.063
-194.246	-73.932	0.056	-0.020
-193.231	-134.283	0.343	-0.042
-192.217	324.403	-0.066	0.125
-191.202	-101.719	-0.161	-0.039
-190.187	800.000	-0.065	0.216
-189.173	-200.000	0.011	0.315
-188.158	-12.308	0.278	0.180
-187.144	-76.351	-0.065	0.023
-186.129	-7.945	0.149	0.099
-185.114	324.277	0.077	0.146
-184.100	129.480	-0.127	0.160
-183.085	-1.148	0.184	0.128
-182.071	-200.000	-0.035	0.193
-181.056	-153.432	-0.321	-0.022
-180.042	-200.000	0.012	0.332
-179.027	265.452	-0.035	-0.060
-178.012	-200.000	0.025	0.155
-176.998	-200.000	-0.015	0.156
-175.983	-200.000	-0.000	0.071
-174.969	-119.373	-0.228	0.039
-173.954	-77.243	-0.318	0.109
-172.939	48.280	-0.140	0.129
-171.925	-200.000	0.016	-0.116
-170.910	207.855	-0.053	-0.082
-169.896	-36.459	-0.381	-0.203
-168.881	-200.000	-0.034	0.307
-167.866	-57.242	-0.195	-0.085
-166.852	-31.298	0.183	-0.102
-165.837	800.000	-0.025	-0.089
-164.823	-101.808	0.259	0.062
-163.808	696.887	-0.136	-0.354
-162.793	87.679	-0.174	0.190
-161.779	-2.609	0.103	0.071
-160.764	-200.000	0.026	0.145
-159.750	800.000	-0.069	0.195
-158.735	-200.000	-0.067	0.364
-157.720	-200.000	0.009	-0.129
-156.706	-200.000	0.009	0.126
-155.691	56.571	-0.202	-0.194
-154.677	-5.035	-0.234	0.159
-153.662	-200.000	0.009	0.224
-152.647	23.258	-0.180	-0.146
-151.633	773.875	-0.076	-0.206
-150.618	-149.559	-0.196	-0.015
-149.604	30.038	0.171	-0.144
-148.589	-200.000	-0.029	0.274
-147.574	800.000	-0.078	-0.227
-146.560	-107.029	-0.244	-0.053
-145.545	109.215	0.044	-0.052
-144.531	-2.476	0.057	0.040
-143.516	-84.008	0.043	0.013
-142.502	-26.879	0.150	-0.086
-141.487	-4.704	-0.103	-0.070
-140.472	-200.000	-0.003	-0.108
-139.458	-200.000	0.036	-0.177
-138.443	-160.478	0.222	-0.012
-137.429	-73.005	0.242	-0.088
-136.414	212.155	-0.255	0.396
-135.399	-200.000	0.030	-0.371
-134.385	-18.441	-0.271	0.167
-133.370	151.479	-0.070	-0.094
-132.356	149.863	-0.087	0.116
-131.341	-93.297	0.207	0.057
-130.326	225.891	-0.077	-0.124
-129.312	355.065	0.114	-0.224
-128.297	-65.988	-0.111	0.044
-127.283	800.000	0.043	-0.170
-126.268	72.877	0.059	-0.061
-125.253	-200.000	0.007	-0.129
-124.239	-109.488	-0.338	0.070
-123.224	755.895	0.119	-0.316
-122.210	-197.945	-0.106	-0.001
-121.195	31.159	-0.165	-0.139
-120.180	-46.985	0.226	-0.109
-119.166	-160.913	-0.021	0.001
-118.151	2.435	-0.108	-0.077
-117.137	-90.288	-0.092	-0.026
-116.122	27.389	-0.085	-0.070
-115.107	210.967	0.065	-0.101
-114.093	97.296	-0.294	0.333
-113.078	-47.082	-0.375	0.180
-112.064	461.444	-0.048	-0.105
-111.049	-158.550	0.182	-0.010
-110.034	-123.094	0.135	0.021
-109.020	-200.000	0.008	-0.050
-108.005	-77.937	-0.142	-0.048
-106.991	800.000	0.045	0.157
-105.976	-49.076	0.003	-0.001
-104.962	208.770	-0.172	-0.264
-103.947	800.000	0.056	0.203
-102.932	-28.833	0.222	0.126
-101.918	0.329	0.133	0.093
-100.903	488.301	-0.054	0.122
-99.889	11.336	-0.211	-0.159
-98.874	-200.000	0.016	-0.164
-97.859	131.708	0.105	0.133
-96.845	800.000	0.066	0.192
-95.830	102.827	-0.157	0.181
-94.816	-180.351	0.085	-0.002
-93.801	-91.897	0.266	0.074
-92.786	-24.025	0.362	0.213
-91.772	2.381	0.154	-0.110
-90.757	-200.000	-0.003	-0.052
-89.743	-89.410	-0.112	0.032
-88.728	133.235	0.213	0.270
-87.713	-54.845	0.255	0.113
-86.699	29.537	-0.022	-0.019
-85.684	-200.000	0.004	0.347
-84.670	5.360	0.030	-0.022
-83.655	-156.451	-0.220	-0.014
-82.640	-143.152	-0.210	0.020
-81.626	-121.848	-0.055	0.009
-80.611	43.352	0.134	0.120
-79.597	660.371	-0.157	-0.397
-78.582	141.630	-0.120	0.157
-77.567	-200.000	-0.036	0.174
-76.553	394.456	-0.030	-0.062
-75.538	173.696	0.133	0.189
-74.524	-200.000	-0.032	-0.201
-73.509	-155.834	0.159	-0.010
-72.494	470.903	-0.045	0.100
-71.480	-200.000	0.041	0.355
-70.465	146.467	-0.082	-0.108
-69.451	-200.000	0.028	0.159
-68.436	159.160	0.109	0.149
-67.422	-200.000	-0.026	0.332
-66.407	-200.000	0.016	0.074
-65.392	-87.362	0.066	-0.020
-64.378	188.483	0.023	-0.034
-63.363	-80.373	0.099	-0.032
-62.349	613.098	-0.067	0.164
-61.334	19.488	-0.899	-0.710
-60.319	-35.486	0.803	0.429
-59.305	-200.000	-0.024	-0.841
-58.290	589.880	0.513	1.244
-57.276	308.302	0.869	1.594
-56.261	-200.000	96.164	594.355
-55.246	668.300	1374.673	3494.658
-54.232	198.880	2551.977	3840.807
-53.217	114.249	2266.256	2710.818
-52.203	41.964	1895.002	1689.565
-51.188	35.659	1685.814	1455.440
-50.173	33.060	1641.653	1398.060
-49.159	50.774	1688.135	1570.802
-48.144	52.289	1703.681	1596.551
-47.130	35.373	1665.032	1435.132
-46.115	32.523	1651.143	1401.923
-45.100	32.391	1645.998	1396.516
-44.086	32.319	1643.251	1393.597
-43.071	32.314	1640.911	1391.519
-42.057	32.346	1638.069	1389.290
-41.042	32.371	1636.549	1388.131
-40.027	32.317	1634.752	1386.155
-39.013	32.317	1632.586	1384.267
-37.998	32.274	1631.432	1382.916
-36.984	32.359	1629.546	1381.883
-35.969	32.528	1628.079	1381.828
-34.954	32.458	1626.356	1379.799
-33.940	32.481	1624.560	1378.389
-32.925	32.524	1623.267	1377.550
-31.911	32.341	1621.848	1374.955
-30.896	32.503	1619.665	1374.230
-29.881	32.390	1618.005	1371.944
-28.867	32.460	1616.818	1371.390
-27.852	32.427	1615.023	1369.573
-26.838	32.495	1613.416	1368.651
-25.823	32.408	1612.553	1367.235
-24.809	32.485	1610.523	1366.016
-23.794	32.440	1609.818	1365.041
-22.779	32.456	1607.648	1363.258
-21.765	32.443	1606.066	1361.767
-20.750	32.386	1604.445	1359.930
-19.736	32.541	1603.012	1359.780
-18.721	32.450	1601.955	1358.171
-17.706	32.407	1600.479	1356.556
-16.692	32.403	1598.915	1355.152
-15.677	32.507	1597.020	1354.240
-14.663	32.541	1596.058	1353.610
-13.648	32.388	1595.010	1351.567
-12.633	32.413	1593.197	1350.162
-11.619	32.426	1591.464	1348.730
-10.604	32.536	1589.715	1347.980
-9.590	32.444	1588.915	1346.590
-8.575	32.474	1587.014	1345.146
-7.560	32.516	1586.327	1344.805
-6.546	32.440	1585.116	1343.187
-5.531	32.448	1584.155	1342.374
-4.517	32.472	1582.541	1341.126
-3.502	32.537	1581.338	1340.518
-2.487	32.566	1580.439	1339.907
-1.473	32.175	1568.528	1326.990
-0.458	29.537	1548.938	1291.938
0.556	25.783	1549.486	1260.900
1.571	23.429	1572.908	1263.093
2.586	22.861	1585.685	1269.164
3.600	20.296	1532.215	1208.422
4.615	12.452	1423.659	1071.755
5.629	5.741	1361.608	982.984
6.644	4.776	1354.125	971.475
7.659	4.646	1352.182	969.181
8.673	4.585	1351.348	968.118
9.688	4.714	1349.212	967.304
10.702	4.549	1346.770	964.444
11.717	7.554	1352.882	987.445
12.731	15.091	1366.633	1044.581
13.746	19.668	1372.802	1077.822
14.761	19.277	1370.752	1073.680
15.775	18.157	1368.504	1064.854
16.790	17.179	1365.648	1056.460
17.804	16.332	1363.036	1049.086
18.819	15.965	1362.272	1046.124
19.834	15.716	1361.098	1043.583
20.848	15.481	1359.496	1040.806
21.863	15.298	1358.277	1038.651
22.877	15.181	1357.175	1036.993
23.892	15.064	1356.695	1035.808
24.907	15.083	1355.365	1034.817
25.921	15.073	1354.693	1034.152
26.936	15.202	1353.640	1034.053
27.950	15.195	1352.444	1033.002
28.965	15.222	1351.629	1032.459
29.980	15.362	1350.864	1032.644
30.994	15.476	1349.413	1032.142
32.009	15.491	1348.357	1031.335
33.023	15.340	1347.473	1029.645
34.038	15.329	1345.798	1028.204
35.053	15.308	1344.849	1027.262
36.067	15.330	1343.463	1026.245
37.082	15.323	1342.259	1025.194
38.096	15.352	1341.620	1024.788
39.111	15.386	1340.545	1024.088
40.126	15.364	1339.521	1023.079
41.140	15.104	1339.257	1021.198
42.155	15.054	1338.557	1020.273
43.169	14.931	1338.916	1019.706
44.184	14.960	1338.404	1019.403
45.199	15.099	1337.535	1019.498
46.213	15.190	1336.754	1019.362
47.228	15.180	1336.280	1018.851
48.242	15.234	1335.234	1018.294
49.257	15.249	1333.575	1017.030
50.271	15.235	1332.010	1015.661
51.286	15.212	1331.380	1014.948
52.301	15.336	1329.511	1014.185
53.315	15.094	1328.971	1012.222
54.330	15.017	1328.054	1010.967
55.344	15.086	1326.360	1010.006
56.359	15.073	1325.117	1008.890
57.374	15.041	1324.610	1008.222
58.388	15.048	1323.771	1007.538
59.403	14.903	1323.373	1006.270
60.417	14.953	1322.873	1006.106
61.432	14.942	1321.751	1005.097
62.447	14.851	1321.211	1004.048
63.461	14.909	1319.291	1002.851
64.476	14.864	1318.358	1001.781
65.490	14.870	1317.194	1000.844
66.505	14.957	1315.536	1000.019
67.520	14.973	1314.538	999.267
68.534	14.990	1313.300	998.335
69.549	14.805	1312.998	996.916
70.563	14.873	1311.675	996.229
71.578	14.913	1310.477	995.470
72.593	14.781	1309.705	994.010
73.607	14.772	1308.672	993.085
74.622	14.821	1308.001	992.775
75.636	14.785	1307.233	991.891
76.651	14.913	1306.434	991.959
77.666	14.798	1306.256	991.050
78.680	14.844	1305.670	990.795
79.695	14.924	1305.120	990.763
80.709	14.878	1304.696	990.081
81.724	15.048	1303.052	989.753
82.739	15.040	1302.555	989.238
83.753	15.122	1301.554	988.873
84.768	15.125	1300.539	988.036
85.782	15.349	1299.658	988.595
86.797	15.226	1298.226	986.696
87.812	15.184	1297.207	985.588
88.826	15.187	1295.713	984.382
89.841	15.329	1294.514	984.219
90.855	15.212	1294.188	983.194
91.870	15.398	1292.793	983.142
92.884	15.307	1292.263	982.115
93.899	15.269	1291.924	981.548
94.914	15.386	1290.778	981.274
95.928	15.341	1289.615	980.043
96.943	15.313	1289.038	979.357
97.957	15.180	1288.001	977.706
98.972	15.332	1286.504	977.364
99.987	15.256	1286.112	976.538
101.001	15.267	1284.757	975.491
102.016	15.210	1283.924	974.438
103.030	15.259	1283.124	974.026
104.045	15.264	1282.403	973.424
105.060	15.223	1280.828	971.905
106.074	15.034	1279.820	969.960
107.089	15.007	1278.356	968.606
108.103	14.912	1276.811	966.805
109.118	14.989	1275.523	966.187
110.133	14.959	1274.204	964.927
111.147	14.981	1272.930	964.007
112.162	15.016	1271.608	963.121
113.176	15.047	1270.480	962.359
114.191	15.038	1269.680	961.617
115.206	15.083	1268.438	960.845
116.220	15.098	1267.362	960.034
117.235	15.034	1266.397	958.851
118.249	14.997	1265.391	957.794
119.264	14.986	1264.165	956.717
120.279	14.924	1263.171	955.528
121.293	14.938	1262.434	954.965
122.308	14.915	1261.028	953.686
123.322	14.873	1260.299	952.808
124.337	14.865	1259.504	952.078
125.352	14.905	1257.935	951.035
126.366	14.919	1256.979	950.312
127.381	14.867	1255.817	949.053
128.395	14.923	1254.908	948.597
129.410	14.991	1253.608	947.917
130.424	15.033	1253.082	947.673
131.439	15.037	1252.206	946.949
132.454	15.046	1251.467	946.358
133.468	14.951	1250.613	945.090
134.483	15.017	1250.056	944.957
135.497	15.154	1248.678	944.607
136.512	15.091	1247.669	943.407
137.527	15.075	1246.272	942.177
138.541	15.091	1245.034	941.247
139.556	15.168	1243.649	940.550
140.570	15.250	1242.680	940.192
141.585	15.301	1241.856	939.769
142.600	15.326	1240.194	938.569
143.614	15.336	1239.862	938.293
144.629	15.384	1238.398	937.367
145.643	15.347	1237.480	936.386
146.658	15.303	1236.046	934.969
147.673	15.260	1234.649	933.590
148.687	15.080	1233.645	931.747
149.702	15.123	1232.249	930.851
150.716	15.182	1230.691	929.921
151.731	15.185	1230.006	929.338
152.746	15.177	1228.626	928.166
153.760	15.234	1227.372	927.451
154.775	15.185	1226.953	926.784
155.789	15.359	1225.268	926.388
156.804	15.343	1224.596	925.711
157.819	15.386	1223.240	924.840
158.833	15.395	1222.328	924.120
159.848	15.535	1221.726	924.353
160.862	15.489	1221.148	923.580
161.877	15.401	1219.585	921.832
162.892	15.189	1218.396	919.692
163.906	15.137	1217.767	918.847
164.921	15.239	1216.589	918.440
165.935	15.319	1215.812	918.209
166.950	15.346	1215.102	917.739
167.964	15.297	1214.540	916.963
168.979	15.248	1213.671	915.959
169.994	15.313	1213.085	915.791
171.008	15.389	1212.475	915.665
172.023	15.427	1211.387	914.966
173.037	15.434	1210.873	914.536
174.052	15.522	1210.197	914.425
175.067	15.416	1208.733	912.662
176.081	15.258	1207.879	911.080
177.096	15.321	1206.800	910.527
178.110	15.368	1206.211	910.257
179.125	15.358	1205.013	909.217
180.140	15.375	1203.686	908.225
181.154	15.388	1202.427	907.266
182.169	15.550	1201.321	907.228
183.183	15.555	1200.123	906.268
184.198	15.525	1199.253	905.373
185.213	15.590	1197.908	904.626
186.227	15.646	1196.734	903.961
187.242	15.661	1195.834	903.280
188.256	15.648	1195.092	902.571
189.271	15.797	1194.233	902.642
190.286	15.654	1192.773	900.692
191.300	15.310	1192.134	898.284
192.315	15.300	1191.395	897.599
193.329	15.350	1190.873	897.390
194.344	15.390	1189.943	896.824
195.359	15.417	1189.970	896.912
196.373	15.628	1189.050	897.263
197.388	15.676	1188.585	897.092
198.402	15.797	1188.476	897.576
199.417	15.865	1187.553	897.160
200.432	15.856	1186.925	896.557
201.446	15.826	1185.922	895.564
202.461	15.997	1184.893	895.616
203.475	16.068	1183.886	895.149
204.490	15.848	1182.885	893.149
205.504	15.748	1181.653	891.610
206.519	15.857	1180.376	891.142
207.534	15.844	1179.318	890.199
208.548	15.762	1178.325	888.935
209.563	15.823	1177.541	888.586
210.577	15.839	1177.357	888.453
211.592	15.877	1176.223	887.719
212.607	16.050	1175.641	888.115
213.621	15.958	1174.674	886.820
214.636	15.952	1173.616	885.913
215.650	15.977	1172.495	885.122
216.665	16.042	1171.658	884.751
217.680	16.089	1171.151	884.536
218.694	16.038	1170.256	883.512
219.709	16.163	1169.623	883.611
220.723	16.110	1168.786	882.625
221.738	15.989	1168.062	881.365
222.753	16.087	1166.848	880.885
223.767	16.206	1166.346	881.050
224.782	16.186	1165.556	880.270
225.796	16.258	1165.144	880.258
226.811	16.422	1164.328	880.417
227.826	16.199	1163.443	878.508
228.840	16.104	1163.002	877.606
229.855	16.049	1162.430	876.808
230.869	16.040	1161.807	876.212
231.884	16.056	1161.016	875.622
232.899	16.153	1159.661	875.025
233.913	16.092	1159.240	874.314
234.928	16.093	1158.250	873.497
235.942	16.005	1157.699	872.550
236.957	16.047	1156.787	872.003
237.972	16.087	1155.741	871.342
238.986	16.031	1155.537	870.822
240.001	16.154	1154.785	870.812
241.015	16.100	1154.041	869.895
242.030	16.215	1153.235	869.807
243.045	16.195	1152.711	869.227
244.059	16.151	1152.066	868.437
245.074	16.275	1150.937	868.151
246.088	16.187	1150.407	867.219
247.103	16.372	1149.196	867.181
248.117	16.232	1149.261	866.432
249.132	16.404	1148.343	866.547
250.147	16.595	1147.472	866.794
251.161	16.695	1146.516	866.503
252.176	16.762	1145.658	866.125
253.190	16.816	1145.782	866.418
254.205	16.865	1144.475	865.604
255.220	16.819	1144.018	864.945
256.234	16.746	1143.630	864.202
257.249	16.809	1142.390	863.509
258.263	16.878	1141.972	863.467
259.278	16.789	1141.400	862.506
260.293	16.855	1141.228	862.635
261.307	16.909	1140.545	862.317
262.322	16.909	1139.693	861.599
263.336	16.843	1139.022	860.678
264.351	16.771	1138.606	859.924
265.366	16.840	1138.249	859.927
266.380	17.033	1136.943	859.844
267.395	16.922	1136.241	858.672
268.409	16.814	1135.544	857.524
269.424	16.841	1134.989	857.165
270.439	16.912	1134.395	857.001
271.453	16.848	1133.073	855.605
272.468	16.939	1132.401	855.479
273.482	16.790	1131.855	854.239
274.497	16.789	1131.398	853.814
275.512	16.917	1130.223	853.496
276.526	16.930	1129.787	853.156
277.541	16.927	1128.916	852.408
278.555	16.985	1128.424	852.254
279.570	17.024	1127.532	851.701
280.585	17.048	1126.998	851.343
281.599	17.042	1125.826	850.350
282.614	16.976	1124.901	849.245
283.628	16.980	1123.838	848.389
284.643	16.961	1123.184	847.724
285.657	17.106	1122.155	847.596
286.672	17.025	1121.090	846.314
287.687	17.061	1120.470	845.948
288.701	17.103	1119.900	845.655
289.716	17.181	1118.639	845.015
290.730	17.136	1118.256	844.428
291.745	17.134	1117.416	843.711
292.760	17.085	1117.510	843.459
293.774	17.262	1116.261	843.322
294.789	17.265	1115.795	842.911
295.803	17.349	1115.378	842.939
296.818	17.283	1114.030	841.519
297.833	17.049	1113.516	839.898
298.847	17.227	1112.878	840.221
299.862	17.306	1111.848	839.758
300.876	17.231	1111.075	838.733
301.891	17.238	1110.870	838.537
302.906	17.395	1109.856	838.472
303.920	17.441	1109.444	838.310
304.935	17.482	1108.827	837.974
305.949	17.563	1107.791	837.514
306.964	17.455	1107.626	836.785
307.979	17.487	1106.659	836.137
308.993	17.408	1106.143	835.286
310.008	17.686	1104.845	835.594
311.022	17.530	1104.295	834.341
312.037	17.524	1103.835	833.891
313.052	17.571	1102.412	832.969
314.066	17.473	1101.641	831.837
315.081	17.333	1100.822	830.462
316.095	17.337	1100.019	829.802
317.110	17.367	1099.349	829.370
318.125	17.434	1098.641	829.085
319.139	17.379	1097.829	828.134
320.154	17.337	1097.203	827.384
321.168	17.461	1096.625	827.475
322.183	17.483	1095.543	826.695
323.197	17.404	1095.717	826.367
324.212	17.415	1094.921	825.749
325.227	17.466	1094.829	825.852
326.241	17.492	1093.958	825.250
327.256	17.466	1092.913	824.264
328.270	17.449	1091.855	823.311
329.285	17.391	1091.058	822.354
330.300	17.457	1089.926	821.749
331.314	17.629	1088.888	821.720
332.329	17.532	1088.013	820.520
333.343	17.517	1087.378	819.897
334.358	17.621	1086.636	819.767
335.373	17.611	1086.072	819.222
336.387	17.736	1085.025	818.957
337.402	17.669	1084.212	817.953
338.416	17.773	1083.947	818.179
339.431	17.734	1083.352	817.469
340.446	17.766	1082.971	817.260
341.460	17.881	1081.904	816.933
342.475	17.948	1081.292	816.722
343.489	17.966	1080.230	815.933
344.504	18.145	1079.366	816.063
345.519	18.081	1078.785	815.243
346.533	18.050	1078.088	814.501
347.548	18.142	1077.253	814.232
348.562	18.103	1076.564	813.458
349.577	17.951	1075.452	811.823
350.592	17.899	1075.027	811.181
351.606	17.910	1073.899	810.309
352.621	17.932	1073.561	810.089
353.635	17.842	1072.618	808.876
354.650	17.958	1071.878	808.799
355.665	17.988	1070.968	808.181
356.679	18.044	1070.841	808.278
357.694	18.018	1070.222	807.617
358.708	18.125	1069.371	807.407
359.723	18.007	1068.987	806.491
360.738	18.110	1068.331	806.412
361.752	18.029	1067.881	805.619
362.767	17.975	1067.327	804.876
363.781	18.111	1067.119	805.289
364.796	18.221	1066.354	805.157
365.810	18.300	1065.412	804.745
366.825	18.282	1065.165	804.404
367.840	18.320	1064.704	804.163
368.854	18.370	1063.814	803.652
369.869	18.355	1063.258	803.091
370.883	18.444	1062.269	802.691
371.898	18.282	1061.529	801.299
372.913	18.209	1061.068	800.541
373.927	18.340	1060.472	800.631
374.942	18.380	1060.139	800.497
375.956	18.476	1059.340	800.271
376.971	18.531	1058.661	799.947
377.986	18.420	1058.499	799.234
379.000	18.530	1057.638	799.027
380.015	18.602	1057.262	799.005
381.029	18.667	1056.570	798.714
382.044	18.536	1056.031	797.629
383.059	18.517	1055.207	796.846
384.073	18.684	1053.999	796.639
385.088	18.707	1053.520	796.314
386.102	18.677	1052.740	795.514
387.117	18.655	1051.305	794.258
388.132	18.625	1050.784	793.654
389.146	18.490	1049.962	792.339
390.161	18.390	1049.391	791.375
391.175	18.414	1048.718	790.909
392.190	18.556	1048.071	791.008
393.205	18.585	1047.539	790.667
394.219	18.710	1046.040	790.044
395.234	18.581	1045.409	788.905
396.248	18.561	1044.792	788.275
397.263	18.602	1043.690	787.561
398.278	18.467	1043.240	786.535
399.292	18.415	1042.306	785.521
400.307	18.520	1041.300	785.174
401.321	18.415	1040.897	784.320
402.336	18.510	1040.252	784.201
403.350	18.588	1039.356	783.813
404.365	18.592	1038.791	783.334
405.380	18.804	1037.586	783.322
406.394	18.678	1037.226	782.407
407.409	18.767	1036.935	782.525
408.423	18.750	1036.096	781.747
409.438	18.947	1035.195	781.891
410.453	18.961	1034.748	781.549
411.467	18.922	1034.359	781.011
412.482	18.935	1033.632	780.451
413.496	19.090	1032.610	780.314
414.511	19.062	1032.508	780.039
415.526	19.139	1031.953	779.900
416.540	19.143	1031.241	779.311
417.555	19.155	1030.818	778.975
418.569	19.083	1029.917	777.903
419.584	19.211	1029.453	778.061
420.599	19.142	1029.169	777.464
421.613	150.822	1401.341	1793.467
422.628	137.552	1455.560	1793.567
