DTS Sentinel unit serial number:	SN413079Multiplexer serial number:	ORYXHardware model number:	OX4-SRSoftware version number:	ORYX F/W v4.00 Oryx Data Collector v3.7.2.0data status	okinstallation	princeton_trtdifferential loss correction	single-endedforward channel	channel 2reverse channel	N/Adate	2019/09/15time	23:59:35forward acquisition time	60.00reverse acquisition time	0.00gamma	496.2192k internal	0.2337k external	0.2337temperature offset calibration	0.9954default loss term (dB/km)	0.3790temperature slope calibration	1.0000multiplexer offset coefficient	1.0000multiplexer slope coefficient	1.0000fibre end	0.00T internal ref (°C)	27.87T ext. ref 1 (°C)	9.37T ext. ref 2 (°C)	21.81length (m)	temperature (°C)	Stokes	anti-Stokes-747.200	193.531	0.033	-0.049
-746.185	629.102	-0.046	-0.118
-745.171	-104.263	0.275	-0.064
-744.156	264.741	0.111	0.194
-743.142	-4.566	0.093	0.064
-742.127	0.517	-0.255	0.183
-741.112	-110.853	-0.187	0.039
-740.098	79.244	-0.085	0.091
-739.083	536.844	-0.120	0.287
-738.069	-200.000	0.003	0.133
-737.054	-41.895	-0.190	-0.098
-736.039	-200.000	-0.009	-0.224
-735.025	435.290	-0.030	0.066
-734.010	96.926	-0.169	-0.195
-732.996	800.000	0.106	-0.392
-731.981	34.920	0.110	-0.097
-730.966	-4.451	0.202	-0.140
-729.952	107.360	-0.136	0.162
-728.937	-200.000	-0.009	0.089
-727.923	387.672	-0.094	-0.194
-726.908	800.000	-0.067	-0.206
-725.894	-12.610	-0.255	-0.167
-724.879	74.486	-0.216	-0.228
-723.864	-30.186	-0.036	-0.020
-722.850	684.746	-0.068	0.177
-721.835	14.669	0.046	0.036
-720.821	440.139	0.072	0.157
-719.806	-127.521	-0.238	0.035
-718.791	-88.356	0.155	0.047
-717.777	-75.507	0.260	-0.093
-716.762	137.683	-0.261	0.343
-715.748	-67.155	0.255	0.101
-714.733	-45.575	-0.127	-0.063
-713.718	-131.591	-0.163	-0.022
-712.704	231.810	-0.106	-0.174
-711.689	-200.000	-0.026	-0.356
-710.675	367.287	-0.027	0.054
-709.660	-200.000	0.007	0.149
-708.645	-164.537	0.198	0.009
-707.631	-129.119	0.162	-0.023
-706.616	-113.781	-0.180	-0.035
-705.602	3.058	0.179	0.131
-704.587	800.000	0.033	-0.129
-703.572	314.004	0.106	-0.200
-702.558	800.000	0.024	0.105
-701.543	-200.000	-0.032	0.212
-700.529	130.606	-0.086	0.111
-699.514	-200.000	-0.540	0.002
-698.499	800.000	0.053	-0.148
-697.485	-54.043	0.087	0.040
-696.470	-164.202	0.140	0.006
-695.456	50.145	-0.299	-0.283
-694.441	-136.521	-0.127	0.015
-693.426	64.959	-0.093	0.094
-692.412	232.203	0.099	-0.162
-691.397	130.210	-0.146	0.187
-690.383	800.000	-0.009	0.036
-689.368	-196.005	-0.082	0.001
-688.354	455.410	-0.154	-0.342
-687.339	800.000	0.015	-0.054
-686.324	-72.717	-0.224	0.083
-685.310	-200.000	0.032	0.213
-684.295	-200.000	0.024	0.208
-683.281	131.295	-0.206	-0.265
-682.266	800.000	0.032	-0.091
-681.251	-37.711	-0.014	0.008
-680.237	-84.985	0.265	0.083
-679.222	-200.000	0.008	-0.102
-678.208	4.838	-0.202	-0.148
-677.193	382.124	-0.127	-0.261
-676.178	-13.004	-0.062	-0.041
-675.164	170.039	-0.099	-0.142
-674.149	800.000	-0.056	-0.211
-673.135	800.000	0.075	-0.280
-672.120	148.608	0.126	-0.171
-671.105	-140.002	-0.147	0.016
-670.091	-146.600	-0.670	0.058
-669.076	75.193	-0.291	-0.307
-668.062	91.568	-0.014	-0.016
-667.047	54.177	-0.220	0.212
-666.032	-200.000	-0.047	-0.341
-665.018	-96.885	-0.135	0.035
-664.003	54.555	-0.202	0.195
-662.989	-160.485	0.180	0.010
-661.974	800.000	-0.060	-0.239
-660.959	800.000	-0.039	-0.137
-659.945	-114.708	-0.135	0.026
-658.930	-168.262	0.369	-0.014
-657.916	-143.626	0.265	0.025
-656.901	34.857	-0.073	-0.064
-655.886	124.813	-0.216	-0.272
-654.872	800.000	-0.074	0.224
-653.857	-200.000	-0.019	0.088
-652.843	-200.000	-0.005	-0.095
-651.828	251.943	0.191	-0.325
-650.814	270.836	-0.027	0.047
-649.799	-13.185	0.194	0.126
-648.784	-14.440	-0.222	-0.143
-647.770	-200.000	-0.013	-0.294
-646.755	152.255	-0.154	0.211
-645.741	430.826	-0.130	-0.281
-644.726	19.026	0.035	-0.028
-643.711	-200.000	-0.002	0.413
-642.697	-200.000	0.021	-0.161
-641.682	330.099	-0.190	-0.365
-640.668	-55.697	0.374	-0.167
-639.653	800.000	0.048	0.154
-638.638	-200.000	0.002	-0.391
-637.624	-52.468	0.282	-0.130
-636.609	-171.040	-0.162	-0.006
-635.595	-140.583	-0.151	0.016
-634.580	800.000	0.066	0.209
-633.565	-34.955	0.190	-0.103
-632.551	800.000	0.043	0.147
-631.536	-64.983	-0.272	-0.110
-630.522	255.481	-0.055	0.094
-629.507	-200.000	-0.029	-0.158
-628.492	-42.322	-0.193	-0.099
-627.478	32.581	0.068	-0.059
-626.463	-65.953	0.156	0.062
-625.449	-200.000	0.009	0.185
-624.434	124.684	0.054	-0.068
-623.419	414.657	-0.189	-0.402
-622.405	260.603	-0.064	-0.110
-621.390	800.000	0.076	-0.292
-620.376	-200.000	-0.010	0.200
-619.361	-165.553	0.168	-0.007
-618.346	-102.600	0.306	0.073
-617.332	-200.000	-0.054	-0.478
-616.317	515.728	-0.042	-0.099
-615.303	-38.019	0.018	-0.009
-614.288	800.000	0.057	0.213
-613.273	-200.000	0.013	0.298
-612.259	29.675	-0.036	-0.031
-611.244	-200.000	0.030	-0.181
-610.230	281.303	-0.138	-0.247
-609.215	-48.683	-0.102	-0.049
-608.201	86.079	-0.075	0.083
-607.186	25.392	0.185	-0.153
-606.171	-40.230	-0.114	0.059
-605.157	-200.000	0.010	0.169
-604.142	84.997	-0.235	-0.257
-603.128	328.078	0.022	-0.042
-602.113	-15.093	-0.191	-0.122
-601.098	-87.620	0.161	-0.049
-600.084	-42.756	-0.598	-0.304
-599.069	142.359	0.210	0.278
-598.055	208.157	0.129	-0.201
-597.040	-91.569	-0.010	0.003
-596.025	2.323	0.222	0.160
-595.011	-124.043	0.180	0.028
-593.996	394.824	-0.050	-0.104
-592.982	-200.000	0.019	-0.246
-591.967	-50.557	-0.428	0.202
-590.952	86.102	0.425	-0.467
-589.938	-177.578	0.189	0.005
-588.923	800.000	0.090	0.281
-587.909	220.837	-0.067	0.107
-586.894	-123.926	-0.156	0.025
-585.879	-101.365	0.484	0.118
-584.865	-79.929	0.068	0.023
-583.850	-33.886	-0.115	-0.063
-582.836	-200.000	-0.041	-0.291
-581.821	50.082	-0.200	0.188
-580.806	800.000	0.048	0.167
-579.792	217.925	-0.027	0.043
-578.777	-138.082	0.128	0.014
-577.763	155.639	-0.198	-0.272
-576.748	-4.921	-0.153	0.105
-575.733	123.890	0.208	0.261
-574.719	587.163	-0.094	-0.232
-573.704	-200.000	0.001	-0.082
-572.690	69.693	-0.175	-0.180
-571.675	-102.976	0.461	0.109
-570.661	232.279	0.139	0.227
-569.646	-200.000	-0.046	-0.271
-568.631	-200.000	0.013	-0.252
-567.617	475.150	0.045	0.102
-566.602	-1.909	-0.048	-0.034
-565.588	-200.000	0.026	0.219
-564.573	-95.869	0.282	-0.075
-563.558	-83.163	-0.186	0.060
-562.544	-200.000	0.021	0.152
-561.529	103.565	0.090	-0.106
-560.515	-25.586	-0.092	0.054
-559.500	-106.509	0.371	-0.082
-558.485	467.914	0.016	-0.036
-557.471	-120.135	0.281	-0.048
-556.456	800.000	0.082	-0.241
-555.442	-21.954	-0.188	0.114
-554.427	-105.526	0.240	-0.054
-553.412	-200.000	0.011	0.174
-552.398	-66.740	-0.276	0.109
-551.383	-89.458	0.217	0.064
-550.369	-93.621	-0.293	0.081
-549.354	538.006	0.149	0.352
-548.339	-28.836	-0.391	-0.224
-547.325	4.477	0.327	0.239
-546.310	-200.000	0.011	0.201
-545.296	-200.000	-0.004	-0.071
-544.281	-146.462	0.187	-0.016
-543.266	-75.772	-0.137	0.048
-542.252	-200.000	0.081	-0.383
-541.237	29.274	-0.150	-0.127
-540.223	36.810	-0.253	-0.223
-539.208	-49.518	0.083	-0.039
-538.193	547.717	0.131	0.313
-537.179	800.000	-0.017	-0.057
-536.164	800.000	0.152	-0.435
-535.150	168.178	-0.155	-0.220
-534.135	-73.920	-0.159	-0.057
-533.121	7.948	-0.078	-0.058
-532.106	631.101	-0.024	-0.060
-531.091	-200.000	0.038	-0.294
-530.077	-23.151	0.147	0.088
-529.062	-94.846	0.194	-0.052
-528.048	657.982	0.046	0.118
-527.033	19.773	-0.260	0.209
-526.018	36.980	0.373	0.328
-525.004	-73.028	-0.086	-0.031
-523.989	-200.000	0.004	-0.076
-522.975	800.000	0.045	-0.167
-521.960	318.165	-0.046	0.086
-520.945	358.500	-0.059	-0.117
-519.931	342.653	0.096	-0.187
-518.916	800.000	-0.031	0.098
-517.902	-165.404	-0.113	-0.005
-516.887	-200.000	0.020	0.278
-515.872	333.267	-0.213	0.410
-514.858	156.911	-0.130	-0.179
-513.843	-37.276	-0.069	0.037
-512.829	800.000	-0.054	0.171
-511.814	800.000	0.030	0.095
-510.799	800.000	-0.010	0.041
-509.785	47.011	-0.172	-0.159
-508.770	-99.560	-0.133	-0.033
-507.756	-200.000	-0.081	-0.377
-506.741	800.000	-0.056	-0.214
-505.726	87.412	-0.043	0.047
-504.712	462.296	0.176	0.391
-503.697	135.203	-0.074	0.096
-502.683	-112.506	-0.199	0.039
-501.668	-1.991	0.086	-0.060
-500.653	-143.133	0.088	-0.008
-499.639	30.857	-0.113	-0.097
-498.624	-140.420	0.181	-0.019
-497.610	-93.391	0.324	0.089
-496.595	-159.957	-0.156	-0.008
-495.581	-22.150	0.110	-0.066
-494.566	800.000	0.050	0.203
-493.551	-200.000	-0.181	-0.000
-492.537	-147.522	0.395	-0.033
-491.522	-200.000	-0.006	-0.067
-490.508	470.451	-0.087	0.195
-489.493	-112.216	0.311	0.062
-488.478	-64.999	0.239	-0.096
-487.464	399.857	0.131	0.273
-486.449	0.716	0.038	-0.027
-485.435	77.250	-0.126	0.133
-484.420	-58.922	0.108	-0.046
-483.405	-190.542	-0.175	0.002
-482.391	-61.526	-0.300	-0.125
-481.376	-8.540	-0.149	-0.099
-480.362	-178.678	0.216	-0.005
-479.347	-39.164	0.101	-0.053
-478.332	230.535	-0.162	0.264
-477.318	-200.000	0.009	0.117
-476.303	-33.419	0.247	0.135
-475.289	-200.000	-0.034	-0.195
-474.274	206.441	0.057	0.088
-473.259	800.000	0.091	0.369
-472.245	-129.447	-0.292	0.040
-471.230	800.000	-0.070	0.254
-470.216	-200.000	-0.118	0.531
-469.201	23.699	0.156	0.128
-468.186	-87.755	-0.243	0.073
-467.172	800.000	-0.063	0.189
-466.157	379.380	0.047	-0.096
-465.143	-125.867	0.419	-0.063
-464.128	-33.199	-0.241	-0.132
-463.113	46.636	0.251	-0.232
-462.099	800.000	-0.068	-0.189
-461.084	394.929	-0.126	0.260
-460.070	534.707	-0.087	-0.205
-459.055	-18.003	0.301	0.187
-458.040	-43.180	-0.360	-0.181
-457.026	76.204	0.136	-0.143
-456.011	-200.000	0.031	0.220
-454.997	-128.826	-0.083	-0.012
-453.982	43.453	-0.256	0.232
-452.968	-159.251	-0.209	0.012
-451.953	564.149	0.074	0.178
-450.938	-83.756	0.087	0.028
-449.924	-136.341	-0.020	0.002
-448.909	-166.011	0.104	0.004
-447.895	148.767	-0.113	-0.151
-446.880	-95.796	-0.150	-0.040
-445.865	99.477	-0.086	-0.099
-444.851	209.300	0.025	0.038
-443.836	-200.000	0.001	-0.149
-442.822	-200.000	0.024	-0.166
-441.807	182.924	0.120	0.175
-440.792	-55.129	-0.242	0.108
-439.778	-200.000	-0.002	-0.206
-438.763	-200.000	-0.052	-0.323
-437.749	695.656	-0.083	-0.216
-436.734	-114.712	-0.152	-0.029
-435.719	-78.353	-0.092	-0.031
-434.705	-83.030	-0.110	0.035
-433.690	-131.032	-0.215	-0.029
-432.676	-22.697	-0.347	-0.208
-431.661	18.999	-0.305	-0.243
-430.646	-200.000	0.037	0.262
-429.632	9.935	0.283	-0.213
-428.617	-122.054	-0.314	0.051
-427.603	429.150	0.029	-0.062
-426.588	35.950	-0.030	0.026
-425.573	98.012	0.030	0.034
-424.559	-57.603	0.544	0.237
-423.544	-53.576	-0.435	-0.197
-422.530	-200.000	0.006	-0.057
-421.515	39.502	0.058	0.052
-420.500	200.370	0.158	-0.240
-419.486	-108.846	-0.209	0.044
-418.471	-58.421	-0.168	-0.072
-417.457	-200.000	0.018	-0.212
-416.442	800.000	-0.066	-0.237
-415.428	260.618	-0.149	-0.255
-414.413	-36.935	-0.153	0.081
-413.398	-73.871	0.214	-0.077
-412.384	800.000	0.016	0.047
-411.369	264.732	0.133	-0.230
-410.355	69.118	0.086	-0.088
-409.340	-162.599	0.544	0.027
-408.325	135.315	-0.097	-0.124
-407.311	-200.000	-0.026	-0.175
-406.296	-140.714	0.348	-0.036
-405.282	-200.000	-0.022	-0.124
-404.267	-101.358	-0.183	-0.044
-403.252	-103.697	0.281	0.065
-402.238	-6.651	0.186	0.126
-401.223	-135.619	-0.327	0.038
-400.209	61.465	0.047	0.047
-399.194	189.008	-0.225	0.333
-398.179	-122.673	0.297	0.048
-397.165	142.092	0.201	0.264
-396.150	-52.010	-0.168	-0.077
-395.136	800.000	-0.078	-0.324
-394.121	30.284	-0.189	0.160
-393.106	624.390	0.086	0.214
-392.092	116.740	0.074	-0.090
-391.077	306.244	0.205	-0.377
-390.063	-45.417	-0.156	-0.077
-389.048	-90.514	0.157	0.045
-388.033	-38.952	0.074	-0.038
-387.019	-111.871	-0.089	-0.018
-386.004	-200.000	0.000	-0.169
-384.990	6.645	0.272	0.200
-383.975	-91.167	-0.277	0.079
-382.960	-200.000	0.049	-0.212
-381.946	60.150	-0.048	0.047
-380.931	389.862	-0.009	0.018
-379.917	-200.000	0.012	0.060
-378.902	800.000	0.044	-0.179
-377.888	-16.760	-0.112	-0.070
-376.873	187.145	-0.041	0.061
-375.858	-33.558	0.212	0.116
-374.844	-143.321	0.260	-0.025
-373.829	-0.331	-0.044	-0.031
-372.815	389.716	0.165	0.338
-371.800	-200.000	0.049	0.290
-370.785	-125.768	-0.105	-0.016
-369.771	-136.119	-0.354	0.041
-368.756	-23.898	0.272	-0.161
-367.742	-59.495	0.263	-0.112
-366.727	-128.709	-0.238	0.033
-365.712	77.326	-0.185	0.195
-364.698	-66.210	0.233	0.092
-363.683	-44.574	-0.231	0.114
-362.669	170.263	0.212	-0.300
-361.654	12.877	0.087	0.067
-360.639	-200.000	-0.232	0.000
-359.625	-200.000	-0.007	0.113
-358.610	-100.288	-0.191	0.047
-357.596	-200.000	-0.064	-0.374
-356.581	712.428	0.082	-0.216
-355.566	800.000	-0.116	0.327
-354.552	800.000	0.034	-0.109
-353.537	-135.131	-0.205	-0.024
-352.523	-200.000	-0.041	0.270
-351.508	-200.000	-0.053	0.285
-350.493	-200.000	-0.115	0.519
-349.479	-200.000	0.004	0.216
-348.464	-103.819	-0.142	0.033
-347.450	-43.232	-0.125	0.062
-346.435	438.823	0.192	0.414
-345.420	229.949	0.144	0.232
-344.406	-81.050	-0.145	-0.048
-343.391	209.499	-0.145	-0.224
-342.377	-200.000	-0.001	-0.427
-341.362	-200.000	-0.018	-0.218
-340.348	-14.898	-0.302	-0.191
-339.333	1.192	0.068	0.048
-338.318	-200.000	0.016	0.072
-337.304	-174.493	-0.224	0.006
-336.289	800.000	0.061	0.223
-335.275	-200.000	-0.023	-0.177
-334.260	3.580	-0.237	0.171
-333.245	-86.449	-0.187	0.057
-332.231	84.718	0.046	-0.050
-331.216	-72.785	-0.093	0.034
-330.202	-200.000	-0.065	0.562
-329.187	-75.082	-0.053	-0.019
-328.172	-62.637	0.137	-0.056
-327.158	-59.073	-0.282	0.120
-326.143	346.053	-0.102	0.199
-325.129	105.076	0.056	-0.065
-324.114	-200.000	-0.016	-0.199
-323.099	800.000	0.107	-0.308
-322.085	-32.291	0.195	0.108
-321.070	-200.000	-0.006	0.117
-320.056	416.741	0.092	0.194
-319.041	-200.000	0.003	-0.202
-318.026	383.742	0.104	-0.211
-317.012	-47.900	0.124	-0.059
-315.997	-87.027	-0.034	-0.010
-314.983	-107.025	0.147	0.032
-313.968	-200.000	0.066	-0.356
-312.953	-89.872	-0.209	-0.060
-311.939	208.872	-0.103	0.159
-310.924	-90.950	-0.247	0.070
-309.910	-200.000	-0.039	0.245
-308.895	-200.000	0.043	-0.449
-307.880	42.753	-0.205	-0.184
-306.866	-164.605	0.248	0.011
-305.851	-40.726	-0.165	0.085
-304.837	-50.533	-0.215	-0.100
-303.822	89.214	0.186	-0.204
-302.807	-49.031	0.236	-0.112
-301.793	-200.000	0.025	-0.173
-300.778	251.344	0.173	-0.290
-299.764	-200.000	0.008	0.143
-298.749	800.000	0.008	0.031
-297.735	-79.116	0.276	-0.092
-296.720	-200.000	0.025	-0.211
-295.705	-41.940	-0.208	0.105
-294.691	124.834	-0.165	-0.205
-293.676	159.379	0.273	-0.375
-292.662	-200.000	0.007	0.035
-291.647	-200.000	-0.046	-0.245
-290.632	-67.295	0.334	-0.129
-289.618	-200.000	0.005	0.141
-288.603	800.000	-0.081	-0.338
-287.589	-164.830	-0.221	0.010
-286.574	-74.685	-0.161	-0.057
-285.559	-118.361	-0.435	0.076
-284.545	-44.565	-0.150	0.074
-283.530	0.582	0.319	0.225
-282.516	-114.222	0.088	-0.017
-281.501	608.602	-0.007	-0.018
-280.486	-200.000	0.041	0.460
-279.472	-200.000	0.026	-0.442
-278.457	301.267	0.143	-0.260
-277.443	656.776	-0.068	0.172
-276.428	-200.000	0.039	0.321
-275.413	-12.870	-0.036	0.023
-274.399	-200.000	-0.026	0.302
-273.384	91.400	0.118	0.131
-272.370	-10.065	0.139	0.091
-271.355	339.672	0.017	-0.033
-270.340	30.853	-0.268	-0.226
-269.326	-145.261	-0.261	0.023
-268.311	-145.876	-0.164	0.014
-267.297	800.000	0.128	-0.353
-266.282	190.735	-0.050	0.074
-265.267	-156.333	-0.300	0.019
-264.253	-74.065	0.097	0.035
-263.238	-200.000	0.072	0.312
-262.224	-87.640	0.170	0.051
-261.209	400.022	-0.057	0.117
-260.195	-200.000	-0.006	0.199
-259.180	800.000	0.007	0.023
-258.165	-65.688	0.132	-0.052
-257.151	371.832	0.038	-0.076
-256.136	-76.288	-0.156	0.054
-255.122	-47.426	-0.192	-0.092
-254.107	137.500	-0.093	-0.120
-253.092	-174.391	-0.231	-0.007
-252.078	-200.000	-0.042	0.223
-251.063	-187.528	0.677	0.009
-250.049	67.507	0.142	0.143
-249.034	-24.459	-0.232	-0.136
-248.019	-146.617	0.218	-0.019
-247.005	41.106	-0.228	-0.202
-245.990	2.335	-0.270	0.192
-244.976	-89.425	0.171	0.050
-243.961	-91.820	-0.197	0.055
-242.946	-200.000	-0.038	-0.187
-241.932	-200.000	0.064	0.417
-240.917	-119.648	0.176	-0.030
-239.903	-200.000	0.001	0.071
-238.888	-36.222	0.284	0.151
-237.873	-200.000	-0.028	-0.137
-236.859	-53.137	0.289	-0.131
-235.844	162.904	-0.202	0.280
-234.830	-200.000	0.004	0.246
-233.815	-25.278	-0.140	0.082
-232.800	23.005	0.245	-0.198
-231.786	-200.000	-0.008	0.255
-230.771	-98.463	0.185	-0.047
-229.757	29.038	-0.242	0.202
-228.742	16.160	-0.108	-0.084
-227.727	-123.293	0.289	0.046
-226.713	800.000	0.069	-0.194
-225.698	152.644	0.102	0.138
-224.684	88.565	0.156	0.171
-223.669	-29.728	0.347	0.195
-222.655	800.000	0.043	-0.157
-221.640	-159.056	-0.366	-0.020
-220.625	56.246	0.148	-0.142
-219.611	-121.138	0.377	0.062
-218.596	-200.000	-0.002	-0.159
-217.582	435.042	-0.084	0.180
-216.567	25.376	0.372	0.304
-215.552	-40.920	0.105	-0.053
-214.538	-159.331	-0.200	-0.011
-213.523	800.000	-0.068	-0.239
-212.509	89.065	0.086	0.095
-211.494	-142.616	-0.138	0.013
-210.479	-178.634	-0.170	0.004
-209.465	-76.483	0.201	-0.069
-208.450	-36.129	-0.193	0.102
-207.436	79.326	-0.310	0.327
-206.421	113.105	-0.177	-0.211
-205.406	257.596	0.065	-0.109
-204.392	-200.000	-0.043	-0.215
-203.377	391.770	0.114	-0.234
-202.363	800.000	0.052	0.195
-201.348	-88.378	0.144	0.042
-200.333	-200.000	0.009	-0.045
-199.319	-200.000	-0.003	0.106
-198.304	-66.011	0.155	0.061
-197.290	-94.641	0.410	0.110
-196.275	-57.354	-0.141	-0.061
-195.260	-27.872	0.184	-0.105
-194.246	-200.000	-0.030	-0.130
-193.231	504.158	0.050	0.113
-192.217	800.000	0.056	-0.178
-191.202	800.000	-0.043	-0.119
-190.187	-42.559	-0.201	0.100
-189.173	270.589	-0.111	0.191
-188.158	70.900	0.307	0.312
-187.144	319.088	0.154	-0.286
-186.129	800.000	0.050	-0.207
-185.114	-124.206	-0.384	-0.059
-184.100	-116.661	-0.168	0.030
-183.085	800.000	0.054	-0.221
-182.071	-40.771	-0.225	0.114
-181.056	264.125	0.055	0.094
-180.042	5.635	0.183	-0.133
-179.027	-85.084	-0.411	0.127
-178.012	-18.079	0.134	-0.082
-176.998	175.714	0.239	-0.341
-175.983	-200.000	-0.061	-0.287
-174.969	-122.618	0.135	0.021
-173.954	-200.000	-0.042	0.456
-172.939	-200.000	-0.059	0.295
-171.925	-200.000	0.036	0.217
-170.910	129.813	0.223	0.280
-169.896	207.880	-0.100	-0.153
-168.881	-83.824	0.269	-0.084
-167.866	491.099	0.135	0.303
-166.852	800.000	-0.032	-0.116
-165.837	98.282	-0.191	0.216
-164.823	-35.099	-0.262	-0.140
-163.808	-129.820	0.142	0.019
-162.793	-147.676	-0.182	-0.015
-161.779	58.300	0.089	0.086
-160.764	-200.000	0.011	-0.146
-159.750	-200.000	0.002	-0.036
-158.735	116.148	0.294	0.354
-157.720	555.080	0.121	0.287
-156.706	166.668	-0.263	0.366
-155.691	-22.035	-0.064	-0.038
-154.677	69.889	-0.038	0.038
-153.662	-200.000	-0.004	0.271
-152.647	144.891	0.074	0.098
-151.633	-200.000	-0.017	0.244
-150.618	150.109	0.175	0.234
-149.604	7.655	0.012	0.009
-148.589	4.940	0.376	0.272
-147.574	526.236	0.053	-0.123
-146.560	-67.753	0.254	-0.097
-145.545	800.000	-0.032	-0.092
-144.531	-200.000	-0.022	0.264
-143.516	27.789	-0.273	0.225
-142.502	89.022	-0.143	-0.157
-141.487	-50.528	0.187	-0.086
-140.472	281.012	-0.068	-0.120
-139.458	36.562	-0.071	-0.061
-138.443	-200.000	-0.005	-0.172
-137.429	24.192	0.267	0.216
-136.414	20.050	0.101	0.079
-135.399	224.331	0.164	0.259
-134.385	-66.810	0.227	-0.088
-133.370	-131.359	-0.208	-0.027
-132.356	-128.860	-0.373	0.051
-131.341	155.620	-0.170	-0.229
-130.326	-191.896	0.088	0.001
-129.312	507.139	0.058	-0.132
-128.297	341.530	-0.159	0.306
-127.283	169.108	0.083	-0.116
-126.268	-163.834	-0.192	-0.009
-125.253	-51.547	-0.076	0.035
-124.239	800.000	-0.108	-0.338
-123.224	-91.993	0.332	0.092
-122.210	101.373	0.076	0.087
-121.195	391.655	0.108	0.220
-120.180	-200.000	0.032	-0.233
-119.166	-33.862	-0.403	-0.218
-118.151	-192.350	0.230	-0.002
-117.137	7.627	0.109	-0.080
-116.122	140.352	0.057	0.074
-115.107	-30.673	-0.332	-0.184
-114.093	158.644	0.115	0.157
-113.078	-67.948	-0.214	0.082
-112.064	-200.000	0.007	-0.072
-111.049	63.130	0.226	-0.221
-110.034	51.022	0.177	-0.164
-109.020	800.000	-0.092	-0.259
-108.005	173.206	0.078	-0.110
-106.991	-19.339	0.099	-0.060
-105.976	108.152	0.115	0.135
-104.962	511.671	0.097	0.221
-103.947	-200.000	-0.003	-0.022
-102.932	-200.000	-0.021	-0.240
-101.918	-13.745	-0.055	0.035
-100.903	-129.333	-0.091	-0.012
-99.889	198.749	0.100	-0.150
-98.874	-15.617	-0.370	-0.231
-97.859	-113.364	0.143	-0.028
-96.845	146.801	0.223	0.294
-95.830	136.116	-0.167	-0.213
-94.816	-167.976	0.240	0.009
-93.801	-114.995	-0.060	0.011
-92.786	-56.820	-0.187	0.081
-91.772	58.580	0.151	0.145
-90.757	-92.301	-0.396	0.109
-89.743	345.823	0.220	-0.424
-88.728	-200.000	0.224	0.000
-87.713	-94.201	0.044	0.012
-86.699	-76.083	-0.101	0.035
-85.684	-89.371	-0.206	0.059
-84.670	-53.710	0.270	0.121
-83.655	-99.901	-0.087	0.021
-82.640	63.311	-0.119	-0.117
-81.626	67.386	-0.087	0.087
-80.611	137.290	0.231	0.295
-79.597	-200.000	-0.057	0.301
-78.582	-120.635	-0.235	0.039
-77.567	-3.945	-0.087	-0.059
-76.553	171.221	-0.168	0.236
-75.538	325.732	-0.061	-0.114
-74.524	-58.184	0.115	0.049
-73.509	655.651	0.080	-0.202
-72.494	-200.000	0.004	-0.076
-71.480	-112.847	0.044	0.009
-70.465	-114.542	-0.103	0.019
-69.451	-66.918	-0.256	0.099
-68.436	-20.836	-0.293	0.175
-67.422	-200.000	0.070	-0.318
-66.407	-200.000	0.030	-0.462
-65.392	-200.000	-0.002	0.113
-64.378	156.875	0.029	0.039
-63.363	-200.000	-0.055	0.256
-62.349	185.781	-0.102	-0.149
-61.334	58.326	-0.887	-0.851
-60.319	161.438	0.476	0.650
-59.305	472.915	-0.365	-0.804
-58.290	800.000	0.309	1.065
-57.276	800.000	0.319	1.329
-56.261	-200.000	111.451	647.829
-55.246	490.327	1485.896	3322.077
-54.232	150.464	2656.615	3525.901
-53.217	98.703	2273.075	2562.854
-52.203	36.915	1891.248	1634.385
-51.188	31.061	1685.159	1412.063
-50.173	28.509	1643.838	1358.511
-49.159	50.686	1697.990	1570.525
-48.144	49.473	1712.644	1574.914
-47.130	30.747	1671.394	1397.951
-46.115	27.995	1657.416	1365.669
-45.100	27.738	1652.642	1359.770
-44.086	27.683	1650.030	1357.157
-43.071	27.768	1647.290	1355.480
-42.057	27.793	1644.546	1353.353
-41.042	27.735	1642.713	1351.358
-40.027	27.754	1641.091	1350.111
-39.013	27.775	1638.755	1348.292
-37.998	27.700	1637.937	1347.013
-36.984	27.732	1636.673	1346.154
-35.969	27.862	1634.653	1345.400
-34.954	27.929	1633.079	1344.547
-33.940	27.807	1631.400	1342.213
-32.925	27.865	1629.489	1341.013
-31.911	27.964	1627.606	1340.137
-30.896	27.797	1625.839	1337.402
-29.881	27.816	1624.655	1336.515
-28.867	27.824	1622.851	1335.036
-27.852	27.845	1621.392	1333.935
-26.838	27.809	1620.174	1332.621
-25.823	27.836	1618.924	1331.736
-24.809	27.915	1617.816	1331.344
-23.794	27.900	1616.256	1329.903
-22.779	27.950	1614.662	1328.903
-21.765	27.884	1613.239	1327.199
-20.750	27.892	1611.723	1325.953
-19.736	27.856	1610.398	1324.551
-18.721	27.932	1609.026	1323.923
-17.706	27.916	1607.502	1322.497
-16.692	27.904	1605.596	1320.791
-15.677	27.847	1604.520	1319.446
-14.663	28.024	1603.227	1319.601
-13.648	27.986	1601.861	1318.153
-12.633	27.986	1600.056	1316.616
-11.619	27.944	1598.230	1314.756
-10.604	27.911	1597.280	1313.690
-9.590	27.909	1596.159	1312.697
-8.575	27.836	1595.111	1311.263
-7.560	27.975	1593.354	1310.764
-6.546	27.914	1592.539	1309.603
-5.531	27.959	1591.286	1308.844
-4.517	27.937	1590.511	1307.993
-3.502	27.954	1589.137	1306.933
-2.487	27.894	1587.782	1305.341
-1.473	27.607	1575.453	1293.121
-0.458	24.756	1556.137	1257.207
0.556	19.114	1557.089	1225.584
1.571	16.802	1580.468	1227.150
2.586	16.327	1592.665	1233.047
3.600	15.518	1542.181	1188.135
4.615	12.716	1444.780	1094.395
5.629	9.883	1389.940	1034.628
6.644	9.407	1382.325	1025.834
7.659	9.406	1380.952	1024.718
8.673	9.400	1379.930	1023.833
9.688	9.258	1378.017	1021.421
10.702	9.180	1374.824	1018.467
11.717	10.489	1377.049	1028.334
12.731	13.897	1382.778	1054.195
13.746	16.760	1386.854	1075.409
14.761	17.302	1386.352	1078.366
15.775	16.304	1384.536	1070.533
16.790	15.278	1381.478	1061.576
17.804	14.506	1378.948	1054.663
18.819	14.039	1377.649	1050.623
19.834	13.712	1376.449	1047.548
20.848	13.430	1375.218	1044.741
21.863	13.276	1374.140	1042.856
22.877	13.118	1373.093	1040.973
23.892	13.081	1372.001	1039.818
24.907	13.096	1371.266	1039.268
25.921	13.142	1370.293	1038.728
26.936	13.200	1368.941	1037.972
27.950	13.199	1368.163	1037.284
28.965	13.253	1366.733	1036.448
29.980	13.331	1365.768	1036.116
30.994	13.315	1364.550	1034.996
32.009	13.414	1363.653	1034.846
33.023	13.282	1362.823	1033.296
34.038	13.303	1361.005	1031.960
35.053	13.283	1359.644	1030.711
36.067	13.230	1358.056	1029.087
37.082	13.295	1357.409	1028.910
38.096	13.360	1356.432	1028.482
39.111	13.227	1355.769	1027.063
40.126	13.281	1354.292	1026.189
41.140	13.026	1354.066	1024.346
42.155	12.973	1353.828	1023.745
43.169	13.040	1353.077	1023.500
44.184	13.067	1352.684	1023.279
45.199	12.990	1352.561	1022.618
46.213	13.065	1351.864	1022.467
47.228	13.183	1350.668	1022.201
48.242	13.121	1349.843	1021.101
49.257	13.180	1347.908	1019.912
50.271	13.160	1347.069	1019.062
51.286	13.249	1345.071	1018.010
52.301	13.218	1343.912	1016.852
53.315	13.166	1343.327	1016.005
54.330	13.141	1342.406	1015.063
55.344	13.101	1341.127	1013.756
56.359	13.169	1339.593	1012.928
57.374	13.062	1339.295	1011.956
58.388	12.906	1338.671	1010.438
59.403	12.944	1338.104	1010.154
60.417	13.046	1336.859	1009.750
61.432	12.867	1336.400	1008.219
62.447	12.992	1335.152	1007.950
63.461	12.946	1334.101	1006.788
64.476	12.854	1333.212	1005.468
65.490	12.970	1331.870	1005.071
66.505	12.965	1329.983	1003.527
67.520	12.974	1329.186	1002.895
68.534	12.903	1328.432	1001.805
69.549	12.931	1327.537	1001.213
70.563	12.904	1326.095	999.871
71.578	12.876	1325.276	998.996
72.593	12.863	1324.125	997.962
73.607	12.840	1323.528	997.283
74.622	12.788	1322.363	996.006
75.636	12.882	1321.854	996.097
76.651	12.790	1321.057	994.858
77.666	12.837	1320.651	994.747
78.680	12.890	1319.818	994.349
79.695	12.867	1319.213	993.668
80.709	12.928	1318.330	993.281
81.724	13.036	1317.485	993.205
82.739	13.069	1316.532	992.597
83.753	13.044	1315.698	991.731
84.768	13.212	1314.713	991.912
85.782	13.148	1313.985	990.888
86.797	13.145	1312.528	989.685
87.812	13.121	1311.230	988.475
88.826	13.169	1309.613	987.458
89.841	13.103	1308.938	986.466
90.855	13.169	1307.981	986.050
91.870	13.156	1307.332	985.396
92.884	13.240	1306.396	985.107
93.899	13.268	1305.087	984.199
94.914	13.357	1304.600	984.272
95.928	13.287	1304.139	983.421
96.943	13.134	1303.145	981.673
97.957	13.194	1301.695	980.852
98.972	13.155	1300.750	979.823
99.987	13.203	1299.443	979.033
101.001	13.211	1298.807	978.516
102.016	13.271	1297.323	977.666
103.030	13.307	1296.743	977.356
104.045	13.216	1295.741	975.976
105.060	13.203	1294.632	974.978
106.074	13.050	1293.412	973.073
107.089	12.969	1292.189	971.590
108.103	12.918	1290.837	970.184
109.118	12.931	1289.923	969.490
110.133	13.024	1288.214	968.664
111.147	12.915	1286.859	966.924
112.162	13.045	1285.787	966.792
113.176	13.109	1284.346	965.995
114.191	12.901	1283.990	964.428
115.206	13.026	1282.910	964.263
116.220	13.043	1281.331	963.088
117.235	12.932	1280.264	961.556
118.249	12.975	1279.195	960.915
119.264	12.984	1277.707	959.765
120.279	13.082	1276.495	959.339
121.293	12.960	1275.621	957.892
122.308	13.072	1274.506	957.618
123.322	13.000	1273.743	956.543
124.337	12.914	1272.700	955.174
125.352	12.963	1271.770	954.676
126.366	12.980	1270.870	954.014
127.381	12.963	1269.639	952.910
128.395	13.022	1268.259	952.131
129.410	12.847	1267.996	950.841
130.424	13.011	1266.584	950.639
131.439	13.076	1265.576	950.175
132.454	13.031	1264.731	949.194
133.468	13.084	1263.916	948.808
134.483	13.176	1262.866	948.462
135.497	13.163	1262.142	947.763
136.512	13.076	1260.970	946.295
137.527	13.089	1259.244	944.991
138.541	13.050	1258.023	943.773
139.556	13.152	1256.706	943.281
140.570	13.170	1255.800	942.618
141.585	13.228	1254.649	942.000
142.600	13.325	1253.284	941.445
143.614	13.282	1252.510	940.539
144.629	13.315	1251.561	939.930
145.643	13.245	1250.282	938.490
146.658	13.271	1249.112	937.672
147.673	13.190	1248.333	936.548
148.687	13.185	1246.764	935.259
149.702	13.127	1245.431	933.847
150.716	13.157	1243.943	932.819
151.731	13.205	1242.724	932.092
152.746	13.092	1241.804	930.684
153.760	13.160	1240.617	930.094
154.775	13.303	1239.031	929.630
155.789	13.331	1237.902	928.858
156.804	13.236	1237.225	927.731
157.819	13.364	1236.193	927.592
158.833	13.343	1235.203	926.655
159.848	13.479	1234.302	926.655
160.862	13.436	1232.624	925.072
161.877	13.223	1232.438	923.662
162.892	13.323	1231.062	923.108
163.906	13.305	1230.017	922.140
164.921	13.318	1229.356	921.638
165.935	13.314	1228.515	920.904
166.950	13.366	1227.805	920.577
167.964	13.299	1226.746	919.330
168.979	13.309	1226.073	918.800
169.994	13.371	1225.231	918.430
171.008	13.415	1224.940	918.377
172.023	13.488	1223.962	917.968
173.037	13.517	1223.170	917.451
174.052	13.495	1222.151	916.487
175.067	13.361	1221.141	914.904
176.081	13.402	1220.007	914.201
177.096	13.378	1218.988	913.225
178.110	13.391	1217.675	912.230
179.125	13.395	1216.842	911.549
180.140	13.499	1215.323	910.906
181.154	13.446	1214.411	909.847
182.169	13.556	1213.011	909.321
183.183	13.568	1211.785	908.389
184.198	13.523	1211.254	907.662
185.213	13.560	1210.374	907.126
186.227	13.633	1208.721	906.209
187.242	13.588	1207.974	905.317
188.256	13.614	1206.764	904.474
189.271	13.789	1205.485	904.392
190.286	13.558	1204.514	902.321
191.300	13.385	1203.649	900.654
192.315	13.371	1202.872	899.916
193.329	13.421	1202.370	899.731
194.344	13.474	1201.779	899.501
195.359	13.576	1201.335	899.644
196.373	13.570	1201.098	899.355
197.388	13.733	1200.149	899.447
198.402	13.795	1199.705	899.367
199.417	13.868	1198.735	898.959
200.432	13.913	1198.449	898.905
201.446	13.934	1197.237	898.034
202.461	13.965	1196.804	897.798
203.475	13.973	1195.591	896.852
204.490	13.910	1193.963	895.211
205.504	13.828	1193.355	894.232
206.519	13.807	1191.852	892.915
207.534	13.793	1190.639	891.851
208.548	13.848	1189.785	891.428
209.563	13.777	1189.114	890.466
210.577	13.875	1187.875	889.983
211.592	13.907	1186.941	889.375
212.607	14.005	1186.134	889.220
213.621	13.918	1185.425	888.142
214.636	14.046	1184.296	887.899
215.650	14.062	1183.263	887.134
216.665	14.033	1182.612	886.411
217.680	14.095	1181.726	886.000
218.694	14.131	1180.957	885.538
219.709	14.080	1180.220	884.637
220.723	14.069	1179.403	883.886
221.738	14.169	1178.654	883.779
222.753	14.100	1177.912	882.778
223.767	14.169	1177.114	882.466
224.782	14.198	1176.741	882.263
225.796	14.179	1176.179	881.665
226.811	14.293	1175.267	881.505
227.826	14.151	1174.870	880.379
228.840	14.100	1174.376	879.662
229.855	14.196	1173.218	879.223
230.869	14.208	1172.535	878.698
231.884	14.163	1171.661	877.723
232.899	14.146	1170.675	876.821
233.913	14.005	1170.321	875.732
234.928	14.188	1169.349	875.892
235.942	14.172	1168.535	875.121
236.957	14.128	1167.911	874.344
237.972	14.055	1167.446	873.534
238.986	14.105	1166.750	873.200
240.001	14.104	1165.786	872.396
241.015	14.176	1164.962	872.081
242.030	14.191	1163.969	871.340
243.045	14.236	1163.185	870.909
244.059	14.406	1162.210	870.992
245.074	14.340	1161.672	870.165
246.088	14.307	1160.698	869.188
247.103	14.403	1160.209	869.245
248.117	14.552	1159.144	869.148
249.132	14.510	1158.745	868.554
250.147	14.652	1157.752	868.467
251.161	14.705	1157.170	868.234
252.176	14.663	1156.597	867.509
253.190	14.653	1156.145	867.039
254.205	14.727	1155.698	867.012
255.220	14.738	1154.951	866.432
256.234	14.672	1154.453	865.636
257.249	14.794	1153.355	865.372
258.263	14.687	1153.242	864.653
259.278	14.709	1152.287	863.975
260.293	14.825	1151.645	864.016
261.307	14.973	1151.217	864.385
262.322	14.827	1150.508	863.023
263.336	14.898	1149.885	862.846
264.351	14.952	1149.333	862.634
265.366	14.918	1148.684	861.894
266.380	15.005	1147.733	861.555
267.395	14.954	1146.764	860.485
268.409	14.882	1146.524	859.863
269.424	14.939	1145.216	859.098
270.439	14.872	1145.261	858.709
271.453	14.908	1144.668	858.376
272.468	14.824	1143.036	856.644
273.482	14.908	1142.356	856.490
274.497	14.845	1142.005	855.827
275.512	14.878	1141.267	855.365
276.526	14.820	1140.606	854.499
277.541	14.885	1140.283	854.511
278.555	14.804	1139.389	853.352
279.570	14.932	1138.621	853.359
280.585	15.035	1137.785	853.182
281.599	15.095	1136.432	852.394
282.614	15.010	1136.137	851.665
283.628	15.131	1134.495	850.973
284.643	14.988	1133.567	849.478
285.657	15.020	1133.028	849.158
286.672	15.053	1132.200	848.633
287.687	15.087	1131.171	847.956
288.701	15.151	1130.155	847.447
289.716	15.088	1129.561	846.607
290.730	15.133	1128.846	846.222
291.745	15.129	1128.354	845.761
292.760	15.216	1127.245	845.292
293.774	15.182	1126.845	844.747
294.789	15.226	1126.451	844.599
295.803	15.206	1126.008	844.089
296.818	15.136	1125.443	843.241
297.833	15.263	1124.447	843.055
298.847	15.238	1123.571	842.202
299.862	15.231	1122.562	841.333
300.876	15.334	1122.310	841.588
301.891	15.299	1121.329	840.600
302.906	15.337	1120.611	840.178
303.920	15.388	1120.184	840.042
304.935	15.435	1119.320	839.552
305.949	15.466	1118.931	839.345
306.964	15.499	1118.324	838.979
307.979	15.524	1117.203	838.186
308.993	15.543	1116.979	838.040
310.008	15.497	1115.942	836.956
311.022	15.597	1114.940	836.631
312.037	15.543	1113.992	835.578
313.052	15.571	1113.122	834.989
314.066	15.451	1112.101	833.555
315.081	15.414	1111.609	832.930
316.095	15.474	1111.185	832.836
317.110	15.472	1110.360	832.133
318.125	15.452	1109.257	831.132
319.139	15.424	1108.524	830.372
320.154	15.413	1108.048	829.887
321.168	15.411	1107.601	829.471
322.183	15.446	1106.575	828.798
323.197	15.488	1106.120	828.592
324.212	15.434	1105.222	827.579
325.227	15.502	1105.190	827.819
326.241	15.642	1104.295	827.766
327.256	15.458	1103.392	826.111
328.270	15.590	1102.213	825.800
329.285	15.489	1101.821	824.940
330.300	15.589	1100.903	824.668
331.314	15.556	1099.602	823.459
332.329	15.573	1099.061	823.067
333.343	15.453	1098.304	821.841
334.358	15.637	1097.421	822.004
335.373	15.596	1096.915	821.352
336.387	15.774	1095.624	821.182
337.402	15.800	1094.727	820.566
338.416	15.798	1094.004	819.938
339.431	15.871	1093.434	819.794
340.446	15.876	1092.988	819.414
341.460	15.896	1092.253	818.886
342.475	15.764	1091.788	817.824
343.489	15.968	1090.622	817.868
344.504	16.069	1089.758	817.641
345.519	16.060	1088.977	816.935
346.533	16.076	1088.335	816.460
347.548	16.128	1087.912	816.321
348.562	16.028	1086.989	815.072
349.577	15.945	1085.950	813.825
350.592	15.882	1085.402	813.034
351.606	15.944	1084.526	812.606
352.621	15.973	1083.636	812.007
353.635	15.874	1083.433	811.304
354.650	15.995	1082.355	811.009
355.665	15.961	1081.694	810.280
356.679	15.966	1081.044	809.744
357.694	15.978	1080.813	809.557
358.708	15.927	1080.169	808.761
359.723	16.109	1079.452	809.025
360.738	16.126	1078.668	808.445
361.752	16.132	1078.151	808.015
362.767	16.135	1077.585	807.535
363.781	16.162	1077.265	807.354
364.796	16.170	1076.418	806.683
365.810	16.311	1075.794	806.817
366.825	16.295	1075.369	806.350
367.840	16.308	1074.718	805.856
368.854	16.356	1074.225	805.641
369.869	16.449	1073.101	805.170
370.883	16.366	1072.548	804.289
371.898	16.358	1071.756	803.585
372.913	16.394	1070.916	803.057
373.927	16.376	1070.609	802.672
374.942	16.434	1070.084	802.481
375.956	16.458	1069.683	802.225
376.971	16.483	1068.941	801.713
377.986	16.408	1068.770	801.160
379.000	16.633	1067.638	801.307
380.015	16.568	1067.223	800.614
381.029	16.633	1066.441	800.265
382.044	16.641	1065.610	799.609
383.059	16.620	1064.959	798.953
384.073	16.741	1064.215	798.893
385.088	16.615	1063.490	797.684
386.102	16.735	1062.360	797.331
387.117	16.460	1061.705	795.475
388.132	16.566	1060.628	795.096
389.146	16.519	1060.079	794.393
390.161	16.512	1059.266	793.683
391.175	16.568	1058.691	793.442
392.190	16.507	1058.451	792.905
393.205	16.693	1056.987	792.610
394.219	16.812	1056.024	792.376
395.234	16.623	1055.518	791.039
396.248	16.664	1054.409	790.333
397.263	16.742	1053.133	789.669
398.278	16.566	1052.980	788.665
399.292	16.596	1052.428	788.321
400.307	16.580	1051.318	787.345
401.321	16.586	1050.853	786.956
402.336	16.661	1050.216	786.759
403.350	16.687	1049.493	786.266
404.365	16.739	1048.994	786.065
405.380	16.763	1048.360	785.632
406.394	16.835	1047.422	785.191
407.409	16.687	1046.810	783.979
408.423	16.845	1046.079	784.093
409.438	16.880	1045.409	783.684
410.453	17.031	1044.646	783.738
411.467	16.975	1044.086	782.989
412.482	17.091	1043.410	782.950
413.496	17.203	1042.473	782.694
414.511	17.111	1042.020	781.861
415.526	17.148	1041.874	781.854
416.540	17.172	1041.181	781.373
417.555	17.063	1040.901	780.591
418.569	17.107	1040.367	780.324
419.584	17.083	1039.766	779.695
420.599	17.193	1039.225	779.727
421.613	104.863	1325.451	1478.092
422.628	96.200	1367.120	1478.200
