DTS Sentinel unit serial number:	SN413079Multiplexer serial number:	ORYXHardware model number:	OX4-SRSoftware version number:	ORYX F/W v4.00 Oryx Data Collector v3.7.2.0data status	okinstallation	princeton_trtdifferential loss correction	single-endedforward channel	channel 2reverse channel	N/Adate	2019/09/18time	23:19:35forward acquisition time	60.00reverse acquisition time	0.00gamma	496.2192k internal	0.2349k external	0.2349temperature offset calibration	1.0020default loss term (dB/km)	0.3790temperature slope calibration	1.0000multiplexer offset coefficient	1.0000multiplexer slope coefficient	1.0000fibre end	0.00T internal ref (°C)	23.84T ext. ref 1 (°C)	0.78T ext. ref 2 (°C)	17.03length (m)	temperature (°C)	Stokes	anti-Stokes-747.200	-200.000	0.000	-0.258
-746.185	258.967	-0.156	0.269
-745.171	281.470	0.112	-0.200
-744.156	-52.764	-0.274	0.126
-743.142	800.000	-0.065	-0.227
-742.127	800.000	0.052	0.200
-741.112	-48.458	-0.167	-0.080
-740.098	201.430	0.128	0.197
-739.083	35.863	-0.068	0.060
-738.069	25.059	0.112	0.093
-737.054	-15.794	-0.193	0.123
-736.039	-83.777	-0.196	0.062
-735.025	68.165	-0.204	0.209
-734.010	40.507	-0.079	0.071
-732.996	-200.000	0.014	-0.329
-731.981	274.260	0.129	-0.227
-730.966	-94.924	0.041	-0.011
-729.952	-200.000	-0.011	0.052
-728.937	115.591	-0.180	0.219
-727.923	105.073	-0.011	0.013
-726.908	164.963	0.032	-0.045
-725.894	-200.000	0.030	-0.197
-724.879	771.815	-0.096	0.261
-723.864	-27.326	0.036	-0.021
-722.850	-74.317	-0.182	-0.065
-721.835	800.000	0.095	-0.345
-720.821	298.413	-0.128	-0.234
-719.806	-10.491	-0.139	-0.092
-718.791	-200.000	-0.013	-0.286
-717.777	800.000	0.093	-0.307
-716.762	263.135	0.080	-0.138
-715.748	181.010	0.231	0.339
-714.733	446.223	0.205	-0.449
-713.718	-0.252	-0.225	-0.160
-712.704	-109.120	-0.482	0.102
-711.689	534.647	-0.055	-0.131
-710.675	-89.565	-0.064	-0.019
-709.660	-9.520	0.302	0.201
-708.645	398.723	-0.092	0.192
-707.631	-200.000	0.033	0.187
-706.616	212.860	0.159	0.251
-705.602	-162.263	-0.354	0.018
-704.587	9.154	-0.251	-0.189
-703.572	-37.031	0.267	0.142
-702.558	800.000	0.079	-0.344
-701.543	-23.625	-0.166	0.099
-700.529	-2.427	-0.149	-0.104
-699.514	-29.388	-0.166	-0.095
-698.499	800.000	-0.031	0.104
-697.485	-26.021	0.352	0.206
-696.470	272.319	0.109	-0.192
-695.456	-200.000	-0.062	0.378
-694.441	40.593	-0.249	0.223
-693.426	156.740	-0.146	-0.201
-692.412	-146.368	-0.171	0.015
-691.397	120.375	0.171	-0.211
-690.383	-200.000	-0.009	-0.105
-689.368	-200.000	0.026	-0.268
-688.354	-103.981	-0.130	-0.030
-687.339	-200.000	-0.010	-0.088
-686.324	64.007	0.166	0.166
-685.310	-200.000	-0.048	-0.273
-684.295	428.773	0.101	-0.217
-683.281	2.340	-0.153	0.111
-682.266	351.102	-0.143	0.282
-681.251	259.266	0.185	-0.319
-680.237	-53.598	0.052	-0.024
-679.222	-1.372	0.299	-0.210
-678.208	-106.846	-0.412	-0.091
-677.193	523.401	-0.116	0.273
-676.178	159.432	0.146	0.202
-675.164	800.000	0.055	0.159
-674.149	775.825	-0.068	0.186
-673.135	-134.354	-0.293	-0.036
-672.120	488.460	0.047	-0.107
-671.105	-200.000	-0.005	0.420
-670.091	-200.000	0.004	-0.071
-669.076	40.919	-0.054	-0.048
-668.062	331.151	0.119	0.229
-667.047	-79.077	-0.060	-0.020
-666.032	174.157	0.096	-0.138
-665.018	10.855	-0.184	-0.140
-664.003	-200.000	-0.003	0.309
-662.989	-136.154	0.069	-0.008
-661.974	-132.971	-0.158	-0.020
-660.959	33.229	-0.124	-0.107
-659.945	-200.000	-0.042	0.320
-658.930	76.682	0.050	-0.052
-657.916	-139.753	0.097	0.010
-656.901	62.598	0.065	-0.065
-655.886	-200.000	-0.052	0.308
-654.872	30.044	0.247	0.210
-653.857	-77.375	-0.258	-0.089
-652.843	36.933	0.127	-0.111
-651.828	800.000	-0.064	0.266
-650.814	55.669	0.083	0.080
-649.799	-77.738	-0.119	0.041
-648.784	800.000	0.134	0.378
-647.770	-93.525	0.084	-0.023
-646.755	-41.461	-0.278	-0.142
-645.741	14.265	0.380	0.294
-644.726	-170.915	0.146	-0.005
-643.711	524.930	-0.107	0.250
-642.697	-200.000	-0.003	0.040
-641.682	-154.319	-0.516	-0.035
-640.668	800.000	-0.063	-0.189
-639.653	-29.608	-0.195	-0.111
-638.638	800.000	-0.017	0.071
-637.624	-30.231	-0.245	0.138
-636.609	-173.363	-0.258	-0.008
-635.595	-134.963	-0.363	0.044
-634.580	-100.794	0.060	0.015
-633.565	603.818	-0.083	-0.206
-632.551	-31.117	0.304	0.170
-631.536	-41.113	-0.288	0.148
-630.522	707.493	-0.059	0.155
-629.507	-107.999	-0.013	-0.003
-628.492	-88.617	-0.248	-0.073
-627.478	384.425	0.128	0.261
-626.463	-79.196	-0.255	-0.086
-625.449	-200.000	-0.033	0.386
-624.434	-165.142	0.046	0.002
-623.419	-46.644	-0.317	-0.154
-622.405	800.000	0.053	-0.197
-621.390	-200.000	0.040	-0.264
-620.376	507.493	-0.219	0.504
-619.361	29.735	0.231	-0.195
-618.346	106.700	0.050	0.060
-617.332	160.336	0.206	0.286
-616.317	800.000	-0.074	0.220
-615.303	67.955	-0.112	0.114
-614.288	-200.000	-0.017	-0.076
-613.273	-13.264	0.066	-0.042
-612.259	-115.215	-0.289	0.054
-611.244	380.798	0.141	0.288
-610.230	-139.773	0.056	-0.006
-609.215	-20.122	0.172	-0.105
-608.201	-21.511	0.056	-0.034
-607.186	-19.018	-0.239	-0.147
-606.171	-118.251	-0.211	-0.037
-605.157	615.280	0.102	-0.255
-604.142	5.013	-0.094	-0.069
-603.128	425.256	0.075	-0.160
-602.113	17.644	0.378	0.299
-601.098	21.740	-0.121	0.098
-600.084	-114.899	-0.345	0.065
-599.069	1.372	0.183	-0.131
-598.055	800.000	-0.138	0.410
-597.040	-29.273	-0.147	0.083
-596.025	298.965	-0.124	0.226
-595.011	-25.449	-0.127	0.075
-593.996	27.504	-0.096	0.080
-592.982	48.002	0.320	0.297
-591.967	-107.895	-0.281	-0.061
-590.952	221.723	-0.114	-0.182
-589.938	51.637	0.080	-0.076
-588.923	680.539	0.094	0.243
-587.909	-121.995	0.066	-0.011
-586.894	-114.994	0.323	-0.061
-585.879	283.389	-0.055	-0.099
-584.865	-146.111	-0.022	-0.002
-583.850	172.432	-0.129	0.184
-582.836	-51.559	0.124	0.058
-581.821	800.000	0.069	-0.219
-580.806	-116.989	-0.053	0.010
-579.792	53.516	0.413	-0.393
-578.777	99.458	0.193	0.222
-577.763	-71.905	0.244	0.090
-576.748	21.049	-0.096	0.078
-575.733	-2.399	0.196	0.136
-574.719	133.519	0.199	-0.256
-573.704	10.979	0.080	0.061
-572.690	-26.557	-0.192	-0.112
-571.675	60.924	-0.266	0.262
-570.661	-200.000	-0.082	0.436
-569.646	501.489	-0.098	-0.224
-568.631	-97.888	0.280	-0.072
-567.617	42.039	-0.148	0.133
-566.602	86.305	0.118	-0.129
-565.588	408.073	0.052	0.109
-564.573	-133.999	-0.247	0.030
-563.558	-66.686	0.208	-0.082
-562.544	800.000	-0.114	-0.392
-561.529	-100.090	0.210	-0.052
-560.515	-143.325	-0.110	0.010
-559.500	592.955	-0.057	0.140
-558.485	620.017	-0.068	-0.170
-557.471	169.081	-0.134	-0.190
-556.456	-44.532	-0.179	0.089
-555.442	194.566	-0.056	0.084
-554.427	800.000	0.114	-0.352
-553.412	-14.267	-0.169	-0.108
-552.398	6.240	-0.148	0.109
-551.383	-142.899	-0.146	0.014
-550.369	369.837	0.098	-0.197
-549.354	20.150	-0.320	-0.256
-548.339	-125.775	-0.290	-0.043
-547.325	120.171	-0.251	0.308
-546.310	-200.000	-0.030	-0.469
-545.296	-102.191	-0.135	-0.032
-544.281	-200.000	0.003	-0.170
-543.266	-200.000	-0.006	0.027
-542.252	355.258	0.195	-0.384
-541.237	59.142	0.329	-0.321
-540.223	800.000	-0.117	-0.374
-539.208	-58.297	-0.192	-0.083
-538.193	144.287	-0.169	-0.224
-537.179	-76.195	-0.237	-0.083
-536.164	-200.000	-0.011	0.093
-535.150	177.997	0.179	-0.259
-534.135	-119.353	-0.016	-0.003
-533.121	205.106	0.361	-0.556
-532.106	483.021	0.112	-0.251
-531.091	683.938	-0.116	-0.300
-530.077	-72.481	-0.329	0.120
-529.062	-90.585	0.335	-0.096
-528.048	131.868	0.248	0.316
-527.033	800.000	0.086	0.302
-526.018	28.163	0.146	-0.122
-525.004	800.000	-0.089	-0.263
-523.989	-143.724	0.142	-0.013
-522.975	98.617	0.179	-0.204
-521.960	628.776	0.043	0.108
-520.945	67.234	-0.081	-0.082
-519.931	16.434	-0.057	-0.044
-518.916	508.298	0.136	0.314
-517.902	-125.956	0.311	0.046
-516.887	800.000	0.014	-0.047
-515.872	800.000	0.041	-0.134
-514.858	-150.751	0.186	-0.014
-513.843	800.000	0.023	-0.086
-512.829	800.000	-0.046	-0.164
-511.814	71.806	0.091	-0.094
-510.799	329.666	0.032	-0.062
-509.785	-3.754	-0.197	0.136
-508.770	-29.776	0.259	0.146
-507.756	-200.000	-0.013	0.069
-506.741	-115.608	0.152	-0.028
-505.726	800.000	-0.110	0.332
-504.712	-38.140	0.100	0.053
-503.697	-135.708	-0.358	0.042
-502.683	19.206	-0.117	0.093
-501.668	-151.044	-0.102	0.008
-500.653	-200.000	0.039	-0.326
-499.639	49.043	0.131	0.122
-498.624	-200.000	0.003	0.080
-497.610	-16.354	-0.149	0.094
-496.595	-151.871	-0.311	0.023
-495.581	-93.608	-0.106	0.029
-494.566	510.045	-0.156	0.358
-493.551	87.855	0.291	0.319
-492.537	-200.000	0.004	-0.235
-491.522	13.421	-0.261	-0.200
-490.508	104.273	0.170	0.198
-489.493	-99.065	-0.406	-0.102
-488.478	69.570	-0.279	0.285
-487.464	11.302	0.301	0.227
-486.449	0.418	-0.270	0.191
-485.435	-104.586	-0.171	-0.039
-484.420	-86.091	-0.436	-0.133
-483.405	16.902	-0.096	0.075
-482.391	800.000	0.043	0.161
-481.376	42.618	-0.237	-0.213
-480.362	37.006	0.137	0.120
-479.347	-171.495	-0.225	-0.007
-478.332	-200.000	-0.005	0.134
-477.318	207.849	-0.060	-0.092
-476.303	-112.442	-0.155	0.031
-475.289	-200.000	-0.037	-0.479
-474.274	351.244	-0.067	-0.131
-473.259	-93.073	-0.145	-0.040
-472.245	-200.000	-0.026	-0.126
-471.230	-164.704	-0.302	-0.013
-470.216	-200.000	0.025	-0.193
-469.201	-200.000	-0.016	-0.252
-468.186	325.261	0.075	-0.142
-467.172	-96.370	0.326	0.085
-466.157	-200.000	-0.017	0.129
-465.143	89.092	-0.236	-0.260
-464.128	800.000	0.092	-0.255
-463.113	-14.529	-0.172	0.109
-462.099	109.031	-0.154	-0.182
-461.084	327.510	0.119	0.226
-460.070	-29.941	0.090	0.050
-459.055	311.492	-0.042	-0.078
-458.040	152.721	0.103	-0.139
-457.026	-200.000	0.008	-0.187
-456.011	188.153	-0.182	-0.268
-454.997	-43.792	0.198	0.099
-453.982	456.058	0.076	0.167
-452.968	33.510	0.167	-0.143
-451.953	-200.000	0.040	-0.238
-450.938	-62.851	-0.100	-0.041
-449.924	345.732	-0.151	0.292
-448.909	96.772	-0.202	0.229
-447.895	-46.152	0.106	-0.051
-446.880	38.283	-0.327	0.288
-445.865	355.954	-0.127	0.250
-444.851	800.000	0.038	-0.151
-443.836	-200.000	-0.018	0.239
-442.822	99.339	0.074	-0.085
-441.807	-200.000	0.013	0.222
-440.792	278.197	0.112	-0.197
-439.778	800.000	0.017	0.049
-438.763	-200.000	0.021	0.275
-437.749	-82.925	-0.249	0.079
-436.734	-47.185	0.380	0.183
-435.719	-84.060	0.123	-0.039
-434.705	-121.629	0.013	0.002
-433.690	60.519	-0.108	-0.106
-432.676	338.805	-0.087	-0.167
-431.661	-200.000	-0.076	0.411
-430.646	800.000	-0.085	-0.260
-429.632	124.773	0.085	0.105
-428.617	96.327	0.220	-0.248
-427.603	293.170	-0.087	-0.156
-426.588	13.119	-0.256	0.196
-425.573	-49.699	0.132	-0.062
-424.559	224.298	-0.077	-0.122
-423.544	-200.000	0.007	0.103
-422.530	-200.000	0.097	-0.566
-421.515	44.975	-0.153	-0.139
-420.500	-37.632	0.077	0.041
-419.486	-200.000	-0.006	0.192
-418.471	788.769	0.157	-0.425
-417.457	800.000	-0.055	0.230
-416.442	-200.000	0.003	0.105
-415.428	106.195	-0.118	0.138
-414.413	-200.000	0.058	0.297
-413.398	-104.069	0.289	0.066
-412.384	453.948	0.201	0.439
-411.369	-200.000	-0.038	-0.509
-410.355	56.616	-0.061	0.058
-409.340	-91.869	-0.057	0.016
-408.325	7.504	0.268	0.198
-407.311	-115.541	-0.262	0.049
-406.296	510.488	-0.108	-0.247
-405.282	362.817	0.050	-0.098
-404.267	434.740	-0.019	-0.040
-403.252	-200.000	0.018	-0.318
-402.238	800.000	-0.076	-0.286
-401.223	280.588	0.031	0.055
-400.209	492.012	-0.062	-0.139
-399.194	-135.221	-0.323	-0.038
-398.179	789.442	0.057	0.154
-397.165	-36.699	-0.228	0.121
-396.150	-22.239	0.299	0.179
-395.136	-62.528	0.021	0.009
-394.121	-34.356	-0.195	-0.105
-393.106	256.883	-0.075	0.126
-392.092	-67.322	-0.177	-0.069
-391.077	164.019	0.235	-0.326
-390.063	-137.515	0.175	0.019
-389.048	-179.859	0.215	0.005
-388.033	-200.000	-0.024	-0.199
-387.019	226.433	-0.175	-0.280
-386.004	800.000	0.084	0.279
-384.990	320.341	0.084	0.158
-383.975	-200.000	0.018	-0.141
-382.960	-200.000	0.011	-0.297
-381.946	124.843	-0.208	0.258
-380.931	126.289	-0.031	0.039
-379.917	-200.000	0.020	-0.165
-378.902	135.998	0.093	0.119
-377.888	-86.248	-0.349	0.106
-376.873	-123.783	0.224	0.035
-375.858	231.427	-0.113	0.182
-374.844	641.454	-0.095	-0.238
-373.829	-124.171	0.204	0.032
-372.815	28.974	-0.163	0.136
-371.800	-200.000	-0.027	0.148
-370.785	-68.223	0.264	-0.101
-369.771	-86.917	0.033	-0.010
-368.756	800.000	-0.007	0.028
-367.742	-200.000	-0.048	-0.292
-366.727	800.000	0.007	-0.020
-365.712	170.911	0.096	0.135
-364.698	0.799	-0.362	-0.255
-363.683	800.000	0.047	0.149
-362.669	167.639	0.260	-0.363
-361.654	-122.106	0.277	0.045
-360.639	195.041	0.149	0.223
-359.625	140.619	-0.049	0.064
-358.610	24.894	-0.181	0.147
-357.596	251.320	-0.134	-0.224
-356.581	200.546	0.113	0.171
-355.566	175.610	-0.035	0.049
-354.552	653.814	-0.091	0.229
-353.537	-116.824	0.309	0.056
-352.523	-100.662	0.280	0.068
-351.508	-200.000	-0.027	-0.146
-350.493	2.926	0.225	0.161
-349.479	-80.819	-0.055	-0.018
-348.464	-56.091	0.142	0.062
-347.450	-200.000	-0.056	-0.255
-346.435	-139.520	0.080	-0.008
-345.420	134.719	0.174	-0.222
-344.406	-46.505	-0.212	-0.102
-343.391	800.000	0.006	0.026
-342.377	131.887	0.304	0.385
-341.362	115.238	0.174	0.209
-340.348	-158.973	0.358	0.020
-339.333	-9.877	0.003	-0.002
-338.318	352.048	0.098	0.191
-337.304	800.000	-0.100	0.286
-336.289	-34.981	0.294	-0.158
-335.275	-104.528	0.058	-0.013
-334.260	-27.503	-0.388	-0.222
-333.245	-62.473	0.077	-0.031
-332.231	103.597	0.060	-0.069
-331.216	-200.000	-0.071	0.678
-330.202	294.787	0.151	-0.272
-329.187	73.000	-0.217	-0.223
-328.172	-9.477	0.124	0.081
-327.158	-134.667	-0.054	-0.007
-326.143	90.006	0.106	0.117
-325.129	-98.022	0.250	-0.063
-324.114	-32.898	-0.189	0.103
-323.099	-136.009	-0.307	-0.035
-322.085	284.787	0.059	-0.104
-321.070	13.690	-0.072	-0.055
-320.056	-198.031	-0.245	0.001
-319.041	-200.000	0.003	-0.311
-318.026	-5.667	0.439	0.296
-317.012	-22.920	0.185	0.109
-315.997	193.650	0.126	-0.187
-314.983	800.000	0.049	0.193
-313.968	-66.509	0.141	-0.055
-312.953	36.224	-0.151	0.130
-311.939	-127.986	-0.404	0.057
-310.924	-200.000	-0.036	0.178
-309.910	-200.000	0.012	0.071
-308.895	52.864	0.189	0.177
-307.880	383.073	0.092	-0.185
-306.866	-88.628	0.060	-0.017
-305.851	14.353	-0.219	-0.168
-304.837	-141.954	-0.261	-0.026
-303.822	468.239	0.214	0.471
-302.807	4.222	-0.027	-0.019
-301.793	153.453	0.209	-0.281
-300.778	165.480	0.151	-0.209
-299.764	147.076	-0.191	-0.252
-298.749	-110.360	0.112	0.023
-297.735	-200.000	-0.050	0.251
-296.720	-133.684	0.149	-0.018
-295.705	-43.465	-0.243	-0.121
-294.691	-171.636	0.359	0.012
-293.676	-200.000	0.009	-0.088
-292.662	-14.597	0.047	0.030
-291.647	387.510	-0.169	0.342
-290.632	-36.318	-0.091	0.048
-289.618	-98.002	-0.210	0.053
-288.603	-140.479	-0.371	-0.038
-287.589	-200.000	0.025	-0.158
-286.574	-152.093	0.333	-0.024
-285.559	-41.612	0.376	0.189
-284.545	-174.327	0.041	-0.001
-283.530	218.272	-0.114	-0.178
-282.516	-57.209	0.396	0.171
-281.501	-3.663	0.093	-0.063
-280.486	-98.843	0.341	0.085
-279.472	-200.000	0.004	0.158
-278.457	-200.000	-0.013	-0.304
-277.443	-146.956	-0.197	0.017
-276.428	-200.000	-0.045	-0.265
-275.413	-22.941	-0.287	0.169
-274.399	-200.000	0.016	-0.173
-273.384	266.355	-0.110	0.189
-272.370	-200.000	-0.022	0.325
-271.355	-92.988	0.085	0.023
-270.340	-200.000	0.122	0.000
-269.326	-88.080	-0.110	-0.032
-268.311	-159.299	-0.441	0.024
-267.297	241.491	-0.105	-0.172
-266.282	83.590	-0.197	-0.210
-265.267	134.599	0.062	-0.078
-264.253	-200.000	-0.063	0.292
-263.238	-89.330	-0.288	0.083
-262.224	-32.618	0.219	0.119
-261.209	-108.408	-0.387	-0.082
-260.195	-48.978	0.260	0.122
-259.180	139.345	0.103	-0.133
-258.165	-106.307	-0.307	-0.067
-257.151	99.753	-0.368	-0.417
-256.136	-13.594	-0.343	-0.217
-255.122	232.587	-0.245	0.395
-254.107	-99.031	0.178	0.044
-253.092	-117.221	-0.094	-0.017
-252.078	-200.000	0.046	0.263
-251.063	25.568	0.197	0.161
-250.049	55.823	0.133	-0.127
-249.034	-200.000	0.035	-0.156
-248.019	800.000	-0.042	-0.166
-247.005	-200.000	0.019	0.343
-245.990	800.000	0.041	-0.148
-244.976	-80.222	0.155	-0.051
-243.961	19.914	-0.139	0.109
-242.946	-200.000	-0.015	-0.267
-241.932	272.660	0.128	0.221
-240.917	800.000	0.061	-0.214
-239.903	32.684	0.041	-0.035
-238.888	-147.129	0.342	-0.029
-237.873	-148.439	0.345	0.028
-236.859	134.383	0.282	-0.357
-235.844	-129.636	0.372	0.050
-234.830	-13.472	0.155	-0.098
-233.815	214.477	0.209	0.324
-232.800	-82.413	-0.115	0.036
-231.786	-36.235	0.163	-0.086
-230.771	-158.070	-0.100	0.006
-229.757	800.000	0.113	-0.350
-228.742	241.401	0.233	-0.381
-227.727	-5.092	0.202	0.136
-226.713	-56.894	-0.277	0.120
-225.698	37.326	-0.256	-0.222
-224.684	-36.969	0.118	-0.062
-223.669	-200.000	0.001	0.289
-222.655	800.000	-0.138	-0.378
-221.640	-200.000	-0.072	-0.353
-220.625	-90.666	-0.086	-0.024
-219.611	-117.817	-0.208	-0.037
-218.596	-59.170	0.244	-0.103
-217.582	-200.000	0.005	-0.292
-216.567	26.506	-0.142	0.116
-215.552	800.000	-0.087	0.352
-214.538	85.302	0.200	0.214
-213.523	63.423	0.156	0.153
-212.509	-200.000	0.039	-0.423
-211.494	-128.932	-0.391	-0.054
-210.479	82.540	-0.022	0.024
-209.465	308.700	-0.166	0.304
-208.450	-133.214	0.116	0.014
-207.436	-57.476	-0.191	0.082
-206.421	-84.000	0.331	-0.103
-205.406	459.069	-0.065	0.142
-204.392	163.444	0.051	0.070
-203.377	-200.000	0.024	0.162
-202.363	519.765	-0.103	0.235
-201.348	-46.212	0.190	-0.091
-200.333	70.847	-0.063	-0.063
-199.319	-127.781	-0.134	-0.019
-198.304	445.151	-0.111	0.238
-197.290	-18.167	0.147	0.090
-196.275	209.306	0.142	-0.217
-195.260	-54.061	0.208	0.092
-194.246	39.208	0.458	0.401
-193.231	22.992	0.088	-0.070
-192.217	-200.000	0.012	0.155
-191.202	79.717	0.187	0.197
-190.187	260.008	0.146	0.246
-189.173	-38.445	-0.381	0.197
-188.158	-200.000	-0.014	0.270
-187.144	8.996	0.074	-0.055
-186.129	8.527	-0.227	-0.167
-185.114	-90.900	-0.157	0.044
-184.100	-200.000	0.062	-0.436
-183.085	109.343	-0.033	-0.039
-182.071	800.000	-0.064	0.206
-181.056	-106.529	0.038	-0.008
-180.042	-200.000	-0.024	0.216
-179.027	180.101	-0.088	0.126
-178.012	-116.284	0.188	-0.034
-176.998	-200.000	0.016	0.129
-175.983	42.394	0.043	-0.038
-174.969	-137.248	0.385	0.043
-173.954	289.309	0.013	-0.023
-172.939	297.173	-0.048	0.087
-171.925	-174.817	0.067	-0.002
-170.910	800.000	0.075	0.216
-169.896	362.953	0.095	-0.187
-168.881	77.845	-0.098	-0.102
-167.866	-68.952	0.261	-0.098
-166.852	-200.000	-0.007	-0.049
-165.837	-72.482	-0.309	0.112
-164.823	105.668	0.240	-0.277
-163.808	116.315	0.162	0.194
-162.793	120.583	0.231	-0.280
-161.779	800.000	0.060	-0.225
-160.764	353.073	0.092	-0.177
-159.750	-200.000	0.009	0.154
-158.735	-112.502	-0.113	0.022
-157.720	-21.450	0.348	0.207
-156.706	800.000	0.100	0.291
-155.691	45.237	-0.090	0.081
-154.677	436.073	-0.038	0.080
-153.662	66.345	0.244	-0.242
-152.647	-82.076	-0.141	0.045
-151.633	62.663	0.086	0.084
-150.618	-73.080	-0.083	-0.030
-149.604	-23.166	0.194	-0.114
-148.589	-98.823	0.218	-0.054
-147.574	265.262	-0.210	-0.357
-146.560	-0.568	0.338	0.234
-145.545	-200.000	0.023	-0.181
-144.531	9.981	-0.261	0.193
-143.516	-51.877	0.242	0.110
-142.502	-87.270	0.230	0.068
-141.487	-50.646	-0.183	0.084
-140.472	473.594	-0.161	0.354
-139.458	72.099	-0.131	0.133
-138.443	-200.000	0.005	-0.030
-137.429	-200.000	0.002	-0.194
-136.414	-61.523	-0.329	0.135
-135.399	-21.813	-0.223	0.132
-134.385	-22.166	0.135	-0.080
-133.370	-62.585	-0.254	-0.103
-132.356	-120.895	-0.230	0.038
-131.341	110.327	-0.043	-0.050
-130.326	-185.351	-0.319	0.005
-129.312	-200.000	0.000	-0.126
-128.297	289.597	-0.055	-0.098
-127.283	-200.000	-0.041	-0.293
-126.268	-167.726	-0.346	-0.013
-125.253	800.000	0.020	0.070
-124.239	-168.773	-0.356	0.013
-123.224	31.003	0.113	-0.095
-122.210	70.256	0.038	-0.038
-121.195	-29.015	0.116	-0.065
-120.180	53.722	-0.070	-0.065
-119.166	-200.000	0.026	0.184
-118.151	-112.663	0.205	-0.040
-117.137	215.184	0.165	0.255
-116.122	-0.337	-0.249	0.172
-115.107	800.000	0.073	0.296
-114.093	-24.776	0.204	-0.118
-113.078	-4.043	0.344	-0.232
-112.064	800.000	-0.062	0.185
-111.049	246.950	-0.158	0.260
-110.034	397.342	-0.170	0.345
-109.020	-86.357	0.503	0.151
-108.005	800.000	-0.042	0.165
-106.991	204.020	-0.161	0.243
-105.976	359.339	0.071	-0.139
-104.962	46.588	0.121	0.109
-103.947	5.752	-0.107	-0.077
-102.932	223.465	-0.036	-0.056
-101.918	-9.811	0.393	0.255
-100.903	285.102	-0.135	0.236
-99.889	-51.022	0.108	0.049
-98.874	800.000	0.126	0.344
-97.859	15.899	0.366	-0.281
-96.845	110.865	0.085	0.099
-95.830	221.030	0.089	-0.139
-94.816	-27.366	-0.196	0.111
-93.801	257.263	0.171	-0.286
-92.786	193.984	0.256	-0.378
-91.772	30.593	-0.332	-0.276
-90.757	13.206	-0.233	0.176
-89.743	-47.740	0.194	-0.092
-88.728	26.161	-0.264	0.215
-87.713	24.605	0.053	0.043
-86.699	-200.000	0.004	-0.154
-85.684	-105.133	-0.083	-0.019
-84.670	391.243	0.146	0.295
-83.655	50.722	0.212	-0.195
-82.640	68.572	-0.209	-0.208
-81.626	358.480	-0.168	-0.327
-80.611	800.000	-0.045	-0.131
-79.597	-44.383	-0.211	-0.103
-78.582	-73.451	0.375	0.133
-77.567	250.746	-0.125	0.207
-76.553	800.000	-0.119	0.333
-75.538	-135.312	0.392	0.046
-74.524	83.514	-0.085	0.090
-73.509	-120.857	-0.235	-0.038
-72.494	11.007	-0.253	0.188
-71.480	723.968	0.065	-0.168
-70.465	170.218	0.082	-0.114
-69.451	56.518	-0.252	0.238
-68.436	-38.542	-0.148	0.076
-67.422	-6.537	0.208	0.138
-66.407	-28.176	0.156	0.088
-65.392	-50.016	0.303	-0.140
-64.378	57.258	0.318	-0.302
-63.363	56.400	0.260	0.245
-62.349	186.445	-0.134	0.194
-61.334	69.770	-0.990	-0.993
-60.319	-32.387	0.951	0.516
-59.305	800.000	-0.324	-1.193
-58.290	275.065	0.826	1.424
-57.276	800.000	0.354	1.363
-56.261	-200.000	123.376	662.767
-55.246	441.518	1550.427	3297.673
-54.232	145.879	2714.655	3537.552
-53.217	92.824	2287.987	2511.123
-52.203	33.045	1900.774	1600.895
-51.188	26.955	1697.124	1383.078
-50.173	24.751	1658.980	1335.502
-49.159	46.526	1727.109	1557.336
-48.144	44.148	1738.902	1549.770
-47.130	26.519	1690.478	1374.139
-46.115	23.931	1675.056	1342.049
-45.100	23.763	1670.255	1336.885
-44.086	23.680	1668.217	1334.573
-43.071	23.661	1665.790	1332.435
-42.057	23.695	1663.283	1330.635
-41.042	23.774	1660.856	1329.230
-40.027	23.765	1659.360	1327.915
-39.013	23.688	1657.804	1326.041
-37.998	23.746	1655.799	1324.818
-36.984	23.724	1654.709	1323.728
-35.969	23.816	1652.976	1322.976
-34.954	23.811	1651.648	1321.824
-33.940	23.801	1649.803	1320.219
-32.925	23.833	1648.027	1318.984
-31.911	23.935	1646.172	1318.202
-30.896	23.825	1644.984	1316.383
-29.881	23.811	1643.190	1314.794
-28.867	23.756	1642.001	1313.379
-27.852	23.868	1640.481	1312.940
-26.838	23.797	1639.334	1311.445
-25.823	23.875	1637.695	1310.661
-24.809	23.902	1635.967	1309.423
-23.794	23.839	1635.277	1308.356
-22.779	23.875	1633.270	1306.960
-21.765	23.914	1631.611	1305.869
-20.750	23.906	1629.955	1304.430
-19.736	23.887	1628.743	1303.272
-18.721	23.832	1627.810	1302.070
-17.706	23.844	1625.857	1300.542
-16.692	23.795	1624.521	1299.064
-15.677	23.934	1623.019	1298.828
-14.663	23.867	1621.701	1297.233
-13.648	23.966	1620.548	1296.978
-12.633	23.875	1619.216	1295.197
-11.619	23.898	1617.279	1293.767
-10.604	23.907	1615.675	1292.500
-9.590	23.814	1614.962	1291.202
-8.575	23.836	1613.218	1289.912
-7.560	23.917	1611.776	1289.300
-6.546	23.944	1610.954	1288.784
-5.531	23.882	1610.206	1287.685
-4.517	23.873	1608.871	1286.502
-3.502	23.909	1607.673	1285.755
-2.487	23.892	1605.847	1284.119
-1.473	23.492	1593.630	1271.434
-0.458	20.358	1573.931	1233.436
0.556	15.641	1575.944	1200.759
1.571	13.217	1599.687	1201.149
2.586	12.868	1611.533	1207.379
3.600	12.012	1557.294	1160.578
4.615	6.852	1452.274	1048.063
5.629	1.770	1393.875	973.410
6.644	0.889	1386.517	962.586
7.659	0.769	1385.750	961.207
8.673	0.724	1384.904	960.250
9.688	0.738	1382.559	958.627
10.702	0.575	1379.202	955.187
11.717	3.109	1382.207	973.232
12.731	9.755	1391.768	1022.107
13.746	15.576	1400.838	1065.706
14.761	17.293	1403.186	1078.299
15.775	16.799	1400.717	1073.175
16.790	15.796	1397.963	1064.630
17.804	15.004	1396.294	1058.254
18.819	14.609	1394.636	1054.407
19.834	14.371	1393.705	1052.107
20.848	14.181	1391.748	1049.341
21.863	13.942	1390.906	1047.106
22.877	13.768	1389.532	1044.883
23.892	13.622	1388.853	1043.362
24.907	13.699	1388.043	1043.148
25.921	13.769	1386.765	1042.530
26.936	13.761	1386.158	1041.934
27.950	13.742	1385.349	1041.116
28.965	13.792	1384.458	1040.666
29.980	13.810	1383.576	1040.024
30.994	13.914	1382.125	1039.489
32.009	13.849	1381.443	1038.482
33.023	13.986	1379.873	1038.061
34.038	13.937	1378.347	1036.520
35.053	13.816	1377.832	1035.287
36.067	13.899	1376.571	1034.759
37.082	13.937	1375.355	1033.994
38.096	13.915	1374.810	1033.357
39.111	13.864	1373.945	1032.295
40.126	13.793	1372.994	1031.048
41.140	13.832	1372.087	1030.522
42.155	13.691	1371.837	1029.365
43.169	13.693	1371.690	1029.174
44.184	13.718	1371.435	1029.049
45.199	13.701	1371.330	1028.773
46.213	13.741	1370.628	1028.402
47.228	13.775	1369.575	1027.734
48.242	13.764	1368.622	1026.857
49.257	13.780	1366.900	1025.577
50.271	13.748	1364.943	1023.821
51.286	13.846	1363.642	1023.357
52.301	13.771	1363.067	1022.372
53.315	13.818	1361.587	1021.463
54.330	13.811	1360.038	1020.164
55.344	13.807	1359.215	1019.433
56.359	13.733	1358.388	1018.268
57.374	13.673	1357.538	1017.176
58.388	13.714	1356.662	1016.678
59.403	13.631	1356.220	1015.749
60.417	13.697	1354.952	1015.111
61.432	13.668	1354.120	1014.220
62.447	13.522	1353.142	1012.507
63.461	13.568	1352.050	1011.884
64.476	13.551	1351.370	1011.182
65.490	13.587	1349.228	1009.707
66.505	13.686	1347.447	1008.888
67.520	13.628	1346.799	1007.962
68.534	13.756	1345.661	1007.798
69.549	13.580	1345.388	1006.434
70.563	13.653	1343.526	1005.396
71.578	13.566	1342.756	1004.200
72.593	13.429	1342.357	1002.985
73.607	13.558	1340.693	1002.435
74.622	13.553	1340.207	1001.950
75.636	13.625	1339.481	1001.757
76.651	13.573	1339.068	1001.042
77.666	13.561	1338.227	1000.253
78.680	13.685	1337.117	1000.084
79.695	13.606	1336.610	999.140
80.709	13.673	1335.794	998.844
81.724	13.663	1335.058	998.144
82.739	13.721	1333.698	997.390
83.753	13.755	1332.865	996.881
84.768	13.899	1331.218	996.429
85.782	13.857	1330.532	995.576
86.797	13.899	1328.741	994.395
87.812	13.744	1327.926	992.772
88.826	13.737	1326.339	991.455
89.841	13.728	1325.710	990.845
90.855	13.779	1324.879	990.438
91.870	13.837	1324.135	990.142
92.884	13.852	1322.980	989.281
93.899	13.825	1322.151	988.411
94.914	13.889	1321.055	987.888
95.928	13.842	1320.608	987.185
96.943	13.877	1319.577	986.532
97.957	13.918	1317.974	985.494
98.972	13.901	1317.652	985.065
99.987	13.790	1316.500	983.454
101.001	13.841	1315.394	982.843
102.016	13.883	1314.406	982.268
103.030	13.794	1313.910	981.286
104.045	13.805	1312.900	980.506
105.060	13.830	1311.445	979.484
106.074	13.774	1310.123	978.077
107.089	13.669	1309.035	976.564
108.103	13.612	1307.896	975.292
109.118	13.726	1306.621	974.926
110.133	13.736	1305.121	973.776
111.147	13.712	1303.728	972.512
112.162	13.655	1302.809	971.406
113.176	13.785	1301.525	971.120
114.191	13.732	1300.615	970.049
115.206	13.841	1299.018	969.405
116.220	13.923	1297.809	968.897
117.235	13.831	1297.069	967.721
118.249	13.755	1296.246	966.580
119.264	13.850	1294.607	965.827
120.279	13.859	1293.415	964.902
121.293	13.716	1293.148	963.786
122.308	13.757	1292.018	963.100
123.322	13.726	1290.724	961.871
124.337	13.761	1289.763	961.269
125.352	13.673	1288.970	960.082
126.366	13.755	1287.638	959.482
127.381	13.713	1286.469	958.286
128.395	13.730	1285.297	957.425
129.410	13.808	1283.891	956.742
130.424	13.790	1283.469	956.238
131.439	13.839	1282.340	955.594
132.454	13.844	1281.468	954.888
133.468	13.697	1281.013	953.622
134.483	13.752	1280.035	953.121
135.497	13.772	1278.541	952.043
136.512	13.818	1276.984	951.060
137.527	13.656	1276.267	949.516
138.541	13.834	1274.143	948.871
139.556	13.741	1273.385	947.691
140.570	13.921	1272.267	947.801
141.585	13.925	1271.289	947.009
142.600	13.880	1270.141	945.818
143.614	13.964	1268.899	945.284
144.629	13.927	1268.011	944.327
145.643	13.877	1266.919	943.149
146.658	13.954	1265.683	942.584
147.673	13.952	1264.447	941.565
148.687	13.898	1262.998	940.097
149.702	13.889	1261.879	939.130
150.716	13.945	1260.614	938.422
151.731	13.864	1259.446	937.015
152.746	13.853	1258.050	935.828
153.760	14.013	1256.786	935.709
154.775	14.012	1255.536	934.692
155.789	13.963	1255.034	933.958
156.804	13.963	1254.231	933.278
157.819	14.022	1252.669	932.365
158.833	14.046	1251.807	931.774
159.848	14.218	1250.582	931.744
160.862	14.173	1249.745	930.783
161.877	14.084	1248.946	929.610
162.892	13.994	1247.806	928.177
163.906	14.029	1246.510	927.328
164.921	14.107	1245.540	926.960
165.935	14.092	1244.674	926.145
166.950	13.971	1244.538	925.288
167.964	14.114	1243.657	925.352
168.979	14.193	1242.168	924.600
169.994	14.128	1242.039	924.060
171.008	14.159	1240.602	923.083
172.023	14.154	1240.181	922.655
173.037	14.226	1239.957	922.807
174.052	14.100	1238.765	921.144
175.067	14.139	1237.195	920.112
176.081	14.180	1236.374	919.645
177.096	14.143	1235.522	918.727
178.110	14.184	1233.982	917.724
179.125	14.255	1233.092	917.375
180.140	14.140	1231.580	915.532
181.154	14.179	1230.656	914.982
182.169	14.347	1229.018	914.604
183.183	14.244	1228.267	913.397
184.198	14.412	1226.792	913.140
185.213	14.322	1225.876	911.885
186.227	14.273	1225.088	910.953
187.242	14.503	1223.324	910.817
188.256	14.511	1222.612	910.250
189.271	14.389	1221.839	908.928
190.286	14.294	1221.129	907.799
191.300	14.330	1219.912	907.012
192.315	14.285	1219.507	906.386
193.329	14.300	1219.005	906.011
194.344	14.285	1218.112	905.187
195.359	14.325	1217.478	904.855
196.373	14.329	1216.980	904.425
197.388	14.416	1216.497	904.459
198.402	14.487	1216.123	904.484
199.417	14.515	1215.323	903.960
200.432	14.516	1214.800	903.498
201.446	14.603	1213.634	903.021
202.461	14.683	1212.184	902.298
203.475	14.667	1211.405	901.549
204.490	14.733	1210.550	901.193
205.504	14.659	1209.245	899.739
206.519	14.606	1208.036	898.475
207.534	14.612	1206.584	897.350
208.548	14.622	1205.720	896.679
209.563	14.563	1205.140	895.854
210.577	14.591	1204.126	895.169
211.592	14.572	1203.461	894.493
212.607	14.765	1202.341	894.615
213.621	14.831	1201.365	894.162
214.636	14.776	1200.930	893.465
215.650	14.760	1199.876	892.521
216.665	14.775	1198.466	891.470
217.680	14.707	1197.976	890.665
218.694	14.749	1197.255	890.276
219.709	14.813	1196.120	889.691
220.723	15.003	1195.450	890.128
221.738	14.862	1194.733	888.765
222.753	14.805	1194.035	887.862
223.767	14.885	1193.473	887.793
224.782	15.046	1192.646	887.953
225.796	14.958	1192.006	886.930
226.811	14.966	1191.396	886.441
227.826	14.941	1190.670	885.691
228.840	14.921	1190.144	885.114
229.855	14.962	1189.321	884.638
230.869	14.908	1188.541	883.696
231.884	14.814	1187.811	882.579
232.899	14.863	1186.344	881.670
233.913	15.027	1186.082	882.259
234.928	14.929	1185.351	881.123
235.942	14.941	1184.478	880.460
236.957	14.875	1183.989	879.670
237.972	14.906	1182.954	878.989
238.986	14.951	1182.452	878.771
240.001	14.954	1181.698	878.149
241.015	15.068	1180.256	877.599
242.030	15.032	1179.811	876.998
243.045	15.084	1178.817	876.456
244.059	15.169	1178.016	876.227
245.074	15.124	1177.323	875.402
246.088	15.208	1176.700	875.298
247.103	15.157	1175.831	874.310
248.117	15.231	1175.475	874.354
249.132	15.172	1174.525	873.260
250.147	15.326	1173.537	873.249
251.161	15.374	1172.719	872.815
252.176	15.267	1172.161	871.766
253.190	15.292	1171.740	871.504
254.205	15.362	1171.056	871.285
255.220	15.433	1170.090	870.855
256.234	15.434	1169.834	870.595
257.249	15.430	1168.895	869.797
258.263	15.457	1168.361	869.462
259.278	15.556	1167.659	869.377
260.293	15.414	1167.853	868.706
261.307	15.598	1166.510	868.584
262.322	15.622	1165.542	867.911
263.336	15.564	1165.109	867.211
264.351	15.696	1164.593	867.433
265.366	15.636	1163.668	866.358
266.380	15.679	1163.218	866.166
267.395	15.563	1162.589	865.026
268.409	15.603	1161.732	864.513
269.424	15.620	1160.843	863.862
270.439	15.540	1160.720	863.284
271.453	15.678	1159.461	862.983
272.468	15.600	1158.725	861.955
273.482	15.627	1157.822	861.346
274.497	15.660	1157.153	860.940
275.512	15.555	1157.412	860.518
276.526	15.692	1155.811	859.956
277.541	15.668	1155.556	859.565
278.555	15.676	1154.495	858.742
279.570	15.831	1153.463	858.689
280.585	15.837	1153.072	858.354
281.599	15.807	1152.193	857.471
282.614	15.829	1150.925	856.564
283.628	15.727	1150.029	855.300
284.643	15.938	1149.045	855.564
285.657	15.901	1147.870	854.425
286.672	15.810	1147.182	853.376
287.687	15.874	1146.380	853.030
288.701	15.841	1145.978	852.488
289.716	15.952	1145.066	852.297
290.730	15.937	1144.317	851.588
291.745	15.910	1143.587	850.834
292.760	15.882	1142.507	849.814
293.774	16.063	1142.209	850.429
294.789	16.034	1141.659	849.796
295.803	15.949	1141.057	848.845
296.818	16.042	1139.912	848.388
297.833	16.062	1139.006	847.741
298.847	16.011	1138.531	847.055
299.862	16.068	1137.594	846.567
300.876	16.112	1137.188	846.413
301.891	16.020	1136.713	845.520
302.906	16.143	1135.301	845.013
303.920	16.103	1135.205	844.665
304.935	16.215	1134.484	844.616
305.949	16.259	1134.118	844.487
306.964	16.200	1133.263	843.480
307.979	16.263	1132.306	843.011
308.993	16.271	1131.539	842.402
310.008	16.272	1130.265	841.385
311.022	16.285	1130.011	841.186
312.037	16.343	1129.118	840.737
313.052	16.220	1128.259	839.413
314.066	16.290	1127.050	838.787
315.081	16.284	1126.434	838.225
316.095	16.347	1125.570	837.817
317.110	16.263	1125.109	836.983
318.125	16.157	1124.805	836.161
319.139	16.220	1123.961	835.770
320.154	16.343	1122.784	835.430
321.168	16.429	1121.965	835.170
322.183	16.333	1121.881	834.561
323.197	16.388	1120.943	834.061
324.212	16.336	1120.382	833.310
325.227	16.382	1120.059	833.225
326.241	16.409	1119.253	832.682
327.256	16.369	1118.648	831.962
328.270	16.462	1117.535	831.519
329.285	16.365	1116.492	830.196
330.300	16.427	1115.426	829.634
331.314	16.492	1114.573	829.241
332.329	16.519	1113.797	828.726
333.343	16.471	1113.205	827.978
334.358	16.425	1111.989	826.774
335.373	16.485	1111.908	826.934
336.387	16.580	1111.005	826.654
337.402	16.574	1109.591	825.499
338.416	16.578	1109.132	825.103
339.431	16.729	1108.673	825.424
340.446	16.517	1108.430	824.139
341.460	16.651	1107.471	824.005
342.475	16.741	1106.339	823.527
343.489	16.727	1105.575	822.815
344.504	16.813	1104.510	822.368
345.519	16.683	1103.654	821.031
346.533	16.809	1102.993	821.076
347.548	16.773	1102.633	820.559
348.562	16.830	1101.110	819.632
349.577	16.844	1100.472	819.149
350.592	16.843	1099.818	818.585
351.606	16.824	1099.262	818.010
352.621	16.732	1098.525	816.945
353.635	16.830	1097.819	816.820
354.650	16.778	1097.060	815.933
355.665	16.819	1096.542	815.671
356.679	16.889	1095.851	815.419
357.694	16.900	1095.387	815.058
358.708	16.811	1094.482	813.882
359.723	16.980	1093.719	814.053
360.738	16.940	1093.070	813.308
361.752	16.946	1093.218	813.375
362.767	17.009	1092.402	812.998
363.781	16.930	1091.801	812.102
364.796	17.016	1091.070	811.895
365.810	17.134	1090.306	811.823
366.825	17.151	1089.617	811.317
367.840	17.259	1088.735	811.103
368.854	17.186	1088.468	810.484
369.869	17.139	1087.948	809.800
370.883	17.226	1086.570	809.120
371.898	17.106	1086.561	808.470
372.913	17.080	1086.231	808.030
373.927	17.196	1085.172	807.720
374.942	17.200	1084.352	807.057
375.956	17.236	1084.088	806.961
376.971	17.263	1083.735	806.754
377.986	17.216	1083.083	805.974
379.000	17.258	1082.502	805.672
380.015	17.345	1082.152	805.751
381.029	17.317	1081.164	804.811
382.044	17.405	1080.204	804.442
383.059	17.337	1079.625	803.615
384.073	17.397	1078.582	803.055
385.088	17.439	1077.723	802.542
386.102	17.457	1077.143	802.122
387.117	17.452	1075.748	800.988
388.132	17.430	1074.918	800.196
389.146	17.404	1074.013	799.333
390.161	17.375	1073.688	798.881
391.175	17.429	1072.832	798.426
392.190	17.424	1072.205	797.869
393.205	17.475	1071.581	797.573
394.219	17.504	1070.656	796.947
395.234	17.610	1069.444	796.472
396.248	17.508	1068.752	795.406
397.263	17.440	1067.820	794.328
398.278	17.462	1067.098	793.820
399.292	17.435	1066.696	793.328
400.307	17.585	1065.651	793.176
401.321	17.512	1064.982	792.272
402.336	17.437	1064.793	791.710
403.350	17.547	1064.185	791.700
404.365	17.580	1062.773	790.732
405.380	17.684	1062.244	790.753
406.394	17.542	1061.988	789.831
407.409	17.525	1060.820	788.815
408.423	17.764	1059.764	789.068
409.438	17.710	1059.448	788.511
410.453	17.733	1058.557	787.883
411.467	17.868	1058.005	788.029
412.482	17.796	1057.399	787.176
413.496	17.729	1056.716	786.286
414.511	17.897	1056.067	786.510
415.526	17.805	1056.087	786.030
416.540	17.801	1055.538	785.534
417.555	18.031	1054.752	785.936
418.569	17.843	1054.507	784.818
419.584	17.868	1053.581	784.176
420.599	17.975	1053.314	784.402
421.613	109.594	1330.677	1490.081
422.628	101.018	1371.026	1490.183
