DTS Sentinel unit serial number:	SN413079Multiplexer serial number:	ORYXHardware model number:	OX4-SRSoftware version number:	ORYX F/W v4.00 Oryx Data Collector v3.7.2.0data status	okinstallation	princeton_trtdifferential loss correction	single-endedforward channel	channel 2reverse channel	N/Adate	2019/09/18time	01:07:35forward acquisition time	60.00reverse acquisition time	0.00gamma	496.2192k internal	0.2350k external	0.2350temperature offset calibration	0.9984default loss term (dB/km)	0.3790temperature slope calibration	1.0000multiplexer offset coefficient	1.0000multiplexer slope coefficient	1.0000fibre end	0.00T internal ref (°C)	23.25T ext. ref 1 (°C)	0.17T ext. ref 2 (°C)	16.91length (m)	temperature (°C)	Stokes	anti-Stokes-747.200	-124.050	0.159	0.025
-746.185	-86.326	-0.186	0.057
-745.171	342.723	0.091	0.179
-744.156	800.000	-0.206	0.698
-743.142	-143.657	0.178	-0.017
-742.127	-138.740	-0.120	0.013
-741.112	-200.000	0.044	-0.382
-740.098	-38.031	-0.164	-0.087
-739.083	202.587	-0.085	0.131
-738.069	-88.030	-0.190	0.057
-737.054	-121.170	0.129	-0.022
-736.039	97.317	-0.202	-0.231
-735.025	-74.461	0.264	0.095
-734.010	-85.210	-0.221	-0.069
-732.996	16.485	-0.221	-0.174
-731.981	-34.299	-0.286	-0.156
-730.966	-54.475	0.160	-0.073
-729.952	-183.679	0.115	-0.002
-728.937	-200.000	0.011	0.206
-727.923	-139.407	0.128	-0.014
-726.908	21.110	-0.219	0.178
-725.894	163.949	-0.184	0.259
-724.879	-120.377	-0.161	-0.027
-723.864	72.392	-0.153	-0.159
-722.850	-25.004	-0.400	-0.237
-721.835	-138.022	-0.451	0.050
-720.821	108.631	-0.150	0.179
-719.806	-24.661	0.410	-0.243
-718.791	36.514	-0.103	0.091
-717.777	5.412	0.083	0.061
-716.762	-40.793	-0.043	0.022
-715.748	21.476	0.232	0.188
-714.733	163.760	-0.215	0.301
-713.718	22.957	-0.156	-0.127
-712.704	-70.524	-0.280	-0.106
-711.689	800.000	0.061	-0.248
-710.675	48.841	-0.132	0.123
-709.660	-74.469	0.132	0.047
-708.645	28.026	0.296	-0.249
-707.631	248.814	0.024	0.040
-706.616	52.183	0.024	-0.022
-705.602	236.890	-0.091	0.150
-704.587	132.263	-0.178	-0.228
-703.572	57.212	-0.114	-0.111
-702.558	133.339	0.146	-0.188
-701.543	-200.000	0.047	-0.297
-700.529	-113.725	-0.492	0.096
-699.514	14.708	0.208	0.162
-698.499	-12.242	-0.140	0.091
-697.485	358.015	0.221	0.440
-696.470	-25.154	0.191	0.113
-695.456	-200.000	0.039	0.230
-694.441	9.392	-0.254	-0.192
-693.426	-77.650	0.195	-0.067
-692.412	332.191	-0.153	0.294
-691.397	-200.000	-0.058	-0.375
-690.383	119.440	-0.072	0.089
-689.368	395.330	-0.054	0.112
-688.354	303.467	-0.079	0.146
-687.339	-170.132	-0.156	-0.006
-686.324	-200.000	0.007	0.051
-685.310	-142.400	-0.104	0.010
-684.295	-112.365	0.144	0.029
-683.281	800.000	-0.063	0.177
-682.266	-200.000	0.002	-0.461
-681.251	-13.937	0.160	-0.103
-680.237	-2.830	-0.447	0.311
-679.222	162.456	0.244	0.341
-678.208	193.917	-0.088	-0.133
-677.193	142.553	0.122	-0.161
-676.178	-79.992	0.362	-0.121
-675.164	55.218	-0.115	-0.111
-674.149	83.565	0.322	-0.349
-673.135	800.000	-0.043	0.131
-672.120	-200.000	0.026	-0.122
-671.105	-54.796	0.036	0.016
-670.091	-38.486	0.202	0.106
-669.076	-200.000	-0.047	-0.282
-668.062	-130.048	0.139	-0.019
-667.047	-200.000	0.004	-0.199
-666.032	800.000	0.040	-0.166
-665.018	800.000	-0.016	-0.062
-664.003	-117.079	0.215	0.039
-662.989	-33.803	-0.235	-0.129
-661.974	-78.268	0.293	-0.100
-660.959	14.223	0.220	0.171
-659.945	286.082	-0.113	-0.203
-658.930	192.188	0.086	0.129
-657.916	-70.805	-0.144	0.054
-656.901	-113.063	0.192	0.038
-655.886	20.071	-0.083	0.066
-654.872	-21.575	-0.277	0.168
-653.857	-55.435	0.492	0.219
-652.843	44.744	0.068	-0.062
-651.828	-51.836	0.350	0.162
-650.814	773.527	-0.117	-0.318
-649.799	29.377	0.235	0.198
-648.784	-77.209	-0.116	-0.040
-647.770	564.881	-0.114	-0.275
-646.755	-62.705	-0.216	0.089
-645.741	87.800	0.089	-0.098
-644.726	-93.893	-0.108	-0.030
-643.711	-200.000	-0.042	-0.296
-642.697	-80.921	0.222	-0.073
-641.682	800.000	-0.074	-0.215
-640.668	163.601	0.067	0.093
-639.653	-200.000	0.023	0.369
-638.638	41.662	-0.240	0.216
-637.624	144.662	0.115	0.152
-636.609	800.000	0.066	-0.248
-635.595	518.727	0.147	0.342
-634.580	800.000	0.048	0.203
-633.565	36.073	0.129	0.113
-632.551	141.053	-0.177	0.233
-631.536	196.213	-0.152	0.231
-630.522	-60.143	-0.238	0.101
-629.507	-123.650	0.387	-0.061
-628.492	-130.859	0.373	0.050
-627.478	-135.671	0.345	0.041
-626.463	76.038	-0.147	-0.155
-625.449	-200.000	0.012	0.133
-624.434	-200.000	0.022	-0.138
-623.419	-26.601	-0.156	0.091
-622.405	-18.349	-0.227	0.141
-621.390	133.808	-0.094	-0.121
-620.376	32.389	0.106	-0.091
-619.361	19.084	-0.275	-0.219
-618.346	770.127	-0.040	-0.107
-617.332	-18.036	0.109	-0.068
-616.317	494.149	-0.017	-0.040
-615.303	-200.000	-0.004	-0.091
-614.288	-200.000	-0.021	-0.260
-613.273	800.000	0.094	-0.296
-612.259	800.000	-0.137	-0.406
-611.244	-186.992	0.158	0.002
-610.230	-125.203	0.038	-0.006
-609.215	133.292	-0.139	-0.179
-608.201	-185.666	0.230	-0.003
-607.186	-31.598	0.209	-0.116
-606.171	-85.149	0.319	-0.099
-605.157	-200.000	0.061	-0.643
-604.142	733.400	-0.017	0.046
-603.128	74.995	-0.200	0.209
-602.113	118.441	0.205	-0.252
-601.098	-125.783	0.193	0.029
-600.084	-200.000	0.030	0.144
-599.069	800.000	0.025	-0.075
-598.055	223.437	-0.052	-0.083
-597.040	-95.840	-0.334	0.088
-596.025	662.961	0.062	-0.160
-595.011	-200.000	0.004	0.349
-593.996	128.044	-0.222	-0.280
-592.982	668.503	0.030	-0.077
-591.967	-200.000	0.017	0.095
-590.952	72.026	0.159	-0.164
-589.938	-64.492	0.032	-0.013
-588.923	1.348	-0.105	0.075
-587.909	310.974	-0.048	0.090
-586.894	-125.440	-0.148	0.022
-585.879	800.000	-0.119	0.337
-584.865	64.459	-0.076	0.076
-583.850	30.260	0.291	-0.247
-582.836	242.458	0.158	0.262
-581.821	72.215	0.038	-0.039
-580.806	-54.721	-0.277	-0.124
-579.792	-165.231	-0.176	0.008
-578.777	85.290	-0.051	-0.056
-577.763	-50.430	-0.199	-0.093
-576.748	800.000	-0.042	0.164
-575.733	34.016	-0.178	0.154
-574.719	244.945	-0.110	0.184
-573.704	800.000	0.038	-0.150
-572.690	52.548	-0.273	-0.258
-571.675	-48.682	-0.125	-0.060
-570.661	16.305	0.222	0.174
-569.646	-200.000	0.008	-0.330
-568.631	-200.000	-0.031	-0.242
-567.617	-200.000	-0.044	-0.203
-566.602	-60.172	-0.049	-0.021
-565.588	92.896	-0.150	-0.168
-564.573	-200.000	0.001	-0.159
-563.558	-4.128	-0.178	-0.122
-562.544	-76.567	0.228	0.079
-561.529	800.000	-0.056	-0.188
-560.515	-59.067	-0.064	-0.027
-559.500	-90.966	0.132	-0.038
-558.485	146.827	0.132	0.176
-557.471	461.118	0.104	0.231
-556.456	-200.000	-0.005	-0.160
-555.442	800.000	0.071	0.210
-554.427	211.409	-0.330	0.514
-553.412	800.000	-0.014	0.049
-552.398	212.617	-0.234	-0.366
-551.383	-200.000	0.027	-0.281
-550.369	225.057	0.172	0.275
-549.354	205.217	0.083	0.128
-548.339	-98.979	-0.185	-0.047
-547.325	-18.117	0.175	-0.109
-546.310	88.674	-0.063	0.069
-545.296	595.334	-0.125	-0.306
-544.281	-200.000	0.002	-0.249
-543.266	228.918	-0.053	-0.085
-542.252	-38.773	0.301	0.157
-541.237	107.534	0.178	-0.210
-540.223	37.125	0.222	-0.194
-539.208	800.000	0.071	-0.285
-538.193	-71.391	0.297	-0.110
-537.179	-200.000	-0.055	0.304
-536.164	104.321	0.199	-0.232
-535.150	-17.635	0.105	-0.065
-534.135	-200.000	0.002	-0.161
-533.121	257.403	0.169	0.287
-532.106	56.007	-0.145	-0.140
-531.091	148.989	0.149	-0.199
-530.077	-156.728	0.050	0.003
-529.062	7.689	-0.187	0.139
-528.048	800.000	0.040	-0.113
-527.033	324.100	0.104	-0.197
-526.018	171.918	-0.159	0.226
-525.004	-200.000	0.075	0.354
-523.989	10.430	0.123	0.093
-522.975	800.000	0.068	-0.192
-521.960	278.207	-0.167	-0.294
-520.945	-200.000	0.061	0.279
-519.931	40.300	-0.156	0.139
-518.916	187.518	0.176	-0.260
-517.902	11.739	-0.024	0.018
-516.887	193.247	-0.101	0.151
-515.872	-181.845	0.058	-0.001
-514.858	800.000	-0.041	0.141
-513.843	200.595	-0.219	0.333
-512.829	-53.850	-0.130	-0.059
-511.814	-78.710	-0.511	0.173
-510.799	39.777	-0.251	-0.223
-509.785	-4.452	0.241	-0.165
-508.770	250.473	0.107	0.179
-507.756	-50.621	0.086	0.040
-506.741	22.205	-0.143	-0.115
-505.726	-83.914	0.221	0.069
-504.712	-157.271	-0.230	0.014
-503.697	328.317	-0.122	-0.232
-502.683	61.559	-0.213	-0.210
-501.668	-161.204	0.189	0.010
-500.653	800.000	0.064	-0.271
-499.639	15.763	-0.233	0.181
-498.624	-89.912	0.169	0.049
-497.610	800.000	0.039	-0.138
-496.595	78.405	-0.235	-0.248
-495.581	25.106	-0.207	0.170
-494.566	-1.043	0.163	0.114
-493.551	-33.529	-0.204	-0.112
-492.537	-7.861	-0.302	0.202
-491.522	-40.068	0.213	0.110
-490.508	800.000	0.038	0.140
-489.493	18.641	0.285	-0.225
-488.478	103.424	0.037	-0.043
-487.464	41.204	-0.286	0.255
-486.449	4.315	-0.212	0.154
-485.435	24.995	0.172	0.141
-484.420	-21.805	-0.228	0.137
-483.405	435.268	-0.062	-0.132
-482.391	366.332	-0.034	0.068
-481.376	-131.639	-0.312	0.040
-480.362	-200.000	0.015	-0.257
-479.347	-103.688	0.179	-0.041
-478.332	-32.279	0.064	0.035
-477.318	-80.653	0.088	-0.029
-476.303	56.270	-0.303	-0.291
-475.289	422.872	-0.146	-0.310
-474.274	-200.000	0.038	0.168
-473.259	212.079	0.147	0.229
-472.245	202.086	-0.076	0.115
-471.230	-15.251	0.239	-0.151
-470.216	-107.629	0.140	0.030
-469.201	-127.188	0.266	-0.038
-468.186	-122.146	-0.252	-0.041
-467.172	34.095	0.088	0.076
-466.157	57.375	0.133	0.128
-465.143	130.091	-0.161	-0.203
-464.128	666.455	-0.115	-0.295
-463.113	-20.534	0.135	0.082
-462.099	46.717	-0.090	-0.082
-461.084	18.777	-0.301	0.238
-460.070	117.715	-0.210	0.255
-459.055	-97.814	-0.111	0.028
-458.040	-34.515	-0.183	0.099
-457.026	202.729	-0.150	0.229
-456.011	268.811	0.084	-0.145
-454.997	-102.203	0.155	-0.037
-453.982	-159.079	0.120	-0.007
-452.968	-57.676	-0.215	-0.093
-451.953	109.612	0.193	-0.228
-450.938	-40.724	-0.160	0.082
-449.924	143.812	-0.121	0.159
-448.909	-66.429	-0.342	-0.134
-447.895	-13.816	-0.116	0.074
-446.880	800.000	0.032	-0.094
-445.865	-103.863	0.072	0.017
-444.851	-69.132	0.267	0.101
-443.836	-148.450	0.355	-0.029
-442.822	800.000	0.047	-0.134
-441.807	-25.774	0.343	-0.200
-440.792	115.980	0.135	0.163
-439.778	-61.352	-0.304	-0.126
-438.763	-200.000	-0.003	-0.214
-437.749	281.952	0.022	0.038
-436.734	178.804	0.081	0.117
-435.719	-153.851	0.169	0.011
-434.705	32.756	-0.109	-0.093
-433.690	6.834	0.089	0.065
-432.676	391.047	0.093	-0.191
-431.661	-200.000	0.052	-0.525
-430.646	129.864	0.107	-0.135
-429.632	452.671	-0.108	0.235
-428.617	-41.474	0.279	0.141
-427.603	-200.000	0.028	-0.370
-426.588	34.804	0.071	-0.061
-425.573	226.599	0.109	0.175
-424.559	147.157	-0.103	-0.137
-423.544	-200.000	-0.013	0.229
-422.530	-131.002	0.228	-0.030
-421.515	50.515	0.328	0.306
-420.500	-35.396	-0.404	-0.217
-419.486	-3.367	0.167	-0.115
-418.471	800.000	-0.114	0.313
-417.457	-59.450	0.187	0.079
-416.442	800.000	-0.013	0.043
-415.428	-84.720	0.177	0.055
-414.413	576.654	0.055	0.131
-413.398	-92.572	-0.135	0.037
-412.384	-103.494	0.252	0.058
-411.369	-130.709	0.196	0.026
-410.355	800.000	0.030	0.118
-409.340	-35.490	0.117	-0.063
-408.325	-72.633	-0.100	0.036
-407.311	223.547	-0.171	0.272
-406.296	50.066	-0.180	0.168
-405.282	-120.853	-0.207	0.034
-404.267	15.257	0.021	-0.016
-403.252	29.177	-0.032	0.027
-402.238	-110.821	-0.257	-0.052
-401.223	-109.329	-0.576	0.120
-400.209	-119.548	-0.236	0.040
-399.194	-19.645	0.276	0.169
-398.179	18.202	0.142	-0.112
-397.165	785.426	0.073	0.196
-396.150	-171.423	-0.291	-0.010
-395.136	60.025	0.050	0.049
-394.121	23.999	-0.185	0.151
-393.106	410.986	0.144	-0.301
-392.092	-165.269	0.351	0.015
-391.077	-163.849	-0.172	-0.008
-390.063	800.000	0.115	-0.418
-389.048	525.183	0.175	-0.406
-388.033	-53.397	-0.361	-0.163
-387.019	12.274	0.078	-0.059
-386.004	176.379	-0.221	0.316
-384.990	118.827	-0.141	-0.172
-383.975	-42.603	0.056	0.028
-382.960	96.161	-0.104	-0.117
-381.946	-200.000	-0.008	0.058
-380.931	147.778	-0.213	-0.283
-379.917	-9.274	0.165	0.109
-378.902	86.416	0.345	-0.375
-377.888	512.072	0.182	0.418
-376.873	-200.000	0.002	0.095
-375.858	105.273	-0.203	0.236
-374.844	-163.454	-0.067	-0.003
-373.829	-200.000	-0.007	0.128
-372.815	-90.988	0.592	-0.167
-371.800	168.377	-0.207	0.290
-370.785	800.000	0.073	0.277
-369.771	171.481	-0.139	0.196
-368.756	32.410	-0.217	-0.185
-367.742	27.645	0.105	-0.087
-366.727	559.302	-0.075	-0.179
-365.712	-168.630	0.176	-0.007
-364.698	97.447	-0.162	-0.184
-363.683	-200.000	0.062	0.376
-362.669	128.301	0.066	-0.083
-361.654	321.854	0.123	-0.230
-360.639	-200.000	-0.022	0.133
-359.625	-22.673	0.288	-0.171
-358.610	-59.864	0.313	0.132
-357.596	800.000	0.026	-0.094
-356.581	-67.271	-0.246	0.095
-355.566	152.205	-0.159	-0.213
-354.552	68.637	-0.145	0.146
-353.537	-200.000	0.035	0.221
-352.523	800.000	0.013	-0.054
-351.508	800.000	0.121	-0.350
-350.493	800.000	-0.024	-0.097
-349.479	-146.053	0.235	-0.020
-348.464	800.000	0.059	-0.240
-347.450	800.000	0.094	0.258
-346.435	57.841	-0.247	0.237
-345.420	134.602	0.156	-0.200
-344.406	-86.192	0.180	0.055
-343.391	110.841	-0.217	-0.256
-342.377	162.709	-0.081	0.112
-341.362	-98.885	-0.424	-0.106
-340.348	-166.580	0.222	-0.009
-339.333	-130.043	-0.307	0.041
-338.318	323.474	-0.100	0.187
-337.304	494.020	0.136	-0.307
-336.289	-120.370	-0.143	0.024
-335.275	-112.294	-0.363	-0.071
-334.260	-84.583	-0.079	-0.025
-333.245	5.964	0.239	-0.174
-332.231	800.000	-0.039	0.135
-331.216	190.390	-0.139	-0.205
-330.202	-16.530	0.227	0.141
-329.187	800.000	0.030	0.102
-328.172	-36.465	-0.073	-0.038
-327.158	220.429	0.108	-0.170
-326.143	312.466	0.061	-0.113
-325.129	-151.862	0.226	-0.016
-324.114	204.917	0.160	-0.244
-323.099	-35.207	0.239	-0.128
-322.085	-171.709	-0.137	0.004
-321.070	-17.600	-0.044	-0.027
-320.056	269.850	-0.239	0.413
-319.041	29.300	-0.196	-0.164
-318.026	-43.103	0.233	-0.116
-317.012	226.324	-0.122	0.195
-315.997	212.430	-0.077	0.119
-314.983	-200.000	0.051	-0.264
-313.968	-161.233	0.248	-0.013
-312.953	-39.299	0.157	-0.081
-311.939	-6.470	0.263	-0.176
-310.924	8.019	-0.210	0.154
-309.910	800.000	-0.075	0.314
-308.895	73.684	-0.125	0.128
-307.880	-40.063	0.152	0.078
-306.866	800.000	0.103	-0.351
-305.851	-200.000	0.044	-0.227
-304.837	-36.788	0.167	-0.088
-303.822	800.000	0.113	-0.310
-302.807	45.553	0.182	0.165
-301.793	220.250	0.126	0.198
-300.778	-51.951	-0.234	-0.107
-299.764	398.339	0.183	-0.375
-298.749	-94.989	-0.266	-0.071
-297.735	-60.136	0.071	-0.030
-296.720	-85.390	-0.222	0.068
-295.705	-200.000	0.019	0.245
-294.691	-200.000	0.052	0.317
-293.676	-200.000	0.008	0.303
-292.662	556.291	-0.057	0.134
-291.647	41.761	-0.025	-0.023
-290.632	-158.490	-0.088	0.005
-289.618	27.112	0.225	0.185
-288.603	-200.000	0.004	-0.041
-287.589	-19.325	-0.137	-0.083
-286.574	-200.000	-0.029	0.255
-285.559	-170.305	0.180	0.006
-284.545	-116.778	-0.155	-0.028
-283.530	-139.863	-0.104	0.011
-282.516	784.660	0.099	-0.265
-281.501	116.565	-0.149	0.179
-280.486	-200.000	-0.017	0.226
-279.472	10.376	0.249	0.186
-278.457	77.149	0.178	-0.185
-277.443	323.430	0.111	-0.208
-276.428	249.756	0.074	0.122
-275.413	233.379	-0.102	0.165
-274.399	-200.000	0.005	0.183
-273.384	156.508	0.033	0.044
-272.370	56.150	-0.262	0.249
-271.355	-200.000	-0.002	0.178
-270.340	340.224	-0.062	0.119
-269.326	337.880	0.077	0.147
-268.311	67.219	0.425	-0.424
-267.297	-200.000	0.067	-0.358
-266.282	49.526	-0.186	-0.172
-265.267	-200.000	0.045	0.388
-264.253	-107.645	0.245	-0.052
-263.238	65.190	-0.239	0.237
-262.224	120.719	0.190	-0.231
-261.209	800.000	0.064	-0.181
-260.195	270.242	-0.175	-0.302
-259.180	410.607	-0.115	-0.238
-258.165	-127.421	0.165	-0.024
-257.151	15.945	-0.454	0.350
-256.136	-31.927	0.192	0.106
-255.122	800.000	0.117	0.341
-254.107	800.000	0.075	0.215
-253.092	7.587	0.102	0.075
-252.078	800.000	0.107	0.381
-251.063	197.943	-0.048	-0.072
-250.049	36.177	-0.145	0.125
-249.034	-200.000	0.081	0.581
-248.019	193.415	-0.063	0.093
-247.005	228.322	-0.080	-0.128
-245.990	21.838	-0.096	-0.077
-244.976	-23.180	0.215	-0.127
-243.961	113.903	0.236	-0.281
-242.946	-200.000	-0.035	-0.250
-241.932	285.241	0.164	0.290
-240.917	130.779	-0.132	0.166
-239.903	113.326	-0.189	0.224
-238.888	68.290	-0.140	0.140
-237.873	351.610	-0.101	-0.196
-236.859	-173.339	0.386	-0.011
-235.844	218.156	0.127	0.199
-234.830	137.252	0.061	0.078
-233.815	16.590	0.365	-0.283
-232.800	88.566	0.124	-0.135
-231.786	800.000	-0.054	-0.159
-230.771	-18.816	-0.046	-0.028
-229.757	15.825	-0.178	0.137
-228.742	147.303	0.201	0.265
-227.727	-200.000	-0.001	0.177
-226.713	-200.000	-0.042	0.239
-225.698	-169.537	0.211	0.008
-224.684	-87.117	-0.130	0.039
-223.669	25.954	-0.208	-0.170
-222.655	-200.000	0.007	-0.179
-221.640	-138.659	0.044	0.005
-220.625	367.045	0.144	0.284
-219.611	758.243	-0.028	0.073
-218.596	385.892	0.154	0.312
-217.582	-29.984	-0.214	0.119
-216.567	-200.000	0.055	-0.309
-215.552	800.000	0.032	-0.103
-214.538	130.917	-0.312	0.392
-213.523	-200.000	-0.001	0.022
-212.509	800.000	0.039	0.124
-211.494	-4.425	-0.041	-0.028
-210.479	138.985	-0.097	0.125
-209.465	303.633	-0.132	0.239
-208.450	-11.287	-0.107	0.069
-207.436	-200.000	0.045	0.380
-206.421	800.000	0.053	-0.186
-205.406	-200.000	-0.007	-0.329
-204.392	43.630	-0.236	-0.211
-203.377	-0.426	0.065	0.045
-202.363	208.118	0.255	-0.389
-201.348	47.192	0.023	-0.021
-200.333	-184.838	-0.250	-0.004
-199.319	-106.016	0.086	0.019
-198.304	-160.220	-0.272	0.014
-197.290	106.279	0.097	0.113
-196.275	-137.488	-0.155	-0.017
-195.260	407.659	-0.021	0.043
-194.246	-172.620	0.218	-0.007
-193.231	-170.080	-0.173	-0.006
-192.217	-35.167	-0.548	-0.292
-191.202	-162.233	-0.254	0.012
-190.187	-55.034	0.124	0.055
-189.173	-49.745	-0.292	-0.135
-188.158	-118.326	-0.241	0.042
-187.144	800.000	0.003	-0.011
-186.129	49.073	0.088	0.081
-185.114	15.345	-0.017	0.013
-184.100	-200.000	0.035	0.283
-183.085	20.200	-0.239	0.188
-182.071	21.525	0.178	0.141
-181.056	-160.614	0.087	0.005
-180.042	119.627	0.171	0.207
-179.027	-139.733	-0.111	-0.011
-178.012	192.453	-0.265	-0.391
-176.998	-39.930	0.146	0.074
-175.983	-200.000	-0.003	0.164
-174.969	-200.000	-0.024	-0.128
-173.954	-200.000	-0.006	0.246
-172.939	-7.769	0.245	0.162
-171.925	-65.166	-0.039	-0.015
-170.910	-68.289	-0.073	-0.028
-169.896	53.492	-0.054	-0.050
-168.881	486.569	0.111	0.247
-167.866	-189.800	0.037	0.000
-166.852	136.188	-0.214	0.272
-165.837	-200.000	0.057	0.281
-164.823	-5.167	0.099	0.066
-163.808	-200.000	-0.003	0.042
-162.793	163.398	0.291	-0.399
-161.779	800.000	0.008	0.031
-160.764	-21.017	-0.024	0.014
-159.750	440.345	0.014	-0.030
-158.735	-134.861	0.345	0.041
-157.720	313.992	0.159	0.291
-156.706	-89.572	-0.122	-0.035
-155.691	-61.627	0.172	0.071
-154.677	69.463	-0.089	-0.089
-153.662	-148.026	-0.137	0.011
-152.647	-105.484	0.456	-0.101
-151.633	504.801	-0.213	-0.481
-150.618	266.194	-0.045	0.077
-149.604	169.503	0.120	-0.167
-148.589	75.606	0.094	-0.097
-147.574	145.001	-0.071	0.093
-146.560	-200.000	-0.026	-0.116
-145.545	-200.000	0.023	0.147
-144.531	119.197	0.323	0.389
-143.516	-8.206	-0.317	0.208
-142.502	54.916	0.202	0.190
-141.487	52.338	0.065	-0.061
-140.472	323.996	0.081	0.151
-139.458	745.123	0.047	0.123
-138.443	-10.776	0.208	0.134
-137.429	-10.713	-0.166	0.107
-136.414	205.628	0.140	-0.212
-135.399	-151.969	0.104	0.007
-134.385	-102.977	0.319	-0.074
-133.370	595.636	0.101	-0.244
-132.356	178.879	0.202	0.288
-131.341	227.453	-0.142	0.226
-130.326	-113.576	-0.106	0.020
-129.312	513.487	-0.117	0.265
-128.297	30.109	0.224	0.186
-127.283	-17.964	-0.290	0.177
-126.268	-101.410	-0.143	0.034
-125.253	226.168	-0.033	0.052
-124.239	-200.000	0.233	-0.000
-123.224	130.774	-0.249	0.312
-122.210	156.932	0.063	-0.084
-121.195	-200.000	-0.036	0.179
-120.180	800.000	0.123	-0.434
-119.166	108.400	-0.220	-0.256
-118.151	701.732	0.068	-0.174
-117.137	-145.359	-0.281	-0.025
-116.122	76.482	-0.150	0.155
-115.107	379.770	0.131	-0.262
-114.093	17.725	0.170	-0.131
-113.078	125.409	0.191	0.235
-112.064	88.692	0.383	0.415
-111.049	800.000	0.044	0.179
-110.034	0.662	-0.204	0.142
-109.020	-82.868	-0.144	0.045
-108.005	530.004	0.138	-0.318
-106.991	187.572	0.151	-0.220
-105.976	-9.194	0.031	0.020
-104.962	800.000	0.118	0.485
-103.947	-140.508	0.378	-0.038
-102.932	-78.344	-0.240	-0.080
-101.918	273.770	0.134	0.231
-100.903	-69.050	0.196	0.074
-99.889	800.000	-0.093	-0.325
-98.874	-59.496	-0.147	-0.061
-97.859	682.813	0.022	-0.056
-96.845	800.000	-0.053	-0.185
-95.830	8.487	-0.086	-0.063
-94.816	-26.488	0.325	-0.186
-93.801	247.557	-0.106	0.175
-92.786	245.527	0.052	0.085
-91.772	-200.000	0.002	0.038
-90.757	-41.001	0.320	0.161
-89.743	800.000	-0.066	0.244
-88.728	28.223	0.125	-0.103
-87.713	-200.000	0.045	0.363
-86.699	-120.267	-0.054	0.009
-85.684	-200.000	-0.037	0.205
-84.670	-102.204	-0.206	-0.048
-83.655	-102.429	0.168	0.039
-82.640	173.660	-0.128	0.180
-81.626	233.581	-0.010	0.017
-80.611	99.988	0.245	0.276
-79.597	-200.000	0.023	-0.106
-78.582	64.211	0.285	0.279
-77.567	-93.729	-0.085	0.023
-76.553	317.512	-0.105	-0.193
-75.538	-100.791	0.193	-0.046
-74.524	89.563	-0.089	-0.097
-73.509	-200.000	-0.015	-0.071
-72.494	382.976	0.118	0.236
-71.480	19.780	0.224	-0.175
-70.465	-200.000	0.034	0.180
-69.451	411.252	0.024	0.049
-68.436	800.000	0.074	0.275
-67.422	-64.660	0.346	-0.136
-66.407	20.107	-0.120	-0.094
-65.392	-105.013	0.107	0.024
-64.378	-200.000	-0.000	0.213
-63.363	-110.719	0.476	0.096
-62.349	-35.138	-0.091	-0.048
-61.334	164.012	-1.057	-1.447
-60.319	-20.551	0.725	0.433
-59.305	542.229	-0.542	-1.255
-58.290	157.211	1.071	1.441
-57.276	744.637	0.591	1.546
-56.261	-200.000	125.959	674.242
-55.246	430.695	1575.121	3314.152
-54.232	142.984	2734.848	3534.126
-53.217	90.761	2290.000	2493.733
-52.203	32.421	1898.876	1593.789
-51.188	26.304	1696.088	1377.079
-50.173	24.142	1658.060	1330.026
-49.159	46.034	1727.360	1553.620
-48.144	43.446	1738.518	1543.852
-47.130	25.913	1689.870	1368.850
-46.115	23.361	1674.942	1337.464
-45.100	23.147	1669.992	1331.848
-44.086	23.171	1667.257	1329.793
-43.071	23.076	1665.139	1327.342
-42.057	23.087	1662.565	1325.316
-41.042	23.092	1661.008	1324.061
-40.027	23.089	1658.740	1322.179
-39.013	23.046	1656.614	1320.110
-37.998	23.095	1655.596	1319.611
-36.984	23.259	1654.105	1319.590
-35.969	23.269	1652.664	1318.468
-34.954	23.303	1651.379	1317.644
-33.940	23.204	1649.854	1315.636
-32.925	23.266	1647.748	1314.365
-31.911	23.244	1645.942	1312.711
-30.896	23.260	1644.253	1311.431
-29.881	23.242	1642.925	1310.185
-28.867	23.227	1641.675	1309.027
-27.852	23.195	1640.039	1307.433
-26.838	23.385	1638.787	1307.783
-25.823	23.229	1637.348	1305.431
-24.809	23.388	1635.945	1305.435
-23.794	23.290	1634.762	1303.720
-22.779	23.264	1633.665	1302.600
-21.765	23.252	1631.742	1300.923
-20.750	23.202	1630.003	1299.123
-19.736	23.290	1628.762	1298.727
-18.721	23.328	1627.307	1297.794
-17.706	23.195	1625.843	1295.602
-16.692	23.190	1624.474	1294.419
-15.677	23.303	1622.868	1293.913
-14.663	23.278	1621.485	1292.580
-13.648	23.318	1620.028	1291.661
-12.633	23.306	1618.715	1290.473
-11.619	23.230	1617.594	1288.973
-10.604	23.272	1615.836	1287.828
-9.590	23.346	1614.416	1287.180
-8.575	23.335	1613.230	1286.104
-7.560	23.257	1611.983	1284.495
-6.546	23.271	1610.863	1283.654
-5.531	23.198	1610.257	1282.588
-4.517	23.260	1608.657	1281.717
-3.502	23.201	1607.485	1280.300
-2.487	23.308	1605.536	1279.470
-1.473	22.822	1593.601	1266.426
-0.458	19.969	1573.394	1230.079
0.556	14.855	1575.630	1199.019
1.571	12.599	1599.277	1200.464
2.586	12.453	1611.019	1208.097
3.600	11.475	1556.406	1160.093
4.615	6.261	1450.837	1046.698
5.629	1.259	1393.045	972.906
6.644	0.296	1386.257	961.934
7.659	0.152	1384.956	960.028
8.673	0.156	1384.178	959.427
9.688	0.066	1382.042	957.290
10.702	-0.049	1378.379	953.936
11.717	2.624	1381.639	973.097
12.731	9.397	1391.781	1023.356
13.746	15.082	1400.556	1066.013
14.761	16.818	1402.558	1078.502
15.775	16.270	1400.563	1073.388
16.790	15.181	1398.189	1064.553
17.804	14.468	1396.005	1058.276
18.819	14.127	1394.227	1054.670
19.834	13.958	1392.932	1052.526
20.848	13.594	1391.996	1049.419
21.863	13.462	1389.946	1046.949
22.877	13.217	1389.302	1044.824
23.892	13.206	1388.190	1043.826
24.907	13.093	1387.833	1042.746
25.921	13.259	1386.445	1042.661
26.936	13.246	1385.837	1042.028
27.950	13.227	1385.068	1041.243
28.965	13.288	1383.536	1040.379
29.980	13.430	1382.960	1040.747
30.994	13.447	1381.776	1039.869
32.009	13.365	1380.853	1038.571
33.023	13.428	1380.112	1038.317
34.038	13.327	1378.842	1036.634
35.053	13.346	1377.444	1035.614
36.067	13.417	1376.079	1034.935
37.082	13.346	1375.470	1033.944
38.096	13.512	1373.889	1033.698
39.111	13.421	1373.160	1032.496
40.126	13.369	1372.635	1031.682
41.140	13.230	1371.855	1030.137
42.155	13.146	1371.361	1029.152
43.169	13.246	1371.060	1029.461
44.184	13.172	1371.227	1029.034
45.199	13.160	1370.821	1028.560
46.213	13.192	1370.073	1028.111
47.228	13.364	1369.052	1028.322
48.242	13.271	1367.931	1026.811
49.257	13.246	1366.927	1025.813
50.271	13.290	1364.907	1024.479
51.286	13.276	1363.653	1023.361
52.301	13.380	1362.000	1022.668
53.315	13.226	1361.149	1020.991
54.330	13.371	1359.799	1020.780
55.344	13.207	1358.752	1018.893
56.359	13.232	1357.882	1018.304
57.374	13.172	1356.692	1016.957
58.388	13.241	1355.990	1016.760
59.403	13.242	1355.463	1016.282
60.417	13.169	1354.428	1014.968
61.432	13.137	1353.919	1014.299
62.447	13.059	1353.001	1013.044
63.461	13.108	1351.706	1012.288
64.476	13.083	1350.473	1011.117
65.490	13.198	1349.115	1010.717
66.505	13.179	1347.356	1009.192
67.520	13.119	1345.983	1007.709
68.534	13.213	1344.989	1007.447
69.549	13.147	1344.303	1006.443
70.563	13.196	1343.114	1005.762
71.578	13.139	1341.973	1004.475
72.593	13.124	1340.935	1003.517
73.607	13.021	1340.751	1002.662
74.622	13.072	1339.437	1001.901
75.636	13.072	1338.574	1001.168
76.651	13.080	1337.920	1000.641
77.666	13.065	1337.423	1000.091
78.680	13.075	1336.628	999.467
79.695	12.996	1336.165	998.554
80.709	13.109	1335.029	998.299
81.724	13.151	1334.134	997.792
82.739	13.176	1333.380	997.292
83.753	13.292	1331.916	996.812
84.768	13.276	1331.122	996.029
85.782	13.364	1329.812	995.489
86.797	13.249	1328.881	994.016
87.812	13.280	1327.437	993.036
88.826	13.201	1326.324	991.640
89.841	13.208	1325.403	990.902
90.855	13.286	1324.535	990.636
91.870	13.308	1323.139	989.635
92.884	13.354	1322.701	989.494
93.899	13.301	1321.779	988.401
94.914	13.364	1321.232	988.284
95.928	13.454	1320.123	987.902
96.943	13.421	1319.194	986.922
97.957	13.321	1318.580	985.782
98.972	13.277	1317.361	984.519
99.987	13.444	1315.749	984.223
101.001	13.276	1315.554	982.987
102.016	13.389	1314.369	982.685
103.030	13.387	1313.279	981.772
104.045	13.438	1312.489	981.401
105.060	13.268	1311.125	979.288
106.074	13.325	1309.920	978.638
107.089	13.223	1308.883	977.170
108.103	13.174	1307.852	976.026
109.118	13.206	1306.523	975.138
110.133	13.297	1304.729	974.247
111.147	13.272	1303.405	973.025
112.162	13.313	1302.295	972.352
113.176	13.296	1301.105	971.278
114.191	13.281	1300.302	970.505
115.206	13.322	1298.969	969.666
116.220	13.388	1297.402	968.795
117.235	13.277	1296.558	967.432
118.249	13.330	1295.229	966.661
119.264	13.270	1294.751	965.869
120.279	13.361	1293.227	965.179
121.293	13.307	1292.056	963.902
122.308	13.263	1291.059	962.816
123.322	13.284	1290.040	962.096
124.337	13.202	1288.987	960.747
125.352	13.281	1287.805	960.244
126.366	13.164	1286.871	958.781
127.381	13.195	1285.918	958.166
128.395	13.214	1284.415	957.071
129.410	13.147	1283.870	956.191
130.424	13.230	1282.672	955.694
131.439	13.221	1282.186	955.196
132.454	13.363	1280.220	954.466
133.468	13.195	1280.402	953.549
134.483	13.290	1279.260	953.163
135.497	13.322	1278.075	952.378
136.512	13.323	1276.445	951.083
137.527	13.270	1275.805	950.218
138.541	13.207	1274.347	948.690
139.556	13.383	1272.831	948.485
140.570	13.332	1271.983	947.475
141.585	13.328	1270.823	946.506
142.600	13.475	1269.437	946.227
143.614	13.434	1268.697	945.363
144.629	13.475	1267.532	944.641
145.643	13.386	1266.349	943.169
146.658	13.469	1265.126	942.646
147.673	13.469	1263.346	941.238
148.687	13.402	1262.159	939.889
149.702	13.388	1261.180	939.000
150.716	13.443	1259.982	938.334
151.731	13.367	1258.876	937.000
152.746	13.449	1257.134	936.081
153.760	13.453	1256.373	935.458
154.775	13.445	1255.069	934.358
155.789	13.514	1253.939	933.822
156.804	13.395	1253.373	932.650
157.819	13.568	1251.852	932.406
158.833	13.617	1251.240	932.146
159.848	13.536	1250.189	930.822
160.862	13.588	1249.400	930.443
161.877	13.570	1248.104	929.297
162.892	13.570	1246.650	928.133
163.906	13.533	1245.985	927.346
164.921	13.490	1245.005	926.294
165.935	13.614	1244.005	926.164
166.950	13.612	1243.430	925.641
167.964	13.528	1242.927	924.719
168.979	13.635	1242.081	924.604
169.994	13.616	1241.226	923.777
171.008	13.705	1240.114	923.365
172.023	13.616	1239.468	922.307
173.037	13.681	1238.900	922.162
174.052	13.683	1237.688	921.189
175.067	13.653	1236.853	920.324
176.081	13.512	1236.144	918.929
177.096	13.573	1235.280	918.546
178.110	13.676	1233.737	917.887
179.125	13.753	1232.198	917.086
180.140	13.734	1231.078	916.064
181.154	13.643	1230.363	914.953
182.169	13.788	1229.068	914.705
183.183	13.834	1227.558	913.756
184.198	13.913	1226.203	913.099
185.213	13.821	1225.463	911.963
186.227	13.879	1224.274	911.318
187.242	13.947	1223.100	910.733
188.256	13.779	1222.898	909.583
189.271	13.984	1221.062	909.259
190.286	13.974	1220.216	908.496
191.300	13.796	1219.257	906.725
192.315	13.702	1218.846	905.828
193.329	13.743	1218.136	905.443
194.344	13.825	1217.182	905.101
195.359	13.883	1216.325	904.700
196.373	13.809	1216.278	904.184
197.388	13.913	1215.873	904.366
198.402	13.912	1215.396	903.924
199.417	14.064	1214.765	904.202
200.432	14.160	1213.168	903.458
201.446	14.148	1212.440	902.770
202.461	14.120	1211.809	902.067
203.475	14.058	1210.648	900.790
204.490	14.112	1209.079	899.835
205.504	14.034	1208.402	898.825
206.519	14.103	1206.951	898.043
207.534	14.026	1205.953	896.805
208.548	14.189	1204.700	896.673
209.563	14.081	1204.114	895.574
210.577	14.072	1202.941	894.573
211.592	14.153	1202.487	894.592
212.607	14.267	1201.442	894.347
213.621	14.268	1200.298	893.422
214.636	14.116	1200.127	892.404
215.650	14.230	1198.603	891.800
216.665	14.295	1197.792	891.464
217.680	14.363	1196.784	890.999
218.694	14.390	1196.324	890.722
219.709	14.384	1194.959	889.599
220.723	14.298	1195.179	889.222
221.738	14.369	1193.856	888.537
222.753	14.338	1193.174	887.784
223.767	14.302	1192.510	887.019
224.782	14.430	1191.659	886.991
225.796	14.460	1191.098	886.656
226.811	14.507	1190.202	886.157
227.826	14.392	1189.799	885.170
228.840	14.455	1188.934	884.780
229.855	14.384	1188.199	883.781
230.869	14.431	1187.547	883.467
231.884	14.419	1186.937	882.872
232.899	14.339	1185.989	881.662
233.913	14.313	1185.330	880.961
234.928	14.370	1184.413	880.504
235.942	14.308	1183.706	879.572
236.957	14.461	1182.565	879.449
237.972	14.516	1181.948	879.207
238.986	14.526	1181.159	878.594
240.001	14.519	1180.566	878.040
241.015	14.469	1180.097	877.350
242.030	14.530	1178.931	876.725
243.045	14.525	1178.381	876.211
244.059	14.521	1177.546	875.492
245.074	14.563	1176.638	874.962
246.088	14.673	1175.921	874.924
247.103	14.652	1175.114	874.137
248.117	14.652	1174.607	873.682
249.132	14.634	1173.813	872.921
250.147	14.777	1172.834	872.862
251.161	14.810	1172.361	872.609
252.176	14.783	1171.731	871.919
253.190	14.789	1171.196	871.475
254.205	14.802	1170.658	871.066
255.220	14.869	1169.823	870.717
256.234	15.004	1169.049	870.767
257.249	14.901	1168.422	869.683
258.263	14.970	1167.669	869.406
259.278	15.053	1166.911	869.195
260.293	15.106	1166.551	869.129
261.307	14.999	1165.667	867.838
262.322	15.057	1164.895	867.486
263.336	15.163	1164.182	867.427
264.351	15.084	1163.723	866.598
265.366	15.046	1163.204	865.940
266.380	15.185	1162.423	866.001
267.395	15.051	1162.047	864.951
268.409	15.041	1161.149	864.152
269.424	15.103	1160.553	863.952
270.439	15.031	1160.068	863.147
271.453	15.030	1159.076	862.323
272.468	15.124	1157.834	861.806
273.482	15.024	1157.379	860.877
274.497	15.088	1156.763	860.673
275.512	15.112	1156.174	860.282
276.526	15.172	1155.296	859.863
277.541	15.185	1154.294	859.104
278.555	15.270	1153.549	858.911
279.570	15.225	1153.326	858.437
280.585	15.271	1151.746	857.423
281.599	15.286	1151.202	857.016
282.614	15.239	1150.001	855.805
283.628	15.312	1149.019	855.373
284.643	15.340	1148.355	854.946
285.657	15.309	1147.657	854.192
286.672	15.416	1146.601	853.878
287.687	15.401	1145.556	852.947
288.701	15.403	1144.871	852.369
289.716	15.342	1144.144	851.446
290.730	15.452	1143.059	851.120
291.745	15.393	1142.581	850.388
292.760	15.342	1142.104	849.700
293.774	15.491	1141.176	849.687
294.789	15.506	1140.818	849.422
295.803	15.594	1140.065	849.231
296.818	15.545	1139.446	848.450
297.833	15.504	1138.960	847.805
298.847	15.498	1138.080	847.046
299.862	15.580	1137.205	846.732
300.876	15.636	1136.386	846.329
301.891	15.511	1135.879	845.248
302.906	15.635	1134.959	845.110
303.920	15.778	1134.144	845.150
304.935	15.679	1133.942	844.425
305.949	15.764	1132.968	844.051
306.964	15.651	1132.855	843.324
307.979	15.858	1131.775	843.487
308.993	15.669	1131.380	842.170
310.008	15.698	1130.590	841.653
311.022	15.746	1129.478	840.991
312.037	15.771	1128.682	840.445
313.052	15.833	1127.231	839.600
314.066	15.640	1126.826	838.263
315.081	15.678	1125.962	837.736
316.095	15.693	1125.527	837.414
317.110	15.810	1124.262	836.980
318.125	15.799	1123.998	836.653
319.139	15.781	1123.450	836.085
320.154	15.743	1122.756	835.303
321.168	15.855	1121.888	835.138
322.183	15.651	1121.636	833.868
323.197	15.874	1120.366	833.951
324.212	15.876	1119.854	833.506
325.227	15.820	1119.647	833.002
326.241	15.951	1118.582	832.786
327.256	15.845	1118.076	831.813
328.270	15.819	1117.468	831.154
329.285	15.934	1116.112	830.643
330.300	15.892	1115.099	829.607
331.314	15.980	1114.071	829.199
332.329	15.935	1113.195	828.254
333.343	15.974	1112.210	827.639
334.358	15.986	1111.364	826.997
335.373	15.940	1111.029	826.447
336.387	16.043	1110.104	826.191
337.402	16.002	1109.604	825.545
338.416	16.086	1108.919	825.377
339.431	16.134	1108.345	825.107
340.446	16.172	1107.028	824.243
341.460	16.241	1106.688	824.254
342.475	16.134	1106.152	823.258
343.489	16.231	1105.093	822.868
344.504	16.221	1104.120	822.026
345.519	16.221	1103.183	821.252
346.533	16.305	1102.586	821.145
347.548	16.279	1101.997	820.505
348.562	16.312	1101.221	820.017
349.577	16.276	1100.173	818.988
350.592	16.178	1099.615	818.029
351.606	16.324	1098.682	817.970
352.621	16.264	1098.489	817.461
353.635	16.239	1097.846	816.787
354.650	16.355	1096.530	816.296
355.665	16.244	1096.216	815.456
356.679	16.335	1095.471	815.267
357.694	16.298	1094.861	814.564
358.708	16.356	1094.015	814.143
359.723	16.544	1093.339	814.474
360.738	16.419	1092.639	813.276
361.752	16.390	1092.022	812.607
362.767	16.428	1091.682	812.464
363.781	16.559	1090.684	812.278
364.796	16.463	1090.516	811.620
365.810	16.559	1090.068	811.678
366.825	16.524	1089.399	810.940
367.840	16.756	1088.436	811.264
368.854	16.633	1088.075	810.334
369.869	16.626	1087.341	809.682
370.883	16.673	1086.394	809.130
371.898	16.602	1085.676	808.183
372.913	16.584	1085.499	807.894
373.927	16.611	1084.804	807.432
374.942	16.743	1083.813	807.252
375.956	16.861	1083.579	807.569
376.971	16.721	1082.969	806.378
377.986	16.734	1082.552	806.057
379.000	16.840	1081.637	805.810
380.015	16.758	1081.451	805.211
381.029	16.779	1080.447	804.489
382.044	16.807	1079.892	804.139
383.059	17.045	1078.822	804.399
384.073	16.936	1078.530	803.593
385.088	16.901	1077.551	802.628
386.102	16.777	1076.948	801.521
387.117	16.990	1075.324	801.246
388.132	16.930	1074.669	800.404
389.146	16.883	1073.895	799.537
390.161	16.831	1073.595	798.996
391.175	16.906	1072.562	798.510
392.190	16.918	1071.859	797.970
393.205	17.031	1071.359	798.064
394.219	17.116	1070.184	797.514
395.234	17.005	1069.177	796.175
396.248	17.074	1068.104	795.626
397.263	17.082	1066.954	794.736
398.278	16.896	1066.924	793.774
399.292	16.893	1066.008	793.007
400.307	16.825	1065.662	792.361
401.321	16.989	1064.717	792.356
402.336	17.078	1063.756	791.986
403.350	17.003	1063.496	791.373
404.365	17.012	1062.723	790.768
405.380	17.040	1062.198	790.437
406.394	17.087	1061.379	789.978
407.409	17.199	1060.128	789.497
408.423	17.200	1059.845	789.221
409.438	17.192	1059.087	788.550
410.453	17.211	1058.603	788.206
411.467	17.167	1057.840	787.364
412.482	17.191	1057.425	787.098
413.496	17.300	1056.178	786.607
414.511	17.395	1055.838	786.722
415.526	17.332	1055.317	785.973
416.540	17.494	1054.290	785.889
417.555	17.552	1053.986	785.860
418.569	17.369	1054.034	784.978
419.584	17.320	1053.706	784.439
420.599	17.401	1053.029	784.241
421.613	107.988	1330.434	1486.793
422.628	99.479	1370.790	1486.884
