DTS Sentinel unit serial number:	SN413079Multiplexer serial number:	ORYXHardware model number:	OX4-SRSoftware version number:	ORYX F/W v4.00 Oryx Data Collector v3.7.2.0data status	okinstallation	princeton_trtdifferential loss correction	single-endedforward channel	channel 2reverse channel	N/Adate	2019/09/16time	00:39:35forward acquisition time	60.00reverse acquisition time	0.00gamma	496.2192k internal	0.2337k external	0.2337temperature offset calibration	0.9962default loss term (dB/km)	0.3790temperature slope calibration	1.0000multiplexer offset coefficient	1.0000multiplexer slope coefficient	1.0000fibre end	0.00T internal ref (°C)	27.50T ext. ref 1 (°C)	9.62T ext. ref 2 (°C)	21.54length (m)	temperature (°C)	Stokes	anti-Stokes-747.200	578.014	-0.064	0.157
-746.185	133.547	0.248	0.322
-745.171	120.210	0.265	0.330
-744.156	327.685	-0.117	0.225
-743.142	-154.741	-0.037	-0.002
-742.127	-37.018	-0.014	0.008
-741.112	87.839	-0.172	0.191
-740.098	-110.393	-0.332	0.069
-739.083	723.270	-0.008	0.020
-738.069	175.576	0.064	-0.093
-737.054	-200.000	0.013	0.109
-736.039	-138.493	0.326	-0.036
-735.025	800.000	0.088	0.372
-734.010	-200.000	-0.004	0.283
-732.996	758.810	-0.090	-0.246
-731.981	800.000	-0.056	0.205
-730.966	-172.022	-0.194	0.006
-729.952	-172.031	0.285	-0.009
-728.937	-200.000	0.010	-0.113
-727.923	800.000	0.020	-0.065
-726.908	800.000	0.034	0.098
-725.894	-200.000	0.027	-0.200
-724.879	-200.000	0.016	0.275
-723.864	800.000	-0.036	0.113
-722.850	225.046	-0.110	-0.179
-721.835	-105.963	-0.155	-0.035
-720.821	-159.904	-0.391	0.021
-719.806	-69.384	0.187	0.072
-718.791	-167.891	0.066	-0.003
-717.777	-200.000	0.025	-0.186
-716.762	-57.692	-0.167	-0.073
-715.748	-72.806	-0.091	-0.034
-714.733	-45.241	-0.199	0.099
-713.718	302.658	0.101	0.187
-712.704	-61.899	0.146	0.061
-711.689	123.477	-0.052	-0.066
-710.675	-171.393	-0.330	-0.011
-709.660	-115.788	-0.349	-0.066
-708.645	-54.838	-0.279	-0.126
-707.631	63.149	0.090	-0.090
-706.616	800.000	-0.012	0.048
-705.602	253.913	0.128	0.220
-704.587	-38.339	0.140	0.074
-703.572	80.164	0.190	0.205
-702.558	103.574	-0.081	-0.096
-701.543	-98.664	-0.070	0.018
-700.529	18.560	0.222	0.177
-699.514	319.576	-0.125	-0.238
-698.499	150.833	0.046	0.063
-697.485	-14.960	0.065	0.042
-696.470	14.469	0.148	-0.115
-695.456	222.906	0.083	-0.134
-694.441	800.000	-0.104	0.307
-693.426	96.143	0.072	0.083
-692.412	-200.000	-0.008	-0.074
-691.397	39.634	-0.277	-0.248
-690.383	-200.000	0.302	0.001
-689.368	151.699	0.166	0.226
-688.354	-200.000	0.027	0.245
-687.339	11.503	-0.174	-0.134
-686.324	170.372	-0.193	0.276
-685.310	79.601	-0.168	0.180
-684.295	202.913	-0.111	-0.172
-683.281	313.496	-0.176	-0.332
-682.266	-158.941	0.213	0.012
-681.251	79.377	-0.301	-0.323
-680.237	1.797	-0.216	0.156
-679.222	-132.627	-0.333	0.043
-678.208	-52.294	0.296	0.137
-677.193	-98.466	-0.142	-0.036
-676.178	-80.877	-0.297	-0.099
-675.164	-94.596	-0.092	0.025
-674.149	-200.000	-0.001	-0.048
-673.135	-79.902	-0.076	0.026
-672.120	-153.327	-0.180	0.013
-671.105	-200.000	0.020	-0.257
-670.091	-125.867	0.133	-0.020
-669.076	162.918	0.179	-0.252
-668.062	-79.432	0.116	-0.039
-667.047	89.966	-0.075	-0.083
-666.032	-62.900	-0.161	0.067
-665.018	-75.894	-0.075	0.027
-664.003	-170.617	0.130	-0.005
-662.989	-151.022	-0.119	0.009
-661.974	-105.438	-0.263	-0.060
-660.959	-200.000	0.042	0.185
-659.945	-85.892	-0.201	0.062
-658.930	-200.000	-0.019	0.091
-657.916	-111.851	0.241	0.049
-656.901	-97.052	-0.152	-0.040
-655.886	-200.000	0.009	-0.385
-654.872	-110.429	-0.348	-0.072
-653.857	-92.752	0.057	0.016
-652.843	40.158	0.047	0.043
-651.828	-9.641	-0.094	-0.062
-650.814	99.906	-0.270	-0.312
-649.799	-200.000	-0.003	0.403
-648.784	-81.452	-0.143	-0.047
-647.770	-122.710	0.050	-0.008
-646.755	-200.000	-0.008	0.152
-645.741	-31.782	0.095	-0.053
-644.726	42.752	-0.076	-0.069
-643.711	27.346	0.102	0.086
-642.697	800.000	0.049	0.149
-641.682	-200.000	-0.015	0.191
-640.668	-15.233	-0.149	0.095
-639.653	12.022	0.155	-0.119
-638.638	-200.000	0.009	-0.236
-637.624	21.312	0.032	-0.026
-636.609	-130.623	0.228	0.031
-635.595	-160.530	-0.207	-0.011
-634.580	-159.238	0.432	0.024
-633.565	-200.000	-0.042	0.212
-632.551	-11.701	-0.154	0.101
-631.536	195.133	-0.198	-0.301
-630.522	15.375	-0.152	0.119
-629.507	607.471	-0.121	-0.301
-628.492	90.623	0.253	-0.283
-627.478	435.032	0.022	0.047
-626.463	-200.000	-0.013	0.353
-625.449	400.360	-0.081	0.170
-624.434	-46.553	0.156	-0.076
-623.419	-95.122	-0.183	0.049
-622.405	-200.000	-0.036	0.270
-621.390	205.647	0.125	0.194
-620.376	-148.400	-0.133	0.011
-619.361	-200.000	-0.030	-0.443
-618.346	-138.123	-0.355	-0.039
-617.332	254.419	-0.068	-0.117
-616.317	-200.000	0.000	-0.449
-615.303	296.006	0.151	0.276
-614.288	-169.252	0.578	0.021
-613.273	-88.319	-0.250	-0.075
-612.259	-200.000	0.352	-0.001
-611.244	557.381	0.132	0.318
-610.230	139.676	0.128	-0.168
-609.215	-46.444	0.159	0.078
-608.201	-55.826	-0.218	0.097
-607.186	-200.000	-0.028	-0.128
-606.171	-39.558	0.135	0.070
-605.157	154.219	-0.131	-0.180
-604.142	-101.306	0.242	0.059
-603.128	135.985	0.236	-0.307
-602.113	800.000	-0.106	0.342
-601.098	30.349	0.086	0.074
-600.084	-76.631	0.198	0.069
-599.069	-200.000	-0.023	0.140
-598.055	280.581	0.109	-0.194
-597.040	220.384	0.046	0.074
-596.025	-200.000	0.009	0.042
-595.011	476.191	0.061	0.138
-593.996	-44.656	0.298	0.148
-592.982	-126.411	-0.270	-0.040
-591.967	800.000	-0.022	-0.075
-590.952	-117.435	-0.208	0.037
-589.938	104.942	-0.167	-0.197
-588.923	-200.000	-0.037	-0.217
-587.909	255.096	-0.115	0.196
-586.894	182.671	0.171	0.252
-585.879	11.876	-0.256	0.196
-584.865	-106.512	0.177	0.039
-583.850	-100.399	0.018	-0.004
-582.836	-98.199	0.379	0.097
-581.821	42.325	-0.177	-0.161
-580.806	264.721	-0.144	-0.250
-579.792	800.000	-0.140	-0.487
-578.777	735.210	-0.059	-0.157
-577.763	35.564	-0.113	0.099
-576.748	398.893	0.095	0.198
-575.733	-200.000	-0.031	-0.164
-574.719	-200.000	-0.043	0.294
-573.704	181.256	-0.121	-0.177
-572.690	48.452	0.139	-0.129
-571.675	-200.000	0.008	0.097
-570.661	-68.872	0.223	0.086
-569.646	-11.927	-0.103	0.068
-568.631	445.625	-0.009	0.021
-567.617	-85.202	0.109	0.034
-566.602	800.000	0.021	-0.089
-565.588	-79.807	0.238	0.080
-564.573	216.777	0.132	0.210
-563.558	0.258	-0.096	0.069
-562.544	127.944	-0.047	0.059
-561.529	-46.267	-0.295	-0.145
-560.515	313.748	0.141	-0.264
-559.500	-200.000	-0.051	0.371
-558.485	-107.226	-0.331	0.073
-557.471	-187.348	0.126	-0.002
-556.456	-71.639	0.254	-0.095
-555.442	24.859	0.250	-0.207
-554.427	-140.787	-0.193	0.020
-553.412	-200.000	0.018	-0.175
-552.398	-200.000	0.058	0.390
-551.383	-39.972	-0.125	0.065
-550.369	196.330	-0.158	-0.240
-549.354	-105.125	0.325	0.074
-548.339	-119.447	-0.197	0.034
-547.325	-43.617	0.281	-0.141
-546.310	-118.100	-0.388	0.069
-545.296	389.683	0.072	0.148
-544.281	75.363	0.156	0.164
-543.266	250.708	0.085	-0.144
-542.252	108.821	0.084	0.100
-541.237	-144.740	-0.177	-0.016
-540.223	166.022	-0.075	-0.106
-539.208	108.789	-0.117	0.139
-538.193	-83.677	-0.079	-0.025
-537.179	800.000	0.063	-0.178
-536.164	121.756	0.207	-0.256
-535.150	-92.420	0.032	0.009
-534.135	106.378	0.069	-0.081
-533.121	105.373	-0.039	-0.046
-532.106	-200.000	-0.033	-0.241
-531.091	-4.028	0.132	-0.091
-530.077	-200.000	-0.074	0.391
-529.062	-200.000	0.021	0.281
-528.048	238.941	-0.079	0.130
-527.033	-84.973	-0.135	-0.042
-526.018	-26.741	-0.230	0.134
-525.004	800.000	0.060	0.190
-523.989	27.382	-0.152	-0.127
-522.975	800.000	0.163	0.500
-521.960	66.585	0.177	-0.179
-520.945	800.000	0.050	-0.150
-519.931	755.021	-0.069	-0.187
-518.916	-75.515	0.094	-0.033
-517.902	-95.967	-0.126	0.033
-516.887	800.000	0.089	-0.273
-515.872	-200.000	-0.013	-0.107
-514.858	800.000	0.038	-0.143
-513.843	800.000	0.079	-0.240
-512.829	187.688	-0.108	0.161
-511.814	302.580	0.076	-0.141
-510.799	-100.879	0.273	-0.067
-509.785	-141.125	-0.170	-0.017
-508.770	-112.182	-0.220	0.044
-507.756	81.899	0.134	0.144
-506.741	-200.000	0.044	-0.222
-505.726	-92.827	-0.528	0.147
-504.712	21.741	0.114	0.092
-503.697	-181.872	-0.310	0.006
-502.683	-16.835	-0.220	0.138
-501.668	590.596	-0.136	-0.333
-500.653	-85.790	0.223	0.069
-499.639	-200.000	-0.015	0.115
-498.624	-135.275	-0.361	0.043
-497.610	-37.925	-0.077	0.041
-496.595	-149.455	-0.473	-0.037
-495.581	-5.055	0.426	-0.291
-494.566	372.287	-0.121	0.244
-493.551	403.760	-0.088	-0.185
-492.537	121.581	-0.123	-0.153
-491.522	800.000	0.069	-0.202
-490.508	-200.000	0.081	-0.410
-489.493	77.059	0.070	0.074
-488.478	189.635	0.051	-0.077
-487.464	-75.799	-0.246	0.086
-486.449	-125.825	-0.045	0.007
-485.435	-200.000	0.064	0.501
-484.420	-78.692	0.143	-0.049
-483.405	-159.415	-0.277	-0.015
-482.391	-64.747	0.029	0.012
-481.376	435.340	0.228	0.493
-480.362	-130.802	0.387	0.052
-479.347	410.916	0.091	0.193
-478.332	800.000	0.018	-0.063
-477.318	-150.724	0.296	0.022
-476.303	800.000	0.095	-0.343
-475.289	-16.086	-0.045	-0.029
-474.274	-200.000	-0.007	0.129
-473.259	60.134	0.193	0.190
-472.245	-200.000	-0.028	-0.403
-471.230	-200.000	-0.019	-0.421
-470.216	-116.422	0.181	0.033
-469.201	167.988	0.104	-0.146
-468.186	362.379	-0.157	0.312
-467.172	70.156	-0.111	0.114
-466.157	-200.000	-0.018	-0.276
-465.143	4.180	0.396	-0.287
-464.128	22.743	0.173	0.141
-463.113	42.761	0.096	0.086
-462.099	-20.396	0.031	-0.019
-461.084	0.522	0.157	0.112
-460.070	151.460	-0.163	0.220
-459.055	-200.000	0.009	-0.481
-458.040	-170.740	0.214	-0.007
-457.026	-200.000	-0.040	-0.233
-456.011	-13.747	-0.129	-0.083
-454.997	-25.323	0.075	-0.044
-453.982	-150.521	0.315	-0.024
-452.968	73.569	0.202	0.209
-451.953	-9.033	0.161	0.107
-450.938	-200.000	-0.021	0.282
-449.924	-63.087	0.345	-0.141
-448.909	-200.000	0.048	-0.254
-447.895	-200.000	0.037	-0.211
-446.880	-154.416	-0.267	0.018
-445.865	419.690	-0.101	0.215
-444.851	-200.000	-0.018	-0.122
-443.836	378.498	0.038	-0.078
-442.822	-200.000	-0.011	0.160
-441.807	-127.611	-0.067	-0.010
-440.792	-57.434	0.210	0.091
-439.778	36.967	0.120	0.105
-438.763	194.361	-0.107	0.161
-437.749	-200.000	-0.020	0.200
-436.734	-47.596	-0.048	-0.023
-435.719	-200.000	-0.027	0.234
-434.705	-200.000	-0.020	0.103
-433.690	107.748	0.041	-0.048
-432.676	601.946	0.154	0.379
-431.661	-143.842	0.212	-0.020
-430.646	24.589	0.240	0.197
-429.632	-36.165	-0.355	-0.190
-428.617	436.414	0.100	-0.216
-427.603	21.427	0.074	0.059
-426.588	-200.000	-0.009	-0.041
-425.573	155.482	-0.125	-0.171
-424.559	35.100	-0.088	-0.077
-423.544	299.878	-0.234	-0.427
-422.530	33.503	-0.135	-0.116
-421.515	-200.000	0.001	0.028
-420.500	262.235	0.056	-0.096
-419.486	74.073	-0.164	-0.170
-418.471	-200.000	-0.003	-0.270
-417.457	37.119	-0.101	-0.089
-416.442	-61.514	0.231	-0.096
-415.428	51.982	-0.113	-0.106
-414.413	-69.750	-0.123	0.046
-413.398	447.346	0.031	-0.068
-412.384	800.000	-0.097	0.374
-411.369	71.191	-0.023	-0.024
-410.355	800.000	0.023	-0.082
-409.340	-114.681	0.266	-0.050
-408.325	191.024	0.144	-0.214
-407.311	272.575	0.165	0.289
-406.296	250.455	-0.065	-0.109
-405.282	800.000	-0.061	0.233
-404.267	-21.387	-0.173	-0.105
-403.252	756.057	0.042	0.113
-402.238	-46.025	-0.339	-0.165
-401.223	-93.035	0.071	0.020
-400.209	-56.000	0.115	-0.051
-399.194	162.176	-0.088	-0.122
-398.179	132.048	-0.114	0.145
-397.165	83.793	0.163	-0.177
-396.150	800.000	0.104	-0.283
-395.136	74.391	0.200	-0.208
-394.121	13.557	-0.149	0.114
-393.106	-200.000	0.002	-0.086
-392.092	-200.000	0.015	-0.275
-391.077	244.095	-0.019	0.031
-390.063	402.124	0.185	0.386
-389.048	114.881	0.044	0.053
-388.033	-80.861	0.313	-0.103
-387.019	-200.000	-0.040	0.310
-386.004	800.000	-0.074	-0.233
-384.990	-200.000	-0.019	0.290
-383.975	-93.892	-0.433	-0.118
-382.960	-177.730	0.383	0.009
-381.946	242.388	0.177	-0.292
-380.931	1.613	0.143	-0.102
-379.917	800.000	0.047	-0.194
-378.902	-200.000	-0.016	-0.188
-377.888	-1.245	-0.069	-0.048
-376.873	583.648	-0.012	-0.030
-375.858	219.906	-0.053	-0.084
-374.844	188.037	0.207	0.306
-373.829	124.520	-0.338	0.421
-372.815	527.691	-0.067	0.156
-371.800	114.556	0.151	-0.182
-370.785	-200.000	0.030	-0.198
-369.771	663.946	0.129	0.330
-368.756	-12.755	-0.142	0.091
-367.742	177.925	0.085	-0.123
-366.727	-14.851	0.200	0.127
-365.712	344.524	-0.112	-0.218
-364.698	139.758	-0.242	-0.315
-363.683	800.000	0.076	0.242
-362.669	135.173	-0.037	0.047
-361.654	572.301	-0.093	0.223
-360.639	800.000	0.071	0.206
-359.625	800.000	0.119	0.424
-358.610	687.511	-0.125	-0.323
-357.596	52.307	-0.152	-0.143
-356.581	188.452	0.152	0.225
-355.566	343.405	0.117	0.228
-354.552	53.874	0.270	-0.257
-353.537	84.265	-0.083	0.089
-352.523	800.000	-0.050	-0.164
-351.508	-0.485	-0.244	-0.171
-350.493	-200.000	-0.037	-0.282
-349.479	-173.968	0.304	0.009
-348.464	-200.000	-0.014	-0.304
-347.450	-200.000	0.063	-0.315
-346.435	210.850	-0.099	0.154
-345.420	110.855	-0.092	-0.109
-344.406	508.630	-0.003	0.006
-343.391	78.870	-0.175	-0.185
-342.377	-200.000	0.036	0.262
-341.362	60.560	-0.244	0.239
-340.348	209.985	-0.122	0.188
-339.333	-85.881	-0.105	0.032
-338.318	67.668	0.088	-0.089
-337.304	4.811	-0.242	0.176
-336.289	67.909	0.127	0.128
-335.275	5.819	-0.098	0.072
-334.260	-100.955	-0.296	0.072
-333.245	-33.035	0.060	-0.033
-332.231	487.162	-0.038	0.086
-331.216	-200.000	-0.009	0.469
-330.202	58.597	-0.131	-0.127
-329.187	-169.728	-0.252	0.009
-328.172	120.627	0.128	0.157
-327.158	-64.741	0.305	0.122
-326.143	223.732	0.141	0.225
-325.129	-145.975	0.524	0.046
-324.114	-200.000	-0.043	0.356
-323.099	-63.124	-0.107	-0.044
-322.085	121.013	0.145	0.179
-321.070	2.998	-0.213	0.153
-320.056	800.000	-0.037	-0.159
-319.041	800.000	0.067	0.214
-318.026	-152.219	-0.202	-0.014
-317.012	-104.081	0.281	0.065
-315.997	319.866	-0.135	0.253
-314.983	-200.000	-0.038	0.283
-313.968	671.409	-0.062	-0.160
-312.953	800.000	-0.054	0.220
-311.939	-5.379	-0.226	0.153
-310.924	-105.281	0.480	0.108
-309.910	70.992	-0.261	0.267
-308.895	67.076	0.031	-0.031
-307.880	51.087	-0.235	-0.220
-306.866	-200.000	-0.004	-0.105
-305.851	21.818	-0.097	0.078
-304.837	-200.000	-0.024	-0.475
-303.822	-102.445	0.095	-0.022
-302.807	-128.104	-0.219	0.031
-301.793	29.023	0.285	-0.238
-300.778	746.221	0.071	-0.190
-299.764	-200.000	-0.082	0.444
-298.749	-200.000	-0.032	-0.223
-297.735	-200.000	-0.046	-0.316
-296.720	-85.558	-0.244	0.075
-295.705	-10.762	0.281	0.183
-294.691	285.783	-0.105	-0.187
-293.676	-76.692	-0.180	0.062
-292.662	-200.000	-0.010	-0.129
-291.647	-110.201	-0.243	-0.050
-290.632	268.255	-0.019	-0.033
-289.618	67.412	0.112	0.113
-288.603	-67.644	-0.169	0.065
-287.589	800.000	-0.091	0.249
-286.574	459.482	-0.089	-0.196
-285.559	-200.000	0.011	0.365
-284.545	432.288	-0.171	0.365
-283.530	-71.400	-0.196	0.072
-282.516	-200.000	-0.020	0.194
-281.501	800.000	-0.066	0.258
-280.486	14.437	0.128	-0.098
-279.472	-200.000	0.016	-0.278
-278.457	-13.445	-0.250	0.160
-277.443	89.675	0.077	-0.084
-276.428	284.774	0.182	-0.322
-275.413	-106.256	0.187	0.041
-274.399	219.826	0.136	-0.215
-273.384	367.012	0.098	-0.194
-272.370	-200.000	0.005	0.211
-271.355	432.318	0.079	-0.169
-270.340	-7.262	-0.244	-0.163
-269.326	-49.627	0.148	-0.069
-268.311	94.956	-0.079	0.089
-267.297	-200.000	0.077	-0.406
-266.282	223.646	-0.054	-0.086
-265.267	280.989	-0.106	-0.187
-264.253	-100.953	0.178	0.043
-263.238	-141.957	-0.419	0.041
-262.224	-200.000	0.038	0.210
-261.209	131.275	0.157	0.198
-260.195	769.288	-0.034	0.092
-259.180	800.000	-0.029	0.084
-258.165	800.000	0.068	0.263
-257.151	-65.908	-0.439	0.173
-256.136	-117.768	0.264	-0.047
-255.122	-34.602	-0.152	-0.082
-254.107	-7.833	0.161	-0.107
-253.092	-85.700	-0.277	-0.085
-252.078	194.148	0.168	0.251
-251.063	-55.228	-0.164	0.073
-250.049	195.654	-0.161	0.241
-249.034	-88.231	-0.069	-0.020
-248.019	248.195	0.019	0.031
-247.005	346.737	0.227	-0.440
-245.990	-145.323	-0.281	-0.025
-244.976	-59.159	-0.411	-0.175
-243.961	-21.030	0.146	-0.088
-242.946	-73.005	0.286	0.103
-241.932	-200.000	-0.006	0.089
-240.917	-200.000	-0.027	-0.135
-239.903	-200.000	0.007	-0.114
-238.888	661.850	-0.011	0.029
-237.873	-165.220	0.180	0.008
-236.859	578.987	-0.066	0.159
-235.844	-34.457	-0.193	-0.104
-234.830	245.924	-0.184	0.306
-233.815	-25.687	0.275	0.160
-232.800	-200.000	0.004	-0.274
-231.786	242.826	-0.138	0.227
-230.771	-20.908	0.338	0.203
-229.757	-118.587	-0.209	0.036
-228.742	73.896	-0.189	-0.195
-227.727	-200.000	-0.016	-0.220
-226.713	-39.612	-0.214	-0.110
-225.698	-113.252	0.540	0.104
-224.684	-125.769	-0.089	0.013
-223.669	-90.456	-0.126	0.036
-222.655	10.228	0.222	0.166
-221.640	-200.000	-0.074	-0.385
-220.625	-34.920	0.142	0.076
-219.611	-142.583	0.401	-0.039
-218.596	-83.978	-0.438	-0.137
-217.582	-200.000	-0.001	0.214
-216.567	-87.262	-0.071	0.021
-215.552	529.024	0.111	-0.258
-214.538	-18.868	-0.218	0.133
-213.523	9.911	-0.009	0.007
-212.509	210.926	-0.178	-0.274
-211.494	308.808	0.163	0.299
-210.479	246.414	0.095	-0.158
-209.465	800.000	0.025	-0.091
-208.450	69.747	0.187	-0.190
-207.436	-200.000	0.019	-0.273
-206.421	-200.000	0.054	-0.285
-205.406	-200.000	-0.028	-0.249
-204.392	674.613	0.029	0.074
-203.377	-200.000	0.039	0.338
-202.363	-113.926	-0.258	0.049
-201.348	-200.000	-0.015	0.199
-200.333	181.114	-0.096	0.138
-199.319	800.000	0.066	-0.228
-198.304	800.000	0.036	-0.101
-197.290	-200.000	0.041	-0.241
-196.275	-5.808	0.094	-0.063
-195.260	405.999	0.031	0.063
-194.246	-200.000	0.061	-0.459
-193.231	800.000	0.086	-0.356
-192.217	800.000	-0.050	-0.206
-191.202	-79.766	0.104	0.035
-190.187	-50.060	-0.172	-0.080
-189.173	288.631	0.173	-0.309
-188.158	800.000	0.030	-0.106
-187.144	-200.000	-0.002	0.103
-186.129	161.190	0.111	0.152
-185.114	800.000	0.036	-0.147
-184.100	-116.131	0.110	-0.020
-183.085	-55.160	-0.111	0.049
-182.071	182.032	-0.054	0.078
-181.056	289.593	0.041	-0.074
-180.042	-94.634	-0.040	-0.011
-179.027	800.000	0.071	-0.282
-178.012	800.000	0.033	0.124
-176.998	-200.000	0.070	0.447
-175.983	-200.000	0.014	0.243
-174.969	389.288	-0.080	0.163
-173.954	-71.507	0.234	0.086
-172.939	-200.000	0.039	0.229
-171.925	-200.000	0.035	0.374
-170.910	-32.429	0.179	0.098
-169.896	-200.000	0.012	0.125
-168.881	-126.576	-0.427	0.062
-167.866	1.159	0.239	-0.169
-166.852	212.741	-0.131	-0.203
-165.837	39.109	0.147	-0.129
-164.823	90.557	-0.215	0.236
-163.808	-200.000	-0.039	0.275
-162.793	213.003	0.195	-0.302
-161.779	-58.324	0.085	0.036
-160.764	-27.572	-0.218	-0.124
-159.750	-96.783	-0.148	-0.038
-158.735	8.867	-0.175	0.129
-157.720	-200.000	0.022	0.259
-156.706	-76.129	-0.235	-0.081
-155.691	395.309	-0.117	-0.240
-154.677	-150.058	-0.094	-0.007
-153.662	117.553	-0.305	0.368
-152.647	151.108	0.124	-0.166
-151.633	-83.334	-0.209	-0.066
-150.618	-200.000	0.025	0.169
-149.604	-130.644	-0.287	0.038
-148.589	53.989	-0.218	0.205
-147.574	24.771	-0.145	-0.118
-146.560	53.595	-0.184	-0.173
-145.545	39.355	0.082	0.072
-144.531	141.969	0.083	0.108
-143.516	-180.481	0.032	-0.001
-142.502	-2.701	-0.119	-0.081
-141.487	-93.807	0.343	-0.093
-140.472	291.032	0.110	-0.196
-139.458	327.989	0.053	0.099
-138.443	-49.404	-0.271	0.127
-137.429	-108.034	-0.100	-0.021
-136.414	78.067	-0.336	0.351
-135.399	132.894	-0.212	0.269
-134.385	800.000	-0.073	-0.217
-133.370	-51.785	0.084	0.039
-132.356	-200.000	-0.018	0.207
-131.341	82.321	0.305	0.325
-130.326	-91.967	-0.090	0.025
-129.312	-57.984	-0.204	-0.087
-128.297	-0.557	0.019	0.013
-127.283	44.359	0.249	-0.224
-126.268	-173.055	-0.214	-0.006
-125.253	84.790	0.027	-0.029
-124.239	-138.546	-0.297	-0.032
-123.224	-26.923	-0.158	0.090
-122.210	-49.933	0.171	0.079
-121.195	-62.748	0.093	0.038
-120.180	94.675	0.165	-0.184
-119.166	-200.000	0.012	0.103
-118.151	-94.629	-0.257	-0.068
-117.137	10.106	0.282	-0.210
-116.122	177.178	-0.024	0.034
-115.107	80.603	-0.087	0.092
-114.093	32.512	0.104	0.088
-113.078	-28.497	0.109	-0.062
-112.064	2.914	0.188	0.134
-111.049	1.409	-0.102	0.072
-110.034	800.000	0.080	-0.299
-109.020	-45.641	0.243	-0.118
-108.005	22.755	0.233	-0.187
-106.991	-8.578	0.143	-0.094
-105.976	-120.281	0.177	0.029
-104.962	294.921	0.069	0.123
-103.947	-114.515	0.250	-0.047
-102.932	161.885	-0.103	-0.141
-101.918	-200.000	-0.017	0.100
-100.903	385.789	-0.016	-0.032
-99.889	-45.214	0.131	-0.064
-98.874	232.036	-0.134	0.215
-97.859	-78.563	-0.121	-0.041
-96.845	-18.729	0.123	0.075
-95.830	800.000	0.046	0.134
-94.816	53.939	-0.204	-0.192
-93.801	-57.342	0.333	0.143
-92.786	25.637	-0.066	-0.054
-91.772	151.161	0.243	0.324
-90.757	-47.211	-0.105	0.050
-89.743	303.718	-0.060	0.108
-88.728	-144.826	-0.400	0.036
-87.713	-96.799	0.217	-0.056
-86.699	729.482	-0.012	-0.031
-85.684	2.685	-0.244	-0.173
-84.670	106.619	0.028	0.033
-83.655	-200.000	-0.047	0.452
-82.640	5.215	0.156	0.113
-81.626	-35.927	-0.278	-0.147
-80.611	-23.447	0.032	0.019
-79.597	252.208	-0.107	0.178
-78.582	407.408	0.035	-0.072
-77.567	384.752	0.067	-0.135
-76.553	-200.000	-0.004	0.269
-75.538	221.615	0.130	0.205
-74.524	490.415	0.051	0.115
-73.509	-175.673	-0.420	0.011
-72.494	-7.695	-0.359	0.237
-71.480	-99.086	-0.145	0.036
-70.465	498.092	0.149	0.335
-69.451	-112.572	0.266	-0.052
-68.436	257.568	0.008	0.014
-67.422	-32.415	0.238	-0.130
-66.407	800.000	0.040	0.121
-65.392	-200.000	0.025	0.244
-64.378	308.887	0.125	0.229
-63.363	-23.811	0.224	0.131
-62.349	-116.822	-0.146	0.026
-61.334	83.293	-1.102	-1.173
-60.319	98.915	0.752	0.849
-59.305	711.327	-0.472	-1.221
-58.290	274.072	0.756	1.307
-57.276	324.517	0.797	1.488
-56.261	-200.000	113.565	650.978
-55.246	487.566	1496.331	3336.275
-54.232	149.019	2667.205	3524.474
-53.217	97.988	2275.692	2558.260
-52.203	36.444	1892.740	1631.084
-51.188	30.621	1686.369	1409.217
-50.173	28.123	1645.306	1356.350
-49.159	49.594	1699.871	1563.550
-48.144	48.576	1713.760	1568.611
-47.130	30.287	1673.204	1395.484
-46.115	27.592	1659.161	1363.580
-45.100	27.366	1654.302	1357.849
-44.086	27.400	1651.238	1355.534
-43.071	27.421	1648.874	1353.695
-42.057	27.416	1646.505	1351.660
-41.042	27.366	1644.093	1349.258
-40.027	27.372	1642.989	1348.338
-39.013	27.411	1640.537	1346.561
-37.998	27.399	1638.924	1345.096
-36.984	27.307	1638.358	1343.896
-35.969	27.534	1636.658	1344.129
-34.954	27.559	1634.786	1342.721
-33.940	27.466	1633.244	1340.715
-32.925	27.512	1631.312	1339.413
-31.911	27.464	1629.718	1337.704
-30.896	27.516	1627.784	1336.440
-29.881	27.545	1626.150	1335.263
-28.867	27.549	1624.539	1333.911
-27.852	27.514	1622.743	1332.129
-26.838	27.413	1621.960	1330.696
-25.823	27.490	1620.734	1330.203
-24.809	27.545	1619.271	1329.348
-23.794	27.473	1617.914	1327.652
-22.779	27.487	1616.356	1326.429
-21.765	27.519	1615.018	1325.506
-20.750	27.497	1612.995	1323.636
-19.736	27.621	1611.773	1323.484
-18.721	27.475	1610.612	1321.413
-17.706	27.572	1608.860	1320.627
-16.692	27.500	1607.403	1318.857
-15.677	27.616	1605.539	1318.114
-14.663	27.516	1604.942	1316.855
-13.648	27.521	1603.449	1315.609
-12.633	27.551	1601.968	1314.560
-11.619	27.565	1600.187	1313.149
-10.604	27.571	1599.016	1312.180
-9.590	27.524	1597.712	1310.716
-8.575	27.460	1596.438	1309.156
-7.560	27.469	1595.525	1308.421
-6.546	27.556	1594.384	1308.061
-5.531	27.529	1593.091	1306.756
-4.517	27.513	1591.705	1305.448
-3.502	27.573	1590.296	1304.669
-2.487	27.656	1588.623	1303.840
-1.473	27.296	1577.182	1291.844
-0.458	24.357	1557.696	1255.188
0.556	18.957	1559.107	1224.664
1.571	16.537	1583.063	1225.847
2.586	16.215	1594.999	1232.633
3.600	15.439	1545.058	1188.440
4.615	12.984	1447.252	1096.804
5.629	10.308	1392.549	1038.123
6.644	9.666	1385.944	1029.009
7.659	9.522	1385.100	1027.369
8.673	9.663	1383.147	1026.728
9.688	9.630	1381.233	1025.006
10.702	9.516	1377.909	1021.729
11.717	10.773	1379.735	1030.973
12.731	14.043	1385.360	1055.886
13.746	16.860	1389.746	1077.063
14.761	17.334	1389.627	1079.884
15.775	16.581	1387.038	1073.006
16.790	15.386	1384.384	1063.286
17.804	14.657	1382.004	1056.754
18.819	14.085	1380.677	1052.025
19.834	13.960	1378.894	1049.788
20.848	13.657	1377.902	1047.023
21.863	13.419	1376.646	1044.476
22.877	13.278	1375.820	1042.868
23.892	13.241	1374.678	1041.675
24.907	13.162	1374.097	1040.645
25.921	13.209	1372.681	1039.776
26.936	13.262	1371.958	1039.470
27.950	13.191	1371.552	1038.621
28.965	13.387	1369.808	1038.441
29.980	13.446	1368.908	1038.035
30.994	13.434	1367.389	1036.718
32.009	13.422	1366.466	1035.851
33.023	13.480	1364.969	1034.987
34.038	13.387	1363.829	1033.449
35.053	13.387	1362.318	1032.215
36.067	13.426	1361.151	1031.486
37.082	13.317	1360.310	1030.075
38.096	13.355	1359.609	1029.688
39.111	13.472	1358.499	1029.485
40.126	13.364	1357.309	1027.823
41.140	13.184	1356.886	1026.295
42.155	13.247	1355.724	1025.713
43.169	13.096	1356.133	1024.995
44.184	13.069	1355.999	1024.636
45.199	13.170	1355.264	1024.613
46.213	13.239	1354.915	1024.691
47.228	13.331	1353.731	1024.270
48.242	13.276	1352.540	1022.943
49.257	13.378	1350.779	1022.147
50.271	13.403	1349.257	1021.062
51.286	13.282	1348.541	1019.681
52.301	13.359	1346.704	1018.678
53.315	13.261	1345.596	1017.146
54.330	13.269	1344.803	1016.504
55.344	13.249	1343.897	1015.609
56.359	13.121	1343.239	1014.237
57.374	13.150	1342.214	1013.546
58.388	13.200	1341.249	1013.036
59.403	13.115	1340.756	1012.056
60.417	13.140	1339.793	1011.389
61.432	13.113	1339.069	1010.588
62.447	13.077	1338.336	1009.729
63.461	13.104	1336.879	1008.701
64.476	13.034	1335.857	1007.414
65.490	13.076	1334.225	1006.350
66.505	13.012	1332.774	1004.779
67.520	13.054	1331.858	1004.254
68.534	13.160	1330.978	1004.149
69.549	13.112	1329.776	1002.863
70.563	13.099	1328.974	1002.086
71.578	13.046	1327.400	1000.493
72.593	13.080	1326.422	999.868
73.607	13.066	1325.660	999.123
74.622	12.936	1325.384	998.042
75.636	12.968	1324.844	997.737
76.651	12.981	1324.129	997.191
77.666	12.991	1323.508	996.692
78.680	12.989	1323.039	996.241
79.695	13.072	1322.300	996.097
80.709	12.994	1321.615	995.026
81.724	13.061	1320.753	994.690
82.739	13.240	1320.175	995.244
83.753	13.221	1319.007	994.159
84.768	13.331	1317.813	993.837
85.782	13.329	1316.665	992.867
86.797	13.346	1315.051	991.669
87.812	13.278	1314.090	990.447
88.826	13.234	1312.829	989.148
89.841	13.287	1311.823	988.615
90.855	13.339	1310.629	987.941
91.870	13.283	1309.907	986.976
92.884	13.288	1309.311	986.465
93.899	13.440	1308.584	986.737
94.914	13.515	1307.456	986.247
95.928	13.422	1306.897	985.185
96.943	13.383	1305.984	984.175
97.957	13.387	1304.780	983.209
98.972	13.308	1304.070	982.114
99.987	13.363	1302.722	981.338
101.001	13.379	1301.607	980.507
102.016	13.296	1301.148	979.583
103.030	13.410	1300.077	979.367
104.045	13.310	1299.140	977.979
105.060	13.294	1297.770	976.770
106.074	13.229	1296.679	975.477
107.089	13.014	1295.288	973.076
108.103	13.191	1293.797	972.916
109.118	13.112	1292.590	971.452
110.133	13.241	1290.896	970.856
111.147	13.228	1289.387	969.556
112.162	13.133	1288.312	968.107
113.176	13.203	1287.758	968.012
114.191	13.272	1286.061	967.059
115.206	13.261	1285.431	966.432
116.220	13.170	1284.119	964.830
117.235	13.277	1282.900	964.452
118.249	13.195	1282.345	963.470
119.264	13.208	1280.584	962.138
120.279	13.205	1279.622	961.316
121.293	13.144	1279.030	960.430
122.308	13.217	1277.518	959.633
123.322	13.164	1276.719	958.643
124.337	13.037	1275.750	957.094
125.352	13.190	1273.851	956.471
126.366	13.200	1273.127	955.900
127.381	13.135	1272.281	954.804
128.395	13.194	1270.829	953.969
129.410	13.144	1270.091	953.040
130.424	13.143	1269.598	952.581
131.439	13.287	1268.362	952.398
132.454	13.126	1267.608	950.822
133.468	13.299	1266.629	950.998
134.483	13.227	1265.758	949.846
135.497	13.145	1265.191	948.869
136.512	13.250	1263.680	948.252
137.527	13.281	1262.423	947.405
138.541	13.261	1260.659	945.880
139.556	13.313	1259.532	945.249
140.570	13.326	1258.564	944.512
141.585	13.357	1257.305	943.659
142.600	13.390	1256.500	943.162
143.614	13.389	1255.028	941.966
144.629	13.453	1254.372	941.754
145.643	13.355	1253.518	940.475
146.658	13.456	1251.776	939.655
147.673	13.409	1250.140	938.082
148.687	13.399	1249.257	937.280
149.702	13.340	1248.096	935.990
150.716	13.268	1246.699	934.454
151.731	13.392	1245.303	934.022
152.746	13.331	1244.217	932.780
153.760	13.369	1243.137	932.106
154.775	13.463	1242.325	931.942
155.789	13.440	1241.035	930.762
156.804	13.504	1240.069	930.313
157.819	13.645	1238.858	930.116
158.833	13.514	1238.095	928.726
159.848	13.595	1237.512	928.661
160.862	13.589	1236.401	927.712
161.877	13.482	1234.957	925.945
162.892	13.449	1233.574	924.646
163.906	13.481	1232.794	924.155
164.921	13.376	1232.265	923.094
165.935	13.442	1231.403	922.733
166.950	13.566	1230.534	922.689
167.964	13.502	1229.828	921.724
168.979	13.470	1228.979	920.828
169.994	13.515	1228.095	920.332
171.008	13.546	1227.806	920.206
172.023	13.684	1226.638	920.018
173.037	13.693	1226.025	919.523
174.052	13.733	1225.249	919.085
175.067	13.530	1223.964	916.913
176.081	13.585	1222.652	916.154
177.096	13.587	1221.655	915.337
178.110	13.549	1221.074	914.610
179.125	13.700	1219.780	914.393
180.140	13.607	1218.833	913.089
181.154	13.647	1217.160	911.975
182.169	13.723	1215.802	911.297
183.183	13.697	1215.176	910.606
184.198	13.862	1213.883	910.461
185.213	13.811	1212.699	909.213
186.227	13.881	1211.204	908.392
187.242	13.795	1210.942	907.646
188.256	13.822	1209.932	906.958
189.271	13.886	1208.421	906.091
190.286	13.809	1207.187	904.669
191.300	13.571	1207.260	903.343
192.315	13.470	1206.254	901.962
193.329	13.522	1205.663	901.723
194.344	13.684	1204.699	901.803
195.359	13.670	1204.358	901.391
196.373	13.716	1203.884	901.206
197.388	13.809	1203.695	901.492
198.402	13.902	1203.110	901.481
199.417	13.925	1202.570	901.121
200.432	14.015	1201.514	900.735
201.446	14.088	1200.525	900.309
202.461	14.042	1199.777	899.422
203.475	14.038	1198.869	898.636
204.490	14.096	1197.431	897.794
205.504	14.043	1195.758	896.175
206.519	14.040	1194.909	895.441
207.534	13.927	1194.292	894.293
208.548	13.865	1193.464	893.262
209.563	14.029	1192.179	893.099
210.577	14.003	1191.536	892.401
211.592	14.070	1190.856	892.173
212.607	14.109	1189.763	891.481
213.621	14.231	1188.361	891.008
214.636	14.182	1187.478	890.006
215.650	14.126	1186.862	889.162
216.665	14.180	1186.014	888.739
217.680	14.210	1185.296	888.280
218.694	14.240	1184.266	887.590
219.709	14.246	1183.870	887.250
220.723	14.247	1182.987	886.512
221.738	14.216	1182.278	885.740
222.753	14.259	1181.208	885.087
223.767	14.311	1180.944	885.088
224.782	14.376	1180.230	884.818
225.796	14.422	1179.398	884.362
226.811	14.467	1178.889	884.142
227.826	14.379	1178.256	883.118
228.840	14.234	1177.530	881.730
229.855	14.208	1176.804	880.974
230.869	14.236	1176.249	880.626
231.884	14.358	1174.988	880.250
232.899	14.216	1174.107	878.760
233.913	14.292	1173.910	878.940
234.928	14.349	1172.884	878.393
235.942	14.304	1171.916	877.351
236.957	14.430	1170.848	877.135
237.972	14.343	1170.459	876.311
238.986	14.404	1169.648	875.947
240.001	14.202	1169.147	874.432
241.015	14.385	1167.955	874.423
242.030	14.434	1167.102	873.964
243.045	14.446	1166.621	873.592
244.059	14.408	1166.029	872.870
245.074	14.513	1164.795	872.421
246.088	14.550	1164.217	872.103
247.103	14.559	1163.051	871.198
248.117	14.571	1162.837	871.024
249.132	14.615	1162.277	870.756
250.147	14.887	1161.277	871.346
251.161	14.824	1160.552	870.402
252.176	14.826	1159.972	869.901
253.190	14.943	1158.968	869.675
254.205	14.884	1158.884	869.232
255.220	14.894	1158.241	868.723
256.234	14.943	1157.348	868.229
257.249	14.917	1157.249	867.945
258.263	15.000	1156.433	867.686
259.278	14.906	1155.628	866.516
260.293	14.895	1155.306	866.145
261.307	14.985	1154.415	865.865
262.322	15.051	1153.651	865.556
263.336	14.973	1153.222	864.756
264.351	15.040	1152.735	864.659
265.366	15.076	1151.451	863.806
266.380	15.098	1150.661	863.248
267.395	15.136	1149.964	862.846
268.409	15.093	1149.337	862.080
269.424	15.033	1148.921	861.382
270.439	14.992	1148.316	860.638
271.453	14.972	1147.490	859.841
272.468	15.119	1146.203	859.555
273.482	14.986	1145.838	858.525
274.497	15.028	1145.372	858.316
275.512	15.032	1144.585	857.669
276.526	15.052	1144.117	857.343
277.541	15.090	1143.064	856.676
278.555	15.200	1142.037	856.390
279.570	15.206	1141.787	856.160
280.585	15.203	1140.819	855.340
281.599	15.270	1140.029	855.013
282.614	15.268	1138.659	853.903
283.628	15.208	1137.943	852.982
284.643	15.125	1137.111	851.860
285.657	15.193	1136.343	851.555
286.672	15.197	1135.357	850.764
287.687	15.146	1134.579	849.846
288.701	15.312	1133.584	849.866
289.716	15.319	1132.961	849.359
290.730	15.279	1132.077	848.422
291.745	15.369	1131.071	848.048
292.760	15.393	1130.520	847.682
293.774	15.276	1130.299	846.849
294.789	15.340	1129.916	846.808
295.803	15.412	1129.221	846.577
296.818	15.405	1128.254	845.742
297.833	15.388	1127.482	845.002
298.847	15.400	1126.449	844.212
299.862	15.429	1125.859	843.843
300.876	15.547	1124.955	843.685
301.891	15.387	1124.934	842.789
302.906	15.607	1123.877	843.028
303.920	15.607	1123.225	842.462
304.935	15.647	1122.607	842.124
305.949	15.588	1122.019	841.314
306.964	15.515	1121.751	840.671
307.979	15.670	1120.613	840.521
308.993	15.588	1119.848	839.462
310.008	15.761	1118.917	839.557
311.022	15.651	1118.689	838.758
312.037	15.709	1117.615	838.171
313.052	15.718	1116.295	837.151
314.066	15.680	1115.631	836.391
315.081	15.650	1114.640	835.421
316.095	15.625	1113.722	834.537
317.110	15.686	1113.277	834.433
318.125	15.743	1112.380	833.971
319.139	15.698	1111.673	833.144
320.154	15.523	1111.208	831.855
321.168	15.587	1110.607	831.646
322.183	15.721	1109.883	831.695
323.197	15.695	1109.634	831.306
324.212	15.740	1108.987	830.969
325.227	15.706	1108.282	830.199
326.241	15.746	1107.783	829.949
327.256	15.764	1106.683	829.141
328.270	15.715	1105.673	828.068
329.285	15.662	1105.132	827.330
330.300	15.798	1103.747	826.889
331.314	15.720	1102.896	825.795
332.329	15.839	1101.855	825.528
333.343	15.724	1101.333	824.500
334.358	15.928	1100.340	824.683
335.373	15.913	1099.694	824.050
336.387	15.936	1099.072	823.623
337.402	15.890	1098.453	822.862
338.416	15.879	1097.871	822.298
339.431	15.907	1096.921	821.654
340.446	15.996	1096.882	821.983
341.460	16.143	1095.733	821.765
342.475	16.098	1094.949	820.885
343.489	16.187	1094.071	820.589
344.504	16.146	1093.183	819.651
345.519	16.228	1092.508	819.473
346.533	16.270	1091.590	818.914
347.548	16.271	1090.896	818.326
348.562	16.322	1089.798	817.677
349.577	16.110	1089.171	816.109
350.592	16.202	1088.046	815.634
351.606	16.160	1087.267	814.778
352.621	16.246	1086.824	814.791
353.635	16.100	1086.105	813.475
354.650	16.179	1085.358	813.224
355.665	16.108	1085.158	812.658
356.679	16.201	1084.350	812.430
357.694	16.275	1083.644	812.184
358.708	16.297	1083.315	811.973
359.723	16.301	1082.732	811.482
360.738	16.245	1082.142	810.701
361.752	16.234	1081.208	809.873
362.767	16.248	1080.981	809.700
363.781	16.410	1080.095	809.740
364.796	16.433	1079.324	809.202
365.810	16.367	1079.020	808.587
366.825	16.517	1078.287	808.684
367.840	16.503	1077.941	808.288
368.854	16.507	1077.422	807.843
369.869	16.637	1076.316	807.565
370.883	16.625	1075.517	806.835
371.898	16.553	1074.734	805.833
372.913	16.518	1074.123	805.138
373.927	16.593	1073.883	805.246
374.942	16.550	1073.394	804.599
375.956	16.547	1072.931	804.170
376.971	16.635	1072.211	803.976
377.986	16.713	1071.269	803.568
379.000	16.736	1070.909	803.335
380.015	16.742	1070.291	802.828
381.029	16.751	1069.795	802.429
382.044	16.911	1069.073	802.577
383.059	16.853	1068.436	801.750
384.073	16.806	1067.642	800.863
385.088	16.842	1066.744	800.289
386.102	16.761	1065.650	799.017
387.117	16.749	1064.604	798.104
388.132	16.627	1063.973	796.985
389.146	16.749	1062.899	796.683
390.161	16.848	1062.144	796.511
391.175	16.748	1061.517	795.501
392.190	16.774	1060.984	795.153
393.205	17.012	1060.260	795.656
394.219	16.842	1059.379	794.129
395.234	16.930	1058.597	793.886
396.248	16.853	1057.474	792.614
397.263	16.883	1056.423	791.893
398.278	16.865	1056.195	791.568
399.292	16.724	1055.429	790.266
400.307	16.839	1054.849	790.301
401.321	16.824	1053.990	789.516
402.336	16.820	1053.347	788.945
403.350	16.787	1052.660	788.208
404.365	16.831	1051.889	787.768
405.380	16.913	1051.269	787.614
406.394	16.906	1050.718	787.099
407.409	17.077	1049.844	787.164
408.423	17.172	1048.910	786.835
409.438	17.148	1048.232	786.146
410.453	17.167	1047.433	785.567
411.467	17.213	1046.966	785.359
412.482	17.116	1046.469	784.471
413.496	17.092	1045.512	783.570
414.511	17.229	1044.878	783.660
415.526	17.205	1045.032	783.594
416.540	17.340	1044.179	783.505
417.555	17.272	1044.081	783.050
418.569	17.284	1043.095	782.297
419.584	17.379	1042.713	782.380
420.599	17.275	1042.231	781.471
421.613	104.890	1325.617	1476.734
422.628	96.307	1366.845	1476.801
