DTS Sentinel unit serial number:	SN413079Multiplexer serial number:	ORYXHardware model number:	OX4-SRSoftware version number:	ORYX F/W v4.00 Oryx Data Collector v3.7.2.0data status	okinstallation	princeton_trtdifferential loss correction	single-endedforward channel	channel 2reverse channel	N/Adate	2019/09/11time	21:17:10forward acquisition time	60.00reverse acquisition time	0.00gamma	496.2192k internal	0.2324k external	0.2324temperature offset calibration	1.0059default loss term (dB/km)	0.3790temperature slope calibration	1.0000multiplexer offset coefficient	1.0000multiplexer slope coefficient	1.0000fibre end	0.00T internal ref (°C)	36.31T ext. ref 1 (°C)	1.62T ext. ref 2 (°C)	30.36length (m)	temperature (°C)	Stokes	anti-Stokes-747.200	414.259	0.032	0.069
-746.185	-58.254	0.249	0.109
-745.171	-200.000	0.011	0.052
-744.156	800.000	-0.107	0.356
-743.142	-112.353	-0.185	0.037
-742.127	-175.839	0.029	-0.001
-741.112	-125.711	0.312	0.048
-740.098	354.666	-0.155	0.312
-739.083	-78.639	0.059	-0.020
-738.069	-200.000	0.007	0.331
-737.054	-159.560	0.254	0.014
-736.039	52.598	-0.301	-0.290
-735.025	800.000	0.065	0.195
-734.010	-200.000	-0.026	-0.193
-732.996	337.159	-0.116	-0.227
-731.981	220.438	-0.230	0.372
-730.966	6.179	0.062	0.046
-729.952	-200.000	-0.011	-0.056
-728.937	276.444	0.080	-0.143
-727.923	445.715	-0.160	-0.356
-726.908	-7.143	-0.148	0.102
-725.894	-200.000	-0.013	0.102
-724.879	-200.000	0.033	-0.219
-723.864	146.485	-0.093	0.126
-722.850	136.490	0.060	-0.079
-721.835	-200.000	-0.021	-0.155
-720.821	-17.574	-0.083	0.053
-719.806	-200.000	-0.032	0.247
-718.791	-128.978	0.116	-0.016
-717.777	-186.828	-0.287	-0.004
-716.762	105.805	-0.155	0.184
-715.748	181.420	0.027	0.040
-714.733	218.489	-0.141	-0.227
-713.718	271.083	-0.165	-0.294
-712.704	-150.328	-0.380	-0.030
-711.689	10.169	-0.227	0.174
-710.675	-34.379	-0.100	-0.055
-709.660	-200.000	0.009	0.142
-708.645	-33.317	0.119	0.066
-707.631	-100.393	0.379	-0.095
-706.616	-64.117	-0.271	0.111
-705.602	-47.109	0.233	-0.114
-704.587	163.013	-0.093	0.131
-703.572	-10.192	0.259	0.174
-702.558	-33.792	-0.234	0.130
-701.543	561.541	0.056	0.135
-700.529	-38.177	-0.239	0.128
-699.514	-200.000	-0.030	-0.208
-698.499	400.216	0.061	0.129
-697.485	-120.196	-0.263	0.045
-696.470	-51.794	-0.161	0.076
-695.456	669.228	0.110	-0.287
-694.441	-125.706	0.251	0.038
-693.426	-35.695	-0.244	-0.133
-692.412	125.739	-0.117	-0.148
-691.397	-26.879	-0.132	-0.078
-690.383	197.578	-0.153	-0.235
-689.368	-135.032	-0.146	0.018
-688.354	-33.171	-0.216	-0.120
-687.339	-82.643	0.233	0.076
-686.324	-46.771	-0.439	-0.216
-685.310	800.000	0.011	0.036
-684.295	220.279	-0.242	-0.391
-683.281	-79.100	0.511	0.175
-682.266	181.040	-0.133	-0.197
-681.251	-62.187	-0.248	0.104
-680.237	181.214	-0.069	-0.102
-679.222	-123.889	0.179	-0.028
-678.208	-180.301	-0.837	0.018
-677.193	-78.095	-0.263	-0.091
-676.178	-163.472	-0.263	0.013
-675.164	33.633	0.122	-0.106
-674.149	-17.017	-0.352	-0.224
-673.135	81.586	0.031	-0.034
-672.120	-200.000	0.034	-0.466
-671.105	-200.000	-0.017	0.116
-670.091	-83.307	-0.302	-0.098
-669.076	800.000	-0.037	0.120
-668.062	127.118	-0.255	-0.326
-667.047	-98.086	0.197	0.051
-666.032	193.086	0.088	-0.135
-665.018	-134.766	0.125	0.015
-664.003	188.986	-0.171	-0.258
-662.989	-55.046	0.027	0.012
-661.974	78.643	-0.151	0.162
-660.959	167.322	0.193	-0.275
-659.945	-98.675	-0.221	0.057
-658.930	26.713	-0.070	-0.059
-657.916	-168.619	0.291	-0.011
-656.901	-28.959	-0.304	-0.176
-655.886	-132.131	-0.298	0.039
-654.872	350.337	-0.062	-0.123
-653.857	-69.675	-0.232	0.089
-652.843	-200.000	0.032	0.180
-651.828	-8.890	-0.042	0.028
-650.814	800.000	-0.073	-0.203
-649.799	-84.950	-0.413	-0.130
-648.784	-142.697	0.496	-0.049
-647.770	-113.828	0.058	0.011
-646.755	-136.757	-0.492	0.057
-645.741	384.692	0.040	0.082
-644.726	-136.855	-0.420	-0.049
-643.711	240.817	0.097	-0.163
-642.697	-97.106	-0.119	-0.031
-641.682	218.047	0.092	-0.148
-640.668	-9.259	0.075	0.051
-639.653	-62.717	-0.202	0.084
-638.638	800.000	-0.059	0.232
-637.624	-109.549	0.108	0.023
-636.609	77.762	0.304	-0.326
-635.595	-66.664	-0.262	0.105
-634.580	-75.038	-0.152	0.055
-633.565	152.778	0.262	-0.360
-632.551	157.790	0.080	-0.111
-631.536	590.907	-0.110	-0.272
-630.522	595.250	0.018	0.045
-629.507	435.780	-0.115	0.251
-628.492	-9.722	0.191	-0.128
-627.478	-60.323	-0.251	0.108
-626.463	-200.000	0.048	-0.481
-625.449	-169.813	-0.070	-0.003
-624.434	-52.329	0.004	-0.002
-623.419	800.000	-0.028	0.082
-622.405	-126.603	-0.109	0.016
-621.390	212.056	-0.264	-0.418
-620.376	296.503	0.038	-0.071
-619.361	-6.002	0.087	-0.060
-618.346	-116.195	0.232	0.043
-617.332	364.133	-0.113	-0.228
-616.317	800.000	0.037	-0.109
-615.303	241.533	0.098	-0.164
-614.288	-200.000	0.009	-0.060
-613.273	-55.140	-0.234	-0.106
-612.259	-42.420	-0.410	0.210
-611.244	68.473	0.364	0.375
-610.230	10.066	0.126	0.096
-609.215	65.771	0.190	0.194
-608.201	-200.000	0.021	-0.203
-607.186	-130.209	0.157	0.021
-606.171	359.784	0.062	0.124
-605.157	-38.939	-0.323	-0.171
-604.142	69.353	-0.111	-0.115
-603.128	98.342	-0.084	0.098
-602.113	800.000	-0.123	-0.354
-601.098	332.072	0.203	-0.393
-600.084	800.000	0.031	-0.100
-599.069	642.911	0.115	-0.293
-598.055	800.000	-0.071	-0.213
-597.040	-118.868	0.070	0.012
-596.025	165.884	0.206	0.292
-595.011	-15.032	-0.106	-0.068
-593.996	476.470	0.117	0.265
-592.982	2.142	0.160	-0.116
-591.967	-200.000	0.016	0.148
-590.952	-79.346	-0.154	0.052
-589.938	64.589	0.199	-0.202
-588.923	-81.739	0.132	0.043
-587.909	232.716	-0.161	0.266
-586.894	-200.000	0.036	-0.202
-585.879	320.167	-0.044	0.084
-584.865	-200.000	0.027	0.141
-583.850	800.000	0.120	-0.428
-582.836	-200.000	0.040	-0.200
-581.821	800.000	-0.011	0.040
-580.806	-200.000	-0.059	0.350
-579.792	-200.000	-0.000	-0.327
-578.777	800.000	0.122	-0.402
-577.763	-70.238	-0.152	-0.058
-576.748	80.867	-0.292	0.316
-575.733	-30.647	-0.106	-0.060
-574.719	-148.492	-0.107	-0.009
-573.704	-48.405	0.140	-0.068
-572.690	302.528	-0.034	-0.064
-571.675	-75.906	-0.141	0.050
-570.661	800.000	-0.049	-0.145
-569.646	800.000	0.051	0.214
-568.631	57.632	0.180	-0.177
-567.617	224.412	-0.073	-0.119
-566.602	-200.000	-0.020	-0.128
-565.588	800.000	-0.088	0.313
-564.573	-200.000	-0.002	0.147
-563.558	800.000	0.028	-0.091
-562.544	13.689	-0.382	0.297
-561.529	-83.234	-0.308	0.099
-560.515	107.237	-0.087	0.104
-559.500	233.964	0.165	0.273
-558.485	-200.000	-0.011	0.213
-557.471	-74.162	-0.058	0.021
-556.456	-57.236	-0.128	0.056
-555.442	-99.372	0.122	-0.031
-554.427	800.000	-0.009	-0.024
-553.412	-200.000	0.025	0.218
-552.398	-200.000	0.038	0.382
-551.383	-63.372	0.206	-0.085
-550.369	800.000	0.037	-0.145
-549.354	-100.736	0.161	-0.040
-548.339	25.142	-0.078	0.065
-547.325	-93.455	-0.214	0.059
-546.310	166.020	0.175	-0.248
-545.296	-30.736	0.340	-0.193
-544.281	-74.659	0.110	-0.040
-543.266	-200.000	0.011	0.284
-542.252	800.000	0.047	-0.140
-541.237	109.454	-0.103	0.124
-540.223	45.254	0.169	0.156
-539.208	800.000	0.038	0.122
-538.193	292.302	-0.087	-0.158
-537.179	800.000	0.013	-0.043
-536.164	-102.837	-0.149	-0.035
-535.150	-140.629	0.123	-0.013
-534.135	385.999	0.162	-0.334
-533.121	-60.778	0.055	-0.023
-532.106	10.776	-0.208	-0.159
-531.091	-75.011	0.058	0.021
-530.077	-62.307	0.146	-0.061
-529.062	238.204	0.140	-0.233
-528.048	-95.388	0.212	0.057
-527.033	-200.000	0.048	-0.357
-526.018	251.733	0.090	-0.153
-525.004	73.795	0.199	0.209
-523.989	446.871	0.171	-0.377
-522.975	258.285	-0.147	-0.254
-521.960	338.840	-0.086	0.168
-520.945	-84.932	0.114	0.036
-519.931	568.748	0.160	0.389
-518.916	-47.973	0.265	-0.128
-517.902	-200.000	-0.035	-0.186
-516.887	-39.957	0.221	0.115
-515.872	800.000	0.081	-0.291
-514.858	-117.210	-0.141	-0.026
-513.843	-54.784	-0.286	-0.129
-512.829	72.357	-0.053	0.055
-511.814	750.956	0.105	0.283
-510.799	-200.000	-0.015	0.159
-509.785	259.241	0.095	0.164
-508.770	233.988	0.103	-0.169
-507.756	32.823	0.150	0.129
-506.741	-200.000	0.006	0.149
-505.726	68.615	0.169	0.174
-504.712	-128.803	-0.037	-0.005
-503.697	210.256	0.059	-0.092
-502.683	76.080	-0.140	-0.148
-501.668	675.997	0.037	-0.096
-500.653	147.995	-0.199	-0.269
-499.639	800.000	-0.044	0.124
-498.624	-64.567	-0.284	-0.115
-497.610	-118.342	-0.347	0.062
-496.595	-80.373	-0.112	-0.038
-495.581	-195.617	-0.123	-0.001
-494.566	43.038	0.229	0.208
-493.551	-200.000	-0.036	0.394
-492.537	-56.391	0.107	-0.047
-491.522	62.683	-0.192	-0.191
-490.508	142.285	-0.193	0.256
-489.493	-25.450	-0.112	-0.066
-488.478	221.779	-0.101	-0.163
-487.464	67.150	-0.230	-0.235
-486.449	46.806	0.239	-0.222
-485.435	-147.545	-0.053	-0.004
-484.420	13.159	-0.208	-0.161
-483.405	207.340	0.060	-0.093
-482.391	294.781	0.060	-0.110
-481.376	10.713	0.151	0.115
-480.362	-200.000	-0.061	-0.432
-479.347	-200.000	0.083	0.392
-478.332	-200.000	0.007	-0.086
-477.318	-167.594	-0.216	-0.009
-476.303	115.288	0.074	-0.090
-475.289	800.000	-0.052	0.179
-474.274	-200.000	-0.002	0.233
-473.259	372.369	0.109	0.222
-472.245	380.666	-0.154	0.315
-471.230	11.863	-0.145	-0.111
-470.216	-10.952	-0.074	0.049
-469.201	-56.252	-0.131	-0.058
-468.186	-83.834	-0.120	-0.038
-467.172	-18.435	0.156	-0.097
-466.157	-106.800	-0.141	-0.031
-465.143	95.185	-0.053	0.060
-464.128	-106.426	-0.228	-0.051
-463.113	-123.212	0.133	0.021
-462.099	-15.999	0.067	0.043
-461.084	-128.274	-0.273	0.039
-460.070	-53.837	-0.317	-0.144
-459.055	534.889	0.113	0.267
-458.040	553.886	0.096	-0.231
-457.026	-200.000	0.014	-0.224
-456.011	144.864	-0.138	0.185
-454.997	-49.260	0.078	0.037
-453.982	-200.000	-0.045	-0.413
-452.968	68.758	0.137	0.141
-451.953	-19.334	-0.027	0.017
-450.938	-146.161	-0.253	0.022
-449.924	-200.000	0.049	0.233
-448.909	-62.705	0.360	0.149
-447.895	-200.000	0.033	0.209
-446.880	-106.675	-0.106	-0.024
-445.865	187.978	0.063	-0.094
-444.851	30.409	0.144	0.123
-443.836	-110.949	0.105	0.021
-442.822	800.000	0.077	0.304
-441.807	328.161	-0.144	0.276
-440.792	-14.034	-0.218	0.140
-439.778	-78.937	0.160	-0.054
-438.763	-200.000	0.032	-0.376
-437.749	354.817	-0.020	0.039
-436.734	-88.387	0.240	-0.072
-435.719	-100.314	0.266	0.066
-434.705	700.593	-0.032	-0.084
-433.690	-96.557	-0.408	0.107
-432.676	-200.000	0.009	-0.246
-431.661	-94.454	0.045	0.012
-430.646	76.831	0.291	-0.308
-429.632	-200.000	-0.014	-0.087
-428.617	234.918	0.179	0.294
-427.603	-70.317	-0.173	0.066
-426.588	-200.000	-0.015	-0.201
-425.573	139.907	0.210	0.276
-424.559	-64.132	0.138	0.056
-423.544	-200.000	-0.047	-0.285
-422.530	-177.046	-0.339	-0.008
-421.515	-86.489	-0.344	0.105
-420.500	522.114	0.022	0.051
-419.486	-200.000	0.017	0.099
-418.471	-57.647	0.069	-0.030
-417.457	-51.325	0.324	0.151
-416.442	300.263	0.061	-0.112
-415.428	800.000	-0.052	-0.162
-414.413	653.741	-0.101	-0.259
-413.398	-126.436	-0.245	-0.036
-412.384	585.585	-0.145	-0.355
-411.369	18.847	0.228	0.182
-410.355	-154.607	0.444	0.030
-409.340	77.425	0.204	-0.216
-408.325	-200.000	-0.008	0.124
-407.311	-59.744	-0.146	0.062
-406.296	248.635	-0.175	-0.295
-405.282	-149.506	-0.225	0.018
-404.267	40.533	0.213	0.191
-403.252	800.000	-0.102	-0.398
-402.238	800.000	0.035	-0.135
-401.223	-200.000	0.043	-0.323
-400.209	-200.000	-0.003	0.093
-399.194	-134.200	0.231	-0.028
-398.179	-28.248	0.302	0.174
-397.165	642.268	0.141	-0.358
-396.150	-54.408	0.317	0.143
-395.136	800.000	0.025	-0.105
-394.121	-28.762	-0.288	0.165
-393.106	-98.923	0.186	0.047
-392.092	-200.000	-0.018	-0.154
-391.077	800.000	0.053	0.153
-390.063	454.226	-0.036	0.079
-389.048	-71.446	-0.084	0.031
-388.033	18.017	-0.341	0.271
-387.019	36.265	0.235	-0.206
-386.004	328.864	0.086	-0.164
-384.990	230.538	-0.079	-0.128
-383.975	-30.378	-0.137	0.078
-382.960	19.027	-0.254	-0.202
-381.946	142.465	0.112	-0.149
-380.931	-200.000	-0.003	0.307
-379.917	97.532	0.097	-0.111
-378.902	-113.968	0.198	-0.038
-377.888	185.047	0.024	-0.035
-376.873	800.000	-0.054	-0.158
-375.858	551.066	-0.041	-0.099
-374.844	-143.748	-0.227	-0.021
-373.829	-78.737	-0.158	0.054
-372.815	-200.000	-0.007	-0.282
-371.800	-70.634	-0.275	0.104
-370.785	-109.278	-0.271	-0.057
-369.771	-113.731	0.262	-0.051
-368.756	501.449	0.117	-0.269
-367.742	-200.000	0.057	0.344
-366.727	127.373	0.086	-0.109
-365.712	147.705	0.153	-0.205
-364.698	-187.964	-0.084	-0.001
-363.683	-200.000	0.028	0.423
-362.669	-82.579	0.224	0.072
-361.654	-200.000	0.019	-0.316
-360.639	-166.192	0.336	-0.014
-359.625	-76.131	-0.110	-0.039
-358.610	17.054	0.166	0.131
-357.596	60.646	0.254	-0.250
-356.581	-51.211	0.163	0.076
-355.566	-140.326	-0.181	-0.019
-354.552	-71.446	-0.212	0.079
-353.537	-87.905	-0.221	0.066
-352.523	-200.000	-0.015	-0.083
-351.508	800.000	-0.036	-0.107
-350.493	415.495	0.124	0.263
-349.479	92.990	-0.149	0.168
-348.464	137.780	-0.237	-0.308
-347.450	29.116	0.158	0.133
-346.435	-17.713	-0.027	-0.017
-345.420	385.670	0.028	-0.058
-344.406	218.646	-0.186	0.295
-343.391	-95.675	0.150	-0.040
-342.377	-181.816	-0.368	-0.007
-341.362	119.514	-0.151	-0.186
-340.348	401.053	0.146	-0.304
-339.333	336.500	0.146	0.281
-338.318	222.158	-0.102	-0.162
-337.304	-130.554	-0.229	0.031
-336.289	82.175	0.160	0.172
-335.275	-146.411	0.143	0.012
-334.260	204.071	0.175	0.269
-333.245	256.094	-0.085	0.145
-332.231	-200.000	0.009	0.057
-331.216	151.410	-0.093	-0.126
-330.202	-39.549	0.290	-0.151
-329.187	64.479	0.107	0.107
-328.172	-83.127	-0.114	-0.036
-327.158	269.118	0.015	0.027
-326.143	22.879	-0.475	0.387
-325.129	800.000	0.030	0.095
-324.114	90.816	0.213	0.237
-323.099	-200.000	0.019	-0.097
-322.085	43.886	-0.120	-0.109
-321.070	-46.729	0.076	-0.037
-320.056	-72.218	-0.161	0.059
-319.041	716.023	0.038	0.101
-318.026	129.304	0.159	0.202
-317.012	-200.000	-0.000	-0.037
-315.997	-200.000	-0.008	0.074
-314.983	-200.000	-0.040	-0.243
-313.968	553.183	-0.114	-0.273
-312.953	163.617	-0.300	-0.419
-311.939	460.383	-0.070	0.155
-310.924	-85.109	0.388	0.120
-309.910	-32.054	-0.181	0.101
-308.895	-200.000	-0.003	0.110
-307.880	-100.572	0.294	0.072
-306.866	2.224	-0.128	-0.092
-305.851	219.492	-0.098	-0.155
-304.837	-13.720	-0.122	0.078
-303.822	-200.000	-0.049	0.312
-302.807	24.708	0.027	0.022
-301.793	-166.175	0.242	0.010
-300.778	-121.203	0.121	0.020
-299.764	-68.387	-0.286	0.110
-298.749	-200.000	-0.009	0.069
-297.735	-101.694	-0.072	-0.017
-296.720	-125.118	-0.299	-0.046
-295.705	88.196	0.298	-0.328
-294.691	800.000	-0.058	0.165
-293.676	139.832	-0.110	0.144
-292.662	-83.069	0.232	0.074
-291.647	-102.739	-0.225	-0.053
-290.632	767.498	0.121	0.328
-289.618	-7.831	0.532	0.356
-288.603	800.000	0.052	0.163
-287.589	487.580	0.076	0.173
-286.574	-175.398	-0.164	0.004
-285.559	-136.763	-0.289	-0.033
-284.545	-200.000	-0.009	0.120
-283.530	-183.821	0.108	-0.002
-282.516	72.275	0.117	-0.120
-281.501	-200.000	0.069	0.404
-280.486	-94.613	-0.438	-0.118
-279.472	341.339	-0.079	-0.154
-278.457	-200.000	0.010	0.511
-277.443	-129.063	0.146	0.020
-276.428	-38.478	0.167	0.088
-275.413	-82.178	-0.008	-0.003
-274.399	-119.075	-0.377	0.065
-273.384	-57.376	-0.224	-0.098
-272.370	-33.315	0.402	-0.220
-271.355	-101.338	-0.251	0.061
-270.340	453.506	-0.055	-0.120
-269.326	800.000	0.104	0.306
-268.311	-158.068	-0.155	0.009
-267.297	636.411	0.077	0.195
-266.282	301.734	-0.175	-0.320
-265.267	-29.984	-0.133	0.075
-264.253	-58.751	-0.474	0.203
-263.238	36.063	0.195	0.170
-262.224	-109.665	-0.120	0.025
-261.209	-127.563	-0.200	-0.029
-260.195	375.928	-0.025	-0.051
-259.180	101.383	0.056	-0.064
-258.165	-200.000	0.012	0.120
-257.151	386.896	-0.159	0.326
-256.136	-71.810	0.217	0.080
-255.122	12.759	0.011	0.008
-254.107	-24.600	0.329	0.194
-253.092	-34.101	0.217	0.118
-252.078	-69.946	0.248	-0.093
-251.063	-64.121	0.307	0.124
-250.049	-200.000	-0.010	-0.119
-249.034	-200.000	-0.038	-0.194
-248.019	-200.000	-0.041	0.178
-247.005	233.483	-0.105	-0.170
-245.990	103.324	-0.221	-0.257
-244.976	172.368	0.054	0.077
-243.961	-200.000	0.010	0.199
-242.946	-200.000	-0.007	0.058
-241.932	-36.711	-0.367	-0.195
-240.917	800.000	-0.130	0.560
-239.903	87.040	0.178	0.195
-238.888	-103.813	0.139	0.032
-237.873	92.808	-0.163	-0.182
-236.859	-88.646	-0.072	-0.021
-235.844	374.726	-0.060	0.120
-234.830	-21.020	-0.050	-0.031
-233.815	75.424	-0.024	-0.026
-232.800	768.974	0.049	-0.133
-231.786	-200.000	-0.011	-0.088
-230.771	224.912	-0.100	0.160
-229.757	664.567	-0.167	0.426
-228.742	367.000	0.085	-0.170
-227.727	-200.000	-0.008	0.130
-226.713	211.460	0.133	-0.207
-225.698	-200.000	0.019	-0.237
-224.684	800.000	-0.047	0.130
-223.669	-80.731	0.088	-0.029
-222.655	-146.350	0.154	0.013
-221.640	-16.515	0.125	0.078
-220.625	-200.000	-0.050	0.229
-219.611	800.000	-0.033	0.109
-218.596	-122.008	0.167	-0.027
-217.582	8.487	-0.204	0.152
-216.567	185.988	0.075	0.111
-215.552	123.877	0.163	-0.203
-214.538	-125.833	-0.214	-0.032
-213.523	-17.261	0.271	0.169
-212.509	-200.000	-0.005	-0.250
-211.494	108.932	-0.032	-0.038
-210.479	-200.000	-0.056	-0.247
-209.465	-136.165	-0.135	-0.016
-208.450	37.676	-0.090	-0.079
-207.436	550.212	0.067	0.160
-206.421	-110.253	0.176	0.036
-205.406	89.194	-0.230	0.254
-204.392	-200.000	-0.015	0.254
-203.377	-111.449	-0.273	0.055
-202.363	-200.000	-0.029	0.270
-201.348	-111.871	-0.275	0.055
-200.333	246.595	-0.180	-0.299
-199.319	-59.612	0.289	-0.122
-198.304	636.848	0.103	0.258
-197.290	672.069	-0.074	-0.190
-196.275	-46.254	0.371	-0.180
-195.260	26.770	0.325	0.269
-194.246	-200.000	-0.011	0.099
-193.231	-22.755	-0.183	0.109
-192.217	-13.726	0.067	0.043
-191.202	-27.168	0.187	0.108
-190.187	19.266	-0.093	-0.074
-189.173	-170.906	0.523	-0.018
-188.158	-200.000	-0.004	-0.071
-187.144	-119.951	0.191	-0.032
-186.129	47.549	-0.217	0.200
-185.114	-100.174	0.237	0.058
-184.100	-115.505	-0.073	0.014
-183.085	-74.053	-0.067	-0.024
-182.071	-32.220	0.152	0.084
-181.056	-21.807	0.259	-0.156
-180.042	198.349	0.064	-0.096
-179.027	-200.000	-0.004	-0.121
-178.012	218.032	0.135	0.212
-176.998	30.186	0.267	-0.225
-175.983	-15.831	-0.153	0.096
-174.969	-200.000	-0.012	-0.122
-173.954	-12.375	-0.128	0.083
-172.939	-114.907	0.257	-0.048
-171.925	-200.000	0.016	-0.175
-170.910	558.733	-0.024	0.057
-169.896	-200.000	0.095	-0.616
-168.881	-98.985	0.095	-0.024
-167.866	216.468	-0.163	-0.256
-166.852	106.557	0.068	-0.079
-165.837	-59.707	-0.160	-0.068
-164.823	-200.000	-0.049	-0.379
-163.808	403.380	0.095	-0.198
-162.793	-117.156	-0.297	0.053
-161.779	17.354	0.089	0.070
-160.764	-200.000	-0.014	0.085
-159.750	10.006	-0.089	-0.067
-158.735	287.018	-0.100	0.178
-157.720	30.109	0.232	0.195
-156.706	-129.149	-0.247	0.034
-155.691	-117.012	-0.228	-0.041
-154.677	-178.768	0.165	-0.004
-153.662	-200.000	0.046	0.321
-152.647	-200.000	0.024	0.173
-151.633	311.172	0.179	0.331
-150.618	800.000	-0.053	-0.204
-149.604	-143.950	-0.151	0.014
-148.589	-38.033	-0.246	-0.129
-147.574	4.213	0.318	0.230
-146.560	251.140	-0.019	0.032
-145.545	-120.446	-0.160	-0.027
-144.531	170.338	-0.089	-0.125
-143.516	-160.001	0.287	-0.015
-142.502	204.892	-0.211	0.322
-141.487	170.784	0.074	0.105
-140.472	-200.000	0.006	0.044
-139.458	-200.000	-0.096	0.532
-138.443	-1.516	0.201	-0.139
-137.429	-176.912	0.165	0.004
-136.414	-200.000	-0.036	-0.201
-135.399	800.000	-0.016	-0.052
-134.385	29.175	0.199	-0.167
-133.370	675.385	-0.143	0.366
-132.356	432.422	0.162	0.347
-131.341	136.975	0.071	0.091
-130.326	-85.578	-0.206	0.063
-129.312	64.300	0.094	0.093
-128.297	349.815	0.116	-0.226
-127.283	379.655	-0.099	0.200
-126.268	-12.808	-0.192	-0.124
-125.253	-200.000	0.021	-0.111
-124.239	-33.105	-0.074	0.040
-123.224	258.396	0.272	-0.462
-122.210	-117.724	0.231	-0.041
-121.195	800.000	-0.056	0.193
-120.180	-46.590	-0.129	-0.062
-119.166	-66.951	-0.345	0.134
-118.151	-86.287	0.243	0.074
-117.137	212.993	0.235	0.365
-116.122	41.862	-0.161	-0.144
-115.107	-182.049	0.249	-0.005
-114.093	-8.778	-0.078	0.052
-113.078	-38.793	0.337	0.175
-112.064	-61.984	0.297	0.122
-111.049	-10.506	0.100	0.065
-110.034	-90.570	0.124	0.035
-109.020	80.146	-0.041	0.043
-108.005	-18.791	-0.236	-0.145
-106.991	-10.059	0.037	-0.024
-105.976	-48.195	0.208	0.099
-104.962	69.103	-0.187	0.189
-103.947	-200.000	-0.025	0.234
-102.932	-98.312	0.154	0.039
-101.918	108.938	-0.050	0.059
-100.903	323.850	0.247	0.465
-99.889	-163.576	0.191	0.009
-98.874	-200.000	0.048	0.278
-97.859	87.906	0.083	-0.090
-96.845	-26.073	-0.267	0.155
-95.830	-200.000	0.019	-0.105
-94.816	326.844	-0.072	0.136
-93.801	271.224	0.158	0.274
-92.786	800.000	-0.028	0.082
-91.772	56.536	0.077	0.074
-90.757	370.279	0.044	-0.088
-89.743	113.243	-0.162	-0.193
-88.728	103.374	-0.197	-0.227
-87.713	65.278	-0.198	-0.197
-86.699	50.384	-0.044	0.041
-85.684	105.282	-0.075	-0.087
-84.670	800.000	0.047	0.179
-83.655	-122.012	-0.214	0.035
-82.640	339.875	0.158	-0.303
-81.626	28.372	-0.138	0.115
-80.611	-101.828	0.197	0.047
-79.597	86.795	0.081	0.088
-78.582	570.479	-0.188	-0.449
-77.567	30.793	-0.086	0.073
-76.553	-89.261	0.278	0.081
-75.538	104.779	-0.289	-0.335
-74.524	45.901	-0.128	-0.117
-73.509	133.200	-0.047	0.059
-72.494	221.070	0.062	0.098
-71.480	-200.000	0.003	-0.073
-70.465	287.793	-0.096	0.171
-69.451	-155.106	0.212	-0.014
-68.436	-113.104	-0.118	0.023
-67.422	-39.867	-0.124	-0.063
-66.407	-89.691	0.193	-0.056
-65.392	144.351	0.182	0.238
-64.378	-129.999	0.093	-0.012
-63.363	148.269	-0.199	0.264
-62.349	-69.159	0.235	-0.089
-61.334	24.476	-0.689	-0.560
-60.319	-57.167	0.264	0.114
-59.305	-200.000	0.008	-1.135
-58.290	174.164	0.605	0.860
-57.276	597.979	0.682	1.661
-56.261	-200.000	91.862	551.984
-55.246	551.353	1363.839	3216.919
-54.232	154.408	2581.375	3482.161
-53.217	111.811	2292.473	2719.646
-52.203	46.135	1911.081	1739.073
-51.188	39.638	1700.407	1498.146
-50.173	36.806	1655.450	1437.496
-49.159	54.445	1702.030	1610.928
-48.144	57.792	1720.421	1653.407
-47.130	39.416	1677.588	1476.149
-46.115	36.430	1662.485	1440.571
-45.100	36.243	1657.467	1434.772
-44.086	36.184	1654.476	1431.689
-43.071	36.203	1651.862	1429.507
-42.057	36.123	1650.152	1427.379
-41.042	36.226	1648.063	1426.279
-40.027	36.142	1646.371	1424.140
-39.013	36.151	1644.324	1422.377
-37.998	36.105	1642.752	1420.624
-36.984	36.251	1641.256	1420.345
-35.969	36.386	1639.821	1420.045
-34.954	36.281	1638.597	1418.155
-33.940	36.294	1636.994	1416.805
-32.925	36.357	1634.733	1415.252
-31.911	36.287	1632.909	1413.105
-30.896	36.323	1630.896	1411.569
-29.881	36.312	1629.207	1409.976
-28.867	36.266	1628.128	1408.647
-27.852	36.264	1626.807	1407.437
-26.838	36.384	1625.019	1406.708
-25.823	36.289	1623.897	1404.989
-24.809	36.282	1622.360	1403.549
-23.794	36.289	1621.216	1402.555
-22.779	36.360	1619.208	1401.278
-21.765	36.352	1617.189	1399.417
-20.750	36.361	1615.851	1398.272
-19.736	36.380	1615.104	1397.704
-18.721	36.360	1613.392	1396.027
-17.706	36.343	1611.880	1394.536
-16.692	36.351	1610.149	1393.043
-15.677	36.368	1608.729	1391.879
-14.663	36.378	1607.446	1390.791
-13.648	36.369	1606.040	1389.451
-12.633	36.350	1604.486	1387.918
-11.619	36.314	1603.050	1386.363
-10.604	36.336	1601.525	1385.148
-9.590	36.372	1600.054	1384.072
-8.575	36.346	1598.872	1382.811
-7.560	36.351	1597.421	1381.540
-6.546	36.360	1596.255	1380.537
-5.531	36.299	1595.318	1379.235
-4.517	36.346	1594.519	1378.828
-3.502	36.369	1593.041	1377.659
-2.487	36.452	1591.367	1376.747
-1.473	35.977	1580.409	1363.853
-0.458	33.193	1560.660	1327.249
0.556	29.298	1560.418	1294.004
1.571	26.739	1584.336	1295.460
2.586	26.180	1598.208	1302.653
3.600	23.296	1545.547	1239.472
4.615	13.085	1432.574	1082.177
5.629	3.489	1363.571	969.851
6.644	1.722	1354.557	952.312
7.659	1.723	1352.385	950.702
8.673	1.588	1351.277	949.000
9.688	1.428	1350.074	947.070
10.702	1.312	1346.721	943.917
11.717	5.014	1354.363	972.303
12.731	15.386	1374.317	1051.880
13.746	23.701	1387.947	1114.637
14.761	25.489	1390.258	1127.624
15.775	25.732	1390.569	1129.300
16.790	25.757	1390.124	1128.997
17.804	25.847	1388.796	1128.381
18.819	26.186	1388.607	1130.250
19.834	26.210	1387.971	1129.785
20.848	26.123	1387.624	1128.856
21.863	26.268	1386.272	1128.560
22.877	26.210	1385.283	1127.296
23.892	26.201	1384.960	1126.880
24.907	26.230	1384.069	1126.231
25.921	26.206	1382.975	1125.097
26.936	26.220	1382.062	1124.342
27.950	26.217	1380.644	1123.068
28.965	26.263	1379.633	1122.434
29.980	26.217	1378.182	1120.867
30.994	26.146	1377.421	1119.705
32.009	26.173	1376.172	1118.761
33.023	26.182	1375.024	1117.785
34.038	26.192	1374.060	1116.962
35.053	26.278	1372.888	1116.446
36.067	26.258	1372.053	1115.542
37.082	26.201	1371.160	1114.362
38.096	26.253	1369.928	1113.586
39.111	26.170	1369.291	1112.457
40.126	26.194	1368.937	1112.217
41.140	26.110	1368.474	1111.231
42.155	26.076	1368.340	1110.813
43.169	26.203	1367.892	1111.133
44.184	26.205	1367.706	1110.894
45.199	26.252	1367.143	1110.629
46.213	26.155	1366.241	1109.201
47.228	26.206	1365.344	1108.690
48.242	26.217	1364.431	1107.913
49.257	26.139	1363.012	1106.187
50.271	26.237	1361.393	1105.377
51.286	26.296	1360.089	1104.581
52.301	26.204	1359.102	1103.117
53.315	26.193	1358.031	1102.086
54.330	26.184	1357.209	1101.266
55.344	26.089	1356.506	1100.019
56.359	26.142	1355.626	1099.529
57.374	26.324	1353.717	1098.988
58.388	26.119	1354.072	1097.933
59.403	26.223	1353.807	1098.252
60.417	26.231	1352.779	1097.370
61.432	26.153	1351.889	1096.077
62.447	26.141	1350.834	1095.056
63.461	26.114	1350.034	1094.147
64.476	26.114	1348.975	1093.190
65.490	26.123	1348.152	1092.481
66.505	26.164	1346.370	1091.189
67.520	26.218	1345.252	1090.511
68.534	26.199	1344.240	1089.477
69.549	26.224	1343.062	1088.577
70.563	26.081	1342.903	1087.493
71.578	26.196	1341.382	1086.855
72.593	26.266	1340.448	1086.428
73.607	26.225	1339.834	1085.586
74.622	26.179	1339.294	1084.776
75.636	26.174	1338.637	1084.117
76.651	26.121	1337.782	1083.010
77.666	26.222	1336.727	1082.665
78.680	26.244	1336.471	1082.493
79.695	26.160	1335.874	1081.409
80.709	26.206	1334.765	1080.695
81.724	26.219	1334.335	1080.330
82.739	26.198	1333.164	1079.160
83.753	26.305	1332.066	1078.812
84.768	26.227	1331.214	1077.562
85.782	26.236	1330.147	1076.657
86.797	26.200	1329.088	1075.493
87.812	26.280	1327.734	1074.774
88.826	26.191	1327.026	1073.580
89.841	26.247	1325.858	1072.873
90.855	26.300	1324.594	1072.067
91.870	26.207	1324.035	1070.969
92.884	26.296	1323.412	1070.900
93.899	26.272	1323.003	1070.330
94.914	26.254	1321.607	1069.000
95.928	26.420	1320.404	1068.915
96.943	26.328	1319.979	1067.933
97.957	26.330	1319.336	1067.330
98.972	26.299	1318.467	1066.347
99.987	26.243	1317.570	1065.196
101.001	26.200	1316.791	1064.217
102.016	26.272	1315.645	1063.622
103.030	26.257	1315.183	1063.069
104.045	26.391	1313.810	1062.650
105.060	26.240	1313.377	1061.321
106.074	26.268	1312.076	1060.340
107.089	26.258	1311.013	1059.328
108.103	26.419	1310.196	1059.517
109.118	26.342	1309.104	1058.089
110.133	26.283	1307.563	1056.405
111.147	26.357	1306.756	1056.091
112.162	26.361	1305.886	1055.317
113.176	26.372	1304.541	1054.201
114.191	26.305	1304.167	1053.417
115.206	26.398	1302.593	1052.592
116.220	26.321	1301.507	1051.174
117.235	26.243	1300.482	1049.803
118.249	26.402	1299.518	1049.854
119.264	26.285	1298.926	1048.603
120.279	26.442	1298.150	1048.794
121.293	26.347	1297.680	1047.773
122.308	26.505	1296.205	1047.405
123.322	26.419	1295.642	1046.356
124.337	26.438	1294.947	1045.813
125.352	26.406	1294.010	1044.780
126.366	26.368	1293.154	1043.775
127.381	26.385	1292.460	1043.222
128.395	26.376	1291.622	1042.400
129.410	26.460	1290.738	1042.081
130.424	26.511	1289.840	1041.555
131.439	26.308	1289.017	1039.629
132.454	26.314	1288.535	1039.187
133.468	26.353	1287.668	1038.615
134.483	26.336	1287.566	1038.347
135.497	26.433	1286.223	1037.729
136.512	26.456	1284.981	1036.763
137.527	26.439	1284.292	1036.021
138.541	26.369	1283.158	1034.612
139.556	26.371	1281.726	1033.381
140.570	26.346	1281.093	1032.631
141.585	26.419	1279.720	1031.854
142.600	26.332	1279.136	1030.793
143.614	26.406	1277.620	1029.901
144.629	26.354	1277.190	1029.169
145.643	26.343	1275.743	1027.847
146.658	26.237	1275.125	1026.659
147.673	26.220	1274.083	1025.632
148.687	26.305	1272.997	1025.152
149.702	26.252	1272.158	1024.081
150.716	26.288	1270.723	1023.042
151.731	26.374	1269.874	1022.752
152.746	26.332	1268.790	1021.551
153.760	26.412	1267.495	1020.870
154.775	26.434	1266.605	1020.185
155.789	26.469	1265.919	1019.742
156.804	26.416	1264.821	1018.469
157.819	26.408	1264.064	1017.722
158.833	26.283	1263.942	1016.833
159.848	26.483	1262.523	1016.722
160.862	26.463	1261.907	1016.028
161.877	26.334	1261.742	1015.077
162.892	26.386	1260.496	1014.279
163.906	26.402	1259.774	1013.698
164.921	26.455	1258.750	1013.080
165.935	26.520	1257.892	1012.663
166.950	26.452	1257.836	1012.151
167.964	26.531	1256.984	1011.815
168.979	26.498	1256.435	1011.101
169.994	26.556	1255.679	1010.723
171.008	26.496	1255.196	1009.914
172.023	26.509	1253.921	1008.871
173.037	26.546	1253.275	1008.470
174.052	26.467	1253.263	1007.930
175.067	26.529	1252.296	1007.406
176.081	26.503	1251.543	1006.565
177.096	26.572	1250.872	1006.320
178.110	26.504	1249.906	1005.077
179.125	26.473	1248.855	1003.972
180.140	26.503	1247.732	1003.145
181.154	26.500	1246.430	1001.994
182.169	26.424	1245.359	1000.625
183.183	26.632	1244.283	1000.821
184.198	26.563	1243.444	999.676
185.213	26.503	1242.809	998.748
186.227	26.495	1241.797	997.800
187.242	26.555	1240.617	997.095
188.256	26.660	1239.758	996.896
189.271	26.563	1239.281	995.891
190.286	26.647	1238.512	995.643
191.300	26.511	1238.026	994.418
192.315	26.440	1237.759	993.726
193.329	26.591	1237.156	993.980
194.344	26.609	1236.522	993.482
195.359	26.546	1235.965	992.603
196.373	26.501	1235.412	991.823
197.388	26.540	1235.211	991.790
198.402	26.605	1234.717	991.661
199.417	26.534	1234.820	991.269
200.432	26.607	1234.111	991.010
201.446	26.616	1232.772	989.898
202.461	26.678	1232.132	989.634
203.475	26.563	1231.677	988.550
204.490	26.621	1230.437	987.787
205.504	26.697	1229.272	987.177
206.519	26.736	1228.388	986.592
207.534	26.630	1227.963	985.589
208.548	26.552	1227.068	984.357
209.563	26.699	1226.089	984.284
210.577	26.688	1225.367	983.554
211.592	26.698	1224.602	982.907
212.607	26.790	1223.687	982.587
213.621	26.745	1222.908	981.629
214.636	26.825	1221.847	981.126
215.650	26.614	1221.709	979.784
216.665	26.674	1220.640	979.166
217.680	26.697	1219.558	978.336
218.694	26.773	1218.517	977.822
219.709	26.723	1217.964	977.027
220.723	26.612	1218.130	976.474
221.738	26.746	1216.929	976.143
222.753	26.714	1215.883	975.049
223.767	26.709	1215.443	974.582
224.782	26.752	1215.012	974.383
225.796	26.682	1214.627	973.612
226.811	26.840	1213.782	973.692
227.826	26.838	1213.318	973.228
228.840	26.797	1212.670	972.402
229.855	26.734	1212.291	971.671
230.869	26.793	1211.565	971.322
231.884	26.821	1210.285	970.358
232.899	26.793	1209.700	969.652
233.913	26.847	1209.268	969.511
234.928	26.872	1208.966	969.313
235.942	26.979	1207.956	968.990
236.957	26.781	1207.698	967.642
237.972	26.825	1206.562	966.880
238.986	26.915	1205.927	966.766
240.001	26.856	1205.993	966.418
241.015	26.906	1204.722	965.584
242.030	26.884	1204.213	964.973
243.045	26.902	1203.434	964.355
244.059	26.932	1202.111	963.371
245.074	26.979	1201.486	963.032
246.088	27.101	1200.510	962.815
247.103	27.071	1199.786	961.987
248.117	26.975	1199.186	960.916
249.132	27.023	1198.368	960.429
250.147	27.001	1197.791	959.762
251.161	26.997	1197.138	959.133
252.176	26.999	1196.660	958.678
253.190	26.947	1195.980	957.774
254.205	27.042	1195.375	957.704
255.220	27.098	1194.787	957.442
256.234	27.030	1194.165	956.504
257.249	27.072	1193.777	956.329
258.263	27.134	1192.828	955.810
259.278	27.128	1192.639	955.542
260.293	27.164	1191.753	954.938
261.307	27.111	1191.055	954.016
262.322	27.150	1190.684	953.840
263.336	27.066	1190.031	952.792
264.351	27.149	1189.579	952.781
265.366	27.156	1188.704	952.030
266.380	27.181	1188.293	951.748
267.395	27.145	1187.538	950.870
268.409	27.084	1186.908	949.961
269.424	27.081	1186.497	949.533
270.439	27.176	1185.888	949.459
271.453	27.092	1185.417	948.561
272.468	27.162	1184.300	947.946
273.482	27.169	1183.302	947.102
274.497	27.167	1183.170	946.901
275.512	27.240	1182.822	946.921
276.526	27.217	1182.243	946.250
277.541	27.117	1181.193	944.807
278.555	27.141	1180.789	944.524
279.570	27.162	1179.749	943.718
280.585	27.287	1179.052	943.726
281.599	27.198	1178.356	942.623
282.614	27.207	1177.364	941.792
283.628	27.383	1176.249	941.729
284.643	27.243	1175.771	940.540
285.657	27.244	1174.895	939.760
286.672	27.192	1173.982	938.677
287.687	27.294	1172.988	938.329
288.701	27.263	1172.805	937.939
289.716	27.349	1171.783	937.479
290.730	27.377	1170.944	936.868
291.745	27.474	1170.528	936.955
292.760	27.376	1170.212	936.116
293.774	27.360	1170.056	935.825
294.789	27.357	1169.466	935.253
295.803	27.306	1168.269	933.951
296.818	27.443	1167.936	934.304
297.833	27.361	1167.529	933.479
298.847	27.387	1166.514	932.717
299.862	27.404	1165.625	932.011
300.876	27.417	1165.148	931.613
301.891	27.469	1164.965	931.648
302.906	27.614	1163.798	931.375
303.920	27.512	1163.301	930.373
304.935	27.497	1162.570	929.630
305.949	27.405	1162.098	928.699
306.964	27.464	1161.885	928.751
307.979	27.593	1160.629	928.322
308.993	27.507	1160.097	927.377
310.008	27.602	1159.465	927.270
311.022	27.510	1158.913	926.279
312.037	27.563	1158.011	925.745
313.052	27.595	1157.238	925.209
314.066	27.567	1155.999	923.995
315.081	27.661	1155.351	923.869
316.095	27.637	1154.725	923.167
317.110	27.566	1154.375	922.448
318.125	27.537	1153.715	921.688
319.139	27.560	1153.280	921.377
320.154	27.650	1152.482	921.115
321.168	27.690	1151.592	920.525
322.183	27.585	1151.396	919.755
323.197	27.595	1150.977	919.386
324.212	27.748	1150.086	919.367
325.227	27.674	1149.812	918.693
326.241	27.685	1149.298	918.259
327.256	27.720	1148.765	917.926
328.270	27.728	1147.543	916.909
329.285	27.783	1146.471	916.249
330.300	27.717	1145.911	915.389
331.314	27.623	1145.243	914.300
332.329	27.816	1143.999	914.193
333.343	27.824	1143.496	913.749
334.358	27.896	1142.517	913.246
335.373	27.845	1142.020	912.515
336.387	27.952	1141.245	912.349
337.402	27.933	1140.514	911.591
338.416	27.866	1140.266	910.974
339.431	27.749	1139.944	910.054
340.446	27.970	1138.765	910.134
341.460	27.865	1138.685	909.469
342.475	27.802	1138.129	908.629
343.489	27.848	1136.545	907.512
344.504	27.942	1135.737	907.254
345.519	28.007	1134.612	906.597
346.533	27.921	1134.536	906.030
347.548	27.877	1133.830	905.169
348.562	27.935	1132.702	904.475
349.577	28.043	1132.086	904.438
350.592	27.903	1131.350	903.078
351.606	27.803	1130.899	902.144
352.621	27.848	1130.793	902.198
353.635	28.057	1129.857	902.405
354.650	27.990	1128.998	901.307
355.665	28.040	1128.268	900.895
356.679	28.056	1127.835	900.543
357.694	28.018	1127.138	899.722
358.708	28.031	1126.806	899.442
359.723	28.047	1125.858	898.685
360.738	28.010	1125.227	897.918
361.752	28.029	1124.816	897.607
362.767	28.056	1124.684	897.553
363.781	28.040	1123.957	896.816
364.796	28.175	1123.195	896.788
365.810	28.096	1122.559	895.816
366.825	28.188	1121.784	895.570
367.840	28.132	1121.922	895.325
368.854	28.148	1121.269	894.802
369.869	28.131	1120.620	894.124
370.883	28.217	1119.321	893.429
371.898	28.172	1118.745	892.669
372.913	28.227	1118.139	892.372
373.927	28.244	1117.580	891.932
374.942	28.196	1117.378	891.456
375.956	28.296	1116.962	891.532
376.971	28.287	1116.266	890.855
377.986	28.263	1115.604	890.129
379.000	28.336	1115.070	889.980
380.015	28.358	1114.714	889.727
381.029	28.227	1114.045	888.476
382.044	28.370	1113.159	888.385
383.059	28.384	1112.686	887.996
384.073	28.374	1112.013	887.333
385.088	28.311	1111.192	886.296
386.102	28.351	1110.375	885.757
387.117	28.362	1109.328	884.896
388.132	28.226	1108.755	883.707
389.146	28.534	1107.572	884.170
390.161	28.508	1107.193	883.661
391.175	28.421	1106.670	882.747
392.190	28.479	1105.687	882.166
393.205	28.357	1105.400	881.269
394.219	28.503	1104.676	881.316
395.234	28.489	1103.856	880.520
396.248	28.541	1102.957	879.972
397.263	28.648	1101.924	879.584
398.278	28.521	1101.819	878.813
399.292	28.692	1101.100	878.982
400.307	28.612	1100.381	877.949
401.321	28.576	1100.135	877.500
402.336	28.457	1099.466	876.320
403.350	28.551	1098.751	876.123
404.365	28.623	1098.014	875.802
405.380	28.702	1096.909	875.219
406.394	28.540	1096.419	873.977
407.409	28.669	1095.710	873.952
408.423	28.689	1094.967	873.376
409.438	28.697	1094.211	872.731
410.453	28.778	1093.812	872.723
411.467	28.727	1092.952	871.717
412.482	28.674	1092.375	870.927
413.496	28.747	1091.503	870.502
414.511	28.838	1090.890	870.367
415.526	28.758	1090.551	869.638
416.540	28.821	1090.601	869.902
417.555	28.728	1089.577	868.566
418.569	28.786	1089.368	868.600
419.584	28.817	1088.954	868.336
420.599	28.838	1088.575	868.060
421.613	100.197	1313.770	1434.065
422.628	93.446	1346.585	1434.216
