DTS Sentinel unit serial number:	SN413079Multiplexer serial number:	ORYXHardware model number:	OX4-SRSoftware version number:	ORYX F/W v4.00 Oryx Data Collector v3.7.2.0data status	okinstallation	princeton_trtdifferential loss correction	single-endedforward channel	channel 2reverse channel	N/Adate	2019/09/18time	09:47:35forward acquisition time	60.00reverse acquisition time	0.00gamma	496.2192k internal	0.2335k external	0.2335temperature offset calibration	0.9976default loss term (dB/km)	0.3790temperature slope calibration	1.0000multiplexer offset coefficient	1.0000multiplexer slope coefficient	1.0000fibre end	0.00T internal ref (°C)	27.00T ext. ref 1 (°C)	0.28T ext. ref 2 (°C)	23.59length (m)	temperature (°C)	Stokes	anti-Stokes-747.200	800.000	-0.080	-0.258
-746.185	-181.536	-0.289	0.006
-745.171	-134.898	0.056	-0.007
-744.156	-200.000	-0.010	0.302
-743.142	216.775	0.032	0.052
-742.127	617.552	-0.127	-0.319
-741.112	37.869	0.141	0.126
-740.098	-66.828	-0.223	0.088
-739.083	19.528	0.245	0.198
-738.069	-70.635	-0.091	0.035
-737.054	-200.000	-0.011	0.113
-736.039	800.000	-0.057	0.240
-735.025	41.952	0.206	-0.188
-734.010	-46.176	-0.339	-0.168
-732.996	-200.000	-0.054	0.334
-731.981	316.318	0.120	0.227
-730.966	-200.000	0.030	-0.440
-729.952	22.382	-0.057	-0.047
-728.937	-55.206	-0.203	0.092
-727.923	800.000	0.035	0.133
-726.908	-115.053	-0.269	0.051
-725.894	-144.716	-0.114	0.011
-724.879	-200.000	-0.049	-0.370
-723.864	-106.689	-0.259	0.058
-722.850	-41.992	-0.239	-0.123
-721.835	12.931	-0.085	-0.066
-720.821	127.916	0.163	0.207
-719.806	-200.000	0.053	-0.303
-718.791	-83.274	-0.174	-0.056
-717.777	41.084	0.086	0.078
-716.762	-174.571	-0.310	-0.009
-715.748	-93.419	0.266	-0.074
-714.733	115.619	-0.322	-0.396
-713.718	-95.082	-0.086	-0.023
-712.704	-57.731	-0.133	0.059
-711.689	328.336	0.205	-0.395
-710.675	-70.810	-0.196	-0.074
-709.660	-200.000	-0.113	-0.535
-708.645	-200.000	-0.008	0.039
-707.631	-115.622	-0.371	-0.070
-706.616	-91.917	-0.303	0.086
-705.602	-76.074	0.283	0.100
-704.587	-200.000	-0.007	-0.166
-703.572	-6.332	-0.134	0.092
-702.558	800.000	0.130	0.448
-701.543	35.872	-0.056	0.050
-700.529	-124.818	0.544	-0.084
-699.514	-80.210	0.220	0.074
-698.499	-200.000	0.017	-0.190
-697.485	612.497	0.030	0.074
-696.470	800.000	-0.033	0.129
-695.456	-126.508	0.430	-0.064
-694.441	-96.941	0.049	0.013
-693.426	70.217	-0.205	-0.212
-692.412	-52.689	-0.275	-0.127
-691.397	-22.574	-0.206	-0.125
-690.383	776.100	-0.122	0.335
-689.368	-200.000	-0.034	-0.346
-688.354	40.342	-0.328	-0.296
-687.339	-62.676	0.132	0.055
-686.324	22.676	-0.106	-0.087
-685.310	-115.536	-0.317	0.060
-684.295	360.423	-0.043	0.087
-683.281	-200.000	-0.015	-0.142
-682.266	467.960	-0.051	-0.114
-681.251	13.066	0.100	-0.078
-680.237	-200.000	0.007	-0.142
-679.222	800.000	0.023	-0.068
-678.208	112.765	0.046	0.056
-677.193	76.128	-0.258	-0.273
-676.178	-6.293	-0.216	-0.147
-675.164	292.371	-0.155	-0.282
-674.149	-110.528	0.239	0.050
-673.135	12.702	-0.190	-0.147
-672.120	11.519	-0.344	-0.264
-671.105	-200.000	0.052	0.231
-670.091	393.486	0.036	0.074
-669.076	-174.191	0.101	-0.003
-668.062	145.105	0.076	-0.101
-667.047	-200.000	-0.027	0.244
-666.032	-135.754	-0.228	0.027
-665.018	-81.321	0.155	0.051
-664.003	800.000	-0.101	-0.285
-662.989	-200.000	-0.015	-0.082
-661.974	-66.101	-0.076	0.030
-660.959	279.385	0.112	0.201
-659.945	-107.225	-0.020	0.004
-658.930	225.687	0.109	-0.176
-657.916	14.514	0.284	-0.222
-656.901	399.834	-0.113	-0.237
-655.886	50.137	-0.237	-0.224
-654.872	-17.307	0.174	0.110
-653.857	800.000	0.086	0.273
-652.843	800.000	0.044	0.149
-651.828	-93.813	-0.380	0.105
-650.814	-200.000	-0.011	0.139
-649.799	153.184	-0.147	-0.201
-648.784	109.911	-0.098	-0.118
-647.770	-58.036	0.077	0.034
-646.755	-6.393	0.098	0.067
-645.741	-200.000	0.008	0.147
-644.726	32.250	0.109	-0.094
-643.711	436.018	0.053	-0.116
-642.697	-153.089	0.295	-0.021
-641.682	-40.065	0.137	0.071
-640.668	-181.071	-0.399	-0.008
-639.653	-46.296	0.198	-0.097
-638.638	-0.682	-0.052	0.037
-637.624	122.383	-0.131	0.163
-636.609	155.802	0.042	0.057
-635.595	-46.745	0.174	0.085
-634.580	-3.348	-0.288	-0.201
-633.565	-84.791	-0.213	0.067
-632.551	121.408	-0.111	-0.138
-631.536	104.261	0.031	-0.036
-630.522	188.282	0.176	-0.263
-629.507	274.670	0.132	-0.234
-628.492	-149.886	0.242	-0.019
-627.478	-26.235	0.253	-0.149
-626.463	800.000	-0.133	-0.415
-625.449	67.705	-0.031	0.031
-624.434	-77.848	0.126	-0.043
-623.419	4.160	-0.354	-0.259
-622.405	-80.590	0.349	-0.116
-621.390	800.000	0.126	-0.396
-620.376	21.412	-0.281	-0.228
-619.361	495.742	0.076	0.175
-618.346	-83.997	0.253	0.081
-617.332	96.831	-0.203	0.233
-616.317	-194.279	-0.021	0.000
-615.303	-160.235	-0.184	0.010
-614.288	-200.000	0.009	0.167
-613.273	34.894	-0.223	-0.195
-612.259	-54.944	-0.278	-0.125
-611.244	-12.945	-0.126	-0.082
-610.230	281.428	0.007	0.013
-609.215	800.000	0.066	-0.217
-608.201	304.934	0.115	0.214
-607.186	6.889	0.134	0.100
-606.171	-110.158	-0.039	0.008
-605.157	-200.000	0.032	-0.200
-604.142	118.737	-0.066	0.082
-603.128	32.736	-0.030	0.026
-602.113	800.000	0.071	-0.241
-601.098	18.661	-0.154	-0.123
-600.084	205.182	-0.155	0.241
-599.069	800.000	0.044	0.187
-598.055	-28.527	0.138	0.080
-597.040	-200.000	0.007	0.202
-596.025	-9.633	0.093	0.062
-595.011	-87.983	-0.189	-0.057
-593.996	-200.000	0.032	0.180
-592.982	90.748	-0.249	0.278
-591.967	215.588	0.092	-0.146
-590.952	-182.664	-0.268	-0.005
-589.938	-69.590	0.224	-0.086
-588.923	-50.430	0.219	-0.103
-587.909	-200.000	0.018	0.223
-586.894	-142.132	-0.222	0.022
-585.879	44.926	-0.220	-0.202
-584.865	-71.012	0.280	0.105
-583.850	-43.747	-0.116	0.058
-582.836	2.744	-0.187	-0.136
-581.821	239.313	-0.048	0.080
-580.806	-28.532	-0.099	-0.057
-579.792	-200.000	-0.023	-0.253
-578.777	-78.999	0.107	-0.036
-577.763	4.067	0.074	0.054
-576.748	-112.090	-0.069	-0.014
-575.733	-105.097	-0.298	0.068
-574.719	-129.214	-0.226	-0.031
-573.704	29.696	-0.310	-0.263
-572.690	305.681	0.134	0.248
-571.675	800.000	0.110	-0.316
-570.661	86.913	0.159	-0.176
-569.646	-200.000	0.011	0.053
-568.631	-1.081	-0.195	0.137
-567.617	164.606	-0.097	-0.137
-566.602	-200.000	0.016	-0.157
-565.588	-200.000	0.003	0.120
-564.573	115.768	0.145	-0.177
-563.558	98.468	-0.041	0.047
-562.544	15.671	0.136	0.107
-561.529	587.896	0.027	-0.067
-560.515	-173.501	0.147	-0.004
-559.500	-70.329	-0.416	0.157
-558.485	-34.441	0.158	-0.086
-557.471	-200.000	0.010	-0.176
-556.456	95.497	-0.165	0.187
-555.442	789.884	0.065	-0.179
-554.427	80.187	0.140	0.150
-553.412	-131.480	-0.171	-0.023
-552.398	-38.963	0.062	0.032
-551.383	-51.023	-0.213	-0.100
-550.369	-89.928	-0.174	0.051
-549.354	210.490	-0.111	0.175
-548.339	38.575	-0.169	0.150
-547.325	-20.296	0.079	-0.049
-546.310	586.488	0.041	-0.100
-545.296	-110.838	-0.223	-0.046
-544.281	51.035	0.222	0.210
-543.266	-113.636	-0.220	0.043
-542.252	-52.313	-0.177	0.082
-541.237	-127.986	0.283	0.041
-540.223	-25.843	-0.309	0.182
-539.208	-66.445	-0.191	-0.076
-538.193	-44.466	-0.201	-0.100
-537.179	109.387	-0.114	-0.136
-536.164	800.000	-0.044	-0.129
-535.150	-200.000	0.003	0.274
-534.135	233.943	-0.074	0.121
-533.121	-66.585	-0.497	-0.196
-532.106	800.000	-0.024	-0.080
-531.091	492.200	0.117	-0.268
-530.077	382.024	-0.113	-0.232
-529.062	118.552	-0.069	-0.085
-528.048	-82.971	-0.368	0.118
-527.033	544.338	0.189	-0.449
-526.018	-200.000	0.012	-0.409
-525.004	493.889	-0.102	0.233
-523.989	-120.337	-0.400	-0.068
-522.975	128.511	-0.127	0.161
-521.960	490.518	-0.089	-0.202
-520.945	244.618	0.137	-0.230
-519.931	-200.000	-0.003	-0.042
-518.916	140.080	-0.134	-0.175
-517.902	-200.000	0.000	-0.149
-516.887	-91.944	-0.104	0.029
-515.872	99.358	-0.021	-0.024
-514.858	-198.880	-0.266	-0.001
-513.843	243.117	0.020	-0.033
-512.829	469.311	-0.054	0.122
-511.814	474.699	-0.167	0.374
-510.799	800.000	-0.100	-0.360
-509.785	-125.984	-0.314	-0.047
-508.770	-34.637	-0.362	-0.197
-507.756	616.066	0.088	0.219
-506.741	66.621	0.265	0.269
-505.726	-69.794	0.058	-0.022
-504.712	800.000	0.014	0.046
-503.697	-200.000	0.092	-0.430
-502.683	72.328	0.113	0.117
-501.668	742.618	0.084	0.223
-500.653	800.000	0.053	-0.207
-499.639	800.000	-0.059	-0.223
-498.624	189.161	0.214	-0.319
-497.610	-61.070	-0.035	0.015
-496.595	569.442	0.061	0.147
-495.581	239.301	0.063	0.104
-494.566	-66.540	0.149	0.059
-493.551	51.360	0.186	-0.176
-492.537	-110.265	-0.183	0.038
-491.522	289.171	-0.126	0.227
-490.508	42.921	0.215	0.195
-489.493	237.024	-0.102	-0.169
-488.478	106.760	0.018	-0.021
-487.464	-159.959	-0.248	-0.013
-486.449	-200.000	0.051	-0.303
-485.435	-200.000	-0.025	-0.245
-484.420	-20.811	0.262	0.160
-483.405	-166.915	-0.062	0.003
-482.391	800.000	-0.129	-0.370
-481.376	-146.320	-0.339	-0.029
-480.362	-148.950	0.074	0.006
-479.347	800.000	0.061	0.217
-478.332	782.749	0.075	-0.205
-477.318	-200.000	0.071	0.405
-476.303	-124.234	-0.167	-0.026
-475.289	-92.290	-0.132	0.037
-474.274	353.487	0.211	-0.416
-473.259	-175.978	0.134	-0.004
-472.245	22.365	0.130	0.106
-471.230	-184.883	-0.246	0.004
-470.216	561.306	-0.140	0.337
-469.201	-128.308	-0.216	0.031
-468.186	-200.000	0.008	-0.163
-467.172	-92.315	0.099	-0.028
-466.157	23.282	-0.102	0.084
-465.143	55.793	-0.353	0.340
-464.128	361.584	-0.067	0.133
-463.113	687.079	-0.030	-0.077
-462.099	20.298	0.087	0.070
-461.084	-55.749	-0.235	0.105
-460.070	-79.731	0.089	0.030
-459.055	-128.553	-0.114	-0.016
-458.040	69.489	0.117	0.120
-457.026	-200.000	-0.001	-0.077
-456.011	800.000	0.061	-0.208
-454.997	-126.786	0.327	-0.048
-453.982	-163.755	-0.051	0.002
-452.968	515.838	-0.070	-0.162
-451.953	-151.359	0.200	-0.015
-450.938	-106.422	0.402	-0.089
-449.924	-138.617	0.272	-0.030
-448.909	-108.093	0.253	-0.054
-447.895	30.318	0.332	-0.282
-446.880	-36.005	-0.231	0.124
-445.865	-200.000	-0.012	0.055
-444.851	-200.000	0.020	-0.249
-443.836	-98.735	-0.032	-0.008
-442.822	800.000	0.019	-0.075
-441.807	-98.174	-0.178	0.045
-440.792	-200.000	0.029	-0.191
-439.778	-200.000	-0.033	0.207
-438.763	-91.268	0.109	0.031
-437.749	-90.980	-0.091	0.026
-436.734	-200.000	-0.026	0.142
-435.719	800.000	0.041	-0.137
-434.705	-123.433	0.667	-0.105
-433.690	-120.795	-0.200	0.034
-432.676	-111.359	-0.459	0.093
-431.661	67.483	0.102	0.104
-430.646	-157.175	0.300	-0.018
-429.632	-99.265	0.235	0.059
-428.617	601.342	0.059	0.145
-427.603	608.352	0.017	0.042
-426.588	-65.106	0.067	-0.027
-425.573	258.241	-0.176	0.300
-424.559	800.000	-0.089	-0.296
-423.544	800.000	0.072	0.301
-422.530	7.624	0.435	0.323
-421.515	-3.297	-0.040	0.028
-420.500	800.000	-0.038	0.114
-419.486	-131.776	-0.371	-0.048
-418.471	587.344	-0.092	0.225
-417.457	18.364	0.198	-0.157
-416.442	7.212	0.223	-0.165
-415.428	-46.361	0.230	-0.112
-414.413	-34.359	0.236	0.128
-413.398	118.514	-0.068	-0.083
-412.384	57.919	-0.164	0.159
-411.369	358.789	-0.044	0.086
-410.355	18.697	0.123	-0.098
-409.340	232.162	0.129	0.210
-408.325	800.000	-0.071	0.305
-407.311	-200.000	-0.001	0.392
-406.296	44.213	0.220	0.200
-405.282	102.077	0.178	0.206
-404.267	-130.436	0.146	0.020
-403.252	800.000	0.109	0.350
-402.238	404.558	0.200	-0.417
-401.223	-134.727	0.073	0.009
-400.209	800.000	-0.091	0.254
-399.194	722.528	0.032	0.086
-398.179	693.873	0.134	0.349
-397.165	240.088	-0.211	-0.349
-396.150	-75.904	-0.203	-0.071
-395.136	-52.594	0.322	-0.147
-394.121	181.795	-0.129	0.187
-393.106	-144.969	-0.313	-0.028
-392.092	-22.729	-0.162	0.097
-391.077	-200.000	-0.015	0.163
-390.063	43.509	0.175	0.159
-389.048	80.540	-0.151	0.161
-388.033	-182.712	-0.248	0.004
-387.019	74.393	0.096	-0.100
-386.004	-85.303	-0.193	0.060
-384.990	412.457	0.062	0.131
-383.975	144.401	-0.076	-0.101
-382.960	67.492	0.141	-0.143
-381.946	150.815	-0.100	-0.134
-380.931	570.757	0.092	0.222
-379.917	-45.853	-0.282	-0.138
-378.902	106.706	-0.176	-0.207
-377.888	594.045	0.056	0.136
-376.873	-123.296	-0.567	0.090
-375.858	800.000	0.045	0.160
-374.844	74.610	-0.097	-0.101
-373.829	800.000	0.045	0.131
-372.815	-200.000	-0.046	0.257
-371.800	-120.863	0.271	0.045
-370.785	217.322	-0.062	0.098
-369.771	-122.232	-0.020	0.003
-368.756	-200.000	0.017	0.161
-367.742	-141.391	0.031	0.003
-366.727	-106.820	0.265	-0.058
-365.712	-42.226	-0.221	-0.112
-364.698	-93.574	-0.309	-0.085
-363.683	146.974	0.020	-0.027
-362.669	310.460	-0.188	-0.349
-361.654	800.000	-0.079	-0.217
-360.639	800.000	-0.064	-0.202
-359.625	800.000	0.060	0.183
-358.610	3.543	-0.009	0.006
-357.596	-200.000	0.001	0.180
-356.581	-188.414	0.105	-0.001
-355.566	94.537	0.102	0.115
-354.552	-45.926	-0.152	-0.074
-353.537	-200.000	-0.013	0.392
-352.523	-200.000	-0.004	0.284
-351.508	-92.343	-0.192	-0.053
-350.493	-99.837	-0.205	0.051
-349.479	18.030	0.191	-0.151
-348.464	800.000	0.032	-0.113
-347.450	-75.399	0.147	0.052
-346.435	248.266	-0.116	0.194
-345.420	-200.000	-0.013	-0.127
-344.406	-28.449	-0.089	-0.051
-343.391	594.989	0.094	0.230
-342.377	317.273	-0.096	0.180
-341.362	44.401	-0.096	-0.087
-340.348	330.869	-0.177	-0.337
-339.333	-117.801	0.256	0.045
-338.318	-97.035	-0.387	-0.100
-337.304	72.265	0.063	0.065
-336.289	673.159	0.124	0.319
-335.275	-92.466	0.255	-0.071
-334.260	70.178	-0.285	-0.291
-333.245	-200.000	0.049	-0.260
-332.231	800.000	0.072	0.272
-331.216	271.404	0.199	0.347
-330.202	-200.000	0.012	0.114
-329.187	68.653	-0.151	-0.153
-328.172	63.826	0.267	-0.265
-327.158	-34.139	-0.178	0.097
-326.143	466.068	0.124	0.274
-325.129	-83.397	0.065	-0.021
-324.114	-200.000	0.043	-0.203
-323.099	-51.399	-0.180	0.083
-322.085	33.760	-0.161	0.139
-321.070	49.473	-0.217	-0.202
-320.056	-200.000	-0.010	0.230
-319.041	26.809	0.214	-0.177
-318.026	187.434	0.066	0.097
-317.012	-108.960	0.259	-0.055
-315.997	138.876	0.006	-0.008
-314.983	-11.801	0.146	0.095
-313.968	197.092	0.147	-0.221
-312.953	-200.000	0.039	-0.205
-311.939	800.000	-0.042	-0.154
-310.924	800.000	-0.097	-0.388
-309.910	-28.148	0.115	0.066
-308.895	-174.039	0.062	0.002
-307.880	408.678	-0.182	0.381
-306.866	-200.000	-0.002	0.038
-305.851	172.165	-0.102	0.145
-304.837	-200.000	0.002	-0.109
-303.822	115.214	0.158	-0.191
-302.807	61.775	-0.208	0.205
-301.793	-95.882	0.067	-0.018
-300.778	-200.000	-0.018	-0.118
-299.764	-112.369	-0.021	-0.004
-298.749	73.269	0.112	0.116
-297.735	-115.275	-0.104	0.019
-296.720	-164.684	0.262	-0.012
-295.705	800.000	0.064	0.198
-294.691	-57.198	-0.205	0.089
-293.676	4.655	0.131	-0.095
-292.662	397.580	-0.207	0.427
-291.647	-200.000	0.036	0.230
-290.632	58.078	-0.149	0.144
-289.618	687.667	-0.156	0.403
-288.603	-144.142	0.135	-0.012
-287.589	-120.277	-0.180	-0.030
-286.574	243.101	0.073	0.121
-285.559	-151.676	0.336	-0.024
-284.545	-82.594	-0.140	0.045
-283.530	-134.683	-0.351	0.042
-282.516	-200.000	0.046	-0.441
-281.501	-188.931	-0.358	-0.004
-280.486	-200.000	-0.006	0.171
-279.472	122.246	-0.210	-0.259
-278.457	-51.669	-0.169	0.078
-277.443	58.308	-0.152	0.147
-276.428	456.560	0.087	-0.190
-275.413	401.809	0.074	0.153
-274.399	-200.000	0.028	0.294
-273.384	357.303	0.225	0.442
-272.370	-135.095	0.194	0.023
-271.355	-200.000	0.014	0.219
-270.340	-139.152	-0.259	-0.028
-269.326	9.157	-0.088	0.066
-268.311	-86.880	0.142	-0.043
-267.297	-37.677	0.370	-0.194
-266.282	-105.148	0.334	-0.075
-265.267	86.319	-0.156	-0.170
-264.253	-179.397	0.288	0.006
-263.238	-13.559	0.181	0.116
-262.224	170.065	0.176	0.248
-261.209	294.190	0.115	0.207
-260.195	-200.000	-0.029	-0.198
-259.180	-112.601	0.166	0.033
-258.165	-83.514	-0.125	0.039
-257.151	149.074	0.170	0.227
-256.136	63.804	0.065	0.065
-255.122	448.558	-0.088	0.191
-254.107	-200.000	0.002	-0.086
-253.092	106.439	0.031	0.036
-252.078	800.000	0.148	-0.406
-251.063	-200.000	0.014	0.127
-250.049	-153.205	-0.159	-0.011
-249.034	-136.743	0.168	-0.019
-248.019	-157.936	-0.061	0.004
-247.005	419.769	0.135	0.286
-245.990	-42.797	-0.118	-0.059
-244.976	15.443	0.271	-0.210
-243.961	-42.059	-0.065	0.033
-242.946	479.946	0.105	0.236
-241.932	-200.000	0.025	-0.165
-240.917	800.000	0.049	0.199
-239.903	-81.762	0.155	-0.050
-238.888	-32.150	0.232	-0.128
-237.873	-115.508	0.044	0.008
-236.859	-92.303	0.096	0.027
-235.844	131.533	-0.050	-0.063
-234.830	-123.000	-0.110	0.017
-233.815	49.746	-0.127	-0.118
-232.800	44.660	0.194	0.176
-231.786	-200.000	-0.091	-0.525
-230.771	-193.657	0.227	-0.002
-229.757	-20.308	0.143	0.087
-228.742	72.581	0.147	-0.151
-227.727	-71.503	-0.038	0.014
-226.713	70.024	0.094	0.095
-225.698	111.554	-0.057	-0.068
-224.684	89.587	0.110	-0.121
-223.669	9.728	-0.094	0.070
-222.655	800.000	-0.015	0.041
-221.640	-186.838	-0.206	0.003
-220.625	800.000	0.100	-0.348
-219.611	242.361	-0.036	-0.059
-218.596	-193.202	0.327	0.003
-217.582	44.427	0.139	0.126
-216.567	-200.000	0.004	0.292
-215.552	8.159	0.185	-0.137
-214.538	-200.000	0.083	0.528
-213.523	-200.000	0.007	0.046
-212.509	-45.760	0.020	0.010
-211.494	-44.625	-0.256	0.126
-210.479	508.418	0.163	-0.372
-209.465	260.063	-0.146	-0.249
-208.450	-121.234	-0.468	0.077
-207.436	-39.942	-0.181	0.093
-206.421	54.066	0.078	-0.074
-205.406	344.994	0.116	-0.224
-204.392	75.858	-0.179	-0.186
-203.377	4.208	0.109	-0.078
-202.363	-75.628	0.228	-0.080
-201.348	-185.130	0.308	-0.005
-200.333	173.929	-0.243	0.345
-199.319	800.000	-0.081	0.271
-198.304	-56.273	-0.136	-0.059
-197.290	-102.865	-0.121	0.028
-196.275	34.814	-0.183	0.157
-195.260	16.127	-0.072	0.056
-194.246	475.324	-0.089	0.197
-193.231	-104.902	0.161	-0.036
-192.217	-200.000	0.036	-0.301
-191.202	6.177	-0.168	-0.122
-190.187	220.179	0.096	0.152
-189.173	800.000	0.059	-0.208
-188.158	800.000	0.051	0.188
-187.144	-75.061	0.301	0.106
-186.129	242.127	0.284	-0.467
-185.114	259.793	-0.109	-0.186
-184.100	-200.000	0.016	0.247
-183.085	121.314	-0.237	-0.290
-182.071	800.000	-0.097	-0.335
-181.056	-200.000	0.001	0.363
-180.042	-124.679	0.199	0.030
-179.027	-13.144	0.376	0.240
-178.012	-170.696	0.176	0.006
-176.998	210.888	0.351	0.542
-175.983	-200.000	0.006	-0.174
-174.969	210.455	-0.187	-0.288
-173.954	-96.782	-0.362	-0.094
-172.939	212.741	0.329	-0.510
-171.925	114.498	0.068	-0.082
-170.910	254.541	0.076	0.127
-169.896	800.000	-0.041	-0.133
-168.881	-122.909	-0.109	0.017
-167.866	-136.279	-0.092	-0.011
-166.852	-200.000	0.008	0.178
-165.837	-77.290	-0.178	0.061
-164.823	31.167	0.108	-0.091
-163.808	-200.000	0.004	0.046
-162.793	-33.490	0.294	0.159
-161.779	-137.310	0.312	-0.035
-160.764	-26.989	-0.094	0.054
-159.750	110.892	0.213	-0.251
-158.735	-58.083	0.073	0.031
-157.720	-200.000	0.050	-0.233
-156.706	96.522	0.200	0.225
-155.691	434.824	0.045	-0.096
-154.677	117.547	0.153	0.184
-153.662	-200.000	-0.011	-0.175
-152.647	800.000	0.083	-0.323
-151.633	-50.960	0.178	0.082
-150.618	503.571	0.095	0.216
-149.604	-53.641	0.244	-0.109
-148.589	426.818	-0.137	0.291
-147.574	-200.000	0.003	0.081
-146.560	30.004	-0.290	0.243
-145.545	327.754	-0.178	-0.336
-144.531	800.000	0.039	-0.116
-143.516	113.886	0.057	-0.068
-142.502	-3.315	0.322	0.220
-141.487	-200.000	0.011	0.061
-140.472	-200.000	0.033	-0.170
-139.458	246.809	-0.181	-0.300
-138.443	-73.521	0.290	-0.104
-137.429	71.693	0.282	0.288
-136.414	-200.000	0.023	-0.130
-135.399	45.993	0.209	0.190
-134.385	705.475	-0.070	-0.182
-133.370	716.328	-0.066	-0.172
-132.356	-200.000	0.061	-0.301
-131.341	322.377	-0.213	-0.398
-130.326	171.371	-0.140	0.198
-129.312	134.696	-0.178	0.226
-128.297	-6.492	0.319	0.213
-127.283	-109.557	0.214	-0.044
-126.268	598.660	0.061	0.147
-125.253	240.451	-0.132	-0.216
-124.239	-200.000	0.003	-0.245
-123.224	118.196	0.214	0.258
-122.210	-200.000	0.003	-0.291
-121.195	342.867	-0.038	0.073
-120.180	-118.453	-0.201	-0.035
-119.166	-105.816	0.075	-0.017
-118.151	-200.000	-0.037	0.212
-117.137	800.000	0.097	-0.275
-116.122	365.155	0.192	-0.380
-115.107	-43.071	0.305	0.152
-114.093	486.880	-0.096	-0.215
-113.078	-15.922	-0.127	0.079
-112.064	32.631	-0.071	-0.060
-111.049	-79.731	0.164	-0.054
-110.034	-98.609	0.373	-0.093
-109.020	81.354	0.173	0.184
-108.005	-200.000	-0.352	0.001
-106.991	537.553	0.086	0.201
-105.976	-137.723	0.111	0.012
-104.962	-174.337	0.162	-0.005
-103.947	341.861	0.072	0.137
-102.932	85.671	0.102	-0.110
-101.918	-24.541	0.196	0.114
-100.903	5.019	0.393	-0.283
-99.889	-200.000	-0.024	-0.202
-98.874	800.000	-0.119	0.387
-97.859	-88.474	-0.137	-0.040
-96.845	800.000	-0.063	-0.227
-95.830	-1.664	0.191	-0.132
-94.816	18.164	0.120	0.094
-93.801	-6.665	0.106	-0.071
-92.786	743.313	-0.039	-0.103
-91.772	-96.382	-0.315	0.082
-90.757	779.528	0.076	-0.204
-89.743	403.893	0.133	0.275
-88.728	141.419	-0.260	0.337
-87.713	800.000	-0.048	0.136
-86.699	-79.136	0.089	-0.030
-85.684	64.102	-0.086	-0.085
-84.670	51.972	0.325	-0.303
-83.655	-9.834	0.187	-0.122
-82.640	105.217	-0.132	-0.152
-81.626	-165.814	-0.288	-0.012
-80.611	-76.816	-0.181	-0.062
-79.597	800.000	-0.043	-0.170
-78.582	-200.000	-0.001	0.169
-77.567	-108.953	-0.285	-0.059
-76.553	446.818	-0.183	-0.394
-75.538	800.000	-0.028	0.089
-74.524	-106.802	-0.178	0.039
-73.509	-200.000	-0.021	0.225
-72.494	239.215	0.159	-0.259
-71.480	12.217	0.280	0.211
-70.465	770.058	-0.027	-0.071
-69.451	21.296	0.115	-0.091
-68.436	319.186	0.167	-0.310
-67.422	-96.143	0.262	-0.068
-66.407	-1.726	0.143	-0.099
-65.392	-119.969	-0.223	-0.038
-64.378	-53.352	-0.009	0.004
-63.363	-200.000	0.010	0.198
-62.349	188.885	0.120	-0.175
-61.334	231.851	-0.890	-1.428
-60.319	21.029	0.704	0.559
-59.305	357.426	-0.607	-1.184
-58.290	800.000	0.400	1.290
-57.276	800.000	0.486	1.554
-56.261	-200.000	111.558	609.337
-55.246	442.748	1516.327	3248.387
-54.232	143.393	2708.694	3525.971
-53.217	94.935	2321.543	2583.254
-52.203	36.019	1925.490	1657.086
-51.188	30.042	1712.857	1428.127
-50.173	27.678	1670.427	1374.893
-49.159	48.718	1725.011	1581.410
-48.144	47.276	1739.185	1583.317
-47.130	29.760	1697.715	1413.124
-46.115	27.069	1683.676	1380.955
-45.100	26.943	1678.640	1375.813
-44.086	26.971	1675.704	1373.563
-43.071	26.907	1673.382	1371.125
-42.057	26.889	1670.964	1368.951
-41.042	26.844	1669.327	1367.218
-40.027	26.900	1666.901	1365.598
-39.013	26.867	1664.892	1363.650
-37.998	26.891	1663.084	1362.293
-36.984	26.900	1662.616	1361.927
-35.969	26.983	1660.535	1360.784
-34.954	27.007	1658.780	1359.472
-33.940	27.027	1656.682	1357.849
-32.925	26.988	1655.311	1356.385
-31.911	27.001	1653.306	1354.786
-30.896	26.866	1652.081	1352.718
-29.881	26.963	1650.430	1352.035
-28.867	27.000	1648.263	1350.484
-27.852	26.977	1646.933	1349.164
-26.838	26.989	1645.445	1347.982
-25.823	26.993	1644.050	1346.820
-24.809	27.022	1642.876	1346.015
-23.794	27.075	1641.061	1344.868
-22.779	27.003	1639.954	1343.378
-21.765	26.989	1638.293	1341.856
-20.750	27.066	1636.347	1340.780
-19.736	27.065	1635.409	1339.951
-18.721	27.141	1633.272	1338.705
-17.706	27.022	1632.419	1337.080
-16.692	26.991	1630.984	1335.624
-15.677	26.928	1629.840	1334.170
-14.663	27.052	1628.560	1333.976
-13.648	26.967	1626.760	1331.828
-12.633	27.120	1624.980	1331.439
-11.619	27.030	1623.474	1329.495
-10.604	27.074	1622.303	1328.806
-9.590	27.033	1621.191	1327.537
-8.575	27.066	1619.592	1326.419
-7.560	27.056	1618.369	1325.288
-6.546	27.077	1617.097	1324.348
-5.531	27.018	1615.993	1322.960
-4.517	27.077	1614.999	1322.528
-3.502	27.111	1613.721	1321.673
-2.487	27.155	1611.990	1320.527
-1.473	27.092	1600.124	1310.301
-0.458	24.600	1582.448	1277.970
0.556	19.848	1584.349	1250.200
1.571	17.827	1608.745	1254.496
2.586	17.430	1621.353	1261.277
3.600	16.060	1567.250	1209.259
4.615	8.929	1456.188	1075.774
5.629	1.795	1392.700	982.877
6.644	0.374	1384.986	968.228
7.659	0.326	1384.144	967.245
8.673	0.218	1382.928	965.618
9.688	0.223	1380.555	963.906
10.702	0.011	1377.372	960.247
11.717	3.445	1382.741	985.890
12.731	11.272	1394.922	1044.819
13.746	16.133	1401.632	1080.980
14.761	16.681	1401.715	1084.463
15.775	16.133	1399.174	1078.895
16.790	15.149	1396.944	1070.790
17.804	14.383	1394.588	1064.002
18.819	14.069	1392.863	1060.587
19.834	13.696	1392.094	1057.530
20.848	13.496	1390.660	1055.076
21.863	13.335	1388.976	1052.679
22.877	13.139	1387.909	1050.530
23.892	13.037	1387.061	1049.146
24.907	13.015	1386.234	1048.287
25.921	13.043	1385.133	1047.542
26.936	13.080	1384.334	1047.078
27.950	13.183	1383.490	1047.001
28.965	13.243	1382.188	1046.302
29.980	13.336	1380.940	1045.850
30.994	13.279	1380.524	1045.086
32.009	13.325	1379.593	1044.577
33.023	13.264	1378.495	1043.267
34.038	13.317	1376.979	1042.363
35.053	13.215	1376.199	1041.039
36.067	13.243	1374.897	1040.138
37.082	13.174	1374.402	1039.237
38.096	13.270	1373.215	1038.854
39.111	13.281	1371.793	1037.755
40.126	13.166	1371.673	1036.846
41.140	13.166	1370.044	1035.526
42.155	13.119	1370.115	1035.192
43.169	13.087	1369.912	1034.749
44.184	13.008	1369.849	1034.112
45.199	13.201	1368.827	1034.459
46.213	13.190	1368.442	1034.005
47.228	13.105	1367.520	1032.688
48.242	13.202	1366.094	1032.123
49.257	13.210	1364.320	1030.745
50.271	13.133	1363.284	1029.392
51.286	13.110	1362.327	1028.434
52.301	13.238	1360.489	1027.750
53.315	13.174	1359.672	1026.644
54.330	13.039	1359.048	1025.247
55.344	13.052	1358.030	1024.465
56.359	13.133	1356.274	1023.555
57.374	13.135	1355.453	1022.852
58.388	13.126	1354.783	1022.205
59.403	13.006	1354.500	1021.155
60.417	13.029	1353.827	1020.698
61.432	13.038	1352.604	1019.748
62.447	12.964	1351.792	1018.586
63.461	12.925	1350.722	1017.450
64.476	12.918	1349.585	1016.457
65.490	13.027	1348.196	1015.991
66.505	13.052	1346.493	1014.772
67.520	13.020	1345.242	1013.546
68.534	13.104	1344.178	1013.167
69.549	13.188	1343.513	1013.091
70.563	13.067	1342.176	1011.252
71.578	13.002	1341.054	1009.918
72.593	13.021	1340.420	1009.473
73.607	12.967	1339.702	1008.508
74.622	12.908	1338.276	1006.990
75.636	12.913	1338.003	1006.726
76.651	13.066	1337.039	1006.839
77.666	12.906	1336.861	1005.644
78.680	13.052	1335.602	1005.498
79.695	13.049	1334.894	1004.860
80.709	13.043	1334.583	1004.498
81.724	13.062	1333.509	1003.717
82.739	13.091	1332.394	1002.961
83.753	13.046	1331.538	1001.960
84.768	13.152	1330.545	1001.763
85.782	13.206	1329.303	1001.069
86.797	13.120	1328.431	999.800
87.812	13.223	1326.549	998.919
88.826	13.149	1326.037	997.998
89.841	13.165	1324.548	996.885
90.855	13.189	1323.177	995.913
91.870	13.122	1322.507	994.914
92.884	13.264	1321.497	994.923
93.899	13.314	1320.801	994.609
94.914	13.324	1320.084	994.044
95.928	13.331	1319.243	993.366
96.943	13.230	1318.702	992.259
97.957	13.130	1317.853	990.933
98.972	13.236	1316.402	990.390
99.987	13.268	1315.371	989.720
101.001	13.251	1314.309	988.731
102.016	13.198	1313.650	987.831
103.030	13.144	1313.008	986.939
104.045	13.235	1311.860	986.532
105.060	13.135	1310.774	985.032
106.074	13.115	1309.383	983.783
107.089	13.125	1307.548	982.374
108.103	13.132	1306.811	981.777
109.118	13.016	1305.334	979.890
110.133	13.148	1303.693	979.353
111.147	13.053	1302.369	977.708
112.162	13.108	1301.537	977.325
113.176	13.161	1300.063	976.443
114.191	13.239	1299.029	976.042
115.206	13.147	1297.970	974.616
116.220	13.147	1296.484	973.413
117.235	13.185	1295.269	972.638
118.249	13.145	1294.489	971.730
119.264	13.126	1293.651	970.904
120.279	13.098	1292.451	969.756
121.293	13.036	1291.686	968.734
122.308	13.069	1290.276	967.780
123.322	13.043	1289.467	966.938
124.337	13.112	1288.459	966.501
125.352	13.106	1286.528	964.933
126.366	13.129	1285.933	964.534
127.381	13.066	1284.837	963.257
128.395	13.119	1283.544	962.513
129.410	13.149	1282.647	961.933
130.424	13.133	1281.973	961.246
131.439	13.125	1281.293	960.605
132.454	13.159	1280.224	959.917
133.468	13.256	1278.751	959.292
134.483	13.177	1278.306	958.411
135.497	13.189	1277.455	957.760
136.512	13.064	1276.219	956.021
137.527	13.064	1275.434	955.348
138.541	13.102	1273.701	954.190
139.556	13.194	1272.098	953.433
140.570	13.266	1271.084	953.003
141.585	13.197	1269.802	951.563
142.600	13.269	1268.233	950.715
143.614	13.261	1267.762	950.235
144.629	13.348	1266.636	949.801
145.643	13.280	1265.418	948.416
146.658	13.234	1264.251	947.196
147.673	13.296	1262.563	946.201
148.687	13.271	1261.579	945.239
149.702	13.173	1260.557	943.825
150.716	13.177	1259.237	942.777
151.731	13.198	1258.242	942.070
152.746	13.296	1256.682	941.374
153.760	13.262	1255.882	940.498
154.775	13.349	1254.548	939.913
155.789	13.407	1253.525	939.395
156.804	13.456	1252.007	938.448
157.819	13.424	1252.239	938.358
158.833	13.561	1250.610	937.833
159.848	13.528	1249.518	936.745
160.862	13.602	1248.581	936.373
161.877	13.450	1247.411	934.558
162.892	13.355	1246.695	933.402
163.906	13.330	1245.937	932.610
164.921	13.395	1245.124	932.285
165.935	13.461	1243.657	931.478
166.950	13.608	1242.816	931.590
167.964	13.570	1242.036	930.710
168.979	13.441	1241.724	929.667
169.994	13.433	1241.004	929.004
171.008	13.523	1240.521	929.064
172.023	13.501	1239.154	927.837
173.037	13.445	1238.732	927.124
174.052	13.552	1237.864	926.992
175.067	13.525	1236.487	925.725
176.081	13.581	1235.498	925.215
177.096	13.482	1234.677	923.970
178.110	13.521	1233.378	923.131
179.125	13.614	1232.312	922.769
180.140	13.559	1230.888	921.319
181.154	13.591	1229.624	920.466
182.169	13.621	1228.507	919.713
183.183	13.639	1227.441	918.937
184.198	13.652	1226.293	918.064
185.213	13.652	1224.758	916.837
186.227	13.676	1223.804	916.173
187.242	13.659	1223.065	915.448
188.256	13.756	1221.768	914.931
189.271	13.763	1221.093	914.381
190.286	13.789	1219.627	913.347
191.300	13.714	1218.917	912.320
192.315	13.621	1218.688	911.559
193.329	13.549	1218.204	910.717
194.344	13.633	1217.452	910.538
195.359	13.660	1216.726	910.062
196.373	13.745	1216.144	910.012
197.388	13.902	1215.094	910.007
198.402	13.801	1215.300	909.527
199.417	13.979	1213.934	909.397
200.432	13.974	1213.033	908.617
201.446	13.988	1212.318	908.077
202.461	13.951	1211.734	907.355
203.475	14.088	1209.996	906.722
204.490	13.949	1209.180	905.270
205.504	13.939	1208.178	904.388
206.519	14.058	1206.918	904.010
207.534	13.981	1205.759	902.648
208.548	13.967	1204.824	901.790
209.563	14.010	1203.992	901.318
210.577	14.007	1203.195	900.626
211.592	14.031	1202.509	900.164
212.607	14.078	1201.579	899.640
213.621	14.040	1200.787	898.766
214.636	14.008	1199.879	897.834
215.650	13.963	1198.942	896.810
216.665	14.161	1197.680	896.854
217.680	14.155	1196.917	896.170
218.694	14.179	1196.198	895.681
219.709	14.259	1195.033	895.159
220.723	14.127	1194.611	894.056
221.738	14.138	1193.719	893.365
222.753	14.197	1192.630	892.791
223.767	14.323	1192.073	892.971
224.782	14.314	1191.395	892.332
225.796	14.328	1190.737	891.840
226.811	14.321	1190.124	891.264
227.826	14.266	1189.494	890.419
228.840	14.307	1189.121	890.279
229.855	14.312	1187.994	889.386
230.869	14.366	1186.670	888.603
231.884	14.279	1186.341	887.813
232.899	14.330	1185.545	887.412
233.913	14.272	1185.120	886.702
234.928	14.300	1184.079	885.995
235.942	14.210	1184.099	885.455
236.957	14.408	1182.238	885.033
237.972	14.290	1181.750	883.968
238.986	14.308	1180.988	883.412
240.001	14.260	1181.038	883.118
241.015	14.308	1179.891	882.437
242.030	14.371	1178.930	881.973
243.045	14.319	1178.230	881.094
244.059	14.397	1176.955	880.477
245.074	14.490	1176.516	880.559
246.088	14.533	1175.479	879.933
247.103	14.571	1174.559	879.367
248.117	14.539	1174.089	878.768
249.132	14.577	1173.395	878.371
250.147	14.606	1172.750	877.966
251.161	14.670	1171.823	877.529
252.176	14.671	1171.172	876.972
253.190	14.828	1170.534	877.240
254.205	14.707	1170.288	876.343
255.220	14.654	1169.865	875.668
256.234	14.776	1168.736	875.388
257.249	14.905	1167.743	875.242
258.263	14.797	1167.402	874.343
259.278	14.897	1166.771	874.313
260.293	14.915	1165.973	873.734
261.307	14.907	1165.588	873.326
262.322	14.895	1164.865	872.643
263.336	14.918	1164.353	872.303
264.351	14.992	1163.617	872.063
265.366	14.993	1163.117	871.614
266.380	14.997	1162.194	870.865
267.395	14.999	1161.064	869.951
268.409	14.965	1160.386	869.193
269.424	14.998	1160.054	869.038
270.439	15.001	1159.078	868.246
271.453	15.094	1158.047	867.876
272.468	14.927	1157.702	866.679
273.482	14.998	1156.663	866.191
274.497	14.986	1156.444	865.884
275.512	15.045	1155.773	865.613
276.526	14.995	1154.976	864.683
277.541	15.094	1154.184	864.522
278.555	14.921	1154.092	863.486
279.570	15.013	1152.876	862.972
280.585	15.232	1151.850	863.255
281.599	15.233	1150.782	862.383
282.614	15.129	1149.871	861.088
283.628	15.184	1148.864	860.542
284.643	15.175	1148.305	860.001
285.657	15.152	1147.169	858.958
286.672	15.192	1146.409	858.517
287.687	15.327	1145.502	858.451
288.701	15.204	1144.417	856.933
289.716	15.235	1143.923	856.647
290.730	15.297	1143.365	856.472
291.745	15.147	1142.213	854.768
292.760	15.223	1142.013	854.930
293.774	15.396	1141.339	855.232
294.789	15.428	1140.661	854.809
295.803	15.414	1140.323	854.411
296.818	15.493	1139.000	853.746
297.833	15.382	1138.409	852.663
298.847	15.426	1137.688	852.272
299.862	15.434	1136.490	851.339
300.876	15.338	1136.544	850.818
301.891	15.435	1135.809	850.679
302.906	15.582	1134.864	850.643
303.920	15.433	1134.192	849.310
304.935	15.509	1133.767	849.300
305.949	15.513	1133.470	849.022
306.964	15.513	1132.740	848.402
307.979	15.614	1131.465	847.883
308.993	15.654	1130.572	847.341
310.008	15.726	1129.916	847.137
311.022	15.743	1129.248	846.644
312.037	15.652	1128.314	845.414
313.052	15.713	1127.502	845.036
314.066	15.656	1126.229	843.719
315.081	15.543	1125.560	842.576
316.095	15.615	1124.896	842.368
317.110	15.616	1124.342	841.884
318.125	15.578	1123.818	841.227
319.139	15.612	1122.893	840.627
320.154	15.727	1121.852	840.348
321.168	15.749	1121.128	839.841
322.183	15.717	1120.236	838.941
323.197	15.822	1119.860	839.110
324.212	15.639	1119.765	838.050
325.227	15.666	1119.384	837.826
326.241	15.726	1118.470	837.366
327.256	15.814	1117.433	836.954
328.270	15.722	1116.174	835.479
329.285	15.783	1115.215	834.993
330.300	15.827	1114.462	834.572
331.314	15.900	1113.399	834.064
332.329	15.760	1113.011	833.004
333.343	15.879	1111.539	832.416
334.358	15.662	1111.666	831.365
335.373	15.870	1110.703	831.599
336.387	15.941	1109.505	830.982
337.402	15.978	1108.903	830.639
338.416	16.017	1108.340	830.338
339.431	15.979	1107.416	829.383
340.446	16.137	1106.706	829.552
341.460	15.995	1106.219	828.418
342.475	15.992	1105.456	827.760
343.489	16.106	1104.364	827.428
344.504	16.177	1103.565	827.103
345.519	16.142	1103.091	826.504
346.533	16.137	1101.960	825.559
347.548	16.091	1101.635	825.016
348.562	16.194	1100.593	824.668
349.577	16.111	1100.226	823.914
350.592	16.203	1098.991	823.366
351.606	16.126	1098.114	822.262
352.621	16.047	1097.593	821.409
353.635	16.104	1097.123	821.265
354.650	16.163	1096.332	820.888
355.665	16.151	1095.534	820.156
356.679	16.076	1095.229	819.493
357.694	16.258	1094.350	819.645
358.708	16.244	1093.961	819.215
359.723	16.244	1093.096	818.496
360.738	16.273	1092.598	818.192
361.752	16.307	1092.222	818.001
362.767	16.344	1091.720	817.731
363.781	16.306	1090.823	816.805
364.796	16.295	1090.352	816.325
365.810	16.401	1089.804	816.356
366.825	16.437	1089.013	815.863
367.840	16.454	1088.679	815.625
368.854	16.458	1087.876	814.969
369.869	16.490	1087.069	814.447
370.883	16.502	1086.056	813.671
371.898	16.407	1085.606	812.809
372.913	16.476	1085.032	812.639
373.927	16.444	1084.411	811.945
374.942	16.590	1083.842	812.148
375.956	16.536	1083.210	811.347
376.971	16.588	1082.340	810.872
377.986	16.520	1082.202	810.372
379.000	16.619	1081.656	810.364
380.015	16.719	1080.469	809.883
381.029	16.827	1080.120	810.066
382.044	16.833	1079.227	809.351
383.059	16.717	1078.580	808.240
384.073	16.803	1078.024	808.165
385.088	16.740	1076.894	806.945
386.102	16.721	1076.245	806.295
387.117	16.705	1075.335	805.467
388.132	16.786	1074.226	804.952
389.146	16.855	1073.368	804.561
390.161	16.840	1072.385	803.686
391.175	16.631	1071.772	802.163
392.190	16.785	1071.356	802.511
393.205	16.903	1070.688	802.495
394.219	16.838	1069.410	801.160
395.234	16.888	1068.647	800.756
396.248	16.898	1067.683	800.010
397.263	16.755	1067.138	798.855
398.278	16.870	1066.319	798.714
399.292	16.797	1065.707	797.842
400.307	16.756	1065.255	797.241
401.321	16.835	1064.441	796.932
402.336	16.845	1063.506	796.209
403.350	16.864	1062.614	795.558
404.365	16.873	1062.647	795.556
405.380	16.987	1061.543	795.192
406.394	17.033	1060.619	794.644
407.409	16.947	1060.090	793.775
408.423	17.064	1058.781	793.274
409.438	17.139	1058.290	793.185
410.453	16.993	1058.141	792.320
411.467	17.114	1057.282	792.172
412.482	17.140	1056.595	791.709
413.496	17.140	1055.619	790.904
414.511	17.150	1055.088	790.485
415.526	17.203	1054.685	790.361
416.540	17.303	1054.237	790.419
417.555	17.267	1054.005	790.009
418.569	17.168	1053.136	788.828
419.584	17.335	1052.555	789.095
420.599	17.239	1052.105	788.246
421.613	104.831	1327.990	1478.211
422.628	96.484	1368.138	1478.282
