DTS Sentinel unit serial number:	SN413079Multiplexer serial number:	ORYXHardware model number:	OX4-SRSoftware version number:	ORYX F/W v4.00 Oryx Data Collector v3.7.2.0data status	okinstallation	princeton_trtdifferential loss correction	single-endedforward channel	channel 2reverse channel	N/Adate	2019/09/18time	18:59:35forward acquisition time	60.00reverse acquisition time	0.00gamma	496.2192k internal	0.2322k external	0.2322temperature offset calibration	1.0024default loss term (dB/km)	0.3790temperature slope calibration	1.0000multiplexer offset coefficient	1.0000multiplexer slope coefficient	1.0000fibre end	0.00T internal ref (°C)	36.12T ext. ref 1 (°C)	0.94T ext. ref 2 (°C)	25.27length (m)	temperature (°C)	Stokes	anti-Stokes-747.200	-47.381	-0.207	0.102
-746.185	-148.300	-0.317	-0.026
-745.171	184.627	-0.245	0.367
-744.156	-200.000	0.020	0.324
-743.142	600.463	0.043	-0.108
-742.127	65.235	0.032	0.032
-741.112	173.429	-0.108	-0.158
-740.098	-200.000	-0.040	-0.257
-739.083	800.000	-0.080	0.277
-738.069	-101.137	0.149	0.037
-737.054	764.978	0.081	-0.222
-736.039	-33.404	-0.126	-0.070
-735.025	-119.090	-0.195	0.034
-734.010	129.947	0.092	0.119
-732.996	156.629	0.046	-0.064
-731.981	-58.481	-0.277	-0.121
-730.966	4.141	-0.204	0.151
-729.952	0.958	0.360	-0.261
-728.937	800.000	0.108	-0.428
-727.923	3.728	0.320	-0.236
-726.908	-170.979	-0.428	-0.015
-725.894	-200.000	-0.028	-0.159
-724.879	-21.694	0.460	-0.283
-723.864	14.237	-0.134	0.106
-722.850	-200.000	-0.087	0.386
-721.835	-200.000	-0.023	-0.254
-720.821	-32.448	0.192	-0.108
-719.806	-200.000	0.014	0.151
-718.791	282.272	0.032	-0.059
-717.777	-200.000	-0.049	0.349
-716.762	144.550	-0.069	-0.093
-715.748	-200.000	-0.002	-0.187
-714.733	-14.399	0.416	0.270
-713.718	-174.628	-0.156	0.004
-712.704	800.000	0.061	0.194
-711.689	112.467	-0.129	-0.158
-710.675	-142.813	-0.028	0.003
-709.660	-33.034	-0.233	0.131
-708.645	102.595	-0.178	-0.210
-707.631	672.754	0.185	-0.485
-706.616	24.465	0.220	-0.184
-705.602	800.000	-0.105	-0.316
-704.587	90.465	0.143	0.162
-703.572	-200.000	0.053	0.339
-702.558	-200.000	-0.016	0.271
-701.543	118.234	-0.092	-0.115
-700.529	800.000	0.111	0.407
-699.514	-189.472	-0.112	-0.001
-698.499	-49.852	0.156	0.075
-697.485	-138.548	0.268	0.030
-696.470	-38.997	0.204	-0.108
-695.456	-83.567	-0.251	0.081
-694.441	-62.222	-0.149	-0.063
-693.426	48.300	0.047	-0.044
-692.412	-200.000	-0.014	-0.278
-691.397	-200.000	0.017	0.183
-690.383	800.000	0.051	0.223
-689.368	-111.244	-0.126	-0.026
-688.354	-37.640	0.031	0.017
-687.339	355.903	-0.087	-0.175
-686.324	-94.525	-0.311	0.085
-685.310	62.497	-0.101	0.101
-684.295	-84.815	-0.216	-0.069
-683.281	-200.000	-0.032	-0.250
-682.266	86.402	-0.217	-0.241
-681.251	553.003	-0.148	-0.359
-680.237	-126.952	0.262	0.039
-679.222	-81.928	-0.185	0.061
-678.208	-81.055	-0.378	0.126
-677.193	16.896	-0.270	-0.215
-676.178	-99.967	-0.197	0.050
-675.164	-200.000	0.020	0.234
-674.149	658.435	0.164	-0.426
-673.135	-59.141	-0.167	-0.073
-672.120	-200.000	-0.006	-0.270
-671.105	-27.213	0.057	0.033
-670.091	-25.251	-0.181	0.108
-669.076	188.773	0.173	0.260
-668.062	-164.211	-0.239	0.011
-667.047	-128.886	0.091	-0.013
-666.032	356.432	-0.184	-0.369
-665.018	-200.000	-0.024	-0.240
-664.003	335.794	-0.046	0.090
-662.989	81.797	0.173	-0.189
-661.974	5.820	-0.128	0.096
-660.959	-27.099	-0.171	0.100
-659.945	43.992	0.108	0.100
-658.930	-55.367	0.091	-0.041
-657.916	800.000	0.028	0.103
-656.901	-200.000	0.056	-0.450
-655.886	471.194	0.024	-0.054
-654.872	-200.000	0.073	0.325
-653.857	-200.000	-0.009	0.208
-652.843	-96.826	0.249	0.066
-651.828	231.370	-0.146	-0.241
-650.814	71.121	-0.100	-0.105
-649.799	800.000	0.053	-0.184
-648.784	-125.901	-0.299	0.045
-647.770	485.187	0.048	-0.110
-646.755	99.701	-0.177	0.207
-645.741	374.595	0.141	-0.289
-644.726	510.236	0.057	0.135
-643.711	-73.431	-0.100	0.037
-642.697	-185.727	-0.070	0.001
-641.682	-124.637	-0.083	-0.013
-640.668	-139.557	0.449	-0.048
-639.653	-200.000	0.028	-0.339
-638.638	109.266	-0.102	-0.123
-637.624	-83.957	-0.098	-0.031
-636.609	-95.339	0.027	-0.007
-635.595	84.303	0.188	0.207
-634.580	-93.395	-0.083	0.023
-633.565	-141.022	-0.141	-0.015
-632.551	392.043	-0.081	0.169
-631.536	-75.763	-0.239	0.085
-630.522	-40.649	0.154	0.080
-629.507	-200.000	0.044	0.228
-628.492	29.308	-0.033	0.028
-627.478	-40.153	0.254	0.133
-626.463	-90.186	0.266	-0.078
-625.449	105.888	0.074	-0.089
-624.434	800.000	-0.028	-0.102
-623.419	-200.000	0.032	0.191
-622.405	547.938	0.109	-0.263
-621.390	307.263	-0.099	-0.185
-620.376	-129.092	-0.192	-0.027
-619.361	1.320	0.388	-0.281
-618.346	267.122	-0.049	0.086
-617.332	272.676	-0.146	0.259
-616.317	545.045	-0.187	-0.448
-615.303	402.446	-0.008	-0.017
-614.288	229.283	-0.155	-0.254
-613.273	10.998	-0.323	-0.248
-612.259	47.267	-0.306	0.287
-611.244	-200.000	-0.007	-0.103
-610.230	-100.856	-0.156	0.038
-609.215	84.309	0.139	0.153
-608.201	-200.000	-0.045	0.215
-607.186	18.608	-0.311	-0.250
-606.171	40.466	0.074	-0.067
-605.157	-103.169	-0.306	-0.073
-604.142	-18.511	-0.069	0.043
-603.128	170.677	-0.223	0.321
-602.113	-200.000	0.028	0.152
-601.098	-123.471	0.046	-0.007
-600.084	339.038	-0.117	-0.229
-599.069	-200.000	-0.002	-0.170
-598.055	571.108	-0.132	-0.323
-597.040	4.495	-0.274	-0.202
-596.025	93.218	-0.131	-0.149
-595.011	-76.917	0.230	0.081
-593.996	800.000	-0.078	0.218
-592.982	16.044	-0.059	0.047
-591.967	-31.338	-0.151	0.085
-590.952	209.007	-0.134	-0.210
-589.938	-150.316	0.013	-0.001
-588.923	-117.038	-0.053	-0.010
-587.909	-200.000	0.049	0.333
-586.894	10.204	0.140	-0.107
-585.879	180.739	0.058	-0.085
-584.865	800.000	0.082	0.298
-583.850	-29.729	-0.231	0.132
-582.836	-8.948	0.050	-0.034
-581.821	22.872	-0.214	-0.176
-580.806	102.361	0.119	-0.140
-579.792	-79.777	-0.301	0.102
-578.777	-175.581	0.187	-0.005
-577.763	-200.000	-0.021	0.300
-576.748	-51.205	-0.257	0.121
-575.733	-44.731	-0.192	-0.096
-574.719	-124.383	-0.089	-0.014
-573.704	240.235	-0.096	-0.160
-572.690	118.150	0.218	0.270
-571.675	-200.000	-0.010	0.224
-570.661	-147.637	0.304	0.026
-569.646	99.488	-0.208	-0.241
-568.631	-2.830	-0.225	-0.158
-567.617	50.641	-0.218	0.207
-566.602	461.719	-0.126	-0.281
-565.588	760.667	0.108	-0.294
-564.573	-200.000	-0.011	-0.057
-563.558	-87.477	0.187	0.057
-562.544	-89.249	0.327	-0.097
-561.529	-8.288	0.168	-0.113
-560.515	800.000	0.060	0.176
-559.500	-91.491	-0.245	-0.070
-558.485	800.000	-0.117	-0.425
-557.471	114.233	0.198	-0.241
-556.456	-200.000	-0.016	0.110
-555.442	137.908	0.041	0.054
-554.427	46.573	-0.058	0.054
-553.412	699.308	-0.129	-0.341
-552.398	-50.481	-0.131	0.062
-551.383	-200.000	0.095	0.422
-550.369	-200.000	0.019	-0.211
-549.354	-114.415	-0.211	-0.041
-548.339	261.630	0.154	-0.268
-547.325	-133.732	0.264	-0.033
-546.310	356.300	0.146	0.291
-545.296	253.382	-0.054	0.093
-544.281	151.880	-0.039	-0.054
-543.266	-78.008	0.245	0.085
-542.252	323.459	0.146	0.280
-541.237	-73.320	0.183	-0.067
-540.223	110.064	-0.125	0.150
-539.208	800.000	-0.024	0.083
-538.193	21.864	-0.180	0.147
-537.179	800.000	0.118	-0.336
-536.164	-149.895	-0.247	-0.019
-535.150	-7.511	-0.134	-0.091
-534.135	151.013	0.060	0.081
-533.121	-114.666	0.143	0.027
-532.106	-26.468	-0.258	0.151
-531.091	-166.110	-0.109	0.005
-530.077	126.542	0.254	-0.323
-529.062	88.348	0.090	0.101
-528.048	-200.000	-0.017	0.132
-527.033	-113.758	0.148	-0.029
-526.018	-37.838	-0.087	-0.046
-525.004	27.115	-0.285	0.240
-523.989	-70.206	-0.159	-0.060
-522.975	412.609	-0.054	-0.116
-521.960	-71.281	-0.176	0.066
-520.945	-192.322	0.237	0.002
-519.931	-200.000	0.008	-0.133
-518.916	-84.703	-0.260	0.082
-517.902	-44.358	0.171	-0.086
-516.887	-5.458	0.097	-0.066
-515.872	627.162	0.049	0.125
-514.858	-23.419	-0.268	0.161
-513.843	1.440	0.217	0.156
-512.829	120.166	-0.248	0.308
-511.814	75.952	-0.033	-0.035
-510.799	247.229	0.049	0.083
-509.785	-40.665	0.069	0.036
-508.770	-200.000	-0.039	-0.262
-507.756	800.000	0.107	0.383
-506.741	-200.000	0.022	0.261
-505.726	57.690	-0.159	-0.155
-504.712	491.485	0.037	0.084
-503.697	-152.254	0.351	-0.025
-502.683	800.000	0.070	0.207
-501.668	371.359	0.012	-0.023
-500.653	393.521	0.043	0.089
-499.639	-147.481	-0.244	-0.021
-498.624	31.763	-0.137	0.118
-497.610	72.502	0.147	0.153
-496.595	5.391	0.190	-0.140
-495.581	-131.019	0.411	0.055
-494.566	-200.000	0.014	0.532
-493.551	-69.673	-0.458	0.175
-492.537	-200.000	0.009	0.122
-491.522	-50.601	0.108	-0.051
-490.508	83.531	-0.155	-0.169
-489.493	69.328	0.129	-0.132
-488.478	-200.000	0.018	0.119
-487.464	-200.000	0.044	-0.231
-486.449	647.975	0.033	-0.086
-485.435	-25.903	0.149	-0.088
-484.420	-102.859	-0.024	0.006
-483.405	-200.000	0.011	-0.173
-482.391	-200.000	-0.033	-0.209
-481.376	-200.000	-0.002	-0.117
-480.362	-5.789	-0.297	0.203
-479.347	-147.488	-0.210	0.018
-478.332	-159.583	-0.161	0.009
-477.318	-71.603	-0.088	0.033
-476.303	-0.831	0.066	-0.047
-475.289	370.633	-0.068	-0.137
-474.274	186.042	0.083	-0.123
-473.259	-119.576	0.184	0.032
-472.245	-114.065	0.116	-0.023
-471.230	-200.000	-0.013	-0.350
-470.216	485.246	-0.038	-0.086
-469.201	-13.410	-0.156	-0.101
-468.186	-87.865	0.274	-0.082
-467.172	358.593	-0.178	0.356
-466.157	-200.000	0.019	0.138
-465.143	36.238	0.190	0.168
-464.128	237.918	-0.079	-0.130
-463.113	26.311	-0.034	0.029
-462.099	800.000	-0.049	0.159
-461.084	-14.679	0.287	0.184
-460.070	-78.369	-0.075	-0.026
-459.055	488.984	0.089	-0.203
-458.040	18.018	0.206	0.164
-457.026	0.129	0.132	-0.094
-456.011	-200.000	0.013	-0.193
-454.997	132.145	0.226	-0.291
-453.982	-42.357	-0.207	-0.106
-452.968	-162.046	0.162	0.008
-451.953	800.000	-0.058	-0.170
-450.938	-114.140	-0.117	0.023
-449.924	64.710	-0.314	0.316
-448.909	-41.505	-0.105	-0.054
-447.895	-23.421	-0.168	0.101
-446.880	-76.934	0.244	-0.085
-445.865	490.954	-0.031	-0.071
-444.851	-200.000	-0.028	-0.206
-443.836	107.062	0.179	-0.213
-442.822	-7.291	-0.122	-0.083
-441.807	385.299	-0.111	-0.228
-440.792	-200.000	-0.019	0.320
-439.778	432.075	0.115	0.248
-438.763	14.798	0.224	0.175
-437.749	-138.714	-0.211	-0.023
-436.734	-96.217	0.287	0.076
-435.719	22.234	-0.072	0.059
-434.705	-151.746	-0.234	0.017
-433.690	520.420	0.149	-0.349
-432.676	-46.210	0.412	-0.202
-431.661	676.179	-0.085	-0.221
-430.646	3.640	0.177	-0.129
-429.632	346.608	0.053	0.104
-428.617	-200.000	0.000	0.288
-427.603	301.231	-0.142	-0.261
-426.588	800.000	0.068	-0.290
-425.573	-26.650	0.028	0.016
-424.559	-27.818	-0.114	-0.066
-423.544	-84.279	0.142	-0.045
-422.530	-50.067	-0.135	0.064
-421.515	153.890	0.181	-0.247
-420.500	-200.000	-0.034	-0.256
-419.486	408.767	0.076	-0.160
-418.471	-132.503	0.129	0.017
-417.457	800.000	0.015	0.050
-416.442	50.612	-0.073	-0.069
-415.428	446.179	0.107	0.235
-414.413	-60.469	-0.335	0.142
-413.398	-83.369	0.304	-0.097
-412.384	227.329	-0.097	-0.158
-411.369	671.345	-0.086	-0.221
-410.355	210.689	0.089	-0.139
-409.340	-67.209	0.154	0.061
-408.325	-29.681	0.088	0.050
-407.311	357.201	0.177	0.353
-406.296	-42.438	-0.101	0.051
-405.282	-16.269	-0.176	-0.112
-404.267	-178.430	0.011	0.000
-403.252	-200.000	-0.033	-0.224
-402.238	546.491	0.132	0.315
-401.223	-112.619	-0.362	-0.072
-400.209	181.428	-0.082	0.121
-399.194	353.991	-0.021	-0.042
-398.179	-200.000	-0.029	0.196
-397.165	84.316	-0.127	0.138
-396.150	800.000	0.018	-0.063
-395.136	-42.109	0.092	-0.047
-394.121	34.870	-0.159	0.139
-393.106	800.000	-0.157	-0.586
-392.092	-200.000	-0.038	0.188
-391.077	39.587	-0.271	0.242
-390.063	33.146	-0.073	-0.063
-389.048	-77.459	0.310	-0.107
-388.033	155.256	0.263	0.361
-387.019	329.465	-0.153	0.293
-386.004	-122.454	-0.206	-0.033
-384.990	-200.000	0.073	-0.377
-383.975	-116.971	-0.107	-0.019
-382.960	334.112	0.107	-0.207
-381.946	-141.684	-0.223	-0.022
-380.931	-200.000	-0.012	0.100
-379.917	28.143	0.040	-0.033
-378.902	-25.544	0.230	-0.135
-377.888	-200.000	-0.016	0.356
-376.873	-31.637	0.068	-0.038
-375.858	800.000	0.039	0.160
-374.844	298.605	0.088	-0.160
-373.829	38.107	-0.131	-0.116
-372.815	-156.745	0.300	0.018
-371.800	-90.610	-0.191	0.055
-370.785	-134.060	-0.252	-0.031
-369.771	65.149	0.211	0.212
-368.756	-42.711	-0.096	-0.049
-367.742	-46.050	-0.107	0.052
-366.727	313.829	-0.088	0.165
-365.712	-103.535	0.113	-0.026
-364.698	-198.913	0.295	-0.002
-363.683	-146.621	0.182	-0.016
-362.669	-142.577	0.644	0.063
-361.654	9.286	0.232	-0.175
-360.639	-29.203	0.246	0.141
-359.625	-179.190	0.132	0.003
-358.610	18.709	0.146	0.116
-357.596	74.113	-0.189	0.197
-356.581	241.415	0.258	-0.429
-355.566	116.151	0.099	-0.121
-354.552	35.572	0.152	0.133
-353.537	-34.919	-0.151	0.082
-352.523	247.530	-0.117	0.196
-351.508	204.505	-0.076	-0.116
-350.493	5.911	0.110	0.081
-349.479	-93.656	-0.200	0.055
-348.464	137.883	-0.114	-0.148
-347.450	-58.942	0.436	0.187
-346.435	-143.134	-0.314	0.030
-345.420	800.000	-0.058	0.206
-344.406	-102.097	0.188	0.045
-343.391	239.076	-0.031	0.052
-342.377	116.143	0.157	-0.192
-341.362	-139.660	0.095	0.010
-340.348	-23.740	0.197	-0.118
-339.333	-76.636	0.081	0.028
-338.318	253.521	-0.144	-0.244
-337.304	4.741	-0.082	-0.060
-336.289	294.526	-0.068	-0.124
-335.275	147.291	0.179	-0.239
-334.260	128.485	0.149	-0.189
-333.245	-27.079	0.316	0.183
-332.231	74.952	0.317	0.332
-331.216	150.255	0.214	0.288
-330.202	800.000	0.027	-0.119
-329.187	-32.551	-0.460	-0.255
-328.172	355.282	0.107	-0.211
-327.158	-200.000	0.016	0.171
-326.143	49.782	0.627	0.588
-325.129	11.347	0.054	-0.041
-324.114	186.927	0.049	0.072
-323.099	71.396	-0.225	0.232
-322.085	-79.628	-0.217	-0.073
-321.070	-30.576	0.150	-0.085
-320.056	-158.669	0.418	-0.024
-319.041	-200.000	-0.006	-0.206
-318.026	91.837	0.125	0.140
-317.012	-196.055	0.123	0.001
-315.997	-61.940	-0.036	-0.015
-314.983	-168.215	0.325	-0.012
-313.968	112.893	-0.159	-0.191
-312.953	153.443	0.204	0.278
-311.939	21.204	-0.200	-0.161
-310.924	-33.955	-0.129	0.071
-309.910	-200.000	0.003	-0.012
-308.895	-43.859	-0.221	-0.111
-307.880	6.854	0.183	0.135
-306.866	294.829	0.016	-0.029
-305.851	-8.960	0.122	0.081
-304.837	24.999	0.462	0.381
-303.822	195.073	-0.101	-0.152
-302.807	61.810	-0.375	-0.371
-301.793	-141.480	-0.112	-0.011
-300.778	-49.455	0.254	0.120
-299.764	800.000	0.107	-0.302
-298.749	-178.205	0.081	0.002
-297.735	100.751	0.024	0.027
-296.720	-46.684	-0.359	0.175
-295.705	3.974	0.111	0.080
-294.691	245.649	-0.209	-0.349
-293.676	-8.374	0.129	-0.086
-292.662	-55.808	0.077	-0.034
-291.647	-32.884	0.194	-0.107
-290.632	-183.562	0.119	0.002
-289.618	-200.000	-0.088	0.460
-288.603	355.620	0.215	0.425
-287.589	448.244	0.106	-0.232
-286.574	270.430	-0.188	0.329
-285.559	800.000	-0.045	0.163
-284.545	146.954	-0.162	-0.216
-283.530	-52.878	-0.281	0.128
-282.516	-200.000	0.001	0.187
-281.501	800.000	0.023	-0.093
-280.486	800.000	0.041	-0.131
-279.472	-200.000	0.022	-0.149
-278.457	-166.973	-0.259	0.010
-277.443	-36.978	-0.438	0.233
-276.428	345.752	-0.048	0.094
-275.413	-200.000	0.001	-0.192
-274.399	-200.000	-0.062	0.271
-273.384	-69.852	-0.160	0.061
-272.370	59.072	-0.208	-0.203
-271.355	-85.605	-0.165	-0.051
-270.340	-31.468	0.204	-0.114
-269.326	-58.639	0.242	0.104
-268.311	-33.999	-0.238	-0.130
-267.297	16.882	-0.149	0.117
-266.282	573.458	0.129	-0.312
-265.267	-52.853	-0.040	0.018
-264.253	-107.654	0.139	0.030
-263.238	509.948	0.040	-0.092
-262.224	-81.858	-0.149	-0.048
-261.209	-200.000	-0.004	-0.180
-260.195	-84.551	0.236	-0.074
-259.180	-23.621	-0.139	0.083
-258.165	-28.562	-0.304	-0.174
-257.151	-130.886	0.133	0.018
-256.136	-88.353	0.413	0.122
-255.122	22.173	0.279	0.226
-254.107	-0.390	-0.208	-0.146
-253.092	121.403	0.179	0.221
-252.078	-3.575	0.201	0.139
-251.063	-200.000	0.265	0.001
-250.049	-199.773	0.259	0.001
-249.034	-103.803	0.139	-0.032
-248.019	800.000	0.073	0.263
-247.005	-200.000	0.023	0.256
-245.990	800.000	-0.022	-0.067
-244.976	163.923	0.074	-0.103
-243.961	-134.755	0.337	0.041
-242.946	-66.123	0.294	0.116
-241.932	424.946	-0.094	-0.201
-240.917	800.000	-0.034	-0.139
-239.903	-84.372	-0.118	0.037
-238.888	-200.000	0.006	0.104
-237.873	-28.401	0.152	-0.087
-236.859	-51.357	-0.345	0.160
-235.844	251.192	-0.130	-0.218
-234.830	-128.917	-0.233	0.032
-233.815	-110.662	-0.152	-0.031
-232.800	800.000	0.063	0.188
-231.786	-20.260	-0.280	0.171
-230.771	725.728	-0.010	-0.028
-229.757	-158.472	0.245	0.014
-228.742	-128.639	-0.407	0.057
-227.727	-200.000	-0.013	-0.160
-226.713	-200.000	-0.049	0.238
-225.698	-200.000	-0.027	0.118
-224.684	-156.005	-0.352	-0.022
-223.669	-74.941	-0.192	0.068
-222.655	-95.503	0.394	-0.105
-221.640	-133.341	-0.112	0.014
-220.625	733.248	-0.063	0.167
-219.611	614.985	0.106	0.263
-218.596	-200.000	0.298	0.001
-217.582	-45.333	-0.180	-0.088
-216.567	123.632	-0.038	-0.047
-215.552	158.652	0.123	0.169
-214.538	-62.072	0.009	-0.004
-213.523	114.883	-0.182	0.220
-212.509	113.718	-0.296	0.356
-211.494	7.334	0.274	-0.203
-210.479	30.049	0.185	-0.156
-209.465	-200.000	-0.036	0.273
-208.450	-108.760	0.212	-0.045
-207.436	-195.943	-0.355	0.002
-206.421	800.000	-0.090	0.249
-205.406	800.000	-0.026	-0.102
-204.392	800.000	-0.060	-0.175
-203.377	800.000	-0.119	0.479
-202.363	-200.000	-0.000	-0.154
-201.348	-37.285	0.165	-0.087
-200.333	87.684	-0.029	-0.031
-199.319	483.605	0.123	-0.276
-198.304	-60.832	0.165	0.069
-197.290	29.381	0.102	0.086
-196.275	-200.000	-0.012	0.246
-195.260	294.124	0.103	-0.187
-194.246	496.083	-0.144	-0.328
-193.231	-50.179	-0.550	-0.257
-192.217	-66.019	0.070	0.028
-191.202	628.617	-0.150	-0.376
-190.187	-152.599	0.193	-0.014
-189.173	-25.568	-0.142	-0.083
-188.158	-42.433	-0.202	-0.102
-187.144	-87.084	0.247	-0.074
-186.129	465.374	0.040	0.088
-185.114	710.808	0.033	-0.085
-184.100	-108.775	-0.292	-0.062
-183.085	510.565	-0.052	-0.119
-182.071	-200.000	-0.007	-0.167
-181.056	-200.000	-0.018	0.308
-180.042	-174.287	-0.336	-0.010
-179.027	800.000	-0.063	0.197
-178.012	82.983	-0.217	-0.233
-176.998	391.215	-0.104	-0.214
-175.983	94.240	0.089	0.099
-174.969	-188.029	0.283	-0.004
-173.954	800.000	0.020	0.067
-172.939	359.430	-0.221	0.436
-171.925	-200.000	-0.006	0.047
-170.910	-80.355	-0.169	-0.056
-169.896	300.596	0.171	0.311
-168.881	-200.000	0.029	0.152
-167.866	16.785	-0.172	-0.134
-166.852	-200.000	0.004	0.287
-165.837	-200.000	0.023	0.235
-164.823	-81.207	-0.348	-0.114
-163.808	428.812	0.135	0.288
-162.793	-94.169	0.134	0.036
-161.779	-200.000	-0.013	0.284
-160.764	-200.000	0.075	-0.352
-159.750	-200.000	-0.018	-0.240
-158.735	115.344	0.075	-0.091
-157.720	-65.823	-0.033	-0.013
-156.706	209.113	0.193	-0.298
-155.691	87.648	0.231	-0.252
-154.677	-93.227	-0.271	-0.074
-153.662	6.200	-0.142	0.104
-152.647	-45.542	-0.124	-0.061
-151.633	50.179	0.137	-0.128
-150.618	27.938	0.225	-0.187
-149.604	44.178	0.522	-0.472
-148.589	-102.334	0.126	-0.030
-147.574	-52.443	0.211	0.096
-146.560	387.527	0.093	-0.190
-145.545	39.782	-0.368	-0.326
-144.531	-162.801	0.336	-0.016
-143.516	59.027	-0.103	0.100
-142.502	-74.355	0.197	0.070
-141.487	24.912	-0.198	0.162
-140.472	-61.006	0.157	-0.066
-139.458	44.544	-0.171	-0.155
-138.443	800.000	-0.049	0.163
-137.429	112.861	-0.076	-0.091
-136.414	85.948	-0.118	0.128
-135.399	-29.339	-0.280	0.158
-134.385	-200.000	0.029	0.190
-133.370	-138.457	-0.254	0.028
-132.356	73.601	0.107	0.110
-131.341	13.298	-0.248	-0.189
-130.326	43.245	-0.132	0.119
-129.312	-9.708	-0.254	0.167
-128.297	260.102	0.062	0.105
-127.283	-63.426	-0.192	0.078
-126.268	-88.979	0.221	-0.064
-125.253	-131.050	0.137	-0.018
-124.239	184.797	-0.040	0.059
-123.224	126.200	-0.170	-0.212
-122.210	-14.839	-0.167	0.106
-121.195	206.729	-0.061	-0.093
-120.180	195.924	0.143	-0.214
-119.166	149.344	-0.178	0.238
-118.151	-141.802	0.068	-0.007
-117.137	129.375	-0.187	0.236
-116.122	-200.000	-0.019	-0.294
-115.107	16.169	-0.230	0.179
-114.093	-200.000	0.006	0.050
-113.078	90.402	0.068	0.076
-112.064	131.470	-0.187	0.236
-111.049	64.560	-0.052	0.051
-110.034	-130.243	0.363	0.049
-109.020	485.422	0.056	0.126
-108.005	95.900	-0.058	-0.065
-106.991	-150.624	0.140	0.011
-105.976	-200.000	0.003	0.195
-104.962	-200.000	-0.011	0.252
-103.947	660.417	0.143	0.364
-102.932	-200.000	0.003	-0.186
-101.918	-108.479	0.121	-0.026
-100.903	238.621	-0.049	0.081
-99.889	-162.746	-0.165	0.008
-98.874	-200.000	0.070	0.000
-97.859	510.795	0.053	0.121
-96.845	418.482	0.104	-0.220
-95.830	96.139	-0.139	0.156
-94.816	154.021	-0.151	-0.204
-93.801	-200.000	-0.056	-0.327
-92.786	-146.322	-0.046	-0.004
-91.772	-200.000	-0.007	0.137
-90.757	331.566	-0.065	-0.123
-89.743	471.177	0.118	0.261
-88.728	145.523	0.095	-0.125
-87.713	-123.279	0.254	0.040
-86.699	-147.971	0.141	-0.012
-85.684	46.191	0.198	0.180
-84.670	-111.928	-0.196	0.039
-83.655	-200.000	0.035	0.247
-82.640	-200.000	-0.046	0.277
-81.626	407.527	-0.073	0.152
-80.611	448.330	0.152	-0.330
-79.597	521.764	-0.142	0.329
-78.582	-152.457	0.051	0.004
-77.567	800.000	-0.063	-0.226
-76.553	105.928	0.184	0.215
-75.538	800.000	-0.015	0.055
-74.524	-111.553	0.089	0.018
-73.509	133.749	0.126	-0.160
-72.494	213.840	-0.150	-0.234
-71.480	-40.758	-0.271	-0.138
-70.465	0.888	0.165	0.116
-69.451	-117.833	0.267	0.047
-68.436	-64.613	0.032	-0.013
-67.422	759.805	0.062	0.165
-66.407	-2.415	-0.209	0.144
-65.392	-200.000	-0.035	0.618
-64.378	-200.000	0.041	-0.194
-63.363	-118.492	0.146	0.025
-62.349	93.394	0.149	0.166
-61.334	110.304	-0.874	-1.033
-60.319	240.319	0.164	0.269
-59.305	800.000	-0.201	-0.772
-58.290	452.272	0.406	0.882
-57.276	-200.000	0.282	1.537
-56.261	-200.000	96.299	566.261
-55.246	545.611	1390.468	3268.267
-54.232	152.303	2598.328	3487.477
-53.217	109.254	2311.727	2720.910
-52.203	45.881	1928.405	1753.931
-51.188	39.529	1716.091	1512.217
-50.173	36.636	1671.603	1451.288
-49.159	53.092	1718.401	1617.399
-48.144	56.687	1736.955	1662.132
-47.130	39.082	1694.117	1489.234
-46.115	36.217	1679.082	1454.389
-45.100	36.045	1674.149	1448.767
-44.086	36.079	1671.176	1446.393
-43.071	36.029	1668.389	1443.551
-42.057	35.943	1665.883	1440.680
-41.042	36.006	1663.642	1439.157
-40.027	36.054	1661.751	1437.822
-39.013	35.979	1659.992	1435.681
-37.998	36.010	1658.392	1434.470
-36.984	36.029	1656.651	1433.051
-35.969	36.155	1655.342	1432.798
-34.954	36.201	1653.849	1431.794
-33.940	36.118	1652.113	1429.619
-32.925	36.190	1650.208	1428.447
-31.911	36.129	1648.669	1426.603
-30.896	36.103	1646.820	1424.752
-29.881	36.089	1644.920	1422.953
-28.867	36.191	1643.531	1422.444
-27.852	36.097	1642.045	1420.409
-26.838	36.117	1640.402	1419.080
-25.823	36.163	1639.396	1418.496
-24.809	36.116	1638.199	1417.054
-23.794	36.093	1636.309	1415.196
-22.779	36.130	1634.686	1414.007
-21.765	36.088	1632.993	1412.176
-20.750	36.149	1631.186	1411.010
-19.736	36.236	1629.512	1410.137
-18.721	36.193	1628.789	1409.145
-17.706	36.183	1626.945	1407.420
-16.692	36.126	1625.619	1405.801
-15.677	36.050	1624.346	1404.091
-14.663	36.184	1622.786	1403.664
-13.648	36.155	1621.517	1402.296
-12.633	36.115	1619.699	1400.379
-11.619	36.174	1618.254	1399.502
-10.604	36.170	1616.252	1397.685
-9.590	36.129	1615.133	1396.362
-8.575	36.180	1613.710	1395.448
-7.560	36.144	1612.846	1394.388
-6.546	36.178	1611.773	1393.647
-5.531	36.135	1610.880	1392.514
-4.517	36.151	1609.347	1391.245
-3.502	36.154	1608.359	1390.355
-2.487	36.242	1606.779	1389.567
-1.473	35.353	1594.069	1372.165
-0.458	30.777	1569.733	1318.837
0.556	24.010	1564.403	1265.250
1.571	20.096	1584.772	1253.359
2.586	18.825	1595.920	1252.807
3.600	16.637	1545.305	1197.498
4.615	9.812	1436.326	1067.917
5.629	2.555	1371.108	973.357
6.644	1.003	1361.850	956.896
7.659	0.985	1361.054	956.140
8.673	0.868	1360.121	954.662
9.688	0.895	1357.704	953.055
10.702	0.656	1355.343	949.806
11.717	3.812	1359.523	972.531
12.731	11.199	1371.136	1027.481
13.746	16.672	1378.545	1067.547
14.761	17.578	1378.598	1073.206
15.775	16.872	1376.609	1067.117
16.790	15.838	1374.147	1058.619
17.804	15.115	1371.581	1052.008
18.819	14.666	1370.815	1048.505
19.834	14.397	1369.078	1045.394
20.848	14.178	1367.495	1042.724
21.863	13.907	1366.645	1040.286
22.877	13.711	1365.152	1037.832
23.892	13.621	1364.256	1036.496
24.907	13.592	1363.519	1035.660
25.921	13.680	1362.493	1035.340
26.936	13.716	1361.518	1034.732
27.950	13.759	1360.702	1034.288
28.965	13.792	1359.911	1033.798
29.980	13.887	1358.909	1033.538
30.994	13.826	1358.075	1032.435
32.009	13.950	1357.019	1032.307
33.023	13.884	1355.649	1030.770
34.038	13.868	1354.822	1029.947
35.053	13.818	1353.501	1028.540
36.067	13.924	1352.167	1028.092
37.082	13.924	1351.284	1027.331
38.096	13.819	1350.941	1026.330
39.111	13.832	1350.118	1025.695
40.126	13.790	1349.277	1024.705
41.140	13.735	1348.315	1023.548
42.155	13.644	1347.815	1022.515
43.169	13.707	1347.764	1022.775
44.184	13.661	1347.493	1022.195
45.199	13.614	1347.213	1021.599
46.213	13.713	1346.219	1021.365
47.228	13.830	1345.012	1021.079
48.242	13.774	1344.015	1019.886
49.257	13.758	1342.198	1018.323
50.271	13.763	1341.450	1017.692
51.286	13.798	1340.185	1016.862
52.301	13.867	1338.454	1015.877
53.315	13.666	1338.009	1014.223
54.330	13.692	1336.963	1013.497
55.344	13.672	1335.699	1012.328
56.359	13.643	1334.668	1011.282
57.374	13.737	1333.988	1011.247
58.388	13.618	1332.979	1009.669
59.403	13.656	1332.804	1009.681
60.417	13.593	1331.776	1008.426
61.432	13.548	1331.421	1007.793
62.447	13.473	1330.549	1006.589
63.461	13.546	1329.109	1005.853
64.476	13.550	1327.800	1004.797
65.490	13.659	1326.608	1004.471
66.505	13.585	1324.692	1002.483
67.520	13.622	1323.843	1001.973
68.534	13.694	1322.336	1001.182
69.549	13.599	1321.828	1000.134
70.563	13.625	1320.896	999.496
71.578	13.609	1319.261	998.071
72.593	13.588	1318.980	997.648
73.607	13.439	1317.852	995.810
74.622	13.663	1316.551	996.085
75.636	13.590	1316.407	995.448
76.651	13.624	1315.569	994.933
77.666	13.593	1315.061	994.270
78.680	13.628	1314.641	994.075
79.695	13.581	1313.768	993.047
80.709	13.538	1313.080	992.184
81.724	13.627	1311.918	991.747
82.739	13.700	1310.822	991.268
83.753	13.682	1310.102	990.527
84.768	13.729	1308.966	989.864
85.782	13.822	1308.065	989.646
86.797	13.706	1306.564	987.731
87.812	13.694	1305.176	986.528
88.826	13.739	1304.262	986.013
89.841	13.674	1303.489	984.956
90.855	13.870	1302.321	985.154
91.870	13.799	1301.373	983.927
92.884	13.781	1300.556	983.116
93.899	13.760	1300.174	982.613
94.914	13.879	1298.870	982.249
95.928	14.006	1297.481	981.860
96.943	13.817	1297.342	980.549
97.957	13.771	1296.359	979.449
98.972	13.770	1295.193	978.477
99.987	13.731	1294.714	977.797
101.001	13.868	1293.124	977.318
102.016	13.755	1292.142	975.826
103.030	13.821	1291.283	975.478
104.045	13.802	1290.560	974.731
105.060	13.790	1289.159	973.515
106.074	13.771	1287.858	972.340
107.089	13.664	1286.519	970.616
108.103	13.706	1285.098	969.704
109.118	13.722	1284.402	969.186
110.133	13.657	1283.137	967.764
111.147	13.713	1281.457	966.738
112.162	13.778	1280.038	965.958
113.176	13.741	1279.278	965.089
114.191	13.744	1277.959	964.026
115.206	13.715	1277.436	963.376
116.220	13.699	1275.869	962.017
117.235	13.633	1275.077	960.953
118.249	13.758	1273.345	960.283
119.264	13.790	1272.444	959.706
120.279	13.724	1271.447	958.484
121.293	13.712	1270.435	957.569
122.308	13.741	1269.163	956.694
123.322	13.704	1268.284	955.733
124.337	13.848	1267.516	955.899
125.352	13.679	1266.599	954.149
126.366	13.764	1265.390	953.644
127.381	13.759	1264.008	952.486
128.395	13.741	1263.151	951.654
129.410	13.768	1261.989	950.851
130.424	13.751	1261.135	950.025
131.439	13.727	1260.257	949.143
132.454	13.775	1259.645	948.873
133.468	13.764	1258.844	948.124
134.483	13.870	1257.700	947.781
135.497	13.687	1256.876	946.034
136.512	13.785	1255.576	945.532
137.527	13.813	1254.117	944.508
138.541	13.823	1252.339	943.139
139.556	13.842	1251.221	942.322
140.570	13.957	1250.026	941.992
141.585	13.957	1248.987	941.124
142.600	13.808	1248.022	939.472
143.614	13.875	1246.922	938.939
144.629	13.934	1245.684	938.256
145.643	13.845	1244.794	937.003
146.658	14.008	1243.268	936.687
147.673	14.012	1241.536	935.325
148.687	13.841	1240.809	933.732
149.702	13.794	1239.485	932.391
150.716	13.820	1238.507	931.716
151.731	13.833	1237.027	930.595
152.746	13.869	1235.790	929.780
153.760	13.921	1234.508	929.027
154.775	13.981	1233.132	928.247
155.789	13.867	1232.354	926.942
156.804	13.986	1231.192	926.645
157.819	13.998	1230.268	925.939
158.833	13.967	1229.635	925.206
159.848	14.048	1228.375	924.629
160.862	13.986	1227.480	923.526
161.877	13.969	1226.418	922.553
162.892	13.936	1225.083	921.283
163.906	14.000	1224.531	921.138
164.921	13.956	1223.273	919.868
165.935	14.052	1222.001	919.360
166.950	14.023	1222.111	919.204
167.964	14.044	1221.322	918.643
168.979	14.050	1220.084	917.667
169.994	14.098	1219.453	917.375
171.008	14.125	1218.369	916.627
172.023	14.131	1217.881	916.209
173.037	14.074	1217.031	915.175
174.052	14.116	1216.030	914.574
175.067	14.162	1215.098	914.048
176.081	14.119	1213.914	912.836
177.096	14.056	1212.953	911.689
178.110	14.065	1212.306	911.169
179.125	14.116	1211.397	910.686
180.140	14.099	1209.837	909.343
181.154	14.096	1208.608	908.320
182.169	14.254	1207.166	908.018
183.183	14.275	1206.051	907.213
184.198	14.202	1204.854	905.833
185.213	14.255	1203.851	905.290
186.227	14.283	1202.829	904.592
187.242	14.321	1201.656	903.838
188.256	14.344	1200.746	903.196
189.271	14.364	1200.025	902.684
190.286	14.260	1198.979	901.255
191.300	14.153	1198.134	899.959
192.315	14.198	1197.218	899.437
193.329	14.190	1196.935	899.099
194.344	14.282	1195.898	898.741
195.359	14.286	1195.916	898.696
196.373	14.298	1195.421	898.307
197.388	14.337	1194.925	898.063
198.402	14.305	1194.556	897.534
199.417	14.497	1193.759	897.891
200.432	14.440	1192.667	896.685
201.446	14.524	1191.501	896.181
202.461	14.619	1190.671	895.983
203.475	14.608	1189.641	895.071
204.490	14.606	1188.542	894.157
205.504	14.526	1187.365	892.765
206.519	14.546	1186.197	891.914
207.534	14.536	1185.076	890.940
208.548	14.519	1184.555	890.374
209.563	14.501	1183.364	889.308
210.577	14.578	1182.300	888.837
211.592	14.638	1181.940	888.811
212.607	14.666	1180.683	887.932
213.621	14.620	1179.777	886.931
214.636	14.635	1178.835	886.223
215.650	14.700	1177.982	885.847
216.665	14.729	1177.035	885.208
217.680	14.687	1176.082	884.194
218.694	14.737	1175.712	884.100
219.709	14.733	1174.489	883.085
220.723	14.723	1173.755	882.401
221.738	14.671	1173.501	881.853
222.753	14.757	1172.447	881.442
223.767	14.779	1172.005	881.146
224.782	14.760	1171.416	880.525
225.796	14.903	1170.846	880.771
226.811	14.754	1170.036	879.302
227.826	14.826	1169.452	879.160
228.840	14.905	1168.498	878.782
229.855	14.878	1167.712	877.971
230.869	14.915	1167.186	877.693
231.884	14.764	1166.648	876.415
232.899	14.827	1165.945	876.142
233.913	14.737	1164.912	874.816
234.928	14.833	1164.050	874.593
235.942	14.869	1163.292	874.138
236.957	14.895	1162.807	873.830
237.972	14.809	1162.095	872.766
238.986	14.968	1161.093	872.769
240.001	14.918	1160.303	871.839
241.015	15.049	1159.207	871.620
242.030	14.900	1159.065	870.657
243.045	14.899	1158.367	870.055
244.059	14.962	1157.524	869.670
245.074	15.002	1156.698	869.182
246.088	15.000	1155.870	868.471
247.103	15.064	1154.943	868.031
248.117	15.137	1154.439	867.951
249.132	15.179	1153.844	867.645
250.147	15.208	1152.982	867.070
251.161	15.284	1152.036	866.676
252.176	15.240	1151.458	865.934
253.190	15.221	1150.885	865.328
254.205	15.402	1150.126	865.616
255.220	15.250	1149.546	864.320
256.234	15.340	1149.178	864.429
257.249	15.277	1148.465	863.491
258.263	15.338	1147.372	862.908
259.278	15.361	1146.808	862.525
260.293	15.399	1146.216	862.199
261.307	15.491	1145.905	862.363
262.322	15.384	1144.925	861.002
263.336	15.481	1144.521	861.117
264.351	15.545	1143.853	860.865
265.366	15.488	1143.399	860.158
266.380	15.392	1142.657	859.034
267.395	15.408	1141.519	858.179
268.409	15.535	1140.966	858.342
269.424	15.491	1140.475	857.670
270.439	15.483	1140.138	857.298
271.453	15.564	1138.962	856.750
272.468	15.415	1138.473	855.550
273.482	15.478	1137.512	855.073
274.497	15.455	1137.003	854.497
275.512	15.481	1136.058	853.840
276.526	15.498	1135.599	853.510
277.541	15.738	1134.188	853.590
278.555	15.657	1133.885	852.876
279.570	15.609	1133.558	852.309
280.585	15.542	1132.453	851.064
281.599	15.672	1131.286	850.773
282.614	15.742	1130.745	850.645
283.628	15.804	1129.134	849.670
284.643	15.753	1128.536	848.885
285.657	15.721	1127.843	848.130
286.672	15.816	1126.657	847.640
287.687	15.791	1125.995	846.943
288.701	15.795	1125.332	846.390
289.716	15.844	1124.473	845.912
290.730	15.838	1123.622	845.171
291.745	15.878	1122.879	844.734
292.760	15.806	1122.662	844.134
293.774	15.908	1121.702	843.853
294.789	15.978	1121.173	843.730
295.803	15.972	1120.873	843.396
296.818	15.972	1119.968	842.644
297.833	15.861	1119.286	841.503
298.847	16.004	1118.389	841.466
299.862	15.889	1117.557	840.190
300.876	16.033	1116.840	840.296
301.891	15.958	1116.438	839.547
302.906	15.936	1115.762	838.855
303.920	16.015	1114.759	838.418
304.935	16.071	1114.623	838.522
305.949	16.202	1113.349	838.138
306.964	16.087	1112.809	837.089
307.979	16.114	1111.928	836.484
308.993	16.157	1111.138	836.026
310.008	16.308	1110.539	836.252
311.022	16.226	1109.582	835.050
312.037	16.197	1108.711	834.177
313.052	16.083	1108.057	833.050
314.066	16.100	1107.260	832.460
315.081	16.219	1106.084	832.090
316.095	16.156	1105.694	831.411
317.110	16.117	1105.025	830.643
318.125	16.202	1104.345	830.475
319.139	16.060	1103.622	829.164
320.154	16.132	1103.055	829.016
321.168	16.252	1102.127	828.833
322.183	16.241	1101.476	828.216
323.197	16.170	1101.256	827.632
324.212	16.290	1100.255	827.392
325.227	16.316	1099.507	826.885
326.241	16.251	1099.178	826.245
327.256	16.255	1098.139	825.412
328.270	16.312	1097.403	825.065
329.285	16.364	1096.416	824.503
330.300	16.298	1095.405	823.349
331.314	16.271	1094.636	822.565
332.329	16.247	1093.812	821.756
333.343	16.362	1092.645	821.365
334.358	16.464	1091.988	821.295
335.373	16.395	1091.691	820.665
336.387	16.508	1090.671	820.372
337.402	16.461	1089.961	819.538
338.416	16.507	1089.418	819.279
339.431	16.577	1088.350	818.746
340.446	16.601	1088.038	818.554
341.460	16.524	1086.938	817.279
342.475	16.562	1086.251	816.873
343.489	16.578	1085.561	816.363
344.504	16.725	1084.597	816.271
345.519	16.691	1083.688	815.351
346.533	16.635	1083.025	814.512
347.548	16.855	1081.757	814.541
348.562	16.752	1081.287	813.625
349.577	16.711	1080.654	812.878
350.592	16.693	1080.216	812.389
351.606	16.712	1079.095	811.568
352.621	16.683	1078.512	810.917
353.635	16.747	1077.914	810.703
354.650	16.623	1077.205	809.502
355.665	16.755	1076.268	809.360
356.679	16.823	1075.984	809.400
357.694	16.704	1075.236	808.194
358.708	16.821	1074.308	807.985
359.723	16.763	1074.000	807.404
360.738	16.652	1073.494	806.424
361.752	16.820	1072.909	806.715
362.767	16.852	1072.045	806.146
363.781	16.893	1071.411	805.793
364.796	16.886	1070.793	805.222
365.810	16.907	1070.285	804.869
366.825	16.861	1069.846	804.250
367.840	16.933	1069.436	804.213
368.854	17.024	1068.518	803.883
369.869	17.040	1067.998	803.495
370.883	17.089	1066.895	802.827
371.898	17.010	1066.285	801.920
372.913	16.967	1066.086	801.500
373.927	17.036	1065.361	801.206
374.942	17.159	1064.736	801.246
375.956	17.159	1064.011	800.631
376.971	17.152	1063.862	800.414
377.986	17.192	1062.896	799.806
379.000	17.304	1062.160	799.709
380.015	17.256	1062.026	799.310
381.029	17.185	1061.252	798.325
382.044	17.248	1060.657	798.102
383.059	17.355	1059.855	797.929
384.073	17.259	1059.150	796.876
385.088	17.385	1058.074	796.590
386.102	17.372	1056.970	795.624
387.117	17.245	1056.392	794.528
388.132	17.232	1055.437	793.678
389.146	17.319	1054.569	793.359
390.161	17.303	1053.577	792.469
391.175	17.307	1053.136	792.088
392.190	17.430	1052.477	792.092
393.205	17.304	1052.040	791.106
394.219	17.392	1051.342	790.922
395.234	17.397	1049.960	789.833
396.248	17.378	1049.304	789.184
397.263	17.360	1047.956	788.018
398.278	17.405	1047.679	787.949
399.292	17.368	1046.999	787.193
400.307	17.343	1046.248	786.443
401.321	17.350	1045.789	786.062
402.336	17.382	1045.161	785.669
403.350	17.381	1044.363	784.995
404.365	17.534	1043.698	785.132
405.380	17.517	1042.869	784.358
406.394	17.539	1042.003	783.739
407.409	17.502	1041.103	782.823
408.423	17.551	1040.683	782.665
409.438	17.625	1039.998	782.417
410.453	17.575	1039.544	781.777
411.467	17.703	1038.684	781.649
412.482	17.691	1038.029	781.032
413.496	17.701	1037.246	780.419
414.511	17.650	1036.524	779.576
415.526	17.783	1036.109	779.800
416.540	17.785	1036.041	779.690
417.555	17.831	1035.227	779.217
418.569	17.725	1034.925	778.441
419.584	17.842	1034.239	778.389
420.599	17.805	1033.878	777.879
421.613	100.222	1313.073	1439.424
422.628	91.892	1353.720	1439.526
