DTS Sentinel unit serial number:	SN413079Multiplexer serial number:	ORYXHardware model number:	OX4-SRSoftware version number:	ORYX F/W v4.00 Oryx Data Collector v3.7.2.0data status	okinstallation	princeton_trtdifferential loss correction	single-endedforward channel	channel 2reverse channel	N/Adate	2019/09/16time	07:51:35forward acquisition time	60.00reverse acquisition time	0.00gamma	496.2192k internal	0.2331k external	0.2331temperature offset calibration	0.9976default loss term (dB/km)	0.3790temperature slope calibration	1.0000multiplexer offset coefficient	1.0000multiplexer slope coefficient	1.0000fibre end	0.00T internal ref (°C)	28.19T ext. ref 1 (°C)	11.71T ext. ref 2 (°C)	24.67length (m)	temperature (°C)	Stokes	anti-Stokes-747.200	-72.107	-0.229	0.086
-746.185	75.257	0.371	0.394
-745.171	-97.913	0.281	0.073
-744.156	800.000	-0.083	0.250
-743.142	-200.000	-0.001	0.064
-742.127	251.146	-0.034	-0.058
-741.112	159.039	-0.281	0.393
-740.098	489.364	0.049	0.113
-739.083	-200.000	-0.065	0.353
-738.069	54.659	-0.116	-0.113
-737.054	174.746	-0.056	-0.081
-736.039	98.294	-0.130	-0.151
-735.025	91.239	0.120	0.135
-734.010	-200.000	-0.044	0.249
-732.996	-200.000	0.015	0.138
-731.981	9.557	-0.172	-0.131
-730.966	-185.985	-0.623	-0.009
-729.952	32.835	0.039	-0.034
-728.937	-200.000	-0.001	-0.124
-727.923	291.213	-0.114	-0.208
-726.908	-53.794	0.370	0.170
-725.894	-109.683	-0.165	-0.035
-724.879	-89.870	-0.104	0.030
-723.864	-59.584	-0.219	-0.094
-722.850	-66.958	-0.139	-0.055
-721.835	193.703	-0.054	-0.083
-720.821	-200.000	0.006	-0.080
-719.806	7.969	-0.115	-0.087
-718.791	593.103	-0.039	0.097
-717.777	-6.607	-0.129	-0.088
-716.762	-117.461	0.134	0.024
-715.748	-42.899	0.065	-0.033
-714.733	7.665	-0.165	0.124
-713.718	82.443	-0.310	-0.338
-712.704	-74.956	0.239	0.086
-711.689	-52.657	-0.188	0.087
-710.675	206.454	-0.091	0.143
-709.660	-89.533	0.349	-0.103
-708.645	227.079	-0.025	-0.041
-707.631	-90.201	-0.301	0.088
-706.616	800.000	-0.050	0.142
-705.602	-193.139	-0.393	0.004
-704.587	180.695	-0.158	-0.233
-703.572	-110.686	-0.366	-0.076
-702.558	-130.793	-0.274	-0.037
-701.543	-200.000	-0.041	0.180
-700.529	423.085	0.071	0.153
-699.514	247.706	0.133	-0.225
-698.499	-114.257	0.240	0.047
-697.485	-200.000	0.069	0.489
-696.470	800.000	-0.031	-0.107
-695.456	-143.599	-0.336	0.032
-694.441	209.697	-0.087	-0.137
-693.426	114.065	0.040	-0.049
-692.412	800.000	-0.090	-0.351
-691.397	62.288	0.161	-0.161
-690.383	137.421	-0.181	-0.238
-689.368	800.000	-0.081	-0.328
-688.354	800.000	0.043	-0.132
-687.339	90.241	0.149	-0.167
-686.324	-5.076	-0.121	0.084
-685.310	-200.000	0.040	-0.193
-684.295	800.000	0.053	-0.179
-683.281	-85.191	-0.362	0.114
-682.266	800.000	0.063	-0.245
-681.251	-200.000	-0.021	0.134
-680.237	-200.000	0.019	0.298
-679.222	63.848	0.096	-0.097
-678.208	-36.371	0.170	-0.092
-677.193	-104.368	0.094	0.022
-676.178	-200.000	-0.056	0.325
-675.164	-96.335	-0.071	-0.019
-674.149	-200.000	-0.005	-0.067
-673.135	18.354	-0.282	-0.226
-672.120	-73.529	-0.470	-0.172
-671.105	-33.395	0.423	0.235
-670.091	54.986	-0.061	0.059
-669.076	-200.000	-0.022	0.217
-668.062	249.497	-0.124	0.211
-667.047	53.711	-0.334	-0.322
-666.032	163.308	0.106	-0.149
-665.018	-22.375	-0.206	-0.125
-664.003	595.647	-0.110	-0.273
-662.989	126.769	-0.099	-0.126
-661.974	402.162	-0.053	0.113
-660.959	188.358	-0.215	-0.322
-659.945	521.956	-0.075	0.176
-658.930	18.934	-0.100	0.080
-657.916	39.078	-0.065	-0.058
-656.901	-65.990	0.247	0.099
-655.886	-200.000	-0.033	0.174
-654.872	-200.000	0.032	0.165
-653.857	-119.047	-0.184	-0.032
-652.843	-114.850	-0.367	0.070
-651.828	-83.311	-0.065	-0.021
-650.814	-172.167	0.044	0.001
-649.799	-130.756	-0.029	0.004
-648.784	26.658	0.366	-0.307
-647.770	88.106	-0.160	0.178
-646.755	-200.000	-0.000	0.002
-645.741	758.671	0.062	0.167
-644.726	-81.031	0.417	0.138
-643.711	-43.133	-0.098	-0.050
-642.697	-129.833	0.149	-0.021
-641.682	276.221	0.141	0.251
-640.668	-137.857	0.253	0.028
-639.653	158.303	-0.177	-0.246
-638.638	361.427	-0.006	-0.013
-637.624	44.531	-0.090	0.083
-636.609	-142.228	-0.244	-0.024
-635.595	-200.000	0.013	0.193
-634.580	-200.000	-0.077	0.406
-633.565	385.793	-0.035	-0.072
-632.551	120.401	-0.108	-0.134
-631.536	-15.292	0.127	-0.082
-630.522	2.447	-0.154	0.112
-629.507	800.000	0.047	0.190
-628.492	-118.632	-0.218	-0.039
-627.478	-102.212	-0.223	0.054
-626.463	-45.952	0.165	-0.082
-625.449	-10.702	-0.128	-0.085
-624.434	681.787	0.075	0.195
-623.419	-200.000	0.003	-0.223
-622.405	-42.317	-0.493	-0.252
-621.390	-10.931	-0.142	0.094
-620.376	-165.812	0.235	-0.010
-619.361	-200.000	-0.068	0.310
-618.346	800.000	-0.029	-0.111
-617.332	7.751	-0.255	-0.191
-616.317	-200.000	-0.012	0.362
-615.303	-200.000	-0.001	-0.202
-614.288	31.479	-0.039	0.034
-613.273	113.563	0.180	0.219
-612.259	-200.000	0.041	-0.483
-611.244	-101.488	0.185	0.045
-610.230	194.271	0.060	-0.090
-609.215	0.275	-0.226	0.162
-608.201	800.000	-0.079	-0.221
-607.186	-169.958	-0.325	-0.012
-606.171	-200.000	0.011	-0.349
-605.157	-161.667	-0.286	0.015
-604.142	-200.000	-0.025	0.216
-603.128	187.483	0.200	0.299
-602.113	252.102	0.098	-0.167
-601.098	-92.015	0.103	0.029
-600.084	800.000	-0.083	0.262
-599.069	440.663	-0.168	0.367
-598.055	800.000	0.087	-0.331
-597.040	800.000	0.025	0.077
-596.025	322.109	-0.118	0.224
-595.011	-81.537	-0.300	-0.099
-593.996	-127.238	0.234	-0.034
-592.982	800.000	0.041	-0.126
-591.967	280.107	0.117	-0.209
-590.952	116.924	-0.161	0.198
-589.938	-23.134	-0.082	0.050
-588.923	-35.163	0.144	-0.078
-587.909	2.115	0.033	-0.024
-586.894	36.579	-0.095	-0.084
-585.879	-166.388	-0.218	0.009
-584.865	-86.310	-0.103	-0.032
-583.850	165.005	-0.207	0.293
-582.836	-63.795	-0.174	0.071
-581.821	-200.000	0.037	-0.302
-580.806	-60.017	-0.235	0.100
-579.792	-95.618	-0.242	0.065
-578.777	-200.000	-0.018	-0.118
-577.763	-54.849	-0.068	-0.031
-576.748	240.986	-0.091	0.152
-575.733	-140.085	0.164	0.017
-574.719	-200.000	0.046	-0.291
-573.704	-200.000	-0.073	0.346
-572.690	-200.000	-0.010	0.234
-571.675	-25.374	0.090	0.053
-570.661	91.030	0.201	0.226
-569.646	-151.904	-0.040	0.003
-568.631	-200.000	0.012	-0.070
-567.617	454.992	0.041	-0.092
-566.602	-29.907	-0.177	0.101
-565.588	-120.751	-0.154	0.026
-564.573	168.679	0.125	0.178
-563.558	49.855	-0.051	0.048
-562.544	800.000	-0.026	0.084
-561.529	214.278	0.037	0.058
-560.515	-121.074	-0.272	-0.046
-559.500	-200.000	-0.009	0.057
-558.485	10.580	-0.221	-0.169
-557.471	-73.601	-0.398	0.145
-556.456	800.000	0.062	0.203
-555.442	63.433	-0.247	-0.248
-554.427	800.000	0.035	-0.142
-553.412	-64.190	-0.198	-0.081
-552.398	-23.630	-0.103	0.062
-551.383	613.947	-0.033	0.083
-550.369	97.337	0.078	-0.090
-549.354	6.773	0.230	0.171
-548.339	124.206	-0.135	0.170
-547.325	-51.589	-0.242	-0.113
-546.310	-200.000	-0.019	-0.152
-545.296	-88.662	-0.282	0.084
-544.281	-71.461	-0.094	-0.035
-543.266	-7.766	-0.056	0.038
-542.252	-50.874	-0.390	0.183
-541.237	-54.118	-0.159	-0.072
-540.223	116.187	0.143	0.175
-539.208	-111.883	-0.117	0.024
-538.193	-184.432	-0.378	0.006
-537.179	442.003	0.083	0.182
-536.164	130.328	-0.147	-0.188
-535.150	-97.103	0.063	-0.017
-534.135	34.299	-0.173	0.151
-533.121	164.434	0.065	-0.091
-532.106	376.916	-0.023	-0.046
-531.091	800.000	-0.148	0.541
-530.077	28.306	-0.108	-0.091
-529.062	800.000	0.042	0.156
-528.048	-120.487	-0.280	0.048
-527.033	-200.000	-0.010	-0.361
-526.018	-18.209	0.070	0.044
-525.004	-108.223	0.211	-0.045
-523.989	-52.001	0.057	-0.026
-522.975	-174.866	0.039	-0.001
-521.960	-70.732	0.288	0.108
-520.945	-200.000	0.030	-0.224
-519.931	-200.000	0.022	-0.136
-518.916	-3.885	0.179	0.124
-517.902	-1.435	0.187	0.132
-516.887	-138.726	-0.150	-0.016
-515.872	160.480	-0.191	-0.266
-514.858	32.525	-0.227	0.196
-513.843	124.448	-0.149	0.186
-512.829	800.000	-0.021	0.070
-511.814	310.696	-0.195	0.364
-510.799	-20.799	0.221	-0.135
-509.785	-89.887	0.400	0.117
-508.770	100.588	0.051	0.059
-507.756	-65.241	0.318	-0.128
-506.741	180.165	-0.037	-0.054
-505.726	800.000	0.051	0.165
-504.712	800.000	0.055	0.187
-503.697	-52.672	0.113	0.052
-502.683	-114.761	-0.159	0.030
-501.668	-72.853	-0.052	0.019
-500.653	-200.000	0.013	-0.059
-499.639	51.531	0.213	-0.202
-498.624	-21.039	-0.008	0.005
-497.610	-96.006	0.099	-0.026
-496.595	-30.637	-0.102	0.058
-495.581	509.351	0.051	-0.117
-494.566	129.791	-0.150	-0.191
-493.551	208.055	0.029	-0.045
-492.537	-30.753	-0.289	0.163
-491.522	-41.439	0.228	-0.117
-490.508	53.881	-0.137	-0.131
-489.493	1.536	-0.154	-0.110
-488.478	123.958	-0.306	-0.383
-487.464	800.000	0.012	-0.049
-486.449	39.948	-0.094	0.084
-485.435	-200.000	-0.017	0.209
-484.420	-175.110	0.062	0.002
-483.405	241.983	-0.087	-0.145
-482.391	117.565	-0.159	-0.195
-481.376	-152.050	-0.163	0.012
-480.362	-15.360	-0.156	0.099
-479.347	-22.677	0.042	-0.025
-478.332	-200.000	0.033	0.246
-477.318	787.846	0.078	0.213
-476.303	-50.228	-0.070	0.033
-475.289	89.647	0.258	-0.286
-474.274	800.000	0.114	-0.334
-473.259	-42.079	-0.377	0.192
-472.245	800.000	0.085	-0.292
-471.230	-160.913	0.160	-0.008
-470.216	-27.576	0.095	-0.055
-469.201	-200.000	-0.044	-0.248
-468.186	-200.000	0.024	0.257
-467.172	-28.143	0.044	0.026
-466.157	-7.553	0.107	0.072
-465.143	-170.473	0.173	0.006
-464.128	-50.722	0.113	-0.053
-463.113	-102.243	-0.356	-0.085
-462.099	64.145	0.152	-0.153
-461.084	-54.043	0.063	-0.029
-460.070	-200.000	0.024	-0.199
-459.055	-15.515	0.183	-0.116
-458.040	18.704	-0.258	0.205
-457.026	186.250	0.183	0.270
-456.011	-200.000	0.002	0.309
-454.997	-36.972	0.532	-0.284
-453.982	-74.326	0.285	-0.102
-452.968	123.509	0.203	0.254
-451.953	196.512	0.052	-0.079
-450.938	-69.681	0.173	0.066
-449.924	25.894	-0.311	0.258
-448.909	-200.000	0.014	-0.193
-447.895	88.852	0.190	0.210
-446.880	800.000	-0.091	-0.348
-445.865	48.636	-0.128	-0.119
-444.851	162.284	0.098	0.137
-443.836	-45.171	0.496	0.245
-442.822	23.279	-0.273	-0.223
-441.807	514.505	-0.158	-0.368
-440.792	45.006	0.114	0.104
-439.778	-34.097	0.290	0.158
-438.763	-32.896	-0.311	0.172
-437.749	134.119	-0.116	0.150
-436.734	-40.029	-0.211	0.109
-435.719	764.526	0.037	0.099
-434.705	-200.000	-0.020	0.099
-433.690	-88.135	0.241	0.072
-432.676	-146.754	0.351	0.030
-431.661	-138.538	0.140	-0.015
-430.646	369.400	-0.058	-0.116
-429.632	-139.057	0.049	-0.005
-428.617	-53.010	-0.273	-0.125
-427.603	800.000	0.068	0.256
-426.588	290.375	0.047	-0.086
-425.573	60.849	-0.146	0.144
-424.559	-154.255	0.145	0.010
-423.544	55.876	-0.145	-0.139
-422.530	163.959	0.161	-0.225
-421.515	401.057	-0.067	0.139
-420.500	39.267	-0.146	0.130
-419.486	323.302	-0.107	-0.203
-418.471	800.000	-0.018	0.062
-417.457	-107.630	0.317	-0.069
-416.442	800.000	-0.051	-0.200
-415.428	46.501	-0.320	-0.295
-414.413	-187.922	0.200	-0.003
-413.398	97.087	0.160	0.183
-412.384	116.261	-0.105	0.127
-411.369	186.476	0.102	-0.151
-410.355	-200.000	-0.064	-0.292
-409.340	-60.098	0.133	0.056
-408.325	88.883	-0.212	0.234
-407.311	-98.792	0.105	-0.027
-406.296	-200.000	-0.014	-0.160
-405.282	-183.173	-0.166	0.003
-404.267	-135.456	0.446	0.053
-403.252	-138.296	-0.338	0.037
-402.238	800.000	0.039	-0.167
-401.223	-200.000	-0.001	0.158
-400.209	114.838	0.248	0.300
-399.194	-200.000	0.055	-0.367
-398.179	-155.913	0.482	-0.030
-397.165	416.325	0.174	-0.369
-396.150	-200.000	-0.009	0.205
-395.136	-138.819	-0.450	-0.049
-394.121	-131.748	-0.187	-0.024
-393.106	-167.241	-0.182	-0.007
-392.092	-23.914	0.211	-0.126
-391.077	800.000	-0.067	0.189
-390.063	489.695	-0.127	-0.288
-389.048	-200.000	0.041	-0.209
-388.033	14.297	-0.123	0.095
-387.019	-68.756	-0.208	-0.080
-386.004	-200.000	-0.030	0.191
-384.990	-200.000	-0.035	-0.293
-383.975	-200.000	0.024	0.280
-382.960	800.000	0.099	-0.347
-381.946	59.213	-0.264	-0.258
-380.931	-52.545	-0.162	0.074
-379.917	2.437	0.148	-0.106
-378.902	-76.196	0.333	0.117
-377.888	800.000	-0.019	-0.079
-376.873	369.671	0.140	0.281
-375.858	-200.000	-0.012	0.115
-374.844	191.621	-0.120	-0.180
-373.829	114.241	0.072	0.087
-372.815	194.576	-0.117	-0.176
-371.800	-173.763	-0.259	0.008
-370.785	-200.000	0.038	0.197
-369.771	-165.595	-0.611	0.026
-368.756	56.393	0.208	-0.200
-367.742	223.779	-0.139	-0.223
-366.727	758.657	-0.075	-0.201
-365.712	34.217	-0.046	0.040
-364.698	800.000	-0.042	0.150
-363.683	-147.551	0.017	-0.001
-362.669	-59.246	-0.215	0.092
-361.654	414.564	-0.105	0.222
-360.639	14.023	-0.063	0.049
-359.625	-200.000	-0.014	-0.072
-358.610	-42.084	-0.170	0.086
-357.596	797.101	0.228	-0.624
-356.581	-108.497	-0.370	-0.079
-355.566	-34.234	0.283	0.154
-354.552	16.011	0.143	0.111
-353.537	-15.958	0.167	0.105
-352.523	-63.487	-0.350	-0.143
-351.508	26.713	0.386	-0.321
-350.493	2.625	0.009	0.007
-349.479	-106.348	0.471	0.104
-348.464	-57.072	-0.134	0.059
-347.450	-76.883	0.079	0.027
-346.435	102.538	-0.306	-0.354
-345.420	210.437	-0.156	-0.242
-344.406	157.998	-0.134	0.184
-343.391	-135.365	0.103	-0.012
-342.377	8.863	-0.424	0.317
-341.362	65.024	-0.198	-0.198
-340.348	-104.678	0.468	0.107
-339.333	-131.755	0.319	-0.041
-338.318	-56.606	0.127	0.056
-337.304	7.809	-0.289	0.214
-336.289	800.000	0.089	0.348
-335.275	161.646	-0.172	-0.238
-334.260	158.851	0.195	0.268
-333.245	93.936	0.173	0.195
-332.231	67.617	0.111	-0.113
-331.216	-200.000	-0.004	0.247
-330.202	148.954	-0.122	0.164
-329.187	51.772	-0.159	-0.150
-328.172	197.315	-0.117	0.177
-327.158	800.000	0.104	0.338
-326.143	-107.949	0.253	0.054
-325.129	-28.592	-0.223	-0.127
-324.114	151.183	-0.046	-0.063
-323.099	-127.698	0.098	-0.014
-322.085	35.452	-0.084	-0.073
-321.070	-177.579	-0.157	0.004
-320.056	-75.532	0.085	0.030
-319.041	96.970	0.190	0.215
-318.026	75.158	-0.057	-0.060
-317.012	-200.000	0.001	0.199
-315.997	191.296	-0.278	0.414
-314.983	-28.209	0.273	0.156
-313.968	226.408	0.056	-0.090
-312.953	-200.000	-0.009	-0.177
-311.939	-200.000	0.043	-0.346
-310.924	-200.000	-0.090	-0.430
-309.910	800.000	-0.020	-0.065
-308.895	262.429	0.067	-0.114
-307.880	-37.739	0.111	-0.059
-306.866	310.643	0.031	0.058
-305.851	48.777	-0.185	0.172
-304.837	88.794	-0.121	-0.133
-303.822	-98.951	-0.299	0.075
-302.807	-32.916	0.132	-0.073
-301.793	-79.427	0.294	-0.099
-300.778	-200.000	0.005	0.140
-299.764	-200.000	0.021	-0.127
-298.749	8.451	0.170	0.126
-297.735	121.797	0.202	0.249
-296.720	800.000	0.037	0.145
-295.705	-108.899	0.423	0.089
-294.691	454.463	-0.062	-0.136
-293.676	-200.000	-0.046	0.222
-292.662	387.791	0.079	0.161
-291.647	-200.000	-0.006	-0.102
-290.632	117.741	-0.261	-0.317
-289.618	53.159	0.240	0.227
-288.603	-80.937	0.578	0.189
-287.589	-17.450	-0.221	-0.138
-286.574	-200.000	-0.034	-0.197
-285.559	-48.594	-0.216	-0.103
-284.545	79.819	0.116	-0.124
-283.530	7.005	-0.201	-0.148
-282.516	-102.715	-0.308	-0.073
-281.501	75.567	0.138	-0.144
-280.486	-87.955	-0.354	-0.105
-279.472	39.766	0.300	0.266
-278.457	-200.000	0.012	0.159
-277.443	337.602	-0.064	-0.122
-276.428	144.289	-0.138	-0.182
-275.413	340.761	0.073	0.140
-274.399	148.981	-0.103	0.138
-273.384	-200.000	-0.044	-0.303
-272.370	-101.156	0.082	-0.020
-271.355	800.000	-0.035	0.106
-270.340	-7.419	0.496	-0.332
-269.326	-109.271	0.144	0.030
-268.311	-70.363	0.168	0.063
-267.297	32.601	0.018	-0.016
-266.282	675.015	-0.064	-0.163
-265.267	153.781	0.067	-0.091
-264.253	335.359	0.180	-0.345
-263.238	38.098	0.092	-0.081
-262.224	129.099	0.116	-0.146
-261.209	-50.809	0.304	0.141
-260.195	800.000	-0.037	0.155
-259.180	-62.355	0.209	0.086
-258.165	-127.046	-0.099	-0.014
-257.151	262.233	0.094	0.160
-256.136	501.315	0.001	0.001
-255.122	-200.000	0.009	-0.300
-254.107	47.167	-0.348	0.320
-253.092	179.977	0.166	-0.240
-252.078	-14.795	-0.131	0.083
-251.063	118.403	-0.134	0.163
-250.049	-50.124	0.253	0.118
-249.034	-59.622	0.320	0.135
-248.019	276.374	-0.093	0.162
-247.005	461.292	0.042	0.094
-245.990	-200.000	-0.037	-0.196
-244.976	84.010	0.319	-0.344
-243.961	6.705	0.105	0.077
-242.946	-200.000	-0.026	-0.327
-241.932	4.995	0.237	0.172
-240.917	462.235	0.068	0.149
-239.903	-127.296	-0.291	0.042
-238.888	-86.990	0.356	-0.107
-237.873	-91.519	0.285	-0.080
-236.859	622.417	0.073	0.182
-235.844	798.706	-0.165	-0.448
-234.830	30.559	0.241	-0.204
-233.815	-200.000	0.027	0.253
-232.800	-200.000	0.030	0.251
-231.786	-93.530	0.348	-0.095
-230.771	-157.789	0.285	-0.017
-229.757	115.945	-0.120	0.145
-228.742	-89.931	-0.211	-0.061
-227.727	-131.208	0.290	0.038
-226.713	-21.187	-0.074	0.045
-225.698	30.623	0.190	-0.161
-224.684	29.816	0.329	-0.277
-223.669	71.931	-0.042	0.043
-222.655	62.169	0.213	-0.210
-221.640	46.916	0.259	-0.238
-220.625	209.237	0.161	-0.249
-219.611	268.166	-0.136	-0.235
-218.596	215.756	-0.207	0.324
-217.582	-9.981	0.247	-0.162
-216.567	300.675	-0.162	-0.294
-215.552	-200.000	-0.012	-0.093
-214.538	-200.000	-0.000	0.086
-213.523	-200.000	0.094	0.413
-212.509	14.097	0.134	-0.103
-211.494	-200.000	0.030	-0.144
-210.479	95.181	-0.186	0.209
-209.465	-24.835	-0.241	-0.141
-208.450	340.101	-0.124	-0.239
-207.436	4.384	-0.089	-0.064
-206.421	-200.000	0.037	-0.272
-205.406	651.177	-0.114	-0.287
-204.392	-84.761	0.129	0.040
-203.377	43.643	-0.087	0.078
-202.363	271.917	0.036	0.062
-201.348	-200.000	0.025	0.360
-200.333	-63.686	0.286	-0.115
-199.319	19.824	-0.113	0.090
-198.304	-200.000	0.067	0.341
-197.290	140.180	-0.068	-0.089
-196.275	252.740	0.073	0.123
-195.260	65.725	0.263	0.263
-194.246	294.709	0.177	-0.319
-193.231	38.758	0.168	-0.147
-192.217	-90.316	-0.174	-0.050
-191.202	-8.254	0.230	0.152
-190.187	-140.908	-0.374	0.038
-189.173	41.231	-0.215	0.191
-188.158	179.935	0.168	0.243
-187.144	72.991	-0.057	-0.059
-186.129	123.507	-0.129	-0.160
-185.114	209.274	-0.124	-0.191
-184.100	800.000	0.064	0.227
-183.085	210.659	0.093	0.143
-182.071	-3.438	-0.236	-0.162
-181.056	554.707	-0.119	0.281
-180.042	-34.203	-0.089	0.048
-179.027	-200.000	-0.023	0.200
-178.012	800.000	0.063	-0.201
-176.998	800.000	0.050	-0.182
-175.983	800.000	0.061	0.244
-174.969	-57.408	-0.358	-0.155
-173.954	800.000	0.054	-0.173
-172.939	33.038	-0.176	-0.150
-171.925	791.502	-0.139	0.377
-170.910	-45.801	0.285	-0.139
-169.896	-111.906	0.353	0.070
-168.881	-59.216	0.126	0.054
-167.866	-90.346	0.430	0.123
-166.852	-51.827	-0.243	0.111
-165.837	-35.685	-0.099	0.053
-164.823	158.443	-0.150	0.205
-163.808	224.379	0.070	0.112
-162.793	-129.618	0.093	0.013
-161.779	-200.000	-0.016	0.239
-160.764	-90.205	0.359	-0.103
-159.750	-200.000	0.055	-0.237
-158.735	-35.269	-0.087	-0.047
-157.720	-31.644	-0.234	-0.129
-156.706	-12.809	0.304	-0.195
-155.691	108.772	-0.242	0.284
-154.677	-200.000	0.015	0.074
-153.662	-176.948	-0.194	-0.005
-152.647	-63.863	-0.152	-0.061
-151.633	97.863	0.031	0.035
-150.618	103.915	0.190	0.220
-149.604	-200.000	0.024	-0.422
-148.589	203.719	0.069	-0.105
-147.574	-134.466	0.305	-0.037
-146.560	98.393	0.040	-0.045
-145.545	-1.853	-0.205	-0.142
-144.531	-126.916	-0.233	-0.034
-143.516	275.036	0.153	0.266
-142.502	58.005	-0.258	-0.248
-141.487	800.000	-0.064	0.197
-140.472	230.394	0.135	0.216
-139.458	-34.856	0.316	-0.170
-138.443	64.426	-0.121	-0.119
-137.429	-76.627	0.411	0.142
-136.414	-58.122	-0.188	0.080
-135.399	35.540	0.236	-0.204
-134.385	-7.730	-0.060	-0.040
-133.370	-200.000	-0.011	0.116
-132.356	800.000	-0.072	-0.249
-131.341	57.313	-0.299	-0.287
-130.326	-200.000	-0.035	0.294
-129.312	-200.000	-0.003	0.340
-128.297	800.000	-0.111	0.322
-127.283	-68.298	0.121	0.046
-126.268	-112.793	-0.304	-0.059
-125.253	800.000	0.014	-0.050
-124.239	-200.000	0.051	0.271
-123.224	800.000	0.109	0.298
-122.210	-21.236	0.186	0.112
-121.195	500.510	-0.034	0.078
-120.180	-38.635	0.353	-0.183
-119.166	446.438	0.073	-0.157
-118.151	564.925	-0.032	-0.076
-117.137	-156.276	-0.069	0.004
-116.122	-68.307	-0.217	0.083
-115.107	117.961	-0.199	0.241
-114.093	-13.389	0.143	0.091
-113.078	557.803	0.128	0.303
-112.064	105.419	-0.110	0.127
-111.049	-200.000	0.035	0.204
-110.034	-7.357	-0.089	0.059
-109.020	-27.768	0.253	0.144
-108.005	-20.647	0.113	-0.068
-106.991	-200.000	0.055	-0.336
-105.976	469.793	-0.067	0.148
-104.962	108.595	0.145	0.170
-103.947	-49.628	-0.112	-0.052
-102.932	-167.441	0.161	0.006
-101.918	782.484	0.021	-0.057
-100.903	-158.228	0.097	0.006
-99.889	-37.359	0.241	-0.127
-98.874	59.695	0.150	0.145
-97.859	-200.000	-0.003	-0.360
-96.845	-166.198	-0.013	0.001
-95.830	-101.439	-0.360	-0.086
-94.816	63.774	-0.124	0.123
-93.801	-151.688	0.208	0.015
-92.786	17.257	0.190	0.148
-91.772	800.000	-0.034	-0.132
-90.757	-200.000	-0.059	0.262
-89.743	224.400	0.084	0.133
-88.728	-200.000	0.015	-0.110
-87.713	-54.430	-0.240	0.107
-86.699	540.487	0.086	-0.200
-85.684	-20.176	0.384	0.232
-84.670	-98.971	0.204	-0.051
-83.655	-86.892	-0.230	-0.069
-82.640	-200.000	-0.001	-0.062
-81.626	-62.230	0.312	0.127
-80.611	800.000	-0.111	-0.312
-79.597	-118.039	-0.083	0.015
-78.582	-109.429	0.137	-0.028
-77.567	-4.312	0.026	0.018
-76.553	356.707	0.167	0.326
-75.538	-96.182	0.362	-0.094
-74.524	725.571	0.065	-0.170
-73.509	-61.007	-0.168	-0.070
-72.494	800.000	0.025	0.101
-71.480	-200.000	-0.003	-0.071
-70.465	-111.346	0.160	-0.032
-69.451	286.464	0.213	0.377
-68.436	-158.798	-0.224	0.013
-67.422	-200.000	0.025	-0.351
-66.407	-20.060	0.162	-0.098
-65.392	-35.278	0.263	0.141
-64.378	800.000	-0.014	-0.040
-63.363	42.597	0.120	0.107
-62.349	122.378	0.247	0.302
-61.334	116.973	-0.854	-1.028
-60.319	-42.476	0.609	0.304
-59.305	489.455	-0.625	-1.400
-58.290	384.667	0.447	0.903
-57.276	278.778	0.827	1.444
-56.261	-200.000	109.787	592.829
-55.246	431.723	1512.209	3211.136
-54.232	143.003	2702.133	3520.643
-53.217	96.741	2302.704	2584.449
-52.203	37.162	1907.952	1655.082
-51.188	31.467	1695.148	1427.114
-50.173	28.777	1653.132	1371.635
-49.159	47.996	1707.795	1563.381
-48.144	47.971	1722.679	1576.749
-47.130	31.052	1679.508	1410.584
-46.115	28.218	1665.215	1377.235
-45.100	28.072	1660.213	1371.952
-44.086	28.077	1657.231	1369.468
-43.071	28.025	1655.254	1367.386
-42.057	28.000	1652.529	1364.898
-41.042	27.959	1651.170	1363.412
-40.027	27.995	1648.574	1361.486
-39.013	28.028	1646.746	1360.166
-37.998	28.034	1645.248	1358.923
-36.984	28.118	1643.513	1358.059
-35.969	28.226	1642.079	1357.620
-34.954	28.255	1640.449	1356.438
-33.940	28.191	1638.673	1354.441
-32.925	28.185	1637.136	1353.070
-31.911	28.130	1635.661	1351.388
-30.896	28.156	1633.930	1350.097
-29.881	28.122	1632.551	1348.652
-28.867	28.165	1630.543	1347.259
-27.852	28.154	1628.972	1345.825
-26.838	28.093	1627.795	1344.355
-25.823	28.233	1626.035	1343.877
-24.809	28.192	1625.250	1342.872
-23.794	28.171	1623.852	1341.505
-22.779	28.205	1622.179	1340.320
-21.765	28.171	1620.387	1338.535
-20.750	28.233	1619.016	1337.806
-19.736	28.214	1617.882	1336.677
-18.721	28.270	1616.476	1335.871
-17.706	28.260	1614.939	1334.472
-16.692	28.246	1613.399	1333.045
-15.677	28.223	1612.320	1331.937
-14.663	28.302	1610.715	1331.135
-13.648	28.247	1609.273	1329.486
-12.633	28.314	1607.652	1328.583
-11.619	28.215	1606.143	1326.565
-10.604	28.212	1604.616	1325.227
-9.590	28.169	1603.416	1323.871
-8.575	28.253	1601.980	1323.244
-7.560	28.200	1601.376	1322.311
-6.546	28.265	1599.899	1321.508
-5.531	28.155	1599.024	1319.935
-4.517	28.240	1597.508	1319.244
-3.502	28.289	1596.329	1318.571
-2.487	28.389	1594.412	1317.655
-1.473	28.141	1583.830	1307.085
-0.458	25.831	1566.194	1276.142
0.556	21.147	1568.238	1249.305
1.571	19.081	1592.980	1253.869
2.586	18.968	1605.710	1262.944
3.600	18.347	1555.422	1218.863
4.615	15.350	1455.888	1120.775
5.629	12.430	1400.254	1059.062
6.644	11.753	1393.380	1049.425
7.659	11.716	1392.353	1048.322
8.673	11.673	1390.853	1046.824
9.688	11.708	1388.490	1045.174
10.702	11.630	1385.732	1042.508
11.717	12.959	1387.889	1052.523
12.731	16.032	1393.419	1076.282
13.746	17.818	1395.114	1088.902
14.761	17.562	1394.001	1086.303
15.775	16.699	1390.950	1078.334
16.790	15.600	1388.309	1069.202
17.804	14.852	1385.876	1062.484
18.819	14.302	1384.501	1057.843
19.834	14.013	1382.768	1054.591
20.848	13.748	1381.929	1052.175
21.863	13.604	1380.292	1049.926
22.877	13.489	1379.163	1048.247
23.892	13.277	1378.564	1046.358
24.907	13.363	1378.035	1046.404
25.921	13.388	1376.737	1045.488
26.936	13.485	1375.821	1045.311
27.950	13.463	1374.709	1044.232
28.965	13.491	1373.572	1043.451
29.980	13.566	1372.471	1042.999
30.994	13.664	1370.924	1042.347
32.009	13.609	1369.572	1040.879
33.023	13.618	1368.963	1040.384
34.038	13.564	1367.584	1038.903
35.053	13.608	1365.964	1037.858
36.067	13.601	1364.701	1036.764
37.082	13.549	1364.688	1036.332
38.096	13.617	1363.135	1035.485
39.111	13.517	1362.660	1034.413
40.126	13.541	1361.461	1033.562
41.140	13.390	1360.802	1032.027
42.155	13.306	1360.273	1031.009
43.169	13.289	1360.151	1030.722
44.184	13.279	1359.713	1030.233
45.199	13.436	1359.132	1030.683
46.213	13.389	1358.842	1030.075
47.228	13.494	1357.553	1029.661
48.242	13.544	1356.841	1029.344
49.257	13.466	1355.243	1027.556
50.271	13.433	1353.374	1025.841
51.286	13.496	1352.224	1025.269
52.301	13.500	1350.920	1024.213
53.315	13.483	1349.431	1022.887
54.330	13.407	1349.013	1022.015
55.344	13.460	1347.476	1021.086
56.359	13.473	1346.305	1020.185
57.374	13.372	1345.710	1019.021
58.388	13.372	1344.904	1018.323
59.403	13.238	1344.032	1016.750
60.417	13.317	1343.765	1016.946
61.432	13.358	1342.674	1016.279
62.447	13.200	1342.093	1014.779
63.461	13.247	1340.650	1013.889
64.476	13.295	1339.752	1013.414
65.490	13.164	1338.260	1011.395
66.505	13.176	1336.863	1010.318
67.520	13.288	1335.760	1010.082
68.534	13.273	1334.678	1009.083
69.549	13.220	1334.013	1008.168
70.563	13.259	1332.540	1007.204
71.578	13.268	1331.044	1006.036
72.593	13.139	1330.749	1004.941
73.607	13.135	1329.717	1004.048
74.622	13.202	1328.645	1003.556
75.636	13.117	1328.011	1002.470
76.651	13.171	1327.208	1002.104
77.666	13.193	1326.406	1001.543
78.680	13.191	1326.556	1001.557
79.695	13.272	1325.168	1000.909
80.709	13.136	1324.778	999.706
81.724	13.287	1324.217	1000.107
82.739	13.352	1323.022	999.506
83.753	13.380	1322.016	998.830
84.768	13.463	1321.472	998.831
85.782	13.546	1320.131	998.227
86.797	13.437	1318.929	996.577
87.812	13.431	1317.575	995.430
88.826	13.481	1315.882	994.360
89.841	13.493	1315.384	993.971
90.855	13.442	1314.653	993.020
91.870	13.551	1313.704	992.871
92.884	13.503	1312.601	991.659
93.899	13.515	1311.990	991.182
94.914	13.594	1311.090	990.892
95.928	13.615	1310.220	990.269
96.943	13.620	1309.122	989.384
97.957	13.580	1307.811	988.065
98.972	13.535	1307.409	987.407
99.987	13.565	1305.639	986.162
101.001	13.535	1304.739	985.214
102.016	13.562	1303.743	984.537
103.030	13.527	1303.243	983.861
104.045	13.510	1302.214	982.900
105.060	13.425	1301.036	981.420
106.074	13.324	1299.695	979.724
107.089	13.326	1298.099	978.442
108.103	13.182	1296.988	976.670
109.118	13.250	1295.830	976.112
110.133	13.200	1294.631	974.829
111.147	13.245	1293.220	973.941
112.162	13.433	1291.161	973.416
113.176	13.307	1290.344	971.971
114.191	13.355	1289.680	971.666
115.206	13.322	1288.772	970.704
116.220	13.373	1287.197	969.732
117.235	13.464	1286.117	969.363
118.249	13.370	1285.319	968.123
119.264	13.287	1284.404	966.862
120.279	13.346	1282.773	965.895
121.293	13.283	1281.734	964.662
122.308	13.249	1280.818	963.685
123.322	13.357	1279.239	963.040
124.337	13.335	1278.667	962.400
125.352	13.376	1276.901	961.224
126.366	13.254	1276.513	960.138
127.381	13.276	1275.497	959.414
128.395	13.374	1274.277	958.981
129.410	13.279	1273.626	957.854
130.424	13.336	1272.814	957.491
131.439	13.420	1271.213	956.686
132.454	13.333	1271.201	956.090
133.468	13.496	1269.669	955.796
134.483	13.410	1269.473	955.066
135.497	13.399	1268.515	954.196
136.512	13.452	1266.552	952.940
137.527	13.299	1265.636	951.287
138.541	13.492	1264.070	951.135
139.556	13.438	1262.897	949.857
140.570	13.505	1261.999	949.485
141.585	13.507	1260.848	948.546
142.600	13.577	1259.272	947.677
143.614	13.602	1258.329	947.024
144.629	13.622	1257.597	946.506
145.643	13.644	1256.409	945.654
146.658	13.539	1255.272	944.113
147.673	13.515	1253.948	942.898
148.687	13.475	1252.814	941.737
149.702	13.483	1251.645	940.821
150.716	13.443	1249.841	939.154
151.731	13.485	1248.954	938.644
152.746	13.426	1247.943	937.465
153.760	13.471	1246.682	936.688
154.775	13.680	1245.478	936.881
155.789	13.594	1244.982	935.938
156.804	13.634	1243.513	934.979
157.819	13.670	1242.342	934.221
158.833	13.776	1241.430	934.048
159.848	13.816	1240.515	933.502
160.862	13.833	1239.474	932.730
161.877	13.601	1238.543	930.647
162.892	13.515	1237.426	929.242
163.906	13.589	1237.094	929.325
164.921	13.580	1235.572	928.049
165.935	13.699	1234.467	927.803
166.950	13.714	1233.836	927.331
167.964	13.578	1233.150	925.971
168.979	13.719	1232.335	926.068
169.994	13.734	1231.255	925.256
171.008	13.687	1230.900	924.646
172.023	13.779	1230.313	924.638
173.037	13.787	1229.521	924.002
174.052	13.716	1228.412	922.695
175.067	13.677	1227.522	921.724
176.081	13.726	1225.939	920.725
177.096	13.705	1225.320	920.064
178.110	13.744	1224.075	919.265
179.125	13.727	1223.137	918.384
180.140	13.737	1221.955	917.473
181.154	13.821	1220.741	916.943
182.169	13.870	1219.678	916.332
183.183	13.897	1218.368	915.416
184.198	13.923	1217.443	914.786
185.213	13.836	1216.499	913.515
186.227	13.949	1215.087	912.993
187.242	13.962	1214.391	912.463
188.256	13.991	1213.092	911.566
189.271	14.027	1212.179	910.996
190.286	13.897	1211.115	909.403
191.300	13.853	1210.277	908.452
192.315	13.846	1209.490	907.744
193.329	13.743	1208.992	906.728
194.344	13.767	1208.457	906.374
195.359	13.920	1207.648	906.524
196.373	13.966	1207.305	906.438
197.388	14.135	1206.532	906.700
198.402	14.074	1206.047	905.921
199.417	14.117	1205.664	905.786
200.432	14.202	1205.102	905.748
201.446	14.270	1204.245	905.392
202.461	14.310	1203.109	904.676
203.475	14.302	1202.187	903.861
204.490	14.272	1200.548	902.383
205.504	14.212	1199.309	901.050
206.519	14.221	1198.085	900.100
207.534	14.176	1197.207	899.119
208.548	14.213	1196.217	898.493
209.563	14.167	1195.735	897.804
210.577	14.253	1194.678	897.394
211.592	14.383	1193.560	897.175
212.607	14.389	1192.694	896.477
213.621	14.422	1192.151	896.169
214.636	14.295	1191.487	894.904
215.650	14.277	1190.488	893.980
216.665	14.325	1189.283	893.251
217.680	14.425	1188.375	893.030
218.694	14.547	1187.326	892.816
219.709	14.388	1187.157	891.755
220.723	14.488	1186.045	891.378
221.738	14.358	1185.483	890.181
222.753	14.463	1184.875	890.206
223.767	14.454	1184.141	889.529
224.782	14.578	1183.366	889.529
225.796	14.639	1182.220	888.913
226.811	14.670	1181.449	888.422
227.826	14.601	1181.151	887.749
228.840	14.540	1180.271	886.687
229.855	14.571	1179.484	886.179
230.869	14.553	1179.052	885.684
231.884	14.507	1177.893	884.489
232.899	14.553	1177.410	884.291
233.913	14.533	1176.232	883.223
234.928	14.486	1176.055	882.761
235.942	14.592	1175.029	882.474
236.957	14.438	1174.386	881.101
237.972	14.515	1173.452	880.729
238.986	14.543	1172.783	880.296
240.001	14.509	1172.197	879.600
241.015	14.491	1171.346	878.787
242.030	14.536	1170.861	878.586
243.045	14.616	1169.719	878.069
244.059	14.761	1168.886	878.127
245.074	14.628	1168.349	876.951
246.088	14.642	1167.920	876.624
247.103	14.736	1166.562	876.022
248.117	14.874	1165.876	876.153
249.132	14.810	1165.479	875.438
250.147	14.892	1164.569	875.106
251.161	15.018	1163.422	874.824
252.176	14.989	1163.039	874.309
253.190	14.972	1162.530	873.760
254.205	15.080	1161.590	873.541
255.220	15.038	1161.308	873.030
256.234	15.079	1160.473	872.543
257.249	15.222	1159.852	872.742
258.263	15.098	1159.308	871.607
259.278	15.093	1158.642	871.003
260.293	15.188	1158.259	871.136
261.307	15.289	1157.772	871.215
262.322	15.199	1157.005	870.093
263.336	15.200	1155.972	869.246
264.351	15.219	1155.697	869.058
265.366	15.192	1154.731	868.116
266.380	15.307	1154.026	868.108
267.395	15.188	1153.523	867.036
268.409	15.265	1152.566	866.639
269.424	15.173	1152.078	865.717
270.439	15.186	1151.388	865.193
271.453	15.165	1150.579	864.395
272.468	15.127	1149.766	863.515
273.482	15.252	1148.857	863.398
274.497	15.137	1148.570	862.515
275.512	15.231	1147.691	862.260
276.526	15.323	1146.633	861.864
277.541	15.347	1145.628	861.153
278.555	15.219	1145.644	860.435
279.570	15.272	1144.877	860.053
280.585	15.357	1143.981	859.740
281.599	15.479	1143.049	859.589
282.614	15.497	1141.704	858.590
283.628	15.409	1140.677	857.296
284.643	15.380	1140.002	856.563
285.657	15.345	1139.184	855.694
286.672	15.397	1138.306	855.224
287.687	15.446	1137.661	854.914
288.701	15.454	1136.846	854.266
289.716	15.451	1135.765	853.364
290.730	15.508	1134.966	852.975
291.745	15.459	1134.556	852.343
292.760	15.539	1133.923	852.199
293.774	15.636	1132.651	851.661
294.789	15.643	1132.548	851.542
295.803	15.615	1131.948	850.873
296.818	15.520	1131.149	849.717
297.833	15.554	1130.466	849.301
298.847	15.617	1129.468	848.796
299.862	15.618	1128.738	848.175
300.876	15.613	1128.125	847.614
301.891	15.670	1127.706	847.513
302.906	15.714	1127.032	847.153
303.920	15.697	1126.254	846.407
304.935	15.869	1125.507	846.639
305.949	15.902	1124.827	846.214
306.964	16.013	1123.850	845.965
307.979	15.940	1123.359	845.150
308.993	15.914	1122.523	844.318
310.008	15.766	1121.955	843.076
311.022	15.820	1121.460	842.899
312.037	15.816	1120.269	841.910
313.052	15.875	1119.214	841.334
314.066	15.810	1118.420	840.343
315.081	15.720	1117.601	839.202
316.095	15.779	1116.827	838.840
317.110	15.797	1116.232	838.408
318.125	15.851	1115.010	837.684
319.139	15.748	1114.939	837.045
320.154	15.690	1114.440	836.308
321.168	15.922	1113.200	836.456
322.183	15.847	1112.713	835.646
323.197	15.861	1111.978	835.089
324.212	15.872	1111.229	834.504
325.227	15.865	1111.223	834.391
326.241	15.923	1110.096	833.761
327.256	16.004	1109.319	833.502
328.270	15.947	1108.134	832.257
329.285	15.894	1107.760	831.643
330.300	15.909	1106.704	830.847
331.314	15.943	1105.669	830.166
332.329	16.058	1104.607	829.860
333.343	16.006	1103.999	829.073
334.358	16.001	1103.196	828.373
335.373	16.032	1102.755	828.123
336.387	16.064	1101.926	827.586
337.402	16.124	1101.160	827.231
338.416	16.219	1100.343	827.009
339.431	16.096	1099.707	825.854
340.446	16.250	1098.991	825.997
341.460	16.274	1098.273	825.502
342.475	16.387	1097.503	825.400
343.489	16.355	1096.390	824.336
344.504	16.256	1095.863	823.381
345.519	16.430	1094.669	823.262
346.533	16.357	1094.365	822.603
347.548	16.485	1093.625	822.599
348.562	16.437	1092.861	821.720
349.577	16.328	1092.283	820.680
350.592	16.352	1090.852	819.647
351.606	16.365	1090.341	819.256
352.621	16.327	1089.751	818.555
353.635	16.310	1088.973	817.815
354.650	16.406	1088.281	817.688
355.665	16.383	1087.625	817.015
356.679	16.361	1086.882	816.279
357.694	16.481	1086.462	816.468
358.708	16.424	1085.880	815.683
359.723	16.618	1085.032	815.909
360.738	16.523	1084.424	814.925
361.752	16.504	1084.368	814.716
362.767	16.441	1083.663	813.810
363.781	16.535	1082.952	813.658
364.796	16.606	1082.086	813.277
365.810	16.672	1081.798	813.307
366.825	16.710	1080.775	812.648
367.840	16.759	1080.331	812.478
368.854	16.834	1079.898	812.440
369.869	16.802	1079.084	811.598
370.883	16.693	1078.728	810.740
371.898	16.663	1077.298	809.451
372.913	16.704	1077.104	809.427
373.927	16.874	1076.482	809.700
374.942	16.741	1076.177	808.767
375.956	16.700	1075.555	808.030
376.971	16.841	1074.997	808.213
377.986	17.005	1074.352	808.436
379.000	16.960	1073.630	807.607
380.015	16.919	1073.056	806.911
381.029	16.894	1072.747	806.485
382.044	16.953	1072.236	806.311
383.059	17.000	1070.851	805.421
384.073	16.969	1070.042	804.595
385.088	17.025	1069.039	804.033
386.102	17.003	1068.477	803.435
387.117	16.857	1067.689	802.085
388.132	17.020	1066.356	801.783
389.146	16.873	1066.069	800.799
390.161	16.963	1064.979	800.335
391.175	17.027	1064.257	800.022
392.190	17.010	1063.854	799.568
393.205	17.122	1063.181	799.519
394.219	17.073	1062.017	798.345
395.234	17.114	1061.296	797.925
396.248	17.118	1060.422	797.215
397.263	17.008	1059.780	796.143
398.278	16.962	1058.730	795.072
399.292	17.024	1057.843	794.622
400.307	17.018	1056.967	793.870
401.321	17.111	1056.338	793.761
402.336	17.006	1056.142	793.051
403.350	17.077	1055.245	792.639
404.365	17.146	1054.457	792.301
405.380	16.994	1054.169	791.305
406.394	17.146	1053.232	791.237
407.409	17.097	1052.543	790.421
408.423	17.187	1052.248	790.549
409.438	17.214	1051.097	789.741
410.453	17.373	1050.355	789.854
411.467	17.300	1050.089	789.245
412.482	17.330	1049.491	788.863
413.496	17.397	1048.426	788.306
414.511	17.426	1048.111	788.132
415.526	17.568	1047.267	788.083
416.540	17.637	1047.041	788.161
417.555	17.443	1046.417	786.726
418.569	17.467	1046.007	786.459
419.584	17.532	1045.305	786.161
420.599	17.577	1044.544	785.727
421.613	104.073	1323.959	1472.823
422.628	95.635	1364.646	1472.947
