DTS Sentinel unit serial number:	SN413079Multiplexer serial number:	ORYXHardware model number:	OX4-SRSoftware version number:	ORYX F/W v4.00 Oryx Data Collector v3.7.2.0data status	okinstallation	princeton_trtdifferential loss correction	single-endedforward channel	channel 2reverse channel	N/Adate	2019/09/14time	22:51:35forward acquisition time	60.00reverse acquisition time	0.00gamma	496.2192k internal	0.2324k external	0.2324temperature offset calibration	1.0059default loss term (dB/km)	0.3790temperature slope calibration	1.0000multiplexer offset coefficient	1.0000multiplexer slope coefficient	1.0000fibre end	0.00T internal ref (°C)	32.50T ext. ref 1 (°C)	4.68T ext. ref 2 (°C)	27.43length (m)	temperature (°C)	Stokes	anti-Stokes-747.200	76.683	0.096	0.103
-746.185	99.437	-0.281	0.328
-745.171	56.897	-0.155	0.153
-744.156	-200.000	-0.002	0.254
-743.142	-67.928	-0.156	-0.061
-742.127	-14.464	-0.191	0.124
-741.112	25.072	0.150	-0.126
-740.098	233.805	0.039	-0.065
-739.083	-104.783	0.151	-0.035
-738.069	400.423	0.083	0.176
-737.054	738.390	0.046	-0.125
-736.039	559.441	-0.188	-0.457
-735.025	-112.743	-0.274	0.055
-734.010	245.364	-0.052	0.087
-732.996	-200.000	-0.021	-0.368
-731.981	126.837	-0.344	-0.440
-730.966	49.141	0.192	-0.182
-729.952	-200.000	0.050	-0.344
-728.937	-127.279	-0.079	-0.012
-727.923	-154.242	-0.161	0.011
-726.908	-48.652	-0.196	0.095
-725.894	216.733	0.151	-0.242
-724.879	-112.047	-0.073	0.015
-723.864	379.883	0.041	-0.085
-722.850	176.870	-0.227	-0.333
-721.835	800.000	-0.105	-0.328
-720.821	-126.907	-0.189	-0.028
-719.806	141.713	-0.060	0.080
-718.791	56.730	-0.155	-0.153
-717.777	-137.314	-0.057	-0.007
-716.762	-86.836	-0.276	-0.085
-715.748	-200.000	-0.020	0.203
-714.733	729.920	-0.038	-0.102
-713.718	89.994	0.041	-0.046
-712.704	-99.355	-0.182	0.046
-711.689	129.820	-0.057	-0.073
-710.675	-200.000	0.010	-0.291
-709.660	156.350	0.099	-0.138
-708.645	-72.444	0.194	0.072
-707.631	-24.518	0.192	0.115
-706.616	-40.488	-0.156	-0.081
-705.602	-200.000	0.033	0.169
-704.587	-200.000	0.054	0.293
-703.572	-74.498	0.246	0.089
-702.558	-5.056	0.111	0.077
-701.543	115.705	-0.050	0.061
-700.529	-200.000	0.004	-0.320
-699.514	-68.422	-0.188	0.074
-698.499	263.896	0.222	-0.388
-697.485	123.746	-0.250	-0.316
-696.470	-200.000	-0.000	0.303
-695.456	321.460	0.097	0.186
-694.441	-50.087	-0.341	0.163
-693.426	-51.937	-0.266	0.125
-692.412	111.083	-0.116	0.141
-691.397	131.828	0.099	0.128
-690.383	-196.580	-0.196	0.001
-689.368	-53.007	-0.280	0.130
-688.354	-200.000	0.032	0.275
-687.339	-200.000	-0.013	0.086
-686.324	371.916	-0.129	-0.263
-685.310	800.000	0.139	-0.410
-684.295	-109.280	-0.164	-0.035
-683.281	-31.868	-0.285	0.161
-682.266	800.000	-0.092	-0.260
-681.251	-170.420	-0.034	-0.001
-680.237	707.952	0.161	-0.428
-679.222	104.055	0.076	-0.090
-678.208	-200.000	-0.397	-0.001
-677.193	120.990	0.072	-0.090
-676.178	-78.504	-0.318	-0.110
-675.164	426.288	0.028	-0.060
-674.149	-200.000	0.018	-0.402
-673.135	-72.015	0.073	-0.027
-672.120	-130.733	0.294	-0.040
-671.105	800.000	0.075	-0.264
-670.091	107.897	-0.320	-0.383
-669.076	-200.000	0.020	-0.112
-668.062	-200.000	-0.006	-0.323
-667.047	-171.857	-0.442	0.015
-666.032	234.697	0.148	0.246
-665.018	800.000	-0.082	-0.237
-664.003	-200.000	-0.005	0.062
-662.989	-66.781	-0.149	0.059
-661.974	60.742	-0.249	0.248
-660.959	-51.400	-0.356	-0.168
-659.945	132.372	0.194	-0.252
-658.930	269.664	-0.050	0.088
-657.916	26.654	-0.221	0.187
-656.901	-32.733	-0.063	-0.035
-655.886	26.663	0.118	0.099
-654.872	56.867	-0.110	-0.108
-653.857	36.963	-0.232	-0.206
-652.843	-12.154	0.212	-0.139
-651.828	-44.901	-0.112	0.056
-650.814	-116.181	0.343	-0.064
-649.799	-200.000	0.006	-0.066
-648.784	-28.446	-0.070	0.040
-647.770	-200.000	0.007	0.201
-646.755	215.134	-0.281	-0.448
-645.741	36.521	0.188	0.166
-644.726	-88.938	0.275	0.082
-643.711	800.000	-0.096	-0.288
-642.697	-19.655	0.115	-0.071
-641.682	-200.000	-0.087	0.426
-640.668	800.000	0.017	-0.048
-639.653	-125.026	-0.140	-0.022
-638.638	-166.955	-0.079	0.003
-637.624	132.052	0.151	0.195
-636.609	620.871	-0.104	-0.262
-635.595	-147.988	-0.036	-0.003
-634.580	-53.836	0.390	0.179
-633.565	287.108	-0.057	0.103
-632.551	279.747	-0.092	-0.165
-631.536	180.849	-0.013	0.019
-630.522	139.959	0.079	-0.105
-629.507	108.823	0.057	-0.068
-628.492	-8.332	0.018	0.012
-627.478	-200.000	-0.006	0.205
-626.463	-79.291	-0.134	-0.046
-625.449	252.847	-0.092	0.157
-624.434	-70.405	-0.246	-0.094
-623.419	800.000	-0.089	0.293
-622.405	133.599	0.069	-0.089
-621.390	-145.557	-0.077	0.007
-620.376	-200.000	0.026	-0.201
-619.361	-42.727	-0.197	-0.101
-618.346	216.113	-0.069	-0.110
-617.332	-80.229	-0.248	-0.083
-616.317	-200.000	-0.022	-0.101
-615.303	-118.858	-0.242	-0.043
-614.288	-59.496	0.304	-0.131
-613.273	12.946	0.072	0.056
-612.259	-105.718	-0.228	0.052
-611.244	-145.738	0.063	-0.006
-610.230	-141.866	-0.377	0.038
-609.215	94.344	-0.066	0.075
-608.201	-200.000	0.027	0.229
-607.186	800.000	0.038	0.126
-606.171	120.987	-0.238	-0.297
-605.157	-78.088	0.057	-0.020
-604.142	453.601	-0.016	-0.036
-603.128	-200.000	0.012	-0.190
-602.113	-135.127	-0.397	-0.048
-601.098	800.000	-0.082	0.236
-600.084	-23.448	0.143	0.086
-599.069	203.372	0.052	0.081
-598.055	-18.139	0.147	0.092
-597.040	-200.000	-0.033	-0.499
-596.025	-154.550	-0.206	0.014
-595.011	-36.474	0.149	-0.081
-593.996	571.136	-0.101	-0.246
-592.982	-142.637	-0.306	0.030
-591.967	767.894	0.094	0.256
-590.952	-200.000	-0.015	-0.156
-589.938	221.832	0.184	-0.297
-588.923	32.361	-0.006	0.005
-587.909	-200.000	0.029	-0.218
-586.894	374.339	0.025	-0.050
-585.879	-105.534	0.193	-0.044
-584.865	141.182	-0.112	-0.149
-583.850	58.821	-0.422	-0.416
-582.836	-23.792	0.281	-0.169
-581.821	-166.894	-0.476	0.020
-580.806	-16.196	-0.157	0.100
-579.792	70.192	-0.092	0.095
-578.777	-96.489	0.342	-0.091
-577.763	-42.056	0.087	0.045
-576.748	-38.122	-0.185	0.098
-575.733	336.546	-0.104	0.202
-574.719	-172.943	-0.177	0.005
-573.704	-181.221	0.299	-0.006
-572.690	-131.676	-0.254	0.033
-571.675	-82.661	0.282	-0.092
-570.661	-137.320	0.185	0.021
-569.646	-56.342	-0.264	-0.118
-568.631	-200.000	-0.007	-0.139
-567.617	322.077	0.121	-0.231
-566.602	-9.453	-0.116	0.078
-565.588	-200.000	-0.018	-0.177
-564.573	-181.235	-0.134	0.003
-563.558	800.000	0.029	-0.110
-562.544	-158.214	-0.210	0.012
-561.529	-200.000	0.009	-0.286
-560.515	-200.000	0.036	-0.326
-559.500	-200.000	0.002	0.154
-558.485	677.808	0.135	0.352
-557.471	-128.431	-0.557	-0.079
-556.456	129.284	0.168	0.215
-555.442	-91.964	0.103	0.029
-554.427	-52.437	0.212	0.098
-553.412	-200.000	-0.008	0.100
-552.398	127.044	-0.137	-0.174
-551.383	-13.124	0.321	-0.209
-550.369	-86.124	0.416	-0.128
-549.354	-33.089	-0.270	-0.150
-548.339	-35.551	0.148	-0.080
-547.325	294.657	0.045	-0.083
-546.310	-200.000	-0.035	-0.285
-545.296	800.000	0.056	-0.206
-544.281	-105.281	0.136	0.031
-543.266	-123.108	-0.118	-0.019
-542.252	-63.579	0.397	-0.163
-541.237	-138.506	-0.233	0.026
-540.223	573.801	-0.089	-0.218
-539.208	270.542	0.150	-0.264
-538.193	60.581	-0.167	-0.166
-537.179	361.321	-0.110	0.220
-536.164	-200.000	0.016	0.240
-535.150	-200.000	0.021	-0.115
-534.135	-102.445	-0.229	0.055
-533.121	-186.352	-0.237	-0.003
-532.106	-60.671	0.345	0.146
-531.091	141.919	0.183	-0.243
-530.077	61.704	-0.087	-0.087
-529.062	-42.352	0.196	-0.100
-528.048	-152.717	0.208	0.015
-527.033	800.000	0.035	-0.125
-526.018	13.239	0.046	-0.035
-525.004	-92.737	0.077	-0.022
-523.989	92.149	-0.286	-0.322
-522.975	-74.747	-0.247	0.089
-521.960	-37.589	0.293	-0.156
-520.945	10.072	0.221	0.168
-519.931	-124.596	-0.285	0.044
-518.916	198.907	0.097	-0.149
-517.902	169.903	-0.256	0.366
-516.887	-200.000	-0.030	-0.159
-515.872	-85.738	-0.199	0.062
-514.858	-66.886	-0.195	0.077
-513.843	-79.374	-0.104	-0.035
-512.829	217.822	-0.052	0.082
-511.814	-140.475	0.360	-0.037
-510.799	9.577	-0.215	0.163
-509.785	555.218	-0.091	-0.219
-508.770	-27.790	-0.166	0.096
-507.756	800.000	-0.023	0.081
-506.741	-133.270	-0.118	-0.015
-505.726	-200.000	-0.008	0.238
-504.712	800.000	0.048	-0.152
-503.697	95.693	0.076	-0.086
-502.683	-28.696	-0.305	0.175
-501.668	-96.519	0.161	0.043
-500.653	294.208	0.201	0.367
-499.639	-42.369	-0.066	-0.034
-498.624	222.306	0.079	-0.127
-497.610	161.010	-0.085	0.118
-496.595	273.250	0.068	0.120
-495.581	99.830	0.041	0.048
-494.566	24.093	0.100	0.083
-493.551	707.620	-0.112	-0.296
-492.537	-118.967	0.026	-0.005
-491.522	-122.529	-0.325	0.053
-490.508	-200.000	-0.014	-0.116
-489.493	-200.000	0.024	-0.336
-488.478	-200.000	-0.005	0.356
-487.464	800.000	-0.133	-0.486
-486.449	-8.557	0.293	0.197
-485.435	-64.454	-0.018	0.007
-484.420	-200.000	0.037	-0.244
-483.405	511.776	0.021	-0.049
-482.391	-101.123	0.163	0.040
-481.376	129.784	-0.136	0.173
-480.362	-182.584	-0.139	-0.003
-479.347	373.930	-0.115	0.234
-478.332	-50.470	-0.247	-0.116
-477.318	-104.804	-0.123	0.028
-476.303	-185.163	-0.201	-0.003
-475.289	-200.000	-0.013	0.110
-474.274	96.519	0.176	-0.201
-473.259	135.931	-0.037	0.049
-472.245	-74.829	0.232	-0.083
-471.230	-69.437	-0.126	-0.048
-470.216	64.665	-0.066	-0.066
-469.201	-59.681	-0.168	-0.072
-468.186	105.176	0.060	0.070
-467.172	157.176	0.103	0.143
-466.157	-25.340	-0.142	-0.084
-465.143	77.310	0.082	-0.087
-464.128	-200.000	-0.012	0.331
-463.113	6.779	0.238	0.177
-462.099	-200.000	0.073	-0.467
-461.084	62.170	0.114	0.114
-460.070	37.494	-0.118	-0.104
-459.055	154.038	0.195	0.267
-458.040	481.032	0.096	0.217
-457.026	288.951	0.070	0.127
-456.011	131.275	-0.156	0.200
-454.997	28.750	-0.131	-0.110
-453.982	-64.308	-0.019	0.008
-452.968	-66.588	-0.141	-0.056
-451.953	800.000	0.038	-0.124
-450.938	-200.000	-0.046	-0.274
-449.924	-38.792	0.373	-0.196
-448.909	800.000	-0.042	0.119
-447.895	-200.000	-0.061	-0.419
-446.880	-40.686	-0.100	-0.052
-445.865	800.000	0.020	0.075
-444.851	185.136	0.126	-0.186
-443.836	5.558	0.085	0.063
-442.822	800.000	0.043	0.147
-441.807	-70.247	-0.076	-0.029
-440.792	-200.000	-0.003	-0.365
-439.778	-200.000	-0.003	-0.113
-438.763	-200.000	-0.012	-0.191
-437.749	-200.000	-0.024	-0.259
-436.734	-98.750	0.192	0.049
-435.719	-48.645	0.076	-0.036
-434.705	-168.739	-0.157	0.006
-433.690	-200.000	0.022	-0.328
-432.676	-127.469	0.220	0.032
-431.661	-44.348	-0.112	-0.056
-430.646	-178.548	0.025	0.001
-429.632	-118.642	-0.133	-0.023
-428.617	800.000	-0.096	-0.286
-427.603	-200.000	0.102	-0.447
-426.588	189.629	-0.173	0.258
-425.573	-81.681	0.283	-0.093
-424.559	-200.000	-0.027	0.329
-423.544	-69.809	-0.169	0.064
-422.530	-41.548	0.246	0.126
-421.515	57.351	0.184	-0.179
-420.500	224.149	-0.199	-0.320
-419.486	-200.000	-0.024	-0.119
-418.471	-135.138	-0.223	0.027
-417.457	-51.839	0.406	0.188
-416.442	185.439	-0.175	0.260
-415.428	306.965	-0.166	0.309
-414.413	-66.229	0.415	0.165
-413.398	318.323	0.090	-0.170
-412.384	800.000	-0.044	-0.123
-411.369	-83.539	-0.136	0.044
-410.355	-78.703	-0.220	0.075
-409.340	-119.929	-0.173	0.030
-408.325	296.268	-0.074	-0.136
-407.311	-42.510	-0.182	0.093
-406.296	451.063	0.081	-0.178
-405.282	78.739	0.267	-0.284
-404.267	-45.104	-0.161	-0.080
-403.252	7.008	-0.046	-0.034
-402.238	-177.588	0.257	0.006
-401.223	52.441	0.145	0.138
-400.209	-19.560	-0.609	-0.376
-399.194	-200.000	-0.010	0.272
-398.179	800.000	-0.061	-0.169
-397.165	729.593	-0.021	0.056
-396.150	467.286	0.052	-0.117
-395.136	77.364	-0.179	-0.189
-394.121	-0.611	0.362	-0.256
-393.106	-156.462	0.359	-0.022
-392.092	-50.954	-0.204	-0.095
-391.077	-200.000	0.050	-0.298
-390.063	115.866	0.246	0.299
-389.048	53.249	-0.125	-0.119
-388.033	-83.145	0.170	-0.054
-387.019	-108.818	-0.109	-0.023
-386.004	-55.632	0.210	-0.094
-384.990	32.186	-0.193	0.166
-383.975	-200.000	-0.005	0.403
-382.960	224.766	0.048	0.078
-381.946	-49.029	-0.072	-0.034
-380.931	-69.133	0.310	0.119
-379.917	292.261	-0.094	0.170
-378.902	-131.954	-0.316	-0.041
-377.888	-109.566	-0.263	-0.055
-376.873	27.811	-0.337	0.283
-375.858	800.000	0.097	0.322
-374.844	183.952	-0.117	0.173
-373.829	-119.990	0.149	0.025
-372.815	-200.000	0.003	-0.302
-371.800	157.653	-0.165	-0.227
-370.785	-200.000	0.018	-0.165
-369.771	-200.000	0.390	0.001
-368.756	-72.455	-0.216	-0.079
-367.742	-21.942	0.101	0.061
-366.727	323.304	-0.105	-0.198
-365.712	-61.908	0.177	0.074
-364.698	-143.670	0.415	0.039
-363.683	800.000	-0.029	-0.105
-362.669	-140.783	0.376	0.039
-361.654	785.489	0.097	0.266
-360.639	248.561	0.093	-0.156
-359.625	3.132	-0.342	0.247
-358.610	-200.000	0.033	0.225
-357.596	205.691	0.237	0.366
-356.581	-1.598	0.024	-0.017
-355.566	-200.000	0.004	0.020
-354.552	-200.000	-0.025	0.391
-353.537	485.446	0.053	-0.121
-352.523	-88.355	0.253	0.075
-351.508	-200.000	0.005	0.231
-350.493	193.182	0.107	0.161
-349.479	136.230	0.181	-0.234
-348.464	16.623	0.229	0.180
-347.450	76.001	0.153	-0.161
-346.435	465.913	-0.109	-0.243
-345.420	258.368	0.063	-0.109
-344.406	-200.000	0.057	-0.281
-343.391	-32.624	0.277	-0.153
-342.377	-78.331	-0.078	0.026
-341.362	58.264	-0.040	-0.039
-340.348	573.849	0.034	-0.082
-339.333	-200.000	0.003	0.097
-338.318	-85.171	-0.108	0.033
-337.304	353.040	-0.160	0.315
-336.289	-99.730	0.180	-0.045
-335.275	186.523	0.152	-0.225
-334.260	-127.905	0.150	0.021
-333.245	-98.549	0.382	-0.097
-332.231	34.749	0.216	-0.188
-331.216	-200.000	-0.024	-0.222
-330.202	185.026	-0.080	0.118
-329.187	-115.301	0.097	0.018
-328.172	26.216	0.269	0.223
-327.158	-48.827	0.075	-0.036
-326.143	-21.216	0.220	-0.134
-325.129	-200.000	0.008	-0.097
-324.114	776.954	0.042	0.115
-323.099	99.406	0.247	0.284
-322.085	-200.000	0.021	-0.356
-321.070	-136.372	-0.035	0.004
-320.056	-200.000	-0.024	-0.354
-319.041	200.792	-0.088	-0.135
-318.026	-200.000	0.041	-0.196
-317.012	394.883	0.217	-0.450
-315.997	800.000	0.105	0.336
-314.983	-20.851	0.162	0.099
-313.968	-200.000	-0.019	0.134
-312.953	-97.758	0.158	-0.041
-311.939	-135.466	-0.322	0.038
-310.924	289.238	0.019	0.033
-309.910	-200.000	-0.015	0.261
-308.895	-164.935	-0.351	0.016
-307.880	59.035	0.303	0.296
-306.866	-100.596	-0.549	-0.135
-305.851	31.359	0.355	0.303
-304.837	153.736	-0.147	0.200
-303.822	358.071	-0.122	0.242
-302.807	-115.936	0.180	0.033
-301.793	-200.000	0.014	-0.120
-300.778	171.247	-0.075	-0.107
-299.764	168.795	0.073	0.103
-298.749	164.466	0.175	0.244
-297.735	-142.707	0.219	-0.021
-296.720	156.971	-0.254	-0.349
-295.705	800.000	0.015	-0.059
-294.691	516.177	-0.113	-0.261
-293.676	134.551	0.016	0.020
-292.662	297.681	0.142	-0.258
-291.647	153.830	0.116	-0.158
-290.632	83.429	-0.097	0.105
-289.618	-200.000	0.007	0.267
-288.603	394.342	0.155	0.320
-287.589	-110.453	0.062	-0.013
-286.574	-200.000	0.060	0.338
-285.559	366.981	-0.147	0.295
-284.545	105.091	-0.038	-0.045
-283.530	-102.156	0.049	-0.012
-282.516	800.000	-0.089	0.310
-281.501	-200.000	0.017	-0.104
-280.486	-200.000	0.001	0.077
-279.472	-85.054	0.173	0.054
-278.457	-200.000	0.005	0.093
-277.443	-149.592	-0.205	0.016
-276.428	94.518	0.131	-0.147
-275.413	12.755	0.150	0.115
-274.399	138.148	-0.034	0.044
-273.384	41.808	-0.323	0.291
-272.370	800.000	-0.041	0.171
-271.355	-61.223	-0.027	0.011
-270.340	219.803	0.094	-0.149
-269.326	-31.226	0.216	-0.121
-268.311	800.000	-0.073	-0.253
-267.297	-104.300	-0.398	-0.092
-266.282	-84.921	0.171	0.053
-265.267	-22.581	0.106	0.064
-264.253	103.866	0.113	-0.132
-263.238	-67.536	-0.104	0.040
-262.224	-102.624	-0.270	0.064
-261.209	-90.599	-0.255	-0.073
-260.195	800.000	0.059	-0.183
-259.180	-200.000	0.033	0.439
-258.165	-99.738	0.025	0.006
-257.151	-200.000	0.005	-0.279
-256.136	800.000	-0.097	0.294
-255.122	294.895	-0.105	0.191
-254.107	534.753	-0.061	-0.143
-253.092	153.297	0.171	-0.232
-252.078	-44.389	0.338	-0.168
-251.063	89.380	0.160	0.176
-250.049	-200.000	-0.016	0.153
-249.034	329.817	0.145	-0.276
-248.019	-200.000	-0.013	0.136
-247.005	125.085	0.126	0.157
-245.990	15.105	0.011	-0.008
-244.976	9.422	0.190	0.143
-243.961	120.246	-0.322	0.396
-242.946	-43.162	0.035	0.018
-241.932	387.776	-0.188	0.386
-240.917	199.473	0.180	0.273
-239.903	82.118	0.171	0.183
-238.888	800.000	-0.101	0.287
-237.873	-71.256	0.103	-0.038
-236.859	66.606	-0.116	0.116
-235.844	624.447	0.098	-0.243
-234.830	-130.283	-0.011	-0.001
-233.815	260.283	0.090	-0.153
-232.800	-137.584	-0.107	-0.012
-231.786	15.936	0.221	-0.172
-230.771	329.600	-0.068	-0.130
-229.757	162.629	0.057	0.079
-228.742	23.569	0.125	-0.102
-227.727	-62.381	-0.448	0.184
-226.713	-56.158	-0.243	0.107
-225.698	-200.000	0.011	0.174
-224.684	800.000	-0.081	0.226
-223.669	-55.056	-0.205	-0.092
-222.655	-200.000	-0.067	0.617
-221.640	-27.159	0.019	0.011
-220.625	36.899	-0.323	0.283
-219.611	148.631	-0.144	0.193
-218.596	-74.578	-0.444	0.158
-217.582	-3.091	-0.097	0.067
-216.567	725.160	0.225	0.593
-215.552	-127.136	-0.167	0.024
-214.538	571.361	0.107	0.258
-213.523	-105.847	0.252	0.056
-212.509	-200.000	0.002	-0.113
-211.494	-27.121	-0.510	-0.294
-210.479	-200.000	-0.001	0.402
-209.465	282.363	-0.081	0.144
-208.450	-110.149	0.066	-0.014
-207.436	660.625	0.052	-0.132
-206.421	202.752	0.092	0.141
-205.406	377.031	0.179	0.360
-204.392	-177.411	-0.177	0.004
-203.377	18.778	0.177	-0.140
-202.363	-81.934	-0.172	0.056
-201.348	-91.480	0.084	-0.024
-200.333	-200.000	-0.025	0.156
-199.319	-200.000	-0.052	0.236
-198.304	-41.528	-0.424	0.215
-197.290	51.182	0.119	0.112
-196.275	-200.000	0.017	-0.187
-195.260	501.465	-0.071	-0.161
-194.246	-60.453	-0.220	-0.092
-193.231	-200.000	-0.102	-0.455
-192.217	-146.633	0.274	-0.023
-191.202	363.834	-0.271	-0.539
-190.187	244.676	-0.134	0.222
-189.173	-200.000	0.038	0.209
-188.158	-1.733	-0.310	-0.215
-187.144	800.000	0.033	-0.138
-186.129	-11.592	-0.030	-0.019
-185.114	-98.731	-0.133	0.034
-184.100	-172.735	0.317	0.010
-183.085	-51.115	0.272	0.126
-182.071	289.223	-0.124	-0.222
-181.056	-88.662	0.028	0.008
-180.042	-108.763	0.171	-0.036
-179.027	196.028	0.055	0.083
-178.012	92.137	0.040	-0.044
-176.998	800.000	0.126	0.476
-175.983	114.644	-0.057	-0.069
-174.969	-200.000	0.034	-0.197
-173.954	800.000	0.075	-0.211
-172.939	-146.899	-0.187	0.016
-171.925	-93.360	0.293	0.080
-170.910	360.280	-0.068	-0.135
-169.896	-48.924	-0.112	-0.053
-168.881	-58.832	0.170	0.073
-167.866	-58.294	-0.069	-0.030
-166.852	800.000	-0.064	-0.253
-165.837	-104.074	0.197	-0.045
-164.823	-104.657	0.087	-0.020
-163.808	-30.733	0.103	0.057
-162.793	-75.755	0.461	0.161
-161.779	217.393	-0.239	-0.376
-160.764	800.000	0.123	0.407
-159.750	-88.663	0.349	0.102
-158.735	800.000	-0.053	-0.215
-157.720	-200.000	-0.047	0.249
-156.706	-200.000	0.047	-0.257
-155.691	-200.000	0.027	0.303
-154.677	310.759	-0.061	-0.114
-153.662	-200.000	-0.001	0.392
-152.647	40.152	-0.187	0.165
-151.633	-200.000	-0.047	0.233
-150.618	-39.616	0.077	0.040
-149.604	-133.778	0.309	0.038
-148.589	-200.000	-0.003	-0.097
-147.574	-99.787	0.168	-0.041
-146.560	141.436	0.255	-0.333
-145.545	5.742	-0.172	-0.126
-144.531	28.527	0.110	-0.092
-143.516	-36.398	-0.117	-0.062
-142.502	-95.717	-0.217	0.057
-141.487	-160.958	0.416	-0.022
-140.472	100.828	0.068	0.078
-139.458	580.352	-0.068	-0.165
-138.443	800.000	-0.026	-0.088
-137.429	-82.060	0.389	-0.125
-136.414	-95.218	-0.439	0.117
-135.399	114.603	-0.112	0.135
-134.385	-68.200	0.094	-0.036
-133.370	6.832	-0.034	0.025
-132.356	-6.486	0.245	-0.164
-131.341	-122.992	0.067	-0.011
-130.326	-103.927	-0.336	0.077
-129.312	-54.561	-0.262	0.117
-128.297	611.668	-0.132	-0.325
-127.283	-56.853	0.206	-0.090
-126.268	-89.344	0.077	0.022
-125.253	-200.000	0.002	0.493
-124.239	-147.456	0.145	-0.012
-123.224	800.000	-0.044	-0.149
-122.210	-27.940	0.218	0.124
-121.195	49.926	0.162	0.151
-120.180	-200.000	-0.029	-0.305
-119.166	61.265	-0.167	-0.163
-118.151	800.000	-0.116	0.361
-117.137	-200.000	-0.039	-0.180
-116.122	342.976	0.044	0.085
-115.107	-99.251	-0.048	-0.012
-114.093	-90.619	-0.183	-0.052
-113.078	20.192	0.084	0.067
-112.064	-200.000	-0.020	-0.137
-111.049	2.440	0.175	0.125
-110.034	-57.026	-0.427	0.185
-109.020	-1.246	0.228	-0.159
-108.005	-193.891	0.289	-0.002
-106.991	14.705	-0.134	-0.103
-105.976	17.041	0.081	-0.063
-104.962	-56.598	-0.273	-0.119
-103.947	22.710	-0.036	0.029
-102.932	-33.601	0.190	0.104
-101.918	7.494	0.396	-0.291
-100.903	-200.000	-0.009	-0.158
-99.889	78.915	0.238	-0.251
-98.874	-26.964	0.070	-0.040
-97.859	-82.336	0.157	-0.050
-96.845	-31.436	0.224	0.124
-95.830	-137.511	0.202	-0.022
-94.816	-200.000	-0.060	-0.333
-93.801	186.066	-0.135	-0.197
-92.786	138.233	0.016	0.021
-91.772	-58.172	0.065	0.028
-90.757	-91.592	-0.293	-0.082
-89.743	14.817	-0.173	0.134
-88.728	-6.812	-0.195	-0.130
-87.713	-10.916	0.120	-0.078
-86.699	-200.000	0.030	-0.170
-85.684	24.907	0.383	0.312
-84.670	800.000	-0.116	0.343
-83.655	386.500	-0.070	0.142
-82.640	-39.201	0.119	-0.061
-81.626	-140.835	0.160	0.016
-80.611	90.428	0.181	0.199
-79.597	287.076	-0.094	0.167
-78.582	448.545	-0.098	0.213
-77.567	3.904	-0.253	0.182
-76.553	-4.349	-0.219	0.149
-75.538	230.643	0.168	0.271
-74.524	414.730	-0.103	-0.215
-73.509	-200.000	-0.074	-0.342
-72.494	800.000	0.062	0.227
-71.480	-63.016	0.208	0.085
-70.465	779.702	-0.096	-0.258
-69.451	259.498	-0.159	0.270
-68.436	800.000	-0.067	-0.229
-67.422	-115.975	-0.057	0.011
-66.407	154.777	0.122	-0.165
-65.392	417.862	-0.233	0.489
-64.378	800.000	0.058	-0.170
-63.363	-142.309	-0.139	-0.014
-62.349	-200.000	-0.034	0.377
-61.334	69.808	-0.919	-0.931
-60.319	-47.826	0.580	0.276
-59.305	800.000	-0.277	-0.897
-58.290	298.645	0.547	0.989
-57.276	658.622	0.585	1.478
-56.261	-200.000	95.234	583.885
-55.246	666.369	1369.975	3478.533
-54.232	199.487	2549.160	3841.295
-53.217	114.248	2266.899	2711.254
-52.203	42.031	1895.400	1690.285
-51.188	35.749	1685.467	1455.649
-50.173	33.126	1641.224	1398.015
-49.159	50.406	1687.538	1567.325
-48.144	52.037	1704.067	1594.832
-47.130	35.360	1665.193	1435.004
-46.115	32.691	1650.684	1402.614
-45.100	32.417	1646.141	1396.665
-44.086	32.529	1642.537	1394.383
-43.071	32.392	1640.464	1391.551
-42.057	32.402	1638.050	1389.525
-41.042	32.377	1636.116	1387.647
-40.027	32.369	1634.625	1386.266
-39.013	32.381	1632.388	1384.401
-37.998	32.355	1630.939	1382.928
-36.984	32.373	1629.149	1381.488
-35.969	32.476	1627.739	1380.992
-34.954	32.535	1626.367	1380.203
-33.940	32.503	1624.801	1378.585
-32.925	32.471	1622.613	1376.445
-31.911	32.468	1621.261	1375.218
-30.896	32.542	1619.342	1374.081
-29.881	32.550	1617.597	1372.600
-28.867	32.438	1616.305	1370.637
-27.852	32.625	1614.535	1370.440
-26.838	32.499	1613.200	1368.332
-25.823	32.511	1611.734	1367.125
-24.809	32.624	1610.235	1366.620
-23.794	32.561	1608.838	1364.920
-22.779	32.568	1607.105	1363.448
-21.765	32.504	1606.191	1362.156
-20.750	32.395	1604.549	1359.922
-19.736	32.525	1602.950	1359.453
-18.721	32.485	1601.546	1357.920
-17.706	32.602	1599.675	1357.122
-16.692	32.458	1598.903	1355.373
-15.677	32.472	1597.446	1354.187
-14.663	32.576	1595.786	1353.471
-13.648	32.518	1594.474	1351.888
-12.633	32.464	1593.057	1350.245
-11.619	32.472	1591.399	1348.850
-10.604	32.540	1589.468	1347.640
-9.590	32.591	1588.395	1347.043
-8.575	32.607	1587.278	1346.156
-7.560	32.485	1586.211	1344.331
-6.546	32.570	1584.728	1343.622
-5.531	32.512	1583.928	1342.477
-4.517	32.501	1582.440	1341.084
-3.502	32.550	1581.374	1340.480
-2.487	32.615	1579.902	1339.642
-1.473	32.328	1568.234	1327.669
-0.458	29.623	1548.522	1292.042
0.556	25.825	1549.858	1260.916
1.571	23.417	1573.120	1262.599
2.586	22.928	1585.597	1268.991
3.600	20.374	1531.922	1208.173
4.615	12.367	1423.874	1070.871
5.629	5.765	1361.338	982.489
6.644	4.713	1354.267	970.735
7.659	4.661	1352.010	968.709
8.673	4.615	1350.930	967.564
9.688	4.721	1349.071	966.803
10.702	4.471	1347.121	963.767
11.717	7.629	1352.715	987.336
12.731	15.083	1366.660	1044.070
13.746	19.826	1372.586	1078.139
14.761	19.343	1371.051	1073.834
15.775	18.354	1368.176	1065.334
16.790	17.241	1365.374	1056.146
17.804	16.435	1363.567	1049.652
18.819	16.132	1361.807	1046.326
19.834	15.836	1360.454	1043.357
20.848	15.567	1359.334	1040.737
21.863	15.343	1358.336	1038.497
22.877	15.193	1356.895	1036.376
23.892	15.156	1356.487	1035.741
24.907	15.170	1355.553	1035.022
25.921	15.244	1354.642	1034.694
26.936	15.213	1353.539	1033.566
27.950	15.295	1352.353	1033.075
28.965	15.315	1351.666	1032.586
29.980	15.383	1350.534	1032.046
30.994	15.469	1349.354	1031.583
32.009	15.635	1347.934	1031.422
33.023	15.510	1346.736	1029.650
34.038	15.403	1345.740	1028.139
35.053	15.301	1344.658	1026.602
36.067	15.347	1343.511	1025.916
37.082	15.456	1342.506	1025.721
38.096	15.396	1341.598	1024.569
39.111	15.541	1340.215	1024.307
40.126	15.356	1340.035	1022.954
41.140	15.055	1339.740	1020.799
42.155	15.121	1338.682	1020.306
43.169	15.067	1338.430	1019.692
44.184	15.022	1338.255	1019.195
45.199	15.052	1337.767	1018.919
46.213	15.184	1337.027	1019.068
47.228	15.323	1336.134	1019.140
48.242	15.361	1334.718	1018.201
49.257	15.273	1333.613	1016.732
50.271	15.262	1332.368	1015.630
51.286	15.235	1331.177	1014.468
52.301	15.340	1329.225	1013.527
53.315	15.261	1328.397	1012.328
54.330	15.171	1327.489	1011.003
55.344	15.115	1326.046	1009.476
56.359	15.167	1325.150	1009.016
57.374	15.141	1324.500	1008.278
58.388	15.051	1323.729	1007.058
59.403	15.027	1323.540	1006.681
60.417	15.040	1322.471	1005.857
61.432	15.072	1321.355	1005.112
62.447	14.977	1320.445	1003.764
63.461	14.960	1319.249	1002.663
64.476	14.912	1318.247	1001.527
65.490	14.930	1317.449	1000.937
66.505	15.003	1315.536	999.830
67.520	15.044	1314.388	999.116
68.534	15.087	1313.242	998.415
69.549	15.060	1312.279	997.431
70.563	15.054	1311.273	996.540
71.578	14.920	1310.379	994.975
72.593	14.956	1309.450	994.399
73.607	14.920	1308.332	993.248
74.622	14.894	1307.421	992.312
75.636	14.912	1307.221	992.178
76.651	14.919	1306.487	991.577
77.666	14.946	1305.864	991.177
78.680	14.965	1305.479	990.912
79.695	14.880	1304.668	989.703
80.709	14.986	1303.676	989.489
81.724	15.072	1302.936	989.349
82.739	15.070	1302.105	988.622
83.753	15.194	1301.394	988.725
84.768	15.254	1300.183	988.071
85.782	15.362	1299.251	987.910
86.797	15.354	1298.150	986.936
87.812	15.284	1296.678	985.319
88.826	15.254	1295.964	984.511
89.841	15.380	1294.728	984.229
90.855	15.283	1293.980	983.004
91.870	15.341	1292.941	982.466
92.884	15.483	1292.147	982.610
93.899	15.454	1290.985	981.468
94.914	15.555	1290.187	981.366
95.928	15.337	1290.184	980.000
96.943	15.403	1288.667	979.148
97.957	15.380	1287.659	978.162
98.972	15.458	1286.156	977.387
99.987	15.395	1285.960	976.786
101.001	15.410	1284.558	975.720
102.016	15.412	1283.490	974.834
103.030	15.388	1282.629	973.956
104.045	15.386	1281.733	973.177
105.060	15.337	1280.608	971.950
106.074	15.236	1278.927	970.009
107.089	14.966	1278.065	967.703
108.103	15.048	1276.360	966.802
109.118	14.976	1275.559	965.696
110.133	14.985	1273.681	964.238
111.147	15.042	1272.440	963.545
112.162	15.065	1271.222	962.666
113.176	15.191	1269.943	962.336
114.191	15.120	1269.269	961.336
115.206	15.235	1267.916	960.883
116.220	15.173	1266.610	959.452
117.235	15.035	1266.407	958.423
118.249	15.025	1265.424	957.538
119.264	15.116	1263.474	956.497
120.279	15.138	1262.761	955.999
121.293	15.022	1261.483	954.288
122.308	14.963	1260.672	953.252
123.322	14.988	1259.920	952.741
124.337	14.914	1258.463	951.136
125.352	14.946	1257.832	950.754
126.366	14.983	1256.686	950.015
127.381	15.065	1255.067	949.173
128.395	14.988	1254.576	948.280
129.410	15.038	1253.740	947.846
130.424	15.067	1252.846	947.249
131.439	15.039	1251.960	946.342
132.454	15.064	1251.185	945.809
133.468	15.187	1249.989	945.518
134.483	15.220	1249.108	944.956
135.497	15.155	1248.863	944.317
136.512	15.197	1247.298	943.290
137.527	15.143	1246.199	942.072
138.541	15.157	1244.788	940.998
139.556	15.258	1243.084	940.193
140.570	15.378	1242.117	940.050
141.585	15.468	1241.284	939.843
142.600	15.396	1240.345	938.646
143.614	15.427	1239.295	937.938
144.629	15.440	1238.042	936.981
145.643	15.378	1237.175	935.898
146.658	15.365	1235.787	934.692
147.673	15.302	1234.519	933.298
148.687	15.213	1233.512	931.960
149.702	15.248	1232.026	930.952
150.716	15.149	1231.015	929.556
151.731	15.213	1230.024	929.076
152.746	15.282	1228.940	928.559
153.760	15.303	1227.148	927.241
154.775	15.311	1226.518	926.725
155.789	15.411	1225.256	926.240
156.804	15.372	1224.135	925.099
157.819	15.345	1223.437	924.342
158.833	15.493	1222.397	924.286
159.848	15.578	1221.316	923.856
160.862	15.440	1220.951	922.736
161.877	15.373	1219.286	921.028
162.892	15.353	1218.267	920.072
163.906	15.254	1217.124	918.585
164.921	15.313	1216.562	918.403
165.935	15.452	1215.724	918.447
166.950	15.292	1215.526	917.343
167.964	15.411	1214.370	917.036
168.979	15.299	1213.720	915.855
169.994	15.346	1212.932	915.438
171.008	15.389	1212.330	915.136
172.023	15.531	1211.184	914.961
173.037	15.622	1210.543	914.891
174.052	15.506	1209.761	913.588
175.067	15.369	1208.877	912.099
176.081	15.369	1207.712	911.138
177.096	15.363	1206.824	910.354
178.110	15.433	1205.667	909.780
179.125	15.463	1204.518	908.994
180.140	15.438	1203.386	907.925
181.154	15.540	1202.020	907.366
182.169	15.558	1200.880	906.522
183.183	15.641	1199.639	905.953
184.198	15.744	1198.499	905.563
185.213	15.751	1197.929	905.090
186.227	15.694	1196.727	903.796
187.242	15.740	1195.722	903.207
188.256	15.785	1194.894	902.742
189.271	15.755	1194.339	902.080
190.286	15.700	1192.960	900.668
191.300	15.489	1191.933	898.681
192.315	15.368	1191.456	897.592
193.329	15.340	1190.762	896.840
194.344	15.369	1190.333	896.593
195.359	15.481	1189.751	896.678
196.373	15.612	1189.059	896.777
197.388	15.680	1188.778	896.845
198.402	15.889	1188.163	897.418
199.417	15.998	1187.287	897.255
200.432	16.083	1186.313	896.891
201.446	16.024	1185.995	896.258
202.461	16.009	1184.816	895.209
203.475	16.074	1184.054	894.899
204.490	15.952	1182.820	893.243
205.504	15.818	1182.130	891.931
206.519	15.833	1180.467	890.675
207.534	15.829	1179.267	889.671
208.548	15.831	1178.285	888.863
209.563	15.877	1177.776	888.643
210.577	15.895	1176.697	887.845
211.592	15.964	1175.997	887.602
212.607	16.030	1175.309	887.349
213.621	15.959	1174.271	886.114
214.636	16.064	1173.285	885.843
215.650	16.141	1172.480	885.560
216.665	16.160	1171.348	884.727
217.680	16.245	1170.524	884.475
218.694	16.259	1169.820	883.937
219.709	16.069	1169.369	882.525
220.723	16.223	1168.699	882.743
221.738	16.197	1167.481	881.613
222.753	16.220	1166.822	881.155
223.767	16.169	1166.047	880.228
224.782	16.218	1165.866	880.269
225.796	16.334	1164.900	880.066
226.811	16.246	1164.182	878.983
227.826	16.102	1163.871	877.922
228.840	16.273	1162.892	877.996
229.855	16.281	1162.145	877.397
230.869	16.338	1161.163	876.874
231.884	16.193	1160.540	875.575
232.899	16.073	1159.764	874.289
233.913	16.046	1159.125	873.589
234.928	16.142	1158.229	873.336
235.942	16.129	1157.272	872.466
236.957	16.107	1156.592	871.766
237.972	16.186	1156.208	871.804
238.986	16.101	1155.736	870.934
240.001	16.172	1154.946	870.630
241.015	16.259	1153.481	869.895
242.030	16.171	1152.876	868.906
243.045	16.232	1152.286	868.698
244.059	16.365	1151.275	868.545
245.074	16.389	1150.515	868.017
246.088	16.323	1150.282	867.425
247.103	16.386	1149.473	867.064
248.117	16.461	1148.455	866.605
249.132	16.562	1148.098	866.776
250.147	16.723	1147.287	866.911
251.161	16.738	1146.147	866.047
252.176	16.759	1145.402	865.514
253.190	16.792	1145.357	865.575
254.205	16.850	1144.984	865.512
255.220	16.754	1144.416	864.517
256.234	16.856	1143.446	864.224
257.249	16.813	1142.844	863.477
258.263	16.919	1141.725	863.091
259.278	16.870	1141.380	862.508
260.293	16.973	1141.038	862.696
261.307	17.012	1140.341	862.293
262.322	17.078	1139.516	861.927
263.336	17.001	1139.356	861.338
264.351	16.985	1138.428	860.479
265.366	16.972	1137.658	859.756
266.380	17.050	1136.738	859.378
267.395	16.956	1136.384	858.561
268.409	16.897	1135.287	857.356
269.424	17.003	1134.285	857.059
270.439	17.015	1133.993	856.824
271.453	17.020	1133.305	856.251
272.468	16.966	1132.300	855.147
273.482	16.838	1131.741	854.003
274.497	16.967	1130.821	853.882
275.512	16.970	1130.288	853.421
276.526	16.942	1129.429	852.556
277.541	16.874	1129.031	851.837
278.555	16.967	1128.601	851.906
279.570	17.065	1127.774	851.696
280.585	17.174	1126.764	851.404
281.599	17.211	1125.838	850.816
282.614	17.119	1124.786	849.482
283.628	17.065	1123.558	848.211
284.643	17.138	1122.622	847.794
285.657	17.217	1121.760	847.464
286.672	17.153	1121.252	846.686
287.687	17.152	1120.223	845.827
288.701	17.116	1119.430	844.978
289.716	17.218	1118.514	844.715
290.730	17.174	1118.114	844.120
291.745	17.201	1117.414	843.653
292.760	17.021	1117.390	842.664
293.774	17.263	1116.240	842.924
294.789	17.275	1115.776	842.558
295.803	17.324	1115.034	842.164
296.818	17.276	1114.361	841.346
297.833	17.254	1113.389	840.430
298.847	17.278	1112.379	839.712
299.862	17.327	1111.961	839.565
300.876	17.388	1111.120	839.153
301.891	17.430	1110.352	838.707
302.906	17.420	1109.838	838.194
303.920	17.553	1109.139	838.246
304.935	17.614	1108.507	837.995
305.949	17.660	1108.023	837.785
306.964	17.514	1107.856	836.862
307.979	17.636	1106.322	836.228
308.993	17.549	1105.540	835.140
310.008	17.587	1105.383	835.130
311.022	17.530	1104.858	834.380
312.037	17.530	1103.666	833.406
313.052	17.574	1102.572	832.725
314.066	17.499	1101.569	831.526
315.081	17.418	1100.791	830.469
316.095	17.414	1099.834	829.653
317.110	17.394	1098.990	828.846
318.125	17.359	1098.577	828.294
319.139	17.444	1097.953	828.162
320.154	17.409	1097.110	827.280
321.168	17.441	1096.560	826.948
322.183	17.527	1095.443	826.451
323.197	17.413	1095.552	825.908
324.212	17.398	1095.246	825.530
325.227	17.587	1094.366	825.711
326.241	17.498	1093.748	824.743
327.256	17.508	1092.768	823.977
328.270	17.519	1091.563	823.049
329.285	17.530	1091.173	822.736
330.300	17.495	1090.045	821.643
331.314	17.466	1089.053	820.682
332.329	17.536	1087.944	820.110
333.343	17.710	1086.920	820.102
334.358	17.721	1086.602	819.847
335.373	17.680	1086.114	819.207
336.387	17.767	1085.069	818.765
337.402	17.735	1084.173	817.863
338.416	17.831	1083.615	817.829
339.431	17.785	1083.034	817.100
340.446	17.888	1082.414	817.049
341.460	17.916	1081.835	816.673
342.475	17.979	1081.051	816.312
343.489	18.089	1080.022	815.988
344.504	18.107	1079.017	815.241
345.519	18.124	1078.215	814.644
346.533	18.192	1077.302	814.204
347.548	18.235	1076.787	813.952
348.562	18.140	1075.964	812.803
349.577	17.975	1075.923	811.917
350.592	17.998	1074.665	811.008
351.606	17.852	1074.053	809.780
352.621	18.008	1072.799	809.503
353.635	17.943	1072.324	808.761
354.650	17.800	1072.400	808.074
355.665	17.950	1071.122	807.748
356.679	17.979	1070.392	807.263
357.694	18.037	1069.839	807.048
358.708	18.118	1069.160	806.845
359.723	17.962	1068.856	805.810
360.738	18.086	1068.318	805.916
361.752	18.105	1067.597	805.392
362.767	18.257	1066.913	805.520
363.781	18.147	1066.455	804.587
364.796	18.227	1065.901	804.473
365.810	18.355	1065.304	804.553
366.825	18.491	1064.584	804.577
367.840	18.517	1064.189	804.328
368.854	18.470	1063.976	803.875
369.869	18.408	1063.285	802.990
370.883	18.481	1062.191	802.434
371.898	18.342	1061.208	800.971
372.913	18.369	1060.720	800.661
373.927	18.514	1059.778	800.554
374.942	18.592	1059.739	800.818
375.956	18.532	1059.265	800.108
376.971	18.573	1058.373	799.557
377.986	18.608	1057.805	799.218
379.000	18.469	1057.767	798.470
380.015	18.717	1056.969	798.953
381.029	18.772	1056.345	798.665
382.044	18.669	1055.620	797.567
383.059	18.732	1054.351	796.833
384.073	18.665	1053.930	796.134
385.088	18.725	1053.437	795.969
386.102	18.696	1052.766	795.254
387.117	18.647	1051.651	794.116
388.132	18.658	1050.261	793.048
389.146	18.588	1049.841	792.337
390.161	18.512	1049.085	791.344
391.175	18.617	1048.141	791.046
392.190	18.645	1047.647	790.736
393.205	18.841	1046.888	790.993
394.219	18.762	1046.281	790.101
395.234	18.682	1045.190	788.842
396.248	18.626	1044.383	787.902
397.263	18.698	1043.190	787.263
398.278	18.689	1042.529	786.656
399.292	18.658	1041.806	785.899
400.307	18.545	1041.348	784.967
401.321	18.442	1040.949	784.122
402.336	18.488	1040.405	783.854
403.350	18.715	1038.982	783.751
404.365	18.635	1038.768	783.156
405.380	18.722	1037.949	782.864
406.394	18.873	1036.767	782.592
407.409	18.784	1036.555	781.958
408.423	18.981	1035.687	782.128
409.438	18.865	1035.307	781.246
410.453	18.971	1034.367	780.949
411.467	19.118	1034.201	781.419
412.482	19.071	1033.180	780.367
413.496	19.143	1032.755	780.304
414.511	19.125	1032.042	779.613
415.526	19.182	1031.666	779.518
416.540	19.220	1031.202	779.272
417.555	19.248	1030.631	778.898
418.569	19.165	1029.844	777.859
419.584	19.186	1029.295	777.470
420.599	19.185	1029.120	777.267
421.613	151.137	1401.211	1794.035
422.628	137.852	1455.409	1794.138
