DTS Sentinel unit serial number:	SN413079Multiplexer serial number:	ORYXHardware model number:	OX4-SRSoftware version number:	ORYX F/W v4.00 Oryx Data Collector v3.7.2.0data status	okinstallation	princeton_trtdifferential loss correction	single-endedforward channel	channel 2reverse channel	N/Adate	2019/09/15time	04:59:34forward acquisition time	60.00reverse acquisition time	0.00gamma	496.2192k internal	0.2326k external	0.2326temperature offset calibration	1.0044default loss term (dB/km)	0.3790temperature slope calibration	1.0000multiplexer offset coefficient	1.0000multiplexer slope coefficient	1.0000fibre end	0.00T internal ref (°C)	30.69T ext. ref 1 (°C)	4.86T ext. ref 2 (°C)	25.13length (m)	temperature (°C)	Stokes	anti-Stokes-747.200	-200.000	-0.028	0.284
-746.185	-163.957	-0.271	0.013
-745.171	-113.356	-0.369	-0.073
-744.156	-123.547	0.117	-0.019
-743.142	-200.000	0.098	-0.496
-742.127	-29.830	0.303	0.174
-741.112	339.729	0.176	0.346
-740.098	-200.000	0.014	0.357
-739.083	-44.761	0.053	-0.026
-738.069	170.126	0.113	-0.163
-737.054	-200.000	-0.021	0.126
-736.039	800.000	-0.051	-0.223
-735.025	580.336	0.069	0.170
-734.010	-92.324	-0.288	0.082
-732.996	9.963	-0.169	0.129
-731.981	-200.000	0.006	0.043
-730.966	172.030	0.069	-0.100
-729.952	232.583	-0.156	-0.258
-728.937	-87.352	-0.082	-0.025
-727.923	-200.000	-0.085	-0.398
-726.908	-105.405	-0.313	-0.072
-725.894	301.405	0.102	-0.189
-724.879	156.793	-0.108	0.150
-723.864	50.345	0.266	0.253
-722.850	-81.307	-0.264	-0.088
-721.835	23.475	-0.145	0.120
-720.821	427.420	-0.117	-0.255
-719.806	-166.330	-0.388	-0.016
-718.791	-54.784	0.265	-0.121
-717.777	-149.990	-0.215	-0.017
-716.762	-165.183	0.260	-0.012
-715.748	214.374	-0.086	0.136
-714.733	-78.951	0.401	-0.138
-713.718	248.632	0.062	0.105
-712.704	-56.953	-0.173	-0.077
-711.689	-119.322	-0.189	-0.033
-710.675	-36.783	0.082	0.044
-709.660	44.603	-0.227	-0.211
-708.645	272.541	0.100	-0.177
-707.631	-200.000	0.031	-0.496
-706.616	800.000	0.028	0.088
-705.602	-134.035	0.349	-0.043
-704.587	108.605	-0.252	0.303
-703.572	80.421	0.170	0.184
-702.558	46.665	0.111	0.103
-701.543	78.582	-0.325	-0.350
-700.529	-72.112	-0.410	-0.153
-699.514	-18.665	-0.052	-0.033
-698.499	-158.646	-0.110	0.006
-697.485	-135.131	0.078	0.009
-696.470	-200.000	0.026	0.130
-695.456	21.006	0.050	-0.041
-694.441	-2.990	-0.141	0.099
-693.426	-200.000	0.011	0.205
-692.412	-45.104	0.159	0.080
-691.397	-105.782	-0.343	0.078
-690.383	-200.000	-0.005	0.165
-689.368	368.892	-0.168	-0.341
-688.354	1.344	0.040	0.029
-687.339	-45.469	-0.214	-0.107
-686.324	800.000	-0.025	-0.084
-685.310	-74.450	-0.394	-0.143
-684.295	-8.259	0.045	0.031
-683.281	-71.268	0.060	0.023
-682.266	-21.940	0.191	-0.117
-681.251	-76.976	-0.217	0.076
-680.237	666.978	0.093	0.242
-679.222	-77.347	-0.301	0.105
-678.208	-200.000	0.012	-0.053
-677.193	-200.000	-0.081	-0.386
-676.178	-173.485	-0.346	0.010
-675.164	-33.863	-0.227	-0.126
-674.149	-88.240	-0.113	0.034
-673.135	34.811	-0.122	-0.107
-672.120	800.000	-0.044	0.123
-671.105	6.818	-0.092	-0.069
-670.091	263.672	0.069	-0.121
-669.076	-151.782	-0.608	0.045
-668.062	161.922	0.077	0.109
-667.047	-200.000	-0.049	0.271
-666.032	78.539	-0.167	0.179
-665.018	19.691	-0.068	-0.055
-664.003	800.000	-0.044	-0.166
-662.989	183.556	0.059	-0.088
-661.974	160.944	0.042	-0.059
-660.959	45.307	0.054	0.050
-659.945	-200.000	-0.002	0.141
-658.930	-32.564	-0.190	-0.106
-657.916	14.135	-0.111	-0.087
-656.901	197.915	-0.125	0.193
-655.886	-139.565	0.360	-0.039
-654.872	548.989	-0.035	-0.085
-653.857	-89.506	-0.136	0.040
-652.843	51.784	0.062	-0.059
-651.828	-139.771	-0.249	0.027
-650.814	-200.000	-0.019	-0.116
-649.799	-200.000	-0.009	-0.231
-648.784	800.000	-0.127	0.359
-647.770	800.000	0.095	0.383
-646.755	-200.000	-0.039	0.190
-645.741	-119.077	0.109	-0.019
-644.726	190.580	0.082	0.125
-643.711	-200.000	0.039	-0.389
-642.697	-200.000	0.002	0.066
-641.682	-200.000	-0.045	0.200
-640.668	-143.731	0.344	0.033
-639.653	-200.000	-0.024	0.279
-638.638	-28.549	0.281	0.163
-637.624	-200.000	0.068	-0.349
-636.609	313.486	0.061	0.115
-635.595	-200.000	0.013	-0.099
-634.580	363.106	-0.099	-0.200
-633.565	-103.693	0.135	-0.032
-632.551	79.201	-0.133	0.143
-631.536	664.199	0.084	-0.217
-630.522	-200.000	0.018	-0.511
-629.507	11.773	-0.100	0.077
-628.492	407.502	-0.069	-0.146
-627.478	-179.423	0.294	0.006
-626.463	800.000	-0.049	0.196
-625.449	200.788	0.052	-0.080
-624.434	800.000	-0.086	0.239
-623.419	567.256	0.035	-0.086
-622.405	126.599	-0.210	0.266
-621.390	329.230	0.080	0.154
-620.376	4.577	-0.176	0.130
-619.361	679.428	-0.137	0.357
-618.346	-111.312	-0.278	0.057
-617.332	-51.448	-0.237	-0.111
-616.317	171.313	-0.269	-0.387
-615.303	76.845	0.186	-0.199
-614.288	800.000	-0.089	0.283
-613.273	163.950	0.109	-0.154
-612.259	129.612	-0.243	-0.311
-611.244	-66.994	-0.295	-0.117
-610.230	-200.000	-0.120	0.679
-609.215	-200.000	-0.036	-0.298
-608.201	116.664	-0.160	-0.196
-607.186	-200.000	0.014	0.311
-606.171	-200.000	0.002	0.215
-605.157	800.000	0.047	-0.176
-604.142	-200.000	0.066	-0.340
-603.128	-136.602	-0.136	0.016
-602.113	800.000	-0.033	0.092
-601.098	-104.928	-0.039	0.009
-600.084	325.380	0.110	-0.210
-599.069	60.393	-0.151	-0.150
-598.055	-98.458	-0.361	0.093
-597.040	245.379	-0.077	0.130
-596.025	-200.000	0.052	-0.279
-595.011	501.788	-0.144	-0.332
-593.996	447.579	-0.100	-0.221
-592.982	-116.218	0.286	-0.053
-591.967	800.000	0.057	-0.238
-590.952	-11.978	-0.189	-0.124
-589.938	-200.000	-0.044	-0.413
-588.923	-200.000	-0.010	-0.096
-587.909	267.226	0.147	0.257
-586.894	800.000	-0.088	-0.252
-585.879	266.262	-0.171	0.300
-584.865	-200.000	-0.020	0.390
-583.850	84.461	-0.120	-0.132
-582.836	-200.000	-0.080	0.360
-581.821	279.412	0.155	0.277
-580.806	800.000	-0.010	-0.030
-579.792	-200.000	-0.010	-0.209
-578.777	-200.000	0.014	-0.308
-577.763	11.423	-0.163	-0.125
-576.748	143.882	0.171	-0.228
-575.733	-200.000	0.024	0.145
-574.719	-45.656	-0.072	-0.036
-573.704	39.418	-0.198	0.177
-572.690	76.381	0.064	0.068
-571.675	26.118	-0.089	0.075
-570.661	-200.000	-0.003	0.208
-569.646	200.166	-0.009	0.015
-568.631	618.657	-0.137	0.346
-567.617	-200.000	-0.027	0.228
-566.602	-124.095	0.178	-0.028
-565.588	-2.866	-0.092	0.064
-564.573	-95.022	-0.215	-0.058
-563.558	-200.000	-0.010	-0.141
-562.544	84.278	-0.167	0.183
-561.529	-124.162	0.339	-0.053
-560.515	98.648	0.175	0.203
-559.500	800.000	-0.065	0.203
-558.485	800.000	-0.119	0.416
-557.471	-200.000	-0.005	0.036
-556.456	150.442	-0.165	-0.225
-555.442	-200.000	-0.004	-0.592
-554.427	-116.774	0.313	0.058
-553.412	-147.729	-0.286	-0.024
-552.398	-200.000	0.001	-0.063
-551.383	288.751	-0.043	-0.078
-550.369	107.173	0.102	-0.121
-549.354	253.889	0.040	0.068
-548.339	52.939	-0.091	0.087
-547.325	-138.019	0.592	0.066
-546.310	59.810	-0.142	-0.140
-545.296	-200.000	0.034	0.181
-544.281	568.562	0.142	0.346
-543.266	540.298	-0.044	0.106
-542.252	-148.352	0.253	-0.021
-541.237	-200.000	-0.009	0.061
-540.223	-200.000	-0.001	0.223
-539.208	190.055	-0.039	-0.059
-538.193	800.000	-0.025	0.105
-537.179	17.077	0.471	0.374
-536.164	34.839	-0.073	-0.064
-535.150	-45.842	-0.120	0.059
-534.135	-200.000	-0.065	-0.288
-533.121	-18.466	0.159	-0.100
-532.106	-135.964	-0.427	-0.050
-531.091	-46.127	0.063	-0.031
-530.077	-14.542	0.159	0.102
-529.062	433.344	0.057	-0.123
-528.048	183.552	-0.071	0.105
-527.033	-131.120	-0.037	0.005
-526.018	-200.000	0.035	-0.189
-525.004	-72.311	0.378	-0.140
-523.989	-29.743	-0.209	-0.119
-522.975	-200.000	0.018	0.189
-521.960	-75.546	0.132	-0.047
-520.945	-107.207	-0.301	-0.066
-519.931	-200.000	0.032	0.222
-518.916	-131.090	0.229	0.031
-517.902	-200.000	-0.023	0.278
-516.887	-109.049	0.260	0.055
-515.872	-144.244	0.169	-0.016
-514.858	19.646	0.360	0.290
-513.843	-200.000	-0.032	0.308
-512.829	-74.233	0.295	-0.107
-511.814	703.507	0.080	-0.210
-510.799	-80.374	0.171	0.057
-509.785	361.480	0.113	-0.227
-508.770	-200.000	-0.001	-0.281
-507.756	-174.784	-0.264	-0.007
-506.741	-200.000	-0.033	0.188
-505.726	-200.000	0.076	0.357
-504.712	133.037	0.186	-0.240
-503.697	-98.129	-0.345	-0.089
-502.683	49.034	-0.112	0.105
-501.668	-124.226	0.227	0.036
-500.653	-125.056	-0.172	0.026
-499.639	97.229	0.125	0.143
-498.624	120.565	-0.203	-0.251
-497.610	54.823	-0.101	-0.097
-496.595	-200.000	-0.009	-0.479
-495.581	-4.142	0.293	-0.202
-494.566	-42.505	-0.208	-0.106
-493.551	-146.032	-0.079	0.007
-492.537	800.000	0.101	-0.302
-491.522	523.339	0.054	-0.127
-490.508	339.650	0.150	-0.292
-489.493	299.981	0.061	0.113
-488.478	752.693	0.102	-0.276
-487.464	91.700	-0.083	0.094
-486.449	-70.503	0.164	0.062
-485.435	-200.000	-0.007	-0.243
-484.420	-69.836	-0.153	0.058
-483.405	-200.000	0.035	-0.282
-482.391	-30.365	-0.087	0.049
-481.376	-200.000	0.038	0.361
-480.362	662.830	0.111	0.287
-479.347	194.736	-0.114	0.173
-478.332	253.868	0.076	-0.130
-477.318	374.638	-0.179	-0.363
-476.303	800.000	-0.094	0.272
-475.289	-80.957	-0.096	-0.032
-474.274	78.969	-0.115	0.123
-473.259	-200.000	0.022	0.127
-472.245	53.469	0.305	0.292
-471.230	-200.000	-0.033	0.370
-470.216	-95.322	0.197	-0.053
-469.201	625.325	0.067	-0.170
-468.186	-117.898	0.034	-0.006
-467.172	-140.291	-0.474	0.049
-466.157	686.483	-0.077	0.200
-465.143	13.466	0.104	0.080
-464.128	0.041	-0.199	0.141
-463.113	800.000	-0.029	-0.119
-462.099	15.122	-0.148	-0.116
-461.084	-200.000	0.024	-0.194
-460.070	-20.200	0.232	0.143
-459.055	-131.693	0.306	0.040
-458.040	-63.986	-0.265	0.108
-457.026	-200.000	0.014	-0.066
-456.011	108.197	0.030	-0.036
-454.997	-123.757	0.193	-0.030
-453.982	421.889	-0.070	-0.149
-452.968	179.411	0.156	0.228
-451.953	800.000	0.076	0.326
-450.938	800.000	-0.072	-0.203
-449.924	-200.000	0.030	0.178
-448.909	189.567	-0.111	0.166
-447.895	-200.000	0.001	-0.199
-446.880	-200.000	-0.031	0.157
-445.865	-69.893	0.124	0.047
-444.851	-115.206	-0.218	0.041
-443.836	9.330	0.057	-0.043
-442.822	-130.988	-0.217	0.029
-441.807	-40.044	-0.061	0.032
-440.792	399.645	-0.004	0.008
-439.778	6.255	-0.344	0.254
-438.763	783.179	0.092	0.252
-437.749	16.987	0.089	0.070
-436.734	198.160	-0.208	-0.316
-435.719	-77.629	-0.162	-0.056
-434.705	32.388	0.223	0.192
-433.690	-200.000	-0.044	0.349
-432.676	479.693	-0.124	-0.281
-431.661	-200.000	-0.041	-0.309
-430.646	-200.000	-0.024	-0.282
-429.632	-23.797	0.241	-0.144
-428.617	-50.017	0.339	-0.160
-427.603	24.963	0.213	-0.176
-426.588	-160.795	-0.192	-0.010
-425.573	-200.000	-0.006	-0.276
-424.559	-200.000	-0.050	0.230
-423.544	800.000	-0.060	-0.181
-422.530	-102.322	0.270	-0.065
-421.515	42.115	0.066	0.059
-420.500	-200.000	0.019	-0.165
-419.486	-171.024	0.088	-0.003
-418.471	-34.827	0.129	0.070
-417.457	21.515	-0.237	-0.192
-416.442	-200.000	-0.025	-0.264
-415.428	-113.458	-0.065	0.013
-414.413	-200.000	0.035	-0.209
-413.398	-67.254	-0.056	0.022
-412.384	327.462	-0.045	-0.085
-411.369	-113.513	-0.103	0.020
-410.355	420.608	0.035	0.074
-409.340	39.359	0.070	-0.062
-408.325	-147.984	-0.191	0.016
-407.311	286.395	0.098	-0.176
-406.296	-23.467	0.300	0.179
-405.282	82.709	0.061	0.066
-404.267	408.447	0.077	0.163
-403.252	-194.988	-0.272	0.002
-402.238	148.325	0.212	-0.285
-401.223	25.139	0.253	-0.209
-400.209	220.831	0.148	-0.236
-399.194	26.392	-0.206	-0.171
-398.179	-200.000	-0.016	-0.275
-397.165	-200.000	-0.005	0.292
-396.150	800.000	0.037	-0.102
-395.136	800.000	-0.036	0.150
-394.121	800.000	0.058	-0.199
-393.106	-200.000	0.006	-0.069
-392.092	84.792	-0.218	0.238
-391.077	800.000	-0.169	-0.496
-390.063	-94.364	0.390	-0.106
-389.048	800.000	-0.015	-0.048
-388.033	131.416	0.187	-0.239
-387.019	-94.991	-0.208	0.056
-386.004	679.316	0.040	0.103
-384.990	800.000	0.023	0.097
-383.975	-115.670	-0.158	-0.029
-382.960	182.467	-0.022	-0.032
-381.946	62.822	-0.115	0.114
-380.931	32.912	-0.176	-0.151
-379.917	772.236	0.055	-0.149
-378.902	-134.158	-0.438	-0.054
-377.888	13.770	-0.050	0.039
-376.873	-0.658	-0.195	0.137
-375.858	800.000	-0.142	0.436
-374.844	-200.000	0.031	0.296
-373.829	448.912	-0.082	0.179
-372.815	411.681	0.041	-0.086
-371.800	342.732	0.138	-0.268
-370.785	-35.316	-0.139	-0.075
-369.771	-84.079	-0.155	0.049
-368.756	800.000	-0.010	-0.034
-367.742	187.193	-0.257	0.381
-366.727	61.553	0.188	-0.186
-365.712	-59.092	0.224	0.096
-364.698	-200.000	-0.026	-0.191
-363.683	-63.418	0.095	-0.039
-362.669	42.040	-0.370	0.334
-361.654	-52.080	-0.135	-0.062
-360.639	-200.000	-0.000	-0.211
-359.625	-200.000	0.054	-0.387
-358.610	167.398	0.065	-0.092
-357.596	10.551	-0.134	-0.101
-356.581	-200.000	0.053	0.275
-355.566	36.262	-0.141	-0.124
-354.552	403.337	0.042	0.087
-353.537	135.697	0.186	-0.240
-352.523	800.000	0.071	-0.235
-351.508	-120.903	0.206	0.034
-350.493	-186.063	-0.284	0.004
-349.479	15.199	-0.321	0.250
-348.464	-142.828	-0.301	0.029
-347.450	14.224	-0.392	0.303
-346.435	-200.000	-0.019	-0.226
-345.420	55.073	-0.117	0.112
-344.406	96.714	0.138	0.157
-343.391	251.853	-0.148	-0.251
-342.377	62.152	-0.288	-0.286
-341.362	302.086	0.033	-0.060
-340.348	420.958	-0.123	-0.262
-339.333	-104.525	0.230	0.053
-338.318	-96.734	-0.333	0.087
-337.304	70.374	-0.172	0.176
-336.289	-109.026	-0.122	-0.026
-335.275	-123.801	0.289	-0.045
-334.260	800.000	0.022	-0.079
-333.245	800.000	-0.149	0.464
-332.231	69.777	0.024	-0.024
-331.216	-54.393	0.258	0.116
-330.202	3.254	0.095	0.068
-329.187	-200.000	-0.003	0.149
-328.172	-122.698	-0.016	0.003
-327.158	-115.447	-0.139	0.026
-326.143	126.081	-0.122	-0.153
-325.129	774.404	0.154	0.417
-324.114	24.534	0.269	0.221
-323.099	437.532	0.029	0.064
-322.085	-152.229	-0.213	0.015
-321.070	-185.123	-0.294	0.005
-320.056	-111.010	0.132	0.027
-319.041	-1.672	0.074	0.051
-318.026	-148.047	-0.346	-0.028
-317.012	265.604	0.133	-0.229
-315.997	800.000	0.057	0.173
-314.983	94.899	0.060	-0.068
-313.968	-200.000	-0.025	0.172
-312.953	51.839	0.045	-0.042
-311.939	348.869	0.050	-0.098
-310.924	370.632	0.047	0.094
-309.910	207.274	-0.228	0.353
-308.895	125.571	0.085	0.107
-307.880	18.496	0.168	0.133
-306.866	800.000	0.071	0.235
-305.851	-200.000	-0.012	0.085
-304.837	6.416	-0.189	0.140
-303.822	-8.110	0.128	-0.086
-302.807	204.253	-0.105	0.161
-301.793	-123.701	-0.362	0.057
-300.778	-71.539	0.256	0.095
-299.764	-50.084	-0.284	-0.133
-298.749	212.395	-0.071	-0.111
-297.735	169.786	0.064	0.091
-296.720	-200.000	0.002	-0.138
-295.705	-200.000	-0.016	-0.317
-294.691	198.923	0.153	-0.232
-293.676	-54.703	0.177	-0.079
-292.662	800.000	-0.087	0.365
-291.647	-200.000	-0.021	0.172
-290.632	-200.000	0.004	0.088
-289.618	-171.044	0.159	-0.005
-288.603	208.551	-0.103	-0.160
-287.589	-14.361	0.144	-0.092
-286.574	800.000	0.071	-0.262
-285.559	-92.583	-0.204	-0.057
-284.545	-86.186	-0.069	-0.021
-283.530	-138.909	-0.081	0.009
-282.516	268.399	-0.205	0.357
-281.501	-67.799	-0.074	0.028
-280.486	83.530	-0.180	-0.194
-279.472	800.000	-0.034	0.121
-278.457	327.167	-0.120	0.227
-277.443	-147.273	0.111	-0.009
-276.428	800.000	-0.075	0.305
-275.413	-200.000	-0.028	-0.140
-274.399	-117.913	0.471	-0.084
-273.384	59.876	0.309	-0.302
-272.370	222.089	-0.142	0.227
-271.355	146.725	-0.105	-0.139
-270.340	-5.483	0.041	0.028
-269.326	-200.000	-0.009	-0.144
-268.311	143.034	-0.085	0.112
-267.297	-200.000	-0.028	0.526
-266.282	250.426	-0.119	-0.200
-265.267	800.000	0.038	0.125
-264.253	9.127	0.112	-0.084
-263.238	-41.580	0.224	0.114
-262.224	70.606	-0.087	0.089
-261.209	-76.146	-0.069	0.024
-260.195	-200.000	0.042	-0.282
-259.180	-20.176	-0.177	0.108
-258.165	7.057	0.303	0.224
-257.151	-184.080	-0.090	0.001
-256.136	-85.598	-0.129	-0.040
-255.122	-200.000	0.028	-0.146
-254.107	106.705	-0.231	-0.272
-253.092	-67.317	0.252	0.098
-252.078	274.810	0.112	0.196
-251.063	86.073	-0.202	0.220
-250.049	158.695	-0.094	0.130
-249.034	-195.572	0.184	0.001
-248.019	-23.528	-0.213	-0.127
-247.005	-75.590	0.353	-0.124
-245.990	365.636	-0.101	0.201
-244.976	83.347	-0.142	-0.153
-243.961	160.329	0.163	0.225
-242.946	-200.000	-0.072	0.318
-241.932	465.959	-0.083	-0.183
-240.917	102.502	0.167	0.194
-239.903	800.000	0.114	0.433
-238.888	800.000	0.048	0.208
-237.873	800.000	0.070	-0.219
-236.859	48.106	-0.229	-0.212
-235.844	-119.385	0.201	0.035
-234.830	185.814	-0.168	-0.246
-233.815	-98.633	0.525	-0.132
-232.800	-33.217	-0.100	-0.055
-231.786	800.000	-0.068	0.207
-230.771	117.022	0.108	0.132
-229.757	800.000	0.070	0.196
-228.742	-79.744	-0.327	0.109
-227.727	118.620	-0.189	-0.230
-226.713	493.851	-0.077	0.174
-225.698	76.027	0.070	0.073
-224.684	-200.000	0.046	-0.391
-223.669	237.402	-0.135	0.222
-222.655	-100.492	0.171	-0.042
-221.640	174.720	-0.151	-0.216
-220.625	-112.358	0.112	0.022
-219.611	-200.000	0.003	0.073
-218.596	389.005	0.133	-0.271
-217.582	-200.000	-0.002	0.254
-216.567	68.075	0.288	-0.291
-215.552	358.325	0.149	-0.294
-214.538	-200.000	0.002	0.331
-213.523	-8.615	-0.206	0.137
-212.509	149.179	-0.032	0.043
-211.494	-200.000	0.003	-0.103
-210.479	-115.587	0.312	0.058
-209.465	-174.364	0.259	0.007
-208.450	-133.033	-0.057	0.007
-207.436	311.187	0.147	-0.272
-206.421	-200.000	-0.034	-0.322
-205.406	-21.423	-0.309	-0.186
-204.392	800.000	0.071	0.242
-203.377	381.881	0.009	-0.018
-202.363	415.457	-0.083	0.175
-201.348	-61.445	-0.150	0.062
-200.333	598.106	-0.040	-0.099
-199.319	588.649	-0.143	0.347
-198.304	686.359	-0.024	-0.062
-197.290	-200.000	0.007	-0.132
-196.275	-58.614	-0.052	0.022
-195.260	-200.000	-0.033	0.227
-194.246	634.516	0.048	0.120
-193.231	176.161	-0.182	-0.261
-192.217	59.716	0.162	0.157
-191.202	0.122	-0.123	-0.087
-190.187	94.204	-0.226	0.253
-189.173	-161.498	0.147	-0.007
-188.158	231.952	-0.232	-0.375
-187.144	800.000	-0.008	0.032
-186.129	115.527	-0.120	-0.144
-185.114	800.000	-0.052	-0.190
-184.100	743.349	0.112	0.296
-183.085	-65.297	0.252	0.100
-182.071	754.564	0.081	0.215
-181.056	-200.000	0.029	-0.158
-180.042	-200.000	-0.015	0.287
-179.027	284.255	0.081	-0.144
-178.012	117.099	0.148	0.179
-176.998	17.318	0.126	-0.099
-175.983	-200.000	0.053	-0.314
-174.969	522.233	-0.081	-0.188
-173.954	505.566	-0.035	-0.079
-172.939	-200.000	0.031	-0.443
-171.925	524.337	0.126	-0.292
-170.910	66.615	0.024	0.024
-169.896	-200.000	0.033	-0.157
-168.881	383.595	0.181	0.367
-167.866	93.403	0.354	0.395
-166.852	-22.644	0.467	-0.279
-165.837	186.423	-0.028	0.041
-164.823	61.187	0.083	0.081
-163.808	-69.207	0.296	-0.112
-162.793	13.322	-0.235	0.179
-161.779	-62.650	0.580	0.237
-160.764	800.000	-0.026	-0.099
-159.750	-200.000	-0.004	-0.085
-158.735	-170.745	-0.409	0.014
-157.720	58.394	0.087	0.084
-156.706	-200.000	-0.006	-0.292
-155.691	-88.482	0.251	0.074
-154.677	800.000	0.027	-0.084
-153.662	56.550	0.360	-0.345
-152.647	2.431	0.082	-0.058
-151.633	-19.500	0.433	-0.265
-150.618	422.127	-0.155	0.328
-149.604	7.303	0.274	-0.201
-148.589	-15.084	0.335	0.211
-147.574	72.310	0.154	0.158
-146.560	800.000	-0.091	0.344
-145.545	-88.301	-0.203	-0.060
-144.531	72.419	0.044	-0.045
-143.516	-120.675	-0.436	-0.073
-142.502	800.000	-0.021	-0.082
-141.487	112.494	-0.221	0.264
-140.472	-145.432	0.220	-0.019
-139.458	-200.000	-0.060	-0.291
-138.443	486.475	-0.084	0.189
-137.429	-200.000	-0.017	0.113
-136.414	-56.081	0.095	-0.042
-135.399	71.770	0.173	-0.177
-134.385	-18.017	0.399	-0.246
-133.370	-49.443	-0.162	-0.076
-132.356	-71.758	0.215	-0.079
-131.341	45.662	-0.223	0.203
-130.326	75.732	-0.039	-0.040
-129.312	259.554	-0.188	-0.320
-128.297	800.000	-0.084	-0.304
-127.283	68.308	0.183	-0.185
-126.268	-105.555	-0.224	0.050
-125.253	-59.778	-0.350	0.148
-124.239	800.000	0.086	0.269
-123.224	0.006	-0.041	-0.029
-122.210	313.150	0.149	-0.275
-121.195	-39.960	-0.127	0.065
-120.180	-30.268	-0.162	-0.090
-119.166	-107.344	0.178	-0.039
-118.151	-55.996	0.138	-0.061
-117.137	59.143	-0.122	0.118
-116.122	-51.217	-0.126	0.058
-115.107	156.086	-0.238	-0.323
-114.093	85.510	-0.125	0.135
-113.078	196.012	0.134	0.200
-112.064	-55.203	-0.022	-0.010
-111.049	567.087	-0.150	0.358
-110.034	-99.602	0.256	0.063
-109.020	-200.000	0.003	-0.163
-108.005	76.966	0.066	-0.069
-106.991	83.156	0.087	-0.094
-105.976	588.877	0.119	0.288
-104.962	31.555	0.252	-0.213
-103.947	80.487	0.172	-0.182
-102.932	98.864	-0.225	0.255
-101.918	-113.871	-0.113	-0.022
-100.903	196.865	0.112	-0.167
-99.889	52.360	-0.113	0.106
-98.874	418.211	-0.069	0.145
-97.859	800.000	0.052	-0.167
-96.845	35.298	0.070	-0.061
-95.830	-88.500	-0.269	0.079
-94.816	62.405	-0.080	0.078
-93.801	800.000	-0.045	0.156
-92.786	-166.147	0.291	0.012
-91.772	-162.139	-0.071	0.004
-90.757	430.989	-0.181	0.385
-89.743	2.347	0.378	0.269
-88.728	-176.888	0.382	-0.009
-87.713	14.332	-0.332	0.255
-86.699	-105.154	-0.414	0.093
-85.684	451.014	-0.177	0.384
-84.670	-200.000	-0.037	0.359
-83.655	-99.331	0.200	0.050
-82.640	125.845	0.238	0.295
-81.626	-200.000	-0.004	0.082
-80.611	-40.167	0.167	0.086
-79.597	800.000	0.063	0.194
-78.582	-69.234	0.069	-0.026
-77.567	800.000	0.105	0.298
-76.553	-200.000	0.015	0.210
-75.538	-200.000	-0.022	-0.372
-74.524	-8.197	0.065	0.043
-73.509	-200.000	0.132	-0.650
-72.494	8.924	-0.198	-0.147
-71.480	-200.000	-0.021	0.298
-70.465	29.700	-0.175	0.147
-69.451	-57.506	0.132	0.057
-68.436	61.139	0.008	0.008
-67.422	-200.000	-0.071	0.306
-66.407	1.728	0.348	-0.246
-65.392	-102.197	-0.243	-0.057
-64.378	133.405	-0.176	-0.223
-63.363	20.395	-0.172	-0.137
-62.349	234.124	0.155	-0.252
-61.334	78.027	-1.117	-1.170
-60.319	177.956	0.475	0.680
-59.305	-200.000	-0.051	-0.793
-58.290	197.761	0.853	1.279
-57.276	270.739	0.665	1.148
-56.261	-200.000	102.316	583.334
-55.246	549.935	1432.969	3373.342
-54.232	186.461	2630.472	3843.968
-53.217	108.777	2280.900	2675.860
-52.203	39.829	1897.355	1671.806
-51.188	33.912	1686.012	1440.825
-50.173	31.242	1642.547	1383.870
-49.159	49.293	1693.500	1563.072
-48.144	50.490	1708.979	1586.306
-47.130	33.525	1668.165	1422.445
-46.115	30.840	1653.527	1389.898
-45.100	30.591	1649.248	1384.391
-44.086	30.561	1646.763	1382.029
-43.071	30.631	1643.737	1379.953
-42.057	30.520	1641.422	1377.138
-41.042	30.554	1639.309	1375.558
-40.027	30.539	1637.358	1373.760
-39.013	30.567	1635.742	1372.556
-37.998	30.562	1634.412	1371.343
-36.984	30.654	1632.687	1370.521
-35.969	30.705	1631.291	1369.673
-34.954	30.734	1629.695	1368.491
-33.940	30.677	1627.906	1366.512
-32.925	30.677	1626.432	1365.221
-31.911	30.674	1624.832	1363.807
-30.896	30.695	1622.744	1362.148
-29.881	30.711	1620.864	1360.637
-28.867	30.733	1619.473	1359.576
-27.852	30.647	1618.472	1358.053
-26.838	30.682	1616.791	1356.844
-25.823	30.768	1615.218	1356.098
-24.809	30.680	1614.044	1354.415
-23.794	30.602	1613.010	1352.924
-22.779	30.649	1611.135	1351.642
-21.765	30.693	1609.518	1350.555
-20.750	30.748	1607.668	1349.341
-19.736	30.686	1606.516	1347.873
-18.721	30.813	1604.916	1347.395
-17.706	30.716	1603.581	1345.524
-16.692	30.712	1601.800	1343.945
-15.677	30.679	1600.876	1342.877
-14.663	30.727	1599.554	1342.060
-13.648	30.751	1598.192	1341.043
-12.633	30.718	1596.509	1339.333
-11.619	30.654	1594.882	1337.462
-10.604	30.673	1593.520	1336.402
-9.590	30.621	1592.597	1335.199
-8.575	30.750	1591.013	1334.746
-7.560	30.783	1589.452	1333.620
-6.546	30.743	1588.470	1332.452
-5.531	30.724	1587.668	1331.594
-4.517	30.612	1586.762	1329.978
-3.502	30.668	1585.585	1329.342
-2.487	30.835	1583.510	1328.741
-1.473	30.413	1571.832	1315.896
-0.458	27.621	1552.433	1280.034
0.556	23.571	1553.370	1248.718
1.571	21.247	1577.364	1251.264
2.586	20.960	1590.621	1259.600
3.600	18.654	1537.397	1201.220
4.615	11.551	1431.443	1071.881
5.629	5.817	1370.672	990.168
6.644	5.028	1363.130	979.679
7.659	4.839	1361.954	977.561
8.673	4.777	1360.750	976.217
9.688	4.816	1359.144	975.221
10.702	4.901	1355.697	973.197
11.717	7.464	1360.783	992.809
12.731	14.398	1373.685	1045.793
13.746	18.911	1380.465	1079.264
14.761	18.917	1379.573	1078.508
15.775	17.964	1376.410	1069.973
16.790	16.742	1374.261	1060.557
17.804	16.047	1371.792	1054.213
18.819	15.552	1370.518	1050.048
19.834	15.394	1369.314	1048.041
20.848	15.203	1368.183	1045.896
21.863	14.929	1366.787	1043.026
22.877	14.841	1365.457	1041.371
23.892	14.806	1364.788	1040.551
24.907	14.791	1363.569	1039.437
25.921	14.727	1363.156	1038.630
26.936	14.869	1362.038	1038.566
27.950	14.894	1360.919	1037.779
28.965	14.952	1360.191	1037.491
29.980	14.938	1359.302	1036.638
30.994	15.066	1357.493	1035.953
32.009	15.061	1357.010	1035.463
33.023	15.147	1355.051	1034.408
34.038	15.033	1354.099	1032.888
35.053	14.898	1352.810	1030.980
36.067	14.949	1351.771	1030.411
37.082	14.995	1350.728	1029.809
38.096	14.942	1350.090	1028.906
39.111	15.120	1348.978	1029.060
40.126	14.974	1348.477	1027.692
41.140	14.802	1347.375	1025.705
42.155	14.716	1347.005	1024.802
43.169	14.651	1347.106	1024.391
44.184	14.687	1346.538	1024.090
45.199	14.597	1346.331	1023.289
46.213	14.743	1345.495	1023.458
47.228	14.867	1344.703	1023.522
48.242	14.879	1343.432	1022.538
49.257	14.839	1342.526	1021.515
50.271	14.865	1340.901	1020.345
51.286	14.843	1339.704	1019.210
52.301	14.941	1337.652	1018.157
53.315	14.911	1336.906	1017.314
54.330	14.848	1336.103	1016.234
55.344	14.806	1334.817	1014.909
56.359	14.704	1334.159	1013.698
57.374	14.729	1333.119	1012.970
58.388	14.718	1332.598	1012.422
59.403	14.631	1332.339	1011.604
60.417	14.673	1331.239	1010.934
61.432	14.684	1330.121	1010.063
62.447	14.588	1329.155	1008.660
63.461	14.612	1327.901	1007.762
64.476	14.508	1327.055	1006.404
65.490	14.536	1325.912	1005.620
66.505	14.622	1323.828	1004.465
67.520	14.698	1322.724	1003.998
68.534	14.642	1321.700	1002.793
69.549	14.627	1321.025	1002.104
70.563	14.578	1319.631	1000.666
71.578	14.641	1318.677	1000.232
72.593	14.474	1318.012	998.635
73.607	14.466	1317.155	997.849
74.622	14.502	1316.639	997.588
75.636	14.440	1315.828	996.515
76.651	14.466	1315.419	996.271
77.666	14.492	1314.832	995.892
78.680	14.500	1314.511	995.608
79.695	14.534	1313.065	994.633
80.709	14.614	1312.578	994.649
81.724	14.645	1311.975	994.292
82.739	14.662	1310.949	993.522
83.753	14.838	1310.025	993.784
84.768	14.993	1309.077	993.897
85.782	14.952	1308.008	992.752
86.797	14.964	1306.702	991.746
87.812	14.767	1305.620	989.672
88.826	14.906	1304.089	989.245
89.841	14.824	1303.818	988.469
90.855	15.007	1302.542	988.492
91.870	14.997	1301.745	987.740
92.884	14.965	1301.073	986.955
93.899	14.932	1300.214	986.024
94.914	15.035	1299.261	985.820
95.928	15.100	1298.342	985.415
96.943	14.959	1297.247	983.670
97.957	14.944	1296.372	982.832
98.972	14.957	1295.419	982.097
99.987	14.977	1294.371	981.332
101.001	14.989	1293.240	980.460
102.016	14.960	1292.478	979.623
103.030	14.985	1291.682	979.079
104.045	14.806	1291.445	977.765
105.060	14.886	1289.446	976.636
106.074	14.798	1287.749	974.753
107.089	14.679	1286.777	973.236
108.103	14.586	1285.874	971.922
109.118	14.584	1284.064	970.456
110.133	14.662	1282.722	969.809
111.147	14.681	1281.569	968.967
112.162	14.721	1280.300	968.148
113.176	14.684	1279.367	967.145
114.191	14.698	1278.559	966.531
115.206	14.852	1276.958	966.124
116.220	14.692	1275.956	964.358
117.235	14.764	1274.713	963.746
118.249	14.744	1273.763	962.826
119.264	14.740	1272.565	961.816
120.279	14.664	1271.742	960.668
121.293	14.760	1270.465	960.175
122.308	14.675	1269.651	958.984
123.322	14.665	1268.397	957.896
124.337	14.540	1267.683	956.555
125.352	14.728	1266.152	956.390
126.366	14.633	1265.481	955.255
127.381	14.655	1264.464	954.531
128.395	14.743	1263.186	953.982
129.410	14.657	1262.398	952.815
130.424	14.629	1261.978	952.253
131.439	14.691	1260.873	951.688
132.454	14.802	1259.305	951.052
133.468	14.773	1258.806	950.427
134.483	14.836	1258.147	950.204
135.497	14.747	1257.118	948.837
136.512	14.813	1255.554	947.946
137.527	14.791	1254.441	946.895
138.541	14.790	1253.096	945.790
139.556	14.866	1251.799	945.159
140.570	14.965	1250.597	944.726
141.585	15.011	1249.797	944.296
142.600	14.954	1248.607	942.997
143.614	15.042	1247.943	942.907
144.629	15.093	1246.553	942.059
145.643	14.961	1245.544	940.471
146.658	15.033	1244.567	940.056
147.673	14.907	1242.923	938.022
148.687	14.849	1241.802	936.766
149.702	14.785	1240.769	935.546
150.716	14.821	1239.568	934.759
151.731	14.767	1238.356	933.464
152.746	14.887	1236.984	933.013
153.760	14.891	1235.550	931.871
154.775	14.992	1234.859	931.834
155.789	15.042	1233.667	931.130
156.804	15.098	1232.927	930.796
157.819	15.165	1231.489	930.004
158.833	15.211	1230.611	929.513
159.848	15.102	1230.486	928.730
160.862	15.141	1229.353	928.010
161.877	14.986	1227.784	925.884
162.892	14.992	1226.510	924.878
163.906	15.051	1225.757	924.556
164.921	15.009	1224.880	923.578
165.935	14.995	1224.032	922.781
166.950	15.064	1223.359	922.571
167.964	15.106	1222.335	921.948
168.979	15.029	1222.034	921.213
169.994	15.081	1221.089	920.706
171.008	15.082	1220.218	919.977
172.023	15.214	1219.540	920.107
173.037	15.252	1218.534	919.476
174.052	15.228	1217.919	918.797
175.067	15.051	1217.109	917.138
176.081	14.994	1216.266	916.106
177.096	15.013	1215.479	915.540
178.110	15.044	1214.182	914.649
179.125	15.141	1213.041	914.239
180.140	15.183	1211.179	912.984
181.154	15.211	1209.931	912.114
182.169	15.164	1209.446	911.410
183.183	15.390	1207.686	911.235
184.198	15.340	1206.823	910.229
185.213	15.320	1205.898	909.345
186.227	15.336	1204.753	908.488
187.242	15.445	1203.999	908.429
188.256	15.460	1202.832	907.549
189.271	15.462	1202.069	906.900
190.286	15.358	1200.599	905.152
191.300	15.031	1200.066	902.907
192.315	15.088	1198.911	902.266
193.329	15.170	1198.365	902.216
194.344	15.106	1197.925	901.459
195.359	15.183	1197.840	901.728
196.373	15.299	1197.126	901.739
197.388	15.359	1196.701	901.657
198.402	15.442	1196.211	901.658
199.417	15.553	1195.679	901.770
200.432	15.614	1194.990	901.498
201.446	15.635	1194.154	900.899
202.461	15.605	1193.094	899.861
203.475	15.654	1192.184	899.356
204.490	15.704	1190.632	898.374
205.504	15.620	1189.365	896.891
206.519	15.489	1188.377	895.365
207.534	15.518	1187.247	894.591
208.548	15.594	1186.088	894.046
209.563	15.480	1185.933	893.243
210.577	15.698	1184.280	893.074
211.592	15.697	1183.471	892.380
212.607	15.749	1182.817	892.086
213.621	15.673	1181.984	890.974
214.636	15.629	1181.184	890.060
215.650	15.768	1180.018	889.838
216.665	15.773	1179.605	889.475
217.680	15.882	1178.445	889.096
218.694	15.949	1177.292	888.500
219.709	15.946	1176.932	888.136
220.723	15.785	1176.525	886.902
221.738	15.803	1175.400	886.067
222.753	15.889	1174.591	885.833
223.767	15.831	1174.120	885.095
224.782	15.938	1173.279	884.947
225.796	15.901	1173.129	884.558
226.811	15.982	1172.043	884.084
227.826	15.932	1171.187	883.100
228.840	15.934	1170.597	882.590
229.855	15.833	1169.926	881.473
230.869	15.975	1168.885	881.357
231.884	15.825	1168.270	880.030
232.899	15.848	1167.555	879.534
233.913	15.845	1166.722	878.814
234.928	15.753	1166.519	878.104
235.942	15.741	1165.271	877.022
236.957	15.868	1164.399	876.949
237.972	15.688	1164.137	875.736
238.986	15.876	1163.272	875.985
240.001	15.787	1162.797	875.087
241.015	15.757	1161.829	874.129
242.030	15.923	1160.986	874.279
243.045	15.979	1160.056	873.791
244.059	16.077	1158.847	873.312
245.074	16.120	1158.209	872.974
246.088	16.120	1157.599	872.437
247.103	16.163	1156.750	871.941
248.117	16.127	1156.271	871.318
249.132	16.241	1155.748	871.434
250.147	16.333	1154.878	871.176
251.161	16.476	1154.245	871.361
252.176	16.416	1153.729	870.583
253.190	16.378	1153.314	869.996
254.205	16.551	1152.276	870.029
255.220	16.523	1151.891	869.517
256.234	16.489	1151.141	868.699
257.249	16.451	1150.333	867.816
258.263	16.529	1149.728	867.683
259.278	16.547	1148.897	867.070
260.293	16.602	1148.471	866.958
261.307	16.650	1148.254	866.962
262.322	16.821	1146.737	866.614
263.336	16.658	1146.537	865.553
264.351	16.654	1146.222	865.219
265.366	16.692	1145.376	864.696
266.380	16.590	1144.836	863.695
267.395	16.668	1143.513	863.014
268.409	16.606	1142.979	862.219
269.424	16.623	1142.269	861.696
270.439	16.650	1141.790	861.395
271.453	16.618	1140.537	860.211
272.468	16.569	1139.807	859.335
273.482	16.508	1139.612	858.803
274.497	16.570	1138.652	858.319
275.512	16.534	1137.934	857.518
276.526	16.517	1137.403	856.952
277.541	16.556	1136.537	856.422
278.555	16.642	1135.922	856.320
279.570	16.757	1135.059	856.177
280.585	16.777	1133.940	855.359
281.599	16.805	1133.391	855.007
282.614	16.773	1132.211	853.881
283.628	16.820	1130.994	853.125
284.643	16.813	1130.200	852.415
285.657	16.808	1129.448	851.746
286.672	16.928	1128.309	851.414
287.687	16.912	1127.635	850.751
288.701	16.787	1127.109	849.654
289.716	16.844	1126.411	849.336
290.730	16.842	1125.485	848.552
291.745	16.937	1125.020	848.601
292.760	16.867	1124.112	847.494
293.774	16.919	1123.702	847.367
294.789	16.956	1123.420	847.263
295.803	17.078	1122.381	847.016
296.818	16.895	1121.387	845.278
297.833	16.925	1121.093	845.130
298.847	16.980	1120.142	844.613
299.862	16.926	1119.518	843.801
300.876	16.988	1118.492	843.261
301.891	17.076	1118.375	843.532
302.906	17.025	1117.629	842.643
303.920	17.093	1117.274	842.638
304.935	17.271	1116.330	842.735
305.949	17.340	1115.654	842.491
306.964	17.242	1115.034	841.465
307.979	17.280	1113.873	840.704
308.993	17.244	1113.472	840.144
310.008	17.216	1112.851	839.467
311.022	17.242	1112.046	838.912
312.037	17.263	1111.191	838.298
313.052	17.319	1109.610	837.307
314.066	17.065	1109.269	835.721
315.081	17.135	1108.219	835.201
316.095	17.183	1107.371	834.727
317.110	17.115	1106.725	833.828
318.125	17.157	1106.027	833.439
319.139	17.112	1105.700	832.897
320.154	17.230	1104.692	832.643
321.168	17.131	1104.511	831.946
322.183	17.134	1103.882	831.414
323.197	17.295	1102.921	831.405
324.212	17.192	1102.584	830.572
325.227	17.247	1101.937	830.283
326.241	17.365	1101.273	830.283
327.256	17.296	1100.282	829.126
328.270	17.295	1099.584	828.520
329.285	17.285	1098.623	827.674
330.300	17.313	1097.624	826.985
331.314	17.283	1097.010	826.304
332.329	17.277	1095.889	825.359
333.343	17.303	1094.896	824.665
334.358	17.316	1094.172	824.106
335.373	17.442	1093.478	824.120
336.387	17.464	1092.798	823.640
337.402	17.488	1092.016	823.097
338.416	17.490	1091.666	822.769
339.431	17.675	1090.685	822.852
340.446	17.528	1089.988	821.542
341.460	17.658	1089.692	821.873
342.475	17.717	1088.588	821.253
343.489	17.748	1087.798	820.735
344.504	17.822	1087.062	820.464
345.519	17.732	1085.991	819.148
346.533	17.898	1085.299	819.350
347.548	17.910	1084.739	818.913
348.562	17.821	1083.844	817.741
349.577	17.754	1082.934	816.657
350.592	17.586	1082.349	815.341
351.606	17.628	1081.377	814.737
352.621	17.629	1080.739	814.188
353.635	17.518	1080.430	813.356
354.650	17.682	1079.491	813.359
355.665	17.653	1078.567	812.454
356.679	17.758	1078.187	812.594
357.694	17.896	1077.170	812.414
358.708	17.860	1076.902	811.969
359.723	17.859	1076.408	811.518
360.738	17.771	1075.552	810.381
361.752	17.760	1075.112	809.926
362.767	17.832	1074.515	809.748
363.781	17.896	1073.823	809.459
364.796	17.944	1073.688	809.511
365.810	18.013	1072.590	808.941
366.825	18.099	1072.048	808.866
367.840	18.163	1071.936	809.011
368.854	18.166	1070.997	808.248
369.869	18.156	1070.309	807.610
370.883	18.069	1069.447	806.475
371.898	18.069	1068.918	806.006
372.913	18.091	1068.274	805.554
373.927	18.088	1067.667	805.008
374.942	18.205	1067.280	805.195
375.956	18.267	1066.454	804.796
376.971	18.149	1066.238	804.003
377.986	18.160	1065.765	803.631
379.000	18.332	1065.074	803.847
380.015	18.368	1064.299	803.358
381.029	18.395	1063.822	803.051
382.044	18.378	1063.282	802.496
383.059	18.319	1062.666	801.684
384.073	18.319	1061.542	800.764
385.088	18.390	1060.539	800.268
386.102	18.401	1060.013	799.852
387.117	18.337	1058.614	798.428
388.132	18.250	1058.049	797.525
389.146	18.207	1057.014	796.472
390.161	18.202	1056.375	795.900
391.175	18.336	1055.338	795.669
392.190	18.351	1055.333	795.664
393.205	18.426	1054.204	795.091
394.219	18.396	1053.495	794.347
395.234	18.486	1052.473	793.926
396.248	18.406	1051.563	792.798
397.263	18.362	1050.345	791.602
398.278	18.294	1050.098	791.035
399.292	18.281	1049.512	790.461
400.307	18.263	1048.792	789.768
401.321	18.228	1048.128	789.034
402.336	18.150	1047.356	788.028
403.350	18.320	1046.436	788.046
404.365	18.443	1045.884	788.127
405.380	18.424	1045.267	787.502
406.394	18.502	1044.314	787.073
407.409	18.545	1044.031	786.991
408.423	18.478	1043.613	786.297
409.438	18.626	1042.325	785.935
410.453	18.688	1041.740	785.709
411.467	18.786	1041.180	785.667
412.482	18.805	1040.465	785.145
413.496	18.760	1039.954	784.481
414.511	18.898	1039.263	784.524
415.526	18.928	1038.799	784.239
416.540	18.785	1038.607	783.371
417.555	18.812	1038.004	782.972
418.569	18.900	1037.384	782.835
419.584	18.873	1037.013	782.364
420.599	18.807	1036.542	781.637
421.613	151.254	1402.120	1796.892
422.628	138.189	1455.365	1796.978
