DTS Sentinel unit serial number:	SN413079Multiplexer serial number:	ORYXHardware model number:	OX4-SRSoftware version number:	ORYX F/W v4.00 Oryx Data Collector v3.7.2.0data status	okinstallation	princeton_trtdifferential loss correction	single-endedforward channel	channel 2reverse channel	N/Adate	2019/09/12time	19:28:48forward acquisition time	15.00reverse acquisition time	0.00gamma	496.2192k internal	0.2326k external	0.2326temperature offset calibration	1.0147default loss term (dB/km)	0.3790temperature slope calibration	1.0000multiplexer offset coefficient	1.0000multiplexer slope coefficient	1.0000fibre end	0.00T internal ref (°C)	32.25T ext. ref 1 (°C)	3.23T ext. ref 2 (°C)	26.83length (m)	temperature (°C)	Stokes	anti-Stokes-747.200	-150.082	-0.006	0.000
-746.185	800.000	-0.035	-0.143
-745.171	351.643	0.384	-0.766
-744.156	-64.977	-0.257	0.105
-743.142	-98.045	0.258	-0.067
-742.127	-44.688	-0.917	-0.462
-741.112	-200.000	-0.141	0.855
-740.098	158.061	-0.563	-0.788
-739.083	800.000	0.184	-0.668
-738.069	301.333	-0.355	0.662
-737.054	625.424	0.167	0.425
-736.039	180.277	0.203	-0.300
-735.025	-67.235	0.336	-0.133
-734.010	22.207	-0.316	-0.260
-732.996	800.000	0.159	0.677
-731.981	800.000	0.096	-0.377
-730.966	69.453	-0.453	0.470
-729.952	-22.887	-0.131	-0.080
-728.937	-96.267	0.472	0.126
-727.923	429.184	0.374	-0.815
-726.908	-9.464	-0.300	-0.202
-725.894	-16.833	-0.431	-0.275
-724.879	75.474	0.386	-0.411
-723.864	-98.511	-0.181	0.047
-722.850	-200.000	0.185	-0.818
-721.835	800.000	0.064	0.277
-720.821	41.351	0.490	0.447
-719.806	15.268	0.169	0.134
-718.791	98.073	0.387	0.449
-717.777	563.657	-0.307	-0.749
-716.762	62.513	-0.256	-0.258
-715.748	-9.947	1.099	-0.736
-714.733	1.214	0.433	-0.313
-713.718	-154.778	-0.507	-0.034
-712.704	148.273	0.038	0.052
-711.689	-112.471	-0.704	0.142
-710.675	360.820	0.337	-0.679
-709.660	139.131	0.590	-0.781
-708.645	-0.225	-0.622	-0.445
-707.631	236.683	-0.183	-0.305
-706.616	462.398	-0.379	-0.852
-705.602	28.553	0.366	0.312
-704.587	-102.049	0.738	-0.179
-703.572	111.518	-0.229	0.278
-702.558	-200.000	0.029	0.225
-701.543	173.107	0.487	0.706
-700.529	-88.355	-0.173	-0.052
-699.514	-107.641	-0.253	-0.056
-698.499	-18.868	-0.075	-0.047
-697.485	526.486	0.239	0.566
-696.470	-142.778	-0.773	0.076
-695.456	59.326	0.353	0.350
-694.441	84.179	-0.489	-0.538
-693.426	129.706	-0.106	-0.137
-692.412	191.417	0.153	-0.232
-691.397	56.435	0.519	-0.508
-690.383	-98.851	-0.975	-0.249
-689.368	-200.000	0.112	0.576
-688.354	-81.495	0.446	-0.148
-687.339	-99.659	-0.247	-0.062
-686.324	-200.000	0.127	-0.590
-685.310	89.435	-0.833	0.935
-684.295	-44.449	-0.424	-0.214
-683.281	-96.907	-0.745	0.197
-682.266	-150.283	-0.402	-0.031
-681.251	254.472	0.067	-0.115
-680.237	92.739	0.684	-0.777
-679.222	-154.042	0.276	-0.019
-678.208	1.645	-0.934	-0.677
-677.193	-124.352	-0.911	0.143
-676.178	137.368	0.145	-0.191
-675.164	202.398	0.517	0.802
-674.149	-190.361	0.777	0.009
-673.135	800.000	-0.061	-0.200
-672.120	-200.000	0.058	0.273
-671.105	-5.484	-0.513	-0.354
-670.091	88.986	0.229	0.256
-669.076	5.102	-0.627	0.464
-668.062	30.974	0.253	-0.218
-667.047	1.024	-0.594	-0.428
-666.032	-42.827	-0.108	-0.055
-665.018	-13.002	0.265	0.173
-664.003	-4.813	-0.678	-0.470
-662.989	-90.036	-0.596	-0.175
-661.974	800.000	0.107	0.342
-660.959	-200.000	-0.014	0.675
-659.945	189.503	0.422	0.636
-658.930	-200.000	0.161	0.983
-657.916	679.868	0.345	-0.902
-656.901	-85.375	0.400	-0.125
-655.886	138.824	0.545	-0.720
-654.872	209.199	0.205	-0.322
-653.857	364.584	0.083	-0.168
-652.843	116.493	-0.681	-0.839
-651.828	-3.116	0.749	0.525
-650.814	-200.000	-0.140	0.825
-649.799	63.549	0.409	0.412
-648.784	104.864	-0.547	0.648
-647.770	-200.000	0.100	0.492
-646.755	-146.203	-0.615	0.054
-645.741	390.607	-0.152	-0.316
-644.726	40.259	-0.292	0.264
-643.711	123.500	0.294	-0.370
-642.697	46.378	-0.127	-0.118
-641.682	181.759	-0.251	0.371
-640.668	255.747	-0.119	0.205
-639.653	762.394	0.224	-0.612
-638.638	33.876	0.889	-0.777
-637.624	-89.821	-0.455	-0.134
-636.609	-200.000	-0.188	-0.937
-635.595	800.000	0.112	-0.348
-634.580	635.797	0.226	-0.577
-633.565	-200.000	-0.016	0.708
-632.551	690.758	0.045	0.118
-631.536	-77.897	-0.190	0.066
-630.522	-151.782	-0.281	-0.021
-629.507	-200.000	0.080	0.840
-628.492	-200.000	0.045	-0.495
-627.478	-104.074	-0.683	-0.160
-626.463	289.582	0.402	0.732
-625.449	-153.963	1.244	0.085
-624.434	16.347	-0.443	0.351
-623.419	4.481	-0.574	-0.423
-622.405	-114.608	0.595	0.114
-621.390	95.568	-0.182	0.208
-620.376	-12.971	-0.208	0.136
-619.361	91.913	-0.408	-0.461
-618.346	118.105	0.192	0.237
-617.332	91.950	-0.399	-0.451
-616.317	800.000	-0.124	-0.499
-615.303	-108.080	0.252	0.055
-614.288	59.572	-0.380	0.376
-613.273	-103.316	0.088	0.021
-612.259	22.221	-0.304	-0.249
-611.244	-200.000	-0.034	-0.537
-610.230	42.386	-0.123	-0.112
-609.215	24.613	0.443	0.368
-608.201	800.000	-0.015	-0.066
-607.186	-38.330	-0.340	0.181
-606.171	800.000	0.053	-0.224
-605.157	187.878	-0.145	-0.217
-604.142	-200.000	0.028	-0.775
-603.128	-121.651	0.395	-0.066
-602.113	-43.389	1.064	0.540
-601.098	-38.369	0.240	0.127
-600.084	300.263	0.300	0.555
-599.069	122.468	-0.549	0.688
-598.055	-68.326	-0.718	-0.280
-597.040	-167.029	-0.565	-0.023
-596.025	800.000	0.289	1.041
-595.011	-153.079	-0.415	-0.029
-593.996	33.100	-0.525	-0.456
-592.982	800.000	-0.114	0.417
-591.967	800.000	0.159	0.535
-590.952	-152.810	0.834	-0.059
-589.938	100.296	1.006	1.170
-588.923	68.207	0.310	-0.318
-587.909	800.000	-0.264	0.837
-586.894	421.455	-0.157	0.338
-585.879	557.083	0.239	0.577
-584.865	-48.690	-0.778	0.374
-583.850	498.186	0.296	0.684
-582.836	15.450	0.458	-0.360
-581.821	800.000	-0.089	0.359
-580.806	-131.411	-0.549	0.073
-579.792	-33.458	-0.388	-0.215
-578.777	-60.693	0.668	-0.284
-577.763	-46.130	-0.516	0.255
-576.748	61.722	-0.113	0.113
-575.733	542.891	0.411	-0.983
-574.719	35.149	-0.696	-0.611
-573.704	327.038	-0.462	0.886
-572.690	-200.000	0.039	0.661
-571.675	242.008	-0.467	-0.782
-570.661	354.266	0.669	-1.332
-569.646	-104.506	0.163	-0.038
-568.631	-172.790	-0.543	0.017
-567.617	506.984	-0.105	0.244
-566.602	-200.000	-0.092	0.456
-565.588	638.991	0.161	0.411
-564.573	-100.898	-0.375	0.092
-563.558	143.300	-0.257	0.342
-562.544	85.152	0.145	0.159
-561.529	47.104	0.721	0.672
-560.515	-106.918	-0.604	0.134
-559.500	499.551	0.291	-0.672
-558.485	-142.674	0.824	0.081
-557.471	-118.802	-0.942	0.166
-556.456	-200.000	0.047	0.210
-555.442	99.380	0.024	-0.027
-554.427	-25.214	-0.812	-0.482
-553.412	18.051	0.325	0.260
-552.398	-200.000	-0.050	0.520
-551.383	799.914	0.255	0.704
-550.369	-200.000	-0.057	-0.284
-549.354	-200.000	0.027	0.196
-548.339	7.010	0.214	0.160
-547.325	-200.000	-0.043	0.222
-546.310	152.201	-0.383	-0.523
-545.296	-105.666	0.685	0.155
-544.281	87.225	0.153	0.169
-543.266	-153.930	0.110	0.008
-542.252	-29.834	0.150	0.086
-541.237	-78.149	0.403	-0.139
-540.223	-50.214	-0.708	-0.335
-539.208	800.000	-0.185	-0.631
-538.193	-80.320	-0.245	-0.082
-537.179	-139.872	-0.411	0.044
-536.164	800.000	-0.250	0.721
-535.150	-200.000	0.053	0.267
-534.135	564.728	0.068	0.165
-533.121	-187.342	0.155	0.002
-532.106	-189.496	-0.142	-0.002
-531.091	33.617	0.207	-0.180
-530.077	-5.018	-0.446	0.307
-529.062	669.901	0.079	-0.206
-528.048	-0.014	0.719	-0.512
-527.033	373.031	-0.281	-0.572
-526.018	800.000	-0.045	0.137
-525.004	-82.008	-0.531	0.174
-523.989	800.000	-0.210	0.694
-522.975	-46.726	0.355	0.174
-521.960	-37.239	0.717	0.383
-520.945	-5.406	-0.638	0.438
-519.931	48.842	0.192	0.180
-518.916	800.000	-0.084	-0.242
-517.902	-16.729	-0.420	0.265
-516.887	800.000	-0.363	1.060
-515.872	-200.000	-0.013	0.733
-514.858	58.331	0.368	0.361
-513.843	-73.967	0.158	-0.057
-512.829	-162.176	-0.255	-0.013
-511.814	296.677	0.213	-0.390
-510.799	-146.839	-0.435	0.037
-509.785	-58.487	-0.092	0.040
-508.770	102.077	-0.100	0.117
-507.756	-200.000	-0.173	-0.808
-506.741	-97.524	0.084	0.022
-505.726	800.000	-0.180	-0.547
-504.712	-45.598	-0.636	-0.315
-503.697	491.555	0.474	-1.084
-502.683	-200.000	0.012	-0.112
-501.668	-76.794	0.532	-0.186
-500.653	-74.947	0.489	0.175
-499.639	-200.000	0.012	0.253
-498.624	-33.046	0.372	0.206
-497.610	69.013	-0.223	-0.229
-496.595	68.206	-0.287	0.293
-495.581	-26.135	0.527	-0.309
-494.566	-200.000	0.040	0.559
-493.551	-67.807	0.952	0.372
-492.537	800.000	0.189	-0.578
-491.522	-42.467	-0.316	-0.161
-490.508	-54.877	-0.235	0.106
-489.493	-98.630	0.370	0.094
-488.478	243.145	0.518	-0.868
-487.464	-34.351	0.219	-0.120
-486.449	-68.903	-0.828	0.319
-485.435	-118.041	0.135	0.024
-484.420	149.910	-0.564	-0.763
-483.405	-93.528	0.622	0.172
-482.391	59.736	0.370	-0.364
-481.376	-25.950	0.217	0.127
-480.362	-200.000	-0.020	0.308
-479.347	-118.602	-0.386	-0.068
-478.332	196.420	0.564	-0.858
-477.318	62.308	-0.406	0.405
-476.303	-200.000	-0.021	0.520
-475.289	-200.000	-0.017	0.306
-474.274	-79.896	0.383	-0.128
-473.259	-200.000	0.119	0.628
-472.245	-200.000	-0.248	-1.090
-471.230	-137.268	-0.686	-0.078
-470.216	50.986	-0.154	-0.146
-469.201	41.937	0.055	0.050
-468.186	-12.066	-0.678	0.443
-467.172	-142.899	0.873	-0.085
-466.157	-33.671	0.359	0.198
-465.143	-31.191	-0.400	-0.225
-464.128	449.889	-0.371	-0.816
-463.113	-30.701	0.611	-0.345
-462.099	-68.359	-0.209	-0.081
-461.084	41.540	0.406	-0.366
-460.070	170.984	0.548	-0.784
-459.055	800.000	-0.229	0.848
-458.040	-200.000	0.216	-1.097
-457.026	-20.895	-0.267	-0.163
-456.011	-10.809	-0.195	0.129
-454.997	-106.076	-0.133	0.030
-453.982	-24.030	-1.016	-0.606
-452.968	-200.000	-0.067	0.517
-451.953	-41.655	0.984	0.504
-450.938	-104.627	-1.147	0.264
-449.924	-99.234	0.626	0.158
-448.909	-61.281	-0.237	-0.100
-447.895	800.000	-0.234	0.913
-446.880	-106.453	-0.493	0.110
-445.865	-200.000	-0.021	-0.793
-444.851	800.000	-0.135	-0.443
-443.836	-172.627	0.485	-0.015
-442.822	58.722	-0.413	0.404
-441.807	-25.406	0.351	0.207
-440.792	56.404	-0.126	0.122
-439.778	-57.337	0.313	0.137
-438.763	-54.471	0.562	0.254
-437.749	591.623	-0.345	-0.849
-436.734	-200.000	0.032	-0.287
-435.719	-200.000	-0.043	0.446
-434.705	-200.000	0.008	-0.163
-433.690	42.127	0.154	-0.139
-432.676	-74.983	0.731	-0.261
-431.661	-32.559	-0.812	-0.451
-430.646	-8.539	0.348	-0.233
-429.632	-98.685	-0.557	0.141
-428.617	80.620	-0.530	0.569
-427.603	-37.058	-0.700	0.374
-426.588	-5.552	0.870	-0.595
-425.573	-29.349	0.669	-0.381
-424.559	21.228	-0.429	-0.347
-423.544	259.748	0.060	0.103
-422.530	-182.718	0.688	0.012
-421.515	-131.520	0.493	0.065
-420.500	74.617	-0.583	-0.611
-419.486	-200.000	-0.122	0.608
-418.471	-200.000	0.009	0.062
-417.457	229.199	0.586	-0.952
-416.442	-153.898	0.293	-0.020
-415.428	-88.332	0.903	-0.269
-414.413	257.271	-0.101	0.173
-413.398	-200.000	-0.009	-0.792
-412.384	-117.297	-0.367	-0.066
-411.369	-47.286	0.616	0.299
-410.355	-200.000	0.078	-0.524
-409.340	-200.000	0.043	-0.535
-408.325	75.392	-0.317	-0.333
-407.311	-96.634	0.201	0.053
-406.296	-180.738	-0.316	-0.006
-405.282	800.000	-0.290	0.851
-404.267	104.183	0.568	0.665
-403.252	-55.082	-0.678	-0.304
-402.238	800.000	0.197	-0.645
-401.223	211.582	0.330	0.517
-400.209	-38.157	0.730	0.385
-399.194	-126.728	0.154	0.023
-398.179	25.058	0.306	0.253
-397.165	-200.000	-0.002	-0.164
-396.150	260.615	-0.510	0.877
-395.136	-157.073	0.259	0.016
-394.121	-138.101	-0.450	-0.050
-393.106	-107.705	0.250	0.054
-392.092	-200.000	0.001	0.379
-391.077	14.684	-0.951	0.739
-390.063	-85.685	0.273	-0.084
-389.048	-103.306	0.311	-0.073
-388.033	-56.126	-0.713	0.316
-387.019	39.094	-0.884	-0.787
-386.004	267.026	0.398	-0.693
-384.990	386.923	0.208	0.428
-383.975	-100.219	0.138	-0.034
-382.960	-57.107	-0.548	-0.240
-381.946	143.215	-0.406	-0.537
-380.931	202.036	0.284	0.435
-379.917	387.747	-0.171	0.352
-378.902	800.000	-0.108	0.366
-377.888	799.620	0.384	-1.054
-376.873	-146.293	-1.097	0.096
-375.858	-50.588	0.359	0.168
-374.844	-200.000	0.042	-0.822
-373.829	-128.474	-0.155	-0.022
-372.815	80.915	0.801	-0.859
-371.800	-167.591	0.502	0.020
-370.785	33.962	0.973	0.842
-369.771	89.380	-0.413	0.458
-368.756	366.377	0.195	0.390
-367.742	-182.967	-0.524	-0.009
-366.727	275.533	-0.278	0.490
-365.712	91.103	-0.658	0.734
-364.698	800.000	-0.051	-0.186
-363.683	232.313	0.163	0.266
-362.669	-153.110	0.475	-0.033
-361.654	-200.000	0.040	-0.553
-360.639	-200.000	-0.111	0.647
-359.625	-200.000	0.049	-0.607
-358.610	46.852	-0.865	-0.799
-357.596	-200.000	0.026	0.526
-356.581	32.995	-0.851	0.732
-355.566	150.912	-0.262	-0.354
-354.552	-89.108	0.288	0.085
-353.537	-178.785	-0.470	0.011
-352.523	800.000	-0.256	-0.865
-351.508	-3.416	0.722	-0.499
-350.493	281.190	-0.323	0.574
-349.479	57.350	0.330	0.320
-348.464	-72.032	-0.229	-0.085
-347.450	84.611	0.497	0.541
-346.435	115.432	0.160	-0.195
-345.420	3.845	0.565	-0.410
-344.406	-148.774	-0.893	-0.072
-343.391	-139.249	-1.028	-0.110
-342.377	-67.948	-0.201	0.078
-341.362	26.848	0.186	0.155
-340.348	800.000	-0.028	0.111
-339.333	427.258	-0.116	0.249
-338.318	17.324	0.107	0.084
-337.304	13.638	0.501	-0.386
-336.289	-110.702	0.761	0.156
-335.275	510.994	-0.148	-0.342
-334.260	-180.885	0.310	-0.006
-333.245	163.303	0.090	0.125
-332.231	-49.658	0.618	-0.292
-331.216	101.311	-0.365	0.422
-330.202	682.245	-0.254	-0.657
-329.187	124.576	-0.177	-0.221
-328.172	-200.000	0.056	-0.304
-327.158	800.000	0.278	-0.993
-326.143	1.833	-1.181	0.845
-325.129	70.740	-0.461	-0.474
-324.114	-155.344	-0.349	0.022
-323.099	106.468	-0.361	0.424
-322.085	13.337	-0.255	-0.196
-321.070	10.685	0.299	-0.226
-320.056	25.541	-0.434	0.358
-319.041	-81.245	-0.246	0.081
-318.026	66.005	0.421	-0.423
-317.012	647.852	-0.329	0.834
-315.997	-200.000	-0.007	0.479
-314.983	800.000	0.266	-0.834
-313.968	153.901	-0.131	-0.178
-312.953	-70.036	0.408	0.154
-311.939	800.000	-0.099	0.350
-310.924	18.186	0.498	-0.394
-309.910	110.880	0.332	0.396
-308.895	-56.348	0.393	0.173
-307.880	-142.826	0.772	-0.074
-306.866	-154.770	0.258	-0.017
-305.851	800.000	-0.180	-0.550
-304.837	800.000	-0.180	0.695
-303.822	800.000	-0.115	0.371
-302.807	800.000	-0.072	-0.307
-301.793	-9.175	-0.430	0.285
-300.778	59.933	0.294	0.287
-299.764	-25.556	-0.529	0.309
-298.749	0.034	0.453	-0.320
-297.735	485.432	0.270	0.610
-296.720	41.322	-0.567	-0.508
-295.705	12.318	-0.104	0.079
-294.691	-150.516	0.455	-0.035
-293.676	-129.335	-0.417	-0.057
-292.662	-200.000	0.008	-0.088
-291.647	51.254	-0.077	-0.072
-290.632	-136.789	0.634	-0.072
-289.618	-112.500	-0.546	-0.108
-288.603	506.909	0.066	0.151
-287.589	350.882	0.083	0.163
-286.574	-200.000	0.026	-0.681
-285.559	-15.843	-0.516	-0.326
-284.545	-102.463	-0.943	-0.224
-283.530	-160.573	0.160	-0.008
-282.516	-200.000	0.025	0.661
-281.501	-79.400	-0.452	0.151
-280.486	72.692	-0.282	-0.291
-279.472	-128.592	-0.560	0.078
-278.457	-200.000	0.064	0.360
-277.443	-43.797	-0.425	-0.212
-276.428	246.685	-0.259	-0.433
-275.413	-200.000	0.156	0.810
-274.399	169.355	-0.336	0.474
-273.384	-59.062	0.784	0.335
-272.370	306.565	0.482	-0.889
-271.355	-154.352	-0.238	-0.016
-270.340	79.071	-0.570	-0.604
-269.326	800.000	-0.178	-0.520
-268.311	290.543	-0.076	-0.136
-267.297	-200.000	-0.005	-0.433
-266.282	88.551	-0.006	-0.007
-265.267	800.000	0.124	-0.379
-264.253	-200.000	-0.014	0.345
-263.238	393.399	0.140	0.289
-262.224	-89.271	-0.545	0.159
-261.209	10.968	0.067	0.050
-260.195	-80.996	-0.435	0.143
-259.180	233.441	0.277	0.450
-258.165	139.301	0.149	-0.194
-257.151	-200.000	-0.004	0.140
-256.136	800.000	0.143	-0.530
-255.122	-67.710	0.500	-0.194
-254.107	142.945	0.147	0.193
-253.092	3.216	-0.579	0.417
-252.078	22.009	0.376	-0.303
-251.063	105.451	0.516	-0.603
-250.049	800.000	0.279	0.983
-249.034	24.884	-0.044	0.036
-248.019	-48.733	-0.130	-0.062
-247.005	-97.053	-0.698	-0.181
-245.990	-90.024	0.486	-0.140
-244.976	-16.980	-0.411	0.257
-243.961	-170.651	0.874	-0.030
-242.946	-200.000	-0.144	-0.697
-241.932	130.448	0.329	0.417
-240.917	800.000	-0.142	0.409
-239.903	9.301	-0.374	0.280
-238.888	-58.398	-0.340	-0.146
-237.873	388.878	0.081	-0.167
-236.859	0.312	0.765	0.540
-235.844	-200.000	0.003	-0.236
-234.830	-65.515	-0.563	0.224
-233.815	-200.000	-0.001	0.635
-232.800	-158.344	0.717	0.041
-231.786	-89.325	-0.591	0.172
-230.771	22.716	0.480	-0.388
-229.757	99.858	0.321	0.368
-228.742	-10.138	0.532	0.349
-227.727	-122.674	0.201	-0.032
-226.713	-73.975	-0.837	-0.300
-225.698	-200.000	-0.141	0.948
-224.684	80.341	0.187	-0.199
-223.669	800.000	0.113	-0.407
-222.655	153.311	0.462	-0.624
-221.640	-200.000	0.100	-1.146
-220.625	800.000	-0.233	-0.730
-219.611	-0.037	0.177	0.125
-218.596	5.544	-0.430	0.313
-217.582	141.596	-0.251	0.328
-216.567	-200.000	0.003	-0.690
-215.552	800.000	0.085	0.282
-214.538	-132.686	0.586	-0.074
-213.523	82.044	-0.376	0.403
-212.509	-180.719	0.603	0.012
-211.494	-62.212	-0.282	0.116
-210.479	-200.000	-0.013	-0.133
-209.465	-18.730	-0.313	0.193
-208.450	181.301	-0.230	-0.334
-207.436	610.352	-0.108	0.265
-206.421	62.794	0.315	-0.312
-205.406	428.890	0.227	-0.484
-204.392	-200.000	-0.102	-0.464
-203.377	44.457	0.163	0.148
-202.363	-200.000	-0.016	-0.535
-201.348	118.378	0.322	-0.393
-200.333	27.477	0.275	0.229
-199.319	-200.000	0.024	-0.268
-198.304	297.200	0.290	-0.526
-197.290	-200.000	-0.129	1.050
-196.275	-60.705	0.241	-0.101
-195.260	-19.593	-0.643	-0.393
-194.246	-200.000	-0.142	1.041
-193.231	268.946	-0.239	-0.413
-192.217	66.586	0.515	-0.517
-191.202	452.870	0.367	0.801
-190.187	145.275	0.082	-0.108
-189.173	202.508	-0.187	0.285
-188.158	165.261	0.417	-0.582
-187.144	-111.311	0.498	-0.100
-186.129	-115.426	0.343	-0.064
-185.114	223.043	0.125	0.198
-184.100	-200.000	0.023	-0.236
-183.085	-175.371	0.323	-0.009
-182.071	-200.000	-0.027	-0.870
-181.056	262.098	0.253	0.434
-180.042	-200.000	-0.069	-0.365
-179.027	15.678	0.477	-0.370
-178.012	-7.721	-0.177	-0.118
-176.998	-91.791	0.766	-0.215
-175.983	800.000	-0.251	1.074
-174.969	-76.932	-1.005	-0.346
-173.954	-128.382	0.410	-0.058
-172.939	28.225	-0.258	-0.215
-171.925	96.646	0.511	0.578
-170.910	-117.192	-0.039	-0.007
-169.896	445.958	-0.115	-0.248
-168.881	800.000	-0.081	0.248
-167.866	14.307	0.538	-0.414
-166.852	-151.269	-0.369	0.027
-165.837	-87.486	-0.593	0.177
-164.823	15.259	0.518	-0.401
-163.808	800.000	-0.073	-0.313
-162.793	479.786	0.444	-0.993
-161.779	-137.190	0.165	-0.019
-160.764	-69.670	-0.397	-0.150
-159.750	37.194	0.423	0.369
-158.735	-22.643	-1.148	0.684
-157.720	81.112	0.249	0.265
-156.706	-200.000	-0.021	-0.107
-155.691	-158.994	0.402	0.022
-154.677	-200.000	0.145	0.713
-153.662	-200.000	0.042	1.052
-152.647	-67.052	0.609	0.237
-151.633	-60.327	0.478	-0.201
-150.618	122.126	0.298	-0.366
-149.604	-149.456	0.485	-0.038
-148.589	121.015	0.222	-0.272
-147.574	-200.000	-0.002	-0.306
-146.560	746.579	-0.175	0.464
-145.545	-200.000	0.066	1.230
-144.531	172.072	-0.195	-0.276
-143.516	148.342	0.105	0.139
-142.502	118.599	-0.442	-0.537
-141.487	2.661	-1.077	-0.769
-140.472	-16.947	0.247	0.154
-139.458	-64.760	0.512	0.204
-138.443	-200.000	0.030	-0.964
-137.429	301.911	0.343	-0.625
-136.414	175.809	-0.221	0.316
-135.399	-200.000	-0.104	0.625
-134.385	65.644	-0.458	0.457
-133.370	184.742	0.513	0.749
-132.356	-88.402	-0.413	0.122
-131.341	-200.000	-0.047	0.391
-130.326	800.000	-0.127	0.472
-129.312	-144.636	0.671	0.061
-128.297	-200.000	-0.123	0.875
-127.283	119.444	0.332	-0.404
-126.268	138.094	-0.223	-0.288
-125.253	-56.246	0.398	-0.174
-124.239	-126.738	0.212	-0.031
-123.224	-26.536	0.120	0.069
-122.210	-200.000	0.138	-1.117
-121.195	104.132	0.428	-0.495
-120.180	800.000	-0.104	-0.293
-119.166	36.112	0.532	-0.461
-118.151	374.617	-0.259	-0.520
-117.137	-52.121	-0.372	-0.170
-116.122	424.311	0.305	0.646
-115.107	10.896	0.650	0.488
-114.093	329.962	-0.327	0.618
-113.078	-172.176	-0.344	-0.011
-112.064	97.751	0.363	0.410
-111.049	-200.000	-0.034	-0.612
-110.034	67.721	0.373	-0.375
-109.020	176.262	-0.163	-0.232
-108.005	800.000	0.091	0.285
-106.991	-153.824	0.240	0.016
-105.976	40.707	-0.139	-0.123
-104.962	-173.331	0.544	0.016
-103.947	800.000	0.186	-0.596
-102.932	-52.614	-0.692	0.314
-101.918	-48.946	-0.048	-0.022
-100.903	389.816	0.204	-0.415
-99.889	8.335	-0.551	0.407
-98.874	-174.417	0.344	0.010
-97.859	14.254	0.186	-0.143
-96.845	368.709	0.489	0.973
-95.830	-200.000	-0.030	1.160
-94.816	800.000	-0.126	-0.433
-93.801	-104.020	1.185	0.272
-92.786	-23.168	-0.822	0.487
-91.772	-142.525	-0.187	0.018
-90.757	-200.000	-0.004	0.546
-89.743	-56.333	-0.558	-0.244
-88.728	148.338	0.032	-0.043
-87.713	605.348	-0.099	0.243
-86.699	32.786	0.382	-0.325
-85.684	133.106	-0.298	0.378
-84.670	-122.920	-0.106	-0.017
-83.655	-200.000	-0.015	-0.318
-82.640	163.154	0.252	0.348
-81.626	652.767	-0.103	0.259
-80.611	-93.070	0.543	-0.149
-79.597	800.000	0.179	-0.561
-78.582	800.000	-0.428	1.270
-77.567	800.000	-0.054	-0.217
-76.553	13.809	0.451	0.345
-75.538	90.968	-0.206	0.227
-74.524	-105.714	0.602	-0.134
-73.509	177.300	-0.367	-0.525
-72.494	-200.000	-0.037	0.238
-71.480	-200.000	-0.037	0.839
-70.465	-107.053	1.005	-0.218
-69.451	-20.065	0.954	-0.578
-68.436	-51.830	-0.740	0.338
-67.422	-200.000	0.138	-0.732
-66.407	-38.176	-0.583	0.304
-65.392	231.013	0.223	0.359
-64.378	191.337	0.129	0.190
-63.363	-142.252	0.289	0.028
-62.349	-200.000	0.075	1.066
-61.334	800.000	0.302	-0.848
-60.319	549.802	0.436	1.027
-59.305	-62.529	-0.589	-0.240
-58.290	-156.876	0.905	-0.055
-57.276	234.431	0.934	1.511
-56.261	-200.000	94.651	595.801
-55.246	680.634	1352.031	3456.956
-54.232	204.007	2525.353	3839.856
-53.217	113.480	2247.833	2679.106
-52.203	41.799	1882.248	1675.045
-51.188	35.484	1674.935	1443.210
-50.173	33.064	1630.759	1387.345
-49.159	50.978	1680.492	1563.547
-48.144	51.842	1695.486	1583.865
-47.130	35.174	1655.758	1424.149
-46.115	32.262	1642.244	1390.967
-45.100	32.099	1637.895	1386.022
-44.086	32.035	1634.712	1382.800
-43.071	32.344	1631.595	1382.380
-42.057	31.943	1630.758	1378.670
-41.042	32.214	1627.060	1377.474
-40.027	32.281	1625.905	1376.939
-39.013	32.144	1624.031	1374.291
-37.998	32.224	1623.008	1373.958
-36.984	32.012	1621.000	1370.651
-35.969	32.168	1619.058	1370.095
-34.954	32.061	1617.971	1368.340
-33.940	32.415	1615.613	1368.871
-32.925	32.317	1613.977	1366.716
-31.911	32.172	1612.771	1364.590
-30.896	32.317	1610.989	1364.077
-29.881	32.120	1609.195	1361.075
-28.867	32.115	1607.547	1359.589
-27.852	32.280	1605.486	1358.988
-26.838	32.280	1604.648	1358.222
-25.823	32.114	1603.347	1355.869
-24.809	32.158	1602.783	1355.661
-23.794	32.336	1599.898	1354.448
-22.779	32.426	1598.385	1353.756
-21.765	32.467	1597.556	1353.301
-20.750	32.225	1596.497	1350.612
-19.736	32.249	1594.064	1348.668
-18.721	32.362	1592.687	1348.262
-17.706	32.423	1591.788	1347.885
-16.692	32.264	1590.846	1345.894
-15.677	32.250	1588.371	1343.647
-14.663	32.275	1588.393	1343.791
-13.648	32.216	1585.863	1341.175
-12.633	32.335	1583.418	1339.900
-11.619	32.324	1583.347	1339.710
-10.604	32.388	1581.053	1338.168
-9.590	32.266	1580.378	1336.677
-8.575	32.179	1579.090	1334.917
-7.560	32.199	1578.254	1334.302
-6.546	32.229	1577.198	1333.568
-5.531	32.448	1574.390	1332.694
-4.517	32.337	1574.455	1331.911
-3.502	32.192	1572.918	1329.530
-2.487	32.395	1571.189	1329.451
-1.473	32.019	1560.616	1317.814
-0.458	28.746	1541.940	1279.242
0.556	26.699	1540.573	1247.449
1.571	24.118	1564.104	1248.328
2.586	23.467	1575.554	1252.756
3.600	20.871	1523.279	1193.326
4.615	12.566	1414.862	1055.237
5.629	4.675	1350.916	958.964
6.644	3.365	1341.735	944.338
7.659	3.022	1341.693	942.125
8.673	3.417	1339.844	943.157
9.688	3.117	1338.668	940.410
10.702	3.099	1335.439	937.953
11.717	6.740	1341.391	964.322
12.731	15.801	1358.712	1032.523
13.746	23.090	1371.896	1087.445
14.761	24.798	1372.954	1098.684
15.775	24.755	1371.475	1097.140
16.790	24.739	1369.719	1095.539
17.804	24.091	1369.908	1091.620
18.819	24.219	1369.174	1091.725
19.834	24.190	1368.912	1091.240
20.848	24.274	1368.554	1091.377
21.863	24.208	1366.337	1089.107
22.877	24.338	1366.596	1090.012
23.892	24.131	1365.114	1087.467
24.907	24.372	1364.240	1088.147
25.921	24.162	1364.131	1086.681
26.936	24.422	1361.338	1085.944
27.950	24.632	1360.821	1086.711
28.965	24.400	1360.482	1084.932
29.980	24.457	1359.421	1084.337
30.994	24.645	1357.939	1084.201
32.009	24.428	1358.177	1082.981
33.023	24.551	1356.542	1082.328
34.038	24.328	1356.116	1080.540
35.053	24.214	1354.825	1078.723
36.067	24.159	1354.275	1077.855
37.082	24.242	1352.453	1076.815
38.096	24.388	1351.388	1076.755
39.111	24.442	1350.968	1076.648
40.126	24.458	1349.348	1075.358
41.140	24.013	1349.673	1072.842
42.155	23.936	1348.713	1071.518
43.169	23.792	1349.123	1070.883
44.184	23.844	1348.886	1070.911
45.199	24.075	1347.572	1071.166
46.213	23.988	1347.568	1070.542
47.228	24.261	1347.047	1071.674
48.242	24.525	1345.357	1071.821
49.257	24.409	1344.122	1070.046
50.271	24.102	1344.093	1068.085
51.286	24.416	1341.439	1067.766
52.301	24.368	1340.036	1066.265
53.315	24.259	1339.591	1065.164
54.330	24.277	1338.527	1064.331
55.344	24.047	1338.256	1062.648
56.359	24.071	1336.812	1061.554
57.374	24.013	1335.779	1060.291
58.388	24.020	1335.291	1059.851
59.403	24.026	1335.128	1059.662
60.417	24.164	1333.832	1059.366
61.432	24.018	1333.197	1057.900
62.447	23.917	1331.874	1056.156
63.461	23.932	1331.173	1055.595
64.476	23.801	1331.014	1054.596
65.490	23.972	1328.543	1053.558
66.505	23.972	1326.818	1052.099
67.520	24.195	1325.962	1052.641
68.534	23.943	1326.864	1051.775
69.549	23.867	1324.926	1049.698
70.563	23.820	1323.715	1048.368
71.578	23.762	1323.562	1047.813
72.593	23.789	1321.206	1046.015
73.607	23.726	1320.939	1045.340
74.622	24.005	1320.688	1046.693
75.636	23.625	1320.679	1044.355
76.651	23.992	1317.567	1043.954
77.666	23.757	1318.310	1043.074
78.680	23.732	1318.061	1042.637
79.695	23.922	1317.022	1042.835
80.709	23.996	1316.596	1042.840
81.724	24.064	1315.765	1042.485
82.739	24.071	1315.694	1042.379
83.753	24.298	1314.888	1042.979
84.768	24.617	1313.591	1043.720
85.782	24.542	1313.210	1042.885
86.797	24.507	1312.348	1041.907
87.812	24.544	1310.960	1040.927
88.826	24.554	1308.743	1039.135
89.841	24.585	1308.672	1039.167
90.855	24.606	1306.959	1037.834
91.870	24.684	1306.918	1038.163
92.884	24.651	1305.897	1037.070
93.899	24.603	1306.448	1037.137
94.914	24.530	1305.051	1035.513
95.928	25.006	1302.977	1036.531
96.943	24.625	1303.434	1034.599
97.957	24.433	1301.927	1032.197
98.972	24.556	1300.641	1031.798
99.987	24.638	1299.371	1031.175
101.001	24.475	1300.218	1030.812
102.016	24.239	1299.123	1028.494
103.030	24.329	1298.488	1028.418
104.045	24.453	1297.187	1028.008
105.060	24.422	1294.801	1025.852
106.074	24.127	1293.814	1023.284
107.089	24.021	1292.755	1021.747
108.103	23.839	1291.372	1019.516
109.118	23.804	1290.817	1018.791
110.133	23.808	1289.402	1017.603
111.147	23.900	1287.808	1016.782
112.162	23.654	1287.723	1015.219
113.176	24.045	1286.706	1016.562
114.191	23.813	1286.015	1014.603
115.206	23.963	1285.204	1014.726
116.220	24.057	1284.775	1014.832
117.235	23.976	1282.744	1012.678
118.249	23.820	1281.958	1011.082
119.264	23.714	1280.957	1009.599
120.279	23.737	1280.331	1009.148
121.293	24.025	1278.988	1009.635
122.308	23.810	1277.889	1007.456
123.322	23.787	1275.629	1005.460
124.337	23.689	1275.709	1004.876
125.352	23.398	1275.694	1003.128
126.366	23.713	1274.511	1003.892
127.381	23.675	1273.271	1002.610
128.395	23.652	1271.930	1001.335
129.410	23.247	1270.966	998.207
130.424	23.614	1270.096	999.501
131.439	23.612	1270.092	999.399
132.454	23.418	1270.436	998.490
133.468	23.859	1269.002	999.754
134.483	23.870	1268.501	999.332
135.497	23.747	1268.043	998.195
136.512	24.058	1266.310	998.485
137.527	23.849	1265.154	996.314
138.541	24.053	1263.526	996.084
139.556	23.995	1263.115	995.351
140.570	24.100	1263.078	995.819
141.585	24.150	1261.777	994.983
142.600	24.171	1261.237	994.586
143.614	24.456	1260.344	995.385
144.629	24.575	1258.921	994.833
145.643	24.306	1258.463	992.888
146.658	24.179	1256.595	990.619
147.673	24.158	1255.561	989.599
148.687	23.983	1255.417	988.430
149.702	24.296	1252.196	987.538
150.716	23.776	1251.076	983.692
151.731	23.722	1250.535	982.879
152.746	23.520	1249.600	980.940
153.760	24.087	1248.775	983.337
154.775	24.347	1247.762	983.887
155.789	24.405	1247.052	983.561
156.804	24.006	1246.205	980.609
157.819	24.125	1244.771	980.044
158.833	24.344	1245.087	981.415
159.848	24.438	1243.993	980.984
160.862	24.420	1243.063	980.062
161.877	24.212	1242.382	978.297
162.892	23.987	1241.201	976.049
163.906	23.747	1240.085	973.765
164.921	23.866	1239.284	973.702
165.935	24.139	1238.729	974.674
166.950	23.762	1239.054	972.781
167.964	23.964	1238.126	973.073
168.979	24.132	1237.493	973.409
169.994	24.250	1235.971	972.767
171.008	24.154	1234.398	970.919
172.023	24.356	1233.832	971.487
173.037	24.495	1233.505	971.905
174.052	24.443	1233.272	971.348
175.067	24.337	1231.680	969.435
176.081	24.055	1230.804	967.126
177.096	23.976	1230.007	965.987
178.110	24.109	1228.873	965.729
179.125	24.081	1227.440	964.369
180.140	24.140	1227.126	964.356
181.154	23.956	1227.110	963.261
182.169	24.156	1225.231	962.781
183.183	24.313	1224.177	962.717
184.198	24.351	1222.931	961.856
185.213	24.550	1221.485	961.705
186.227	24.559	1221.763	961.890
187.242	24.204	1221.102	959.374
188.256	24.308	1220.336	959.242
189.271	24.622	1219.132	959.901
190.286	24.363	1218.540	957.958
191.300	24.164	1217.644	956.101
192.315	24.008	1215.983	953.875
193.329	24.157	1216.454	954.960
194.344	23.973	1216.054	953.576
195.359	23.899	1214.560	951.921
196.373	23.581	1214.048	949.738
197.388	23.706	1213.257	949.704
198.402	24.161	1214.131	952.735
199.417	24.593	1213.739	954.655
200.432	24.654	1212.217	953.698
201.446	24.600	1211.556	952.807
202.461	24.480	1211.727	952.212
203.475	24.395	1210.352	950.597
204.490	24.199	1207.947	947.582
205.504	24.406	1207.389	948.162
206.519	24.402	1206.675	947.497
207.534	23.925	1205.701	944.113
208.548	23.747	1204.815	942.396
209.563	23.556	1204.299	940.893
210.577	23.869	1202.872	941.353
211.592	23.837	1202.422	940.748
212.607	24.317	1202.920	943.593
213.621	24.657	1201.018	943.815
214.636	24.415	1199.767	941.470
215.650	24.127	1198.813	939.122
216.665	24.325	1199.276	940.446
217.680	24.575	1197.823	940.539
218.694	24.491	1197.640	939.868
219.709	24.381	1196.251	938.121
220.723	24.552	1194.982	937.939
221.738	24.289	1194.963	936.459
222.753	24.192	1194.452	935.468
223.767	24.172	1193.500	934.535
224.782	24.384	1193.455	935.528
225.796	24.724	1192.502	936.480
226.811	24.603	1191.679	935.117
227.826	24.410	1190.734	933.281
228.840	24.478	1189.782	932.811
229.855	24.250	1189.725	931.489
230.869	24.257	1189.073	930.936
231.884	24.048	1189.241	929.891
232.899	23.773	1187.860	927.296
233.913	23.830	1185.766	925.875
234.928	23.816	1185.706	925.673
235.942	23.923	1184.087	924.885
236.957	23.797	1183.750	923.883
237.972	23.569	1183.200	922.186
238.986	23.482	1183.717	922.057
240.001	23.823	1182.313	922.653
241.015	23.966	1181.287	922.510
242.030	24.119	1179.539	921.857
243.045	24.104	1180.751	922.645
244.059	24.211	1179.344	922.019
245.074	24.420	1178.539	922.387
246.088	24.345	1178.536	921.915
247.103	24.294	1177.518	920.774
248.117	24.591	1176.741	921.619
249.132	24.613	1176.110	921.156
250.147	24.974	1175.770	922.665
251.161	25.150	1175.471	923.258
252.176	25.044	1174.757	922.071
253.190	24.924	1173.950	920.737
254.205	25.150	1174.317	922.108
255.220	25.243	1172.694	921.228
256.234	25.294	1172.755	921.453
257.249	25.287	1171.787	920.580
258.263	25.058	1170.993	918.698
259.278	25.089	1170.349	918.272
260.293	25.341	1169.477	918.795
261.307	25.182	1170.078	918.373
262.322	25.045	1168.596	916.425
263.336	24.985	1169.073	916.411
264.351	25.042	1168.010	915.790
265.366	24.981	1167.735	915.180
266.380	25.522	1165.641	916.216
267.395	25.099	1164.613	913.172
268.409	25.008	1164.147	912.267
269.424	24.888	1163.585	911.131
270.439	24.806	1163.895	910.875
271.453	25.050	1162.657	911.070
272.468	24.919	1161.852	909.692
273.482	24.772	1161.124	908.295
274.497	24.803	1160.245	907.686
275.512	24.659	1160.202	906.840
276.526	24.568	1159.177	905.497
277.541	24.632	1159.122	905.699
278.555	24.779	1157.826	905.347
279.570	24.940	1157.535	905.857
280.585	24.975	1156.650	905.260
281.599	25.128	1155.790	905.279
282.614	25.181	1154.137	904.172
283.628	25.002	1152.588	901.977
284.643	24.621	1151.859	899.412
285.657	24.476	1152.597	899.174
286.672	24.631	1151.093	898.702
287.687	25.107	1149.559	899.814
288.701	25.306	1149.058	900.342
289.716	24.743	1149.280	897.609
290.730	24.740	1148.623	897.006
291.745	25.015	1146.947	896.994
292.760	25.030	1146.262	896.451
293.774	25.078	1146.931	897.136
294.789	24.975	1146.844	896.476
295.803	25.143	1145.611	896.270
296.818	25.017	1143.916	894.238
297.833	24.751	1143.961	892.865
298.847	24.857	1143.718	893.126
299.862	24.819	1143.061	892.344
300.876	24.923	1141.632	891.666
301.891	25.117	1141.437	892.401
302.906	25.261	1140.643	892.416
303.920	25.345	1139.922	892.192
304.935	25.454	1140.325	892.971
305.949	25.672	1139.318	893.186
306.964	25.402	1138.493	891.118
307.979	25.188	1136.941	888.764
308.993	25.256	1136.092	888.359
310.008	25.372	1135.859	888.672
311.022	25.256	1136.129	888.231
312.037	25.293	1134.192	886.821
313.052	25.245	1133.350	885.850
314.066	25.013	1132.034	883.597
315.081	24.715	1131.498	881.630
316.095	24.593	1131.105	880.644
317.110	24.713	1129.833	880.170
318.125	24.549	1129.694	879.175
319.139	24.501	1128.887	878.231
320.154	24.496	1128.722	878.001
321.168	24.510	1127.928	877.374
322.183	24.713	1125.446	876.363
323.197	24.973	1125.992	877.985
324.212	25.016	1125.420	877.670
325.227	25.085	1125.617	878.083
326.241	25.075	1125.035	877.504
327.256	25.002	1123.391	875.786
328.270	24.739	1121.987	873.331
329.285	24.933	1122.040	874.242
330.300	25.059	1121.034	873.995
331.314	24.878	1120.466	872.592
332.329	24.763	1119.398	871.128
333.343	24.932	1118.388	871.085
334.358	25.060	1118.475	871.700
335.373	25.394	1117.389	872.399
336.387	25.285	1117.320	871.738
337.402	25.429	1116.004	871.332
338.416	25.307	1116.320	870.906
339.431	25.308	1115.016	869.818
340.446	25.667	1114.383	870.987
341.460	25.716	1114.262	871.054
342.475	26.027	1113.534	871.908
343.489	25.670	1113.026	869.711
344.504	25.796	1111.752	869.243
345.519	26.055	1110.530	869.460
346.533	25.728	1110.407	867.711
347.548	25.953	1109.944	868.355
348.562	25.877	1108.490	866.779
349.577	25.442	1107.845	864.105
350.592	25.023	1107.853	862.021
351.606	25.040	1107.188	861.505
352.621	25.449	1104.622	861.393
353.635	25.114	1104.390	859.535
354.650	25.095	1104.224	859.236
355.665	25.025	1103.852	858.536
356.679	24.982	1103.785	858.203
357.694	25.301	1102.187	858.410
358.708	25.329	1102.512	858.719
359.723	25.295	1101.213	857.467
360.738	25.183	1100.964	856.662
361.752	25.175	1101.537	856.995
362.767	25.600	1098.388	856.494
363.781	25.309	1097.881	854.639
364.796	25.558	1098.588	856.301
365.810	25.856	1099.014	857.973
366.825	25.897	1097.611	856.999
367.840	25.927	1097.456	856.944
368.854	25.875	1097.238	856.449
369.869	26.014	1096.122	856.162
370.883	25.733	1095.255	854.078
371.898	25.612	1094.605	852.924
372.913	25.550	1094.368	852.370
373.927	25.404	1093.696	851.075
374.942	25.892	1091.947	851.950
375.956	25.893	1092.141	852.031
376.971	25.932	1090.737	851.041
377.986	26.110	1090.011	851.240
379.000	26.278	1089.943	851.904
380.015	26.196	1091.363	852.551
381.029	26.089	1089.877	850.809
382.044	26.369	1089.529	851.785
383.059	26.017	1088.613	849.334
384.073	26.205	1087.129	848.984
385.088	26.129	1087.223	848.628
386.102	26.156	1085.670	847.467
387.117	25.734	1084.207	844.271
388.132	25.286	1083.547	841.581
389.146	25.642	1082.854	842.638
390.161	25.518	1081.944	841.275
391.175	25.407	1081.659	840.457
392.190	25.926	1080.296	841.751
393.205	26.066	1080.793	842.715
394.219	25.904	1079.405	840.804
395.234	25.555	1079.336	839.046
396.248	25.749	1077.494	838.443
397.263	25.547	1076.387	836.571
398.278	25.593	1076.150	836.527
399.292	25.697	1075.589	836.499
400.307	25.741	1074.776	835.995
401.321	25.623	1073.831	834.640
402.336	25.262	1074.376	833.315
403.350	25.673	1072.085	833.368
404.365	25.595	1072.387	833.168
405.380	25.468	1071.719	831.987
406.394	25.641	1070.830	832.020
407.409	25.861	1070.408	832.637
408.423	26.284	1070.465	834.563
409.438	26.139	1068.786	832.513
410.453	26.247	1068.623	832.810
411.467	26.249	1067.707	832.029
412.482	26.334	1065.884	830.929
413.496	26.274	1066.468	831.034
414.511	26.513	1065.981	831.678
415.526	26.299	1066.083	830.700
416.540	26.761	1065.577	832.355
417.555	26.573	1064.330	830.443
418.569	26.372	1063.363	828.695
419.584	26.419	1063.213	828.720
420.599	26.339	1063.105	828.197
421.613	153.498	1404.711	1792.958
422.628	141.163	1454.440	1793.087
