DTS Sentinel unit serial number:	SN413079Multiplexer serial number:	ORYXHardware model number:	OX4-SRSoftware version number:	ORYX F/W v4.00 Oryx Data Collector v3.7.2.0data status	okinstallation	princeton_trtdifferential loss correction	single-endedforward channel	channel 2reverse channel	N/Adate	2019/09/15time	11:51:35forward acquisition time	60.00reverse acquisition time	0.00gamma	496.2192k internal	0.2315k external	0.2315temperature offset calibration	1.0016default loss term (dB/km)	0.3790temperature slope calibration	1.0000multiplexer offset coefficient	1.0000multiplexer slope coefficient	1.0000fibre end	0.00T internal ref (°C)	34.37T ext. ref 1 (°C)	5.06T ext. ref 2 (°C)	30.08length (m)	temperature (°C)	Stokes	anti-Stokes-747.200	422.829	0.057	0.124
-746.185	-49.689	0.236	-0.114
-745.171	529.242	0.054	0.129
-744.156	265.069	0.133	0.236
-743.142	238.262	0.211	0.356
-742.127	686.579	0.150	0.398
-741.112	800.000	0.054	0.175
-740.098	800.000	0.064	0.257
-739.083	-200.000	0.003	-0.492
-738.069	-45.056	-0.218	-0.110
-737.054	4.665	-0.155	0.115
-736.039	-104.808	-0.162	0.038
-735.025	16.653	0.185	0.148
-734.010	-200.000	-0.008	0.059
-732.996	-67.604	-0.207	-0.082
-731.981	-53.824	-0.324	-0.150
-730.966	152.381	0.114	0.158
-729.952	-47.733	-0.392	0.192
-728.937	-82.314	-0.242	-0.080
-727.923	243.752	0.127	-0.216
-726.908	-55.746	-0.365	-0.165
-725.894	-200.000	-0.008	0.293
-724.879	14.747	-0.156	0.123
-723.864	95.317	0.290	-0.334
-722.850	91.556	-0.105	-0.120
-721.835	-200.000	-0.037	-0.280
-720.821	-187.606	-0.252	-0.003
-719.806	-109.790	-0.040	0.008
-718.791	59.052	0.240	-0.239
-717.777	800.000	-0.127	0.380
-716.762	634.730	0.041	-0.106
-715.748	553.486	0.164	-0.399
-714.733	642.545	0.061	-0.158
-713.718	-200.000	0.022	-0.121
-712.704	-200.000	-0.042	0.267
-711.689	-200.000	0.032	0.217
-710.675	-86.357	-0.167	-0.052
-709.660	-70.853	-0.357	-0.136
-708.645	-200.000	0.011	0.133
-707.631	-200.000	-0.030	-0.247
-706.616	800.000	0.072	0.233
-705.602	191.272	0.082	-0.125
-704.587	-200.000	-0.002	-0.194
-703.572	-172.257	0.110	0.004
-702.558	298.707	0.081	-0.151
-701.543	-131.755	0.114	0.015
-700.529	-10.531	-0.115	0.077
-699.514	-51.165	-0.183	-0.087
-698.499	-85.336	0.169	0.053
-697.485	14.751	-0.250	0.197
-696.470	-200.000	0.027	0.285
-695.456	138.671	-0.086	0.115
-694.441	27.495	0.242	-0.206
-693.426	-120.741	0.154	-0.026
-692.412	134.509	0.178	0.233
-691.397	54.499	-0.186	-0.181
-690.383	-172.512	-0.154	0.005
-689.368	-175.387	-0.193	-0.005
-688.354	-152.008	-0.153	0.011
-687.339	82.284	0.234	-0.257
-686.324	-102.772	0.097	0.023
-685.310	-59.180	-0.207	-0.090
-684.295	-119.423	0.071	-0.012
-683.281	-200.000	0.046	-0.229
-682.266	-103.111	-0.063	0.015
-681.251	-161.164	-0.082	0.004
-680.237	-200.000	0.328	-0.000
-679.222	-100.545	0.058	0.015
-678.208	155.363	-0.099	0.138
-677.193	-200.000	0.014	0.159
-676.178	44.544	-0.278	-0.258
-675.164	-106.486	0.223	-0.050
-674.149	372.427	-0.096	0.197
-673.135	16.454	-0.093	0.074
-672.120	189.332	0.345	0.522
-671.105	-123.699	-0.249	-0.040
-670.091	114.200	-0.092	-0.113
-669.076	-42.886	0.191	0.098
-668.062	68.857	-0.157	-0.163
-667.047	72.901	-0.274	-0.289
-666.032	-81.931	0.082	-0.027
-665.018	-138.511	0.277	0.031
-664.003	-7.362	-0.095	0.065
-662.989	24.840	-0.097	0.081
-661.974	132.732	-0.041	0.054
-660.959	508.744	0.020	0.047
-659.945	-21.849	0.242	-0.149
-658.930	70.162	0.207	-0.216
-657.916	122.819	-0.260	-0.328
-656.901	-46.158	-0.159	0.079
-655.886	236.390	0.112	0.187
-654.872	-54.656	-0.111	-0.051
-653.857	130.379	0.211	-0.274
-652.843	94.940	0.179	0.205
-651.828	320.689	0.026	0.049
-650.814	800.000	0.070	-0.205
-649.799	33.929	0.155	-0.136
-648.784	800.000	0.053	0.187
-647.770	0.466	-0.158	-0.114
-646.755	-88.450	-0.048	0.014
-645.741	-98.670	0.174	0.045
-644.726	-200.000	0.005	-0.093
-643.711	-18.062	0.040	-0.025
-642.697	19.450	0.185	-0.150
-641.682	-93.333	-0.125	0.035
-640.668	-200.000	-0.005	-0.089
-639.653	-19.791	0.191	0.119
-638.638	366.231	-0.073	-0.148
-637.624	265.560	0.144	0.253
-636.609	-41.625	-0.348	-0.180
-635.595	-200.000	0.007	-0.170
-634.580	-87.040	0.050	0.015
-633.565	-69.362	-0.147	-0.057
-632.551	800.000	0.088	0.280
-631.536	47.711	0.295	0.277
-630.522	69.225	-0.209	0.217
-629.507	156.559	0.120	-0.167
-628.492	-150.414	-0.107	0.008
-627.478	-99.628	-0.195	0.049
-626.463	-200.000	0.017	-0.254
-625.449	-77.093	-0.246	0.087
-624.434	800.000	0.044	0.123
-623.419	-200.000	-0.077	-0.355
-622.405	464.095	-0.226	-0.509
-621.390	281.345	-0.139	-0.251
-620.376	-76.238	0.058	0.020
-619.361	800.000	-0.052	0.154
-618.346	800.000	0.055	-0.174
-617.332	172.147	-0.250	-0.363
-616.317	53.847	-0.299	0.290
-615.303	479.366	0.036	-0.083
-614.288	77.075	-0.277	0.297
-613.273	-157.694	0.170	-0.010
-612.259	-200.000	-0.033	0.166
-611.244	132.036	0.107	0.138
-610.230	595.791	0.140	-0.350
-609.215	20.432	0.302	0.246
-608.201	-127.569	-0.174	0.025
-607.186	-4.315	0.287	-0.200
-606.171	-83.911	0.329	0.106
-605.157	198.257	0.126	-0.194
-604.142	-87.282	0.273	-0.083
-603.128	-200.000	-0.028	0.203
-602.113	800.000	0.076	-0.297
-601.098	800.000	0.120	-0.378
-600.084	-200.000	0.049	0.376
-599.069	105.820	0.093	-0.111
-598.055	181.219	-0.142	0.211
-597.040	-112.147	0.271	-0.055
-596.025	-147.741	-0.225	0.019
-595.011	-35.253	-0.038	0.021
-593.996	627.360	-0.118	0.300
-592.982	-145.661	-0.303	-0.027
-591.967	211.519	-0.077	0.123
-590.952	800.000	-0.085	0.245
-589.938	-48.515	0.141	0.068
-588.923	415.139	0.137	-0.295
-587.909	277.918	-0.075	-0.134
-586.894	45.552	-0.166	-0.154
-585.879	159.487	-0.065	0.092
-584.865	643.465	0.063	0.162
-583.850	-44.172	-0.322	0.163
-582.836	16.878	-0.163	0.130
-581.821	-200.000	-0.020	0.265
-580.806	504.572	0.055	-0.129
-579.792	-200.000	0.128	-0.582
-578.777	-26.137	0.230	0.136
-577.763	189.904	0.073	-0.111
-576.748	-6.019	-0.345	0.238
-575.733	277.561	-0.065	-0.116
-574.719	-76.172	0.407	-0.145
-573.704	-200.000	-0.035	-0.343
-572.690	117.948	0.067	0.084
-571.675	-35.992	0.405	-0.221
-570.661	2.276	-0.253	0.184
-569.646	-143.851	-0.112	-0.011
-568.631	-200.000	-0.053	-0.304
-567.617	93.766	0.142	-0.162
-566.602	-171.285	0.306	-0.010
-565.588	549.177	-0.116	0.279
-564.573	258.598	-0.065	0.112
-563.558	71.144	0.202	-0.210
-562.544	-139.988	-0.226	-0.024
-561.529	800.000	-0.173	-0.613
-560.515	-200.000	-0.017	0.226
-559.500	800.000	-0.028	-0.098
-558.485	150.098	-0.237	-0.324
-557.471	-200.000	-0.014	0.064
-556.456	23.273	-0.053	-0.044
-555.442	-27.258	-0.220	0.129
-554.427	-36.270	-0.242	-0.131
-553.412	-10.589	-0.122	0.081
-552.398	-48.500	-0.216	0.105
-551.383	-175.127	0.282	0.008
-550.369	275.684	0.160	-0.285
-549.354	175.052	-0.037	0.054
-548.339	-51.694	0.227	-0.106
-547.325	-144.087	-0.294	-0.028
-546.310	134.211	-0.131	-0.170
-545.296	-68.553	-0.213	0.083
-544.281	-200.000	0.013	-0.176
-543.266	-200.000	0.028	-0.150
-542.252	148.111	-0.053	0.072
-541.237	98.204	0.050	-0.058
-540.223	91.753	-0.094	0.107
-539.208	-200.000	-0.064	-0.298
-538.193	-58.680	-0.048	-0.021
-537.179	-193.594	-0.258	0.002
-536.164	-157.226	-0.233	-0.014
-535.150	361.205	0.049	-0.099
-534.135	104.658	-0.152	-0.180
-533.121	-82.307	-0.449	0.147
-532.106	-111.354	0.515	-0.106
-531.091	-103.843	-0.290	0.068
-530.077	-98.192	-0.184	0.048
-529.062	14.095	-0.163	-0.128
-528.048	-65.739	-0.133	-0.054
-527.033	-200.000	0.002	-0.064
-526.018	32.076	0.200	-0.173
-525.004	25.511	0.073	-0.061
-523.989	242.953	-0.320	0.539
-522.975	72.116	0.281	-0.293
-521.960	172.704	0.188	0.273
-520.945	-115.485	0.123	-0.023
-519.931	-110.070	0.134	0.028
-518.916	170.217	-0.101	0.146
-517.902	340.157	-0.076	0.149
-516.887	-64.412	-0.179	0.073
-515.872	-8.038	0.156	-0.106
-514.858	110.498	0.030	0.036
-513.843	18.267	0.112	-0.090
-512.829	278.294	0.204	0.366
-511.814	-27.658	-0.094	-0.055
-510.799	293.514	-0.082	-0.150
-509.785	-49.768	-0.203	-0.097
-508.770	64.892	-0.044	0.045
-507.756	-155.877	-0.202	0.013
-506.741	386.360	0.097	-0.201
-505.726	-4.100	0.239	0.167
-504.712	-33.614	-0.259	0.143
-503.697	-78.558	-0.165	0.057
-502.683	-200.000	0.017	0.182
-501.668	-200.000	0.043	-0.201
-500.653	-62.146	-0.233	-0.097
-499.639	800.000	-0.082	0.245
-498.624	-200.000	0.024	-0.319
-497.610	-116.776	0.312	-0.058
-496.595	394.854	0.143	-0.299
-495.581	-19.303	0.442	-0.275
-494.566	256.350	0.123	0.212
-493.551	4.422	-0.249	0.183
-492.537	-55.819	-0.092	-0.041
-491.522	-0.750	-0.104	0.074
-490.508	800.000	0.212	0.746
-489.493	800.000	-0.049	0.212
-488.478	-142.460	-0.453	0.045
-487.464	-200.000	-0.011	0.158
-486.449	-73.110	-0.159	-0.058
-485.435	48.139	-0.146	0.137
-484.420	-4.207	-0.075	-0.052
-483.405	-200.000	-0.004	-0.199
-482.391	-200.000	0.159	0.000
-481.376	-200.000	-0.044	0.284
-480.362	-30.100	-0.281	0.160
-479.347	-23.488	-0.192	0.116
-478.332	-50.524	-0.016	0.008
-477.318	-200.000	-0.034	0.191
-476.303	711.543	-0.047	0.125
-475.289	-180.523	-0.281	0.006
-474.274	-62.324	0.127	-0.053
-473.259	-168.036	0.314	-0.012
-472.245	-200.000	-0.020	-0.282
-471.230	-200.000	0.005	-0.029
-470.216	-87.627	0.235	0.071
-469.201	-200.000	0.016	-0.156
-468.186	-46.241	-0.151	-0.075
-467.172	-23.804	-0.371	-0.223
-466.157	-83.823	0.254	0.081
-465.143	-200.000	-0.009	0.135
-464.128	-2.517	0.159	0.112
-463.113	294.335	-0.170	0.311
-462.099	800.000	-0.102	0.412
-461.084	423.879	0.076	-0.164
-460.070	-78.800	-0.164	0.056
-459.055	27.918	-0.162	0.137
-458.040	-103.018	0.318	-0.076
-457.026	-66.061	-0.171	0.069
-456.011	-82.902	0.315	-0.102
-454.997	-200.000	0.013	-0.291
-453.982	-200.000	0.001	0.062
-452.968	-79.368	0.225	0.076
-451.953	-44.942	-0.150	0.075
-450.938	-200.000	0.028	0.165
-449.924	266.777	0.079	0.138
-448.909	105.173	-0.165	-0.195
-447.895	99.177	0.132	-0.152
-446.880	108.778	0.090	-0.108
-445.865	800.000	0.093	-0.293
-444.851	-43.888	0.084	-0.043
-443.836	-61.495	0.039	0.017
-442.822	96.109	0.029	0.033
-441.807	-200.000	-0.033	0.181
-440.792	-24.264	-0.145	-0.087
-439.778	800.000	-0.040	-0.151
-438.763	247.339	0.134	-0.227
-437.749	74.197	0.135	-0.142
-436.734	800.000	0.098	0.396
-435.719	23.368	0.167	0.137
-434.705	1.549	0.196	-0.141
-433.690	800.000	-0.081	0.239
-432.676	-23.317	-0.159	0.096
-431.661	-81.244	0.262	-0.087
-430.646	-102.193	0.029	0.007
-429.632	33.664	-0.318	0.277
-428.617	-177.187	0.192	0.005
-427.603	-200.000	0.015	-0.139
-426.588	82.332	0.156	0.169
-425.573	-66.992	-0.119	-0.047
-424.559	-86.904	-0.242	0.074
-423.544	601.371	0.041	0.101
-422.530	800.000	0.070	-0.204
-421.515	-78.704	-0.189	0.065
-420.500	800.000	-0.028	0.083
-419.486	391.523	-0.148	0.308
-418.471	-200.000	0.003	-0.138
-417.457	-200.000	0.055	-0.353
-416.442	-200.000	0.033	-0.222
-415.428	0.106	0.296	-0.211
-414.413	215.804	-0.168	0.268
-413.398	26.067	-0.173	0.145
-412.384	88.404	0.114	-0.127
-411.369	-108.996	-0.094	0.020
-410.355	4.052	0.123	0.090
-409.340	-138.356	0.117	-0.013
-408.325	-22.499	0.082	-0.050
-407.311	-17.757	0.290	-0.182
-406.296	-200.000	0.040	-0.342
-405.282	634.670	0.108	-0.273
-404.267	-167.589	0.349	-0.014
-403.252	-200.000	0.069	0.308
-402.238	88.678	-0.216	-0.240
-401.223	-107.262	-0.157	-0.035
-400.209	46.280	-0.225	-0.208
-399.194	772.600	-0.011	-0.029
-398.179	-161.726	-0.175	0.009
-397.165	800.000	-0.078	0.317
-396.150	14.710	-0.071	0.056
-395.136	-200.000	0.015	0.271
-394.121	800.000	-0.065	0.241
-393.106	29.187	0.071	0.060
-392.092	-23.572	-0.203	0.122
-391.077	28.421	0.114	-0.096
-390.063	301.008	-0.133	-0.246
-389.048	118.378	0.157	-0.193
-388.033	245.933	0.079	0.133
-387.019	-96.845	0.050	0.013
-386.004	-63.329	-0.159	0.066
-384.990	24.301	0.213	0.176
-383.975	-126.979	0.086	0.013
-382.960	698.692	-0.085	0.224
-381.946	89.106	0.142	-0.158
-380.931	800.000	0.096	0.265
-379.917	-200.000	0.036	0.283
-378.902	-116.060	-0.219	0.041
-377.888	-200.000	-0.015	-0.089
-376.873	423.756	-0.155	0.333
-375.858	-123.829	0.221	0.035
-374.844	-200.000	0.003	-0.093
-373.829	130.006	-0.174	0.222
-372.815	2.400	-0.177	-0.128
-371.800	-154.762	-0.188	-0.012
-370.785	76.396	0.079	-0.083
-369.771	800.000	0.098	-0.298
-368.756	37.047	-0.027	0.024
-367.742	-200.000	0.030	-0.461
-366.727	-200.000	-0.001	-0.024
-365.712	-200.000	0.050	0.250
-364.698	-58.631	0.228	0.099
-363.683	-200.000	-0.017	0.353
-362.669	-200.000	-0.002	-0.342
-361.654	2.821	-0.207	-0.150
-360.639	-23.893	0.122	0.073
-359.625	800.000	0.085	-0.244
-358.610	298.809	-0.135	-0.249
-357.596	118.102	0.094	-0.115
-356.581	-45.466	0.156	0.077
-355.566	-200.000	-0.027	0.141
-354.552	-103.160	0.291	0.069
-353.537	-84.408	0.102	-0.032
-352.523	-91.209	-0.021	-0.006
-351.508	-139.194	-0.171	0.018
-350.493	-74.225	0.201	0.072
-349.479	-200.000	0.079	0.379
-348.464	105.054	0.089	0.104
-347.450	130.501	-0.214	0.274
-346.435	-200.000	-0.017	0.152
-345.420	-144.428	-0.125	0.012
-344.406	-200.000	0.008	0.206
-343.391	-76.536	-0.020	0.007
-342.377	43.159	0.101	0.092
-341.362	-200.000	-0.038	0.392
-340.348	-100.331	-0.281	-0.069
-339.333	-48.345	-0.163	-0.078
-338.318	-68.520	0.101	-0.039
-337.304	696.394	0.178	0.467
-336.289	800.000	-0.080	-0.308
-335.275	-200.000	0.033	-0.207
-334.260	176.414	-0.109	0.158
-333.245	-200.000	-0.007	0.216
-332.231	-200.000	0.005	-0.273
-331.216	599.666	-0.073	0.181
-330.202	499.385	-0.131	0.302
-329.187	-160.273	-0.353	0.019
-328.172	-200.000	0.026	-0.249
-327.158	-136.685	0.279	0.032
-326.143	-176.945	0.254	-0.006
-325.129	-200.000	-0.020	-0.163
-324.114	-87.169	-0.108	-0.033
-323.099	-90.394	-0.122	0.035
-322.085	638.009	0.118	0.299
-321.070	-200.000	0.026	0.194
-320.056	-67.736	0.194	0.076
-319.041	71.895	-0.040	-0.042
-318.026	209.785	0.159	-0.248
-317.012	-61.373	0.312	0.131
-315.997	127.247	-0.067	0.085
-314.983	-46.259	-0.063	-0.031
-313.968	-112.509	-0.158	0.031
-312.953	-52.524	-0.074	-0.034
-311.939	800.000	0.075	0.259
-310.924	-58.972	-0.010	-0.004
-309.910	-43.378	0.280	-0.141
-308.895	380.769	-0.153	0.313
-307.880	-200.000	0.115	-0.000
-306.866	16.365	0.134	-0.106
-305.851	646.722	-0.073	0.186
-304.837	-104.793	0.333	-0.076
-303.822	236.137	0.073	0.121
-302.807	-21.306	0.048	0.029
-301.793	-6.381	-0.395	-0.268
-300.778	-146.359	-0.223	-0.019
-299.764	800.000	0.058	0.185
-298.749	609.366	0.098	0.244
-297.735	21.916	0.141	0.115
-296.720	5.749	0.250	-0.184
-295.705	800.000	0.075	-0.219
-294.691	-41.760	0.292	-0.149
-293.676	499.388	0.088	-0.202
-292.662	123.470	0.150	0.187
-291.647	-55.242	-0.208	0.093
-290.632	89.004	0.091	0.100
-289.618	27.135	-0.119	0.100
-288.603	-149.766	0.270	0.021
-287.589	-56.805	0.345	0.152
-286.574	-200.000	0.017	-0.162
-285.559	183.440	-0.187	-0.275
-284.545	-200.000	0.002	-0.206
-283.530	-200.000	0.040	0.181
-282.516	30.028	-0.295	0.250
-281.501	-29.295	0.177	-0.101
-280.486	100.043	-0.143	0.165
-279.472	11.915	-0.246	-0.188
-278.457	628.868	-0.097	-0.243
-277.443	7.659	0.154	0.114
-276.428	603.212	0.015	-0.037
-275.413	800.000	0.029	0.114
-274.399	-53.628	0.403	0.183
-273.384	-200.000	0.007	0.090
-272.370	800.000	-0.142	0.425
-271.355	74.649	0.188	-0.196
-270.340	-177.795	0.346	-0.008
-269.326	71.195	-0.193	0.199
-268.311	-6.377	0.069	0.047
-267.297	-70.106	0.150	0.057
-266.282	-133.490	0.277	-0.035
-265.267	-170.346	0.179	-0.006
-264.253	364.398	-0.138	-0.276
-263.238	78.826	-0.155	0.165
-262.224	-200.000	0.026	-0.317
-261.209	213.342	-0.151	-0.238
-260.195	61.855	0.323	-0.320
-259.180	32.303	-0.080	-0.068
-258.165	4.195	0.288	0.210
-257.151	170.971	0.172	0.246
-256.136	27.150	-0.208	-0.174
-255.122	38.277	-0.210	0.186
-254.107	-200.000	0.039	-0.274
-253.092	-141.450	-0.233	0.023
-252.078	105.221	-0.043	0.050
-251.063	800.000	0.127	-0.415
-250.049	-65.023	0.059	0.024
-249.034	-25.861	-0.155	-0.091
-248.019	-200.000	0.010	0.099
-247.005	558.520	-0.061	-0.146
-245.990	99.977	0.091	-0.104
-244.976	-102.248	0.175	-0.042
-243.961	187.960	-0.217	0.322
-242.946	800.000	0.088	-0.319
-241.932	-200.000	0.031	-0.310
-240.917	-93.719	0.109	-0.030
-239.903	-200.000	0.019	-0.201
-238.888	800.000	-0.031	-0.113
-237.873	685.173	-0.037	-0.097
-236.859	-200.000	0.001	-0.141
-235.844	-69.934	-0.174	0.066
-234.830	-68.250	0.214	0.083
-233.815	-84.495	0.079	0.025
-232.800	2.736	0.146	-0.105
-231.786	800.000	-0.075	-0.210
-230.771	424.326	-0.074	-0.158
-229.757	-200.000	0.025	-0.134
-228.742	-11.570	-0.358	-0.234
-227.727	800.000	-0.024	-0.097
-226.713	-165.905	0.157	-0.007
-225.698	406.700	-0.073	-0.154
-224.684	-12.923	0.273	-0.177
-223.669	80.913	-0.039	-0.042
-222.655	-51.221	-0.070	-0.032
-221.640	48.709	-0.065	-0.060
-220.625	51.073	-0.152	0.143
-219.611	-134.607	-0.048	0.006
-218.596	-47.072	-0.200	-0.097
-217.582	-74.414	-0.419	0.150
-216.567	-79.157	0.066	0.022
-215.552	132.539	0.123	0.158
-214.538	320.147	0.086	0.163
-213.523	-200.000	0.003	-0.102
-212.509	694.768	0.093	-0.243
-211.494	229.268	0.170	0.275
-210.479	130.123	-0.048	0.061
-209.465	319.841	0.083	-0.157
-208.450	323.153	0.069	0.131
-207.436	-54.795	0.075	-0.034
-206.421	800.000	-0.074	0.255
-205.406	-10.129	-0.262	0.173
-204.392	-4.167	-0.152	-0.105
-203.377	134.751	-0.142	-0.183
-202.363	-3.793	-0.040	-0.028
-201.348	-164.118	0.321	0.015
-200.333	-200.000	0.028	0.148
-199.319	633.253	-0.099	-0.249
-198.304	-70.330	0.089	0.034
-197.290	-200.000	-0.024	-0.112
-196.275	-200.000	-0.015	-0.079
-195.260	-148.251	-0.179	-0.015
-194.246	24.729	-0.148	-0.122
-193.231	175.644	-0.098	0.141
-192.217	-31.152	-0.134	0.075
-191.202	-200.000	-0.010	0.102
-190.187	-152.357	-0.210	-0.015
-189.173	-85.703	-0.169	0.052
-188.158	493.222	0.050	-0.113
-187.144	-29.530	0.117	-0.066
-186.129	-200.000	0.046	0.295
-185.114	-21.932	0.172	-0.103
-184.100	-167.271	0.285	-0.011
-183.085	-69.848	0.080	0.030
-182.071	-119.423	-0.228	0.039
-181.056	166.153	-0.239	0.336
-180.042	-116.444	0.190	0.035
-179.027	-33.303	-0.193	-0.106
-178.012	-135.051	0.293	0.035
-176.998	29.068	-0.196	0.165
-175.983	-109.558	-0.328	0.069
-174.969	16.352	0.358	0.280
-173.954	-200.000	0.102	0.000
-172.939	193.150	-0.052	0.077
-171.925	363.185	0.068	-0.136
-170.910	800.000	0.004	0.018
-169.896	800.000	0.068	0.201
-168.881	273.956	-0.062	-0.109
-167.866	31.303	0.201	-0.171
-166.852	-60.815	0.207	0.087
-165.837	15.173	-0.073	0.057
-164.823	128.243	0.117	-0.147
-163.808	234.915	0.166	-0.271
-162.793	-200.000	0.048	-0.427
-161.779	98.702	0.182	0.208
-160.764	-135.321	-0.120	-0.014
-159.750	13.780	-0.168	-0.130
-158.735	-7.721	-0.146	-0.098
-157.720	-12.405	0.185	-0.120
-156.706	800.000	-0.124	0.373
-155.691	-15.827	-0.178	-0.112
-154.677	-10.114	0.156	-0.103
-153.662	-112.082	-0.200	0.040
-152.647	404.770	0.159	0.331
-151.633	580.459	0.195	0.474
-150.618	-123.135	-0.206	0.033
-149.604	-65.356	-0.350	0.139
-148.589	42.388	-0.220	0.198
-147.574	-136.426	-0.153	-0.018
-146.560	496.751	-0.082	-0.188
-145.545	200.256	-0.155	-0.236
-144.531	-200.000	0.021	0.133
-143.516	-96.243	0.292	-0.077
-142.502	800.000	-0.158	0.498
-141.487	-200.000	-0.049	-0.258
-140.472	564.267	-0.066	0.159
-139.458	-3.053	-0.136	0.094
-138.443	449.730	-0.157	-0.344
-137.429	-170.014	0.240	0.008
-136.414	134.148	0.154	-0.198
-135.399	203.473	0.079	0.120
-134.385	-194.704	0.291	0.002
-133.370	86.165	0.188	0.205
-132.356	143.575	0.161	-0.213
-131.341	-100.943	-0.142	-0.035
-130.326	222.801	0.089	-0.141
-129.312	-59.218	-0.259	-0.111
-128.297	-34.584	0.077	0.042
-127.283	800.000	-0.042	-0.124
-126.268	-176.728	0.152	-0.004
-125.253	-69.313	0.282	-0.107
-124.239	81.574	-0.083	0.089
-123.224	-200.000	-0.007	0.125
-122.210	28.360	-0.087	0.073
-121.195	29.334	0.166	0.140
-120.180	10.281	0.172	0.129
-119.166	-129.359	-0.304	0.042
-118.151	-200.000	0.024	-0.169
-117.137	91.986	-0.170	0.190
-116.122	205.362	-0.125	-0.193
-115.107	59.549	-0.255	-0.248
-114.093	-30.311	0.229	-0.128
-113.078	-200.000	-0.005	-0.028
-112.064	774.251	0.088	-0.236
-111.049	800.000	0.040	0.126
-110.034	-56.021	0.147	-0.065
-109.020	800.000	0.053	0.203
-108.005	-78.413	-0.103	-0.035
-106.991	12.146	0.151	0.115
-105.976	123.308	-0.069	0.085
-104.962	609.002	0.056	-0.138
-103.947	-121.101	0.291	0.048
-102.932	-90.721	0.058	0.016
-101.918	225.945	0.131	-0.209
-100.903	800.000	-0.003	0.009
-99.889	353.468	0.083	-0.162
-98.874	186.035	0.219	0.322
-97.859	232.706	-0.074	-0.121
-96.845	-56.012	-0.171	0.075
-95.830	-200.000	0.002	0.276
-94.816	90.401	-0.277	0.306
-93.801	800.000	-0.006	-0.025
-92.786	435.326	0.085	-0.182
-91.772	-82.795	0.164	0.052
-90.757	-200.000	0.010	0.248
-89.743	-200.000	-0.009	-0.222
-88.728	132.439	0.075	-0.096
-87.713	14.350	-0.188	0.145
-86.699	-200.000	0.005	0.180
-85.684	107.194	-0.046	-0.054
-84.670	-37.622	-0.246	-0.129
-83.655	-200.000	0.007	0.043
-82.640	37.115	0.229	0.200
-81.626	-200.000	0.014	-0.107
-80.611	107.632	-0.123	-0.144
-79.597	-200.000	0.007	0.234
-78.582	8.886	-0.218	-0.162
-77.567	23.654	-0.165	0.134
-76.553	-112.070	0.026	0.005
-75.538	89.078	-0.107	0.117
-74.524	-99.513	0.111	0.027
-73.509	-109.037	0.175	-0.037
-72.494	-17.629	0.185	-0.115
-71.480	25.676	0.335	0.275
-70.465	499.336	0.041	0.094
-69.451	-22.121	-0.088	-0.053
-68.436	66.203	-0.288	0.289
-67.422	157.747	0.158	-0.216
-66.407	-173.852	0.152	-0.004
-65.392	52.256	-0.226	0.213
-64.378	217.727	0.070	0.111
-63.363	-47.460	-0.053	0.025
-62.349	800.000	0.026	0.071
-61.334	59.980	-0.944	-0.920
-60.319	229.577	0.382	0.616
-59.305	-200.000	-0.068	-0.793
-58.290	800.000	0.247	0.896
-57.276	236.766	0.886	1.448
-56.261	-200.000	96.466	565.374
-55.246	632.016	1391.819	3477.244
-54.232	187.126	2609.868	3838.212
-53.217	114.480	2306.925	2771.913
-52.203	43.902	1918.571	1733.594
-51.188	37.640	1705.636	1493.287
-50.173	34.805	1661.058	1432.982
-49.159	51.540	1709.199	1602.136
-48.144	54.968	1726.511	1644.342
-47.130	37.479	1682.454	1471.536
-46.115	34.426	1668.227	1436.085
-45.100	34.248	1663.429	1430.556
-44.086	34.307	1660.434	1428.365
-43.071	34.304	1657.670	1425.910
-42.057	34.171	1655.871	1423.311
-41.042	34.248	1653.353	1421.665
-40.027	34.209	1652.081	1420.225
-39.013	34.231	1649.652	1418.246
-37.998	34.249	1647.900	1416.818
-36.984	34.237	1646.581	1415.534
-35.969	34.424	1644.394	1414.989
-34.954	34.405	1643.265	1413.819
-33.940	34.391	1641.450	1412.098
-32.925	34.444	1639.293	1410.576
-31.911	34.374	1637.959	1408.859
-30.896	34.361	1636.415	1407.378
-29.881	34.461	1634.478	1406.396
-28.867	34.410	1632.962	1404.655
-27.852	34.305	1631.482	1402.555
-26.838	34.376	1629.900	1401.665
-25.823	34.386	1628.792	1400.729
-24.809	34.377	1627.485	1399.479
-23.794	34.398	1625.798	1398.129
-22.779	34.477	1624.061	1397.160
-21.765	34.313	1623.302	1395.246
-20.750	34.356	1620.609	1393.191
-19.736	34.366	1619.776	1392.496
-18.721	34.403	1618.682	1391.771
-17.706	34.413	1616.808	1390.179
-16.692	34.343	1614.876	1387.946
-15.677	34.390	1613.792	1387.308
-14.663	34.432	1612.122	1386.118
-13.648	34.501	1610.830	1385.456
-12.633	34.416	1609.211	1383.389
-11.619	34.456	1607.322	1382.002
-10.604	34.439	1606.042	1380.727
-9.590	34.387	1605.202	1379.569
-8.575	34.440	1603.593	1378.519
-7.560	34.353	1602.584	1376.963
-6.546	34.340	1601.791	1376.137
-5.531	34.350	1600.359	1374.920
-4.517	34.420	1598.658	1373.908
-3.502	34.398	1597.848	1372.998
-2.487	34.480	1596.332	1372.233
-1.473	34.150	1585.157	1360.219
-0.458	31.651	1565.605	1325.715
0.556	26.972	1565.147	1292.026
1.571	24.448	1588.859	1293.221
2.586	23.823	1602.378	1299.544
3.600	21.259	1550.048	1238.828
4.615	13.231	1440.320	1097.916
5.629	6.326	1375.726	1004.639
6.644	5.189	1367.729	991.494
7.659	5.054	1366.253	989.480
8.673	5.041	1364.824	988.272
9.688	4.946	1363.132	986.359
10.702	4.899	1360.549	984.106
11.717	8.121	1367.277	1009.309
12.731	15.601	1380.899	1066.939
13.746	19.457	1386.033	1095.336
14.761	18.673	1382.807	1087.724
15.775	17.464	1380.515	1078.171
16.790	16.341	1378.033	1069.032
17.804	15.500	1375.595	1061.729
18.819	15.094	1374.496	1058.223
19.834	14.845	1373.142	1055.515
20.848	14.580	1371.286	1052.323
21.863	14.419	1370.229	1050.402
22.877	14.277	1368.919	1048.415
23.892	14.280	1368.263	1047.839
24.907	14.267	1367.473	1047.057
25.921	14.258	1366.670	1046.295
26.936	14.219	1365.914	1045.376
27.950	14.251	1365.037	1044.817
28.965	14.509	1363.399	1045.089
29.980	14.534	1362.248	1044.271
30.994	14.427	1361.625	1043.025
32.009	14.518	1360.360	1042.536
33.023	14.537	1358.886	1041.435
34.038	14.465	1357.515	1039.841
35.053	14.438	1356.422	1038.744
36.067	14.344	1355.370	1037.261
37.082	14.376	1354.250	1036.511
38.096	14.477	1353.169	1036.219
39.111	14.442	1352.248	1035.203
40.126	14.430	1351.373	1034.367
41.140	14.236	1350.272	1032.231
42.155	14.080	1350.124	1031.058
43.169	14.211	1349.463	1031.278
44.184	14.219	1349.163	1031.003
45.199	14.133	1349.135	1030.358
46.213	14.225	1348.093	1030.044
47.228	14.408	1347.353	1030.516
48.242	14.366	1346.218	1029.295
49.257	14.299	1344.871	1027.762
50.271	14.297	1343.354	1026.503
51.286	14.273	1342.405	1025.534
52.301	14.278	1340.891	1024.320
53.315	14.274	1339.640	1023.247
54.330	14.249	1338.881	1022.426
55.344	14.172	1337.357	1020.698
56.359	14.244	1336.447	1020.356
57.374	14.181	1335.697	1019.305
58.388	14.092	1334.894	1018.062
59.403	14.065	1334.567	1017.553
60.417	14.158	1333.521	1017.237
61.432	14.099	1332.840	1016.263
62.447	14.030	1331.891	1015.031
63.461	14.001	1330.402	1013.632
64.476	13.990	1329.865	1013.064
65.490	14.039	1328.584	1012.296
66.505	14.112	1326.527	1011.084
67.520	14.084	1325.731	1010.214
68.534	14.209	1324.333	1009.819
69.549	14.087	1323.467	1008.331
70.563	14.053	1322.328	1007.171
71.578	14.109	1321.360	1006.683
72.593	13.967	1320.477	1005.060
73.607	13.837	1319.912	1003.753
74.622	14.028	1318.925	1004.071
75.636	14.003	1318.449	1003.467
76.651	14.007	1317.163	1002.424
77.666	14.058	1317.076	1002.578
78.680	14.017	1316.581	1001.861
79.695	14.032	1315.706	1001.198
80.709	14.164	1315.164	1001.496
81.724	14.176	1314.292	1000.811
82.739	14.280	1313.482	1000.736
83.753	14.363	1312.155	1000.132
84.768	14.356	1311.487	999.492
85.782	14.447	1310.368	999.096
86.797	14.390	1308.971	997.600
87.812	14.290	1308.061	996.223
88.826	14.232	1306.760	994.798
89.841	14.316	1306.081	994.690
90.855	14.325	1305.182	993.973
91.870	14.401	1304.265	993.640
92.884	14.377	1303.148	992.556
93.899	14.417	1302.759	992.413
94.914	14.415	1302.322	991.981
95.928	14.510	1301.165	991.578
96.943	14.531	1299.731	990.522
97.957	14.423	1299.009	989.243
98.972	14.258	1298.164	987.530
99.987	14.376	1297.279	987.468
101.001	14.431	1295.957	986.703
102.016	14.418	1295.245	985.997
103.030	14.387	1294.732	985.333
104.045	14.458	1293.224	984.520
105.060	14.329	1292.096	982.815
106.074	14.174	1291.064	981.027
107.089	14.149	1289.300	979.453
108.103	14.185	1287.731	978.388
109.118	14.186	1286.817	977.610
110.133	14.194	1285.239	976.373
111.147	14.170	1283.941	975.157
112.162	14.129	1282.917	974.056
113.176	14.219	1281.492	973.415
114.191	14.320	1280.316	973.024
115.206	14.307	1279.545	972.274
116.220	14.177	1278.441	970.593
117.235	14.222	1277.357	969.948
118.249	14.184	1276.927	969.312
119.264	14.071	1275.186	967.246
120.279	14.116	1273.826	966.390
121.293	14.112	1273.525	966.052
122.308	14.148	1272.158	965.141
123.322	14.189	1270.668	964.163
124.337	14.089	1270.221	963.159
125.352	14.060	1268.568	961.653
126.366	14.126	1267.678	961.276
127.381	14.076	1267.071	960.442
128.395	14.115	1265.792	959.613
129.410	14.063	1265.104	958.704
130.424	14.207	1264.022	958.629
131.439	14.224	1262.919	957.807
132.454	14.155	1262.058	956.669
133.468	14.193	1261.564	956.433
134.483	14.261	1260.940	956.267
135.497	14.252	1259.711	955.198
136.512	14.254	1258.614	954.292
137.527	14.245	1257.014	952.940
138.541	14.212	1255.829	951.770
139.556	14.276	1254.278	950.874
140.570	14.506	1253.277	951.344
141.585	14.530	1251.793	950.271
142.600	14.460	1251.114	949.275
143.614	14.500	1250.138	948.676
144.629	14.505	1248.650	947.492
145.643	14.395	1247.569	945.966
146.658	14.515	1246.038	945.401
147.673	14.345	1245.036	943.593
148.687	14.273	1243.733	942.114
149.702	14.214	1242.855	941.031
150.716	14.231	1241.420	939.958
151.731	14.281	1239.976	939.065
152.746	14.326	1238.926	938.437
153.760	14.373	1237.457	937.506
154.775	14.411	1236.410	936.844
155.789	14.414	1235.726	936.263
156.804	14.370	1234.542	935.032
157.819	14.441	1233.972	934.920
158.833	14.477	1233.005	934.302
159.848	14.617	1232.088	934.310
160.862	14.463	1231.234	932.717
161.877	14.421	1230.012	931.475
162.892	14.326	1228.779	929.929
163.906	14.433	1227.948	929.816
164.921	14.429	1226.762	928.810
165.935	14.451	1226.179	928.412
166.950	14.405	1225.556	927.604
167.964	14.447	1224.650	927.067
168.979	14.506	1223.776	926.655
169.994	14.547	1223.296	926.433
171.008	14.530	1222.205	925.430
172.023	14.608	1221.506	925.254
173.037	14.593	1220.829	924.574
174.052	14.754	1219.612	924.465
175.067	14.571	1218.440	922.482
176.081	14.521	1217.594	921.481
177.096	14.475	1216.748	920.510
178.110	14.530	1215.597	919.857
179.125	14.514	1214.638	918.962
180.140	14.510	1213.353	917.887
181.154	14.613	1212.505	917.729
182.169	14.665	1211.106	916.876
183.183	14.717	1209.697	916.015
184.198	14.806	1208.477	915.498
185.213	14.695	1208.161	914.569
186.227	14.709	1206.869	913.586
187.242	14.786	1205.449	912.848
188.256	14.831	1204.739	912.478
189.271	14.850	1204.014	911.952
190.286	14.759	1202.720	910.396
191.300	14.571	1201.746	908.556
192.315	14.641	1201.049	908.330
193.329	14.631	1200.377	907.687
194.344	14.569	1199.966	906.955
195.359	14.689	1199.358	907.069
196.373	14.765	1198.921	907.068
197.388	14.846	1198.660	907.234
198.402	14.886	1198.208	907.027
199.417	15.044	1197.162	907.012
200.432	15.065	1196.663	906.668
201.446	15.099	1195.243	905.695
202.461	15.110	1194.757	905.308
203.475	15.069	1193.876	904.338
204.490	14.970	1192.845	902.940
205.504	14.993	1191.062	901.634
206.519	14.937	1190.281	900.661
207.534	14.916	1189.248	899.687
208.548	15.077	1187.776	899.360
209.563	15.017	1187.289	898.592
210.577	14.991	1186.325	897.642
211.592	14.965	1185.703	896.952
212.607	15.213	1184.727	897.463
213.621	15.105	1184.215	896.418
214.636	15.157	1182.914	895.629
215.650	15.179	1182.126	895.073
216.665	15.163	1181.041	894.089
217.680	15.292	1180.169	894.037
218.694	15.311	1179.371	893.452
219.709	15.311	1178.401	892.638
220.723	15.295	1178.201	892.321
221.738	15.110	1177.555	890.769
222.753	15.289	1176.638	890.951
223.767	15.253	1175.603	889.898
224.782	15.353	1174.749	889.699
225.796	15.449	1174.544	889.974
226.811	15.395	1174.117	889.285
227.826	15.308	1173.123	887.997
228.840	15.392	1172.266	887.711
229.855	15.187	1171.412	885.904
230.869	15.357	1170.827	886.283
231.884	15.415	1169.731	885.681
232.899	15.355	1169.270	884.936
233.913	15.147	1168.819	883.418
234.928	15.280	1167.545	883.079
235.942	15.302	1166.652	882.439
236.957	15.218	1166.037	881.453
237.972	15.212	1165.687	881.081
238.986	15.188	1164.729	880.152
240.001	15.272	1164.116	880.054
241.015	15.397	1162.966	879.759
242.030	15.468	1161.947	879.286
243.045	15.387	1161.521	878.460
244.059	15.392	1160.993	878.012
245.074	15.442	1159.567	877.114
246.088	15.406	1159.321	876.665
247.103	15.557	1158.606	876.832
248.117	15.596	1157.778	876.332
249.132	15.709	1157.045	876.290
250.147	15.789	1156.367	876.112
251.161	15.848	1155.944	876.025
252.176	15.883	1155.115	875.497
253.190	15.870	1154.343	874.767
254.205	15.963	1153.772	874.742
255.220	15.994	1153.530	874.640
256.234	15.924	1152.559	873.467
257.249	16.099	1151.933	873.823
258.263	15.911	1151.439	872.396
259.278	15.945	1150.563	871.831
260.293	16.036	1150.007	871.803
261.307	15.973	1149.567	871.064
262.322	16.014	1148.914	870.706
263.336	15.959	1148.223	869.822
264.351	16.102	1147.397	869.858
265.366	15.979	1146.768	868.670
266.380	16.141	1146.124	868.938
267.395	16.259	1145.048	868.652
268.409	15.941	1144.608	866.608
269.424	15.972	1143.885	866.140
270.439	16.048	1143.556	866.204
271.453	16.052	1142.679	865.485
272.468	15.997	1141.837	864.491
273.482	16.060	1140.755	863.916
274.497	16.052	1140.076	863.282
275.512	16.154	1139.476	863.276
276.526	16.068	1138.436	861.974
277.541	16.018	1137.686	861.071
278.555	16.110	1137.451	861.289
279.570	16.142	1136.725	860.825
280.585	16.160	1136.226	860.463
281.599	16.281	1135.042	860.110
282.614	16.236	1133.969	858.990
283.628	16.230	1133.031	858.170
284.643	16.190	1132.135	857.216
285.657	16.204	1131.452	856.693
286.672	16.148	1130.729	855.787
287.687	16.291	1129.529	855.524
288.701	16.267	1128.774	854.756
289.716	16.250	1128.373	854.291
290.730	16.213	1127.423	853.312
291.745	16.364	1126.755	853.493
292.760	16.338	1126.409	853.020
293.774	16.336	1125.409	852.179
294.789	16.499	1124.714	852.403
295.803	16.379	1124.519	851.573
296.818	16.441	1123.445	850.993
297.833	16.375	1122.425	849.816
298.847	16.322	1122.228	849.326
299.862	16.483	1120.605	848.830
300.876	16.355	1120.792	848.253
301.891	16.464	1120.182	848.266
302.906	16.548	1119.196	847.864
303.920	16.638	1118.608	847.793
304.935	16.475	1118.133	846.541
305.949	16.667	1117.599	847.026
306.964	16.618	1116.625	845.966
307.979	16.650	1115.978	845.563
308.993	16.647	1115.156	844.846
310.008	16.758	1114.019	844.465
311.022	16.737	1113.359	843.784
312.037	16.742	1112.470	843.060
313.052	16.750	1111.429	842.239
314.066	16.662	1110.608	841.107
315.081	16.443	1110.368	839.760
316.095	16.508	1109.581	839.414
317.110	16.456	1108.900	838.567
318.125	16.548	1107.925	838.213
319.139	16.560	1107.075	837.553
320.154	16.550	1106.792	837.215
321.168	16.514	1105.972	836.342
322.183	16.689	1105.173	836.527
323.197	16.640	1105.011	836.089
324.212	16.679	1103.884	835.355
325.227	16.569	1103.646	834.561
326.241	16.730	1102.893	834.711
327.256	16.640	1102.248	833.707
328.270	16.686	1101.425	833.237
329.285	16.582	1100.200	831.725
330.300	16.677	1099.140	831.316
331.314	16.749	1098.387	831.025
332.329	16.799	1097.074	830.203
333.343	16.745	1096.355	829.321
334.358	16.670	1095.991	828.604
335.373	16.819	1095.151	828.625
336.387	16.772	1094.276	827.660
337.402	16.841	1093.497	827.334
338.416	16.962	1093.051	827.513
339.431	16.982	1092.253	826.934
340.446	16.930	1092.222	826.585
341.460	17.096	1091.237	826.574
342.475	17.205	1089.884	826.006
343.489	17.203	1088.913	825.187
344.504	17.145	1088.494	824.515
345.519	17.201	1087.389	823.875
346.533	17.185	1086.754	823.244
347.548	17.309	1085.980	823.189
348.562	17.209	1085.436	822.220
349.577	17.055	1084.931	821.016
350.592	17.137	1083.465	820.229
351.606	16.995	1083.279	819.330
352.621	17.008	1082.516	818.744
353.635	16.950	1081.716	817.789
354.650	16.978	1081.124	817.406
355.665	17.102	1080.217	817.242
356.679	17.089	1079.510	816.573
357.694	17.152	1078.977	816.402
358.708	17.204	1078.832	816.470
359.723	17.216	1077.676	815.577
360.738	17.205	1077.328	815.192
361.752	17.153	1076.684	814.381
362.767	17.240	1076.304	814.437
363.781	17.246	1075.471	813.764
364.796	17.235	1074.945	813.241
365.810	17.348	1074.345	813.258
366.825	17.458	1073.942	813.408
367.840	17.511	1073.493	813.246
368.854	17.532	1073.058	812.944
369.869	17.542	1072.157	812.237
370.883	17.691	1070.790	811.841
371.898	17.541	1070.081	810.516
372.913	17.528	1069.788	810.162
373.927	17.602	1069.468	810.202
374.942	17.662	1068.444	809.639
375.956	17.576	1068.268	809.025
376.971	17.621	1067.536	808.611
377.986	17.611	1067.385	808.379
379.000	17.612	1066.648	807.751
380.015	17.734	1066.000	807.769
381.029	17.802	1065.332	807.512
382.044	17.842	1064.798	807.228
383.059	17.677	1063.694	805.536
384.073	17.659	1063.023	804.872
385.088	17.844	1061.937	804.855
386.102	17.838	1060.842	803.926
387.117	17.869	1059.930	803.306
388.132	17.690	1059.581	802.131
389.146	17.600	1058.550	800.855
390.161	17.703	1057.853	800.740
391.175	17.815	1057.127	800.645
392.190	17.745	1056.766	799.972
393.205	17.940	1055.833	800.110
394.219	17.800	1055.162	798.874
395.234	17.721	1054.376	797.839
396.248	17.706	1053.374	796.941
397.263	17.818	1052.238	796.536
398.278	17.810	1051.559	795.912
399.292	17.696	1050.803	794.736
400.307	17.809	1050.004	794.589
401.321	17.748	1049.534	793.879
402.336	17.711	1048.901	793.157
403.350	17.790	1047.989	792.768
404.365	17.795	1047.635	792.450
405.380	17.825	1047.045	792.072
406.394	17.835	1046.091	791.329
407.409	17.937	1045.360	791.177
408.423	18.089	1044.519	791.177
409.438	18.002	1044.255	790.503
410.453	17.982	1043.454	789.733
411.467	18.091	1042.598	789.519
412.482	18.098	1042.289	789.247
413.496	18.048	1041.619	788.439
414.511	18.197	1041.192	788.735
415.526	18.261	1040.685	788.574
416.540	18.409	1039.814	788.527
417.555	18.264	1039.561	787.599
418.569	18.175	1039.082	786.757
419.584	18.401	1038.394	787.203
420.599	18.358	1037.810	786.497
421.613	147.763	1400.235	1790.698
422.628	135.004	1453.014	1790.803
