DTS Sentinel unit serial number:	SN413079Multiplexer serial number:	ORYXHardware model number:	OX4-SRSoftware version number:	ORYX F/W v4.00 Oryx Data Collector v3.7.2.0data status	okinstallation	princeton_trtdifferential loss correction	single-endedforward channel	channel 2reverse channel	N/Adate	2019/09/16time	02:43:35forward acquisition time	60.00reverse acquisition time	0.00gamma	496.2192k internal	0.2335k external	0.2335temperature offset calibration	0.9968default loss term (dB/km)	0.3790temperature slope calibration	1.0000multiplexer offset coefficient	1.0000multiplexer slope coefficient	1.0000fibre end	0.00T internal ref (°C)	27.75T ext. ref 1 (°C)	10.34T ext. ref 2 (°C)	22.38length (m)	temperature (°C)	Stokes	anti-Stokes-747.200	-173.482	0.245	-0.007
-746.185	62.769	-0.030	0.031
-745.171	537.172	-0.016	-0.037
-744.156	8.143	-0.141	0.107
-743.142	-112.987	-0.296	-0.059
-742.127	-40.521	-0.212	-0.111
-741.112	-200.000	0.015	-0.073
-740.098	-200.000	-0.025	0.157
-739.083	-123.661	0.071	0.011
-738.069	-200.000	0.051	0.231
-737.054	-106.465	0.299	0.067
-736.039	86.401	-0.082	0.090
-735.025	144.228	0.069	-0.092
-734.010	-135.454	-0.527	0.063
-732.996	-69.661	0.269	0.103
-731.981	-83.960	0.127	-0.041
-730.966	256.241	-0.118	0.204
-729.952	603.756	-0.146	0.364
-728.937	219.081	-0.034	-0.054
-727.923	-200.000	0.053	-0.319
-726.908	-200.000	-0.020	-0.461
-725.894	-31.188	0.158	-0.089
-724.879	-35.970	-0.102	0.055
-723.864	-44.840	-0.086	-0.043
-722.850	-124.369	-0.202	-0.032
-721.835	71.766	0.037	-0.039
-720.821	800.000	0.106	-0.324
-719.806	136.123	-0.100	-0.131
-718.791	-127.635	0.374	0.054
-717.777	8.246	-0.131	-0.098
-716.762	114.052	-0.236	0.289
-715.748	-17.263	-0.027	-0.017
-714.733	260.392	0.153	0.265
-713.718	-200.000	-0.014	-0.086
-712.704	800.000	-0.098	-0.306
-711.689	-23.817	-0.174	-0.104
-710.675	-176.367	0.431	0.011
-709.660	-46.431	0.304	0.150
-708.645	-36.337	0.225	-0.121
-707.631	800.000	0.016	-0.059
-706.616	-200.000	-0.011	-0.108
-705.602	-3.288	-0.160	-0.112
-704.587	-105.436	-0.209	0.048
-703.572	-42.996	-0.139	0.071
-702.558	-200.000	-0.050	-0.386
-701.543	-34.415	-0.161	-0.089
-700.529	-136.409	0.309	0.036
-699.514	-122.360	-0.267	0.044
-698.499	800.000	0.071	0.263
-697.485	-200.000	0.002	0.354
-696.470	554.687	-0.106	0.255
-695.456	-79.049	-0.219	0.075
-694.441	-53.359	-0.454	0.208
-693.426	-77.359	0.379	-0.132
-692.412	-48.533	-0.352	-0.170
-691.397	177.650	-0.173	-0.253
-690.383	800.000	-0.066	0.289
-689.368	-143.720	-0.350	-0.033
-688.354	71.409	-0.037	0.039
-687.339	238.178	-0.081	0.134
-686.324	-200.000	-0.019	-0.096
-685.310	-200.000	-0.101	0.526
-684.295	-132.528	0.164	0.021
-683.281	-10.283	0.061	-0.041
-682.266	-27.097	0.115	0.067
-681.251	-40.893	-0.426	-0.221
-680.237	-200.000	-0.019	0.115
-679.222	800.000	-0.050	0.150
-678.208	238.540	-0.192	0.320
-677.193	-44.129	0.244	-0.123
-676.178	-134.165	0.353	0.044
-675.164	70.584	0.198	-0.205
-674.149	-18.875	-0.128	0.080
-673.135	151.797	0.272	0.372
-672.120	11.415	-0.250	-0.192
-671.105	-22.946	-0.153	0.092
-670.091	800.000	-0.059	-0.237
-669.076	-200.000	-0.214	-0.001
-668.062	-109.401	0.277	-0.059
-667.047	-138.782	-0.278	0.030
-666.032	-105.988	0.310	-0.070
-665.018	-31.561	0.080	-0.045
-664.003	77.883	0.189	0.202
-662.989	59.382	-0.056	0.055
-661.974	20.239	-0.250	0.202
-660.959	-96.037	0.135	0.036
-659.945	-14.556	-0.267	-0.172
-658.930	188.787	0.157	0.235
-657.916	129.000	0.166	-0.212
-656.901	-46.176	-0.098	-0.048
-655.886	67.560	0.201	-0.206
-654.872	23.746	-0.140	0.115
-653.857	-65.541	-0.076	0.030
-652.843	-98.288	-0.319	0.082
-651.828	-8.079	0.406	0.274
-650.814	-200.000	-0.050	0.284
-649.799	760.422	-0.060	-0.162
-648.784	184.585	0.191	0.284
-647.770	-200.000	-0.025	0.433
-646.755	-125.979	0.220	-0.033
-645.741	-90.766	0.262	0.076
-644.726	137.253	0.025	-0.033
-643.711	-32.592	0.175	0.097
-642.697	38.492	-0.304	-0.271
-641.682	184.252	0.216	0.321
-640.668	800.000	0.127	0.359
-639.653	81.050	-0.078	0.084
-638.638	-89.449	0.125	0.037
-637.624	-61.195	0.054	-0.023
-636.609	-81.982	0.241	-0.079
-635.595	27.913	0.066	-0.055
-634.580	-162.716	-0.305	0.015
-633.565	7.683	0.101	0.076
-632.551	-136.649	0.108	-0.012
-631.536	336.930	-0.104	0.201
-630.522	366.374	0.073	-0.147
-629.507	800.000	0.107	0.364
-628.492	800.000	0.038	-0.159
-627.478	800.000	0.033	-0.121
-626.463	-65.752	-0.246	-0.098
-625.449	113.451	0.247	-0.300
-624.434	-200.000	0.032	0.238
-623.419	-200.000	-0.014	-0.286
-622.405	151.330	-0.166	0.226
-621.390	-109.435	-0.240	-0.051
-620.376	-93.291	0.249	-0.069
-619.361	-200.000	-0.005	-0.116
-618.346	-76.916	0.270	0.094
-617.332	194.257	-0.093	-0.141
-616.317	-97.178	0.131	-0.034
-615.303	1.036	0.257	0.184
-614.288	-71.808	0.324	0.121
-613.273	-200.000	-0.021	0.143
-612.259	-200.000	-0.009	-0.121
-611.244	-156.436	0.243	-0.015
-610.230	-100.750	0.304	-0.075
-609.215	40.917	-0.265	-0.239
-608.201	-200.000	-0.008	-0.244
-607.186	-79.761	0.276	-0.093
-606.171	-200.000	0.032	-0.174
-605.157	609.570	0.066	-0.166
-604.142	-182.927	0.234	-0.004
-603.128	-20.791	-0.255	-0.156
-602.113	-10.679	0.017	-0.011
-601.098	-178.449	-0.039	-0.001
-600.084	-200.000	-0.000	-0.010
-599.069	-73.109	-0.077	-0.028
-598.055	-23.573	0.165	-0.099
-597.040	56.169	-0.047	-0.046
-596.025	135.768	-0.183	0.239
-595.011	280.304	0.090	0.161
-593.996	-141.464	0.175	-0.018
-592.982	88.693	0.084	0.093
-591.967	58.510	-0.196	0.192
-590.952	144.303	0.014	-0.018
-589.938	-167.807	0.321	-0.013
-588.923	16.615	-0.085	-0.067
-587.909	-115.270	-0.210	0.040
-586.894	104.647	0.266	0.313
-585.879	-30.904	-0.289	-0.163
-584.865	35.592	-0.137	0.120
-583.850	106.769	0.148	0.175
-582.836	-200.000	-0.029	-0.393
-581.821	-200.000	0.015	-0.403
-580.806	-24.642	0.162	0.096
-579.792	-130.868	-0.247	-0.033
-578.777	235.615	0.192	-0.316
-577.763	-77.095	0.015	-0.005
-576.748	11.298	-0.281	-0.215
-575.733	800.000	-0.054	-0.227
-574.719	-136.421	0.146	-0.017
-573.704	162.028	-0.192	-0.268
-572.690	277.053	0.093	-0.164
-571.675	-83.911	0.388	-0.123
-570.661	177.473	-0.045	0.066
-569.646	372.504	0.062	-0.126
-568.631	-164.592	-0.148	-0.007
-567.617	567.663	0.161	0.390
-566.602	13.215	0.138	0.106
-565.588	-68.708	0.141	-0.054
-564.573	-23.843	-0.180	0.108
-563.558	800.000	-0.113	0.487
-562.544	-111.876	-0.469	0.094
-561.529	182.695	-0.087	-0.127
-560.515	282.477	0.037	0.067
-559.500	-200.000	0.043	-0.387
-558.485	7.637	-0.016	0.012
-557.471	-200.000	-0.029	-0.309
-556.456	32.103	0.196	0.168
-555.442	800.000	0.056	0.209
-554.427	-200.000	0.046	0.232
-553.412	179.061	0.137	-0.200
-552.398	38.514	0.280	-0.249
-551.383	-148.266	-0.078	-0.006
-550.369	-144.834	0.543	0.050
-549.354	-200.000	-0.039	-0.280
-548.339	-79.271	0.226	0.076
-547.325	-200.000	-0.000	-0.009
-546.310	-200.000	0.030	0.210
-545.296	50.444	0.298	-0.281
-544.281	-98.859	-0.309	0.078
-543.266	-112.262	0.521	0.104
-542.252	-96.052	-0.428	0.114
-541.237	-30.682	0.159	-0.090
-540.223	-37.529	-0.133	-0.070
-539.208	800.000	0.055	-0.181
-538.193	556.196	0.081	0.195
-537.179	17.959	0.237	0.189
-536.164	-64.613	0.328	0.133
-535.150	-72.352	0.135	-0.050
-534.135	145.876	-0.303	-0.405
-533.121	-59.531	0.074	-0.032
-532.106	162.712	0.175	-0.245
-531.091	800.000	0.068	0.269
-530.077	-29.723	-0.072	-0.041
-529.062	101.534	-0.192	-0.223
-528.048	596.653	0.037	0.092
-527.033	422.841	0.081	-0.174
-526.018	7.407	-0.091	-0.068
-525.004	6.873	-0.123	-0.091
-523.989	-170.579	-0.395	-0.014
-522.975	18.691	0.201	-0.160
-521.960	-200.000	0.025	0.315
-520.945	-12.416	0.078	0.051
-519.931	-135.090	-0.508	-0.061
-518.916	50.472	0.309	-0.291
-517.902	17.395	-0.156	0.123
-516.887	800.000	-0.070	0.228
-515.872	-200.000	-0.032	0.239
-514.858	-149.723	0.197	0.015
-513.843	-117.814	0.305	-0.055
-512.829	800.000	0.077	0.320
-511.814	-182.757	0.207	-0.004
-510.799	-111.334	0.191	-0.039
-509.785	205.766	-0.044	0.069
-508.770	623.289	0.011	0.027
-507.756	-94.342	0.064	0.017
-506.741	431.294	-0.134	0.288
-505.726	-200.000	-0.022	0.238
-504.712	-159.797	-0.239	-0.013
-503.697	151.634	0.129	-0.175
-502.683	408.543	0.090	-0.190
-501.668	-163.165	0.096	0.005
-500.653	-25.476	-0.111	0.065
-499.639	-187.651	-0.190	0.002
-498.624	-149.833	-0.167	0.013
-497.610	-53.397	0.104	0.047
-496.595	39.089	0.138	-0.122
-495.581	-104.168	-0.088	0.020
-494.566	18.397	-0.176	0.140
-493.551	8.338	-0.158	0.118
-492.537	-165.841	0.455	-0.019
-491.522	83.210	-0.248	0.269
-490.508	-100.564	-0.343	-0.084
-489.493	-137.829	0.136	0.015
-488.478	-55.086	0.034	0.015
-487.464	-200.000	0.008	-0.192
-486.449	-36.974	-0.241	0.128
-485.435	-200.000	-0.027	0.293
-484.420	-200.000	0.068	-0.313
-483.405	-200.000	0.011	0.112
-482.391	800.000	-0.128	-0.365
-481.376	584.145	0.084	-0.205
-480.362	330.226	-0.097	0.185
-479.347	-153.756	-0.231	-0.016
-478.332	-200.000	0.010	-0.057
-477.318	-177.333	-0.206	-0.005
-476.303	-86.323	-0.456	-0.139
-475.289	-49.328	0.276	0.131
-474.274	-200.000	-0.067	-0.454
-473.259	-200.000	-0.012	-0.452
-472.245	248.025	-0.152	0.255
-471.230	800.000	0.135	0.498
-470.216	-142.714	0.142	0.014
-469.201	304.309	-0.022	0.041
-468.186	-49.007	-0.174	-0.083
-467.172	-143.439	0.047	0.004
-466.157	55.969	0.277	0.267
-465.143	159.857	-0.131	0.182
-464.128	-21.532	-0.380	0.230
-463.113	-124.553	0.186	0.029
-462.099	800.000	-0.057	0.180
-461.084	13.664	-0.216	0.167
-460.070	674.918	0.071	0.182
-459.055	800.000	0.049	0.195
-458.040	800.000	-0.037	0.115
-457.026	-3.526	0.136	-0.094
-456.011	145.805	-0.112	-0.150
-454.997	-200.000	-0.014	-0.155
-453.982	-86.807	-0.105	0.032
-452.968	-151.770	-0.218	-0.016
-451.953	-200.000	0.003	0.036
-450.938	-40.686	-0.189	0.098
-449.924	262.955	0.251	0.433
-448.909	-200.000	-0.025	-0.141
-447.895	91.307	0.144	-0.160
-446.880	193.260	0.008	-0.011
-445.865	18.572	-0.313	-0.249
-444.851	224.561	-0.044	-0.071
-443.836	-102.181	-0.155	0.037
-442.822	800.000	0.050	-0.191
-441.807	424.531	-0.059	0.126
-440.792	-4.760	0.316	-0.216
-439.778	-70.200	-0.256	0.097
-438.763	404.339	0.169	-0.354
-437.749	-155.023	0.269	-0.018
-436.734	-104.698	0.272	-0.062
-435.719	305.775	-0.067	0.124
-434.705	-46.061	-0.302	0.148
-433.690	-100.882	0.021	-0.005
-432.676	-156.562	0.206	0.013
-431.661	8.734	0.165	0.123
-430.646	141.143	-0.027	0.035
-429.632	-129.837	0.149	-0.020
-428.617	62.050	-0.079	-0.078
-427.603	800.000	-0.097	0.270
-426.588	174.646	-0.116	0.166
-425.573	574.718	-0.057	0.138
-424.559	296.783	0.122	-0.222
-423.544	800.000	-0.037	-0.102
-422.530	20.549	0.148	-0.119
-421.515	-59.675	-0.084	0.036
-420.500	-200.000	0.031	0.272
-419.486	10.163	0.162	-0.122
-418.471	-200.000	-0.030	0.347
-417.457	185.528	-0.181	-0.267
-416.442	-56.237	0.184	0.081
-415.428	-25.595	-0.120	-0.070
-414.413	-105.829	0.132	0.030
-413.398	-11.103	-0.271	0.177
-412.384	800.000	0.085	-0.287
-411.369	-84.093	-0.157	0.049
-410.355	57.782	-0.183	0.178
-409.340	50.237	-0.372	-0.349
-408.325	-200.000	0.011	0.110
-407.311	800.000	-0.059	0.183
-406.296	0.685	0.203	-0.144
-405.282	-42.726	-0.320	0.162
-404.267	49.824	0.279	0.261
-403.252	-70.769	0.082	0.031
-402.238	169.372	0.058	0.083
-401.223	546.938	0.085	0.201
-400.209	-89.362	0.248	0.072
-399.194	239.379	0.116	-0.192
-398.179	204.452	-0.064	0.098
-397.165	-200.000	-0.034	0.226
-396.150	-200.000	0.056	0.354
-395.136	-192.807	-0.135	-0.001
-394.121	-200.000	0.008	0.243
-393.106	92.057	0.077	-0.085
-392.092	-5.625	0.022	0.015
-391.077	800.000	0.008	-0.025
-390.063	-71.512	0.069	0.026
-389.048	-93.712	-0.098	0.027
-388.033	800.000	-0.047	0.131
-387.019	-60.300	-0.177	-0.075
-386.004	-143.160	0.397	0.038
-384.990	684.069	-0.031	0.081
-383.975	-200.000	-0.240	0.000
-382.960	800.000	0.033	-0.128
-381.946	341.386	0.048	0.094
-380.931	1.237	-0.229	0.163
-379.917	333.294	-0.049	-0.094
-378.902	190.641	-0.112	0.166
-377.888	-57.407	-0.184	0.080
-376.873	503.384	0.046	0.105
-375.858	121.269	-0.158	-0.195
-374.844	-58.270	-0.053	-0.023
-373.829	29.456	0.087	0.073
-372.815	-200.000	-0.052	-0.265
-371.800	9.422	0.123	0.092
-370.785	33.599	-0.149	0.128
-369.771	625.818	0.119	-0.298
-368.756	72.154	0.114	-0.118
-367.742	800.000	-0.082	0.294
-366.727	-107.817	0.186	-0.040
-365.712	334.046	-0.138	-0.264
-364.698	-200.000	0.029	-0.263
-363.683	-140.459	0.280	0.029
-362.669	800.000	0.040	0.134
-361.654	-200.000	-0.007	0.049
-360.639	-200.000	-0.010	0.076
-359.625	-85.378	0.088	0.027
-358.610	167.341	0.090	0.127
-357.596	-200.000	-0.048	-0.388
-356.581	-200.000	0.012	-0.126
-355.566	800.000	-0.113	-0.408
-354.552	199.664	0.080	0.122
-353.537	129.335	-0.108	0.137
-352.523	-131.448	-0.513	0.067
-351.508	62.436	0.057	0.057
-350.493	-200.000	0.022	-0.150
-349.479	800.000	0.081	0.228
-348.464	183.428	-0.216	-0.315
-347.450	60.125	0.058	0.056
-346.435	195.790	0.107	0.162
-345.420	198.260	0.138	-0.209
-344.406	-20.603	-0.096	0.059
-343.391	80.095	-0.268	-0.285
-342.377	1.097	0.018	0.013
-341.362	113.631	0.022	0.026
-340.348	-80.466	-0.089	-0.029
-339.333	10.606	-0.105	0.079
-338.318	-144.863	0.038	-0.003
-337.304	-134.779	0.426	0.051
-336.289	-88.395	0.090	0.027
-335.275	13.718	0.090	-0.069
-334.260	-200.000	-0.060	0.279
-333.245	-10.350	-0.045	-0.029
-332.231	41.288	-0.153	0.136
-331.216	85.374	-0.131	-0.142
-330.202	465.597	0.113	0.250
-329.187	384.689	0.096	-0.197
-328.172	554.321	0.047	0.111
-327.158	-37.307	0.047	-0.025
-326.143	62.964	0.044	-0.043
-325.129	640.225	0.189	-0.475
-324.114	-200.000	0.007	0.255
-323.099	-149.300	0.045	-0.004
-322.085	-100.124	0.259	-0.064
-321.070	51.598	-0.247	-0.232
-320.056	-200.000	-0.002	-0.199
-319.041	-200.000	0.004	0.144
-318.026	-200.000	-0.024	0.396
-317.012	-51.630	-0.167	0.077
-315.997	137.998	0.247	-0.319
-314.983	201.037	0.078	0.119
-313.968	-200.000	-0.066	-0.298
-312.953	67.744	0.102	-0.103
-311.939	245.683	-0.080	-0.133
-310.924	-63.301	0.190	-0.077
-309.910	-200.000	0.006	0.193
-308.895	77.836	0.119	0.126
-307.880	-79.217	-0.170	-0.057
-306.866	-65.449	-0.035	-0.014
-305.851	-36.468	-0.090	-0.048
-304.837	-4.985	0.058	0.039
-303.822	800.000	0.056	0.196
-302.807	49.818	-0.184	-0.171
-301.793	-34.592	0.101	-0.054
-300.778	-200.000	0.008	0.119
-299.764	-200.000	-0.045	0.232
-298.749	-66.409	-0.462	-0.181
-297.735	61.950	-0.093	0.091
-296.720	83.792	-0.085	-0.092
-295.705	-200.000	0.009	0.422
-294.691	-168.432	0.426	0.016
-293.676	78.772	0.242	0.255
-292.662	99.711	-0.064	-0.073
-291.647	74.657	0.457	-0.474
-290.632	-200.000	-0.054	-0.244
-289.618	-50.841	-0.110	0.051
-288.603	92.406	0.142	0.159
-287.589	521.039	0.109	-0.252
-286.574	47.721	-0.138	-0.127
-285.559	107.246	0.171	-0.201
-284.545	375.023	-0.153	0.307
-283.530	800.000	-0.110	0.393
-282.516	-140.218	-0.403	-0.042
-281.501	-77.707	-0.446	0.152
-280.486	408.386	0.037	0.078
-279.472	800.000	-0.018	-0.055
-278.457	800.000	0.049	-0.149
-277.443	250.560	-0.071	0.119
-276.428	-115.472	0.141	-0.026
-275.413	147.276	-0.179	-0.237
-274.399	116.493	0.147	0.177
-273.384	-200.000	-0.023	0.119
-272.370	-98.791	0.327	-0.082
-271.355	800.000	-0.035	-0.129
-270.340	-132.149	-0.338	0.043
-269.326	-79.440	-0.202	-0.067
-268.311	-123.190	-0.235	0.037
-267.297	10.106	0.094	-0.070
-266.282	-136.717	-0.097	-0.011
-265.267	-200.000	-0.024	0.118
-264.253	-116.282	0.087	-0.016
-263.238	51.967	0.269	0.253
-262.224	-90.427	-0.105	0.030
-261.209	-200.000	-0.009	0.143
-260.195	401.892	0.089	0.185
-259.180	44.774	0.160	-0.145
-258.165	42.591	0.171	0.154
-257.151	68.421	0.168	-0.170
-256.136	-168.033	-0.377	0.015
-255.122	-173.015	-0.296	0.009
-254.107	-36.931	0.272	-0.144
-253.092	-26.923	0.241	0.139
-252.078	-200.000	-0.063	0.289
-251.063	648.751	0.088	0.222
-250.049	800.000	-0.085	-0.305
-249.034	-200.000	-0.007	0.364
-248.019	305.328	-0.105	-0.192
-247.005	101.236	-0.203	-0.233
-245.990	594.001	-0.006	-0.014
-244.976	146.526	0.269	0.356
-243.961	-26.377	0.149	-0.086
-242.946	271.778	-0.118	0.205
-241.932	-30.339	0.059	-0.033
-240.917	18.842	-0.341	0.269
-239.903	645.192	-0.127	0.320
-238.888	45.333	0.006	0.005
-237.873	7.363	0.036	0.027
-236.859	-114.211	0.255	-0.049
-235.844	419.042	-0.095	0.199
-234.830	800.000	0.040	0.148
-233.815	720.566	-0.081	-0.213
-232.800	-200.000	0.022	-0.146
-231.786	800.000	-0.148	-0.410
-230.771	24.571	0.039	-0.032
-229.757	-122.355	0.056	-0.009
-228.742	800.000	-0.089	-0.293
-227.727	364.379	-0.027	0.054
-226.713	-15.037	0.250	0.158
-225.698	34.339	-0.178	0.153
-224.684	-28.056	0.094	-0.053
-223.669	-113.484	-0.157	-0.030
-222.655	-200.000	-0.012	-0.073
-221.640	-200.000	0.003	-0.059
-220.625	-200.000	-0.041	-0.391
-219.611	108.172	-0.236	-0.277
-218.596	544.596	-0.076	-0.179
-217.582	-107.081	-0.098	-0.021
-216.567	367.555	-0.078	-0.154
-215.552	25.974	0.225	0.185
-214.538	800.000	0.083	-0.305
-213.523	-160.156	0.091	0.005
-212.509	-87.117	-0.138	0.041
-211.494	800.000	0.102	-0.326
-210.479	13.367	-0.210	-0.160
-209.465	-200.000	-0.082	-0.405
-208.450	-163.239	0.398	0.019
-207.436	-14.960	-0.301	0.190
-206.421	67.926	-0.127	-0.128
-205.406	-87.677	-0.032	-0.009
-204.392	800.000	0.056	-0.212
-203.377	33.900	-0.088	0.075
-202.363	19.859	-0.200	-0.158
-201.348	-181.800	-0.229	-0.004
-200.333	329.209	-0.111	0.211
-199.319	-121.233	-0.392	-0.064
-198.304	115.896	0.168	-0.202
-197.290	800.000	0.046	0.133
-196.275	78.121	0.038	0.039
-195.260	-200.000	-0.025	-0.383
-194.246	158.829	-0.075	-0.102
-193.231	800.000	-0.052	0.172
-192.217	81.922	-0.133	-0.142
-191.202	100.028	0.050	-0.057
-190.187	-101.493	-0.280	-0.067
-189.173	-23.424	0.167	-0.098
-188.158	-74.499	-0.178	-0.063
-187.144	-68.030	-0.132	0.051
-186.129	76.767	-0.015	-0.016
-185.114	800.000	0.057	-0.198
-184.100	800.000	-0.109	0.404
-183.085	800.000	-0.081	-0.272
-182.071	-52.089	0.207	0.094
-181.056	-36.808	-0.204	0.108
-180.042	163.818	0.194	0.269
-179.027	-15.294	0.242	-0.152
-178.012	-200.000	-0.056	-0.341
-176.998	-30.416	0.230	0.128
-175.983	-180.142	-0.395	-0.008
-174.969	-200.000	0.043	0.316
-173.954	-4.188	0.160	0.109
-172.939	800.000	-0.080	0.233
-171.925	99.095	0.144	0.164
-170.910	-200.000	-0.053	0.364
-169.896	418.556	-0.041	-0.086
-168.881	-62.849	-0.104	-0.042
-167.866	-91.151	-0.427	0.120
-166.852	800.000	0.093	-0.350
-165.837	290.295	0.042	-0.075
-164.823	-147.938	0.272	-0.022
-163.808	-200.000	-0.035	0.166
-162.793	644.052	0.072	-0.181
-161.779	-1.161	0.127	0.088
-160.764	275.351	-0.224	-0.390
-159.750	-162.494	-0.351	0.017
-158.735	-200.000	0.029	0.235
-157.720	27.424	0.084	-0.070
-156.706	-81.562	-0.217	-0.070
-155.691	-73.359	0.424	-0.152
-154.677	-20.953	-0.387	0.233
-153.662	628.828	0.107	-0.265
-152.647	-197.347	0.171	-0.001
-151.633	-200.000	-0.012	0.301
-150.618	-152.589	0.272	0.019
-149.604	-129.452	-0.592	0.081
-148.589	388.450	-0.072	0.147
-147.574	-105.568	-0.243	-0.054
-146.560	108.947	0.162	0.190
-145.545	342.278	0.124	-0.238
-144.531	431.434	0.066	-0.140
-143.516	48.377	0.198	-0.182
-142.502	313.793	0.210	0.387
-141.487	-109.335	0.316	-0.066
-140.472	493.027	-0.126	0.284
-139.458	9.186	0.167	0.124
-138.443	102.294	-0.092	-0.106
-137.429	-51.470	0.203	-0.093
-136.414	-23.109	0.235	0.139
-135.399	-200.000	-0.063	0.480
-134.385	235.172	0.104	-0.168
-133.370	800.000	-0.031	0.113
-132.356	-200.000	0.000	-0.071
-131.341	-200.000	-0.041	0.299
-130.326	247.370	0.078	-0.129
-129.312	244.063	0.169	-0.277
-128.297	25.117	-0.376	0.306
-127.283	-200.000	-0.066	0.442
-126.268	800.000	0.038	0.120
-125.253	-26.175	-0.311	0.179
-124.239	-114.970	-0.095	-0.018
-123.224	800.000	0.032	-0.129
-122.210	-141.296	0.302	0.030
-121.195	66.342	-0.219	-0.219
-120.180	270.112	0.046	-0.080
-119.166	-200.000	0.017	-0.250
-118.151	-45.774	-0.211	0.102
-117.137	-26.666	0.154	0.088
-116.122	-88.121	0.465	-0.137
-115.107	-113.456	-0.247	-0.047
-114.093	197.932	0.201	-0.301
-113.078	800.000	0.046	-0.159
-112.064	-200.000	-0.012	0.365
-111.049	-200.000	0.037	0.302
-110.034	170.111	-0.190	0.267
-109.020	610.830	0.068	0.167
-108.005	-43.687	0.238	-0.117
-106.991	-200.000	-0.043	-0.267
-105.976	498.270	-0.156	0.351
-104.962	-118.842	0.169	0.029
-103.947	-34.150	-0.140	-0.075
-102.932	-200.000	-0.024	0.120
-101.918	13.967	0.445	0.339
-100.903	76.115	-0.028	0.029
-99.889	605.720	-0.074	-0.181
-98.874	-153.967	-0.411	-0.027
-97.859	-17.301	-0.189	-0.117
-96.845	561.443	-0.082	-0.193
-95.830	-73.946	0.178	0.063
-94.816	800.000	0.066	-0.228
-93.801	800.000	-0.084	0.292
-92.786	87.130	0.043	-0.046
-91.772	800.000	0.154	0.506
-90.757	-26.035	0.215	-0.124
-89.743	12.942	0.106	0.080
-88.728	44.486	0.279	0.251
-87.713	-7.317	-0.143	-0.095
-86.699	-200.000	0.020	-0.199
-85.684	-200.000	-0.020	0.226
-84.670	-61.418	0.181	0.075
-83.655	-97.767	0.233	-0.059
-82.640	-44.090	-0.163	-0.080
-81.626	-200.000	0.011	-0.267
-80.611	65.169	0.245	-0.242
-79.597	-36.655	0.183	-0.096
-78.582	-71.821	-0.159	-0.058
-77.567	-200.000	0.026	-0.154
-76.553	-68.872	-0.057	0.022
-75.538	-120.913	0.148	-0.024
-74.524	130.203	0.147	-0.184
-73.509	245.209	-0.034	-0.056
-72.494	-200.000	0.048	-0.277
-71.480	617.074	0.155	0.382
-70.465	800.000	-0.109	0.357
-69.451	-200.000	0.038	0.213
-68.436	-61.999	-0.161	-0.066
-67.422	88.380	0.088	-0.096
-66.407	-107.975	0.254	-0.054
-65.392	249.850	0.140	0.232
-64.378	-11.048	0.369	-0.238
-63.363	11.189	0.122	-0.092
-62.349	93.594	-0.070	0.078
-61.334	95.145	-1.009	-1.124
-60.319	475.828	0.218	0.483
-59.305	769.937	-0.400	-1.064
-58.290	216.887	0.736	1.145
-57.276	610.884	0.648	1.584
-56.261	-200.000	112.523	636.960
-55.246	470.239	1501.311	3300.815
-54.232	147.533	2674.037	3523.071
-53.217	97.222	2287.228	2567.202
-52.203	36.573	1900.973	1641.233
-51.188	30.878	1692.582	1418.057
-50.173	28.409	1651.149	1364.929
-49.159	49.903	1705.357	1572.783
-48.144	49.012	1719.442	1578.989
-47.130	30.683	1677.676	1403.876
-46.115	27.873	1663.994	1371.303
-45.100	27.690	1659.629	1366.281
-44.086	27.701	1656.150	1363.442
-43.071	27.589	1653.996	1360.776
-42.057	27.557	1651.791	1358.671
-41.042	27.656	1649.364	1357.359
-40.027	27.688	1647.556	1356.058
-39.013	27.524	1645.783	1353.325
-37.998	27.622	1644.061	1352.585
-36.984	27.525	1643.259	1351.153
-35.969	27.841	1640.668	1351.303
-34.954	27.716	1639.786	1349.603
-33.940	27.648	1638.078	1347.636
-32.925	27.713	1635.597	1346.026
-31.911	27.749	1634.275	1345.148
-30.896	27.766	1632.094	1343.426
-29.881	27.645	1631.226	1341.762
-28.867	27.710	1629.208	1340.531
-27.852	27.721	1627.936	1339.511
-26.838	27.738	1626.457	1338.367
-25.823	27.684	1625.305	1336.972
-24.809	27.748	1623.674	1336.040
-23.794	27.769	1622.221	1334.945
-22.779	27.917	1620.290	1334.388
-21.765	27.636	1619.670	1331.768
-20.750	27.785	1617.404	1330.945
-19.736	27.809	1616.520	1330.333
-18.721	27.784	1615.146	1328.972
-17.706	27.781	1613.379	1327.443
-16.692	27.758	1611.893	1325.999
-15.677	27.841	1610.585	1325.470
-14.663	27.791	1609.441	1324.116
-13.648	27.896	1607.736	1323.425
-12.633	27.879	1606.441	1322.179
-11.619	27.852	1604.679	1320.485
-10.604	27.741	1603.586	1318.733
-9.590	27.784	1602.402	1318.010
-8.575	27.948	1600.783	1317.812
-7.560	27.802	1599.783	1315.885
-6.546	27.799	1598.767	1314.979
-5.531	27.831	1597.661	1314.242
-4.517	27.781	1596.697	1313.042
-3.502	27.808	1595.263	1312.004
-2.487	27.864	1593.723	1311.088
-1.473	27.541	1581.859	1298.974
-0.458	24.880	1562.087	1263.923
0.556	19.664	1564.534	1234.683
1.571	17.552	1588.123	1237.850
2.586	17.168	1600.499	1244.571
3.600	16.543	1550.464	1201.126
4.615	13.757	1451.466	1105.783
5.629	10.935	1396.936	1046.018
6.644	10.486	1389.651	1037.598
7.659	10.299	1388.450	1035.417
8.673	10.296	1387.549	1034.630
9.688	10.260	1385.270	1032.610
10.702	10.274	1382.156	1030.289
11.717	11.447	1384.017	1039.059
12.731	14.752	1389.726	1064.339
13.746	17.182	1393.471	1082.621
14.761	17.472	1392.872	1083.908
15.775	16.503	1390.318	1075.663
16.790	15.526	1387.209	1066.957
17.804	14.713	1384.863	1059.903
18.819	14.173	1383.761	1055.536
19.834	13.911	1382.497	1052.821
20.848	13.738	1380.536	1050.139
21.863	13.455	1379.607	1047.547
22.877	13.272	1378.708	1045.613
23.892	13.242	1377.840	1044.675
24.907	13.167	1377.327	1043.721
25.921	13.262	1375.885	1043.136
26.936	13.342	1374.732	1042.670
27.950	13.294	1374.053	1041.764
28.965	13.373	1373.216	1041.533
29.980	13.422	1371.695	1040.593
30.994	13.564	1370.163	1040.230
32.009	13.605	1369.358	1039.788
33.023	13.506	1368.321	1038.287
34.038	13.541	1366.577	1037.090
35.053	13.400	1365.440	1035.255
36.067	13.353	1364.451	1034.121
37.082	13.453	1363.253	1033.741
38.096	13.554	1362.127	1033.428
39.111	13.550	1361.250	1032.644
40.126	13.451	1360.626	1031.466
41.140	13.282	1359.604	1029.544
42.155	13.338	1359.021	1029.360
43.169	13.243	1359.535	1029.072
44.184	13.258	1359.108	1028.749
45.199	13.182	1358.562	1027.773
46.213	13.271	1357.667	1027.554
47.228	13.396	1356.739	1027.539
48.242	13.377	1355.658	1026.512
49.257	13.389	1353.963	1025.213
50.271	13.448	1352.485	1024.366
51.286	13.365	1351.502	1023.019
52.301	13.364	1350.482	1022.148
53.315	13.412	1349.073	1021.290
54.330	13.266	1348.369	1019.766
55.344	13.199	1347.510	1018.614
56.359	13.341	1345.739	1018.056
57.374	13.299	1345.005	1017.153
58.388	13.168	1344.319	1015.742
59.403	13.219	1343.691	1015.488
60.417	13.159	1343.233	1014.682
61.432	13.061	1342.269	1013.262
62.447	13.094	1341.293	1012.638
63.461	13.188	1339.944	1012.111
64.476	13.087	1338.373	1010.216
65.490	13.114	1337.765	1009.831
66.505	13.173	1336.065	1008.819
67.520	13.150	1334.631	1007.505
68.534	13.117	1334.027	1006.764
69.549	13.091	1332.555	1005.404
70.563	13.130	1332.048	1005.165
71.578	13.145	1330.406	1003.932
72.593	13.045	1329.584	1002.615
73.607	13.026	1328.727	1001.765
74.622	13.072	1328.194	1001.552
75.636	13.049	1327.677	1000.936
76.651	13.020	1326.815	1000.020
77.666	13.081	1326.199	999.839
78.680	12.989	1326.118	999.133
79.695	13.126	1324.986	999.021
80.709	13.129	1324.408	998.510
81.724	13.152	1323.300	997.729
82.739	13.279	1322.035	997.453
83.753	13.271	1321.509	996.919
84.768	13.335	1320.554	996.498
85.782	13.499	1319.307	996.452
86.797	13.353	1317.851	994.388
87.812	13.318	1316.315	992.929
88.826	13.220	1315.551	991.681
89.841	13.311	1314.665	991.467
90.855	13.277	1313.995	990.673
91.870	13.300	1312.823	989.841
92.884	13.401	1311.861	989.630
93.899	13.415	1311.471	989.330
94.914	13.490	1310.206	988.739
95.928	13.353	1309.667	987.423
96.943	13.407	1308.736	986.959
97.957	13.422	1307.425	985.970
98.972	13.390	1306.428	984.945
99.987	13.483	1304.843	984.211
101.001	13.405	1304.168	983.151
102.016	13.369	1303.137	982.075
103.030	13.374	1302.596	981.608
104.045	13.353	1301.312	980.432
105.060	13.448	1300.058	979.963
106.074	13.163	1299.076	977.448
107.089	13.169	1297.922	976.527
108.103	13.182	1296.249	975.259
109.118	13.230	1294.537	974.171
110.133	13.228	1293.651	973.403
111.147	13.092	1292.822	971.896
112.162	13.107	1291.434	970.855
113.176	13.215	1290.318	970.563
114.191	13.300	1288.589	969.674
115.206	13.338	1287.549	969.032
116.220	13.244	1286.364	967.500
117.235	13.314	1285.555	967.220
118.249	13.189	1284.554	965.650
119.264	13.175	1283.385	964.603
120.279	13.257	1281.796	963.801
121.293	13.191	1281.381	963.019
122.308	13.197	1280.068	961.981
123.322	13.112	1278.930	960.547
124.337	13.235	1278.226	960.646
125.352	13.199	1276.673	959.186
126.366	13.159	1275.613	958.073
127.381	13.123	1274.756	957.135
128.395	13.192	1273.785	956.724
129.410	13.207	1272.570	955.812
130.424	13.217	1271.789	955.200
131.439	13.211	1271.001	954.489
132.454	13.272	1270.032	954.031
133.468	13.318	1269.096	953.505
134.483	13.358	1268.110	952.912
135.497	13.346	1267.441	952.256
136.512	13.189	1266.071	950.241
137.527	13.350	1264.665	950.022
138.541	13.360	1263.158	948.863
139.556	13.449	1261.977	948.404
140.570	13.318	1260.810	946.695
141.585	13.383	1259.844	946.254
142.600	13.458	1258.675	945.724
143.614	13.414	1257.971	944.859
144.629	13.465	1256.698	944.107
145.643	13.515	1254.981	943.021
146.658	13.486	1254.194	942.182
147.673	13.463	1252.801	940.919
148.687	13.323	1251.739	939.245
149.702	13.349	1250.289	938.223
150.716	13.392	1248.845	937.299
151.731	13.309	1248.293	936.332
152.746	13.444	1246.880	935.950
153.760	13.501	1245.236	934.955
154.775	13.483	1244.181	933.982
155.789	13.468	1243.307	933.159
156.804	13.447	1242.632	932.450
157.819	13.460	1241.073	931.271
158.833	13.637	1240.263	931.577
159.848	13.656	1239.344	930.910
160.862	13.643	1238.308	929.974
161.877	13.602	1236.908	928.610
162.892	13.528	1236.331	927.681
163.906	13.512	1235.372	926.793
164.921	13.503	1233.970	925.610
165.935	13.608	1233.300	925.610
166.950	13.565	1232.759	924.881
167.964	13.640	1232.224	924.818
168.979	13.570	1231.660	923.919
169.994	13.654	1230.542	923.467
171.008	13.641	1229.551	922.573
172.023	13.657	1228.878	922.071
173.037	13.736	1227.843	921.654
174.052	13.745	1226.900	920.915
175.067	13.516	1226.060	918.932
176.081	13.560	1224.910	918.236
177.096	13.554	1224.130	917.534
178.110	13.618	1222.424	916.527
179.125	13.680	1221.279	915.932
180.140	13.760	1220.110	915.412
181.154	13.751	1219.445	914.783
182.169	13.707	1218.258	913.568
183.183	13.810	1216.744	912.924
184.198	13.843	1215.578	912.145
185.213	13.768	1214.604	910.924
186.227	13.938	1213.298	910.795
187.242	13.890	1212.302	909.705
188.256	13.875	1211.746	909.126
189.271	13.920	1210.561	908.400
190.286	13.801	1209.462	906.848
191.300	13.601	1208.962	905.297
192.315	13.557	1207.954	904.222
193.329	13.619	1207.322	904.010
194.344	13.724	1206.438	903.840
195.359	13.780	1206.092	903.806
196.373	13.843	1205.682	903.761
197.388	13.831	1205.309	903.334
198.402	13.955	1204.935	903.651
199.417	14.000	1204.321	903.355
200.432	14.171	1203.278	903.423
201.446	14.201	1202.125	902.635
202.461	14.181	1201.060	901.653
203.475	14.229	1200.197	901.181
204.490	14.144	1199.022	899.760
205.504	14.026	1197.732	898.073
206.519	14.085	1196.419	897.332
207.534	14.012	1195.605	896.246
208.548	13.984	1194.721	895.355
209.563	14.075	1193.296	894.695
210.577	14.038	1192.852	894.087
211.592	14.089	1192.067	893.690
212.607	14.153	1190.973	893.134
213.621	14.018	1190.601	892.052
214.636	14.067	1189.696	891.560
215.650	14.268	1188.382	891.572
216.665	14.176	1187.471	890.320
217.680	14.261	1186.330	889.837
218.694	14.268	1185.893	889.469
219.709	14.345	1185.287	889.345
220.723	14.354	1184.160	888.470
221.738	14.287	1183.510	887.550
222.753	14.308	1183.039	887.226
223.767	14.431	1182.218	887.188
224.782	14.379	1181.259	886.114
225.796	14.462	1181.041	886.311
226.811	14.432	1180.080	885.356
227.826	14.385	1179.347	884.478
228.840	14.423	1178.419	883.902
229.855	14.419	1177.646	883.226
230.869	14.412	1176.950	882.586
231.884	14.347	1175.959	881.418
232.899	14.339	1175.192	880.728
233.913	14.339	1174.597	880.205
234.928	14.383	1173.610	879.619
235.942	14.406	1173.108	879.284
236.957	14.277	1172.642	878.176
237.972	14.261	1172.365	877.806
238.986	14.369	1171.311	877.508
240.001	14.323	1170.829	876.830
241.015	14.435	1169.314	876.207
242.030	14.473	1168.415	875.654
243.045	14.478	1167.867	875.192
244.059	14.516	1166.786	874.503
245.074	14.526	1165.784	873.729
246.088	14.508	1165.442	873.297
247.103	14.563	1164.454	872.772
248.117	14.625	1164.095	872.745
249.132	14.714	1163.248	872.499
250.147	14.794	1162.512	872.289
251.161	14.823	1162.161	872.100
252.176	14.902	1160.918	871.500
253.190	14.986	1160.156	871.291
254.205	14.873	1160.217	870.671
255.220	14.997	1159.117	870.411
256.234	14.902	1158.813	869.614
257.249	15.016	1157.815	869.382
258.263	14.976	1157.356	868.751
259.278	15.055	1156.239	868.244
260.293	14.940	1156.030	867.414
261.307	15.008	1155.828	867.541
262.322	15.100	1155.102	867.394
263.336	15.133	1154.074	866.718
264.351	15.073	1153.818	866.135
265.366	14.962	1153.384	865.162
266.380	15.054	1152.447	864.854
267.395	15.087	1151.520	864.253
268.409	15.032	1150.721	863.293
269.424	15.143	1149.911	863.183
270.439	15.082	1149.312	862.344
271.453	15.080	1148.664	861.771
272.468	15.151	1147.176	860.939
273.482	15.062	1147.220	860.441
274.497	15.152	1146.538	860.316
275.512	15.135	1145.648	859.484
276.526	15.038	1145.095	858.495
277.541	15.145	1144.062	858.193
278.555	15.227	1143.699	858.264
279.570	15.219	1142.838	857.502
280.585	15.354	1142.374	857.769
281.599	15.334	1141.096	856.632
282.614	15.161	1140.155	854.965
283.628	15.249	1138.826	854.344
284.643	15.331	1138.219	854.229
285.657	15.300	1137.049	853.120
286.672	15.182	1136.798	852.256
287.687	15.347	1135.353	851.934
288.701	15.317	1135.004	851.443
289.716	15.404	1134.163	851.181
290.730	15.404	1133.197	850.380
291.745	15.379	1132.630	849.749
292.760	15.448	1131.694	849.322
293.774	15.404	1131.607	848.961
294.789	15.457	1131.204	848.852
295.803	15.555	1130.398	848.667
296.818	15.584	1128.959	847.658
297.833	15.456	1128.574	846.646
298.847	15.460	1127.498	845.784
299.862	15.376	1127.454	845.253
300.876	15.364	1126.914	844.716
301.891	15.552	1126.038	844.928
302.906	15.603	1125.334	844.583
303.920	15.721	1124.763	844.673
304.935	15.656	1124.124	843.791
305.949	15.727	1123.519	843.619
306.964	15.759	1122.630	843.035
307.979	15.754	1121.994	842.460
308.993	15.715	1121.178	841.574
310.008	15.750	1120.397	841.090
311.022	15.675	1119.809	840.200
312.037	15.778	1118.714	839.820
313.052	15.709	1117.596	838.560
314.066	15.673	1116.691	837.626
315.081	15.712	1115.905	837.161
316.095	15.672	1115.304	836.434
317.110	15.775	1114.605	836.350
318.125	15.722	1113.994	835.553
319.139	15.716	1112.944	834.661
320.154	15.663	1112.558	834.036
321.168	15.639	1111.968	833.402
322.183	15.757	1111.014	833.196
323.197	15.836	1110.520	833.142
324.212	15.806	1109.881	832.440
325.227	15.710	1109.564	831.655
326.241	15.812	1108.811	831.521
327.256	15.697	1108.539	830.673
328.270	15.778	1107.180	829.985
329.285	15.916	1105.672	829.458
330.300	15.755	1105.476	828.445
331.314	15.856	1104.029	827.785
332.329	15.910	1103.009	827.212
333.343	15.811	1102.500	826.272
334.358	15.800	1102.215	825.929
335.373	15.865	1100.957	825.235
336.387	15.906	1100.608	825.097
337.402	15.893	1099.922	824.448
338.416	16.019	1098.463	823.900
339.431	15.975	1098.235	823.441
340.446	15.984	1097.932	823.185
341.460	16.003	1097.055	822.543
342.475	16.125	1095.895	822.195
343.489	16.212	1095.009	821.886
344.504	16.219	1094.134	821.186
345.519	16.309	1093.302	820.932
346.533	16.239	1093.000	820.290
347.548	16.261	1091.954	819.537
348.562	16.251	1090.955	818.668
349.577	16.120	1090.333	817.496
350.592	16.249	1089.533	817.446
351.606	16.201	1088.639	816.473
352.621	16.092	1088.258	815.586
353.635	16.191	1087.716	815.584
354.650	16.272	1086.665	815.116
355.665	16.215	1086.202	814.424
356.679	16.282	1085.337	814.024
357.694	16.295	1084.961	813.733
358.708	16.191	1084.385	812.728
359.723	16.315	1083.362	812.485
360.738	16.391	1082.719	812.296
361.752	16.335	1082.783	812.003
362.767	16.401	1081.994	811.657
363.781	16.447	1081.087	811.126
364.796	16.402	1080.218	810.189
365.810	16.521	1079.831	810.397
366.825	16.511	1079.201	809.801
367.840	16.579	1079.104	809.983
368.854	16.631	1078.528	809.728
369.869	16.523	1077.615	808.456
370.883	16.529	1076.831	807.823
371.898	16.633	1075.708	807.405
372.913	16.569	1075.296	806.721
373.927	16.603	1074.928	806.534
374.942	16.680	1074.420	806.452
375.956	16.701	1073.932	806.110
376.971	16.523	1073.528	804.890
377.986	16.764	1072.724	805.361
379.000	16.810	1072.102	805.042
380.015	16.768	1071.377	804.228
381.029	16.794	1070.887	803.913
382.044	16.922	1070.000	803.782
383.059	16.773	1069.417	802.565
384.073	16.878	1068.284	802.141
385.088	16.926	1068.018	802.099
386.102	16.897	1066.703	800.904
387.117	16.822	1065.781	799.789
388.132	16.867	1064.746	799.153
389.146	16.768	1064.202	798.204
390.161	16.844	1063.637	798.067
391.175	16.856	1062.738	797.382
392.190	16.913	1062.309	797.255
393.205	16.915	1061.542	796.619
394.219	16.923	1060.820	796.046
395.234	16.866	1060.041	795.121
396.248	16.741	1059.082	793.745
397.263	16.893	1057.858	793.471
398.278	16.858	1057.128	792.691
399.292	16.847	1056.396	792.017
400.307	16.830	1055.840	791.451
401.321	16.877	1055.270	791.174
402.336	16.939	1054.477	790.799
403.350	16.789	1054.071	789.727
404.365	16.854	1053.380	789.442
405.380	17.000	1052.242	789.195
406.394	17.036	1051.775	788.943
407.409	17.102	1050.983	788.585
408.423	17.132	1050.099	787.992
409.438	17.016	1049.942	787.266
410.453	17.218	1048.944	787.384
411.467	17.269	1048.316	787.081
412.482	17.335	1047.428	786.650
413.496	17.227	1047.156	785.878
414.511	17.311	1046.606	785.783
415.526	17.378	1046.195	785.712
416.540	17.455	1045.662	785.599
417.555	17.213	1045.252	784.104
418.569	17.386	1044.412	784.205
419.584	17.495	1043.753	784.143
420.599	17.415	1043.273	783.344
421.613	104.564	1325.072	1475.296
422.628	96.041	1366.075	1475.386
