DTS Sentinel unit serial number:	SN413079Multiplexer serial number:	ORYXHardware model number:	OX4-SRSoftware version number:	ORYX F/W v4.00 Oryx Data Collector v3.7.2.0data status	okinstallation	princeton_trtdifferential loss correction	single-endedforward channel	channel 2reverse channel	N/Adate	2019/09/12time	18:46:49forward acquisition time	15.00reverse acquisition time	0.00gamma	496.2192k internal	0.2324k external	0.2324temperature offset calibration	1.0135default loss term (dB/km)	0.3790temperature slope calibration	1.0000multiplexer offset coefficient	1.0000multiplexer slope coefficient	1.0000fibre end	0.00T internal ref (°C)	33.00T ext. ref 1 (°C)	2.99T ext. ref 2 (°C)	27.50length (m)	temperature (°C)	Stokes	anti-Stokes-747.200	-200.000	0.011	0.184
-746.185	800.000	-0.117	0.438
-745.171	-122.464	0.393	-0.064
-744.156	-200.000	0.065	0.846
-743.142	-200.000	-0.005	-0.817
-742.127	-135.785	0.625	-0.075
-741.112	-44.737	-0.596	0.300
-740.098	-124.934	-0.576	-0.090
-739.083	800.000	0.119	0.360
-738.069	-200.000	-0.011	0.809
-737.054	800.000	-0.332	1.280
-736.039	-94.722	0.232	0.064
-735.025	-34.619	-0.390	0.215
-734.010	116.586	0.154	0.190
-732.996	26.931	-0.232	-0.197
-731.981	203.775	0.298	-0.465
-730.966	-159.957	-0.432	-0.024
-729.952	-24.557	0.112	0.067
-728.937	-127.583	0.201	0.029
-727.923	-200.000	-0.105	0.484
-726.908	31.001	-0.613	0.530
-725.894	59.830	0.761	0.757
-724.879	303.915	-0.145	-0.271
-723.864	-141.288	-0.139	0.014
-722.850	-200.000	-0.091	-0.511
-721.835	0.511	-0.304	-0.219
-720.821	-200.000	0.007	-0.344
-719.806	-32.365	0.083	-0.047
-718.791	800.000	-0.265	-0.845
-717.777	104.257	-0.801	-0.951
-716.762	800.000	0.104	-0.352
-715.748	-52.966	0.128	0.060
-714.733	61.741	-0.262	0.263
-713.718	220.050	-0.122	0.197
-712.704	46.820	0.864	0.809
-711.689	148.821	-0.234	-0.319
-710.675	189.577	0.070	0.106
-709.660	245.309	0.307	-0.520
-708.645	69.445	-0.192	-0.199
-707.631	-22.094	-0.162	0.099
-706.616	-200.000	0.034	0.953
-705.602	-200.000	-0.106	0.539
-704.587	111.049	-0.399	0.484
-703.572	562.110	0.208	-0.507
-702.558	-46.484	0.298	-0.147
-701.543	-124.104	0.306	0.048
-700.529	-117.168	0.239	0.044
-699.514	-200.000	0.001	-0.208
-698.499	705.976	-0.181	-0.482
-697.485	800.000	0.212	-0.760
-696.470	800.000	0.086	-0.250
-695.456	-200.000	-0.157	0.818
-694.441	-104.001	-1.253	0.294
-693.426	-120.321	-0.113	-0.019
-692.412	800.000	-0.367	-1.022
-691.397	-13.150	0.561	-0.367
-690.383	-44.371	-0.844	-0.426
-689.368	-200.000	-0.010	-0.524
-688.354	-200.000	-0.052	-0.957
-687.339	89.839	-0.465	0.523
-686.324	-145.343	0.470	-0.043
-685.310	-113.351	0.905	0.179
-684.295	-138.303	-0.326	0.036
-683.281	237.518	-0.338	0.565
-682.266	800.000	0.101	0.354
-681.251	-33.280	0.342	-0.190
-680.237	-42.320	-0.742	-0.381
-679.222	-141.788	-0.616	-0.062
-678.208	-74.103	0.323	0.118
-677.193	690.735	-0.050	-0.133
-676.178	35.228	-0.392	0.346
-675.164	130.890	0.091	-0.117
-674.149	800.000	-0.139	0.506
-673.135	800.000	-0.144	-0.403
-672.120	-112.980	0.902	0.179
-671.105	-139.084	-0.366	0.040
-670.091	-105.496	-0.306	-0.070
-669.076	128.282	0.453	-0.580
-668.062	-102.633	0.594	0.143
-667.047	84.062	0.260	-0.286
-666.032	540.132	-0.237	0.568
-665.018	-176.660	-0.720	0.019
-664.003	178.243	-0.587	-0.862
-662.989	-138.246	-0.325	-0.036
-661.974	248.330	-0.234	0.398
-660.959	35.343	0.196	-0.173
-659.945	65.145	-0.404	-0.411
-658.930	504.194	0.110	0.255
-657.916	574.095	0.327	-0.803
-656.901	-41.005	0.528	0.274
-655.886	206.860	0.176	0.275
-654.872	457.865	0.232	0.518
-653.857	281.270	0.541	0.974
-652.843	-80.297	0.722	-0.243
-651.828	-200.000	-0.081	-0.430
-650.814	-24.219	0.342	0.206
-649.799	-0.855	0.274	0.195
-648.784	-118.355	-0.430	0.077
-647.770	23.770	0.600	-0.497
-646.755	-200.000	0.012	0.338
-645.741	-5.743	0.628	0.432
-644.726	60.896	0.446	0.445
-643.711	257.777	-0.341	0.590
-642.697	-55.924	0.578	0.259
-641.682	14.235	0.095	-0.075
-640.668	-64.979	-0.247	-0.101
-639.653	309.406	0.142	-0.268
-638.638	800.000	-0.164	-0.599
-637.624	161.169	0.150	-0.211
-636.609	495.728	-0.050	0.116
-635.595	-139.439	0.941	-0.101
-634.580	-200.000	-0.036	0.833
-633.565	-191.623	-0.840	0.008
-632.551	-55.123	0.774	0.350
-631.536	12.323	0.589	-0.456
-630.522	-128.258	-0.544	0.078
-629.507	154.620	0.707	0.976
-628.492	-200.000	-0.001	-0.304
-627.478	61.444	-0.381	0.380
-626.463	535.135	-0.112	-0.266
-625.449	800.000	-0.232	-0.666
-624.434	-103.629	0.498	0.117
-623.419	43.706	0.465	-0.428
-622.405	146.911	0.187	0.253
-621.390	10.893	-0.523	0.402
-620.376	-200.000	-0.092	0.761
-619.361	-81.955	0.201	0.066
-618.346	-200.000	-0.117	-0.787
-617.332	-200.000	0.102	-0.607
-616.317	-53.046	-0.098	0.045
-615.303	-200.000	0.068	0.353
-614.288	169.429	-0.442	0.634
-613.273	-95.503	0.437	0.118
-612.259	-200.000	0.047	0.733
-611.244	-54.040	0.091	-0.042
-610.230	-56.902	-0.471	0.209
-609.215	343.209	-0.158	0.311
-608.201	-104.679	-0.543	0.126
-607.186	-109.836	1.147	0.242
-606.171	-200.000	-0.082	-0.599
-605.157	-123.359	0.131	-0.021
-604.142	-32.557	-0.460	0.257
-603.128	-82.185	0.593	0.194
-602.113	-52.537	0.944	-0.438
-601.098	-111.502	-0.249	0.051
-600.084	-200.000	-0.080	0.581
-599.069	-200.000	0.012	0.490
-598.055	542.476	-0.089	0.213
-597.040	-200.000	-0.161	-1.077
-596.025	-18.221	0.445	-0.279
-595.011	-200.000	0.025	0.217
-593.996	-131.761	-0.668	-0.088
-592.982	228.203	-0.155	-0.253
-591.967	-135.842	0.942	0.112
-590.952	-116.682	0.498	-0.092
-589.938	-109.520	-1.246	0.264
-588.923	-200.000	-0.037	0.264
-587.909	184.647	-0.225	0.335
-586.894	-33.215	-0.165	0.092
-585.879	-122.647	-0.931	-0.151
-584.865	-200.000	0.099	0.536
-583.850	-39.125	-0.432	-0.228
-582.836	72.626	0.072	0.075
-581.821	-75.629	-0.725	-0.258
-580.806	-139.709	0.288	-0.031
-579.792	800.000	-0.109	-0.434
-578.777	-200.000	-0.204	-0.950
-577.763	734.699	0.334	0.897
-576.748	-182.458	-0.303	0.006
-575.733	-194.688	-0.813	-0.006
-574.719	96.898	-0.502	0.577
-573.704	800.000	-0.400	1.226
-572.690	-120.745	-1.043	0.177
-571.675	-92.274	0.202	-0.057
-570.661	-1.839	0.102	0.072
-569.646	-101.988	1.189	-0.288
-568.631	129.273	-0.268	-0.343
-567.617	-200.000	-0.068	0.390
-566.602	75.472	0.367	0.389
-565.588	-200.000	-0.143	-0.814
-564.573	60.593	-0.661	-0.656
-563.558	-200.000	-0.084	0.754
-562.544	-164.877	0.243	-0.011
-561.529	-193.183	0.874	-0.008
-560.515	42.679	-0.999	-0.912
-559.500	121.327	0.368	0.459
-558.485	-128.388	-0.627	0.089
-557.471	-9.760	-0.903	-0.602
-556.456	800.000	0.184	0.598
-555.442	-200.000	0.055	0.849
-554.427	-21.878	-1.044	-0.636
-553.412	800.000	0.145	0.447
-552.398	-93.358	-0.203	-0.057
-551.383	783.541	0.431	-1.183
-550.369	-126.329	-0.214	0.032
-549.354	787.707	0.224	0.615
-548.339	-200.000	0.097	-0.458
-547.325	66.179	0.270	-0.275
-546.310	120.907	0.286	0.356
-545.296	-51.235	0.316	-0.148
-544.281	-200.000	-0.001	-0.848
-543.266	60.747	-0.164	-0.162
-542.252	-159.160	0.611	-0.034
-541.237	-90.358	0.591	0.172
-540.223	-200.000	0.090	-0.566
-539.208	-35.008	-0.551	-0.301
-538.193	-200.000	0.041	-0.400
-537.179	-200.000	-0.003	-0.399
-536.164	-200.000	-0.108	-0.858
-535.150	-13.533	0.198	-0.128
-534.135	73.708	-0.623	-0.654
-533.121	-200.000	-0.042	0.186
-532.106	109.000	0.556	0.666
-531.091	220.629	-0.587	-0.943
-530.077	800.000	-0.250	-1.015
-529.062	800.000	-0.147	-0.626
-528.048	-95.107	0.688	0.186
-527.033	28.698	-0.502	0.425
-526.018	434.258	-0.371	-0.806
-525.004	371.195	0.105	0.213
-523.989	800.000	-0.175	0.482
-522.975	40.402	0.329	0.296
-521.960	595.232	-0.159	-0.393
-520.945	-112.059	0.581	0.117
-519.931	-85.346	0.979	-0.306
-518.916	109.899	-0.331	-0.398
-517.902	582.987	0.070	0.173
-516.887	-200.000	-0.001	-0.365
-515.872	-15.182	0.210	0.134
-514.858	279.697	0.625	-1.116
-513.843	800.000	0.055	-0.221
-512.829	-43.988	0.521	-0.262
-511.814	-83.710	-0.102	0.032
-510.799	592.935	-0.326	-0.805
-509.785	-154.433	-0.349	-0.023
-508.770	12.400	-0.789	-0.608
-507.756	800.000	0.157	0.591
-506.741	10.309	0.457	0.347
-505.726	-177.513	-0.230	-0.006
-504.712	192.916	-0.163	-0.246
-503.697	-8.998	0.084	0.056
-502.683	-64.975	0.495	-0.200
-501.668	800.000	0.104	-0.431
-500.653	353.852	-0.192	0.380
-499.639	371.064	0.213	0.433
-498.624	448.934	0.135	-0.298
-497.610	-200.000	0.059	0.364
-496.595	-137.790	0.868	0.097
-495.581	-10.059	-0.253	-0.168
-494.566	-200.000	0.103	0.653
-493.551	-200.000	0.012	-0.542
-492.537	70.785	-0.215	-0.223
-491.522	-200.000	-0.024	0.372
-490.508	-200.000	0.082	-0.605
-489.493	-136.574	-0.319	-0.037
-488.478	-39.890	-0.645	0.336
-487.464	800.000	0.038	-0.145
-486.449	-143.568	-0.223	0.021
-485.435	-104.200	0.446	-0.103
-484.420	-3.467	0.326	-0.226
-483.405	462.471	-0.221	-0.494
-482.391	-53.140	0.468	-0.215
-481.376	-97.030	-0.300	0.078
-480.362	-200.000	0.185	-1.192
-479.347	-200.000	-0.047	-0.684
-478.332	-200.000	0.070	0.709
-477.318	65.690	0.422	0.427
-476.303	51.424	0.141	0.134
-475.289	70.098	-0.243	-0.251
-474.274	-200.000	-0.004	-0.048
-473.259	189.564	0.316	0.473
-472.245	-1.387	0.591	0.417
-471.230	-125.406	-0.379	0.058
-470.216	101.452	0.284	0.330
-469.201	332.552	0.398	0.767
-468.186	800.000	-0.152	0.638
-467.172	-200.000	0.121	-0.868
-466.157	-118.648	-0.878	-0.155
-465.143	-73.814	0.323	-0.117
-464.128	104.998	0.519	-0.612
-463.113	51.789	-0.506	-0.481
-462.099	-28.780	-0.614	0.353
-461.084	35.679	0.657	-0.576
-460.070	-29.997	-0.500	-0.284
-459.055	213.222	0.445	-0.702
-458.040	100.729	-0.187	-0.217
-457.026	-57.594	0.355	0.155
-456.011	-113.156	-0.585	-0.115
-454.997	-62.312	0.542	-0.225
-453.982	-141.051	-0.303	0.031
-452.968	63.127	0.502	0.502
-451.953	-166.409	-0.537	-0.022
-450.938	800.000	0.143	0.523
-449.924	61.604	0.403	0.400
-448.909	383.267	-0.288	-0.591
-447.895	-200.000	-0.136	0.602
-446.880	-90.623	0.335	-0.097
-445.865	488.210	0.139	0.317
-444.851	-65.912	0.412	0.164
-443.836	-200.000	0.051	0.268
-442.822	-200.000	0.019	0.302
-441.807	-96.194	0.738	-0.195
-440.792	374.016	0.103	0.209
-439.778	-17.302	0.441	0.277
-438.763	-93.629	0.843	-0.232
-437.749	-85.357	-0.368	0.114
-436.734	359.658	0.394	-0.786
-435.719	-200.000	-0.108	-0.702
-434.705	-28.659	0.997	-0.572
-433.690	-59.657	0.824	-0.352
-432.676	-200.000	0.076	-0.691
-431.661	-63.390	-0.503	0.206
-430.646	-63.239	-0.258	0.106
-429.632	225.677	0.342	-0.552
-428.617	349.506	-0.247	-0.487
-427.603	-200.000	-0.191	0.935
-426.588	124.755	-0.297	-0.373
-425.573	279.177	0.294	0.523
-424.559	800.000	-0.282	1.167
-423.544	306.767	-0.180	-0.335
-422.530	-98.445	-0.794	0.202
-421.515	38.619	0.438	0.390
-420.500	204.598	-0.311	0.480
-419.486	431.216	0.105	0.226
-418.471	3.682	-0.448	-0.326
-417.457	-95.936	-0.782	-0.208
-416.442	-30.235	0.212	0.120
-415.428	20.912	-0.606	0.489
-414.413	800.000	-0.130	0.550
-413.398	-174.052	-0.412	0.012
-412.384	-23.701	-0.481	-0.287
-411.369	419.542	-0.501	-1.069
-410.355	-176.414	0.708	0.018
-409.340	168.957	-0.632	0.897
-408.325	-41.417	0.507	-0.260
-407.311	800.000	-0.323	-0.934
-406.296	800.000	0.234	-0.681
-405.282	-54.767	-0.587	-0.264
-404.267	800.000	-0.172	0.606
-403.252	415.933	0.129	-0.273
-402.238	112.359	0.095	-0.115
-401.223	-125.562	-1.076	-0.163
-400.209	-200.000	0.036	0.244
-399.194	102.658	-0.192	-0.224
-398.179	248.287	0.202	0.340
-397.165	-155.334	-0.645	0.042
-396.150	764.724	-0.060	-0.161
-395.136	-200.000	-0.006	0.276
-394.121	-187.031	-0.517	-0.007
-393.106	-32.520	0.133	0.074
-392.092	-77.908	-1.028	0.353
-391.077	-95.831	-0.458	-0.122
-390.063	84.991	0.113	0.123
-389.048	-10.901	-0.160	-0.105
-388.033	-64.545	-0.929	-0.375
-387.019	-118.760	-0.179	0.031
-386.004	800.000	-0.212	0.678
-384.990	-127.196	0.363	-0.053
-383.975	-123.916	0.596	-0.093
-382.960	677.322	0.294	0.760
-381.946	-140.186	-0.490	-0.051
-380.931	-0.155	0.481	0.340
-379.917	-182.448	-0.544	0.010
-378.902	-77.629	0.155	-0.053
-377.888	-200.000	0.108	0.657
-376.873	-200.000	0.098	0.582
-375.858	365.241	-0.161	-0.324
-374.844	-63.127	1.109	-0.455
-373.829	-200.000	-0.056	0.844
-372.815	737.291	0.158	0.422
-371.800	-19.649	-0.718	0.442
-370.785	-115.651	-0.465	0.087
-369.771	-54.107	0.457	-0.207
-368.756	-200.000	-0.116	0.634
-367.742	39.412	-0.185	0.165
-366.727	80.117	-0.601	-0.643
-365.712	64.632	0.653	0.655
-364.698	363.245	-0.112	0.225
-363.683	109.931	0.809	0.965
-362.669	15.293	-0.334	-0.261
-361.654	-137.186	-0.283	-0.032
-360.639	774.403	0.192	0.521
-359.625	800.000	0.125	0.440
-358.610	151.424	0.050	0.067
-357.596	-74.745	0.074	0.027
-356.581	-200.000	0.020	-0.160
-355.566	70.653	-0.283	0.291
-354.552	-62.993	-0.665	0.273
-353.537	-200.000	-0.012	0.549
-352.523	-92.876	-0.465	0.129
-351.508	176.142	-0.401	0.579
-350.493	118.995	-0.448	0.551
-349.479	58.509	-0.603	0.588
-348.464	-79.300	-0.162	0.055
-347.450	-31.211	0.469	0.262
-346.435	51.409	0.404	-0.381
-345.420	22.456	-0.647	0.526
-344.406	98.968	-0.318	0.365
-343.391	800.000	-0.061	-0.266
-342.377	-67.222	-0.516	-0.202
-341.362	36.480	0.196	0.172
-340.348	-112.261	-0.660	-0.131
-339.333	17.295	0.674	0.532
-338.318	-141.074	-1.313	0.133
-337.304	24.094	0.830	-0.681
-336.289	-91.737	0.277	0.078
-335.275	-177.653	0.327	-0.008
-334.260	216.152	-0.395	-0.623
-333.245	-63.976	0.313	-0.127
-332.231	67.078	-0.750	0.760
-331.216	-102.700	-0.436	0.103
-330.202	-163.946	0.665	0.031
-329.187	58.083	-0.355	0.345
-328.172	169.602	-0.098	0.140
-327.158	33.613	0.514	-0.443
-326.143	-137.926	0.663	-0.074
-325.129	-61.639	-0.160	-0.067
-324.114	-114.504	0.838	0.160
-323.099	-200.000	-0.066	0.306
-322.085	-25.418	-0.980	0.575
-321.070	104.157	0.503	0.587
-320.056	167.285	0.136	-0.191
-319.041	-40.944	0.226	0.116
-318.026	322.550	0.105	0.198
-317.012	-108.766	-0.198	0.042
-315.997	-200.000	0.153	-0.853
-314.983	-179.888	0.296	-0.006
-313.968	150.749	-0.334	0.451
-312.953	20.865	-0.415	-0.334
-311.939	800.000	0.218	-0.684
-310.924	89.372	-0.228	-0.252
-309.910	36.959	0.248	-0.217
-308.895	-100.296	0.028	0.007
-307.880	116.059	0.693	-0.842
-306.866	-46.004	-0.386	0.189
-305.851	-105.994	1.256	0.281
-304.837	-76.589	-0.392	0.137
-303.822	-200.000	-0.081	-0.532
-302.807	37.389	-0.638	0.561
-301.793	153.887	-0.373	-0.507
-300.778	111.870	0.367	-0.439
-299.764	220.857	0.243	0.387
-298.749	-24.307	0.337	0.200
-297.735	-137.919	-0.570	-0.063
-296.720	50.557	0.204	0.192
-295.705	-28.004	-0.410	-0.236
-294.691	-158.582	0.711	0.041
-293.676	566.892	0.170	0.409
-292.662	194.196	0.500	0.751
-291.647	-200.000	-0.086	0.458
-290.632	-144.528	-1.548	-0.142
-289.618	134.894	-0.810	-1.043
-288.603	-47.562	0.330	0.159
-287.589	-66.513	-0.278	0.110
-286.574	357.289	0.199	-0.393
-285.559	-50.322	0.711	-0.333
-284.545	-3.551	-0.159	-0.109
-283.530	-200.000	0.033	0.220
-282.516	-74.078	-0.271	0.097
-281.501	-200.000	-0.024	-0.472
-280.486	-29.435	0.659	-0.374
-279.472	-99.493	-0.316	0.079
-278.457	-118.237	0.158	-0.028
-277.443	-46.099	0.873	0.426
-276.428	800.000	-0.106	0.332
-275.413	11.546	-0.339	-0.258
-274.399	170.637	-0.615	0.874
-273.384	-29.760	0.674	-0.381
-272.370	529.355	-0.027	-0.062
-271.355	-58.979	-0.449	-0.192
-270.340	-200.000	0.095	0.452
-269.326	406.907	-0.082	-0.172
-268.311	-80.589	-0.577	0.190
-267.297	13.495	0.543	0.417
-266.282	-75.857	-0.432	-0.152
-265.267	-31.190	0.429	0.240
-264.253	193.152	0.454	-0.680
-263.238	431.617	-0.200	-0.430
-262.224	800.000	0.112	0.330
-261.209	-200.000	0.169	-1.007
-260.195	-56.685	0.647	-0.284
-259.180	-200.000	-0.011	0.899
-258.165	800.000	-0.220	-0.711
-257.151	-143.138	0.520	0.050
-256.136	800.000	-0.131	-0.521
-255.122	-129.155	0.267	0.037
-254.107	-18.923	-1.069	-0.659
-253.092	184.538	-0.199	-0.293
-252.078	131.554	0.352	-0.448
-251.063	-198.546	0.681	-0.004
-250.049	-48.621	-0.560	-0.266
-249.034	-118.874	-0.378	0.066
-248.019	-200.000	-0.041	0.408
-247.005	800.000	0.314	-0.906
-245.990	-59.146	0.532	-0.227
-244.976	338.325	-0.295	-0.568
-243.961	-27.168	0.175	-0.101
-242.946	-200.000	0.015	-0.471
-241.932	51.721	0.564	-0.531
-240.917	199.813	0.163	-0.248
-239.903	254.014	0.088	0.149
-238.888	-55.700	0.331	-0.147
-237.873	-156.256	-0.853	-0.053
-236.859	-83.896	0.453	0.143
-235.844	-200.000	0.043	0.193
-234.830	99.272	0.656	0.751
-233.815	272.963	-0.523	-0.913
-232.800	-112.996	-0.514	-0.101
-231.786	203.713	0.140	-0.214
-230.771	-26.204	0.691	-0.402
-229.757	800.000	-0.206	0.847
-228.742	-151.788	0.390	0.028
-227.727	151.425	-0.315	-0.424
-226.713	-66.521	0.915	-0.359
-225.698	415.880	0.187	-0.395
-224.684	120.939	0.366	-0.450
-223.669	725.961	0.298	0.785
-222.655	-200.000	0.019	0.428
-221.640	-37.900	-1.034	0.543
-220.625	-83.914	0.889	0.280
-219.611	210.872	-0.836	1.300
-218.596	247.789	-0.380	-0.635
-217.582	-200.000	-0.054	-0.531
-216.567	-65.215	0.625	0.249
-215.552	-31.857	0.664	-0.368
-214.538	-200.000	-0.068	0.866
-213.523	141.181	0.510	0.667
-212.509	-159.623	-0.324	0.018
-211.494	-72.388	0.506	0.185
-210.479	476.625	0.112	-0.249
-209.465	-200.000	-0.030	0.298
-208.450	30.537	-0.600	-0.507
-207.436	800.000	-0.148	-0.619
-206.421	-200.000	-0.031	-0.455
-205.406	392.194	0.170	-0.349
-204.392	15.991	-0.046	-0.036
-203.377	256.393	0.066	-0.112
-202.363	79.019	0.472	-0.500
-201.348	-106.505	-0.317	0.070
-200.333	429.116	0.203	0.435
-199.319	-13.955	0.654	0.417
-198.304	-109.934	0.897	0.186
-197.290	-130.225	-0.886	-0.119
-196.275	-200.000	-0.036	0.551
-195.260	47.445	-0.574	0.529
-194.246	-200.000	0.003	-0.039
-193.231	37.136	-0.400	-0.350
-192.217	-39.789	0.223	-0.115
-191.202	70.143	0.317	-0.323
-190.187	-63.788	0.204	-0.082
-189.173	-48.682	-0.452	-0.214
-188.158	-200.000	0.003	0.196
-187.144	800.000	0.169	0.611
-186.129	-200.000	0.201	0.887
-185.114	165.684	-0.272	-0.381
-184.100	210.743	0.217	-0.336
-183.085	33.960	-0.314	0.270
-182.071	104.566	0.389	0.452
-181.056	-147.382	-0.207	-0.017
-180.042	173.948	-0.563	-0.803
-179.027	-200.000	-0.001	0.054
-178.012	-184.475	0.280	0.004
-176.998	-58.329	-1.064	0.457
-175.983	134.592	-0.399	0.510
-174.969	108.809	0.401	-0.473
-173.954	-200.000	0.111	0.584
-172.939	583.196	-0.179	0.433
-171.925	-124.502	0.669	0.103
-170.910	126.978	-0.272	-0.341
-169.896	91.589	0.486	-0.539
-168.881	-21.492	-0.413	0.249
-167.866	133.949	-0.162	0.207
-166.852	226.911	0.271	0.435
-165.837	90.067	-0.043	-0.048
-164.823	-200.000	0.034	0.742
-163.808	-30.526	-0.442	-0.247
-162.793	19.199	0.825	-0.653
-161.779	-113.460	0.076	-0.015
-160.764	-85.095	0.318	0.098
-159.750	800.000	-0.139	0.515
-158.735	60.777	0.420	-0.411
-157.720	-200.000	0.006	0.323
-156.706	-196.230	-0.825	-0.006
-155.691	-123.070	-0.838	0.133
-154.677	48.526	0.414	-0.383
-153.662	68.881	-0.213	0.216
-152.647	34.343	0.427	-0.367
-151.633	-85.858	0.663	-0.203
-150.618	-64.687	0.772	0.309
-149.604	800.000	0.164	-0.644
-148.589	523.963	0.265	0.615
-147.574	-15.078	-0.482	0.305
-146.560	-102.503	-0.793	-0.187
-145.545	66.916	0.341	0.342
-144.531	-27.086	-0.212	-0.122
-143.516	129.319	0.181	0.227
-142.502	183.170	-0.464	0.676
-141.487	800.000	0.201	0.607
-140.472	147.667	0.691	-0.918
-139.458	-179.465	0.701	-0.015
-138.443	-129.966	0.816	-0.110
-137.429	37.680	-0.653	0.572
-136.414	-75.674	1.147	-0.401
-135.399	122.110	0.102	-0.126
-134.385	120.476	0.478	0.585
-133.370	-112.700	-0.664	0.130
-132.356	800.000	0.267	-0.762
-131.341	-51.719	0.581	-0.267
-130.326	254.806	0.234	0.395
-129.312	-18.506	0.094	-0.058
-128.297	-200.000	0.118	-0.616
-127.283	744.299	-0.223	-0.591
-126.268	-90.440	-0.188	-0.054
-125.253	20.840	0.745	0.594
-124.239	-49.542	0.428	0.201
-123.224	-69.353	-0.221	0.084
-122.210	49.857	-0.451	0.419
-121.195	31.360	0.566	-0.479
-120.180	82.410	0.579	0.619
-119.166	-138.190	0.326	-0.036
-118.151	-103.002	-0.816	-0.191
-117.137	22.780	-0.666	0.537
-116.122	-69.366	-0.339	-0.128
-115.107	-200.000	0.034	-0.545
-114.093	293.836	-0.255	0.458
-113.078	126.724	0.281	-0.351
-112.064	-36.522	0.512	0.271
-111.049	166.687	0.289	-0.403
-110.034	16.399	0.360	-0.280
-109.020	-200.000	-0.043	-0.319
-108.005	192.810	-0.217	-0.322
-106.991	-128.699	0.428	0.059
-105.976	-101.580	-0.791	0.189
-104.962	134.535	-0.243	0.311
-103.947	-200.000	-0.078	0.861
-102.932	-165.324	1.620	0.070
-101.918	94.415	-0.246	0.274
-100.903	-15.543	-0.130	0.082
-99.889	-200.000	-0.024	0.213
-98.874	-42.498	-0.187	-0.094
-97.859	-200.000	0.023	0.726
-96.845	-200.000	0.398	-0.001
-95.830	182.422	-0.080	0.116
-94.816	57.321	-0.289	0.278
-93.801	29.048	-0.263	-0.220
-92.786	-200.000	0.139	-0.609
-91.772	-101.597	0.236	0.056
-90.757	800.000	-0.075	-0.217
-89.743	97.361	-0.553	-0.625
-88.728	142.947	-0.043	0.056
-87.713	-106.783	1.001	0.219
-86.699	203.419	-0.363	0.552
-85.684	-115.333	1.069	0.199
-84.670	-200.000	0.084	-0.646
-83.655	-33.271	0.604	-0.329
-82.640	532.083	0.109	0.254
-81.626	-191.326	-0.293	-0.003
-80.611	145.427	0.291	0.383
-79.597	65.577	-0.478	0.476
-78.582	-105.345	1.005	0.225
-77.567	-45.333	-0.402	0.196
-76.553	-66.581	-0.450	-0.176
-75.538	71.469	0.122	0.125
-74.524	800.000	-0.117	-0.376
-73.509	800.000	0.030	0.101
-72.494	51.219	0.567	0.529
-71.480	-200.000	0.007	-0.388
-70.465	36.696	-0.324	-0.281
-69.451	72.353	-0.319	-0.327
-68.436	-54.497	0.264	-0.118
-67.422	-46.998	-0.742	0.356
-66.407	27.244	-0.387	0.319
-65.392	193.477	-0.590	0.878
-64.378	-200.000	0.082	-0.623
-63.363	-12.824	-0.190	-0.121
-62.349	-105.454	0.921	-0.206
-61.334	-105.946	-0.887	-0.196
-60.319	-200.000	0.282	1.221
-59.305	670.223	0.166	-0.422
-58.290	315.563	0.761	1.411
-57.276	-200.000	0.166	1.191
-56.261	-200.000	95.068	578.513
-55.246	661.942	1362.662	3450.607
-54.232	202.033	2533.666	3838.693
-53.217	112.869	2250.800	2679.158
-52.203	42.268	1882.655	1680.562
-51.188	36.191	1674.048	1448.809
-50.173	33.600	1630.670	1392.223
-49.159	52.098	1679.470	1572.002
-48.144	52.917	1694.935	1592.508
-47.130	35.971	1655.531	1430.920
-46.115	33.293	1640.279	1397.933
-45.100	32.932	1636.264	1391.797
-44.086	32.870	1633.168	1388.653
-43.071	32.964	1631.411	1387.790
-42.057	33.056	1628.320	1385.782
-41.042	32.914	1626.977	1383.541
-40.027	33.018	1624.670	1382.290
-39.013	32.999	1622.267	1380.050
-37.998	32.946	1620.818	1378.378
-36.984	32.863	1619.969	1376.995
-35.969	32.952	1618.777	1376.575
-34.954	33.052	1617.067	1375.798
-33.940	32.935	1614.796	1372.954
-32.925	33.006	1613.408	1372.237
-31.911	32.827	1611.586	1369.333
-30.896	32.922	1609.783	1368.440
-29.881	32.902	1608.175	1366.869
-28.867	32.952	1606.019	1365.346
-27.852	33.072	1604.200	1364.613
-26.838	33.019	1603.317	1363.427
-25.823	33.148	1601.717	1362.944
-24.809	32.962	1601.168	1361.078
-23.794	33.088	1599.167	1360.232
-22.779	32.987	1597.690	1358.193
-21.765	33.184	1595.298	1357.519
-20.750	33.190	1592.841	1355.419
-19.736	33.073	1592.888	1354.570
-18.721	33.158	1591.391	1353.847
-17.706	33.182	1589.835	1352.645
-16.692	33.050	1588.775	1350.747
-15.677	32.930	1586.798	1348.155
-14.663	33.057	1585.997	1348.323
-13.648	33.095	1584.866	1347.582
-12.633	32.987	1582.589	1344.821
-11.619	32.886	1581.874	1343.443
-10.604	32.950	1579.579	1341.894
-9.590	32.739	1580.418	1341.054
-8.575	32.741	1578.235	1339.162
-7.560	33.031	1575.964	1339.237
-6.546	33.190	1574.176	1338.795
-5.531	33.180	1574.073	1338.579
-4.517	32.913	1573.100	1335.811
-3.502	32.995	1571.908	1335.323
-2.487	33.138	1570.626	1335.196
-1.473	32.724	1558.428	1321.870
-0.458	29.686	1539.223	1284.454
0.556	27.276	1539.084	1252.543
1.571	24.583	1562.550	1252.675
2.586	24.034	1574.414	1258.193
3.600	21.354	1520.805	1196.923
4.615	12.475	1411.558	1054.153
5.629	4.665	1347.098	957.978
6.644	2.791	1339.866	941.263
7.659	3.077	1337.848	941.511
8.673	3.085	1336.637	940.626
9.688	3.008	1335.344	939.163
10.702	2.917	1331.878	936.091
11.717	6.197	1339.675	961.564
12.731	15.752	1357.374	1033.130
13.746	23.335	1368.646	1088.399
14.761	24.693	1369.963	1097.695
15.775	24.780	1369.636	1097.870
16.790	25.265	1367.928	1099.370
17.804	25.038	1368.403	1098.268
18.819	25.354	1368.351	1100.065
19.834	25.504	1367.498	1100.198
20.848	25.296	1366.937	1098.379
21.863	25.613	1365.051	1098.703
22.877	25.558	1365.034	1098.253
23.892	25.738	1364.294	1098.662
24.907	25.462	1363.004	1095.841
25.921	25.470	1361.889	1094.897
26.936	25.560	1360.760	1094.439
27.950	25.561	1360.327	1094.004
28.965	25.452	1359.765	1092.789
29.980	25.486	1358.406	1091.808
30.994	25.571	1357.643	1091.611
32.009	25.631	1356.116	1090.653
33.023	25.383	1355.520	1088.577
34.038	25.591	1354.376	1088.819
35.053	25.491	1353.422	1087.351
36.067	25.532	1352.359	1086.650
37.082	25.586	1351.168	1085.918
38.096	25.524	1351.147	1085.432
39.111	25.693	1349.804	1085.279
40.126	25.569	1349.054	1083.829
41.140	25.544	1348.330	1083.005
42.155	25.467	1348.511	1082.586
43.169	25.426	1349.201	1082.803
44.184	25.683	1348.425	1083.627
45.199	25.453	1348.246	1082.004
46.213	25.712	1346.469	1082.038
47.228	25.363	1347.121	1080.369
48.242	25.395	1344.594	1078.438
49.257	25.406	1344.401	1078.255
50.271	25.664	1342.274	1077.997
51.286	25.620	1341.491	1077.009
52.301	25.534	1339.156	1074.525
53.315	25.584	1338.894	1074.523
54.330	25.586	1337.944	1073.676
55.344	25.447	1337.488	1072.384
56.359	25.496	1336.989	1072.180
57.374	25.491	1336.155	1071.388
58.388	25.485	1334.531	1069.956
59.403	25.620	1335.080	1071.108
60.417	25.452	1334.287	1069.372
61.432	25.548	1332.706	1068.583
62.447	25.519	1332.292	1067.983
63.461	25.760	1331.967	1069.060
64.476	25.724	1330.057	1067.217
65.490	25.635	1329.687	1066.300
66.505	25.580	1327.317	1063.982
67.520	25.681	1325.933	1063.377
68.534	25.433	1325.671	1061.606
69.549	25.498	1324.650	1061.076
70.563	25.581	1324.169	1061.090
71.578	25.499	1323.332	1059.837
72.593	25.793	1321.944	1060.365
73.607	25.530	1322.458	1059.134
74.622	25.841	1320.619	1059.394
75.636	25.608	1320.027	1057.459
76.651	25.588	1320.151	1057.344
77.666	25.690	1319.083	1056.996
78.680	25.798	1318.099	1056.747
79.695	25.845	1317.151	1056.170
80.709	25.621	1316.794	1054.481
81.724	25.650	1316.972	1054.698
82.739	25.637	1315.895	1053.665
83.753	25.591	1315.285	1052.813
84.768	25.776	1313.263	1052.185
85.782	25.561	1313.317	1050.880
86.797	25.570	1312.252	1049.984
87.812	25.499	1311.126	1048.576
88.826	25.524	1309.130	1047.034
89.841	25.782	1308.193	1047.693
90.855	25.744	1306.066	1045.677
91.870	25.619	1307.032	1045.630
92.884	25.690	1306.045	1045.159
93.899	25.625	1305.751	1044.456
94.914	25.762	1303.601	1043.440
95.928	25.476	1303.567	1041.660
96.943	25.668	1302.426	1041.769
97.957	25.471	1302.811	1040.842
98.972	25.821	1301.323	1041.589
99.987	25.712	1300.556	1040.252
101.001	25.813	1299.568	1039.953
102.016	25.627	1298.599	1038.010
103.030	25.583	1297.148	1036.508
104.045	25.742	1297.106	1037.295
105.060	25.572	1297.114	1036.230
106.074	25.587	1295.708	1035.106
107.089	25.812	1293.980	1034.922
108.103	25.629	1291.869	1032.093
109.118	25.716	1291.384	1032.114
110.133	25.692	1291.558	1032.023
111.147	25.819	1289.456	1030.980
112.162	25.798	1288.957	1030.370
113.176	25.768	1287.774	1029.164
114.191	25.438	1287.636	1027.077
115.206	25.885	1284.765	1027.244
116.220	25.713	1284.151	1025.681
117.235	25.589	1282.577	1023.627
118.249	25.298	1283.746	1022.810
119.264	25.576	1281.286	1022.343
120.279	25.638	1280.920	1022.309
121.293	26.006	1279.997	1023.573
122.308	25.613	1279.852	1021.137
123.322	25.923	1278.822	1021.984
124.337	25.784	1278.085	1020.514
125.352	25.927	1276.876	1020.270
126.366	25.768	1276.430	1018.923
127.381	25.617	1275.588	1017.306
128.395	25.611	1274.794	1016.547
129.410	25.778	1273.312	1016.219
130.424	25.834	1271.693	1015.151
131.439	25.882	1271.018	1014.798
132.454	25.809	1271.333	1014.544
133.468	25.794	1270.816	1013.958
134.483	25.896	1270.145	1013.908
135.497	26.095	1269.413	1014.355
136.512	25.923	1268.633	1012.674
137.527	25.901	1265.854	1010.244
138.541	25.992	1265.395	1010.297
139.556	25.560	1264.424	1007.013
140.570	25.640	1264.167	1007.166
141.585	25.925	1262.685	1007.490
142.600	25.699	1262.266	1005.805
143.614	25.810	1261.252	1005.528
144.629	25.704	1260.468	1004.224
145.643	25.522	1259.662	1002.474
146.658	25.818	1257.889	1002.623
147.673	25.732	1257.387	1001.656
148.687	25.977	1256.061	1001.874
149.702	25.920	1254.033	999.851
150.716	25.510	1253.320	996.923
151.731	25.702	1251.964	996.816
152.746	25.537	1252.347	996.118
153.760	25.556	1251.839	995.734
154.775	25.770	1249.746	995.163
155.789	25.428	1249.530	993.011
156.804	25.504	1249.045	992.960
157.819	25.888	1246.403	992.889
158.833	25.737	1245.762	991.460
159.848	26.018	1244.404	991.834
160.862	25.889	1244.255	990.921
161.877	26.291	1243.357	992.322
162.892	25.809	1243.811	989.949
163.906	25.836	1242.173	988.709
164.921	25.853	1242.177	988.716
165.935	25.821	1241.083	987.584
166.950	25.940	1240.259	987.492
167.964	25.741	1240.244	986.303
168.979	25.723	1239.510	985.534
169.994	26.079	1238.770	986.802
171.008	25.845	1238.149	984.941
172.023	25.706	1239.079	984.834
173.037	25.896	1237.291	984.366
174.052	25.887	1235.965	983.171
175.067	25.926	1234.984	982.518
176.081	25.872	1233.713	981.123
177.096	25.603	1235.140	980.708
178.110	26.165	1231.579	980.847
179.125	25.789	1231.726	978.835
180.140	25.956	1229.963	978.255
181.154	25.694	1230.386	977.078
182.169	25.713	1228.227	975.381
183.183	25.717	1227.630	974.844
184.198	25.937	1226.414	974.984
185.213	25.974	1225.239	974.163
186.227	26.298	1223.373	974.340
187.242	25.969	1223.398	972.501
188.256	26.042	1222.226	971.878
189.271	25.750	1221.767	969.853
190.286	25.885	1220.677	969.629
191.300	25.715	1220.440	968.439
192.315	26.035	1219.591	969.399
193.329	26.241	1219.235	970.135
194.344	26.186	1218.544	969.208
195.359	26.082	1217.721	967.909
196.373	25.617	1218.144	965.663
197.388	25.282	1217.873	963.565
198.402	25.696	1216.875	964.907
199.417	25.837	1216.798	965.519
200.432	25.987	1216.282	965.826
201.446	25.858	1215.384	964.339
202.461	25.994	1213.872	963.780
203.475	25.618	1214.080	961.851
204.490	25.614	1212.701	960.651
205.504	25.869	1211.278	960.800
206.519	25.777	1210.355	959.488
207.534	25.415	1210.282	957.421
208.548	25.865	1208.987	958.707
209.563	26.080	1207.608	958.668
210.577	25.902	1206.352	956.641
211.592	25.862	1206.085	956.132
212.607	25.842	1206.149	955.995
213.621	25.791	1205.303	954.968
214.636	25.870	1203.865	954.163
215.650	25.761	1203.305	953.059
216.665	26.176	1201.671	953.871
217.680	25.929	1201.703	952.510
218.694	26.174	1199.295	951.808
219.709	25.999	1199.198	950.724
220.723	25.730	1198.833	948.932
221.738	25.641	1198.905	948.437
222.753	25.740	1197.505	947.763
223.767	25.817	1196.253	947.097
224.782	26.097	1196.231	948.466
225.796	26.202	1195.868	948.646
226.811	25.592	1197.293	946.483
227.826	26.153	1194.262	946.947
228.840	25.620	1195.373	944.947
229.855	25.785	1194.560	945.083
230.869	26.139	1192.765	945.435
231.884	25.888	1191.516	943.051
232.899	25.796	1190.507	941.688
233.913	25.966	1189.891	942.002
234.928	26.069	1190.736	943.129
235.942	25.807	1189.108	940.387
236.957	25.774	1187.993	939.252
237.972	25.508	1187.561	937.439
238.986	25.555	1187.815	937.802
240.001	25.757	1187.040	938.158
241.015	25.847	1185.712	937.492
242.030	25.970	1185.160	937.614
243.045	25.973	1184.322	936.884
244.059	26.070	1183.027	936.281
245.074	26.075	1182.653	935.927
246.088	25.950	1182.185	934.824
247.103	25.933	1181.860	934.400
248.117	26.060	1180.236	933.688
249.132	26.127	1179.482	933.356
250.147	26.411	1179.269	934.574
251.161	26.504	1178.673	934.497
252.176	26.339	1178.153	933.155
253.190	26.089	1178.371	931.950
254.205	26.436	1176.380	932.080
255.220	26.352	1176.345	931.537
256.234	26.486	1175.423	931.414
257.249	26.414	1174.746	930.430
258.263	26.218	1174.806	929.385
259.278	26.429	1173.483	929.340
260.293	26.368	1172.932	928.509
261.307	26.335	1173.109	928.399
262.322	26.368	1171.645	927.325
263.336	26.525	1170.438	927.091
264.351	26.377	1170.318	926.156
265.366	26.465	1169.917	926.206
266.380	26.412	1169.461	925.494
267.395	26.258	1169.336	924.525
268.409	26.069	1168.410	922.742
269.424	26.207	1167.760	922.857
270.439	26.365	1166.470	922.561
271.453	26.392	1166.078	922.307
272.468	26.421	1163.947	920.687
273.482	26.428	1164.417	921.015
274.497	26.310	1164.247	920.194
275.512	26.093	1164.226	918.990
276.526	26.436	1162.489	919.284
277.541	26.354	1162.376	918.698
278.555	26.179	1162.634	917.930
279.570	26.366	1160.677	917.250
280.585	26.272	1160.056	916.205
281.599	26.499	1158.581	916.108
282.614	26.291	1158.104	914.596
283.628	26.397	1156.363	913.677
284.643	26.252	1156.925	913.307
285.657	26.484	1154.794	912.712
286.672	26.206	1155.022	911.411
287.687	26.193	1155.265	911.455
288.701	26.421	1153.239	910.928
289.716	26.399	1152.717	910.321
290.730	26.226	1152.408	909.125
291.745	26.351	1151.729	909.137
292.760	26.474	1150.140	908.423
293.774	26.199	1150.654	907.365
294.789	26.372	1148.982	906.836
295.803	26.308	1150.001	907.236
296.818	26.089	1148.976	905.251
297.833	26.309	1148.008	905.510
298.847	26.178	1147.448	904.333
299.862	26.487	1145.655	904.381
300.876	26.362	1144.948	903.122
301.891	26.380	1144.716	902.946
302.906	26.559	1145.117	904.077
303.920	26.547	1143.424	902.602
304.935	26.717	1143.118	903.129
305.949	26.942	1141.825	903.146
306.964	26.829	1141.369	902.145
307.979	26.444	1141.312	900.103
308.993	26.614	1139.789	899.665
310.008	26.544	1139.029	898.641
311.022	26.403	1140.103	898.709
312.037	26.577	1138.377	898.130
313.052	26.603	1136.833	896.959
314.066	26.476	1136.466	895.965
315.081	26.181	1135.795	893.897
316.095	26.653	1134.319	894.988
317.110	26.446	1133.801	893.475
318.125	26.246	1134.408	892.889
319.139	26.238	1133.710	892.219
320.154	26.320	1133.279	892.205
321.168	26.654	1131.562	892.422
322.183	26.423	1130.956	890.729
323.197	26.393	1130.261	889.952
324.212	26.494	1129.646	889.888
325.227	26.510	1129.734	889.958
326.241	26.620	1129.255	890.039
327.256	26.404	1128.793	888.537
328.270	26.400	1127.612	887.511
329.285	26.190	1126.398	885.446
330.300	26.492	1125.483	886.129
331.314	26.615	1124.154	885.603
332.329	26.098	1125.002	883.661
333.343	26.379	1123.606	883.862
334.358	26.608	1122.559	884.079
335.373	26.786	1121.761	884.239
336.387	26.843	1121.554	884.278
337.402	26.874	1120.541	883.549
338.416	26.767	1120.451	882.881
339.431	26.631	1119.252	881.195
340.446	26.957	1118.544	882.144
341.460	26.891	1118.257	881.519
342.475	26.756	1117.804	880.427
343.489	26.877	1116.619	880.006
344.504	26.650	1116.108	878.422
345.519	26.629	1114.772	877.194
346.533	26.644	1113.598	876.263
347.548	26.783	1113.961	877.146
348.562	26.580	1113.160	875.454
349.577	26.566	1112.438	874.744
350.592	26.512	1110.989	873.263
351.606	26.499	1110.968	873.107
352.621	26.485	1111.138	873.098
353.635	26.469	1109.288	871.487
354.650	26.422	1108.315	870.420
355.665	26.639	1107.669	870.881
356.679	26.734	1106.855	870.622
357.694	26.599	1107.140	870.118
358.708	26.946	1105.555	870.461
359.723	26.586	1105.701	868.772
360.738	26.604	1104.665	867.966
361.752	26.317	1103.500	865.600
362.767	26.724	1103.178	867.218
363.781	26.745	1102.871	867.000
364.796	26.776	1102.807	867.024
365.810	26.558	1103.666	866.577
366.825	26.859	1101.654	866.359
367.840	26.796	1101.187	865.613
368.854	27.086	1100.047	866.023
369.869	26.816	1099.199	863.994
370.883	26.775	1098.815	863.422
371.898	26.597	1098.444	862.203
372.913	26.761	1097.681	862.309
373.927	26.537	1097.688	861.175
374.942	27.012	1097.195	862.968
375.956	26.928	1096.447	861.905
376.971	26.849	1095.879	861.008
377.986	26.893	1094.864	860.340
379.000	27.036	1093.092	859.548
380.015	27.215	1092.691	860.008
381.029	27.065	1093.398	859.774
382.044	27.135	1091.702	858.700
383.059	26.744	1091.555	856.659
384.073	27.100	1090.932	857.776
385.088	27.011	1089.972	856.526
386.102	26.830	1089.788	855.450
387.117	26.433	1088.776	852.707
388.132	26.897	1086.707	853.195
389.146	26.827	1086.242	852.426
390.161	26.740	1085.937	851.702
391.175	26.815	1084.552	850.894
392.190	26.853	1083.759	850.372
393.205	26.745	1083.707	849.752
394.219	26.764	1083.613	849.690
395.234	26.754	1082.608	848.779
396.248	26.598	1081.592	847.180
397.263	26.575	1081.014	846.542
398.278	26.680	1080.330	846.426
399.292	26.824	1079.378	846.275
400.307	26.700	1079.282	845.544
401.321	26.564	1078.411	844.158
402.336	26.585	1077.206	843.235
403.350	26.921	1075.970	843.755
404.365	26.704	1076.688	843.233
405.380	26.793	1075.891	842.951
406.394	26.846	1075.401	842.735
407.409	26.994	1074.067	842.306
408.423	26.778	1073.799	841.017
409.438	26.744	1072.823	840.021
410.453	26.798	1072.747	840.139
411.467	26.580	1072.346	838.740
412.482	26.757	1070.749	838.235
413.496	26.840	1070.121	838.054
414.511	26.866	1070.182	838.146
415.526	26.806	1068.934	836.820
416.540	26.839	1069.527	837.361
417.555	27.082	1067.810	837.062
418.569	26.943	1067.694	836.255
419.584	27.163	1066.771	836.470
420.599	26.774	1067.110	834.873
421.613	152.858	1404.242	1792.569
422.628	140.675	1453.359	1792.567
