DTS Sentinel unit serial number:	SN413079Multiplexer serial number:	ORYXHardware model number:	OX4-SRSoftware version number:	ORYX F/W v4.00 Oryx Data Collector v3.7.2.0data status	okinstallation	princeton_trtdifferential loss correction	single-endedforward channel	channel 2reverse channel	N/Adate	2019/09/13time	02:07:35forward acquisition time	60.00reverse acquisition time	0.00gamma	496.2192k internal	0.2333k external	0.2333temperature offset calibration	1.0181default loss term (dB/km)	0.3790temperature slope calibration	1.0000multiplexer offset coefficient	1.0000multiplexer slope coefficient	1.0000fibre end	0.00T internal ref (°C)	27.56T ext. ref 1 (°C)	3.89T ext. ref 2 (°C)	22.23length (m)	temperature (°C)	Stokes	anti-Stokes-747.200	444.428	0.030	-0.067
-746.185	26.176	0.219	0.184
-745.171	-200.000	0.079	0.351
-744.156	-31.434	0.230	0.130
-743.142	-65.627	0.087	-0.035
-742.127	800.000	-0.065	0.277
-741.112	-52.660	0.129	0.060
-740.098	-133.249	-0.164	-0.021
-739.083	-200.000	0.048	0.476
-738.069	644.691	-0.048	-0.124
-737.054	226.082	0.089	0.145
-736.039	800.000	0.044	-0.171
-735.025	59.256	0.063	0.062
-734.010	-200.000	0.016	-0.319
-732.996	-200.000	-0.023	0.267
-731.981	-175.219	0.134	0.004
-730.966	-126.942	-0.264	-0.039
-729.952	-50.527	0.120	0.057
-728.937	-200.000	-0.073	0.406
-727.923	591.476	0.017	-0.042
-726.908	367.709	-0.153	-0.311
-725.894	143.877	-0.119	0.159
-724.879	144.958	0.073	0.098
-723.864	-139.881	-0.577	0.061
-722.850	-87.140	0.360	-0.110
-721.835	-200.000	0.047	-0.226
-720.821	42.134	0.123	-0.112
-719.806	-47.652	-0.274	0.133
-718.791	-48.097	-0.168	-0.081
-717.777	-200.000	-0.038	-0.372
-716.762	-200.000	-0.004	-0.209
-715.748	24.018	-0.162	-0.135
-714.733	-200.000	0.001	0.121
-713.718	800.000	0.078	0.281
-712.704	2.390	0.182	0.132
-711.689	-200.000	-0.013	-0.195
-710.675	-157.034	0.198	0.012
-709.660	59.495	0.150	-0.148
-708.645	800.000	-0.107	-0.326
-707.631	267.469	-0.188	0.331
-706.616	800.000	0.049	-0.147
-705.602	164.874	-0.194	-0.275
-704.587	-96.450	-0.148	0.039
-703.572	800.000	0.115	-0.333
-702.558	-121.179	0.235	0.039
-701.543	-6.012	-0.192	-0.132
-700.529	67.258	-0.153	-0.157
-699.514	-75.274	-0.176	0.063
-698.499	-97.424	0.057	-0.015
-697.485	-200.000	-0.007	0.086
-696.470	94.653	0.175	-0.200
-695.456	-67.782	0.186	0.073
-694.441	-99.683	-0.338	0.085
-693.426	103.720	-0.088	-0.104
-692.412	800.000	-0.099	-0.336
-691.397	551.943	0.036	-0.086
-690.383	-200.000	0.025	0.130
-689.368	-200.000	0.032	0.183
-688.354	800.000	-0.051	-0.211
-687.339	800.000	0.055	0.235
-686.324	-119.014	-0.046	-0.008
-685.310	20.493	0.247	0.200
-684.295	-54.972	0.338	-0.153
-683.281	800.000	-0.045	-0.130
-682.266	800.000	0.076	0.328
-681.251	42.716	0.189	-0.173
-680.237	800.000	-0.054	-0.199
-679.222	204.744	0.041	-0.064
-678.208	2.355	-0.325	-0.236
-677.193	800.000	0.139	-0.396
-676.178	-33.898	0.261	-0.144
-675.164	349.356	-0.083	0.164
-674.149	105.882	0.150	-0.178
-673.135	3.380	-0.116	0.085
-672.120	-36.688	0.181	-0.098
-671.105	95.512	-0.278	0.318
-670.091	352.801	0.154	0.306
-669.076	157.166	0.126	0.175
-668.062	-17.204	-0.228	0.144
-667.047	-13.497	0.066	-0.043
-666.032	-56.892	0.093	-0.041
-665.018	-53.666	-0.313	0.143
-664.003	-109.421	-0.078	0.017
-662.989	-84.602	0.053	-0.017
-661.974	107.650	-0.216	0.258
-660.959	-200.000	-0.021	-0.464
-659.945	-103.262	-0.116	0.028
-658.930	243.734	-0.029	-0.048
-657.916	16.955	0.177	0.141
-656.901	151.205	-0.153	-0.208
-655.886	69.308	0.273	0.281
-654.872	-200.000	-0.001	0.135
-653.857	-15.167	0.262	0.168
-652.843	479.025	-0.063	0.143
-651.828	-200.000	0.008	-0.122
-650.814	-2.562	0.144	-0.101
-649.799	437.145	0.296	-0.646
-648.784	-142.667	-0.368	-0.036
-647.770	-135.498	-0.156	-0.019
-646.755	123.740	0.177	-0.223
-645.741	800.000	0.119	-0.442
-644.726	-45.012	0.118	-0.059
-643.711	-89.349	-0.106	-0.031
-642.697	-99.470	-0.314	-0.079
-641.682	-41.176	-0.189	0.098
-640.668	120.769	-0.172	-0.214
-639.653	496.054	-0.172	0.395
-638.638	247.833	-0.105	0.178
-637.624	-200.000	-0.039	-0.333
-636.609	-200.000	-0.002	-0.116
-635.595	-42.979	-0.192	-0.098
-634.580	-117.148	0.497	0.091
-633.565	-200.000	-0.043	-0.189
-632.551	11.338	-0.197	0.151
-631.536	-129.920	0.298	-0.041
-630.522	37.183	-0.130	-0.115
-629.507	501.505	-0.077	-0.178
-628.492	-90.329	0.153	0.044
-627.478	-116.992	-0.270	-0.049
-626.463	-200.000	-0.044	-0.207
-625.449	-200.000	0.030	-0.348
-624.434	-48.337	0.023	-0.011
-623.419	-84.021	0.175	-0.056
-622.405	25.839	0.137	-0.114
-621.390	-81.989	0.405	0.132
-620.376	-4.250	0.060	0.042
-619.361	-52.098	-0.133	0.062
-618.346	-200.000	0.033	0.163
-617.332	308.212	0.050	-0.093
-616.317	-16.069	-0.347	0.220
-615.303	-200.000	-0.012	-0.081
-614.288	386.283	-0.129	0.267
-613.273	-126.424	0.087	-0.013
-612.259	742.038	-0.064	0.171
-611.244	-41.140	0.189	0.098
-610.230	-74.034	-0.381	-0.138
-609.215	82.671	0.279	0.303
-608.201	-4.172	0.023	-0.016
-607.186	-111.574	-0.201	-0.041
-606.171	565.562	0.060	0.144
-605.157	123.991	-0.140	0.175
-604.142	-200.000	0.031	-0.160
-603.128	-146.753	0.187	0.016
-602.113	28.702	-0.041	0.035
-601.098	-138.284	-0.403	-0.045
-600.084	-200.000	-0.005	-0.139
-599.069	-92.988	0.154	0.043
-598.055	-22.784	0.095	0.057
-597.040	800.000	0.066	-0.196
-596.025	-200.000	0.029	-0.293
-595.011	-130.732	0.025	0.003
-593.996	-200.000	-0.189	0.899
-592.982	-200.000	-0.014	0.130
-591.967	-169.756	0.152	-0.005
-590.952	-146.848	0.336	0.029
-589.938	327.711	0.121	0.232
-588.923	174.318	0.208	-0.301
-587.909	-200.000	0.057	0.272
-586.894	-200.000	-0.008	-0.155
-585.879	-200.000	0.019	-0.260
-584.865	800.000	-0.041	-0.141
-583.850	-200.000	0.011	-0.079
-582.836	-52.607	0.238	0.110
-581.821	-41.760	0.214	-0.110
-580.806	58.387	0.069	0.068
-579.792	-47.848	0.185	-0.089
-578.777	-90.373	-0.250	-0.072
-577.763	-24.797	0.357	0.212
-576.748	-129.698	-0.261	-0.036
-575.733	305.957	-0.095	0.177
-574.719	800.000	0.062	0.229
-573.704	29.384	0.173	-0.147
-572.690	-200.000	-0.025	-0.254
-571.675	39.593	0.070	-0.063
-570.661	-200.000	-0.039	0.248
-569.646	-176.401	-0.320	-0.008
-568.631	-33.074	-0.498	-0.276
-567.617	-28.172	-0.285	0.165
-566.602	117.162	0.249	-0.306
-565.588	-200.000	0.090	-0.000
-564.573	-84.642	-0.248	-0.078
-563.558	-200.000	-0.050	0.317
-562.544	92.121	0.271	0.304
-561.529	800.000	-0.023	-0.074
-560.515	56.098	-0.369	0.358
-559.500	800.000	0.037	-0.132
-558.485	249.561	-0.066	0.112
-557.471	-24.714	0.086	-0.051
-556.456	-200.000	0.005	0.091
-555.442	171.559	-0.018	0.025
-554.427	294.391	-0.068	0.125
-553.412	-120.707	0.128	-0.022
-552.398	-200.000	0.013	-0.188
-551.383	-200.000	-0.022	0.385
-550.369	-49.764	-0.223	0.106
-549.354	62.637	0.077	-0.077
-548.339	800.000	0.152	-0.423
-547.325	-55.396	-0.209	0.094
-546.310	-200.000	-0.002	-0.045
-545.296	-52.303	-0.019	-0.009
-544.281	-200.000	-0.032	0.294
-543.266	-184.132	-0.323	0.005
-542.252	-200.000	0.062	-0.400
-541.237	-200.000	0.032	-0.260
-540.223	-87.721	0.102	-0.031
-539.208	800.000	0.027	0.076
-538.193	-57.762	-0.208	0.091
-537.179	38.969	-0.098	-0.087
-536.164	-117.658	-0.118	-0.021
-535.150	-200.000	0.095	0.551
-534.135	249.594	-0.068	0.115
-533.121	-200.000	0.007	-0.307
-532.106	488.899	-0.071	-0.162
-531.091	-129.315	-0.134	0.019
-530.077	-48.012	-0.255	0.123
-529.062	-126.038	-0.340	0.051
-528.048	-89.190	0.214	0.063
-527.033	-53.848	0.219	0.100
-526.018	273.702	0.057	0.100
-525.004	-84.335	-0.196	-0.062
-523.989	165.049	-0.121	0.170
-522.975	711.861	0.234	-0.618
-521.960	225.324	0.054	0.086
-520.945	-61.443	-0.059	0.025
-519.931	-136.837	0.210	-0.024
-518.916	-200.000	-0.017	-0.195
-517.902	-161.284	-0.217	0.011
-516.887	-17.194	0.250	0.157
-515.872	3.787	-0.133	0.096
-514.858	-72.535	-0.105	0.039
-513.843	800.000	0.080	0.257
-512.829	140.752	0.227	0.299
-511.814	208.539	-0.148	0.230
-510.799	282.592	0.125	-0.223
-509.785	74.099	0.105	-0.110
-508.770	-200.000	-0.010	0.352
-507.756	82.644	-0.128	0.139
-506.741	-200.000	-0.015	-0.383
-505.726	-200.000	0.016	0.181
-504.712	6.713	-0.329	-0.244
-503.697	800.000	-0.070	-0.296
-502.683	16.612	-0.076	0.060
-501.668	291.737	-0.100	-0.182
-500.653	186.151	0.079	-0.117
-499.639	-64.655	-0.362	-0.146
-498.624	-14.693	-0.269	-0.172
-497.610	-37.062	0.246	-0.131
-496.595	-7.010	0.234	0.158
-495.581	-8.939	0.185	0.123
-494.566	-200.000	0.013	0.248
-493.551	-14.253	0.245	0.157
-492.537	131.290	0.265	0.339
-491.522	-121.979	0.163	-0.027
-490.508	-200.000	0.007	0.118
-489.493	-46.464	0.076	0.037
-488.478	-134.922	0.088	0.011
-487.464	81.804	0.142	-0.153
-486.449	-200.000	-0.019	0.286
-485.435	-200.000	0.006	0.032
-484.420	17.286	-0.281	-0.222
-483.405	-121.197	-0.305	0.051
-482.391	-200.000	-0.011	0.057
-481.376	-95.175	0.178	0.048
-480.362	-19.618	-0.192	-0.118
-479.347	119.939	-0.207	-0.255
-478.332	-49.169	-0.492	0.234
-477.318	800.000	0.096	0.362
-476.303	77.747	0.096	-0.102
-475.289	-109.543	0.185	-0.039
-474.274	-145.378	0.198	-0.018
-473.259	621.255	-0.054	-0.134
-472.245	-10.321	0.182	0.120
-471.230	-112.472	-0.165	-0.033
-470.216	181.767	-0.178	0.260
-469.201	320.849	0.260	0.491
-468.186	41.365	0.132	0.119
-467.172	-81.207	0.203	0.067
-466.157	-8.469	-0.109	0.073
-465.143	800.000	0.046	-0.135
-464.128	-148.496	-0.259	-0.021
-463.113	47.791	-0.181	0.168
-462.099	-56.114	-0.145	-0.064
-461.084	-74.390	0.085	-0.030
-460.070	-96.696	0.104	0.027
-459.055	187.492	-0.100	0.149
-458.040	41.155	0.209	-0.188
-457.026	31.087	-0.230	-0.196
-456.011	-114.788	0.438	0.083
-454.997	252.557	-0.152	0.258
-453.982	800.000	-0.028	-0.102
-452.968	800.000	0.051	-0.172
-451.953	-200.000	0.084	-0.381
-450.938	-161.685	-0.400	0.020
-449.924	800.000	-0.053	-0.197
-448.909	64.478	0.317	-0.317
-447.895	123.475	0.065	-0.082
-446.880	800.000	0.061	-0.205
-445.865	286.678	0.202	0.362
-444.851	-200.000	-0.029	0.230
-443.836	43.656	0.273	-0.248
-442.822	-200.000	-0.021	0.204
-441.807	418.057	-0.088	-0.188
-440.792	800.000	-0.068	-0.280
-439.778	-120.575	-0.238	0.040
-438.763	-200.000	-0.018	-0.136
-437.749	129.964	0.091	0.116
-436.734	796.494	0.051	0.140
-435.719	-200.000	0.034	-0.376
-434.705	637.282	-0.078	0.198
-433.690	-200.000	0.003	0.298
-432.676	-149.581	0.019	-0.002
-431.661	236.788	0.101	0.167
-430.646	-118.120	-0.344	-0.061
-429.632	41.550	-0.084	-0.075
-428.617	-200.000	0.022	-0.308
-427.603	175.453	0.097	0.139
-426.588	57.931	-0.210	-0.204
-425.573	-84.712	0.115	-0.036
-424.559	24.860	-0.120	0.099
-423.544	233.780	0.289	-0.472
-422.530	-200.000	-0.011	0.062
-421.515	-150.958	0.117	-0.009
-420.500	89.814	-0.161	0.179
-419.486	9.822	0.141	-0.106
-418.471	460.131	0.162	-0.358
-417.457	-3.443	-0.229	0.158
-416.442	-106.772	0.253	0.056
-415.428	-200.000	0.014	0.140
-414.413	-175.288	-0.254	0.007
-413.398	275.154	-0.050	0.088
-412.384	203.176	-0.232	-0.355
-411.369	-200.000	-0.023	-0.313
-410.355	-37.983	-0.081	-0.043
-409.340	204.336	-0.200	0.307
-408.325	-37.076	0.294	0.156
-407.311	20.017	0.147	-0.117
-406.296	241.286	0.169	0.280
-405.282	-42.125	0.328	0.166
-404.267	-109.513	0.316	-0.066
-403.252	110.534	-0.307	-0.366
-402.238	-161.310	0.226	-0.012
-401.223	-45.381	-0.173	0.085
-400.209	-9.978	-0.396	-0.261
-399.194	141.007	-0.139	0.183
-398.179	-30.034	0.190	0.107
-397.165	-200.000	-0.022	0.301
-396.150	-164.466	-0.032	0.001
-395.136	-135.285	0.122	-0.015
-394.121	2.076	-0.164	0.118
-393.106	50.163	-0.134	0.126
-392.092	-154.626	0.285	0.019
-391.077	-200.000	-0.032	-0.299
-390.063	-92.936	0.273	0.076
-389.048	800.000	0.059	-0.179
-388.033	-200.000	0.040	0.225
-387.019	-51.109	-0.115	0.054
-386.004	143.139	0.178	0.235
-384.990	581.387	0.089	-0.217
-383.975	-15.097	-0.190	-0.121
-382.960	-150.362	-0.223	-0.017
-381.946	-200.000	0.058	-0.549
-380.931	7.690	-0.225	-0.167
-379.917	-119.709	-0.074	0.013
-378.902	-86.585	-0.230	-0.070
-377.888	-93.574	-0.468	0.128
-376.873	-123.383	-0.569	0.090
-375.858	-200.000	-0.004	-0.097
-374.844	-90.793	0.263	0.075
-373.829	-56.699	0.339	-0.149
-372.815	-45.988	-0.194	-0.095
-371.800	186.094	0.188	0.276
-370.785	-25.334	-0.046	-0.027
-369.771	-143.888	0.306	0.029
-368.756	-163.270	0.200	-0.009
-367.742	108.412	-0.111	0.132
-366.727	7.971	0.114	0.085
-365.712	-200.000	0.021	0.220
-364.698	-200.000	-0.059	-0.299
-363.683	-200.000	0.040	0.211
-362.669	800.000	0.037	-0.125
-361.654	-200.000	0.003	-0.078
-360.639	-198.159	-0.177	-0.001
-359.625	-200.000	-0.036	-0.166
-358.610	45.895	-0.107	0.098
-357.596	-40.167	0.139	0.071
-356.581	-200.000	-0.029	-0.260
-355.566	-115.879	0.017	-0.003
-354.552	74.242	0.185	0.193
-353.537	-200.000	-0.103	-0.000
-352.523	503.228	0.083	0.191
-351.508	-200.000	0.015	-0.272
-350.493	244.555	-0.102	-0.169
-349.479	-118.693	0.251	0.044
-348.464	145.663	0.221	0.294
-347.450	-94.603	-0.192	0.052
-346.435	-148.986	0.212	-0.017
-345.420	-7.257	0.043	-0.029
-344.406	450.213	-0.135	-0.295
-343.391	800.000	0.100	-0.285
-342.377	3.157	-0.147	0.106
-341.362	800.000	0.046	0.141
-340.348	27.550	-0.353	-0.294
-339.333	800.000	-0.035	0.151
-338.318	180.084	0.167	-0.242
-337.304	-200.000	0.033	-0.193
-336.289	111.098	-0.201	0.239
-335.275	-200.000	-0.014	-0.168
-334.260	117.699	0.049	0.060
-333.245	177.275	0.176	-0.253
-332.231	115.297	0.045	0.054
-331.216	-119.540	0.205	0.035
-330.202	-143.828	-0.134	0.012
-329.187	39.601	-0.088	0.078
-328.172	-110.083	-0.309	0.064
-327.158	-97.999	-0.121	-0.031
-326.143	316.741	-0.158	-0.294
-325.129	-27.234	-0.296	0.170
-324.114	-9.339	0.142	0.094
-323.099	-105.721	0.183	-0.041
-322.085	-29.691	-0.234	0.132
-321.070	6.725	-0.276	-0.203
-320.056	436.438	-0.108	0.233
-319.041	5.010	-0.182	0.132
-318.026	800.000	-0.047	-0.162
-317.012	-92.723	0.132	0.037
-315.997	159.726	-0.281	0.387
-314.983	-94.554	-0.064	0.017
-313.968	133.755	-0.077	-0.099
-312.953	276.780	-0.057	-0.100
-311.939	5.759	0.118	-0.086
-310.924	-25.751	-0.066	0.038
-309.910	679.334	-0.067	0.173
-308.895	-39.101	0.212	-0.110
-307.880	64.719	-0.138	-0.138
-306.866	800.000	-0.069	0.235
-305.851	800.000	-0.055	-0.151
-304.837	61.550	-0.169	0.166
-303.822	-200.000	0.024	-0.143
-302.807	-160.355	0.241	-0.013
-301.793	-141.103	-0.257	-0.026
-300.778	60.761	-0.106	-0.104
-299.764	-111.013	0.216	0.044
-298.749	57.152	0.091	0.088
-297.735	-134.604	0.319	-0.038
-296.720	13.544	0.220	0.169
-295.705	291.066	0.108	0.194
-294.691	800.000	-0.052	0.192
-293.676	800.000	-0.059	0.244
-292.662	290.273	0.122	0.219
-291.647	243.331	0.053	-0.088
-290.632	109.145	-0.052	0.062
-289.618	-11.306	0.157	0.102
-288.603	800.000	-0.065	-0.204
-287.589	236.249	-0.074	-0.121
-286.574	88.880	0.070	0.077
-285.559	191.144	0.053	-0.079
-284.545	211.037	0.076	0.119
-283.530	471.757	0.122	0.271
-282.516	-200.000	0.057	-0.262
-281.501	-88.329	0.211	-0.062
-280.486	49.300	0.069	0.064
-279.472	-32.993	-0.231	-0.127
-278.457	-11.642	0.347	0.225
-277.443	455.289	0.081	0.178
-276.428	-24.071	-0.178	-0.105
-275.413	-143.028	0.277	0.026
-274.399	448.003	-0.074	0.162
-273.384	-116.298	-0.256	-0.047
-272.370	-57.227	-0.274	0.119
-271.355	45.493	0.183	-0.167
-270.340	112.786	-0.059	-0.070
-269.326	423.602	-0.126	0.267
-268.311	413.028	0.086	0.180
-267.297	35.196	0.120	-0.104
-266.282	-146.669	-0.077	-0.007
-265.267	-126.656	-0.233	-0.034
-264.253	-53.115	-0.158	-0.072
-263.238	92.714	-0.209	-0.233
-262.224	-119.825	-0.071	0.012
-261.209	536.677	0.103	-0.242
-260.195	-200.000	-0.019	-0.084
-259.180	-153.170	-0.013	0.001
-258.165	-200.000	-0.038	-0.224
-257.151	194.872	0.168	0.252
-256.136	-200.000	0.000	-0.265
-255.122	-83.744	-0.049	0.015
-254.107	-29.514	0.064	0.036
-253.092	-24.340	0.243	-0.143
-252.078	-175.470	-0.090	-0.002
-251.063	547.239	0.076	0.180
-250.049	347.710	-0.137	-0.266
-249.034	146.312	-0.049	0.065
-248.019	203.189	0.141	-0.214
-247.005	-200.000	0.003	-0.051
-245.990	800.000	0.030	-0.090
-244.976	-36.493	0.419	-0.223
-243.961	-200.000	0.008	-0.413
-242.946	635.066	0.022	-0.055
-241.932	533.862	-0.196	0.458
-240.917	-6.225	-0.138	0.093
-239.903	89.632	0.164	-0.180
-238.888	0.382	-0.121	0.085
-237.873	-128.881	0.335	-0.046
-236.859	-200.000	-0.008	-0.241
-235.844	-200.000	0.005	0.291
-234.830	-97.849	0.191	0.049
-233.815	-4.090	0.027	-0.018
-232.800	-157.590	0.509	-0.030
-231.786	-200.000	0.003	0.066
-230.771	-200.000	-0.013	0.131
-229.757	-200.000	0.060	0.284
-228.742	-49.840	0.063	0.029
-227.727	97.906	0.042	0.047
-226.713	800.000	0.030	0.101
-225.698	-12.968	0.193	-0.124
-224.684	11.377	0.104	-0.078
-223.669	-102.342	0.111	-0.026
-222.655	259.294	0.067	-0.113
-221.640	-164.389	-0.134	0.006
-220.625	80.206	0.325	-0.344
-219.611	-67.851	-0.297	-0.114
-218.596	-87.696	-0.113	-0.034
-217.582	-106.274	-0.277	-0.061
-216.567	-60.855	-0.119	-0.050
-215.552	-200.000	-0.041	-0.192
-214.538	-79.284	0.212	-0.071
-213.523	-200.000	0.017	0.396
-212.509	-35.602	-0.050	-0.027
-211.494	-169.138	-0.164	-0.006
-210.479	305.425	-0.088	0.160
-209.465	-129.482	0.428	-0.058
-208.450	237.215	-0.202	-0.330
-207.436	-200.000	0.038	0.296
-206.421	-12.880	-0.091	0.058
-205.406	331.840	0.013	-0.025
-204.392	105.659	0.273	-0.318
-203.377	-55.973	-0.043	0.019
-202.363	64.423	0.093	0.092
-201.348	-200.000	0.048	0.276
-200.333	452.701	-0.084	0.182
-199.319	-147.084	0.397	-0.033
-198.304	350.465	0.103	0.200
-197.290	-57.084	0.162	0.070
-196.275	130.510	0.194	-0.244
-195.260	83.677	0.184	0.197
-194.246	-56.949	-0.126	0.055
-193.231	-32.965	-0.138	-0.075
-192.217	800.000	-0.024	0.066
-191.202	-200.000	0.022	0.163
-190.187	-152.312	0.215	-0.015
-189.173	24.326	-0.066	0.054
-188.158	488.677	0.071	0.160
-187.144	-97.432	0.244	0.062
-186.129	-88.024	0.142	0.042
-185.114	-150.587	-0.096	0.007
-184.100	-15.785	0.287	0.180
-183.085	31.853	-0.203	0.172
-182.071	154.748	0.104	0.141
-181.056	-25.881	-0.091	-0.052
-180.042	346.989	-0.103	0.198
-179.027	-6.192	-0.154	0.104
-178.012	-29.347	-0.119	-0.067
-176.998	-200.000	-0.038	0.249
-175.983	-81.866	0.350	0.113
-174.969	719.732	-0.045	0.118
-173.954	-9.801	-0.272	-0.178
-172.939	800.000	0.045	0.158
-171.925	41.049	-0.196	-0.174
-170.910	179.525	0.024	0.035
-169.896	-51.425	0.116	0.053
-168.881	-200.000	0.028	-0.167
-167.866	424.953	-0.079	0.167
-166.852	44.500	0.109	0.099
-165.837	-155.687	0.245	0.015
-164.823	-200.000	-0.013	0.119
-163.808	-200.000	0.023	0.379
-162.793	-118.283	-0.218	-0.038
-161.779	14.026	0.109	-0.083
-160.764	320.635	-0.098	0.183
-159.750	800.000	-0.131	0.423
-158.735	-153.770	0.048	0.003
-157.720	-200.000	0.014	-0.181
-156.706	28.164	0.211	-0.175
-155.691	-108.113	-0.123	0.026
-154.677	292.915	-0.190	-0.340
-153.662	-200.000	-0.093	-0.406
-152.647	144.788	-0.112	-0.147
-151.633	800.000	-0.124	-0.348
-150.618	-84.565	0.139	0.043
-149.604	-20.065	0.221	0.134
-148.589	-200.000	-0.017	0.158
-147.574	61.688	-0.078	-0.077
-146.560	65.374	0.134	-0.133
-145.545	-0.002	-0.272	0.190
-144.531	800.000	0.073	0.222
-143.516	797.312	-0.066	0.179
-142.502	800.000	-0.081	-0.224
-141.487	81.463	0.184	-0.196
-140.472	-50.454	-0.187	-0.087
-139.458	800.000	0.043	0.175
-138.443	-77.663	-0.261	0.089
-137.429	124.614	0.096	0.118
-136.414	-28.366	-0.051	-0.029
-135.399	73.462	-0.114	-0.117
-134.385	800.000	0.049	0.158
-133.370	800.000	0.068	0.288
-132.356	-132.493	0.322	0.041
-131.341	800.000	-0.066	-0.272
-130.326	51.151	-0.287	0.267
-129.312	-78.687	-0.225	0.075
-128.297	-200.000	0.131	0.000
-127.283	-200.000	-0.015	-0.126
-126.268	-200.000	-0.017	-0.351
-125.253	168.959	-0.109	0.153
-124.239	10.805	-0.098	-0.073
-123.224	-200.000	-0.026	0.247
-122.210	250.762	0.112	0.186
-121.195	146.391	-0.300	-0.396
-120.180	-200.000	0.010	0.096
-119.166	488.510	0.082	0.184
-118.151	26.491	0.218	-0.179
-117.137	65.457	0.067	0.066
-116.122	375.240	-0.037	0.074
-115.107	-144.941	0.323	-0.029
-114.093	-200.000	-0.019	-0.267
-113.078	-50.713	-0.229	-0.106
-112.064	97.304	0.163	-0.183
-111.049	66.089	-0.083	0.082
-110.034	15.621	-0.168	0.130
-109.020	-89.741	0.386	0.111
-108.005	-151.806	0.272	0.020
-106.991	-79.718	-0.166	-0.055
-105.976	569.406	-0.076	-0.182
-104.962	81.323	-0.073	-0.077
-103.947	-200.000	0.010	-0.057
-102.932	800.000	-0.049	-0.207
-101.918	-200.000	0.012	-0.239
-100.903	-42.614	-0.223	0.111
-99.889	-121.108	0.149	-0.025
-98.874	-123.753	0.072	-0.011
-97.859	180.434	-0.069	0.099
-96.845	141.954	-0.086	0.112
-95.830	519.294	-0.084	0.193
-94.816	-123.186	-0.234	0.037
-93.801	-200.000	0.027	-0.120
-92.786	800.000	0.055	-0.175
-91.772	-200.000	0.011	-0.242
-90.757	94.836	-0.117	0.130
-89.743	137.533	-0.084	-0.107
-88.728	-121.869	-0.064	0.010
-87.713	-200.000	0.016	-0.088
-86.699	174.902	0.124	0.176
-85.684	79.652	-0.045	0.048
-84.670	180.039	-0.131	0.189
-83.655	-199.217	-0.305	0.002
-82.640	124.711	0.157	-0.194
-81.626	-75.489	-0.077	-0.027
-80.611	-166.162	-0.146	-0.006
-79.597	181.492	0.130	-0.188
-78.582	230.476	0.167	0.268
-77.567	-184.598	0.275	-0.004
-76.553	109.855	-0.050	0.059
-75.538	24.778	0.169	0.138
-74.524	-200.000	-0.006	-0.080
-73.509	800.000	0.045	0.162
-72.494	-168.575	0.103	-0.004
-71.480	232.699	-0.210	0.338
-70.465	39.801	0.124	-0.109
-69.451	-200.000	-0.019	0.116
-68.436	96.755	0.125	0.141
-67.422	-106.431	0.035	-0.008
-66.407	-40.121	0.168	0.086
-65.392	696.911	0.176	0.454
-64.378	120.847	-0.008	-0.009
-63.363	-200.000	-0.044	0.370
-62.349	-39.255	-0.145	0.075
-61.334	3.706	-1.169	-0.835
-60.319	-56.425	0.878	0.381
-59.305	489.232	-0.389	-0.869
-58.290	447.783	0.498	1.072
-57.276	800.000	0.391	1.378
-56.261	-200.000	113.113	644.659
-55.246	541.993	1516.740	3538.229
-54.232	177.711	2694.491	3843.485
-53.217	103.157	2286.416	2622.332
-52.203	36.809	1893.317	1637.393
-51.188	30.929	1681.863	1410.134
-50.173	28.200	1640.392	1355.129
-49.159	49.886	1695.484	1564.290
-48.144	48.723	1710.096	1568.978
-47.130	30.302	1667.566	1393.218
-46.115	27.676	1653.039	1361.450
-45.100	27.457	1648.514	1356.036
-44.086	27.420	1645.521	1353.248
-43.071	27.415	1643.106	1351.167
-42.057	27.400	1640.603	1348.946
-41.042	27.459	1638.402	1347.518
-40.027	27.464	1636.715	1346.120
-39.013	27.470	1634.541	1344.322
-37.998	27.416	1633.153	1342.729
-36.984	27.410	1632.095	1341.756
-35.969	27.580	1630.034	1341.265
-34.954	27.531	1628.985	1339.984
-33.940	27.510	1626.832	1338.011
-32.925	27.452	1625.522	1336.454
-31.911	27.649	1623.186	1335.922
-30.896	27.564	1621.519	1333.875
-29.881	27.627	1619.334	1332.481
-28.867	27.528	1618.439	1330.971
-27.852	27.496	1616.718	1329.272
-26.838	27.480	1615.569	1328.155
-25.823	27.452	1614.076	1326.670
-24.809	27.566	1612.454	1326.114
-23.794	27.570	1611.269	1325.121
-22.779	27.556	1609.772	1323.736
-21.765	27.647	1607.950	1322.841
-20.750	27.487	1606.249	1320.234
-19.736	27.580	1605.355	1320.116
-18.721	27.632	1603.675	1319.058
-17.706	27.540	1602.382	1317.281
-16.692	27.578	1601.007	1316.370
-15.677	27.643	1599.475	1315.530
-14.663	27.714	1597.737	1314.556
-13.648	27.661	1596.469	1313.081
-12.633	27.619	1594.994	1311.516
-11.619	27.555	1593.680	1309.921
-10.604	27.652	1591.651	1308.894
-9.590	27.564	1591.192	1307.839
-8.575	27.628	1589.468	1306.828
-7.560	27.729	1588.254	1306.500
-6.546	27.611	1587.958	1305.362
-5.531	27.660	1586.562	1304.513
-4.517	27.489	1585.977	1302.752
-3.502	27.659	1584.266	1302.513
-2.487	27.552	1582.846	1300.529
-1.473	27.252	1570.587	1288.279
-0.458	24.497	1550.973	1252.840
0.556	22.794	1552.184	1221.590
1.571	20.416	1575.199	1222.869
2.586	19.872	1588.470	1229.200
3.600	18.006	1535.147	1175.007
4.615	11.133	1429.092	1049.585
5.629	4.870	1369.284	966.800
6.644	3.868	1361.488	955.021
7.659	3.852	1360.039	953.824
8.673	3.899	1359.408	953.588
9.688	3.930	1357.603	952.428
10.702	3.836	1354.841	949.828
11.717	6.750	1359.856	971.206
12.731	14.713	1374.251	1030.730
13.746	21.422	1385.167	1080.417
14.761	23.095	1387.203	1092.248
15.775	22.619	1384.896	1087.405
16.790	21.692	1382.800	1079.950
17.804	21.144	1380.327	1074.548
18.819	20.692	1379.960	1071.385
19.834	20.721	1379.376	1071.019
20.848	20.676	1378.340	1069.841
21.863	20.529	1377.556	1068.233
22.877	20.435	1376.359	1066.637
23.892	20.425	1374.895	1065.346
24.907	20.295	1374.679	1064.283
25.921	20.210	1373.610	1062.842
26.936	20.287	1372.222	1062.143
27.950	20.422	1371.141	1062.042
28.965	20.503	1370.549	1061.983
29.980	20.699	1369.465	1062.248
30.994	20.779	1368.616	1061.981
32.009	20.909	1367.694	1061.963
33.023	20.829	1366.264	1060.276
34.038	20.766	1364.603	1058.506
35.053	20.600	1363.686	1056.695
36.067	20.536	1362.636	1055.400
37.082	20.576	1361.538	1054.697
38.096	20.684	1360.462	1054.424
39.111	20.708	1359.847	1053.997
40.126	20.430	1359.097	1051.644
41.140	20.181	1357.854	1049.083
42.155	20.030	1357.246	1047.608
43.169	20.029	1357.006	1047.323
44.184	19.970	1356.817	1046.726
45.199	20.047	1356.684	1046.995
46.213	20.247	1356.949	1048.318
47.228	20.521	1355.358	1048.649
48.242	20.509	1354.446	1047.779
49.257	20.590	1352.825	1046.917
50.271	20.383	1351.830	1044.809
51.286	20.454	1350.017	1043.746
52.301	20.489	1349.001	1043.073
53.315	20.300	1347.957	1041.044
54.330	20.177	1346.590	1039.158
55.344	20.151	1345.274	1037.895
56.359	20.080	1344.472	1036.757
57.374	20.002	1343.682	1035.591
58.388	19.932	1342.799	1034.402
59.403	19.850	1342.780	1033.804
60.417	19.781	1341.393	1032.235
61.432	19.746	1340.904	1031.556
62.447	19.704	1339.637	1030.242
63.461	19.716	1337.961	1028.933
64.476	19.689	1336.862	1027.835
65.490	19.607	1336.529	1027.004
66.505	19.671	1334.471	1025.711
67.520	19.562	1333.879	1024.515
68.534	19.691	1332.476	1024.114
69.549	19.681	1331.094	1022.903
70.563	19.639	1330.060	1021.770
71.578	19.521	1329.343	1020.431
72.593	19.416	1328.464	1019.042
73.607	19.328	1327.741	1017.880
74.622	19.488	1326.996	1018.163
75.636	19.494	1326.469	1017.703
76.651	19.502	1325.766	1017.118
77.666	19.519	1325.288	1016.763
78.680	19.604	1324.848	1016.840
79.695	19.725	1324.222	1016.979
80.709	19.802	1323.929	1017.115
81.724	20.022	1322.965	1017.581
82.739	20.165	1322.579	1018.032
83.753	20.321	1322.024	1018.432
84.768	20.466	1321.352	1018.671
85.782	20.714	1319.760	1018.804
86.797	20.603	1319.014	1017.489
87.812	20.556	1317.525	1015.977
88.826	20.557	1316.109	1014.803
89.841	20.460	1315.653	1013.795
90.855	20.563	1314.520	1013.432
91.870	20.668	1314.009	1013.558
92.884	20.746	1313.087	1013.212
93.899	20.768	1312.113	1012.502
94.914	20.879	1311.104	1012.275
95.928	20.767	1310.348	1010.954
96.943	20.623	1309.741	1009.560
97.957	20.686	1308.427	1008.822
98.972	20.618	1307.791	1007.848
99.987	20.690	1306.604	1007.262
101.001	20.616	1305.941	1006.234
102.016	20.704	1304.831	1005.799
103.030	20.676	1304.030	1004.930
104.045	20.540	1303.155	1003.381
105.060	20.457	1301.400	1001.465
106.074	20.014	1300.096	997.819
107.089	19.750	1298.490	994.980
108.103	19.658	1297.111	993.304
109.118	19.709	1295.874	992.563
110.133	19.620	1294.525	990.932
111.147	19.821	1293.117	990.918
112.162	19.767	1292.460	990.017
113.176	19.906	1290.771	989.431
114.191	19.957	1290.285	989.264
115.206	19.969	1289.167	988.389
116.220	19.893	1287.798	986.818
117.235	19.944	1286.779	986.237
118.249	19.916	1285.510	985.017
119.264	19.712	1284.510	983.005
120.279	19.687	1283.148	981.732
121.293	19.576	1282.470	980.501
122.308	19.417	1281.562	978.813
123.322	19.393	1280.333	977.656
124.337	19.341	1279.263	976.456
125.352	19.266	1278.345	975.248
126.366	19.317	1276.644	974.150
127.381	19.304	1275.656	973.235
128.395	19.217	1274.599	971.850
129.410	19.244	1274.191	971.608
130.424	19.470	1273.309	972.123
131.439	19.704	1272.378	972.645
132.454	19.758	1272.040	972.602
133.468	19.740	1271.408	971.929
134.483	19.844	1270.543	971.767
135.497	19.834	1269.763	971.029
136.512	19.870	1268.424	970.123
137.527	19.777	1267.602	968.884
138.541	19.901	1266.232	968.447
139.556	20.063	1264.632	968.044
140.570	20.170	1264.035	968.097
141.585	20.327	1262.796	967.937
142.600	20.487	1262.066	968.185
143.614	20.663	1261.085	968.326
144.629	20.711	1259.931	967.620
145.643	20.560	1259.068	966.033
146.658	20.426	1257.901	964.312
147.673	20.134	1256.219	961.314
148.687	20.105	1254.784	959.975
149.702	20.024	1253.450	958.420
150.716	19.805	1252.102	956.092
151.731	19.720	1251.289	954.916
152.746	19.895	1249.728	954.609
153.760	19.912	1249.341	954.322
154.775	20.050	1248.163	954.094
155.789	20.166	1247.178	953.900
156.804	20.302	1246.215	953.824
157.819	20.347	1245.287	953.275
158.833	20.466	1244.833	953.497
159.848	20.640	1244.224	953.899
160.862	20.533	1242.866	952.191
161.877	20.120	1241.584	948.860
162.892	19.933	1239.752	946.354
163.906	19.846	1239.185	945.365
164.921	19.750	1238.566	944.285
165.935	20.038	1237.353	944.846
166.950	20.006	1237.515	944.712
167.964	20.079	1236.664	944.378
168.979	20.062	1235.657	943.431
169.994	19.994	1235.008	942.484
171.008	20.075	1233.925	942.016
172.023	20.236	1233.627	942.579
173.037	20.437	1232.710	942.884
174.052	20.423	1231.612	941.886
175.067	20.139	1230.437	939.363
176.081	19.837	1229.465	936.904
177.096	19.792	1228.473	935.822
178.110	19.950	1227.314	935.709
179.125	19.913	1226.414	934.740
180.140	20.054	1225.778	934.933
181.154	20.377	1224.566	935.669
182.169	20.341	1223.387	934.491
183.183	20.431	1222.495	934.212
184.198	20.550	1221.402	933.936
185.213	20.472	1220.502	932.742
186.227	20.529	1219.717	932.365
187.242	20.638	1218.824	932.186
188.256	20.644	1218.307	931.740
189.271	20.827	1217.008	931.643
190.286	20.427	1215.733	928.448
191.300	19.991	1214.768	925.298
192.315	19.933	1214.039	924.355
193.329	19.920	1213.149	923.526
194.344	19.922	1212.836	923.213
195.359	19.978	1212.240	922.976
196.373	20.123	1211.725	923.276
197.388	20.277	1211.486	923.833
198.402	20.616	1211.556	925.610
199.417	20.716	1211.428	925.961
200.432	20.851	1210.980	926.256
201.446	21.029	1209.838	926.246
202.461	21.054	1209.230	925.828
203.475	21.018	1208.166	924.740
204.490	20.768	1206.478	922.046
205.504	20.512	1205.272	919.686
206.519	20.538	1203.451	918.354
207.534	20.411	1202.352	916.763
208.548	20.381	1201.659	915.996
209.563	20.363	1201.162	915.439
210.577	20.381	1200.372	914.854
211.592	20.499	1199.651	914.842
212.607	20.633	1199.204	915.125
213.621	20.734	1197.796	914.501
214.636	20.647	1197.239	913.538
215.650	20.782	1195.636	912.945
216.665	20.782	1195.368	912.655
217.680	20.950	1195.252	913.367
218.694	21.011	1194.164	912.775
219.709	21.000	1193.230	911.922
220.723	20.892	1192.507	910.727
221.738	20.870	1191.521	909.777
222.753	20.844	1190.803	909.014
223.767	20.848	1189.964	908.312
224.782	20.963	1189.620	908.570
225.796	21.069	1189.532	908.975
226.811	21.109	1188.431	908.262
227.826	20.935	1187.439	906.516
228.840	20.823	1186.638	905.244
229.855	20.762	1185.857	904.251
230.869	20.708	1185.349	903.500
231.884	20.683	1183.953	902.231
232.899	20.465	1183.534	900.698
233.913	20.402	1182.506	899.510
234.928	20.351	1181.778	898.615
235.942	20.255	1180.910	897.378
236.957	20.322	1179.749	896.763
237.972	20.307	1179.174	896.169
238.986	20.442	1178.323	896.138
240.001	20.384	1178.265	895.718
241.015	20.397	1177.027	894.765
242.030	20.496	1176.478	894.778
243.045	20.644	1175.989	895.085
244.059	20.734	1175.113	894.801
245.074	20.766	1174.357	894.313
246.088	20.880	1173.687	894.308
247.103	20.936	1173.076	894.054
248.117	21.047	1173.033	894.506
249.132	21.391	1172.136	895.505
250.147	21.624	1172.187	896.658
251.161	21.786	1171.571	896.941
252.176	21.800	1171.003	896.496
253.190	21.830	1170.295	896.029
254.205	21.921	1169.825	896.052
255.220	21.937	1169.206	895.582
256.234	22.008	1168.407	895.255
257.249	21.877	1167.741	893.996
258.263	21.952	1166.674	893.483
259.278	21.882	1166.095	892.603
260.293	21.772	1166.085	891.957
261.307	21.957	1165.414	892.306
262.322	21.992	1164.670	891.832
263.336	22.102	1163.811	891.654
264.351	22.123	1163.256	891.259
265.366	22.135	1162.494	890.654
266.380	22.127	1162.014	890.169
267.395	21.963	1160.893	888.400
268.409	21.746	1160.239	886.724
269.424	21.658	1159.680	885.774
270.439	21.693	1159.107	885.436
271.453	21.653	1158.012	884.319
272.468	21.514	1156.848	882.652
273.482	21.406	1156.211	881.540
274.497	21.466	1155.680	881.359
275.512	21.442	1154.996	880.639
276.526	21.421	1154.106	879.779
277.541	21.490	1153.899	879.888
278.555	21.621	1153.215	879.947
279.570	21.834	1152.408	880.325
280.585	21.975	1151.543	880.291
281.599	21.962	1150.917	879.670
282.614	21.743	1149.817	877.656
283.628	21.542	1148.617	875.658
284.643	21.676	1147.240	875.198
285.657	21.554	1146.715	874.113
286.672	21.640	1145.726	873.712
287.687	21.610	1145.095	873.002
288.701	21.645	1144.750	872.835
289.716	21.763	1143.514	872.404
290.730	21.631	1142.798	871.125
291.745	21.688	1142.390	871.019
292.760	21.824	1141.356	870.828
293.774	21.833	1141.213	870.689
294.789	22.007	1141.096	871.385
295.803	21.942	1140.434	870.480
296.818	21.714	1139.321	868.425
297.833	21.718	1138.507	867.744
298.847	21.617	1137.564	866.449
299.862	21.719	1136.657	866.185
300.876	21.718	1136.236	865.786
301.891	21.823	1135.856	865.937
302.906	22.016	1134.912	866.091
303.920	22.271	1134.475	866.939
304.935	22.332	1133.787	866.637
305.949	22.487	1133.632	867.208
306.964	22.346	1132.933	865.900
307.979	22.161	1131.875	864.107
308.993	22.184	1131.030	863.496
310.008	22.166	1130.688	863.073
311.022	22.391	1129.839	863.454
312.037	22.266	1128.763	861.940
313.052	22.144	1127.320	860.166
314.066	21.894	1126.436	858.193
315.081	21.738	1125.446	856.601
316.095	21.643	1124.315	855.200
317.110	21.677	1123.896	854.968
318.125	21.691	1123.355	854.551
319.139	21.550	1123.069	853.569
320.154	21.506	1122.753	853.039
321.168	21.580	1121.457	852.339
322.183	21.595	1121.231	852.164
323.197	21.726	1120.353	852.061
324.212	21.925	1119.570	852.356
325.227	21.747	1119.814	851.603
326.241	21.937	1118.651	851.564
327.256	21.817	1117.840	850.291
328.270	21.734	1116.883	849.084
329.285	21.776	1115.744	848.347
330.300	21.738	1114.989	847.514
331.314	21.651	1114.097	846.341
332.329	21.696	1113.327	845.896
333.343	21.762	1112.522	845.530
334.358	22.099	1111.594	846.372
335.373	22.166	1110.997	846.167
336.387	22.224	1110.468	845.968
337.402	22.158	1110.139	845.325
338.416	22.258	1109.311	845.101
339.431	22.374	1108.716	845.131
340.446	22.567	1108.062	845.479
341.460	22.751	1107.509	845.865
342.475	22.658	1107.206	845.114
343.489	22.794	1106.079	844.830
344.504	22.797	1105.220	844.114
345.519	22.951	1104.454	844.193
346.533	22.960	1103.957	843.778
347.548	23.058	1103.073	843.496
348.562	22.955	1101.997	842.110
349.577	22.569	1100.896	839.354
350.592	22.307	1099.613	837.056
351.606	22.359	1098.979	836.748
352.621	22.044	1098.472	834.788
353.635	21.997	1097.533	833.778
354.650	22.084	1097.355	833.982
355.665	22.190	1096.693	833.910
356.679	22.196	1096.034	833.360
357.694	22.430	1095.531	834.015
358.708	22.469	1094.874	833.623
359.723	22.503	1094.473	833.409
360.738	22.556	1093.357	832.734
361.752	22.466	1093.083	832.025
362.767	22.406	1092.812	831.464
363.781	22.456	1092.312	831.247
364.796	22.715	1091.786	831.991
365.810	22.967	1090.832	832.380
366.825	22.994	1091.102	832.639
367.840	23.119	1090.784	832.913
368.854	23.277	1090.030	833.003
369.869	23.164	1089.415	831.929
370.883	23.037	1088.001	830.179
371.898	22.891	1087.222	828.827
372.913	22.904	1086.662	828.390
373.927	23.089	1085.791	828.518
374.942	23.029	1085.676	828.074
375.956	23.094	1084.923	827.730
376.971	23.060	1084.270	827.000
377.986	23.098	1084.031	826.922
379.000	23.266	1083.530	827.254
380.015	23.285	1083.840	827.506
381.029	23.406	1083.075	827.415
382.044	23.353	1082.164	826.396
383.059	23.401	1080.814	825.515
384.073	23.303	1079.760	824.184
385.088	23.360	1079.220	823.965
386.102	23.250	1078.364	822.724
387.117	23.099	1076.694	820.676
388.132	22.838	1075.629	818.582
389.146	22.853	1074.698	817.870
390.161	22.686	1074.154	816.614
391.175	22.741	1073.742	816.483
392.190	22.820	1073.110	816.291
393.205	23.219	1073.158	818.104
394.219	23.245	1071.691	817.034
395.234	23.060	1070.736	815.380
396.248	22.934	1069.548	813.822
397.263	22.790	1068.968	812.643
398.278	22.647	1068.505	811.561
399.292	22.584	1067.047	810.094
400.307	22.534	1066.193	809.143
401.321	22.581	1065.809	808.999
402.336	22.632	1064.955	808.509
403.350	22.557	1064.549	807.785
404.365	22.639	1063.990	807.668
405.380	22.925	1062.700	807.926
406.394	22.910	1062.263	807.453
407.409	23.039	1062.130	807.871
408.423	23.346	1061.703	808.876
409.438	23.513	1060.617	808.736
410.453	23.635	1060.292	808.976
411.467	23.489	1059.988	808.007
412.482	23.490	1059.467	807.541
413.496	23.681	1058.881	807.892
414.511	23.623	1058.291	807.106
415.526	23.714	1058.282	807.443
416.540	23.948	1057.385	807.751
417.555	23.781	1057.048	806.664
418.569	23.663	1056.579	805.696
419.584	23.681	1055.304	804.738
420.599	23.601	1055.070	804.123
421.613	157.055	1403.862	1797.246
422.628	144.246	1454.633	1797.318
