DTS Sentinel unit serial number:	SN413079Multiplexer serial number:	ORYXHardware model number:	OX4-SRSoftware version number:	ORYX F/W v4.00 Oryx Data Collector v3.7.2.0data status	okinstallation	princeton_trtdifferential loss correction	single-endedforward channel	channel 2reverse channel	N/Adate	2019/09/17time	07:03:34forward acquisition time	60.00reverse acquisition time	0.00gamma	496.2192k internal	0.2334k external	0.2334temperature offset calibration	0.9978default loss term (dB/km)	0.3790temperature slope calibration	1.0000multiplexer offset coefficient	1.0000multiplexer slope coefficient	1.0000fibre end	0.00T internal ref (°C)	27.47T ext. ref 1 (°C)	0.11T ext. ref 2 (°C)	21.08length (m)	temperature (°C)	Stokes	anti-Stokes-747.200	672.962	-0.072	0.188
-746.185	312.827	-0.227	-0.428
-745.171	-163.542	0.014	0.001
-744.156	-84.418	-0.169	0.054
-743.142	-122.985	0.272	-0.044
-742.127	-200.000	-0.009	0.343
-741.112	236.533	0.199	-0.331
-740.098	-200.000	-0.041	0.434
-739.083	-139.587	-0.066	0.007
-738.069	800.000	0.109	0.371
-737.054	-174.121	0.184	-0.005
-736.039	-83.665	-0.225	0.072
-735.025	-200.000	0.004	0.091
-734.010	264.020	0.177	-0.308
-732.996	-95.177	-0.398	0.108
-731.981	-168.781	0.867	0.033
-730.966	-200.000	-0.124	0.000
-729.952	-91.865	0.276	0.079
-728.937	411.307	0.109	-0.232
-727.923	-200.000	0.029	-0.272
-726.908	800.000	0.055	0.211
-725.894	-200.000	-0.028	0.187
-724.879	-80.405	-0.119	0.040
-723.864	-155.844	-0.082	-0.005
-722.850	-65.835	-0.312	-0.125
-721.835	-115.990	-0.379	0.071
-720.821	268.998	0.035	0.062
-719.806	-93.029	0.271	-0.076
-718.791	165.394	-0.121	-0.172
-717.777	691.291	-0.089	0.235
-716.762	575.935	-0.094	-0.232
-715.748	-200.000	-0.014	0.158
-714.733	800.000	-0.075	-0.236
-713.718	-110.880	-0.203	-0.042
-712.704	-135.943	-0.189	0.022
-711.689	340.702	-0.083	-0.162
-710.675	62.632	0.194	-0.195
-709.660	-200.000	-0.026	0.227
-708.645	223.302	0.093	0.151
-707.631	800.000	0.064	0.238
-706.616	-125.475	-0.265	-0.041
-705.602	409.848	0.081	-0.172
-704.587	168.900	-0.048	-0.069
-703.572	-200.000	0.010	-0.341
-702.558	114.487	-0.044	-0.054
-701.543	-58.210	0.196	-0.086
-700.529	245.180	-0.143	0.241
-699.514	740.926	-0.047	0.125
-698.499	-32.674	0.105	-0.059
-697.485	278.896	-0.163	0.291
-696.470	559.590	-0.057	0.137
-695.456	-119.845	0.403	-0.070
-694.441	800.000	0.021	0.075
-693.426	-137.074	-0.205	0.024
-692.412	42.959	0.062	-0.056
-691.397	-94.499	0.376	0.103
-690.383	33.671	-0.112	-0.098
-689.368	-200.000	-0.060	0.000
-688.354	515.121	-0.140	-0.327
-687.339	3.659	0.101	0.074
-686.324	-200.000	-0.011	-0.177
-685.310	-48.220	-0.222	-0.108
-684.295	363.075	-0.116	-0.235
-683.281	-3.751	-0.045	-0.031
-682.266	-135.453	0.120	-0.014
-681.251	-81.956	0.272	-0.089
-680.237	35.504	0.179	-0.157
-679.222	-48.522	-0.308	-0.148
-678.208	383.624	0.085	-0.176
-677.193	-27.369	0.104	-0.060
-676.178	-200.000	0.048	-0.385
-675.164	697.242	-0.033	0.088
-674.149	213.695	-0.145	-0.230
-673.135	-171.988	0.181	0.006
-672.120	64.940	-0.117	0.118
-671.105	419.673	-0.107	0.230
-670.091	-200.000	-0.056	-0.382
-669.076	128.216	-0.230	0.294
-668.062	-151.147	-0.099	-0.007
-667.047	151.558	0.109	-0.149
-666.032	69.798	-0.195	0.201
-665.018	-139.647	0.296	0.032
-664.003	508.688	-0.111	-0.259
-662.989	285.796	0.145	-0.262
-661.974	94.653	-0.144	-0.164
-660.959	800.000	-0.089	0.383
-659.945	27.265	-0.150	-0.127
-658.930	-67.331	-0.335	-0.132
-657.916	321.948	0.128	-0.243
-656.901	797.018	0.101	-0.279
-655.886	-77.822	-0.196	-0.068
-654.872	-60.495	-0.260	0.111
-653.857	-96.537	0.142	-0.037
-652.843	-62.830	-0.152	0.063
-651.828	-36.373	-0.107	0.058
-650.814	139.800	-0.155	-0.204
-649.799	-122.530	0.098	-0.016
-648.784	157.019	-0.042	0.058
-647.770	127.313	-0.148	-0.188
-646.755	340.945	-0.118	-0.230
-645.741	346.709	-0.152	0.300
-644.726	-200.000	0.025	0.122
-643.711	800.000	-0.087	0.261
-642.697	-93.384	-0.313	-0.087
-641.682	36.344	0.079	0.069
-640.668	70.248	-0.130	0.135
-639.653	380.698	-0.081	-0.166
-638.638	-156.459	0.096	-0.006
-637.624	-52.686	-0.242	-0.112
-636.609	120.220	-0.052	-0.064
-635.595	284.529	-0.165	-0.297
-634.580	-20.971	-0.065	0.040
-633.565	-200.000	-0.014	-0.235
-632.551	-37.941	-0.340	0.181
-631.536	-200.000	0.002	0.037
-630.522	340.585	0.150	-0.293
-629.507	800.000	-0.033	-0.096
-628.492	133.887	0.213	0.275
-627.478	-50.417	0.097	-0.046
-626.463	-27.080	0.144	0.084
-625.449	227.955	-0.122	-0.199
-624.434	-200.000	0.018	-0.195
-623.419	54.448	-0.281	-0.271
-622.405	83.564	-0.057	0.062
-621.390	-91.206	-0.119	0.034
-620.376	449.843	0.159	-0.350
-619.361	4.777	-0.186	-0.136
-618.346	-28.166	-0.443	-0.256
-617.332	-138.555	0.404	-0.044
-616.317	116.348	-0.272	0.333
-615.303	-78.457	0.333	-0.114
-614.288	-200.000	0.058	-0.306
-613.273	-101.861	-0.175	0.042
-612.259	528.617	0.093	-0.220
-611.244	-154.258	-0.236	-0.016
-610.230	584.969	-0.108	-0.266
-609.215	-200.000	-0.034	-0.229
-608.201	-200.000	0.017	0.280
-607.186	800.000	-0.087	-0.305
-606.171	-49.755	0.247	-0.117
-605.157	467.064	0.073	0.164
-604.142	48.401	0.045	0.042
-603.128	82.721	-0.066	0.072
-602.113	29.846	-0.150	-0.128
-601.098	-6.828	0.138	0.094
-600.084	800.000	0.094	0.342
-599.069	-63.258	-0.335	-0.138
-598.055	13.653	0.166	-0.129
-597.040	136.706	-0.058	0.076
-596.025	-26.815	0.086	0.050
-595.011	-200.000	-0.031	-0.170
-593.996	203.985	-0.061	-0.095
-592.982	102.694	-0.126	0.147
-591.967	-200.000	-0.006	-0.339
-590.952	-38.931	0.230	0.121
-589.938	-88.293	-0.219	0.065
-588.923	577.316	0.060	-0.147
-587.909	3.053	0.181	0.131
-586.894	32.243	0.040	-0.035
-585.879	-29.040	-0.171	-0.098
-584.865	43.303	0.293	-0.268
-583.850	-145.118	0.107	0.010
-582.836	-40.492	-0.012	0.006
-581.821	254.636	0.170	0.291
-580.806	151.699	0.169	-0.231
-579.792	-91.527	-0.442	0.126
-578.777	-128.688	0.140	-0.020
-577.763	-200.000	-0.011	0.052
-576.748	227.639	0.075	-0.122
-575.733	800.000	0.119	-0.373
-574.719	29.164	-0.208	-0.176
-573.704	-94.829	-0.192	0.052
-572.690	284.863	-0.146	0.262
-571.675	-200.000	-0.009	-0.185
-570.661	-2.109	-0.080	-0.056
-569.646	36.794	0.198	0.175
-568.631	-200.000	-0.002	-0.211
-567.617	424.231	0.070	-0.151
-566.602	-112.897	0.104	-0.021
-565.588	-200.000	0.011	0.248
-564.573	9.050	0.378	0.285
-563.558	229.354	0.095	-0.154
-562.544	136.475	-0.109	0.142
-561.529	46.458	-0.117	-0.108
-560.515	31.111	-0.104	-0.089
-559.500	-131.585	-0.147	-0.019
-558.485	454.635	0.105	-0.232
-557.471	756.446	0.052	-0.141
-556.456	658.252	-0.041	-0.104
-555.442	-160.538	-0.102	0.005
-554.427	778.180	-0.031	0.085
-553.412	-108.541	-0.120	-0.026
-552.398	126.414	-0.148	0.187
-551.383	-200.000	0.028	-0.245
-550.369	-18.220	0.375	-0.234
-549.354	439.425	-0.038	0.084
-548.339	-79.124	-0.283	0.096
-547.325	-114.497	0.190	0.036
-546.310	-94.459	-0.275	-0.075
-545.296	176.431	0.114	0.165
-544.281	-24.133	0.185	-0.110
-543.266	-200.000	-0.029	-0.330
-542.252	-200.000	-0.061	-0.335
-541.237	-155.931	-0.348	0.022
-540.223	-200.000	-0.009	-0.072
-539.208	-200.000	-0.079	-0.437
-538.193	-200.000	0.015	-0.074
-537.179	91.174	0.261	0.292
-536.164	-200.000	-0.016	0.158
-535.150	-200.000	-0.051	0.304
-534.135	-156.367	0.117	-0.007
-533.121	-154.554	-0.316	0.021
-532.106	24.068	0.230	-0.189
-531.091	127.160	-0.229	0.289
-530.077	-147.929	0.142	0.012
-529.062	-200.000	-0.050	0.218
-528.048	-200.000	-0.057	-0.371
-527.033	-200.000	-0.016	0.165
-526.018	800.000	-0.049	0.168
-525.004	-68.626	0.032	-0.012
-523.989	177.286	-0.201	-0.291
-522.975	-200.000	0.011	-0.224
-521.960	-134.879	0.098	0.012
-520.945	610.288	0.060	-0.150
-519.931	100.192	0.151	0.175
-518.916	800.000	-0.171	-0.488
-517.902	-93.570	-0.265	0.073
-516.887	23.650	0.193	0.158
-515.872	-200.000	-0.044	0.387
-514.858	198.471	0.070	0.107
-513.843	778.086	0.059	-0.162
-512.829	233.512	-0.080	0.131
-511.814	-57.077	-0.251	-0.110
-510.799	238.344	-0.145	0.240
-509.785	-200.000	-0.013	-0.129
-508.770	64.911	-0.175	-0.175
-507.756	-200.000	-0.033	-0.187
-506.741	-194.536	-0.174	-0.001
-505.726	-7.724	0.035	-0.024
-504.712	-45.876	0.085	-0.042
-503.697	169.507	-0.107	0.152
-502.683	-28.013	-0.035	0.020
-501.668	800.000	0.086	0.290
-500.653	175.849	0.097	0.140
-499.639	-200.000	0.047	0.495
-498.624	109.856	0.182	0.217
-497.610	-103.677	-0.240	0.056
-496.595	-10.438	-0.218	-0.144
-495.581	198.841	-0.193	0.294
-494.566	-29.636	-0.111	0.063
-493.551	325.525	-0.083	0.157
-492.537	-37.749	-0.196	-0.104
-491.522	-200.000	-0.060	-0.383
-490.508	-54.087	0.360	0.163
-489.493	-26.757	0.069	-0.040
-488.478	-124.943	0.115	-0.018
-487.464	-66.838	-0.060	0.024
-486.449	184.945	0.172	-0.254
-485.435	-33.984	-0.198	0.109
-484.420	468.433	0.090	0.201
-483.405	504.686	-0.042	-0.097
-482.391	245.931	0.090	-0.151
-481.376	44.322	-0.078	0.071
-480.362	800.000	0.037	-0.142
-479.347	-139.592	-0.197	0.021
-478.332	-200.000	0.015	-0.221
-477.318	636.853	-0.089	0.225
-476.303	36.312	0.078	-0.069
-475.289	-74.905	0.168	-0.060
-474.274	-84.789	0.178	-0.056
-473.259	-20.880	0.072	-0.044
-472.245	34.935	-0.002	-0.002
-471.230	194.109	0.397	0.599
-470.216	28.591	0.066	-0.056
-469.201	14.173	0.246	-0.190
-468.186	-200.000	-0.031	-0.385
-467.172	800.000	0.105	0.348
-466.157	-107.797	-0.458	0.099
-465.143	-103.428	-0.164	0.038
-464.128	-200.000	-0.048	0.248
-463.113	-2.832	0.161	-0.112
-462.099	-200.000	0.019	-0.430
-461.084	-200.000	-0.020	0.092
-460.070	-95.372	0.099	0.026
-459.055	211.462	-0.155	-0.243
-458.040	800.000	-0.134	-0.426
-457.026	86.954	-0.190	-0.209
-456.011	-200.000	-0.043	-0.218
-454.997	-99.900	-0.124	-0.031
-453.982	-72.332	-0.028	0.010
-452.968	396.883	0.184	0.383
-451.953	444.031	-0.129	0.281
-450.938	-37.960	-0.201	-0.106
-449.924	683.164	-0.074	-0.193
-448.909	-58.153	-0.226	0.098
-447.895	-200.000	0.020	-0.182
-446.880	-45.511	-0.188	0.092
-445.865	-20.872	-0.114	0.070
-444.851	-200.000	0.029	-0.480
-443.836	41.437	-0.186	0.168
-442.822	-200.000	-0.031	0.454
-441.807	-94.705	-0.167	0.045
-440.792	-200.000	0.005	0.303
-439.778	-31.599	0.271	0.151
-438.763	800.000	-0.035	-0.108
-437.749	-67.263	-0.177	0.069
-436.734	-200.000	0.000	-0.315
-435.719	800.000	0.042	0.160
-434.705	-200.000	-0.032	-0.291
-433.690	71.215	0.090	-0.092
-432.676	78.991	0.257	-0.274
-431.661	37.164	0.122	0.107
-430.646	-200.000	-0.017	-0.152
-429.632	-84.642	-0.283	0.089
-428.617	-68.345	0.163	0.063
-427.603	164.092	-0.156	0.218
-426.588	-28.449	0.272	0.156
-425.573	-151.338	0.136	0.010
-424.559	203.935	-0.060	0.092
-423.544	800.000	-0.090	-0.290
-422.530	-200.000	0.013	-0.261
-421.515	69.640	0.148	0.151
-420.500	-138.522	-0.021	-0.002
-419.486	122.487	0.142	-0.176
-418.471	-99.998	0.268	0.066
-417.457	800.000	-0.043	-0.161
-416.442	-200.000	-0.055	0.399
-415.428	-78.876	0.205	-0.069
-414.413	519.426	0.086	-0.199
-413.398	-109.778	0.436	-0.091
-412.384	167.674	0.125	0.176
-411.369	69.694	-0.142	-0.145
-410.355	800.000	0.033	-0.125
-409.340	-79.597	0.055	-0.018
-408.325	-200.000	-0.073	-0.481
-407.311	347.535	-0.165	-0.323
-406.296	-200.000	-0.020	-0.185
-405.282	800.000	0.071	0.275
-404.267	-200.000	0.055	0.281
-403.252	694.320	0.074	0.192
-402.238	-78.827	-0.039	0.013
-401.223	-146.012	0.312	-0.027
-400.209	800.000	-0.028	0.105
-399.194	84.210	0.124	-0.134
-398.179	68.330	-0.142	-0.144
-397.165	800.000	0.030	0.096
-396.150	51.395	0.345	-0.325
-395.136	41.574	0.264	-0.237
-394.121	-200.000	0.001	0.079
-393.106	800.000	0.132	0.462
-392.092	800.000	0.062	0.191
-391.077	-100.837	-0.248	0.060
-390.063	91.223	-0.207	-0.230
-389.048	-200.000	-0.026	-0.435
-388.033	393.305	-0.065	0.134
-387.019	70.173	0.098	0.100
-386.004	-107.566	0.234	0.051
-384.990	-42.992	-0.201	0.101
-383.975	-38.217	-0.097	0.051
-382.960	-61.138	0.223	-0.093
-381.946	-61.614	0.195	-0.081
-380.931	-200.000	-0.030	-0.204
-379.917	345.798	0.092	-0.178
-378.902	383.412	-0.041	-0.083
-377.888	51.987	-0.186	-0.176
-376.873	-67.217	0.280	0.109
-375.858	-200.000	-0.013	-0.149
-374.844	-73.842	-0.101	0.036
-373.829	-145.202	-0.270	0.024
-372.815	0.872	-0.204	0.145
-371.800	338.840	0.141	-0.273
-370.785	-134.987	-0.201	-0.024
-369.771	-105.953	0.430	0.096
-368.756	800.000	0.030	0.113
-367.742	134.602	0.118	-0.152
-366.727	800.000	0.072	0.302
-365.712	-32.803	0.383	0.211
-364.698	-115.895	-0.193	0.036
-363.683	-2.185	-0.033	-0.023
-362.669	-143.044	-0.365	0.035
-361.654	-108.019	-0.232	-0.050
-360.639	620.353	-0.040	0.099
-359.625	-58.528	-0.116	-0.050
-358.610	-43.752	-0.306	-0.153
-357.596	99.911	0.084	0.097
-356.581	-200.000	-0.064	-0.457
-355.566	-40.891	0.283	0.145
-354.552	-53.371	0.115	0.052
-353.537	20.330	-0.040	-0.032
-352.523	-200.000	0.017	0.351
-351.508	-62.313	-0.068	-0.028
-350.493	-200.000	0.021	0.200
-349.479	-200.000	0.046	0.227
-348.464	24.930	-0.213	0.175
-347.450	34.963	0.184	0.160
-346.435	800.000	-0.042	-0.137
-345.420	800.000	-0.084	0.332
-344.406	-200.000	0.019	0.116
-343.391	466.734	-0.189	-0.420
-342.377	12.696	0.155	-0.118
-341.362	-14.836	-0.331	0.210
-340.348	18.653	-0.194	0.154
-339.333	-200.000	0.014	-0.117
-338.318	-14.555	0.185	0.118
-337.304	112.445	0.193	0.231
-336.289	-200.000	-0.044	0.370
-335.275	-80.420	-0.155	-0.051
-334.260	5.099	0.321	0.234
-333.245	800.000	-0.059	-0.206
-332.231	-200.000	-0.083	-0.388
-331.216	-200.000	-0.022	-0.219
-330.202	-122.608	-0.481	0.077
-329.187	-156.430	0.335	0.021
-328.172	192.071	-0.050	-0.074
-327.158	-117.683	0.229	-0.041
-326.143	-15.244	0.219	-0.138
-325.129	-200.000	0.051	0.288
-324.114	141.487	0.049	-0.064
-323.099	202.873	0.136	0.208
-322.085	-112.400	-0.305	-0.060
-321.070	516.813	-0.051	-0.117
-320.056	702.370	-0.026	-0.068
-319.041	800.000	-0.088	-0.338
-318.026	157.912	-0.154	0.211
-317.012	61.523	0.164	-0.161
-315.997	-200.000	-0.035	0.187
-314.983	403.360	-0.075	-0.155
-313.968	800.000	-0.124	-0.345
-312.953	-200.000	-0.208	0.001
-311.939	-150.658	-0.537	0.040
-310.924	-14.426	0.251	0.160
-309.910	-133.026	-0.163	0.020
-308.895	-181.570	-0.181	-0.003
-307.880	2.031	-0.042	0.030
-306.866	800.000	-0.063	-0.239
-305.851	-37.910	-0.332	-0.174
-304.837	326.985	-0.083	0.157
-303.822	-99.571	0.377	-0.093
-302.807	-200.000	0.002	-0.194
-301.793	62.948	-0.060	-0.060
-300.778	-7.019	-0.215	0.144
-299.764	43.971	-0.076	-0.069
-298.749	-72.106	-0.162	0.060
-297.735	-46.429	-0.189	-0.092
-296.720	314.721	0.173	0.321
-295.705	601.200	0.095	0.232
-294.691	-110.416	0.304	0.062
-293.676	187.585	-0.079	-0.116
-292.662	-178.902	0.176	0.004
-291.647	-166.288	0.138	0.006
-290.632	-41.688	-0.263	0.133
-289.618	283.965	0.125	0.221
-288.603	-104.830	0.406	-0.092
-287.589	-200.000	-0.011	-0.193
-286.574	312.020	0.050	0.092
-285.559	-200.000	0.046	-0.270
-284.545	342.053	0.108	-0.209
-283.530	-40.501	-0.223	0.114
-282.516	800.000	-0.053	0.157
-281.501	56.948	0.103	0.099
-280.486	800.000	-0.032	-0.128
-279.472	-59.276	0.143	0.061
-278.457	-17.298	0.050	0.031
-277.443	-63.881	-0.150	0.061
-276.428	-200.000	-0.100	0.532
-275.413	-109.381	0.048	0.010
-274.399	94.418	0.092	0.103
-273.384	288.354	-0.158	-0.282
-272.370	-95.087	-0.024	-0.006
-271.355	-124.306	-0.145	0.022
-270.340	408.939	-0.171	0.358
-269.326	437.564	0.145	0.312
-268.311	0.803	-0.115	0.081
-267.297	117.072	-0.101	0.123
-266.282	128.075	-0.083	-0.105
-265.267	149.133	-0.145	0.194
-264.253	-60.411	-0.208	-0.087
-263.238	-131.592	0.293	-0.038
-262.224	316.938	0.058	-0.109
-261.209	41.516	-0.267	0.239
-260.195	126.598	-0.136	0.169
-259.180	-200.000	-0.024	0.281
-258.165	-19.669	0.338	0.206
-257.151	-135.417	-0.179	0.021
-256.136	-92.356	-0.342	-0.095
-255.122	-110.687	0.128	-0.026
-254.107	278.353	0.102	-0.179
-253.092	-181.911	0.187	0.004
-252.078	57.616	-0.056	-0.054
-251.063	-85.488	0.084	0.026
-250.049	172.757	-0.287	0.407
-249.034	109.639	0.030	0.035
-248.019	129.482	0.082	0.103
-247.005	118.800	-0.150	0.182
-245.990	46.325	0.273	-0.249
-244.976	-140.741	0.274	-0.028
-243.961	427.163	-0.117	0.248
-242.946	-12.160	0.104	-0.067
-241.932	-200.000	0.053	0.302
-240.917	26.471	-0.105	0.086
-239.903	800.000	-0.099	0.320
-238.888	308.083	0.142	-0.260
-237.873	545.354	-0.049	-0.116
-236.859	30.190	0.269	0.226
-235.844	-200.000	-0.004	-0.185
-234.830	38.220	0.066	-0.058
-233.815	-22.872	0.186	-0.111
-232.800	190.382	0.082	-0.121
-231.786	203.883	-0.198	0.302
-230.771	-200.000	0.069	0.306
-229.757	800.000	-0.118	-0.471
-228.742	-64.218	0.162	-0.065
-227.727	-200.000	-0.008	0.193
-226.713	-200.000	0.006	0.071
-225.698	-32.560	-0.316	0.173
-224.684	-35.694	0.160	0.086
-223.669	227.362	-0.080	-0.127
-222.655	4.010	0.180	0.130
-221.640	-192.567	-0.234	-0.002
-220.625	83.869	-0.079	0.085
-219.611	298.848	0.213	0.386
-218.596	-200.000	0.003	0.092
-217.582	800.000	-0.048	-0.189
-216.567	556.814	0.131	-0.311
-215.552	-56.743	-0.259	-0.113
-214.538	800.000	0.110	0.427
-213.523	294.234	0.199	-0.357
-212.509	139.346	0.095	-0.123
-211.494	-106.738	0.154	0.034
-210.479	-63.701	0.117	-0.047
-209.465	800.000	0.018	-0.060
-208.450	800.000	0.093	0.316
-207.436	171.373	0.141	-0.199
-206.421	-0.459	-0.341	-0.238
-205.406	-8.886	-0.078	0.052
-204.392	-42.437	-0.148	-0.074
-203.377	-97.206	0.073	0.019
-202.363	-82.441	0.432	0.138
-201.348	-166.087	0.126	0.005
-200.333	-200.000	-0.003	0.207
-199.319	329.237	-0.071	0.134
-198.304	-200.000	-0.035	-0.175
-197.290	-200.000	-0.009	0.110
-196.275	-147.719	0.257	0.021
-195.260	5.846	-0.050	-0.036
-194.246	-148.782	0.086	-0.007
-193.231	-200.000	-0.032	0.269
-192.217	-158.942	0.068	0.004
-191.202	-200.000	0.014	0.352
-190.187	-200.000	0.017	0.085
-189.173	-36.470	-0.130	-0.069
-188.158	-47.259	-0.383	0.184
-187.144	-73.094	0.071	-0.026
-186.129	228.194	-0.107	0.172
-185.114	-119.048	0.089	0.015
-184.100	-154.149	0.143	-0.010
-183.085	-200.000	0.002	0.153
-182.071	-81.465	0.094	-0.030
-181.056	34.291	0.157	0.134
-180.042	125.504	-0.024	-0.029
-179.027	107.752	0.147	0.172
-178.012	-169.798	0.097	-0.003
-176.998	-68.034	0.243	0.093
-175.983	-78.698	0.413	-0.139
-174.969	216.001	-0.139	-0.217
-173.954	-200.000	-0.039	-0.181
-172.939	-200.000	0.002	-0.208
-171.925	-28.108	0.174	0.099
-170.910	800.000	0.016	0.050
-169.896	177.056	0.152	0.218
-168.881	-200.000	0.015	0.122
-167.866	284.037	-0.072	-0.128
-166.852	90.847	-0.128	0.141
-165.837	-119.537	0.366	0.062
-164.823	796.758	-0.026	-0.070
-163.808	-31.191	0.189	-0.105
-162.793	-104.015	0.299	0.068
-161.779	-109.646	0.134	0.028
-160.764	-39.800	-0.223	0.114
-159.750	142.503	0.068	0.089
-158.735	-162.296	-0.053	-0.003
-157.720	182.470	0.115	-0.167
-156.706	102.458	-0.111	0.128
-155.691	283.906	0.050	0.088
-154.677	-161.816	0.414	-0.021
-153.662	-200.000	-0.029	-0.193
-152.647	-111.116	0.235	0.047
-151.633	-155.380	0.195	0.012
-150.618	15.155	-0.089	-0.069
-149.604	-121.030	0.119	0.020
-148.589	-110.853	0.319	0.064
-147.574	-136.643	0.456	-0.052
-146.560	-6.490	0.106	-0.071
-145.545	-200.000	0.023	0.103
-144.531	112.969	-0.235	-0.280
-143.516	800.000	0.065	0.207
-142.502	-38.990	0.267	0.138
-141.487	133.657	-0.107	-0.136
-140.472	-200.000	0.037	-0.305
-139.458	-200.000	0.030	0.143
-138.443	198.613	0.132	-0.198
-137.429	761.088	-0.103	0.274
-136.414	9.907	0.233	0.174
-135.399	36.904	-0.063	-0.055
-134.385	103.373	-0.176	-0.202
-133.370	0.353	-0.293	0.205
-132.356	150.246	-0.222	0.296
-131.341	-102.897	0.038	-0.009
-130.326	648.891	-0.119	-0.299
-129.312	-159.591	-0.220	0.012
-128.297	-175.011	0.280	0.008
-127.283	-32.656	0.243	-0.133
-126.268	-74.826	0.240	-0.084
-125.253	-61.346	0.129	0.053
-124.239	6.575	0.228	-0.166
-123.224	-200.000	-0.027	0.132
-122.210	540.354	0.112	-0.262
-121.195	10.718	-0.166	0.124
-120.180	-141.514	0.318	-0.031
-119.166	-200.000	-0.017	-0.177
-118.151	32.359	-0.095	-0.080
-117.137	-114.893	0.486	0.091
-116.122	14.985	0.239	-0.184
-115.107	69.255	0.154	-0.155
-114.093	182.841	0.194	-0.280
-113.078	246.896	-0.157	0.259
-112.064	16.050	0.034	0.026
-111.049	-86.260	0.644	-0.194
-110.034	-19.580	-0.070	-0.043
-109.020	-124.896	0.356	-0.054
-108.005	-13.743	0.357	-0.226
-106.991	-200.000	0.019	0.305
-105.976	87.146	0.117	0.126
-104.962	-161.116	0.051	0.003
-103.947	-86.793	-0.479	-0.144
-102.932	-159.408	-0.090	-0.005
-101.918	701.544	0.028	0.072
-100.903	-81.277	0.304	0.098
-99.889	111.908	-0.137	-0.163
-98.874	-200.000	-0.037	0.202
-97.859	773.921	-0.084	-0.226
-96.845	-101.668	0.545	-0.130
-95.830	460.189	0.110	0.241
-94.816	-12.202	0.103	0.066
-93.801	486.415	-0.054	-0.121
-92.786	109.511	0.111	-0.130
-91.772	-65.883	0.384	0.150
-90.757	-9.675	0.135	-0.088
-89.743	-124.813	-0.114	-0.017
-88.728	800.000	0.087	-0.275
-87.713	-200.000	-0.004	0.017
-86.699	607.453	0.066	-0.161
-85.684	291.838	-0.053	-0.095
-84.670	-200.000	0.044	-0.358
-83.655	-9.622	0.297	-0.194
-82.640	20.052	-0.143	0.113
-81.626	39.342	0.220	-0.193
-80.611	-192.662	-0.226	0.002
-79.597	48.473	0.069	0.063
-78.582	-200.000	-0.021	-0.328
-77.567	-200.000	-0.037	0.440
-76.553	-127.774	-0.296	-0.042
-75.538	-200.000	0.008	-0.197
-74.524	126.323	0.192	0.238
-73.509	16.967	-0.228	-0.177
-72.494	193.289	0.115	-0.170
-71.480	132.758	0.125	0.158
-70.465	-153.023	-0.210	0.014
-69.451	-102.590	0.125	0.029
-68.436	-200.000	-0.028	0.130
-67.422	-119.234	0.039	-0.007
-66.407	-76.942	0.223	0.076
-65.392	73.467	-0.081	0.083
-64.378	-79.738	0.140	-0.046
-63.363	-200.000	0.065	0.322
-62.349	283.717	-0.149	0.263
-61.334	-8.298	-1.189	-0.783
-60.319	-32.217	0.910	0.497
-59.305	-200.000	-0.134	-1.036
-58.290	610.763	0.563	1.376
-57.276	800.000	0.612	1.812
-56.261	-200.000	114.370	647.798
-55.246	475.031	1506.127	3326.351
-54.232	147.230	2677.014	3524.801
-53.217	97.487	2285.708	2568.539
-52.203	36.565	1897.947	1638.926
-51.188	30.631	1688.958	1413.464
-50.173	28.046	1647.787	1359.757
-49.159	49.590	1701.676	1567.408
-48.144	48.440	1715.908	1571.794
-47.130	30.297	1674.956	1399.007
-46.115	27.562	1660.894	1366.727
-45.100	27.275	1655.944	1360.452
-44.086	27.376	1653.301	1358.984
-43.071	27.362	1650.834	1356.800
-42.057	27.244	1648.506	1353.951
-41.042	27.301	1646.467	1352.647
-40.027	27.329	1644.411	1351.111
-39.013	27.279	1642.606	1349.201
-37.998	27.297	1641.103	1348.047
-36.984	27.256	1640.301	1347.032
-35.969	27.517	1637.987	1347.010
-34.954	27.507	1636.496	1345.656
-33.940	27.447	1634.708	1343.693
-32.925	27.459	1632.807	1342.166
-31.911	27.461	1631.224	1340.820
-30.896	27.424	1629.731	1339.268
-29.881	27.506	1627.461	1337.954
-28.867	27.481	1625.988	1336.509
-27.852	27.407	1625.070	1335.157
-26.838	27.445	1623.328	1333.953
-25.823	27.462	1622.230	1333.119
-24.809	27.481	1620.789	1332.023
-23.794	27.411	1619.932	1330.757
-22.779	27.452	1618.045	1329.449
-21.765	27.410	1616.526	1327.838
-20.750	27.419	1614.707	1326.364
-19.736	27.552	1613.210	1326.047
-18.721	27.566	1611.888	1325.007
-17.706	27.622	1610.235	1324.008
-16.692	27.446	1608.896	1321.570
-15.677	27.488	1607.456	1320.643
-14.663	27.606	1605.869	1320.138
-13.648	27.627	1604.492	1319.106
-12.633	27.527	1603.365	1317.408
-11.619	27.468	1601.585	1315.465
-10.604	27.533	1599.845	1314.454
-9.590	27.516	1599.223	1313.772
-8.575	27.514	1598.003	1312.702
-7.560	27.471	1596.909	1311.439
-6.546	27.590	1595.513	1311.094
-5.531	27.534	1594.587	1309.880
-4.517	27.559	1593.087	1308.775
-3.502	27.438	1592.809	1307.627
-2.487	27.577	1590.300	1306.512
-1.473	27.128	1578.638	1293.683
-0.458	24.028	1559.038	1255.733
0.556	18.436	1559.422	1221.024
1.571	15.827	1582.606	1220.176
2.586	15.423	1594.141	1226.009
3.600	14.263	1541.745	1177.408
4.615	8.036	1434.737	1054.493
5.629	1.467	1373.613	967.749
6.644	0.275	1365.655	954.510
7.659	0.131	1364.342	952.597
8.673	0.019	1363.747	951.390
9.688	0.026	1361.401	949.710
10.702	-0.082	1358.625	947.009
11.717	3.125	1363.022	970.242
12.731	10.626	1375.522	1026.657
13.746	16.440	1382.744	1068.829
14.761	17.133	1382.803	1073.160
15.775	16.212	1380.305	1065.313
16.790	15.246	1377.341	1056.848
17.804	14.542	1375.336	1050.779
18.819	14.054	1374.236	1046.774
19.834	13.884	1372.665	1044.419
20.848	13.629	1371.579	1041.892
21.863	13.347	1370.496	1039.208
22.877	13.338	1369.267	1038.128
23.892	13.162	1368.452	1036.313
24.907	13.175	1367.677	1035.720
25.921	13.201	1366.235	1034.695
26.936	13.167	1365.486	1033.826
27.950	13.285	1364.764	1033.928
28.965	13.299	1363.350	1032.847
29.980	13.323	1362.803	1032.494
30.994	13.467	1362.089	1032.759
32.009	13.404	1361.118	1031.540
33.023	13.387	1360.410	1030.807
34.038	13.325	1358.802	1029.113
35.053	13.397	1357.662	1028.607
36.067	13.273	1356.946	1027.202
37.082	13.325	1355.807	1026.567
38.096	13.399	1354.735	1026.126
39.111	13.415	1353.830	1025.449
40.126	13.286	1353.242	1024.111
41.140	13.155	1352.859	1022.919
42.155	13.103	1351.916	1021.799
43.169	13.133	1351.893	1021.872
44.184	13.217	1351.237	1021.805
45.199	13.134	1351.340	1021.283
46.213	13.201	1350.363	1020.865
47.228	13.245	1349.573	1020.449
48.242	13.313	1348.218	1019.754
49.257	13.355	1346.169	1018.376
50.271	13.263	1345.319	1017.072
51.286	13.349	1343.858	1016.406
52.301	13.247	1343.398	1015.347
53.315	13.184	1342.419	1014.129
54.330	13.265	1340.621	1013.175
55.344	13.224	1339.601	1012.062
56.359	13.247	1338.830	1011.532
57.374	13.113	1337.830	1009.870
58.388	13.198	1336.777	1009.505
59.403	13.039	1336.972	1008.593
60.417	13.193	1335.491	1008.323
61.432	13.043	1334.783	1006.787
62.447	13.046	1334.464	1006.477
63.461	13.032	1332.776	1005.026
64.476	13.052	1331.738	1004.278
65.490	13.127	1330.379	1003.621
66.505	13.068	1329.287	1002.348
67.520	13.098	1327.536	1001.120
68.534	13.169	1326.212	1000.462
69.549	13.220	1324.981	999.754
70.563	13.145	1324.165	998.600
71.578	13.108	1323.155	997.522
72.593	13.056	1322.504	996.634
73.607	13.005	1321.787	995.692
74.622	12.913	1321.025	994.476
75.636	13.093	1319.614	994.414
76.651	13.034	1319.136	993.607
77.666	12.984	1318.989	993.110
78.680	13.054	1318.163	992.818
79.695	13.149	1317.319	992.666
80.709	13.033	1316.714	991.426
81.724	13.151	1315.631	991.229
82.739	13.160	1314.637	990.449
83.753	13.198	1313.856	989.999
84.768	13.317	1312.971	989.961
85.782	13.368	1311.486	989.054
86.797	13.349	1310.136	987.839
87.812	13.216	1309.061	986.148
88.826	13.121	1308.505	985.073
89.841	13.307	1306.620	984.672
90.855	13.447	1305.560	984.624
91.870	13.248	1305.544	983.339
92.884	13.373	1304.450	983.170
93.899	13.364	1303.882	982.604
94.914	13.463	1303.085	982.502
95.928	13.395	1302.297	981.416
96.943	13.383	1301.254	980.473
97.957	13.367	1300.472	979.706
98.972	13.316	1299.453	978.549
99.987	13.441	1298.461	978.454
101.001	13.334	1297.216	976.797
102.016	13.443	1296.158	976.558
103.030	13.431	1295.470	975.880
104.045	13.265	1294.820	974.327
105.060	13.272	1293.046	972.948
106.074	13.259	1291.982	971.986
107.089	13.237	1290.947	970.992
108.103	13.166	1289.392	969.315
109.118	13.141	1288.583	968.475
110.133	13.159	1287.237	967.483
111.147	13.205	1285.771	966.570
112.162	13.104	1284.937	965.262
113.176	13.286	1283.312	965.021
114.191	13.385	1282.132	964.625
115.206	13.263	1281.839	963.608
116.220	13.150	1280.219	961.645
117.235	13.274	1279.282	961.582
118.249	13.373	1277.869	961.009
119.264	13.285	1277.205	959.913
120.279	13.230	1276.055	958.642
121.293	13.220	1274.933	957.659
122.308	13.164	1274.334	956.799
123.322	13.156	1272.769	955.491
124.337	13.161	1272.209	955.019
125.352	13.221	1270.831	954.243
126.366	13.141	1269.892	952.995
127.381	13.218	1268.891	952.600
128.395	13.163	1267.959	951.499
129.410	13.179	1267.084	950.855
130.424	13.207	1266.314	950.352
131.439	13.275	1265.113	949.758
132.454	13.251	1264.411	949.007
133.468	13.214	1263.800	948.254
134.483	13.277	1262.645	947.661
135.497	13.221	1261.546	946.437
136.512	13.299	1260.221	945.805
137.527	13.275	1258.793	944.512
138.541	13.371	1257.675	944.137
139.556	13.353	1255.903	942.619
140.570	13.324	1255.444	942.029
141.585	13.370	1254.155	941.237
142.600	13.484	1252.815	940.796
143.614	13.470	1252.034	940.045
144.629	13.492	1251.145	939.419
145.643	13.468	1249.749	938.156
146.658	13.391	1248.725	936.868
147.673	13.408	1246.836	935.465
148.687	13.300	1246.164	934.268
149.702	13.335	1244.639	933.235
150.716	13.414	1242.826	932.242
151.731	13.269	1242.248	930.910
152.746	13.432	1240.588	930.497
153.760	13.414	1240.043	929.905
154.775	13.446	1238.907	929.150
155.789	13.469	1237.518	928.154
156.804	13.531	1236.465	927.631
157.819	13.496	1235.602	926.705
158.833	13.594	1234.346	926.227
159.848	13.578	1233.551	925.461
160.862	13.537	1233.088	924.805
161.877	13.621	1231.188	923.767
162.892	13.507	1230.440	922.486
163.906	13.526	1229.729	921.975
164.921	13.461	1228.632	920.714
165.935	13.543	1227.743	920.419
166.950	13.516	1227.213	919.794
167.964	13.540	1226.456	919.277
168.979	13.588	1225.684	918.884
169.994	13.586	1224.799	918.126
171.008	13.575	1224.467	917.738
172.023	13.680	1223.251	917.327
173.037	13.773	1222.620	917.282
174.052	13.744	1221.537	916.228
175.067	13.637	1220.700	914.931
176.081	13.545	1219.885	913.733
177.096	13.610	1219.200	913.494
178.110	13.719	1217.142	912.471
179.125	13.701	1215.962	911.410
180.140	13.735	1214.861	910.690
181.154	13.639	1214.090	909.506
182.169	13.639	1212.907	908.537
183.183	13.689	1212.094	908.123
184.198	13.891	1210.127	907.672
185.213	13.793	1209.446	906.544
186.227	13.799	1208.295	905.636
187.242	13.791	1207.015	904.552
188.256	13.906	1206.200	904.489
189.271	13.881	1205.266	903.569
190.286	13.800	1204.606	902.558
191.300	13.708	1203.178	900.907
192.315	13.721	1202.332	900.265
193.329	13.662	1202.052	899.657
194.344	13.738	1201.572	899.627
195.359	13.741	1200.904	899.067
196.373	13.727	1200.709	898.765
197.388	13.991	1199.918	899.520
198.402	14.022	1199.430	899.242
199.417	13.968	1199.013	898.559
200.432	14.145	1197.949	898.636
201.446	14.058	1197.401	897.677
202.461	14.019	1196.190	896.480
203.475	14.177	1194.745	896.170
204.490	14.107	1193.621	894.871
205.504	14.029	1192.283	893.367
206.519	14.065	1191.283	892.736
207.534	13.951	1190.359	891.352
208.548	13.999	1189.059	890.556
209.563	13.996	1188.598	890.113
210.577	14.070	1187.830	889.860
211.592	14.075	1187.092	889.253
212.607	14.262	1185.933	889.306
213.621	14.233	1184.594	888.069
214.636	14.226	1183.949	887.469
215.650	14.147	1183.343	886.514
216.665	14.352	1182.080	886.581
217.680	14.315	1181.270	885.700
218.694	14.336	1180.685	885.294
219.709	14.269	1179.632	884.070
220.723	14.312	1178.980	883.730
221.738	14.325	1178.658	883.480
222.753	14.414	1177.571	883.057
223.767	14.362	1177.236	882.456
224.782	14.385	1176.876	882.228
225.796	14.429	1175.736	881.525
226.811	14.365	1175.201	880.712
227.826	14.402	1174.560	880.349
228.840	14.375	1173.548	879.368
229.855	14.397	1172.734	878.798
230.869	14.413	1172.066	878.302
231.884	14.353	1171.482	877.471
232.899	14.436	1170.259	876.913
233.913	14.372	1169.913	876.242
234.928	14.294	1169.339	875.323
235.942	14.311	1168.313	874.566
236.957	14.342	1167.761	874.238
237.972	14.479	1166.487	873.927
238.986	14.402	1165.985	873.067
240.001	14.477	1165.208	872.803
241.015	14.495	1164.258	872.107
242.030	14.434	1163.902	871.444
243.045	14.422	1162.967	870.607
244.059	14.581	1162.131	870.733
245.074	14.494	1161.467	869.705
246.088	14.573	1160.542	869.345
247.103	14.597	1159.782	868.826
248.117	14.574	1159.338	868.297
249.132	14.646	1158.384	867.882
250.147	14.737	1157.648	867.726
251.161	14.735	1156.895	867.072
252.176	14.844	1156.158	867.006
253.190	14.860	1155.689	866.662
254.205	14.779	1155.477	866.006
255.220	14.858	1154.544	865.643
256.234	14.932	1153.732	865.339
257.249	15.040	1153.037	865.298
258.263	14.953	1152.629	864.468
259.278	14.909	1151.855	863.585
260.293	14.884	1151.386	863.024
261.307	15.026	1150.697	863.165
262.322	15.083	1150.138	862.962
263.336	15.047	1149.336	862.100
264.351	15.012	1148.929	861.539
265.366	14.995	1148.150	860.788
266.380	15.006	1147.486	860.274
267.395	15.020	1146.732	859.701
268.409	15.145	1145.676	859.476
269.424	15.073	1145.247	858.709
270.439	15.102	1144.776	858.431
271.453	15.074	1143.713	857.411
272.468	15.117	1142.788	856.865
273.482	15.099	1142.281	856.316
274.497	15.086	1142.156	856.080
275.512	15.202	1141.283	855.940
276.526	15.035	1140.512	854.434
277.541	15.026	1139.925	853.875
278.555	15.116	1139.398	853.863
279.570	15.177	1138.327	853.294
280.585	15.190	1137.067	852.340
281.599	15.342	1135.919	852.178
282.614	15.318	1135.366	851.563
283.628	15.236	1134.207	850.203
284.643	15.209	1133.161	849.209
285.657	15.229	1132.749	848.928
286.672	15.266	1131.824	848.343
287.687	15.284	1130.475	847.351
288.701	15.408	1129.613	847.255
289.716	15.351	1129.089	846.500
290.730	15.323	1128.215	845.626
291.745	15.308	1127.373	844.847
292.760	15.431	1126.836	844.988
293.774	15.286	1126.706	844.087
294.789	15.382	1126.005	843.971
295.803	15.389	1125.247	843.361
296.818	15.482	1124.544	843.227
297.833	15.456	1123.689	842.380
298.847	15.395	1122.956	841.449
299.862	15.448	1122.322	841.170
300.876	15.600	1121.468	841.213
301.891	15.550	1120.647	840.276
302.906	15.538	1119.923	839.595
303.920	15.657	1119.878	840.084
304.935	15.582	1119.292	839.194
305.949	15.727	1118.319	839.117
306.964	15.713	1117.634	838.458
307.979	15.711	1116.886	837.809
308.993	15.607	1116.287	836.769
310.008	15.649	1115.270	836.140
311.022	15.630	1114.797	835.620
312.037	15.817	1113.582	835.561
313.052	15.768	1112.250	834.246
314.066	15.690	1111.866	833.500
315.081	15.684	1111.034	832.773
316.095	15.575	1110.468	831.732
317.110	15.670	1109.388	831.321
318.125	15.668	1108.396	830.496
319.139	15.667	1108.228	830.288
320.154	15.706	1107.360	829.756
321.168	15.713	1106.731	829.249
322.183	15.594	1106.736	828.592
323.197	15.727	1105.909	828.554
324.212	15.735	1104.849	827.727
325.227	15.866	1104.116	827.748
326.241	15.729	1103.840	826.795
327.256	15.782	1103.004	826.354
328.270	15.806	1101.898	825.572
329.285	15.731	1100.987	824.447
330.300	15.965	1099.908	824.712
331.314	15.873	1099.503	823.885
332.329	15.884	1098.123	822.835
333.343	15.929	1097.438	822.469
334.358	15.904	1096.690	821.712
335.373	16.043	1095.720	821.588
336.387	15.997	1095.147	820.865
337.402	16.035	1094.141	820.221
338.416	16.008	1093.779	819.748
339.431	16.150	1092.923	819.724
340.446	16.077	1092.730	819.151
341.460	16.249	1092.121	819.455
342.475	16.156	1091.176	818.225
343.489	16.100	1090.352	817.262
344.504	16.261	1089.028	816.975
345.519	16.245	1088.547	816.468
346.533	16.259	1087.787	815.891
347.548	16.199	1087.280	815.148
348.562	16.320	1086.219	814.868
349.577	16.326	1085.607	814.364
350.592	16.238	1084.812	813.269
351.606	16.223	1083.758	812.335
352.621	16.184	1083.392	811.803
353.635	16.202	1082.620	811.238
354.650	16.306	1081.582	810.887
355.665	16.207	1081.148	810.017
356.679	16.225	1080.444	809.505
357.694	16.381	1079.692	809.615
358.708	16.280	1079.097	808.612
359.723	16.326	1078.742	808.495
360.738	16.277	1078.061	807.682
361.752	16.317	1077.718	807.544
362.767	16.417	1077.119	807.503
363.781	16.418	1076.584	807.034
364.796	16.373	1076.326	806.553
365.810	16.502	1074.994	806.098
366.825	16.468	1074.513	805.505
367.840	16.456	1074.386	805.280
368.854	16.527	1073.481	804.868
369.869	16.554	1072.721	804.355
370.883	16.598	1071.624	803.674
371.898	16.645	1070.799	803.208
372.913	16.565	1070.448	802.492
373.927	16.591	1069.748	802.019
374.942	16.639	1069.663	802.111
375.956	16.639	1069.110	801.628
376.971	16.581	1068.600	800.899
377.986	16.708	1067.999	800.977
379.000	16.792	1067.088	800.620
380.015	16.758	1066.552	799.989
381.029	16.703	1066.351	799.506
382.044	16.839	1065.402	799.367
383.059	16.833	1064.250	798.405
384.073	16.874	1063.768	798.165
385.088	16.781	1062.916	797.015
386.102	16.849	1061.823	796.445
387.117	16.839	1060.783	795.550
388.132	16.794	1060.009	794.687
389.146	16.805	1059.036	793.936
390.161	16.807	1058.217	793.263
391.175	16.829	1058.012	793.140
392.190	16.919	1057.340	792.988
393.205	16.863	1056.762	792.223
394.219	16.934	1056.226	792.084
395.234	16.944	1054.794	790.985
396.248	16.881	1053.938	789.982
397.263	16.917	1053.041	789.408
398.278	16.815	1052.488	788.448
399.292	16.829	1051.695	787.846
400.307	16.913	1051.233	787.825
401.321	16.915	1050.370	787.114
402.336	16.982	1049.910	787.013
403.350	16.994	1048.983	786.302
404.365	17.074	1048.161	785.988
405.380	16.949	1047.667	784.970
406.394	16.993	1046.716	784.390
407.409	17.135	1045.995	784.437
408.423	17.048	1045.556	783.637
409.438	17.224	1044.635	783.689
410.453	17.121	1044.201	782.820
411.467	17.191	1043.694	782.693
412.482	17.232	1042.738	782.094
413.496	17.269	1042.146	781.751
414.511	17.244	1041.516	781.094
415.526	17.333	1040.848	780.934
416.540	17.401	1040.847	781.175
417.555	17.256	1040.469	780.160
418.569	17.336	1039.664	779.854
419.584	17.420	1038.852	779.558
420.599	17.329	1038.857	779.079
421.613	105.007	1325.545	1477.043
422.628	96.326	1367.265	1477.148
