DTS Sentinel unit serial number:	SN413079Multiplexer serial number:	ORYXHardware model number:	OX4-SRSoftware version number:	ORYX F/W v4.00 Oryx Data Collector v3.7.2.0data status	okinstallation	princeton_trtdifferential loss correction	single-endedforward channel	channel 2reverse channel	N/Adate	2019/09/12time	21:35:35forward acquisition time	60.00reverse acquisition time	0.00gamma	496.2192k internal	0.2329k external	0.2329temperature offset calibration	1.0169default loss term (dB/km)	0.3790temperature slope calibration	1.0000multiplexer offset coefficient	1.0000multiplexer slope coefficient	1.0000fibre end	0.00T internal ref (°C)	30.37T ext. ref 1 (°C)	3.68T ext. ref 2 (°C)	25.00length (m)	temperature (°C)	Stokes	anti-Stokes-747.200	-66.845	0.171	-0.068
-746.185	-200.000	0.010	0.207
-745.171	143.512	-0.195	-0.262
-744.156	339.529	-0.040	0.078
-743.142	800.000	-0.023	0.087
-742.127	26.368	-0.121	0.102
-741.112	-200.000	-0.006	0.157
-740.098	-200.000	0.002	0.152
-739.083	-76.546	0.394	0.140
-738.069	31.763	-0.163	0.141
-737.054	39.438	0.244	0.220
-736.039	-27.939	-0.173	-0.101
-735.025	-130.766	0.236	0.032
-734.010	-36.017	-0.066	-0.036
-732.996	-141.506	-0.188	-0.019
-731.981	-200.000	0.060	-0.283
-730.966	60.429	0.211	0.211
-729.952	-198.338	-0.181	0.001
-728.937	159.458	0.141	-0.197
-727.923	-200.000	-0.012	-0.194
-726.908	-200.000	0.013	-0.063
-725.894	-45.641	-0.257	-0.128
-724.879	-59.153	-0.420	0.182
-723.864	37.294	0.155	0.138
-722.850	-176.434	-0.256	-0.007
-721.835	13.238	-0.099	0.077
-720.821	251.521	-0.127	0.218
-719.806	800.000	0.042	-0.128
-718.791	-200.000	0.005	-0.051
-717.777	70.134	-0.283	-0.294
-716.762	-13.075	-0.020	0.013
-715.748	67.015	-0.226	-0.232
-714.733	-24.007	-0.081	0.049
-713.718	-70.338	-0.225	0.086
-712.704	114.402	0.067	0.083
-711.689	-177.444	0.229	0.006
-710.675	17.200	-0.172	0.137
-709.660	800.000	-0.048	0.212
-708.645	-108.638	-0.186	0.040
-707.631	-39.184	0.103	0.054
-706.616	-98.948	0.114	-0.029
-705.602	-200.000	-0.016	0.121
-704.587	305.489	-0.180	0.336
-703.572	-200.000	0.018	-0.174
-702.558	339.868	-0.077	-0.151
-701.543	-78.781	0.161	0.055
-700.529	800.000	-0.053	0.203
-699.514	-71.777	-0.190	-0.071
-698.499	170.289	-0.127	0.183
-697.485	-200.000	-0.031	0.250
-696.470	-200.000	0.000	0.057
-695.456	-78.102	-0.260	0.090
-694.441	136.568	-0.131	-0.172
-693.426	-200.000	0.005	-0.112
-692.412	-22.440	-0.288	0.176
-691.397	-102.084	0.214	-0.052
-690.383	336.668	0.081	-0.159
-689.368	604.779	-0.097	-0.242
-688.354	-94.318	-0.086	-0.024
-687.339	-66.354	0.327	-0.131
-686.324	-200.000	0.003	-0.449
-685.310	800.000	0.044	0.194
-684.295	-199.658	-0.433	0.002
-683.281	224.159	0.125	-0.203
-682.266	108.555	0.126	-0.152
-681.251	-102.561	0.020	0.005
-680.237	-88.315	-0.106	-0.032
-679.222	800.000	0.052	0.161
-678.208	-133.095	-0.083	-0.011
-677.193	-40.899	-0.487	0.253
-676.178	-200.000	0.061	-0.315
-675.164	-59.272	0.146	0.063
-674.149	-200.000	-0.016	0.071
-673.135	786.149	-0.083	-0.228
-672.120	-132.607	0.320	-0.041
-671.105	-200.000	-0.013	0.336
-670.091	106.584	-0.055	0.065
-669.076	0.269	-0.205	-0.147
-668.062	-92.524	-0.475	0.134
-667.047	-93.899	-0.049	0.014
-666.032	-45.159	-0.140	0.070
-665.018	-47.408	0.261	0.128
-664.003	-63.822	-0.128	0.053
-662.989	-74.216	-0.188	-0.068
-661.974	-31.644	0.120	0.068
-660.959	-25.723	-0.204	-0.121
-659.945	-45.165	0.046	-0.023
-658.930	58.483	-0.147	-0.144
-657.916	66.862	-0.057	0.058
-656.901	83.056	-0.211	-0.231
-655.886	29.166	0.023	0.019
-654.872	17.612	-0.053	0.042
-653.857	-53.025	-0.212	-0.098
-652.843	130.212	-0.272	0.349
-651.828	18.680	-0.158	-0.127
-650.814	603.915	-0.106	-0.266
-649.799	-69.715	0.247	-0.095
-648.784	169.874	0.264	0.379
-647.770	800.000	0.149	0.465
-646.755	50.413	-0.236	-0.224
-645.741	-136.757	-0.205	0.024
-644.726	-200.000	0.025	0.383
-643.711	-200.000	0.016	-0.360
-642.697	-112.698	-0.442	-0.088
-641.682	349.852	0.120	-0.238
-640.668	-107.260	-0.030	-0.007
-639.653	100.986	0.073	0.086
-638.638	-126.523	0.256	-0.038
-637.624	-200.000	0.006	-0.032
-636.609	800.000	0.026	0.076
-635.595	-200.000	0.076	-0.361
-634.580	250.521	0.052	-0.089
-633.565	-2.385	0.139	-0.098
-632.551	-38.245	-0.401	-0.213
-631.536	295.305	-0.069	0.126
-630.522	-140.773	0.323	0.033
-629.507	69.218	-0.177	0.183
-628.492	4.608	-0.032	0.023
-627.478	338.292	0.157	-0.307
-626.463	65.147	-0.236	-0.239
-625.449	-67.686	-0.112	0.044
-624.434	-58.537	-0.418	0.182
-623.419	47.653	0.132	0.124
-622.405	754.253	-0.180	0.488
-621.390	-200.000	-0.246	-0.001
-620.376	-43.925	-0.131	-0.066
-619.361	-109.148	-0.155	-0.033
-618.346	-135.159	-0.277	-0.033
-617.332	-108.715	-0.051	0.011
-616.317	93.396	0.257	0.291
-615.303	-200.000	0.037	0.184
-614.288	-93.300	0.272	-0.076
-613.273	-1.494	0.194	-0.137
-612.259	800.000	-0.022	-0.061
-611.244	-154.399	0.185	-0.012
-610.230	73.408	-0.123	-0.129
-609.215	-54.437	-0.360	-0.164
-608.201	54.713	0.207	0.200
-607.186	318.334	-0.058	-0.110
-606.171	-200.000	-0.024	-0.212
-605.157	-132.483	-0.302	-0.039
-604.142	31.969	-0.097	0.084
-603.128	-80.278	-0.131	0.044
-602.113	-14.686	-0.239	-0.154
-601.098	-200.000	-0.052	-0.247
-600.084	800.000	0.040	-0.172
-599.069	427.297	-0.159	-0.344
-598.055	736.989	-0.146	-0.391
-597.040	171.551	-0.120	-0.173
-596.025	94.702	-0.215	-0.245
-595.011	553.266	0.053	0.127
-593.996	36.756	0.269	-0.238
-592.982	292.256	0.110	-0.201
-591.967	73.580	-0.193	-0.202
-590.952	-200.000	0.030	-0.199
-589.938	-200.000	-0.009	-0.138
-588.923	42.726	-0.087	0.079
-587.909	-47.139	0.209	-0.102
-586.894	95.116	-0.070	-0.080
-585.879	-123.240	-0.125	0.020
-584.865	800.000	0.021	0.062
-583.850	408.147	-0.062	-0.132
-582.836	-181.379	0.211	0.004
-581.821	194.061	-0.057	-0.087
-580.806	-90.802	0.096	0.028
-579.792	282.787	0.122	0.219
-578.777	800.000	0.084	-0.234
-577.763	-200.000	0.016	-0.366
-576.748	760.632	0.021	0.056
-575.733	-34.790	-0.093	0.051
-574.719	800.000	0.051	0.220
-573.704	-136.659	-0.031	0.004
-572.690	-84.078	0.209	0.066
-571.675	-200.000	-0.001	0.061
-570.661	214.928	-0.140	-0.222
-569.646	186.205	0.179	0.267
-568.631	92.844	-0.146	0.165
-567.617	183.300	-0.044	0.065
-566.602	800.000	0.104	-0.453
-565.588	388.679	0.087	0.181
-564.573	-114.989	0.141	0.027
-563.558	8.824	0.362	-0.273
-562.544	-155.640	-0.411	-0.026
-561.529	-23.823	-0.370	-0.222
-560.515	-138.796	0.135	-0.015
-559.500	-127.173	0.198	-0.029
-558.485	221.058	0.087	-0.139
-557.471	-200.000	-0.069	-0.345
-556.456	-34.759	-0.213	-0.116
-555.442	-41.286	-0.251	-0.130
-554.427	-200.000	-0.019	-0.249
-553.412	235.778	0.176	0.291
-552.398	-160.106	-0.134	-0.007
-551.383	-79.565	-0.338	0.114
-550.369	102.065	0.166	-0.194
-549.354	-33.595	-0.187	0.103
-548.339	800.000	0.077	0.305
-547.325	363.960	0.109	-0.220
-546.310	175.540	-0.053	0.077
-545.296	-200.000	0.024	-0.124
-544.281	136.066	-0.095	0.124
-543.266	-129.807	0.379	-0.052
-542.252	-21.968	-0.311	-0.189
-541.237	44.794	0.280	0.257
-540.223	-25.020	0.060	-0.036
-539.208	483.765	0.084	-0.191
-538.193	585.913	-0.044	-0.109
-537.179	-197.735	0.198	0.001
-536.164	-122.770	0.316	-0.051
-535.150	-120.404	0.095	-0.016
-534.135	87.827	0.285	0.316
-533.121	522.977	-0.130	-0.306
-532.106	-21.340	0.235	0.143
-531.091	13.865	0.276	0.214
-530.077	-139.474	-0.305	-0.033
-529.062	53.517	-0.190	-0.182
-528.048	-82.553	0.098	0.032
-527.033	-51.341	0.111	-0.052
-526.018	-79.642	0.089	-0.030
-525.004	223.864	0.123	0.198
-523.989	257.914	-0.106	0.183
-522.975	-200.000	0.026	-0.294
-521.960	-200.000	0.026	0.000
-520.945	109.814	-0.022	0.027
-519.931	-162.968	-0.300	0.015
-518.916	-200.000	0.035	-0.195
-517.902	-197.690	-0.462	-0.003
-516.887	-144.813	-0.173	-0.016
-515.872	11.163	-0.149	0.114
-514.858	372.565	-0.198	0.402
-513.843	-100.802	0.673	0.166
-512.829	422.864	0.163	0.350
-511.814	-101.479	-0.346	-0.084
-510.799	60.873	-0.068	-0.067
-509.785	442.789	0.090	0.198
-508.770	800.000	0.037	0.107
-507.756	32.200	-0.281	-0.242
-506.741	-134.427	0.234	-0.029
-505.726	660.436	0.076	-0.196
-504.712	-101.300	-0.238	-0.058
-503.697	-75.733	-0.061	-0.022
-502.683	230.989	-0.059	0.096
-501.668	203.408	-0.056	-0.086
-500.653	74.131	0.301	0.315
-499.639	-77.170	-0.338	0.118
-498.624	-200.000	0.013	0.257
-497.610	180.153	0.136	0.199
-496.595	432.476	-0.066	0.144
-495.581	154.408	-0.124	0.170
-494.566	-62.574	-0.121	-0.050
-493.551	800.000	0.023	0.073
-492.537	800.000	-0.056	-0.155
-491.522	166.080	0.024	-0.034
-490.508	-200.000	-0.007	-0.324
-489.493	294.814	0.102	-0.187
-488.478	-124.986	-0.077	0.012
-487.464	-200.000	-0.013	-0.284
-486.449	-131.005	0.112	0.015
-485.435	-28.238	0.272	0.157
-484.420	172.801	0.190	0.273
-483.405	-200.000	-0.028	-0.220
-482.391	800.000	-0.120	-0.353
-481.376	86.354	-0.279	0.306
-480.362	800.000	-0.086	0.270
-479.347	418.903	0.156	0.333
-478.332	-44.080	-0.303	0.152
-477.318	35.184	-0.169	0.147
-476.303	-3.338	0.279	0.193
-475.289	-200.000	-0.072	-0.358
-474.274	430.494	-0.079	-0.171
-473.259	14.030	-0.331	-0.257
-472.245	-200.000	-0.008	0.078
-471.230	3.158	0.260	0.188
-470.216	280.139	0.176	0.313
-469.201	-200.000	0.024	-0.352
-468.186	170.869	0.089	-0.127
-467.172	-200.000	0.017	0.175
-466.157	800.000	-0.018	0.061
-465.143	800.000	-0.075	0.242
-464.128	519.408	0.075	0.176
-463.113	58.994	-0.070	-0.069
-462.099	-48.220	0.081	-0.039
-461.084	54.512	0.218	0.210
-460.070	-21.496	-0.291	0.177
-459.055	26.845	0.248	0.207
-458.040	558.578	0.023	-0.054
-457.026	-200.000	-0.062	-0.313
-456.011	54.738	0.078	0.075
-454.997	486.608	0.128	0.291
-453.982	-140.620	-0.044	-0.005
-452.968	800.000	0.107	-0.349
-451.953	-200.000	0.035	0.357
-450.938	-174.345	-0.129	0.004
-449.924	73.054	0.180	0.187
-448.909	-116.068	0.203	-0.038
-447.895	136.195	-0.145	-0.188
-446.880	66.473	0.127	0.128
-445.865	-200.000	-0.006	-0.138
-444.851	48.568	0.201	0.187
-443.836	-9.260	0.145	-0.096
-442.822	-85.289	-0.173	0.054
-441.807	-168.526	-0.074	-0.003
-440.792	-113.757	0.155	0.030
-439.778	-44.030	0.237	0.119
-438.763	32.466	-0.097	0.083
-437.749	-64.643	0.145	0.058
-436.734	-53.321	0.356	-0.163
-435.719	-94.688	-0.242	-0.065
-434.705	-73.275	-0.284	-0.103
-433.690	-4.899	0.215	-0.148
-432.676	10.817	0.226	-0.172
-431.661	-49.006	0.256	-0.122
-430.646	-107.694	0.128	-0.028
-429.632	800.000	-0.089	-0.271
-428.617	-48.819	0.195	0.093
-427.603	34.823	-0.188	-0.164
-426.588	-25.006	0.511	0.302
-425.573	-114.362	0.348	-0.067
-424.559	9.679	-0.157	-0.118
-423.544	800.000	-0.032	0.131
-422.530	-200.000	-0.019	0.229
-421.515	800.000	-0.023	0.066
-420.500	192.733	0.101	0.152
-419.486	-38.389	0.223	0.117
-418.471	-58.140	-0.310	-0.134
-417.457	800.000	-0.046	-0.179
-416.442	800.000	-0.123	0.384
-415.428	87.983	0.128	0.141
-414.413	318.045	-0.043	0.081
-413.398	-167.854	0.429	0.017
-412.384	616.626	0.139	0.346
-411.369	549.718	0.125	-0.298
-410.355	-40.183	-0.098	0.051
-409.340	120.393	0.012	0.014
-408.325	-149.076	0.162	-0.013
-407.311	529.245	0.104	-0.243
-406.296	-200.000	0.071	-0.362
-405.282	500.550	-0.106	0.243
-404.267	107.702	0.241	0.285
-403.252	-113.113	0.192	0.038
-402.238	397.539	0.127	0.263
-401.223	-5.967	-0.230	0.156
-400.209	-200.000	0.004	-0.249
-399.194	23.033	0.142	-0.116
-398.179	-52.807	-0.293	0.134
-397.165	5.470	0.137	-0.100
-396.150	-200.000	-0.071	0.371
-395.136	-123.569	-0.319	0.050
-394.121	208.243	0.049	0.076
-393.106	411.602	0.082	-0.173
-392.092	-200.000	0.029	-0.406
-391.077	-97.901	-0.028	0.007
-390.063	-148.222	-0.395	-0.032
-389.048	215.668	-0.117	-0.184
-388.033	-25.335	-0.134	0.079
-387.019	-160.326	-0.119	-0.006
-386.004	157.556	-0.096	-0.131
-384.990	-94.719	0.341	0.092
-383.975	-200.000	-0.009	0.140
-382.960	-200.000	-0.004	0.362
-381.946	-65.312	0.156	-0.062
-380.931	-32.926	-0.037	0.020
-379.917	623.094	-0.036	0.089
-378.902	-26.565	0.299	0.174
-377.888	-200.000	-0.029	-0.242
-376.873	-124.065	-0.125	0.019
-375.858	-200.000	-0.058	0.455
-374.844	21.668	0.216	0.174
-373.829	-138.310	-0.114	-0.012
-372.815	10.615	-0.181	0.137
-371.800	-5.811	-0.364	0.247
-370.785	777.383	-0.105	0.284
-369.771	-169.439	0.278	0.010
-368.756	-200.000	0.034	-0.345
-367.742	255.631	-0.195	-0.332
-366.727	309.798	0.042	0.077
-365.712	78.173	-0.051	-0.054
-364.698	178.138	-0.202	-0.292
-363.683	800.000	-0.090	-0.350
-362.669	49.088	0.111	-0.104
-361.654	-6.744	-0.343	-0.231
-360.639	-89.458	-0.321	0.094
-359.625	-78.624	0.197	0.067
-358.610	-154.205	-0.100	0.007
-357.596	800.000	0.039	0.133
-356.581	-19.373	-0.107	0.066
-355.566	-182.825	-0.374	-0.007
-354.552	-78.856	0.223	0.076
-353.537	15.203	0.121	0.094
-352.523	-70.228	0.280	-0.105
-351.508	72.816	-0.056	0.058
-350.493	312.035	-0.116	0.215
-349.479	40.270	0.245	-0.219
-348.464	194.071	0.088	0.132
-347.450	-200.000	-0.016	0.225
-346.435	-25.372	0.276	-0.162
-345.420	800.000	0.084	-0.320
-344.406	-1.936	0.151	0.106
-343.391	56.395	-0.233	-0.225
-342.377	-23.199	-0.146	-0.087
-341.362	-90.498	0.302	0.087
-340.348	-104.699	0.478	0.109
-339.333	-16.241	-0.309	-0.195
-338.318	658.606	0.121	-0.308
-337.304	-200.000	-0.034	0.233
-336.289	-200.000	-0.006	-0.035
-335.275	238.540	-0.031	0.051
-334.260	800.000	-0.095	0.410
-333.245	800.000	0.042	0.145
-332.231	-200.000	0.011	0.242
-331.216	-6.237	-0.177	0.119
-330.202	58.187	0.091	0.089
-329.187	-148.922	0.213	-0.017
-328.172	254.497	-0.082	0.140
-327.158	800.000	-0.067	0.276
-326.143	-17.831	0.142	-0.088
-325.129	-73.411	0.142	-0.051
-324.114	-122.854	-0.238	-0.038
-323.099	166.268	-0.191	0.268
-322.085	428.826	0.071	0.152
-321.070	-48.801	-0.298	0.141
-320.056	630.382	-0.132	0.330
-319.041	-200.000	0.003	-0.041
-318.026	-96.040	0.145	-0.038
-317.012	-200.000	0.003	-0.435
-315.997	-89.536	-0.088	0.026
-314.983	101.867	-0.124	0.144
-313.968	647.551	-0.047	0.119
-312.953	130.607	0.214	0.272
-311.939	-158.476	-0.189	0.011
-310.924	-200.000	-0.017	-0.090
-309.910	236.692	0.049	-0.080
-308.895	101.076	-0.203	-0.234
-307.880	-200.000	-0.038	0.178
-306.866	-146.583	-0.162	0.014
-305.851	-119.809	-0.107	-0.018
-304.837	139.528	-0.036	-0.048
-303.822	82.932	-0.173	-0.186
-302.807	7.992	-0.094	-0.070
-301.793	100.222	-0.039	-0.044
-300.778	-34.739	-0.215	-0.116
-299.764	-122.330	0.250	-0.040
-298.749	3.123	0.187	0.134
-297.735	38.712	0.175	0.155
-296.720	1.374	0.102	-0.073
-295.705	-200.000	0.011	0.152
-294.691	-200.000	0.019	0.257
-293.676	435.332	0.090	-0.194
-292.662	-107.298	0.505	0.110
-291.647	122.181	-0.172	0.213
-290.632	180.816	-0.116	0.168
-289.618	142.509	0.064	-0.085
-288.603	-111.034	0.212	-0.043
-287.589	-91.007	-0.218	-0.062
-286.574	-200.000	-0.028	-0.173
-285.559	325.387	0.196	-0.372
-284.545	564.810	-0.168	0.402
-283.530	245.729	0.085	0.142
-282.516	145.181	-0.125	-0.166
-281.501	800.000	0.016	-0.046
-280.486	27.653	-0.159	-0.133
-279.472	-112.402	0.139	-0.028
-278.457	-200.000	0.003	0.104
-277.443	-200.000	0.002	0.041
-276.428	543.096	-0.134	-0.315
-275.413	-87.180	-0.174	0.052
-274.399	-12.182	-0.235	-0.152
-273.384	-200.000	0.010	-0.339
-272.370	-103.193	0.370	0.087
-271.355	-29.189	-0.166	0.094
-270.340	-109.054	0.194	-0.041
-269.326	-200.000	-0.003	-0.269
-268.311	-12.765	-0.084	0.054
-267.297	51.679	-0.108	0.101
-266.282	-136.980	0.210	0.024
-265.267	-200.000	0.034	0.324
-264.253	800.000	0.063	0.173
-263.238	-43.632	0.341	0.170
-262.224	-130.724	0.214	0.029
-261.209	-185.547	-0.128	-0.002
-260.195	113.953	0.166	-0.200
-259.180	9.497	0.128	-0.096
-258.165	28.128	0.138	0.115
-257.151	507.195	0.161	-0.369
-256.136	800.000	-0.097	-0.378
-255.122	-34.610	0.020	-0.011
-254.107	-200.000	-0.075	0.376
-253.092	272.747	0.164	-0.286
-252.078	227.357	0.038	-0.061
-251.063	263.319	-0.033	0.056
-250.049	-23.473	0.147	0.087
-249.034	335.523	-0.219	-0.419
-248.019	800.000	0.067	-0.206
-247.005	800.000	-0.157	0.534
-245.990	28.629	-0.147	0.123
-244.976	129.533	-0.336	-0.425
-243.961	-2.466	0.264	0.182
-242.946	287.049	0.070	-0.125
-241.932	165.811	0.049	-0.069
-240.917	133.528	-0.143	0.183
-239.903	-54.017	0.343	-0.154
-238.888	247.134	-0.050	-0.084
-237.873	-104.715	-0.191	0.043
-236.859	-200.000	-0.044	0.272
-235.844	-68.162	0.232	-0.089
-234.830	-45.187	-0.309	-0.152
-233.815	90.930	0.099	-0.109
-232.800	65.090	0.036	0.036
-231.786	-1.304	0.208	-0.145
-230.771	-200.000	0.014	-0.227
-229.757	-106.851	-0.089	-0.019
-228.742	-101.279	-0.213	0.051
-227.727	196.130	-0.046	-0.069
-226.713	104.534	0.156	0.182
-225.698	-141.693	-0.597	-0.059
-224.684	10.884	-0.050	0.038
-223.669	-37.915	0.194	0.102
-222.655	-200.000	-0.016	0.262
-221.640	-62.909	0.057	0.023
-220.625	-76.392	0.240	0.083
-219.611	70.913	0.156	-0.159
-218.596	-200.000	-0.082	-0.403
-217.582	-98.645	0.222	0.056
-216.567	-200.000	0.014	-0.081
-215.552	113.245	-0.143	0.171
-214.538	29.745	-0.146	-0.123
-213.523	-90.366	-0.325	0.093
-212.509	90.136	-0.038	-0.042
-211.494	-44.471	0.241	0.119
-210.479	178.288	0.072	0.103
-209.465	-8.544	0.115	-0.076
-208.450	-122.249	-0.027	0.004
-207.436	-200.000	-0.007	-0.281
-206.421	-200.000	-0.024	-0.321
-205.406	79.034	0.394	-0.416
-204.392	-22.175	-0.375	0.225
-203.377	-136.497	0.071	0.008
-202.363	800.000	0.118	-0.323
-201.348	-200.000	0.032	0.353
-200.333	473.593	0.119	0.266
-199.319	93.683	0.131	0.146
-198.304	800.000	-0.036	-0.123
-197.290	24.989	-0.068	-0.056
-196.275	-191.448	-0.180	0.002
-195.260	-31.705	-0.105	-0.058
-194.246	-200.000	0.006	0.288
-193.231	-155.183	-0.187	0.012
-192.217	261.597	-0.087	0.148
-191.202	-193.915	-0.162	-0.001
-190.187	-200.000	0.021	0.090
-189.173	-200.000	0.037	-0.196
-188.158	-177.331	-0.257	0.006
-187.144	-200.000	-0.030	0.310
-186.129	260.415	0.063	-0.107
-185.114	86.876	0.175	0.191
-184.100	-200.000	0.009	0.194
-183.085	-0.329	0.231	-0.162
-182.071	139.259	0.039	-0.050
-181.056	-127.905	-0.318	0.045
-180.042	-30.462	-0.246	0.137
-179.027	-44.535	0.128	-0.063
-178.012	-143.568	-0.101	-0.009
-176.998	-4.882	0.263	0.179
-175.983	40.299	0.009	0.008
-174.969	800.000	0.022	-0.071
-173.954	-200.000	0.000	0.115
-172.939	466.456	0.115	-0.255
-171.925	317.928	-0.101	0.189
-170.910	-158.018	0.236	-0.014
-169.896	-30.877	0.054	0.030
-168.881	568.806	0.113	0.271
-167.866	-144.801	-0.109	0.010
-166.852	276.488	-0.159	-0.279
-165.837	800.000	0.080	-0.336
-164.823	321.812	0.031	-0.058
-163.808	236.043	-0.163	-0.266
-162.793	-140.533	-0.215	0.022
-161.779	-92.080	-0.384	0.107
-160.764	800.000	0.037	0.139
-159.750	-200.000	-0.036	-0.417
-158.735	-200.000	-0.098	0.501
-157.720	-85.038	0.258	0.080
-156.706	-20.166	-0.183	0.111
-155.691	53.617	0.236	-0.223
-154.677	46.489	-0.097	-0.088
-153.662	86.235	-0.168	0.183
-152.647	-135.645	-0.405	0.047
-151.633	10.290	0.242	0.181
-150.618	-149.299	0.414	-0.033
-149.604	-31.122	-0.307	0.170
-148.589	151.885	-0.071	-0.095
-147.574	185.224	-0.070	0.102
-146.560	181.231	-0.144	0.209
-145.545	-27.003	-0.211	0.121
-144.531	-87.473	0.354	0.105
-143.516	704.662	-0.079	0.206
-142.502	-46.616	-0.304	-0.147
-141.487	36.035	0.182	-0.157
-140.472	-200.000	0.001	-0.370
-139.458	-88.182	0.293	-0.086
-138.443	-13.389	-0.207	-0.132
-137.429	-108.261	-0.224	-0.048
-136.414	-200.000	0.082	-0.000
-135.399	718.598	-0.035	-0.091
-134.385	102.865	-0.110	-0.127
-133.370	-12.339	-0.254	0.163
-132.356	47.568	-0.132	-0.121
-131.341	800.000	-0.054	0.154
-130.326	-200.000	-0.003	-0.090
-129.312	-59.038	0.064	0.027
-128.297	800.000	0.069	-0.212
-127.283	800.000	0.055	-0.199
-126.268	-98.501	0.269	-0.068
-125.253	432.803	-0.156	-0.333
-124.239	-97.468	0.042	0.011
-123.224	-166.494	-0.163	0.007
-122.210	-200.000	0.025	0.225
-121.195	248.843	-0.172	0.286
-120.180	-46.992	-0.241	0.116
-119.166	800.000	-0.048	-0.134
-118.151	-200.000	0.077	-0.344
-117.137	5.380	-0.046	0.033
-116.122	-200.000	0.002	0.111
-115.107	671.943	-0.117	0.299
-114.093	481.154	-0.068	0.151
-113.078	56.034	-0.239	-0.228
-112.064	-124.877	0.387	-0.059
-111.049	-200.000	-0.041	0.222
-110.034	-7.065	-0.251	0.168
-109.020	238.799	0.097	0.158
-108.005	218.326	0.139	-0.219
-106.991	-80.154	0.301	0.099
-105.976	-15.881	-0.076	0.048
-104.962	-164.521	-0.283	0.013
-103.947	59.406	-0.175	-0.169
-102.932	-200.000	0.174	-0.001
-101.918	624.708	0.116	-0.287
-100.903	235.093	0.157	0.254
-99.889	-200.000	-0.016	0.381
-98.874	-6.914	-0.118	-0.079
-97.859	158.631	-0.021	0.029
-96.845	166.444	-0.148	0.206
-95.830	-128.212	-0.044	0.006
-94.816	-200.000	0.093	0.521
-93.801	50.925	-0.162	-0.151
-92.786	-44.304	0.061	0.030
-91.772	-200.000	-0.006	-0.039
-90.757	-136.997	0.386	0.043
-89.743	-200.000	0.033	-0.185
-88.728	-200.000	0.000	-0.133
-87.713	-62.842	-0.176	0.071
-86.699	-85.884	0.322	-0.098
-85.684	320.952	-0.060	0.111
-84.670	800.000	0.059	0.192
-83.655	-52.535	0.197	0.089
-82.640	-66.959	-0.369	0.143
-81.626	-165.425	0.021	-0.001
-80.611	-29.082	-0.392	-0.221
-79.597	-200.000	0.021	-0.135
-78.582	352.543	-0.081	0.158
-77.567	800.000	-0.093	-0.362
-76.553	-81.549	0.301	-0.097
-75.538	-200.000	-0.006	0.027
-74.524	-120.991	0.169	-0.028
-73.509	-156.917	-0.197	-0.012
-72.494	-179.801	0.345	0.007
-71.480	800.000	0.041	-0.129
-70.465	86.065	0.312	0.337
-69.451	4.351	0.049	-0.035
-68.436	800.000	0.081	-0.220
-67.422	-115.577	0.052	0.010
-66.407	-200.000	-0.021	0.147
-65.392	100.968	-0.169	0.193
-64.378	699.301	0.061	-0.156
-63.363	-128.688	0.213	-0.030
-62.349	-23.570	-0.098	0.058
-61.334	233.513	-0.760	-1.227
-60.319	-71.695	0.835	0.306
-59.305	380.474	-0.491	-0.988
-58.290	213.750	0.530	0.823
-57.276	538.063	0.670	1.562
-56.261	-200.000	103.477	576.580
-55.246	539.896	1441.761	3365.084
-54.232	186.287	2634.465	3843.907
-53.217	107.046	2271.019	2645.586
-52.203	39.374	1889.759	1659.409
-51.188	33.573	1679.783	1431.334
-50.173	30.923	1636.219	1374.641
-49.159	49.291	1688.202	1556.423
-48.144	50.060	1704.324	1576.987
-47.130	33.105	1662.718	1413.065
-46.115	30.404	1648.561	1380.927
-45.100	30.295	1643.735	1376.024
-44.086	30.330	1640.783	1373.754
-43.071	30.291	1638.356	1371.380
-42.057	30.204	1635.929	1368.650
-41.042	30.285	1633.636	1367.280
-40.027	30.177	1632.358	1365.356
-39.013	30.200	1630.546	1363.960
-37.998	30.192	1628.557	1362.178
-36.984	30.287	1627.590	1362.012
-35.969	30.395	1625.902	1361.342
-34.954	30.491	1623.908	1360.323
-33.940	30.318	1622.858	1358.117
-32.925	30.394	1620.860	1356.948
-31.911	30.302	1619.612	1355.181
-30.896	30.401	1617.068	1353.721
-29.881	30.243	1616.241	1351.825
-28.867	30.277	1614.126	1350.243
-27.852	30.328	1612.562	1349.257
-26.838	30.306	1611.590	1348.225
-25.823	30.376	1609.981	1347.335
-24.809	30.424	1608.517	1346.407
-23.794	30.440	1607.293	1345.446
-22.779	30.445	1605.535	1343.958
-21.765	30.384	1604.223	1342.362
-20.750	30.388	1602.740	1341.100
-19.736	30.350	1601.450	1339.694
-18.721	30.474	1599.864	1339.207
-17.706	30.526	1598.394	1338.298
-16.692	30.487	1596.476	1336.360
-15.677	30.362	1595.345	1334.456
-14.663	30.475	1594.309	1334.350
-13.648	30.491	1592.516	1332.908
-12.633	30.456	1590.662	1331.058
-11.619	30.432	1589.174	1329.585
-10.604	30.412	1588.007	1328.418
-9.590	30.398	1587.293	1327.664
-8.575	30.361	1586.079	1326.334
-7.560	30.424	1584.662	1325.541
-6.546	30.351	1583.898	1324.334
-5.531	30.412	1582.649	1323.671
-4.517	30.447	1581.178	1322.639
-3.502	30.459	1579.908	1321.607
-2.487	30.418	1578.549	1320.125
-1.473	30.067	1566.846	1307.809
-0.458	27.130	1547.616	1271.198
0.556	25.101	1548.249	1238.463
1.571	22.599	1571.829	1239.643
2.586	22.070	1584.011	1245.388
3.600	19.790	1530.687	1187.721
4.615	12.075	1424.366	1055.632
5.629	5.052	1361.571	965.647
6.644	3.778	1353.971	952.327
7.659	3.573	1352.874	950.205
8.673	3.621	1352.069	949.852
9.688	3.758	1349.744	948.978
10.702	3.550	1347.353	945.939
11.717	6.709	1352.973	969.221
12.731	15.280	1368.057	1032.956
13.746	22.427	1379.650	1085.864
14.761	24.197	1381.990	1098.531
15.775	23.756	1380.622	1094.630
16.790	23.106	1378.648	1088.967
17.804	22.675	1377.101	1084.997
18.819	22.542	1375.777	1083.044
19.834	22.398	1375.475	1081.825
20.848	22.553	1374.601	1081.990
21.863	22.486	1373.711	1080.782
22.877	22.394	1372.452	1079.133
23.892	22.316	1371.961	1078.178
24.907	22.323	1370.397	1076.895
25.921	22.155	1370.240	1075.648
26.936	22.166	1369.327	1074.899
27.950	22.385	1367.821	1074.960
28.965	22.407	1366.984	1074.345
29.980	22.512	1365.827	1073.982
30.994	22.495	1365.839	1073.793
32.009	22.663	1364.346	1073.541
33.023	22.618	1362.825	1071.979
34.038	22.433	1361.991	1070.103
35.053	22.466	1360.536	1069.067
36.067	22.356	1359.602	1067.569
37.082	22.319	1358.731	1066.570
38.096	22.371	1358.063	1066.263
39.111	22.422	1357.251	1065.843
40.126	22.339	1356.125	1064.364
41.140	22.012	1355.403	1061.721
42.155	21.840	1354.430	1059.827
43.169	21.838	1354.029	1059.407
44.184	21.879	1353.590	1059.216
45.199	21.930	1353.958	1059.721
46.213	22.062	1353.763	1060.271
47.228	22.312	1352.514	1060.707
48.242	22.335	1351.788	1060.179
49.257	22.282	1349.994	1058.359
50.271	22.399	1348.066	1057.461
51.286	22.331	1347.475	1056.495
52.301	22.259	1346.107	1054.895
53.315	22.086	1345.523	1053.311
54.330	22.106	1343.849	1052.024
55.344	21.992	1342.966	1050.560
56.359	22.022	1342.095	1049.961
57.374	21.933	1340.776	1048.307
58.388	21.865	1340.379	1047.498
59.403	21.719	1339.733	1046.031
60.417	21.704	1338.560	1044.927
61.432	21.601	1337.762	1043.601
62.447	21.538	1337.507	1042.933
63.461	21.601	1335.875	1041.942
64.476	21.441	1335.411	1040.540
65.490	21.488	1333.816	1039.483
66.505	21.551	1332.066	1038.401
67.520	21.699	1330.597	1038.041
68.534	21.543	1330.490	1036.942
69.549	21.400	1329.418	1035.165
70.563	21.427	1328.123	1034.230
71.578	21.353	1327.084	1032.892
72.593	21.144	1326.439	1031.059
73.607	21.229	1325.397	1030.662
74.622	21.337	1324.497	1030.506
75.636	21.492	1323.976	1030.925
76.651	21.464	1323.567	1030.351
77.666	21.418	1323.311	1029.786
78.680	21.534	1322.402	1029.672
79.695	21.493	1322.276	1029.241
80.709	21.774	1321.476	1030.181
81.724	21.861	1321.127	1030.328
82.739	21.843	1320.236	1029.438
83.753	22.228	1319.569	1031.085
84.768	22.504	1318.510	1031.782
85.782	22.571	1317.468	1031.264
86.797	22.783	1316.232	1031.446
87.812	22.371	1315.527	1028.398
88.826	22.349	1314.469	1027.348
89.841	22.492	1313.064	1026.998
90.855	22.522	1312.388	1026.552
91.870	22.506	1312.203	1026.220
92.884	22.632	1311.185	1026.067
93.899	22.679	1310.288	1025.547
94.914	22.705	1309.474	1024.974
95.928	22.605	1308.899	1023.850
96.943	22.666	1307.558	1023.062
97.957	22.665	1306.780	1022.361
98.972	22.610	1305.712	1021.115
99.987	22.552	1305.098	1020.206
101.001	22.494	1304.166	1019.056
102.016	22.503	1303.057	1018.148
103.030	22.583	1302.382	1017.994
104.045	22.521	1301.312	1016.710
105.060	22.312	1299.372	1013.899
106.074	22.001	1298.421	1011.278
107.089	21.790	1296.548	1008.512
108.103	21.582	1295.691	1006.563
109.118	21.539	1293.553	1004.567
110.133	21.576	1292.548	1003.909
111.147	21.515	1291.870	1002.946
112.162	21.746	1290.906	1003.433
113.176	21.823	1289.374	1002.589
114.191	21.766	1288.638	1001.606
115.206	21.763	1288.017	1001.017
116.220	21.834	1286.650	1000.267
117.235	21.657	1285.501	998.279
118.249	21.580	1284.303	996.822
119.264	21.435	1282.820	994.757
120.279	21.393	1282.362	994.075
121.293	21.287	1281.411	992.646
122.308	21.254	1279.899	991.204
123.322	21.201	1278.828	989.985
124.337	21.183	1277.856	989.045
125.352	21.236	1276.903	988.516
126.366	21.149	1275.663	986.980
127.381	21.097	1274.660	985.819
128.395	21.134	1273.470	985.022
129.410	21.109	1272.602	984.122
130.424	21.101	1272.374	983.817
131.439	21.302	1271.811	984.426
132.454	21.586	1271.082	985.371
133.468	21.632	1270.515	985.104
134.483	21.666	1270.141	984.918
135.497	21.729	1269.352	984.570
136.512	21.891	1267.298	983.803
137.527	21.622	1266.721	981.756
138.541	21.818	1265.250	981.630
139.556	21.919	1264.078	981.195
140.570	22.043	1263.523	981.376
141.585	22.065	1263.087	981.071
142.600	22.234	1261.968	981.055
143.614	22.446	1261.435	981.737
144.629	22.611	1260.240	981.640
145.643	22.291	1259.557	979.243
146.658	22.225	1257.751	977.382
147.673	22.001	1256.599	975.157
148.687	21.985	1254.902	973.665
149.702	21.775	1253.551	971.367
150.716	21.546	1252.652	969.319
151.731	21.626	1251.113	968.481
152.746	21.646	1250.119	967.737
153.760	21.813	1249.493	968.092
154.775	22.025	1248.513	968.413
155.789	22.110	1247.624	968.106
156.804	22.087	1246.541	967.055
157.819	21.969	1246.309	966.137
158.833	22.271	1244.932	966.647
159.848	22.389	1244.430	966.819
160.862	22.229	1243.800	965.364
161.877	21.950	1241.553	962.006
162.892	21.659	1240.703	959.668
163.906	21.488	1239.682	957.860
164.921	21.463	1238.843	956.991
165.935	21.667	1238.246	957.557
166.950	21.932	1237.250	958.152
167.964	21.830	1236.722	957.102
168.979	21.806	1236.335	956.585
169.994	21.673	1235.634	955.234
171.008	21.771	1234.581	954.866
172.023	21.893	1234.331	955.254
173.037	22.001	1234.382	955.800
174.052	22.149	1232.619	955.150
175.067	21.840	1231.394	952.441
176.081	21.532	1230.115	949.698
177.096	21.518	1229.231	948.853
178.110	21.606	1227.874	948.199
179.125	21.770	1227.081	948.390
180.140	21.950	1226.194	948.592
181.154	22.169	1225.402	949.079
182.169	22.236	1224.204	948.431
183.183	22.143	1223.642	947.409
184.198	22.287	1222.692	947.368
185.213	22.212	1221.439	945.907
186.227	22.302	1220.372	945.479
187.242	22.349	1219.575	945.029
188.256	22.491	1219.012	945.275
189.271	22.666	1217.794	945.182
190.286	22.403	1216.455	942.652
191.300	21.827	1215.956	939.099
192.315	21.746	1215.068	937.896
193.329	21.723	1214.549	937.290
194.344	21.693	1213.516	936.251
195.359	21.744	1212.967	936.014
196.373	21.636	1212.561	935.046
197.388	21.763	1212.404	935.519
198.402	22.155	1212.413	937.532
199.417	22.434	1212.373	938.908
200.432	22.678	1211.412	939.379
201.446	22.699	1211.243	939.275
202.461	22.703	1210.346	938.521
203.475	22.639	1209.285	937.275
204.490	22.306	1207.768	934.246
205.504	22.108	1206.529	932.158
206.519	22.129	1204.659	930.741
207.534	21.838	1204.408	928.923
208.548	21.898	1203.036	928.098
209.563	22.003	1202.348	928.042
210.577	21.890	1201.552	926.750
211.592	22.123	1200.455	927.047
212.607	22.440	1200.612	928.763
213.621	22.367	1199.476	927.417
214.636	22.295	1198.677	926.336
215.650	22.377	1197.724	925.950
216.665	22.509	1196.973	925.981
217.680	22.825	1196.392	927.110
218.694	22.838	1195.609	926.487
219.709	22.642	1194.607	924.602
220.723	22.626	1193.597	923.653
221.738	22.572	1193.417	923.153
222.753	22.398	1192.320	921.308
223.767	22.394	1191.563	920.625
224.782	22.643	1191.515	921.804
225.796	22.810	1191.372	922.488
226.811	22.691	1190.307	920.958
227.826	22.671	1189.114	919.851
228.840	22.432	1188.463	918.018
229.855	22.265	1187.840	916.589
230.869	22.224	1187.043	915.677
231.884	22.198	1185.826	914.522
232.899	21.997	1184.468	912.351
233.913	21.980	1183.951	911.784
234.928	21.929	1183.257	910.900
235.942	21.871	1182.178	909.690
236.957	21.875	1181.665	909.238
237.972	21.790	1180.712	907.983
238.986	21.788	1180.621	907.820
240.001	21.962	1179.570	907.834
241.015	21.884	1178.937	906.862
242.030	21.999	1178.231	906.830
243.045	22.221	1177.799	907.564
244.059	22.269	1177.483	907.490
245.074	22.245	1176.854	906.799
246.088	22.452	1176.064	907.181
247.103	22.664	1175.412	907.688
248.117	22.735	1174.856	907.540
249.132	22.858	1174.725	907.996
250.147	23.374	1174.324	910.256
251.161	23.500	1173.889	910.486
252.176	23.389	1172.962	909.112
253.190	23.661	1171.948	909.643
254.205	23.572	1172.337	909.407
255.220	23.719	1171.409	909.362
256.234	23.685	1170.804	908.634
257.249	23.557	1170.126	907.372
258.263	23.447	1169.650	906.364
259.278	23.513	1168.668	905.858
260.293	23.575	1168.095	905.650
261.307	23.607	1167.746	905.466
262.322	23.672	1167.284	905.357
263.336	23.712	1166.422	904.811
264.351	23.684	1165.872	904.164
265.366	23.699	1165.472	903.847
266.380	23.654	1164.761	902.989
267.395	23.571	1163.825	901.763
268.409	23.327	1162.755	899.614
269.424	23.170	1162.590	898.607
270.439	23.278	1161.542	898.269
271.453	23.186	1160.706	897.073
272.468	22.908	1159.683	894.794
273.482	22.924	1159.140	894.381
274.497	23.011	1158.139	893.968
275.512	22.954	1157.891	893.407
276.526	22.949	1156.813	892.474
277.541	23.068	1155.988	892.357
278.555	23.108	1155.971	892.467
279.570	23.390	1155.458	893.417
280.585	23.635	1154.532	893.855
281.599	23.639	1153.529	893.019
282.614	23.297	1152.502	890.426
283.628	23.135	1151.200	888.528
284.643	23.055	1150.008	887.129
285.657	23.101	1149.566	886.940
286.672	23.097	1148.835	886.273
287.687	23.179	1147.666	885.705
288.701	23.188	1147.117	885.250
289.716	23.184	1145.931	884.234
290.730	23.109	1145.808	883.686
291.745	23.119	1145.538	883.450
292.760	23.269	1144.955	883.670
293.774	23.369	1144.091	883.427
294.789	23.510	1144.170	884.110
295.803	23.513	1143.041	883.175
296.818	23.291	1142.055	881.230
297.833	23.328	1141.178	880.658
298.847	23.207	1140.308	879.307
299.862	23.163	1139.510	878.399
300.876	23.304	1138.833	878.496
301.891	23.401	1138.363	878.537
302.906	23.517	1138.071	878.812
303.920	23.749	1138.096	879.901
304.935	23.828	1137.481	879.739
305.949	24.041	1136.266	879.773
306.964	23.977	1135.807	879.025
307.979	23.746	1135.320	877.432
308.993	23.611	1134.139	875.773
310.008	23.701	1133.389	875.558
311.022	23.853	1132.685	875.687
312.037	23.846	1131.882	874.955
313.052	23.520	1130.974	872.573
314.066	23.324	1129.540	870.425
315.081	23.081	1128.681	868.494
316.095	22.967	1127.605	867.029
317.110	22.878	1127.377	866.340
318.125	23.055	1126.328	866.323
319.139	23.028	1125.946	865.822
320.154	22.999	1125.227	865.050
321.168	23.038	1124.409	864.536
322.183	23.152	1123.632	864.421
323.197	23.088	1123.642	864.037
324.212	23.126	1123.053	863.695
325.227	23.230	1122.711	863.863
326.241	23.306	1121.473	863.201
327.256	23.226	1120.878	862.281
328.270	23.080	1120.016	860.830
329.285	23.200	1119.217	860.725
330.300	23.130	1118.363	859.649
331.314	23.220	1117.125	859.058
332.329	23.093	1116.727	858.059
333.343	23.065	1116.097	857.365
334.358	23.409	1115.082	858.173
335.373	23.549	1114.532	858.351
336.387	23.623	1114.160	858.351
337.402	23.711	1113.444	858.144
338.416	23.772	1112.839	857.901
339.431	23.814	1112.335	857.639
340.446	23.993	1112.083	858.232
341.460	24.151	1111.263	858.283
342.475	24.382	1110.826	858.981
343.489	24.194	1110.374	857.653
344.504	24.325	1109.247	857.335
345.519	24.383	1108.454	856.923
346.533	24.564	1107.759	857.178
347.548	24.517	1107.097	856.367
348.562	24.292	1105.971	854.341
349.577	23.968	1104.655	851.700
350.592	23.711	1103.600	849.583
351.606	23.571	1102.641	848.098
352.621	23.543	1101.679	847.150
353.635	23.389	1101.399	846.123
354.650	23.321	1100.840	845.296
355.665	23.425	1100.473	845.436
356.679	23.720	1099.439	845.973
357.694	23.746	1099.093	845.756
358.708	23.884	1098.559	845.926
359.723	23.879	1097.894	845.312
360.738	23.964	1096.801	844.803
361.752	23.821	1096.865	844.097
362.767	23.930	1096.256	844.073
363.781	23.870	1095.355	843.016
364.796	24.178	1094.985	844.119
365.810	24.346	1094.963	844.821
366.825	24.553	1094.214	845.149
367.840	24.684	1094.097	845.601
368.854	24.859	1093.441	845.848
369.869	24.774	1092.809	844.883
370.883	24.523	1092.126	843.095
371.898	24.372	1090.840	841.318
372.913	24.215	1090.454	840.205
373.927	24.317	1090.112	840.346
374.942	24.620	1089.289	841.063
375.956	24.462	1088.945	839.981
376.971	24.449	1087.951	839.079
377.986	24.363	1087.993	838.632
379.000	24.778	1086.971	839.717
380.015	24.896	1086.750	840.028
381.029	24.991	1086.230	839.997
382.044	24.831	1085.593	838.681
383.059	24.678	1084.805	837.281
384.073	24.719	1084.303	837.012
385.088	24.790	1083.018	836.280
386.102	24.843	1082.077	835.724
387.117	24.421	1081.087	832.915
388.132	24.211	1079.700	830.796
389.146	24.192	1078.925	830.037
390.161	24.162	1078.163	829.238
391.175	24.120	1077.998	828.842
392.190	24.304	1077.413	829.177
393.205	24.554	1077.064	829.994
394.219	24.473	1076.212	828.889
395.234	24.361	1075.029	827.386
396.248	24.258	1073.788	825.878
397.263	24.162	1072.774	824.584
398.278	24.030	1072.445	823.643
399.292	23.996	1071.706	822.850
400.307	24.071	1070.664	822.320
401.321	24.054	1070.226	821.834
402.336	23.757	1069.463	819.802
403.350	23.732	1068.779	819.094
404.365	24.044	1067.799	819.703
405.380	24.211	1066.882	819.698
406.394	24.187	1066.513	819.233
407.409	24.379	1066.375	819.937
408.423	24.784	1065.743	821.237
409.438	24.854	1065.241	821.096
410.453	24.887	1064.706	820.766
411.467	24.953	1063.756	820.260
412.482	24.898	1063.536	819.767
413.496	25.221	1062.707	820.536
414.511	25.022	1062.645	819.501
415.526	25.244	1062.237	820.130
416.540	25.310	1061.860	820.066
417.555	25.214	1061.335	819.151
418.569	25.077	1060.275	817.634
419.584	25.031	1059.625	816.855
420.599	24.979	1059.033	816.089
421.613	155.862	1403.829	1797.354
422.628	143.259	1454.059	1797.459
