DTS Sentinel unit serial number:	SN413079Multiplexer serial number:	ORYXHardware model number:	OX4-SRSoftware version number:	ORYX F/W v4.00 Oryx Data Collector v3.7.2.0data status	okinstallation	princeton_trtdifferential loss correction	single-endedforward channel	channel 2reverse channel	N/Adate	2019/09/15time	15:23:35forward acquisition time	60.00reverse acquisition time	0.00gamma	496.2192k internal	0.2295k external	0.2295temperature offset calibration	0.9962default loss term (dB/km)	0.3790temperature slope calibration	1.0000multiplexer offset coefficient	1.0000multiplexer slope coefficient	1.0000fibre end	0.00T internal ref (°C)	40.95T ext. ref 1 (°C)	5.05T ext. ref 2 (°C)	38.40length (m)	temperature (°C)	Stokes	anti-Stokes-747.200	-200.000	-0.064	0.292
-746.185	-33.094	-0.344	0.195
-745.171	800.000	0.057	-0.190
-744.156	-93.155	-0.276	0.079
-743.142	168.961	-0.211	0.308
-742.127	-200.000	-0.012	0.262
-741.112	-89.244	-0.179	0.054
-740.098	505.804	0.046	0.109
-739.083	59.973	-0.253	0.255
-738.069	411.790	-0.128	0.277
-737.054	661.995	0.051	-0.134
-736.039	-131.467	-0.275	-0.037
-735.025	-132.619	0.451	0.059
-734.010	-54.649	-0.094	-0.043
-732.996	110.618	0.102	-0.126
-731.981	-173.102	-0.354	-0.011
-730.966	129.265	0.216	-0.282
-729.952	-91.070	-0.228	-0.067
-728.937	197.079	-0.218	-0.339
-727.923	-97.337	-0.157	0.042
-726.908	-155.631	-0.148	0.010
-725.894	800.000	0.020	-0.064
-724.879	297.711	-0.087	0.164
-723.864	-69.060	-0.132	-0.052
-722.850	-89.302	-0.233	0.070
-721.835	412.267	0.131	0.285
-720.821	137.290	0.171	0.228
-719.806	780.392	0.048	0.134
-718.791	-85.285	0.178	0.057
-717.777	323.512	-0.077	-0.150
-716.762	-200.000	0.018	0.204
-715.748	-200.000	0.056	0.267
-714.733	-200.000	0.000	-0.037
-713.718	59.319	-0.236	-0.237
-712.704	103.534	-0.198	0.237
-711.689	127.335	-0.098	0.127
-710.675	112.342	-0.317	-0.391
-709.660	-93.497	-0.147	-0.042
-708.645	-200.000	0.025	0.250
-707.631	-116.609	0.276	0.052
-706.616	-24.089	-0.224	0.137
-705.602	174.419	-0.135	-0.199
-704.587	-200.000	-0.018	0.091
-703.572	7.689	-0.484	-0.370
-702.558	191.285	0.153	-0.235
-701.543	-190.066	0.443	0.005
-700.529	-131.919	0.109	0.015
-699.514	-176.952	-0.265	-0.007
-698.499	35.959	0.141	-0.127
-697.485	-200.000	0.024	-0.162
-696.470	198.296	0.019	-0.030
-695.456	202.721	-0.173	-0.273
-694.441	74.088	-0.167	-0.179
-693.426	86.338	0.047	0.053
-692.412	579.153	0.008	0.021
-691.397	279.543	-0.097	0.177
-690.383	153.706	-0.152	0.212
-689.368	-200.000	-0.016	0.099
-688.354	80.899	-0.097	-0.107
-687.339	-106.518	-0.232	0.053
-686.324	133.640	-0.220	-0.291
-685.310	800.000	0.060	-0.255
-684.295	-92.101	0.084	0.024
-683.281	327.952	-0.100	0.196
-682.266	-200.000	0.020	-0.417
-681.251	-200.000	-0.011	0.056
-680.237	-176.047	-0.235	-0.006
-679.222	-95.839	-0.187	0.051
-678.208	-121.936	-0.123	0.021
-677.193	-60.159	0.155	-0.067
-676.178	-200.000	0.015	-0.118
-675.164	325.081	-0.035	-0.068
-674.149	-198.632	0.199	-0.001
-673.135	-28.463	-0.277	-0.163
-672.120	-200.000	0.004	0.081
-671.105	-107.436	0.117	-0.026
-670.091	-27.512	-0.183	-0.109
-669.076	-200.000	0.052	0.234
-668.062	-94.369	-0.250	0.069
-667.047	31.515	-0.104	-0.091
-666.032	36.624	-0.069	-0.062
-665.018	130.149	0.221	-0.288
-664.003	90.271	0.248	-0.283
-662.989	-200.000	-0.029	-0.283
-661.974	-72.763	0.113	0.042
-660.959	17.545	-0.180	-0.146
-659.945	-35.513	-0.030	0.017
-658.930	384.980	0.033	0.069
-657.916	502.901	0.046	0.108
-656.901	-200.000	0.034	-0.181
-655.886	790.724	0.130	-0.363
-654.872	-200.000	-0.057	0.429
-653.857	-113.174	0.286	-0.057
-652.843	800.000	0.104	-0.296
-651.828	-200.000	0.001	-0.009
-650.814	39.129	-0.070	0.064
-649.799	-42.472	0.261	0.136
-648.784	-79.242	-0.204	0.070
-647.770	85.336	-0.127	-0.142
-646.755	291.620	-0.122	0.226
-645.741	-164.220	-0.134	0.006
-644.726	-7.389	-0.131	-0.091
-643.711	-161.154	-0.102	-0.005
-642.697	-50.844	0.093	0.045
-641.682	-200.000	-0.055	-0.281
-640.668	10.823	0.232	-0.181
-639.653	50.841	-0.251	-0.242
-638.638	-138.703	-0.330	-0.037
-637.624	331.492	-0.203	0.399
-636.609	61.165	-0.258	-0.261
-635.595	-138.888	0.054	0.006
-634.580	800.000	-0.068	0.201
-633.565	119.954	0.232	-0.293
-632.551	-200.000	-0.007	-0.098
-631.536	87.941	-0.417	-0.471
-630.522	-98.373	0.394	-0.103
-629.507	44.032	0.039	0.036
-628.492	154.625	0.226	-0.316
-627.478	-132.362	-0.337	-0.044
-626.463	11.056	-0.177	-0.138
-625.449	482.255	0.143	0.331
-624.434	-157.739	0.260	-0.016
-623.419	-200.000	0.022	0.193
-622.405	342.987	0.054	0.107
-621.390	-36.448	0.283	-0.155
-620.376	-149.976	-0.224	-0.018
-619.361	-200.000	0.020	0.271
-618.346	317.014	-0.256	0.492
-617.332	-200.000	-0.011	0.147
-616.317	-200.000	0.010	-0.114
-615.303	-65.565	-0.060	0.025
-614.288	-22.598	-0.290	-0.178
-613.273	-200.000	-0.019	-0.254
-612.259	-6.749	0.047	-0.033
-611.244	261.148	-0.151	0.265
-610.230	-136.155	0.279	-0.033
-609.215	-83.005	-0.159	0.052
-608.201	-200.000	-0.009	0.050
-607.186	800.000	0.065	0.264
-606.171	-131.599	-0.304	-0.041
-605.157	-200.000	0.005	0.031
-604.142	3.962	0.080	0.059
-603.128	-41.545	0.113	0.059
-602.113	-5.607	0.209	-0.145
-601.098	70.654	-0.162	0.170
-600.084	30.303	-0.240	0.209
-599.069	800.000	0.026	-0.094
-598.055	-200.000	-0.161	0.000
-597.040	-200.000	-0.009	-0.114
-596.025	18.507	0.138	0.112
-595.011	43.195	-0.213	0.197
-593.996	455.302	0.107	0.242
-592.982	93.000	-0.304	0.349
-591.967	-48.334	-0.138	-0.068
-590.952	-200.000	0.016	0.171
-589.938	-93.458	-0.341	-0.096
-588.923	138.955	-0.150	0.200
-587.909	435.299	-0.095	-0.209
-586.894	-200.000	0.003	0.236
-585.879	-91.478	0.175	0.051
-584.865	-1.125	-0.105	0.075
-583.850	-51.332	-0.209	0.099
-582.836	-200.000	0.002	-0.094
-581.821	800.000	0.061	0.190
-580.806	-92.371	0.089	-0.025
-579.792	-88.233	0.230	-0.070
-578.777	-44.014	-0.241	-0.123
-577.763	-80.397	0.053	0.018
-576.748	19.054	0.186	0.151
-575.733	269.221	0.087	0.155
-574.719	266.187	0.069	-0.123
-573.704	214.815	-0.140	-0.226
-572.690	-86.706	0.258	-0.080
-571.675	89.946	-0.053	-0.060
-570.661	-200.000	0.001	0.329
-569.646	-150.306	0.275	0.022
-568.631	-64.286	-0.150	-0.062
-567.617	263.438	-0.245	0.431
-566.602	-200.000	0.060	-0.384
-565.588	800.000	-0.021	-0.081
-564.573	-200.000	-0.027	-0.452
-563.558	99.783	-0.100	-0.117
-562.544	-200.000	0.004	0.314
-561.529	-118.762	0.232	0.042
-560.515	187.590	0.161	0.244
-559.500	-91.175	0.040	-0.012
-558.485	302.276	0.096	0.180
-557.471	462.217	-0.109	0.248
-556.456	-200.000	-0.022	-0.125
-555.442	-200.000	-0.006	0.144
-554.427	61.688	-0.129	-0.131
-553.412	458.866	0.090	0.202
-552.398	-102.047	0.434	0.106
-551.383	-200.000	-0.039	-0.221
-550.369	131.059	0.073	0.095
-549.354	75.722	-0.120	0.128
-548.339	-143.013	0.096	0.009
-547.325	47.897	-0.074	-0.070
-546.310	-146.443	-0.212	0.019
-545.296	-122.467	0.237	0.039
-544.281	-146.390	-0.138	-0.012
-543.266	-38.620	0.256	0.137
-542.252	464.506	-0.077	-0.176
-541.237	421.477	-0.014	0.031
-540.223	-65.845	-0.034	-0.014
-539.208	100.809	0.135	0.160
-538.193	-200.000	-0.044	-0.202
-537.179	-104.876	-0.229	-0.053
-536.164	-145.723	0.183	-0.017
-535.150	-71.527	-0.546	0.207
-534.135	-33.008	-0.110	0.062
-533.121	800.000	-0.043	-0.179
-532.106	555.478	-0.012	-0.029
-531.091	-157.358	-0.218	-0.013
-530.077	-58.300	0.102	0.045
-529.062	-200.000	0.059	-0.277
-528.048	-130.809	-0.062	-0.008
-527.033	800.000	-0.041	-0.115
-526.018	-71.645	0.172	-0.065
-525.004	27.061	0.289	0.246
-523.989	489.982	0.052	-0.121
-522.975	-161.134	0.146	-0.008
-521.960	494.360	0.085	-0.197
-520.945	5.947	0.145	-0.109
-519.931	109.822	-0.099	-0.120
-518.916	-8.402	-0.213	-0.145
-517.902	227.396	-0.079	-0.130
-516.887	-39.131	-0.186	-0.099
-515.872	-121.716	-0.338	-0.057
-514.858	800.000	-0.024	-0.105
-513.843	-35.175	-0.209	-0.115
-512.829	-160.115	0.269	-0.015
-511.814	759.200	0.132	-0.362
-510.799	31.998	-0.059	0.052
-509.785	-200.000	0.020	0.208
-508.770	306.707	-0.064	-0.120
-507.756	800.000	0.147	-0.437
-506.741	-25.945	0.154	-0.092
-505.726	235.434	0.189	-0.317
-504.712	55.022	-0.129	-0.127
-503.697	-200.000	-0.022	0.320
-502.683	391.484	0.077	-0.161
-501.668	390.366	0.100	-0.211
-500.653	-58.842	0.198	-0.087
-499.639	-200.000	0.035	0.278
-498.624	-198.527	0.079	0.000
-497.610	155.485	-0.017	0.024
-496.595	155.111	-0.146	0.203
-495.581	-109.836	-0.082	0.017
-494.566	-200.000	0.008	-0.258
-493.551	-21.803	-0.242	-0.149
-492.537	-37.550	-0.065	-0.035
-491.522	-52.642	-0.357	-0.167
-490.508	152.438	0.292	0.403
-489.493	-200.000	-0.032	-0.192
-488.478	-200.000	0.016	0.307
-487.464	-130.141	0.148	0.020
-486.449	34.270	-0.226	-0.200
-485.435	800.000	-0.037	0.153
-484.420	-200.000	-0.073	0.371
-483.405	800.000	0.074	0.292
-482.391	93.458	-0.168	0.192
-481.376	-200.000	0.072	-0.355
-480.362	80.507	0.099	-0.108
-479.347	-47.098	0.178	-0.088
-478.332	310.348	0.018	-0.034
-477.318	-153.015	-0.124	-0.009
-476.303	242.207	-0.060	0.102
-475.289	-124.778	0.113	0.018
-474.274	30.952	0.209	-0.181
-473.259	64.903	-0.023	0.024
-472.245	8.900	0.223	0.170
-471.230	715.807	0.028	-0.076
-470.216	-93.244	-0.117	-0.033
-469.201	800.000	0.114	-0.386
-468.186	70.244	-0.240	0.251
-467.172	284.061	-0.039	-0.072
-466.157	-46.677	0.202	0.100
-465.143	-139.821	-0.153	-0.016
-464.128	-200.000	-0.024	-0.162
-463.113	-156.427	0.418	-0.026
-462.099	6.574	0.206	0.155
-461.084	105.579	-0.107	0.128
-460.070	-101.622	0.193	0.047
-459.055	25.281	-0.079	0.067
-458.040	263.425	0.060	0.105
-457.026	-62.481	-0.279	-0.117
-456.011	-148.443	0.038	-0.003
-454.997	-200.000	-0.011	0.103
-453.982	-17.729	0.176	-0.112
-452.968	-153.682	0.327	0.023
-451.953	31.024	0.037	-0.032
-450.938	41.819	-0.126	-0.116
-449.924	-150.551	-0.094	-0.007
-448.909	-200.000	0.032	0.320
-447.895	-108.301	-0.169	-0.037
-446.880	41.656	-0.219	-0.201
-445.865	-200.000	0.005	0.185
-444.851	-200.000	0.020	-0.309
-443.836	395.174	0.109	-0.229
-442.822	66.892	0.216	-0.222
-441.807	330.026	0.164	0.319
-440.792	800.000	-0.034	0.119
-439.778	-200.000	0.042	0.269
-438.763	-8.726	-0.063	0.043
-437.749	301.256	-0.101	-0.189
-436.734	86.539	0.113	0.125
-435.719	109.971	-0.133	-0.161
-434.705	-16.325	-0.119	-0.076
-433.690	-68.576	-0.104	0.041
-432.676	-39.957	-0.192	0.101
-431.661	167.279	0.213	0.305
-430.646	-105.938	0.073	-0.017
-429.632	-23.121	0.065	0.039
-428.617	51.841	-0.204	0.196
-427.603	362.154	0.059	0.119
-426.588	32.044	0.055	-0.048
-425.573	-91.424	-0.125	0.036
-424.559	-165.493	-0.194	-0.009
-423.544	223.594	0.152	0.248
-422.530	289.543	-0.141	0.258
-421.515	-200.000	0.374	0.001
-420.500	-96.403	-0.185	0.049
-419.486	-55.476	0.196	0.089
-418.471	-42.222	-0.376	0.194
-417.457	-200.000	-0.025	0.311
-416.442	379.467	0.045	0.093
-415.428	-200.000	-0.031	-0.303
-414.413	800.000	0.019	-0.062
-413.398	104.269	0.095	-0.113
-412.384	-115.112	0.101	-0.019
-411.369	800.000	-0.002	0.008
-410.355	-78.295	0.236	-0.082
-409.340	-89.494	-0.287	0.085
-408.325	241.137	0.098	0.166
-407.311	166.651	-0.088	0.126
-406.296	-118.070	0.077	-0.014
-405.282	-53.494	0.131	0.061
-404.267	-62.278	0.158	-0.067
-403.252	486.877	0.054	-0.124
-402.238	-200.000	-0.019	-0.361
-401.223	-86.320	0.041	-0.013
-400.209	374.258	0.072	-0.147
-399.194	51.401	-0.053	0.050
-398.179	-200.000	0.056	0.484
-397.165	-94.739	0.049	0.013
-396.150	-142.977	-0.120	0.012
-395.136	-76.222	-0.091	-0.032
-394.121	-200.000	0.021	-0.396
-393.106	-200.000	-0.006	-0.430
-392.092	-143.703	-0.121	-0.012
-391.077	800.000	-0.105	-0.341
-390.063	150.287	0.084	-0.114
-389.048	-200.000	0.028	-0.128
-388.033	-111.144	0.199	-0.041
-387.019	800.000	-0.028	0.106
-386.004	-200.000	-0.048	0.278
-384.990	-177.033	-0.153	0.004
-383.975	60.190	0.204	0.204
-382.960	-200.000	-0.008	0.185
-381.946	-200.000	0.003	-0.088
-380.931	-200.000	-0.023	0.413
-379.917	-166.867	-0.185	-0.008
-378.902	659.557	-0.026	-0.067
-377.888	-41.627	0.353	-0.183
-376.873	-17.370	0.029	0.018
-375.858	96.898	-0.106	-0.122
-374.844	52.801	0.084	0.081
-373.829	-36.131	-0.139	0.076
-372.815	40.852	0.210	0.191
-371.800	-107.230	0.259	-0.058
-370.785	-169.365	0.136	0.005
-369.771	-97.075	-0.131	-0.035
-368.756	407.213	0.017	0.037
-367.742	-181.418	0.509	-0.010
-366.727	84.268	-0.185	-0.204
-365.712	44.203	0.040	0.037
-364.698	20.906	-0.215	-0.175
-363.683	-42.860	0.170	-0.087
-362.669	417.078	0.169	0.364
-361.654	-95.721	-0.155	0.042
-360.639	132.136	0.136	0.177
-359.625	214.597	-0.170	-0.272
-358.610	359.197	0.024	-0.047
-357.596	40.439	-0.328	0.297
-356.581	-138.707	0.305	0.034
-355.566	-68.860	0.078	0.030
-354.552	49.239	0.204	0.193
-353.537	401.189	-0.091	-0.193
-352.523	-104.196	-0.311	-0.073
-351.508	-200.000	-0.009	0.196
-350.493	-89.343	0.373	0.111
-349.479	-163.450	-0.246	0.012
-348.464	800.000	-0.100	-0.324
-347.450	-156.543	0.213	-0.013
-346.435	38.251	0.147	-0.132
-345.420	520.109	-0.136	-0.320
-344.406	800.000	-0.061	-0.209
-343.391	573.858	0.064	-0.157
-342.377	-65.326	-0.107	-0.043
-341.362	2.840	-0.253	0.185
-340.348	-70.746	-0.075	-0.029
-339.333	-160.527	-0.453	0.024
-338.318	178.705	-0.067	-0.099
-337.304	-123.827	0.232	0.037
-336.289	-80.453	-0.327	0.110
-335.275	40.932	0.371	-0.337
-334.260	-200.000	-0.012	-0.352
-333.245	36.450	0.118	0.105
-332.231	-200.000	0.003	-0.101
-331.216	-158.589	0.030	-0.002
-330.202	-200.000	-0.027	-0.306
-329.187	227.363	-0.055	-0.089
-328.172	42.020	-0.061	-0.056
-327.158	800.000	0.009	-0.024
-326.143	-156.224	-0.331	-0.021
-325.129	326.302	0.184	0.355
-324.114	-200.000	0.035	-0.197
-323.099	61.228	0.339	0.339
-322.085	-200.000	0.029	0.235
-321.070	-200.000	-0.030	0.146
-320.056	124.841	0.081	-0.102
-319.041	-89.780	-0.087	0.026
-318.026	-200.000	-0.051	0.235
-317.012	176.772	-0.024	0.035
-315.997	-200.000	-0.055	0.000
-314.983	-9.875	-0.230	0.154
-313.968	-73.979	0.232	-0.085
-312.953	-79.386	-0.109	0.037
-311.939	498.117	0.056	-0.130
-310.924	-189.337	0.260	-0.003
-309.910	-200.000	-0.018	0.088
-308.895	800.000	-0.041	0.135
-307.880	-2.501	0.258	-0.182
-306.866	800.000	0.045	-0.194
-305.851	-200.000	-0.034	-0.406
-304.837	-200.000	-0.080	0.378
-303.822	390.102	-0.164	-0.341
-302.807	195.962	-0.103	-0.157
-301.793	-160.982	0.464	0.024
-300.778	-62.585	-0.270	-0.112
-299.764	64.175	0.095	-0.096
-298.749	-146.524	0.098	-0.009
-297.735	44.173	0.222	0.205
-296.720	800.000	0.026	0.086
-295.705	-66.140	-0.166	0.066
-294.691	374.902	0.102	-0.208
-293.676	-42.163	-0.120	-0.062
-292.662	-200.000	0.007	0.101
-291.647	-116.654	0.259	0.048
-290.632	119.189	0.108	-0.134
-289.618	35.653	0.157	0.139
-288.603	-111.349	0.229	-0.047
-287.589	568.842	-0.131	-0.319
-286.574	800.000	0.039	0.170
-285.559	-76.419	-0.080	0.028
-284.545	-200.000	-0.099	-0.520
-283.530	318.973	-0.122	0.232
-282.516	712.303	0.131	0.347
-281.501	-57.070	0.253	0.112
-280.486	-200.000	0.013	-0.112
-279.472	-133.324	-0.130	0.016
-278.457	-66.174	0.341	-0.137
-277.443	-41.363	0.105	-0.054
-276.428	-60.103	-0.357	-0.153
-275.413	368.401	0.113	-0.229
-274.399	737.921	-0.054	-0.144
-273.384	-132.601	-0.198	0.026
-272.370	800.000	0.088	0.359
-271.355	-200.000	0.008	-0.051
-270.340	81.307	-0.108	0.117
-269.326	31.133	0.180	-0.155
-268.311	395.080	0.123	0.258
-267.297	-200.000	-0.014	0.092
-266.282	-8.551	-0.193	-0.130
-265.267	251.451	-0.146	0.250
-264.253	215.339	0.159	-0.253
-263.238	-72.863	0.062	-0.023
-262.224	-200.000	-0.041	0.202
-261.209	800.000	-0.164	-0.490
-260.195	-200.000	-0.059	-0.405
-259.180	147.885	0.016	0.022
-258.165	800.000	-0.068	-0.233
-257.151	800.000	-0.011	0.046
-256.136	-200.000	-0.020	0.096
-255.122	483.849	-0.199	0.454
-254.107	183.519	0.081	0.120
-253.092	-45.690	-0.160	0.079
-252.078	95.258	-0.144	-0.165
-251.063	146.663	-0.257	0.346
-250.049	-28.268	-0.312	0.181
-249.034	-66.110	0.170	-0.068
-248.019	-33.698	-0.082	-0.045
-247.005	-200.000	-0.044	-0.234
-245.990	135.529	0.078	-0.102
-244.976	-100.468	0.398	-0.099
-243.961	189.318	-0.137	0.205
-242.946	-94.277	-0.228	-0.062
-241.932	-200.000	-0.002	-0.212
-240.917	-110.804	0.235	0.049
-239.903	-200.000	0.040	-0.179
-238.888	-131.631	-0.136	-0.018
-237.873	-87.566	0.097	-0.029
-236.859	-172.360	-0.265	0.008
-235.844	800.000	-0.158	0.528
-234.830	636.856	-0.129	0.328
-233.815	-46.493	0.217	0.107
-232.800	219.708	0.203	-0.325
-231.786	-105.794	-0.118	-0.027
-230.771	136.039	0.295	0.386
-229.757	-200.000	-0.028	-0.354
-228.742	49.479	-0.122	-0.115
-227.727	800.000	-0.040	0.125
-226.713	549.813	-0.106	-0.254
-225.698	-8.469	0.288	0.194
-224.684	-134.660	0.142	-0.017
-223.669	-72.722	0.490	0.181
-222.655	-200.000	0.009	-0.081
-221.640	-200.000	-0.044	0.274
-220.625	-12.374	-0.239	-0.156
-219.611	800.000	0.010	0.042
-218.596	800.000	0.096	0.317
-217.582	-56.033	0.132	0.059
-216.567	93.749	0.160	-0.181
-215.552	42.575	0.144	-0.131
-214.538	-6.377	-0.247	-0.169
-213.523	162.002	-0.188	0.264
-212.509	-119.867	0.174	0.030
-211.494	-200.000	0.031	0.161
-210.479	-200.000	0.004	-0.401
-209.465	-104.376	0.204	0.047
-208.450	-137.724	0.213	0.024
-207.436	553.227	-0.059	0.143
-206.421	165.731	0.086	0.122
-205.406	-183.636	0.378	-0.006
-204.392	-41.451	-0.148	0.076
-203.377	-153.443	-0.090	0.006
-202.363	-49.370	0.236	0.113
-201.348	-200.000	-0.038	0.252
-200.333	747.605	0.022	0.060
-199.319	269.709	0.078	-0.138
-198.304	-35.100	0.190	-0.104
-197.290	-142.335	0.046	-0.005
-196.275	138.774	-0.068	-0.089
-195.260	800.000	0.079	0.239
-194.246	-66.132	-0.213	-0.085
-193.231	-200.000	-0.020	-0.222
-192.217	-200.000	-0.025	-0.313
-191.202	102.811	0.069	0.081
-190.187	800.000	0.038	-0.130
-189.173	-200.000	-0.025	-0.160
-188.158	39.695	0.128	0.115
-187.144	-113.501	0.321	-0.063
-186.129	58.794	0.197	0.193
-185.114	-200.000	0.033	-0.168
-184.100	741.283	0.065	-0.175
-183.085	-187.557	-0.131	-0.002
-182.071	-162.905	0.043	0.002
-181.056	-200.000	0.039	-0.295
-180.042	-101.126	-0.354	0.087
-179.027	800.000	0.027	-0.105
-178.012	336.202	-0.097	0.188
-176.998	800.000	-0.056	0.197
-175.983	785.586	-0.078	-0.214
-174.969	-164.859	-0.426	-0.019
-173.954	800.000	-0.064	-0.191
-172.939	392.301	0.046	0.096
-171.925	-121.200	-0.210	0.035
-170.910	-30.665	-0.166	-0.094
-169.896	448.904	-0.157	-0.347
-168.881	-156.946	0.486	-0.030
-167.866	-200.000	0.022	0.305
-166.852	-73.898	-0.279	0.101
-165.837	-117.153	-0.546	0.099
-164.823	-34.576	-0.159	0.087
-163.808	170.436	-0.062	-0.089
-162.793	55.374	0.226	0.218
-161.779	800.000	-0.020	0.070
-160.764	213.154	-0.256	0.403
-159.750	-200.000	-0.063	0.372
-158.735	491.885	0.094	-0.215
-157.720	-200.000	-0.005	0.350
-156.706	-150.680	0.215	0.016
-155.691	69.246	0.217	-0.222
-154.677	-200.000	-0.003	0.099
-153.662	21.999	-0.301	0.245
-152.647	-200.000	0.034	-0.334
-151.633	-5.482	0.258	-0.177
-150.618	-72.992	-0.377	0.138
-149.604	363.837	0.117	0.234
-148.589	-200.000	-0.001	-0.145
-147.574	-112.311	-0.148	0.030
-146.560	-40.763	0.028	-0.014
-145.545	-118.900	0.265	-0.046
-144.531	443.187	-0.144	0.314
-143.516	-41.060	0.505	-0.261
-142.502	-42.010	0.170	0.087
-141.487	-200.000	0.017	-0.195
-140.472	19.341	0.186	0.149
-139.458	141.251	-0.024	0.031
-138.443	351.536	0.054	0.108
-137.429	-78.194	-0.335	0.115
-136.414	-200.000	0.002	-0.169
-135.399	378.686	0.067	0.136
-134.385	-200.000	0.006	0.096
-133.370	-40.643	-0.203	-0.105
-132.356	281.038	-0.156	0.278
-131.341	90.221	0.115	-0.128
-130.326	-90.354	0.104	-0.030
-129.312	120.053	0.321	0.398
-128.297	-43.285	0.393	0.199
-127.283	800.000	-0.081	-0.228
-126.268	-7.851	-0.238	0.161
-125.253	-5.377	0.430	0.295
-124.239	-200.000	-0.079	0.619
-123.224	83.800	-0.102	0.111
-122.210	800.000	0.038	0.159
-121.195	800.000	0.008	0.032
-120.180	-200.000	-0.030	-0.470
-119.166	130.417	-0.013	-0.016
-118.151	54.548	0.129	0.124
-117.137	49.264	0.143	0.134
-116.122	-107.058	-0.336	-0.074
-115.107	-200.000	-0.012	-0.193
-114.093	17.516	0.204	0.162
-113.078	-200.000	-0.040	0.234
-112.064	-134.395	-0.396	0.048
-111.049	-89.247	0.269	-0.079
-110.034	-54.214	-0.349	0.158
-109.020	-56.187	-0.077	-0.034
-108.005	800.000	0.055	0.153
-106.991	555.253	0.038	0.090
-105.976	-200.000	-0.004	-0.257
-104.962	94.060	-0.111	0.126
-103.947	-129.330	-0.205	0.028
-102.932	800.000	0.055	-0.213
-101.918	800.000	-0.002	-0.008
-100.903	-200.000	0.027	-0.350
-99.889	47.673	0.130	-0.121
-98.874	43.319	0.117	0.107
-97.859	177.303	0.104	0.151
-96.845	-8.083	-0.381	0.256
-95.830	-200.000	0.267	0.001
-94.816	-200.000	0.028	-0.312
-93.801	191.622	0.030	-0.045
-92.786	363.456	0.126	-0.252
-91.772	-200.000	0.044	-0.281
-90.757	280.072	0.113	-0.201
-89.743	-44.178	-0.281	-0.140
-88.728	-90.902	-0.194	-0.056
-87.713	-200.000	-0.000	-0.037
-86.699	-40.895	-0.096	-0.050
-85.684	800.000	0.157	-0.489
-84.670	-18.802	0.185	-0.115
-83.655	475.840	-0.127	0.286
-82.640	800.000	0.028	-0.077
-81.626	102.017	0.196	-0.228
-80.611	-200.000	-0.027	0.161
-79.597	-112.383	-0.098	0.019
-78.582	-34.091	-0.063	0.034
-77.567	-40.830	-0.223	-0.115
-76.553	-98.163	0.265	-0.068
-75.538	-200.000	0.025	-0.136
-74.524	31.318	0.401	-0.343
-73.509	-200.000	-0.035	0.342
-72.494	800.000	-0.050	0.182
-71.480	15.061	0.209	-0.163
-70.465	-166.654	0.259	0.011
-69.451	-140.171	0.155	0.016
-68.436	-78.822	0.269	-0.091
-67.422	-200.000	0.012	-0.075
-66.407	-200.000	-0.022	0.192
-65.392	-124.433	-0.170	-0.026
-64.378	-200.000	-0.017	0.303
-63.363	79.622	0.066	0.070
-62.349	160.231	0.117	0.162
-61.334	221.174	-0.438	-0.699
-60.319	151.071	0.292	0.396
-59.305	-200.000	-0.094	-0.587
-58.290	210.552	0.429	0.670
-57.276	448.409	0.764	1.675
-56.261	-200.000	75.772	512.763
-55.246	517.276	1332.749	3101.240
-54.232	143.152	2578.921	3413.395
-53.217	110.962	2360.561	2827.249
-52.203	50.165	1973.293	1853.628
-51.188	44.143	1762.087	1607.648
-50.173	41.414	1716.034	1544.468
-49.159	55.789	1751.075	1688.417
-48.144	61.156	1769.211	1747.656
-47.130	44.230	1732.989	1581.524
-46.115	40.949	1719.501	1543.738
-45.100	40.894	1714.304	1538.579
-44.086	40.756	1712.245	1535.610
-43.071	40.714	1709.692	1532.931
-42.057	40.815	1706.603	1530.879
-41.042	40.894	1704.203	1529.277
-40.027	40.821	1702.960	1527.534
-39.013	40.835	1700.706	1525.562
-37.998	40.818	1699.483	1524.275
-36.984	40.851	1698.084	1523.210
-35.969	40.964	1696.685	1522.757
-34.954	41.088	1694.409	1521.608
-33.940	40.950	1692.360	1518.651
-32.925	41.000	1690.854	1517.624
-31.911	40.959	1689.336	1515.884
-30.896	40.944	1687.446	1514.017
-29.881	40.967	1685.335	1512.237
-28.867	40.908	1684.005	1510.536
-27.852	40.929	1682.504	1509.286
-26.838	40.989	1680.876	1508.221
-25.823	41.049	1679.636	1507.508
-24.809	40.970	1678.366	1505.706
-23.794	40.978	1676.480	1504.018
-22.779	41.094	1674.826	1503.346
-21.765	40.945	1673.842	1501.278
-20.750	40.937	1671.860	1499.386
-19.736	40.960	1670.256	1498.060
-18.721	41.023	1668.962	1497.310
-17.706	41.001	1667.555	1495.829
-16.692	41.005	1665.456	1493.917
-15.677	40.883	1664.422	1492.015
-14.663	40.872	1663.301	1490.867
-13.648	40.982	1661.342	1489.877
-12.633	40.994	1660.350	1489.012
-11.619	40.975	1658.151	1486.838
-10.604	40.967	1656.802	1485.512
-9.590	40.974	1655.538	1484.375
-8.575	40.985	1654.077	1483.083
-7.560	40.887	1652.873	1481.217
-6.546	40.964	1651.493	1480.492
-5.531	41.011	1650.850	1480.210
-4.517	41.014	1649.084	1478.590
-3.502	40.988	1648.114	1477.470
-2.487	40.997	1647.027	1476.499
-1.473	41.089	1635.907	1467.151
-0.458	39.161	1616.739	1435.838
0.556	33.134	1615.047	1397.556
1.571	29.875	1638.025	1392.835
2.586	28.612	1651.940	1394.947
3.600	25.342	1597.876	1325.087
4.615	15.713	1481.024	1161.875
5.629	6.989	1409.339	1047.947
6.644	5.186	1399.898	1028.965
7.659	5.159	1397.743	1027.113
8.673	4.979	1396.848	1025.182
9.688	4.875	1394.936	1023.002
10.702	4.795	1392.404	1020.527
11.717	8.625	1400.337	1051.464
12.731	16.728	1416.101	1116.853
13.746	19.869	1419.610	1140.253
14.761	17.945	1414.732	1123.584
15.775	16.631	1411.391	1112.206
16.790	15.466	1408.333	1102.052
17.804	14.679	1406.171	1095.100
18.819	14.170	1404.572	1090.422
19.834	13.973	1403.154	1087.936
20.848	13.617	1402.132	1084.722
21.863	13.449	1400.930	1082.594
22.877	13.345	1399.552	1080.756
23.892	13.300	1398.317	1079.408
24.907	13.374	1397.159	1078.903
25.921	13.332	1396.450	1077.989
26.936	13.354	1395.863	1077.581
27.950	13.322	1395.117	1076.705
28.965	13.393	1393.736	1076.007
29.980	13.501	1392.429	1075.604
30.994	13.626	1390.668	1074.954
32.009	13.613	1389.873	1074.162
33.023	13.486	1388.769	1072.395
34.038	13.475	1387.415	1071.177
35.053	13.466	1386.007	1069.941
36.067	13.497	1384.974	1069.249
37.082	13.535	1383.685	1068.405
38.096	13.526	1383.201	1067.876
39.111	13.428	1382.307	1066.461
40.126	13.470	1380.910	1065.559
41.140	13.268	1380.294	1063.693
42.155	13.256	1379.855	1063.179
43.169	13.265	1379.515	1062.880
44.184	13.154	1379.880	1062.359
45.199	13.144	1379.020	1061.536
46.213	13.307	1378.302	1061.935
47.228	13.315	1377.467	1061.251
48.242	13.358	1376.132	1060.404
49.257	13.331	1374.982	1059.251
50.271	13.385	1373.303	1058.207
51.286	13.445	1371.971	1057.473
52.301	13.351	1370.608	1055.726
53.315	13.322	1369.598	1054.672
54.330	13.345	1368.715	1054.042
55.344	13.349	1367.040	1052.690
56.359	13.284	1366.055	1051.423
57.374	13.246	1365.153	1050.395
58.388	13.219	1364.100	1049.317
59.403	13.162	1364.259	1048.983
60.417	13.190	1363.172	1048.235
61.432	13.136	1362.281	1047.112
62.447	13.136	1361.204	1046.196
63.461	13.159	1360.321	1045.569
64.476	13.112	1359.181	1044.301
65.490	13.139	1357.620	1043.180
66.505	13.041	1356.300	1041.456
67.520	13.214	1355.122	1041.551
68.534	13.141	1354.420	1040.456
69.549	13.153	1353.145	1039.465
70.563	13.108	1352.214	1038.373
71.578	13.109	1350.465	1036.943
72.593	13.032	1349.665	1035.753
73.607	12.941	1349.388	1034.878
74.622	13.015	1348.455	1034.539
75.636	12.988	1348.021	1033.940
76.651	13.077	1347.026	1033.646
77.666	12.949	1346.494	1032.345
78.680	12.972	1346.002	1032.021
79.695	13.039	1345.355	1031.852
80.709	13.178	1344.486	1031.964
81.724	13.198	1343.894	1031.544
82.739	13.194	1342.948	1030.698
83.753	13.290	1341.951	1030.439
84.768	13.405	1340.860	1030.225
85.782	13.474	1339.184	1029.275
86.797	13.492	1337.993	1028.381
87.812	13.286	1337.337	1026.507
88.826	13.343	1336.040	1025.779
89.841	13.389	1334.821	1025.033
90.855	13.322	1334.387	1024.193
91.870	13.418	1333.342	1023.895
92.884	13.504	1332.074	1023.365
93.899	13.511	1331.518	1022.889
94.914	13.508	1330.623	1022.091
95.928	13.547	1329.382	1021.291
96.943	13.537	1328.477	1020.445
97.957	13.504	1327.717	1019.564
98.972	13.409	1326.920	1018.281
99.987	13.446	1325.772	1017.532
101.001	13.527	1324.845	1017.228
102.016	13.418	1323.850	1015.710
103.030	13.539	1322.805	1015.560
104.045	13.429	1322.283	1014.391
105.060	13.366	1320.749	1012.744
106.074	13.282	1319.189	1010.944
107.089	13.103	1318.219	1009.018
108.103	13.069	1316.857	1007.679
109.118	13.170	1315.317	1007.025
110.133	13.134	1313.707	1005.481
111.147	13.152	1312.566	1004.633
112.162	13.147	1311.554	1003.739
113.176	13.298	1310.181	1003.512
114.191	13.299	1309.288	1002.749
115.206	13.279	1307.912	1001.481
116.220	13.122	1307.292	999.971
117.235	13.199	1306.000	999.358
118.249	13.193	1304.757	998.286
119.264	13.274	1303.521	997.740
120.279	13.239	1302.565	996.705
121.293	13.281	1301.259	995.873
122.308	13.159	1300.484	994.455
123.322	13.131	1299.419	993.387
124.337	13.091	1298.474	992.338
125.352	13.191	1297.255	991.916
126.366	13.142	1296.249	990.766
127.381	13.164	1295.434	990.188
128.395	13.108	1293.816	988.525
129.410	13.219	1293.334	988.733
130.424	13.235	1292.157	987.846
131.439	13.300	1291.197	987.410
132.454	13.446	1290.148	987.393
133.468	13.350	1289.641	986.343
134.483	13.347	1288.906	985.677
135.497	13.304	1288.007	984.647
136.512	13.349	1286.719	983.840
137.527	13.369	1285.196	982.713
138.541	13.439	1283.263	981.561
139.556	13.400	1282.533	980.684
140.570	13.515	1281.010	980.115
141.585	13.504	1279.822	979.050
142.600	13.448	1278.799	977.850
143.614	13.529	1278.014	977.644
144.629	13.665	1276.576	977.257
145.643	13.611	1275.623	976.122
146.658	13.489	1274.637	974.565
147.673	13.393	1273.075	972.723
148.687	13.387	1271.765	971.600
149.702	13.375	1270.572	970.531
150.716	13.289	1269.149	968.853
151.731	13.296	1268.217	968.101
152.746	13.405	1266.600	967.413
153.760	13.458	1265.488	966.789
154.775	13.510	1264.697	966.406
155.789	13.555	1263.490	965.660
156.804	13.460	1262.633	964.363
157.819	13.574	1261.528	964.097
158.833	13.552	1260.441	963.056
159.848	13.682	1259.488	962.997
160.862	13.678	1258.157	961.870
161.877	13.573	1257.235	960.471
162.892	13.526	1255.895	959.090
163.906	13.415	1255.466	958.038
164.921	13.465	1254.246	957.306
165.935	13.534	1253.415	956.990
166.950	13.476	1253.455	956.600
167.964	13.580	1251.785	955.839
168.979	13.527	1251.255	955.046
169.994	13.569	1250.170	954.373
171.008	13.571	1249.476	953.775
172.023	13.603	1248.852	953.395
173.037	13.643	1248.075	952.949
174.052	13.615	1247.117	951.973
175.067	13.739	1245.700	951.514
176.081	13.576	1244.935	949.912
177.096	13.564	1244.231	949.223
178.110	13.654	1242.866	948.617
179.125	13.574	1241.957	947.379
180.140	13.662	1240.414	946.623
181.154	13.626	1239.307	945.486
182.169	13.735	1237.975	945.006
183.183	13.747	1237.159	944.367
184.198	13.740	1236.079	943.424
185.213	13.714	1234.968	942.344
186.227	13.798	1233.970	941.973
187.242	13.867	1232.764	941.362
188.256	13.908	1231.754	940.736
189.271	13.928	1230.760	940.012
190.286	13.831	1229.576	938.473
191.300	13.678	1228.524	936.722
192.315	13.570	1228.094	935.703
193.329	13.555	1227.437	935.034
194.344	13.537	1226.880	934.427
195.359	13.740	1226.110	934.902
196.373	13.877	1225.535	935.153
197.388	13.860	1225.249	934.754
198.402	13.873	1224.778	934.388
199.417	13.957	1224.193	934.328
200.432	14.141	1223.020	934.384
201.446	14.157	1222.244	933.799
202.461	14.162	1221.248	932.987
203.475	14.129	1220.209	931.925
204.490	14.040	1219.012	930.432
205.504	13.996	1217.926	929.274
206.519	13.979	1216.683	928.145
207.534	13.997	1215.205	927.035
208.548	14.004	1214.778	926.670
209.563	13.970	1213.612	925.508
210.577	14.032	1212.940	925.261
211.592	14.233	1211.369	925.095
212.607	14.072	1211.610	924.302
213.621	14.075	1210.706	923.547
214.636	14.148	1209.332	922.821
215.650	14.104	1208.189	921.627
216.665	14.175	1207.618	921.502
217.680	14.297	1206.436	921.195
218.694	14.313	1205.585	920.552
219.709	14.226	1205.338	919.798
220.723	14.291	1204.207	919.215
221.738	14.313	1203.516	918.726
222.753	14.220	1202.972	917.714
223.767	14.319	1201.854	917.328
224.782	14.339	1201.744	917.273
225.796	14.473	1200.825	917.227
226.811	14.418	1200.089	916.281
227.826	14.284	1199.856	915.287
228.840	14.345	1198.503	914.509
229.855	14.355	1197.829	913.967
230.869	14.294	1197.046	912.954
231.884	14.333	1196.022	912.308
232.899	14.343	1195.023	911.519
233.913	14.247	1194.417	910.450
234.928	14.329	1193.890	910.414
235.942	14.285	1193.176	909.553
236.957	14.295	1191.951	908.589
237.972	14.237	1191.589	907.919
238.986	14.299	1190.895	907.646
240.001	14.261	1190.230	906.854
241.015	14.326	1189.268	906.392
242.030	14.443	1188.461	906.334
243.045	14.444	1187.496	905.524
244.059	14.420	1186.493	904.550
245.074	14.485	1186.279	904.659
246.088	14.517	1185.085	903.841
247.103	14.568	1184.445	903.551
248.117	14.571	1184.005	903.151
249.132	14.783	1182.582	903.129
250.147	14.786	1182.008	902.630
251.161	14.841	1181.502	902.461
252.176	14.826	1180.691	901.680
253.190	14.796	1180.552	901.335
254.205	14.930	1179.617	901.263
255.220	14.961	1179.144	900.984
256.234	15.057	1178.393	900.852
257.249	14.942	1177.564	899.518
258.263	15.100	1176.860	899.748
259.278	14.857	1176.654	898.205
260.293	14.918	1175.813	897.814
261.307	15.000	1175.221	897.720
262.322	15.012	1174.781	897.368
263.336	15.114	1173.737	897.039
264.351	14.989	1173.513	896.118
265.366	15.083	1172.775	895.981
266.380	15.134	1171.918	895.520
267.395	15.060	1170.967	894.320
268.409	15.078	1169.860	893.488
269.424	15.065	1169.414	892.999
270.439	14.956	1169.368	892.304
271.453	15.002	1168.324	891.675
272.468	14.946	1167.343	890.550
273.482	15.008	1166.468	890.133
274.497	15.081	1165.637	889.804
275.512	15.007	1165.277	889.060
276.526	15.100	1164.484	888.871
277.541	15.009	1163.842	887.818
278.555	15.126	1163.120	887.807
279.570	15.187	1162.572	887.636
280.585	15.100	1161.664	886.404
281.599	15.260	1160.702	886.438
282.614	15.213	1159.313	885.049
283.628	15.253	1158.139	884.288
284.643	15.120	1157.555	883.058
285.657	15.215	1156.420	882.616
286.672	15.290	1155.439	882.185
287.687	15.342	1154.554	881.707
288.701	15.250	1153.966	880.693
289.716	15.290	1153.169	880.216
290.730	15.296	1152.780	879.872
291.745	15.336	1151.745	879.218
292.760	15.342	1151.447	878.945
293.774	15.366	1150.892	878.568
294.789	15.424	1150.440	878.446
295.803	15.565	1149.264	878.207
296.818	15.397	1148.384	876.581
297.833	15.479	1147.418	876.196
298.847	15.493	1146.734	875.665
299.862	15.474	1145.798	874.778
300.876	15.495	1145.619	874.670
301.891	15.483	1144.879	873.966
302.906	15.417	1144.176	873.011
303.920	15.582	1143.665	873.402
304.935	15.589	1142.978	872.835
305.949	15.660	1142.002	872.378
306.964	15.700	1141.350	872.011
307.979	15.500	1140.787	870.468
308.993	15.421	1140.239	869.562
310.008	15.669	1139.490	870.201
311.022	15.691	1138.586	869.544
312.037	15.788	1137.329	869.013
313.052	15.721	1136.358	867.845
314.066	15.681	1135.268	866.730
315.081	15.590	1134.501	865.600
316.095	15.539	1133.694	864.643
317.110	15.574	1133.132	864.319
318.125	15.526	1132.567	863.567
319.139	15.604	1131.849	863.344
320.154	15.585	1131.312	862.758
321.168	15.537	1130.689	861.963
322.183	15.733	1129.820	862.228
323.197	15.692	1128.831	861.188
324.212	15.667	1128.473	860.711
325.227	15.713	1128.333	860.761
326.241	15.789	1127.323	860.304
327.256	15.627	1126.777	858.982
328.270	15.713	1125.602	858.451
329.285	15.766	1124.329	857.671
330.300	15.752	1123.590	856.963
331.314	15.728	1122.658	856.056
332.329	15.707	1122.097	855.442
333.343	15.739	1121.262	854.894
334.358	15.795	1120.062	854.186
335.373	15.894	1119.335	854.060
336.387	15.773	1118.994	853.111
337.402	15.897	1118.188	853.046
338.416	15.922	1117.387	852.487
339.431	15.998	1116.513	852.130
340.446	15.967	1116.146	851.619
341.460	15.909	1115.258	850.570
342.475	16.092	1114.089	850.530
343.489	16.201	1113.057	850.215
344.504	16.065	1112.765	849.231
345.519	16.196	1111.392	848.768
346.533	16.223	1110.790	848.367
347.548	16.261	1110.278	848.095
348.562	16.156	1109.602	846.976
349.577	16.064	1108.740	845.783
350.592	16.141	1107.810	845.382
351.606	16.023	1107.048	844.135
352.621	16.082	1106.210	843.716
353.635	16.189	1105.649	843.750
354.650	16.101	1104.822	842.605
355.665	16.105	1104.141	842.027
356.679	16.095	1103.750	841.607
357.694	16.104	1103.353	841.275
358.708	16.222	1102.139	840.863
359.723	16.251	1101.515	840.457
360.738	16.228	1101.218	840.039
361.752	16.314	1100.010	839.475
362.767	16.183	1099.929	838.687
363.781	16.317	1099.051	838.608
364.796	16.244	1098.650	837.864
365.810	16.454	1098.170	838.467
366.825	16.474	1097.519	837.993
367.840	16.533	1097.127	837.914
368.854	16.651	1096.537	837.974
369.869	16.550	1095.539	836.637
370.883	16.529	1094.654	835.781
371.898	16.506	1094.049	835.131
372.913	16.510	1093.349	834.545
373.927	16.558	1092.850	834.325
374.942	16.665	1092.238	834.311
375.956	16.609	1091.485	833.387
376.971	16.672	1090.937	833.207
377.986	16.643	1090.545	832.692
379.000	16.786	1090.417	833.221
380.015	16.719	1089.702	832.272
381.029	16.777	1088.996	831.944
382.044	16.791	1088.007	831.184
383.059	16.772	1087.359	830.523
384.073	16.680	1086.544	829.374
385.088	16.743	1085.324	828.679
386.102	16.723	1084.702	828.032
387.117	16.838	1083.040	827.252
388.132	16.773	1082.693	826.597
389.146	16.791	1081.335	825.574
390.161	16.828	1081.026	825.445
391.175	16.755	1080.315	824.477
392.190	16.786	1079.884	824.226
393.205	16.864	1078.679	823.613
394.219	16.739	1078.378	822.699
395.234	16.742	1077.207	821.751
396.248	16.780	1076.306	821.173
397.263	16.798	1075.039	820.220
398.278	16.852	1074.314	819.857
399.292	16.808	1073.616	819.039
400.307	16.677	1073.180	818.002
401.321	16.731	1072.663	817.795
402.336	16.767	1071.838	817.267
403.350	16.804	1071.179	816.872
404.365	16.732	1070.739	816.115
405.380	16.827	1069.558	815.603
406.394	16.845	1069.007	815.194
407.409	16.939	1068.245	814.993
408.423	17.067	1067.433	814.916
409.438	17.095	1066.501	814.269
410.453	17.031	1066.193	813.656
411.467	17.082	1065.396	813.219
412.482	17.259	1064.517	813.325
413.496	17.276	1063.380	812.462
414.511	17.205	1063.184	811.900
415.526	17.256	1062.956	811.899
416.540	17.314	1062.673	811.887
417.555	17.305	1061.990	811.254
418.569	17.177	1061.864	810.475
419.584	17.238	1060.781	809.864
420.599	17.337	1060.639	810.158
421.613	84.821	1295.436	1365.327
422.628	78.259	1329.636	1365.442
