DTS Sentinel unit serial number:	SN413079Multiplexer serial number:	ORYXHardware model number:	OX4-SRSoftware version number:	ORYX F/W v4.00 Oryx Data Collector v3.7.2.0data status	okinstallation	princeton_trtdifferential loss correction	single-endedforward channel	channel 2reverse channel	N/Adate	2019/09/12time	01:57:11forward acquisition time	60.00reverse acquisition time	0.00gamma	496.2192k internal	0.2326k external	0.2326temperature offset calibration	1.0089default loss term (dB/km)	0.3790temperature slope calibration	1.0000multiplexer offset coefficient	1.0000multiplexer slope coefficient	1.0000fibre end	0.00T internal ref (°C)	32.75T ext. ref 1 (°C)	2.06T ext. ref 2 (°C)	27.45length (m)	temperature (°C)	Stokes	anti-Stokes-747.200	-159.624	0.234	0.013
-746.185	137.138	-0.232	0.306
-745.171	800.000	-0.178	0.507
-744.156	62.144	-0.227	0.228
-743.142	-82.632	0.204	0.067
-742.127	-48.862	-0.207	0.100
-741.112	301.471	0.170	0.317
-740.098	704.834	-0.089	0.238
-739.083	-2.151	0.375	-0.266
-738.069	221.588	0.300	0.487
-737.054	100.371	0.063	0.074
-736.039	-200.000	0.008	0.094
-735.025	-85.780	0.028	-0.009
-734.010	-200.000	0.026	-0.236
-732.996	-141.605	0.149	-0.015
-731.981	245.068	-0.138	-0.234
-730.966	-89.443	-0.178	0.053
-729.952	-127.775	0.080	0.012
-728.937	-200.000	-0.034	-0.315
-727.923	280.904	-0.010	-0.019
-726.908	46.938	-0.183	0.171
-725.894	-14.094	-0.430	0.280
-724.879	-30.043	0.097	0.056
-723.864	-200.000	-0.012	0.239
-722.850	-200.000	-0.003	0.116
-721.835	396.610	0.020	0.041
-720.821	14.301	0.111	0.087
-719.806	86.023	0.160	-0.177
-718.791	220.436	0.128	0.207
-717.777	-126.628	-0.435	0.065
-716.762	288.298	-0.141	0.257
-715.748	145.021	0.150	0.203
-714.733	-118.146	0.196	0.035
-713.718	-138.359	-0.439	-0.049
-712.704	29.735	-0.161	-0.138
-711.689	609.938	0.117	-0.295
-710.675	214.679	0.080	-0.128
-709.660	-135.487	-0.063	-0.008
-708.645	-200.000	-0.041	0.215
-707.631	128.070	-0.129	0.166
-706.616	-200.000	0.001	0.099
-705.602	-129.084	-0.269	0.038
-704.587	-17.932	0.200	0.126
-703.572	66.765	-0.182	-0.186
-702.558	260.449	0.053	0.093
-701.543	-200.000	0.000	-0.080
-700.529	-113.040	0.142	-0.028
-699.514	-103.768	0.306	-0.072
-698.499	411.946	-0.057	-0.121
-697.485	26.436	-0.354	-0.298
-696.470	425.828	-0.137	0.297
-695.456	121.781	0.106	-0.134
-694.441	50.531	-0.058	-0.055
-693.426	-200.000	0.001	-0.057
-692.412	800.000	-0.042	0.130
-691.397	132.796	0.257	-0.334
-690.383	-131.078	-0.357	-0.048
-689.368	-200.000	-0.004	-0.339
-688.354	-25.119	-0.104	-0.062
-687.339	244.032	-0.130	-0.219
-686.324	26.553	0.224	0.189
-685.310	-188.102	-0.139	-0.002
-684.295	-18.973	0.383	0.240
-683.281	-43.494	0.078	-0.040
-682.266	2.671	-0.169	-0.123
-681.251	24.795	0.046	0.038
-680.237	-200.000	-0.000	0.023
-679.222	-185.713	-0.256	-0.004
-678.208	-200.000	0.034	0.412
-677.193	71.704	0.203	-0.213
-676.178	-86.623	-0.104	-0.032
-675.164	-24.188	-0.227	-0.136
-674.149	-3.964	0.130	-0.091
-673.135	582.117	0.040	-0.099
-672.120	-200.000	-0.012	-0.115
-671.105	-200.000	-0.044	0.451
-670.091	96.420	-0.150	-0.172
-669.076	448.787	0.136	0.301
-668.062	-115.626	-0.213	-0.040
-667.047	800.000	0.083	-0.242
-666.032	800.000	-0.039	-0.128
-665.018	753.444	-0.117	-0.317
-664.003	-132.633	-0.525	0.068
-662.989	-64.640	0.316	0.129
-661.974	800.000	0.042	-0.131
-660.959	46.118	0.150	-0.139
-659.945	-75.740	-0.143	0.051
-658.930	78.901	0.227	0.244
-657.916	800.000	-0.065	0.283
-656.901	39.947	0.097	-0.088
-655.886	-200.000	-0.034	-0.382
-654.872	-200.000	0.015	-0.423
-653.857	-11.026	0.331	-0.220
-652.843	-51.896	0.278	-0.130
-651.828	-33.579	0.467	-0.259
-650.814	150.092	-0.179	-0.245
-649.799	800.000	0.069	0.227
-648.784	-200.000	-0.061	0.413
-647.770	-156.656	0.083	-0.005
-646.755	800.000	-0.109	-0.312
-645.741	-200.000	-0.085	-0.398
-644.726	-94.301	-0.209	0.058
-643.711	222.202	0.127	-0.205
-642.697	356.894	-0.106	0.212
-641.682	40.941	0.294	0.266
-640.668	800.000	0.063	-0.224
-639.653	800.000	0.088	-0.345
-638.638	23.903	0.243	-0.201
-637.624	-200.000	-0.003	-0.073
-636.609	-133.636	-0.094	0.012
-635.595	178.249	-0.180	0.264
-634.580	-200.000	-0.006	0.059
-633.565	-23.811	0.238	-0.143
-632.551	135.960	0.271	0.354
-631.536	80.540	-0.083	0.089
-630.522	-200.000	-0.005	-0.029
-629.507	237.149	-0.043	0.071
-628.492	-200.000	0.048	0.231
-627.478	-84.189	0.281	0.090
-626.463	-200.000	0.002	0.047
-625.449	70.053	-0.219	0.227
-624.434	-1.143	-0.325	-0.231
-623.419	122.300	-0.162	-0.203
-622.405	57.402	0.238	-0.233
-621.390	-115.290	0.180	-0.034
-620.376	-200.000	-0.026	0.126
-619.361	-128.308	-0.063	-0.009
-618.346	-44.130	-0.143	0.072
-617.332	491.272	0.043	-0.098
-616.317	-117.281	0.579	0.106
-615.303	45.008	0.099	-0.092
-614.288	800.000	0.085	-0.330
-613.273	-43.622	-0.033	0.017
-612.259	-200.000	0.074	-0.483
-611.244	-13.168	0.230	-0.150
-610.230	35.270	0.398	-0.350
-609.215	-47.057	0.146	0.071
-608.201	-200.000	-0.025	0.130
-607.186	-44.557	0.132	0.066
-606.171	39.635	0.076	0.069
-605.157	-200.000	0.039	0.189
-604.142	113.549	0.276	-0.336
-603.128	800.000	-0.083	-0.270
-602.113	474.190	0.120	-0.272
-601.098	-107.594	-0.255	-0.056
-600.084	63.413	0.110	-0.110
-599.069	118.032	-0.259	0.320
-598.055	41.239	0.142	0.129
-597.040	141.645	-0.242	-0.322
-596.025	-81.212	-0.624	0.207
-595.011	800.000	-0.063	0.186
-593.996	-23.097	-0.382	0.231
-592.982	800.000	0.032	-0.130
-591.967	305.654	0.172	-0.320
-590.952	28.313	0.179	-0.152
-589.938	28.511	-0.283	-0.240
-588.923	66.866	0.182	0.186
-587.909	-200.000	-0.001	-0.012
-586.894	467.276	0.111	-0.249
-585.879	674.571	-0.118	-0.306
-584.865	800.000	0.022	-0.090
-583.850	692.238	0.112	-0.295
-582.836	281.311	0.089	-0.160
-581.821	43.204	-0.198	-0.181
-580.806	286.999	-0.070	0.126
-579.792	-135.510	-0.211	0.025
-578.777	20.860	0.142	0.115
-577.763	800.000	-0.093	-0.261
-576.748	728.668	0.215	0.574
-575.733	206.735	-0.143	-0.223
-574.719	800.000	0.046	0.168
-573.704	800.000	-0.049	-0.144
-572.690	-17.617	-0.076	-0.048
-571.675	-64.833	-0.263	0.107
-570.661	-200.000	0.028	-0.127
-569.646	800.000	0.048	-0.193
-568.631	24.748	-0.264	0.219
-567.617	197.337	-0.127	0.194
-566.602	455.484	-0.116	0.257
-565.588	-145.762	-0.406	-0.036
-564.573	-91.694	0.183	-0.052
-563.558	800.000	-0.087	0.346
-562.544	145.711	-0.213	0.285
-561.529	-120.533	0.258	-0.044
-560.515	-42.990	0.254	0.129
-559.500	-138.395	0.234	-0.026
-558.485	-40.666	-0.485	-0.252
-557.471	-200.000	-0.027	0.235
-556.456	-69.534	-0.167	-0.064
-555.442	56.352	-0.069	0.067
-554.427	-135.814	-0.215	0.025
-553.412	43.377	-0.112	0.103
-552.398	800.000	-0.116	0.420
-551.383	-200.000	-0.026	-0.215
-550.369	-200.000	0.004	0.145
-549.354	800.000	0.031	-0.128
-548.339	9.033	-0.244	0.185
-547.325	248.612	0.084	0.142
-546.310	579.939	0.106	-0.261
-545.296	-37.037	-0.181	0.097
-544.281	551.121	-0.073	-0.174
-543.266	34.432	-0.164	-0.143
-542.252	-73.724	-0.054	0.020
-541.237	140.561	0.060	0.079
-540.223	-173.559	0.094	0.003
-539.208	-68.179	-0.199	0.078
-538.193	-200.000	-0.012	-0.161
-537.179	-200.000	-0.013	-0.244
-536.164	127.667	-0.071	-0.091
-535.150	-200.000	-0.004	0.069
-534.135	-65.695	-0.249	0.100
-533.121	-200.000	-0.015	0.146
-532.106	-200.000	0.065	-0.325
-531.091	-8.812	-0.286	-0.192
-530.077	-84.099	-0.054	0.017
-529.062	-200.000	0.008	-0.082
-528.048	254.837	0.038	0.065
-527.033	-79.086	-0.056	0.019
-526.018	672.256	-0.030	0.078
-525.004	800.000	0.084	0.297
-523.989	0.835	-0.180	-0.129
-522.975	107.101	-0.063	0.075
-521.960	-70.824	-0.386	0.145
-520.945	800.000	0.147	0.470
-519.931	-41.948	0.198	0.102
-518.916	-81.650	-0.383	-0.126
-517.902	236.517	-0.196	-0.324
-516.887	-127.318	-0.058	-0.008
-515.872	92.760	0.330	0.373
-514.858	-91.424	0.172	-0.049
-513.843	132.628	-0.176	0.226
-512.829	-37.301	0.311	-0.166
-511.814	-149.468	0.197	0.016
-510.799	800.000	0.067	-0.236
-509.785	736.937	-0.130	-0.350
-508.770	265.698	-0.009	0.015
-507.756	-87.561	0.210	-0.064
-506.741	-151.683	-0.089	-0.007
-505.726	294.296	-0.061	0.111
-504.712	-200.000	-0.005	0.098
-503.697	759.635	-0.076	0.207
-502.683	-200.000	-0.028	-0.125
-501.668	-138.737	0.086	0.009
-500.653	-200.000	0.007	-0.102
-499.639	800.000	0.012	-0.037
-498.624	-108.398	-0.202	-0.044
-497.610	35.124	-0.325	-0.285
-496.595	-67.177	0.254	-0.100
-495.581	-80.885	0.274	-0.091
-494.566	-86.751	-0.443	-0.135
-493.551	-82.261	-0.293	-0.095
-492.537	10.114	-0.295	-0.224
-491.522	232.142	0.083	0.135
-490.508	800.000	-0.032	-0.090
-489.493	-200.000	0.012	0.134
-488.478	71.455	-0.066	0.069
-487.464	-47.617	0.220	0.106
-486.449	-169.663	-0.041	-0.001
-485.435	-129.980	0.132	-0.018
-484.420	98.380	-0.068	-0.078
-483.405	-192.956	0.278	-0.003
-482.391	-200.000	0.040	-0.258
-481.376	-16.845	0.110	-0.070
-480.362	474.019	-0.073	-0.163
-479.347	441.313	-0.188	-0.411
-478.332	800.000	-0.035	0.106
-477.318	-103.895	-0.229	-0.053
-476.303	404.424	-0.092	0.194
-475.289	181.079	-0.045	-0.065
-474.274	-101.865	0.138	-0.033
-473.259	-200.000	0.044	0.230
-472.245	-200.000	0.021	-0.200
-471.230	-126.588	0.121	-0.018
-470.216	-5.959	0.109	-0.074
-469.201	66.325	-0.050	0.050
-468.186	77.534	-0.185	-0.197
-467.172	86.710	0.209	0.230
-466.157	-102.214	0.180	-0.043
-465.143	363.111	0.135	-0.272
-464.128	110.902	-0.116	-0.140
-463.113	-200.000	0.006	-0.231
-462.099	-200.000	-0.003	-0.078
-461.084	800.000	-0.102	0.315
-460.070	-108.058	0.083	-0.018
-459.055	-200.000	0.007	-0.044
-458.040	-90.244	-0.188	-0.055
-457.026	2.784	-0.186	0.135
-456.011	-7.787	-0.120	0.081
-454.997	800.000	0.025	-0.084
-453.982	103.622	0.240	0.281
-452.968	781.170	-0.110	0.301
-451.953	-134.489	-0.098	0.012
-450.938	443.404	-0.048	-0.106
-449.924	131.380	0.125	0.160
-448.909	800.000	-0.062	-0.177
-447.895	-200.000	-0.000	-0.146
-446.880	-200.000	0.023	-0.283
-445.865	-74.023	-0.194	-0.070
-444.851	155.490	0.071	0.098
-443.836	-119.136	-0.246	-0.043
-442.822	-80.830	0.203	-0.067
-441.807	-65.524	-0.208	0.083
-440.792	109.641	-0.105	0.125
-439.778	-53.128	-0.115	-0.053
-438.763	-120.762	0.134	-0.023
-437.749	-1.940	0.090	-0.063
-436.734	-42.409	-0.398	-0.202
-435.719	-64.237	-0.466	0.189
-434.705	345.841	0.051	-0.099
-433.690	-56.270	0.035	0.015
-432.676	-159.218	0.251	-0.014
-431.661	415.997	0.124	0.264
-430.646	136.170	0.173	-0.224
-429.632	-156.494	0.179	0.011
-428.617	-128.264	-0.160	0.023
-427.603	-144.258	0.375	0.035
-426.588	239.635	0.042	0.070
-425.573	-10.795	-0.165	0.109
-424.559	-3.607	-0.039	0.027
-423.544	-200.000	-0.102	0.470
-422.530	-52.827	-0.220	-0.101
-421.515	116.223	-0.105	-0.128
-420.500	-47.046	0.218	-0.106
-419.486	-200.000	0.048	0.442
-418.471	800.000	-0.027	0.080
-417.457	-162.264	-0.123	-0.006
-416.442	48.008	-0.350	-0.326
-415.428	-76.060	-0.025	0.009
-414.413	17.050	-0.145	0.114
-413.398	-200.000	0.020	0.278
-412.384	800.000	-0.040	0.161
-411.369	800.000	0.045	-0.191
-410.355	89.569	-0.133	0.148
-409.340	-150.361	0.391	0.030
-408.325	171.414	0.195	-0.279
-407.311	-112.532	-0.123	0.024
-406.296	-200.000	0.002	0.139
-405.282	15.129	-0.137	-0.107
-404.267	182.041	0.113	-0.166
-403.252	-123.782	-0.336	0.053
-402.238	-19.073	-0.309	0.191
-401.223	-112.364	0.225	-0.045
-400.209	682.469	-0.042	-0.108
-399.194	284.182	-0.125	-0.224
-398.179	800.000	-0.048	-0.162
-397.165	102.085	0.139	0.161
-396.150	409.057	0.141	0.296
-395.136	565.481	-0.091	0.220
-394.121	39.215	-0.097	-0.086
-393.106	-92.347	-0.098	-0.027
-392.092	800.000	0.107	-0.380
-391.077	-200.000	-0.003	-0.056
-390.063	-80.001	-0.256	-0.085
-389.048	-22.347	0.063	-0.038
-388.033	-6.494	0.170	-0.115
-387.019	396.829	0.110	0.228
-386.004	-59.335	0.195	0.083
-384.990	249.717	0.027	0.045
-383.975	-200.000	0.062	0.402
-382.960	-200.000	0.185	0.001
-381.946	24.597	-0.051	0.042
-380.931	-83.116	-0.066	0.021
-379.917	-36.894	0.048	0.026
-378.902	434.019	0.036	-0.078
-377.888	-200.000	-0.032	0.198
-376.873	590.439	-0.069	0.170
-375.858	-200.000	-0.019	0.094
-374.844	62.092	0.151	0.150
-373.829	71.726	-0.149	0.154
-372.815	154.845	0.329	-0.449
-371.800	207.141	-0.143	0.221
-370.785	420.459	0.106	-0.226
-369.771	189.065	0.208	-0.309
-368.756	-84.099	-0.152	0.048
-367.742	-38.716	-0.229	0.120
-366.727	395.794	-0.104	0.216
-365.712	-200.000	0.025	0.219
-364.698	5.156	0.196	-0.144
-363.683	151.747	-0.064	0.086
-362.669	712.256	0.075	-0.198
-361.654	-115.003	0.209	-0.039
-360.639	-200.000	0.003	0.176
-359.625	59.420	-0.060	0.059
-358.610	800.000	-0.067	-0.251
-357.596	-200.000	-0.017	0.274
-356.581	-125.609	-0.186	-0.028
-355.566	-200.000	-0.022	-0.216
-354.552	-200.000	-0.017	0.128
-353.537	50.908	-0.293	-0.275
-352.523	140.160	-0.186	0.244
-351.508	-65.392	-0.251	-0.100
-350.493	-200.000	-0.019	0.313
-349.479	-71.841	0.315	0.117
-348.464	-108.316	-0.409	0.088
-347.450	-182.506	0.300	-0.005
-346.435	-200.000	-0.007	0.135
-345.420	36.663	-0.135	-0.118
-344.406	-80.762	0.334	0.110
-343.391	-149.841	-0.023	-0.002
-342.377	-22.267	0.411	-0.248
-341.362	-19.356	-0.209	0.128
-340.348	0.717	0.293	0.208
-339.333	-106.927	0.196	0.043
-338.318	137.790	-0.108	0.141
-337.304	-189.394	-0.053	0.001
-336.289	-140.381	0.255	0.026
-335.275	800.000	0.064	0.252
-334.260	108.110	-0.205	-0.242
-333.245	-29.110	0.108	-0.062
-332.231	130.714	0.143	-0.182
-331.216	645.220	0.021	-0.053
-330.202	-24.806	0.248	-0.146
-329.187	105.205	0.098	0.115
-328.172	-112.005	-0.177	-0.035
-327.158	800.000	-0.056	-0.187
-326.143	-200.000	0.000	-0.190
-325.129	-100.385	0.350	0.086
-324.114	229.647	0.186	0.302
-323.099	205.045	0.317	-0.489
-322.085	73.398	-0.245	-0.255
-321.070	-67.077	0.138	-0.054
-320.056	68.864	0.162	-0.165
-319.041	-119.350	0.081	0.014
-318.026	-52.023	-0.152	-0.070
-317.012	-90.292	0.280	-0.081
-315.997	-200.000	0.022	0.496
-314.983	-59.558	0.154	0.066
-313.968	409.354	-0.139	0.291
-312.953	-200.000	-0.002	0.295
-311.939	-200.000	0.017	-0.114
-310.924	800.000	0.021	-0.090
-309.910	-88.533	0.091	-0.027
-308.895	-200.000	-0.012	0.083
-307.880	1.660	-0.132	-0.095
-306.866	800.000	-0.031	0.126
-305.851	-138.721	0.145	0.016
-304.837	-162.847	0.283	0.014
-303.822	102.886	0.119	0.138
-302.807	-44.200	-0.146	0.073
-301.793	128.881	0.110	-0.139
-300.778	414.150	-0.202	0.426
-299.764	-103.240	0.122	-0.029
-298.749	-92.861	0.377	-0.105
-297.735	-200.000	-0.043	0.259
-296.720	-24.883	-0.096	-0.057
-295.705	-200.000	0.010	0.141
-294.691	136.179	-0.389	0.503
-293.676	175.236	0.029	0.041
-292.662	389.613	-0.237	0.486
-291.647	-200.000	-0.024	0.162
-290.632	-86.776	0.314	0.095
-289.618	-200.000	0.095	0.473
-288.603	-144.744	-0.337	0.031
-287.589	800.000	-0.051	-0.161
-286.574	282.711	0.028	-0.050
-285.559	260.899	-0.040	0.069
-284.545	-72.680	-0.260	-0.095
-283.530	409.579	0.062	-0.129
-282.516	293.355	-0.047	-0.085
-281.501	-77.049	0.150	0.052
-280.486	-11.376	-0.066	-0.043
-279.472	-122.743	0.107	0.017
-278.457	-79.080	0.291	0.098
-277.443	182.715	-0.229	0.335
-276.428	-200.000	-0.318	0.002
-275.413	53.933	0.202	0.192
-274.399	-39.543	-0.084	-0.044
-273.384	148.413	0.147	0.196
-272.370	-79.793	-0.299	0.100
-271.355	-23.323	0.076	0.046
-270.340	240.625	-0.142	0.235
-269.326	-119.672	0.426	0.073
-268.311	141.163	-0.141	-0.185
-267.297	25.254	0.057	0.047
-266.282	-200.000	0.027	0.242
-265.267	18.627	0.116	0.092
-264.253	-87.677	-0.256	0.077
-263.238	34.317	-0.127	-0.109
-262.224	800.000	-0.029	0.091
-261.209	14.576	0.294	-0.227
-260.195	524.888	-0.037	0.087
-259.180	-90.882	0.248	-0.071
-258.165	800.000	0.093	-0.285
-257.151	-162.060	-0.477	-0.024
-256.136	123.305	0.149	-0.185
-255.122	187.464	0.232	-0.343
-254.107	-129.195	0.210	0.029
-253.092	683.331	-0.068	0.177
-252.078	-126.683	0.445	-0.065
-251.063	-81.968	0.379	0.123
-250.049	-36.988	-0.216	-0.115
-249.034	-121.885	-0.129	0.021
-248.019	39.062	-0.208	-0.184
-247.005	-105.220	-0.097	-0.022
-245.990	291.978	0.025	-0.046
-244.976	0.755	-0.152	-0.107
-243.961	75.682	0.176	-0.184
-242.946	-70.959	-0.366	-0.136
-241.932	-85.413	-0.275	0.085
-240.917	120.985	-0.135	-0.166
-239.903	-42.595	0.241	0.121
-238.888	100.308	-0.279	0.320
-237.873	-200.000	-0.028	0.262
-236.859	339.432	0.037	-0.071
-235.844	361.426	-0.058	0.115
-234.830	100.766	-0.175	0.202
-233.815	65.170	0.348	0.348
-232.800	-84.049	0.135	-0.042
-231.786	24.598	0.236	0.193
-230.771	78.288	0.068	-0.072
-229.757	-50.158	0.162	-0.076
-228.742	-73.024	0.362	-0.131
-227.727	-155.743	-0.176	-0.011
-226.713	-200.000	-0.031	-0.391
-225.698	305.189	-0.071	0.130
-224.684	-200.000	0.012	0.292
-223.669	-200.000	0.033	-0.167
-222.655	126.210	-0.050	-0.062
-221.640	5.887	-0.189	-0.138
-220.625	-200.000	-0.002	0.022
-219.611	-148.521	0.344	0.028
-218.596	763.933	0.155	0.416
-217.582	673.189	0.063	-0.161
-216.567	-200.000	-0.008	-0.119
-215.552	-200.000	-0.047	-0.290
-214.538	-27.896	0.309	-0.177
-213.523	-4.409	0.252	-0.172
-212.509	800.000	0.046	-0.170
-211.494	-66.777	-0.067	0.026
-210.479	54.354	-0.136	0.129
-209.465	-110.583	0.204	-0.042
-208.450	-15.587	-0.084	-0.053
-207.436	-168.381	0.136	-0.005
-206.421	-92.584	-0.180	-0.050
-205.406	483.663	0.165	-0.372
-204.392	-41.312	0.102	0.052
-203.377	320.165	-0.244	0.458
-202.363	800.000	0.025	-0.098
-201.348	153.396	0.193	0.261
-200.333	-181.679	-0.093	0.002
-199.319	114.647	0.247	0.297
-198.304	49.229	0.216	-0.200
-197.290	800.000	-0.123	-0.418
-196.275	86.174	0.046	0.051
-195.260	285.862	0.074	0.132
-194.246	28.067	0.018	-0.015
-193.231	92.603	0.197	-0.220
-192.217	-62.016	-0.169	0.070
-191.202	-200.000	0.060	-0.277
-190.187	218.725	-0.121	0.190
-189.173	61.691	0.176	-0.172
-188.158	23.834	0.091	-0.074
-187.144	-153.839	-0.248	0.017
-186.129	800.000	-0.053	0.177
-185.114	-36.145	-0.158	-0.084
-184.100	-35.598	0.045	0.024
-183.085	-87.617	-0.139	-0.041
-182.071	225.547	0.138	0.220
-181.056	17.486	0.172	-0.135
-180.042	-68.868	0.496	0.189
-179.027	-200.000	0.074	0.330
-178.012	-200.000	-0.010	-0.210
-176.998	406.551	-0.067	-0.140
-175.983	-79.998	0.393	-0.130
-174.969	261.143	-0.193	0.329
-173.954	-200.000	0.009	-0.207
-172.939	111.622	0.110	-0.131
-171.925	800.000	0.108	-0.316
-170.910	-156.908	-0.275	0.017
-169.896	-200.000	0.006	0.250
-168.881	-12.012	0.097	-0.063
-167.866	-3.218	0.068	0.047
-166.852	1.681	-0.261	-0.185
-165.837	-112.500	0.112	0.022
-164.823	-200.000	-0.024	-0.212
-163.808	615.085	-0.088	-0.218
-162.793	64.736	-0.104	-0.104
-161.779	-85.070	-0.155	0.048
-160.764	-163.245	-0.194	-0.009
-159.750	283.129	-0.035	-0.062
-158.735	-38.039	-0.124	-0.065
-157.720	-200.000	-0.009	0.173
-156.706	325.681	0.076	-0.142
-155.691	154.497	-0.310	0.420
-154.677	-29.642	0.153	-0.086
-153.662	118.315	-0.112	0.137
-152.647	800.000	0.075	-0.325
-151.633	-63.439	0.132	-0.053
-150.618	183.659	0.150	0.218
-149.604	800.000	-0.074	0.246
-148.589	203.599	-0.042	-0.064
-147.574	-88.165	0.232	0.069
-146.560	42.419	-0.176	0.158
-145.545	-44.391	0.206	-0.102
-144.531	424.694	0.103	0.217
-143.516	-179.871	0.196	0.004
-142.502	192.089	0.058	0.086
-141.487	-36.734	-0.154	-0.082
-140.472	-20.820	-0.248	0.150
-139.458	140.357	-0.233	0.304
-138.443	105.524	0.113	0.131
-137.429	-85.039	-0.061	0.019
-136.414	270.621	0.086	-0.149
-135.399	607.048	-0.092	0.225
-134.385	150.097	0.181	0.241
-133.370	-134.233	-0.168	-0.020
-132.356	-200.000	-0.033	0.311
-131.341	-134.814	-0.184	0.022
-130.326	409.679	-0.116	-0.243
-129.312	800.000	0.061	0.250
-128.297	-146.763	0.247	-0.021
-127.283	-116.671	0.520	0.094
-126.268	-140.602	-0.128	-0.013
-125.253	-200.000	-0.005	-0.067
-124.239	-200.000	0.031	-0.319
-123.224	-120.739	-0.263	0.044
-122.210	-119.731	-0.266	-0.045
-121.195	-79.097	-0.220	-0.074
-120.180	265.037	0.136	-0.233
-119.166	-200.000	0.019	-0.250
-118.151	-100.852	0.225	-0.055
-117.137	136.278	0.197	0.253
-116.122	388.589	-0.230	0.469
-115.107	311.330	0.054	0.099
-114.093	-200.000	-0.001	0.132
-113.078	10.717	-0.331	-0.249
-112.064	800.000	-0.075	-0.249
-111.049	104.263	-0.052	0.060
-110.034	-75.031	0.131	-0.046
-109.020	-0.618	0.180	-0.126
-108.005	48.641	0.192	-0.177
-106.991	655.447	-0.118	-0.297
-105.976	208.323	0.026	-0.040
-104.962	273.934	-0.084	-0.146
-103.947	-200.000	0.036	0.240
-102.932	-57.936	-0.154	-0.066
-101.918	54.027	-0.113	0.107
-100.903	-15.723	0.150	-0.094
-99.889	112.137	0.085	0.101
-98.874	171.036	-0.164	-0.231
-97.859	-66.246	0.146	0.057
-96.845	-200.000	-0.145	-0.001
-95.830	800.000	-0.107	-0.293
-94.816	409.555	-0.134	-0.279
-93.801	41.384	0.071	-0.063
-92.786	432.267	-0.058	-0.125
-91.772	164.682	0.186	-0.258
-90.757	2.668	0.234	-0.167
-89.743	-200.000	-0.019	0.170
-88.728	-29.538	-0.276	0.155
-87.713	-76.949	0.162	-0.056
-86.699	-117.725	-0.317	-0.056
-85.684	-200.000	0.007	-0.144
-84.670	-134.904	0.263	-0.031
-83.655	-9.842	-0.077	-0.051
-82.640	-121.205	-0.325	-0.053
-81.626	68.444	-0.046	-0.046
-80.611	-102.171	-0.126	-0.030
-79.597	-200.000	0.007	0.061
-78.582	-200.000	-0.010	0.282
-77.567	-144.192	0.265	0.024
-76.553	22.817	-0.190	-0.153
-75.538	512.805	-0.112	0.258
-74.524	-166.164	-0.438	-0.018
-73.509	-18.634	-0.168	0.103
-72.494	-129.960	-0.087	0.012
-71.480	21.387	0.257	-0.206
-70.465	473.990	0.078	0.173
-69.451	231.126	0.074	-0.118
-68.436	210.641	0.060	0.093
-67.422	-100.857	-0.318	0.077
-66.407	323.502	0.099	0.185
-65.392	-200.000	-0.072	0.392
-64.378	-200.000	-0.029	0.420
-63.363	-200.000	0.025	0.115
-62.349	-200.000	-0.061	0.327
-61.334	32.026	-1.106	-0.936
-60.319	25.792	0.642	0.525
-59.305	360.217	-0.555	-1.090
-58.290	86.927	0.797	0.864
-57.276	800.000	0.590	1.655
-56.261	-200.000	96.405	575.965
-55.246	558.174	1375.655	3258.239
-54.232	160.445	2558.823	3505.162
-53.217	105.976	2266.853	2634.316
-52.203	41.956	1892.065	1685.294
-51.188	36.087	1681.926	1453.947
-50.173	33.359	1637.552	1395.464
-49.159	50.380	1683.837	1562.409
-48.144	52.143	1700.709	1591.173
-47.130	35.510	1661.072	1431.394
-46.115	32.927	1646.693	1399.823
-45.100	32.731	1641.143	1393.607
-44.086	32.634	1638.993	1391.009
-43.071	32.656	1636.233	1388.771
-42.057	32.646	1633.870	1386.635
-41.042	32.709	1631.913	1385.387
-40.027	32.709	1629.850	1383.581
-39.013	32.580	1628.322	1381.282
-37.998	32.598	1627.075	1380.299
-36.984	32.624	1625.565	1379.153
-35.969	32.787	1623.841	1378.826
-34.954	32.859	1622.123	1377.839
-33.940	32.692	1620.760	1375.409
-32.925	32.725	1618.590	1373.757
-31.911	32.661	1617.221	1372.068
-30.896	32.635	1615.703	1370.542
-29.881	32.711	1613.758	1369.392
-28.867	32.692	1612.547	1368.168
-27.852	32.682	1610.872	1366.622
-26.838	32.805	1609.016	1365.883
-25.823	32.801	1607.709	1364.691
-24.809	32.745	1606.472	1363.184
-23.794	32.775	1605.209	1362.274
-22.779	32.866	1603.071	1361.056
-21.765	32.795	1601.820	1359.434
-20.750	32.818	1599.811	1357.838
-19.736	32.792	1598.707	1356.660
-18.721	32.831	1596.949	1355.394
-17.706	32.859	1595.327	1354.162
-16.692	32.756	1594.668	1352.811
-15.677	32.799	1592.658	1351.365
-14.663	32.822	1591.462	1350.456
-13.648	32.750	1590.623	1349.181
-12.633	32.671	1589.045	1347.219
-11.619	32.767	1587.384	1346.441
-10.604	32.789	1585.864	1345.258
-9.590	32.882	1584.095	1344.369
-8.575	32.820	1583.420	1343.300
-7.560	32.819	1582.029	1342.061
-6.546	32.820	1580.610	1340.811
-5.531	32.728	1579.793	1339.407
-4.517	32.766	1578.403	1338.446
-3.502	32.734	1577.588	1337.475
-2.487	32.796	1575.670	1336.234
-1.473	32.523	1564.083	1324.437
-0.458	29.854	1544.894	1289.564
0.556	26.805	1545.813	1259.780
1.571	24.606	1569.034	1263.065
2.586	23.989	1582.607	1269.476
3.600	21.621	1529.616	1210.511
4.615	12.456	1418.954	1063.795
5.629	3.691	1353.674	960.450
6.644	2.229	1344.422	944.769
7.659	2.008	1343.811	942.887
8.673	2.077	1341.956	941.931
9.688	1.926	1340.400	939.823
10.702	1.646	1337.289	935.837
11.717	5.221	1344.610	962.954
12.731	15.425	1363.633	1040.019
13.746	23.855	1377.311	1102.894
14.761	26.172	1380.230	1119.522
15.775	26.441	1380.758	1121.516
16.790	26.552	1380.423	1121.836
17.804	26.621	1379.720	1121.592
18.819	26.833	1379.743	1122.824
19.834	26.963	1378.738	1122.707
20.848	27.007	1378.163	1122.412
21.863	26.959	1377.401	1121.396
22.877	27.067	1376.022	1120.841
23.892	27.000	1375.334	1119.769
24.907	26.997	1374.144	1118.686
25.921	26.993	1373.375	1117.936
26.936	27.097	1372.439	1117.714
27.950	26.999	1371.647	1116.365
28.965	26.997	1370.289	1115.151
29.980	27.038	1368.761	1114.060
30.994	26.914	1367.915	1112.511
32.009	26.961	1366.418	1111.484
33.023	26.936	1365.762	1110.698
34.038	27.029	1364.636	1110.253
35.053	26.882	1363.771	1108.555
36.067	26.995	1362.276	1107.930
37.082	26.922	1361.541	1106.791
38.096	26.941	1361.244	1106.567
39.111	27.034	1359.833	1105.889
40.126	26.944	1359.294	1104.804
41.140	26.952	1358.885	1104.419
42.155	26.994	1358.355	1104.147
43.169	26.962	1358.271	1103.789
44.184	27.048	1357.975	1103.970
45.199	26.860	1357.920	1102.689
46.213	26.966	1356.843	1102.358
47.228	26.945	1356.075	1101.511
48.242	27.017	1355.092	1101.050
49.257	26.949	1353.791	1099.484
50.271	26.970	1352.040	1098.090
51.286	26.927	1351.133	1096.996
52.301	26.930	1349.875	1095.898
53.315	26.925	1348.757	1094.865
54.330	27.013	1348.057	1094.730
55.344	27.050	1346.487	1093.579
56.359	26.996	1345.416	1092.290
57.374	27.025	1344.829	1091.890
58.388	26.906	1344.581	1090.878
59.403	26.967	1343.905	1090.597
60.417	26.919	1343.190	1089.634
61.432	26.987	1342.535	1089.415
62.447	26.927	1342.092	1088.598
63.461	26.957	1340.586	1087.456
64.476	26.995	1339.481	1086.692
65.490	26.963	1338.438	1085.559
66.505	26.980	1336.797	1084.231
67.520	26.964	1335.746	1083.187
68.534	26.996	1334.741	1082.473
69.549	26.961	1333.764	1081.372
70.563	27.001	1332.818	1080.747
71.578	27.061	1331.985	1080.337
72.593	26.869	1331.386	1078.613
73.607	26.917	1330.699	1078.243
74.622	27.052	1329.661	1078.108
75.636	26.961	1329.466	1077.317
76.651	26.971	1328.650	1076.617
77.666	26.982	1327.681	1075.803
78.680	27.039	1327.754	1076.106
79.695	27.009	1327.113	1075.312
80.709	26.944	1326.203	1074.097
81.724	26.966	1325.319	1073.418
82.739	27.034	1324.506	1073.061
83.753	27.049	1322.964	1071.811
84.768	26.981	1321.960	1070.496
85.782	27.085	1320.865	1070.128
86.797	27.085	1319.707	1069.099
87.812	26.953	1318.776	1067.470
88.826	27.060	1317.579	1067.038
89.841	26.886	1317.226	1065.636
90.855	27.069	1315.782	1065.447
91.870	27.042	1315.192	1064.716
92.884	27.087	1314.230	1064.106
93.899	27.082	1313.160	1063.119
94.914	27.123	1312.214	1062.498
95.928	27.056	1312.125	1061.937
96.943	26.965	1311.383	1060.712
97.957	27.105	1310.468	1060.694
98.972	27.099	1309.453	1059.744
99.987	27.048	1308.376	1058.480
101.001	27.031	1307.439	1057.530
102.016	26.977	1307.087	1056.839
103.030	26.928	1306.206	1055.748
104.045	26.996	1305.566	1055.531
105.060	27.142	1304.317	1055.276
106.074	27.043	1303.187	1053.696
107.089	27.084	1302.124	1052.981
108.103	27.090	1301.440	1052.368
109.118	27.060	1300.589	1051.416
110.133	27.124	1298.717	1050.180
111.147	27.124	1298.060	1049.552
112.162	27.126	1296.742	1048.409
113.176	27.116	1295.681	1047.400
114.191	27.120	1295.104	1046.864
115.206	27.178	1293.713	1045.979
116.220	27.162	1292.605	1044.901
117.235	27.146	1292.096	1044.303
118.249	27.111	1291.038	1043.155
119.264	27.105	1290.396	1042.507
120.279	27.116	1289.936	1042.106
121.293	27.119	1288.812	1041.125
122.308	27.155	1288.339	1040.857
123.322	27.177	1287.509	1040.221
124.337	27.211	1286.294	1039.340
125.352	27.133	1285.436	1038.110
126.366	27.148	1284.822	1037.608
127.381	27.301	1283.610	1037.409
128.395	27.241	1282.895	1036.397
129.410	27.140	1282.110	1035.097
130.424	27.216	1281.386	1034.855
131.439	27.083	1280.717	1033.469
132.454	27.219	1279.992	1033.561
133.468	27.113	1279.297	1032.307
134.483	27.230	1278.799	1032.478
135.497	27.174	1277.700	1031.185
136.512	27.229	1276.571	1030.493
137.527	27.133	1275.859	1029.283
138.541	27.167	1274.113	1027.973
139.556	27.210	1273.428	1027.573
140.570	27.221	1272.151	1026.517
141.585	27.166	1271.424	1025.527
142.600	27.193	1270.404	1024.767
143.614	27.200	1269.513	1023.998
144.629	27.171	1268.579	1022.987
145.643	26.961	1267.941	1021.204
146.658	27.081	1266.655	1020.750
147.673	27.060	1265.785	1019.839
148.687	27.061	1265.128	1019.227
149.702	26.984	1263.624	1017.492
150.716	27.001	1262.066	1016.247
151.731	27.205	1261.291	1016.673
152.746	27.123	1260.423	1015.426
153.760	27.106	1259.503	1014.497
154.775	27.063	1258.767	1013.576
155.789	27.130	1257.678	1012.982
156.804	27.182	1256.645	1012.353
157.819	27.146	1255.880	1011.444
158.833	27.183	1255.042	1010.884
159.848	27.180	1254.542	1010.379
160.862	27.229	1254.075	1010.184
161.877	27.284	1252.960	1009.502
162.892	27.332	1252.033	1008.933
163.906	27.227	1251.477	1007.810
164.921	27.290	1250.606	1007.368
165.935	27.257	1250.090	1006.681
166.950	27.298	1249.327	1006.207
167.964	27.371	1248.927	1006.201
168.979	27.239	1248.630	1005.138
169.994	27.259	1247.967	1004.625
171.008	27.400	1247.030	1004.563
172.023	27.246	1246.403	1003.119
173.037	27.294	1245.526	1002.587
174.052	27.349	1244.601	1002.059
175.067	27.338	1243.982	1001.411
176.081	27.324	1242.853	1000.337
177.096	27.445	1242.209	1000.394
178.110	27.190	1241.727	998.520
179.125	27.267	1240.183	997.610
180.140	27.417	1239.331	997.657
181.154	27.285	1238.285	996.005
182.169	27.238	1237.506	995.036
183.183	27.262	1236.478	994.251
184.198	27.304	1235.270	993.418
185.213	27.244	1234.716	992.561
186.227	27.258	1233.937	991.920
187.242	27.313	1232.902	991.303
188.256	27.403	1231.895	990.894
189.271	27.282	1231.316	989.682
190.286	27.398	1230.694	989.727
191.300	27.425	1230.097	989.303
192.315	27.438	1229.565	988.862
193.329	27.404	1229.110	988.224
194.344	27.391	1228.595	987.649
195.359	27.345	1228.128	986.939
196.373	27.361	1227.469	986.408
197.388	27.332	1227.344	986.063
198.402	27.331	1226.919	985.629
199.417	27.339	1226.227	985.026
200.432	27.473	1225.574	985.142
201.446	27.446	1225.161	984.575
202.461	27.454	1224.413	983.931
203.475	27.318	1223.782	982.604
204.490	27.325	1222.633	981.634
205.504	27.361	1221.592	980.902
206.519	27.505	1220.767	980.931
207.534	27.501	1219.864	980.095
208.548	27.589	1218.840	979.660
209.563	27.477	1218.518	978.710
210.577	27.429	1217.518	977.563
211.592	27.376	1216.740	976.570
212.607	27.582	1215.661	976.720
213.621	27.554	1214.870	975.848
214.636	27.534	1214.149	975.075
215.650	27.543	1213.241	974.306
216.665	27.484	1212.682	973.456
217.680	27.428	1211.987	972.517
218.694	27.513	1210.690	971.841
219.709	27.588	1209.820	971.458
220.723	27.582	1209.502	971.082
221.738	27.470	1208.810	969.848
222.753	27.542	1207.871	969.391
223.767	27.437	1207.961	968.818
224.782	27.521	1207.890	969.123
225.796	27.731	1206.403	968.961
226.811	27.679	1205.929	968.214
227.826	27.645	1205.509	967.612
228.840	27.634	1205.391	967.371
229.855	27.506	1204.308	965.740
230.869	27.605	1203.331	965.397
231.884	27.573	1202.885	964.784
232.899	27.656	1201.868	964.320
233.913	27.692	1201.111	963.820
234.928	27.689	1200.816	963.483
235.942	27.661	1200.055	962.634
236.957	27.680	1199.436	962.156
237.972	27.591	1198.946	961.207
238.986	27.640	1198.353	960.905
240.001	27.740	1197.646	960.781
241.015	27.799	1197.056	960.532
242.030	27.823	1196.160	959.856
243.045	27.888	1195.380	959.486
244.059	27.684	1194.761	957.832
245.074	27.848	1193.740	957.789
246.088	27.913	1192.863	957.342
247.103	27.790	1192.716	956.496
248.117	27.818	1191.589	955.651
249.132	27.881	1190.455	954.990
250.147	27.753	1190.495	954.269
251.161	27.811	1189.639	953.797
252.176	27.748	1188.791	952.704
253.190	27.886	1188.206	952.871
254.205	27.885	1187.131	951.921
255.220	27.804	1187.161	951.441
256.234	27.908	1186.689	951.516
257.249	27.884	1185.673	950.496
258.263	27.893	1185.398	950.238
259.278	27.958	1184.845	950.050
260.293	27.935	1184.459	949.534
261.307	27.923	1183.999	949.017
262.322	27.798	1183.405	947.809
263.336	27.800	1182.561	947.061
264.351	27.877	1181.983	946.913
265.366	27.935	1181.415	946.673
266.380	27.869	1180.851	945.799
267.395	27.841	1180.144	945.002
268.409	27.848	1179.158	944.167
269.424	27.890	1178.944	944.127
270.439	27.885	1178.425	943.600
271.453	27.863	1177.795	942.904
272.468	27.952	1176.615	942.333
273.482	28.026	1175.670	941.873
274.497	27.973	1175.846	941.655
275.512	27.958	1175.062	940.871
276.526	27.894	1174.654	940.130
277.541	28.016	1173.840	940.021
278.555	28.030	1173.271	939.556
279.570	28.020	1172.609	938.889
280.585	28.010	1171.342	937.745
281.599	28.039	1170.655	937.259
282.614	28.052	1169.845	936.594
283.628	28.032	1168.890	935.642
284.643	28.104	1168.505	935.619
285.657	27.985	1167.658	934.252
286.672	28.079	1166.287	933.550
287.687	28.050	1166.188	933.243
288.701	28.010	1165.500	932.406
289.716	28.114	1164.795	932.286
290.730	28.069	1164.064	931.392
291.745	28.179	1163.414	931.351
292.760	28.176	1162.715	930.693
293.774	28.308	1162.091	930.779
294.789	28.181	1161.884	929.888
295.803	28.196	1161.172	929.314
296.818	28.212	1160.336	928.642
297.833	28.141	1159.850	927.809
298.847	28.366	1158.997	928.186
299.862	28.176	1158.620	926.839
300.876	28.215	1157.683	926.207
301.891	28.217	1157.227	925.767
302.906	28.329	1156.592	925.745
303.920	28.310	1155.936	925.044
304.935	28.367	1155.205	924.661
305.949	28.343	1154.483	923.881
306.964	28.418	1153.949	923.749
307.979	28.332	1153.685	923.025
308.993	28.296	1153.205	922.380
310.008	28.393	1152.205	921.983
311.022	28.379	1151.302	921.106
312.037	28.318	1150.664	920.211
313.052	28.219	1150.003	919.102
314.066	28.286	1149.282	918.780
315.081	28.294	1148.309	917.962
316.095	28.263	1147.801	917.318
317.110	28.391	1146.879	917.141
318.125	28.440	1146.689	917.155
319.139	28.457	1145.651	916.331
320.154	28.504	1145.013	915.973
321.168	28.407	1144.649	915.118
322.183	28.549	1143.639	914.937
323.197	28.467	1143.539	914.365
324.212	28.373	1143.180	913.530
325.227	28.407	1142.573	913.132
326.241	28.605	1141.766	913.390
327.256	28.649	1140.771	912.736
328.270	28.568	1140.175	911.777
329.285	28.521	1139.892	911.234
330.300	28.597	1138.688	910.568
331.314	28.566	1138.077	909.842
332.329	28.621	1137.165	909.310
333.343	28.645	1136.272	908.631
334.358	28.656	1135.635	908.098
335.373	28.738	1135.227	908.097
336.387	28.783	1134.386	907.567
337.402	28.564	1134.095	906.172
338.416	28.567	1133.547	905.667
339.431	28.601	1132.967	905.292
340.446	28.666	1132.169	904.894
341.460	28.684	1131.415	904.299
342.475	28.773	1130.367	903.819
343.489	28.793	1129.462	903.114
344.504	28.792	1128.571	902.315
345.519	28.727	1128.274	901.683
346.533	28.846	1127.092	901.240
347.548	28.720	1126.756	900.273
348.562	28.773	1125.729	899.635
349.577	28.741	1125.425	899.154
350.592	28.754	1124.229	898.183
351.606	28.636	1123.961	897.314
352.621	28.661	1123.650	897.105
353.635	28.789	1122.500	896.734
354.650	28.803	1122.118	896.417
355.665	28.782	1121.590	895.813
356.679	28.874	1120.905	895.637
357.694	28.906	1120.038	895.020
358.708	28.843	1119.641	894.317
359.723	28.838	1119.092	893.772
360.738	28.893	1118.363	893.381
361.752	28.774	1117.529	892.056
362.767	28.831	1117.208	891.998
363.781	28.944	1116.651	892.024
364.796	28.892	1116.301	891.412
365.810	28.979	1115.390	891.027
366.825	29.061	1114.615	890.727
367.840	28.933	1114.567	889.992
368.854	29.116	1113.787	890.172
369.869	28.924	1113.189	888.691
370.883	29.063	1112.418	888.666
371.898	29.059	1111.617	887.928
372.913	28.943	1111.179	886.942
373.927	28.980	1110.779	886.721
374.942	29.107	1110.243	886.828
375.956	29.103	1110.137	886.642
376.971	29.257	1109.102	886.482
377.986	29.140	1108.615	885.449
379.000	29.188	1108.076	885.171
380.015	29.236	1107.288	884.692
381.029	29.104	1106.966	883.726
382.044	29.125	1106.083	883.041
383.059	29.225	1105.481	882.961
384.073	29.154	1104.930	882.104
385.088	29.158	1104.210	881.473
386.102	29.215	1103.109	880.785
387.117	29.182	1102.095	879.740
388.132	29.150	1101.407	878.963
389.146	29.145	1101.016	878.548
390.161	29.264	1100.400	878.547
391.175	29.226	1099.693	877.722
392.190	29.212	1099.062	877.075
393.205	29.170	1098.466	876.324
394.219	29.256	1097.463	875.855
395.234	29.412	1096.598	875.826
396.248	29.344	1095.832	874.813
397.263	29.295	1095.186	873.989
398.278	29.447	1094.634	874.193
399.292	29.453	1093.817	873.488
400.307	29.476	1093.546	873.303
401.321	29.352	1092.964	872.176
402.336	29.364	1092.131	871.489
403.350	29.405	1091.675	871.243
404.365	29.493	1091.256	871.250
405.380	29.441	1090.090	869.993
406.394	29.478	1089.382	869.526
407.409	29.484	1088.878	869.075
408.423	29.464	1088.152	868.325
409.438	29.478	1087.554	867.837
410.453	29.562	1086.747	867.509
411.467	29.578	1085.996	866.911
412.482	29.530	1085.180	865.955
413.496	29.597	1084.999	866.051
414.511	29.614	1084.366	865.549
415.526	29.513	1083.890	864.616
416.540	29.599	1083.159	864.363
417.555	29.527	1083.137	863.931
418.569	29.527	1082.968	863.719
419.584	29.667	1082.063	863.574
420.599	29.745	1081.214	863.186
421.613	104.443	1320.142	1457.222
422.628	97.159	1354.927	1457.321
