DTS Sentinel unit serial number:	SN413079Multiplexer serial number:	ORYXHardware model number:	OX4-SRSoftware version number:	ORYX F/W v4.00 Oryx Data Collector v3.7.2.0data status	okinstallation	princeton_trtdifferential loss correction	single-endedforward channel	channel 2reverse channel	N/Adate	2019/09/19time	13:55:34forward acquisition time	60.00reverse acquisition time	0.00gamma	496.2192k internal	0.2324k external	0.2324temperature offset calibration	1.0019default loss term (dB/km)	0.3790temperature slope calibration	1.0000multiplexer offset coefficient	1.0000multiplexer slope coefficient	1.0000fibre end	0.00T internal ref (°C)	30.94T ext. ref 1 (°C)	1.02T ext. ref 2 (°C)	28.21length (m)	temperature (°C)	Stokes	anti-Stokes-747.200	800.000	0.068	0.241
-746.185	-21.339	-0.222	-0.137
-745.171	-154.358	0.188	-0.013
-744.156	-35.202	0.401	0.220
-743.142	-138.685	-0.304	-0.034
-742.127	800.000	-0.117	0.468
-741.112	25.431	-0.175	-0.147
-740.098	-200.000	0.042	-0.307
-739.083	-113.325	-0.169	0.033
-738.069	69.239	-0.265	0.275
-737.054	527.143	-0.144	-0.344
-736.039	-119.670	0.062	-0.011
-735.025	72.779	0.114	0.120
-734.010	-3.179	0.038	0.027
-732.996	-61.730	-0.115	0.049
-731.981	438.084	0.079	-0.173
-730.966	-59.850	0.065	0.028
-729.952	-200.000	-0.009	0.073
-728.937	-109.169	-0.202	0.043
-727.923	-127.669	-0.329	0.048
-726.908	95.073	-0.352	-0.404
-725.894	-13.178	0.151	-0.099
-724.879	-200.000	0.062	-0.366
-723.864	31.126	-0.277	-0.240
-722.850	-130.824	-0.102	0.014
-721.835	-200.000	0.013	0.163
-720.821	-126.885	-0.243	-0.036
-719.806	-200.000	-0.005	-0.630
-718.791	-49.918	-0.200	-0.096
-717.777	167.150	-0.226	-0.323
-716.762	120.065	0.079	0.099
-715.748	-36.033	-0.061	0.033
-714.733	-21.894	0.266	-0.163
-713.718	112.955	-0.140	0.171
-712.704	795.847	-0.051	-0.143
-711.689	-126.193	-0.188	-0.028
-710.675	-76.746	0.567	0.200
-709.660	196.817	0.085	0.131
-708.645	-153.200	-0.198	0.014
-707.631	-72.958	-0.084	-0.031
-706.616	121.170	-0.217	0.272
-705.602	184.880	0.164	0.245
-704.587	800.000	-0.109	-0.379
-703.572	-51.503	0.112	0.053
-702.558	7.578	-0.167	0.126
-701.543	800.000	0.042	0.138
-700.529	-93.238	-0.053	0.015
-699.514	800.000	-0.048	-0.207
-698.499	800.000	0.109	0.380
-697.485	16.360	0.069	0.055
-696.470	106.658	0.091	0.109
-695.456	18.192	-0.308	-0.247
-694.441	159.100	0.188	-0.263
-693.426	285.860	0.025	0.046
-692.412	-136.078	-0.195	0.023
-691.397	-200.000	0.010	0.057
-690.383	800.000	-0.034	0.129
-689.368	47.530	0.331	-0.310
-688.354	115.110	-0.172	0.212
-687.339	800.000	-0.078	0.256
-686.324	-138.165	0.057	0.006
-685.310	-36.780	-0.055	0.030
-684.295	-161.904	0.134	0.007
-683.281	-69.844	-0.445	0.171
-682.266	308.502	-0.037	-0.069
-681.251	-200.000	-0.004	-0.073
-680.237	25.024	-0.119	-0.099
-679.222	132.735	-0.207	-0.269
-678.208	-113.632	-0.104	0.020
-677.193	-167.095	0.227	-0.009
-676.178	-41.334	-0.384	0.199
-675.164	189.207	0.058	-0.087
-674.149	-33.471	0.046	0.026
-673.135	317.753	0.152	-0.290
-672.120	-200.000	-0.079	-0.619
-671.105	279.181	-0.084	0.151
-670.091	-140.973	0.382	0.039
-669.076	-17.649	0.046	-0.029
-668.062	159.024	0.110	0.154
-667.047	434.446	-0.102	-0.223
-666.032	-70.146	-0.135	-0.052
-665.018	-200.000	0.002	0.177
-664.003	800.000	-0.036	-0.113
-662.989	334.250	0.159	0.310
-661.974	-200.000	0.003	0.418
-660.959	6.325	0.126	0.094
-659.945	-94.594	0.103	-0.028
-658.930	-200.000	0.029	-0.166
-657.916	-151.758	-0.355	0.026
-656.901	-67.956	-0.169	0.066
-655.886	-60.171	0.104	0.045
-654.872	-134.494	-0.124	0.015
-653.857	150.836	0.240	0.328
-652.843	111.920	0.124	0.150
-651.828	-98.416	0.115	-0.030
-650.814	-119.107	-0.256	0.045
-649.799	179.436	0.085	-0.125
-648.784	-35.771	-0.179	0.098
-647.770	-200.000	-0.020	-0.319
-646.755	-116.333	-0.384	-0.071
-645.741	-10.222	-0.287	0.191
-644.726	28.014	0.160	0.136
-643.711	-90.721	0.183	-0.053
-642.697	105.488	-0.241	-0.286
-641.682	257.224	0.146	0.253
-640.668	-200.000	-0.041	0.287
-639.653	14.488	-0.073	-0.057
-638.638	67.580	-0.284	-0.292
-637.624	800.000	-0.067	0.219
-636.609	161.417	-0.288	0.404
-635.595	20.430	-0.256	0.208
-634.580	-200.000	-0.077	0.383
-633.565	337.781	-0.014	0.028
-632.551	-200.000	-0.027	0.165
-631.536	-106.346	0.078	-0.017
-630.522	368.708	0.013	0.026
-629.507	13.836	0.312	0.244
-628.492	-22.293	-0.121	-0.074
-627.478	112.063	0.220	0.268
-626.463	-82.796	0.288	0.094
-625.449	-67.340	0.357	0.141
-624.434	-124.335	0.284	0.045
-623.419	-122.947	-0.129	-0.021
-622.405	800.000	0.036	-0.122
-621.390	4.566	0.142	0.105
-620.376	585.579	0.055	0.136
-619.361	-84.143	-0.399	0.127
-618.346	-89.389	0.197	0.058
-617.332	-50.157	0.429	0.204
-616.317	-118.876	-0.245	0.043
-615.303	-45.739	0.238	-0.118
-614.288	-200.000	0.013	0.152
-613.273	-69.526	-0.244	-0.094
-612.259	362.355	-0.178	-0.359
-611.244	-64.934	0.150	-0.061
-610.230	800.000	-0.060	0.175
-609.215	-200.000	-0.071	0.325
-608.201	-200.000	-0.043	0.375
-607.186	40.296	0.364	-0.329
-606.171	-57.796	0.098	0.043
-605.157	-40.942	-0.025	0.013
-604.142	346.530	0.066	0.130
-603.128	142.106	-0.089	0.119
-602.113	145.749	0.164	-0.221
-601.098	-200.000	0.014	0.088
-600.084	-166.335	0.269	-0.011
-599.069	800.000	0.016	-0.054
-598.055	-200.000	0.036	0.250
-597.040	539.690	-0.143	-0.342
-596.025	-57.287	-0.182	0.080
-595.011	800.000	-0.023	-0.066
-593.996	-200.000	-0.071	0.610
-592.982	-200.000	-0.008	0.306
-591.967	-44.961	0.100	0.050
-590.952	4.553	0.112	-0.082
-589.938	-143.104	0.165	-0.016
-588.923	7.516	-0.059	0.044
-587.909	406.400	-0.190	0.403
-586.894	217.757	0.076	0.122
-585.879	-9.650	-0.330	-0.221
-584.865	-41.662	-0.248	-0.128
-583.850	-200.000	-0.014	-0.126
-582.836	43.013	0.131	-0.120
-581.821	544.480	0.157	0.376
-580.806	-67.924	0.034	0.013
-579.792	76.653	-0.079	-0.084
-578.777	141.827	-0.213	0.283
-577.763	-133.501	-0.203	0.026
-576.748	40.972	-0.291	-0.263
-575.733	-16.581	0.310	-0.197
-574.719	-200.000	-0.028	-0.186
-573.704	-24.609	0.297	-0.177
-572.690	60.188	-0.102	-0.101
-571.675	22.591	0.071	0.058
-570.661	-200.000	0.029	0.352
-569.646	218.695	0.222	0.356
-568.631	-34.599	0.135	-0.074
-567.617	317.528	-0.030	-0.056
-566.602	59.552	0.119	-0.118
-565.588	-140.856	0.221	-0.023
-564.573	800.000	0.085	0.274
-563.558	-19.669	-0.209	0.130
-562.544	-103.217	0.379	0.090
-561.529	29.780	0.249	-0.212
-560.515	800.000	-0.110	-0.342
-559.500	41.698	0.090	-0.082
-558.485	116.318	-0.033	-0.040
-557.471	170.442	-0.117	0.167
-556.456	800.000	0.067	-0.188
-555.442	-25.787	0.231	0.137
-554.427	-25.380	-0.163	0.097
-553.412	140.111	-0.063	0.083
-552.398	-200.000	-0.023	-0.269
-551.383	-200.000	0.063	0.296
-550.369	424.380	-0.102	-0.220
-549.354	-29.412	0.182	-0.104
-548.339	-200.000	-0.012	-0.342
-547.325	364.055	-0.033	-0.067
-546.310	729.296	0.045	-0.121
-545.296	800.000	-0.141	-0.416
-544.281	-103.660	-0.128	-0.030
-543.266	42.554	-0.217	-0.198
-542.252	12.001	0.102	0.079
-541.237	-200.000	0.023	-0.164
-540.223	-149.658	-0.376	-0.030
-539.208	87.985	-0.121	0.134
-538.193	65.380	0.145	-0.147
-537.179	276.190	-0.088	-0.156
-536.164	-200.000	0.003	-0.034
-535.150	407.581	-0.036	0.076
-534.135	-64.504	0.186	-0.076
-533.121	800.000	0.066	0.192
-532.106	278.663	0.026	0.046
-531.091	616.783	-0.071	-0.179
-530.077	-61.035	-0.113	-0.048
-529.062	-200.000	-0.038	0.290
-528.048	53.098	-0.202	-0.193
-527.033	-96.906	0.314	0.083
-526.018	-38.653	0.275	0.145
-525.004	-37.790	0.095	0.051
-523.989	-99.093	0.231	-0.059
-522.975	-74.828	-0.259	-0.093
-521.960	-61.843	-0.129	-0.054
-520.945	-200.000	0.031	-0.137
-519.931	338.532	-0.081	-0.159
-518.916	422.047	-0.045	-0.096
-517.902	-118.911	-0.103	-0.018
-516.887	800.000	0.060	-0.234
-515.872	-94.725	-0.104	0.028
-514.858	25.774	-0.094	-0.079
-513.843	800.000	-0.008	0.023
-512.829	-41.245	0.249	-0.128
-511.814	-111.850	-0.450	-0.091
-510.799	-169.543	-0.084	-0.003
-509.785	-104.704	0.067	0.015
-508.770	-10.051	0.200	0.133
-507.756	129.474	-0.052	-0.066
-506.741	-200.000	-0.016	0.136
-505.726	-48.358	-0.188	-0.091
-504.712	800.000	0.067	-0.192
-503.697	-103.246	-0.201	0.047
-502.683	588.871	-0.027	-0.066
-501.668	-56.872	0.117	0.052
-500.653	60.763	-0.071	0.071
-499.639	175.166	-0.111	-0.161
-498.624	47.128	0.074	-0.069
-497.610	-87.813	-0.180	-0.054
-496.595	290.919	-0.041	0.075
-495.581	239.941	0.081	-0.135
-494.566	-122.482	0.278	0.045
-493.551	-140.010	0.235	-0.025
-492.537	77.763	0.083	0.088
-491.522	-200.000	-0.068	0.298
-490.508	148.858	0.128	0.173
-489.493	30.209	-0.237	-0.202
-488.478	-16.044	-0.129	0.082
-487.464	138.578	-0.033	-0.044
-486.449	-78.924	-0.516	0.176
-485.435	-200.000	-0.046	0.266
-484.420	800.000	0.061	0.232
-483.405	-200.000	-0.014	-0.219
-482.391	-46.829	0.271	0.133
-481.376	114.444	0.079	0.096
-480.362	-34.779	-0.164	-0.090
-479.347	91.703	0.180	-0.202
-478.332	277.845	-0.091	-0.162
-477.318	58.215	0.064	0.063
-476.303	26.073	-0.187	-0.156
-475.289	-94.635	0.047	0.013
-474.274	78.656	-0.214	0.228
-473.259	123.620	-0.072	-0.090
-472.245	316.236	-0.269	-0.507
-471.230	-39.452	-0.088	-0.046
-470.216	-8.849	0.274	0.183
-469.201	-200.000	0.007	0.119
-468.186	-14.413	-0.256	-0.164
-467.172	-11.430	-0.198	-0.130
-466.157	800.000	-0.024	-0.088
-465.143	787.161	-0.014	-0.038
-464.128	48.677	-0.077	0.072
-463.113	-200.000	0.007	0.128
-462.099	-71.462	-0.224	-0.084
-461.084	292.176	-0.072	-0.132
-460.070	39.002	0.044	-0.039
-459.055	71.509	0.194	-0.201
-458.040	-200.000	0.028	-0.206
-457.026	-127.826	-0.225	0.032
-456.011	157.075	-0.075	0.103
-454.997	30.071	-0.113	-0.096
-453.982	-200.000	-0.019	0.207
-452.968	787.877	-0.111	0.304
-451.953	-200.000	-0.001	-0.127
-450.938	289.146	-0.058	-0.105
-449.924	-200.000	0.093	0.480
-448.909	800.000	0.130	0.394
-447.895	-200.000	-0.002	-0.030
-446.880	-132.287	-0.138	-0.018
-445.865	3.490	-0.201	0.146
-444.851	477.541	-0.140	0.316
-443.836	593.636	0.112	0.276
-442.822	-119.175	-0.367	0.064
-441.807	-200.000	0.033	0.363
-440.792	-95.487	0.098	0.026
-439.778	129.781	0.086	-0.109
-438.763	-200.000	-0.019	0.094
-437.749	-33.180	-0.307	-0.170
-436.734	-151.323	-0.129	-0.010
-435.719	-151.593	-0.488	0.036
-434.705	-37.311	0.291	0.155
-433.690	9.150	-0.251	0.189
-432.676	-115.338	-0.328	-0.062
-431.661	-81.638	0.230	-0.075
-430.646	6.152	-0.233	-0.172
-429.632	208.316	-0.109	-0.170
-428.617	351.958	-0.073	0.144
-427.603	-108.983	0.206	-0.044
-426.588	-125.242	0.063	-0.010
-425.573	-22.779	0.113	0.068
-424.559	94.321	0.155	0.176
-423.544	-200.000	0.029	-0.235
-422.530	800.000	-0.014	-0.044
-421.515	800.000	0.075	-0.243
-420.500	-99.629	0.333	0.083
-419.486	800.000	0.080	-0.255
-418.471	-112.063	0.150	-0.030
-417.457	800.000	0.112	-0.360
-416.442	-98.376	-0.179	-0.046
-415.428	85.169	-0.242	0.264
-414.413	479.446	-0.135	0.305
-413.398	32.709	-0.255	-0.220
-412.384	-164.392	0.352	0.016
-411.369	670.045	0.040	0.104
-410.355	-82.062	-0.051	0.016
-409.340	244.888	0.062	-0.103
-408.325	271.244	-0.219	-0.384
-407.311	800.000	0.090	-0.279
-406.296	50.370	-0.076	-0.071
-405.282	-174.258	0.125	0.004
-404.267	20.624	-0.151	-0.121
-403.252	628.503	-0.039	-0.097
-402.238	-80.481	0.115	0.038
-401.223	-152.791	-0.136	-0.010
-400.209	-120.509	0.237	0.040
-399.194	-72.313	-0.291	0.107
-398.179	-151.399	0.154	-0.011
-397.165	-52.953	0.187	-0.086
-396.150	368.221	0.040	-0.080
-395.136	151.199	-0.145	-0.197
-394.121	-164.313	-0.176	0.008
-393.106	-85.871	0.134	0.041
-392.092	-198.719	-0.557	-0.003
-391.077	16.906	-0.369	0.291
-390.063	-200.000	0.009	0.042
-389.048	31.755	0.089	-0.076
-388.033	-92.701	0.161	0.045
-387.019	-98.353	-0.007	0.002
-386.004	800.000	-0.042	-0.176
-384.990	-117.837	-0.123	-0.022
-383.975	-160.299	-0.141	0.008
-382.960	-200.000	0.017	-0.198
-381.946	371.699	0.170	0.343
-380.931	-150.592	-0.055	0.004
-379.917	14.833	-0.201	-0.156
-378.902	68.169	0.199	0.202
-377.888	599.458	-0.084	0.208
-376.873	485.078	-0.089	0.201
-375.858	-174.158	-0.117	-0.003
-374.844	24.202	-0.166	0.136
-373.829	100.486	-0.211	0.244
-372.815	-22.719	-0.125	-0.075
-371.800	800.000	-0.013	0.055
-370.785	-70.889	0.254	-0.095
-369.771	522.687	0.066	-0.155
-368.756	-21.291	-0.179	-0.109
-367.742	-104.202	0.177	0.041
-366.727	-82.549	-0.101	-0.032
-365.712	84.716	0.054	-0.059
-364.698	-186.232	-0.086	0.001
-363.683	-200.000	-0.047	-0.230
-362.669	730.417	0.025	-0.067
-361.654	-200.000	-0.021	0.163
-360.639	-116.005	0.329	-0.061
-359.625	114.576	0.146	0.177
-358.610	-87.358	0.377	0.114
-357.596	-19.066	0.258	-0.159
-356.581	103.015	0.152	-0.177
-355.566	-200.000	0.026	0.154
-354.552	800.000	0.039	-0.118
-353.537	-152.542	0.234	0.017
-352.523	163.672	-0.131	0.183
-351.508	-200.000	0.021	0.423
-350.493	-70.346	0.291	0.110
-349.479	-106.904	0.093	-0.020
-348.464	124.250	0.062	-0.078
-347.450	57.518	0.077	0.075
-346.435	-129.271	0.176	-0.024
-345.420	-19.780	0.118	-0.072
-344.406	153.546	-0.120	-0.164
-343.391	800.000	-0.079	-0.335
-342.377	-200.000	0.049	-0.422
-341.362	-113.508	0.075	-0.015
-340.348	-200.000	0.026	-0.201
-339.333	-146.793	0.091	-0.008
-338.318	115.516	0.148	-0.180
-337.304	157.249	-0.078	-0.107
-336.289	-65.833	0.145	-0.058
-335.275	-91.337	0.324	0.092
-334.260	-200.000	0.022	0.212
-333.245	-6.300	0.035	0.024
-332.231	63.877	0.062	-0.062
-331.216	-200.000	0.011	-0.302
-330.202	91.466	0.168	0.187
-329.187	-42.455	0.118	0.060
-328.172	-200.000	-0.028	-0.303
-327.158	187.293	0.160	-0.236
-326.143	370.758	0.033	-0.067
-325.129	-120.112	-0.145	-0.025
-324.114	-23.990	0.152	-0.090
-323.099	800.000	0.128	0.420
-322.085	-93.464	0.228	-0.063
-321.070	-105.230	0.200	-0.045
-320.056	64.674	-0.351	-0.352
-319.041	-200.000	-0.001	-0.341
-318.026	-167.685	-0.122	0.005
-317.012	-31.881	-0.502	-0.279
-315.997	291.623	-0.125	-0.225
-314.983	181.572	-0.123	-0.179
-313.968	-200.000	-0.044	-0.239
-312.953	-69.455	-0.152	0.058
-311.939	800.000	0.125	0.434
-310.924	-200.000	0.085	0.485
-309.910	134.993	-0.222	0.286
-308.895	-200.000	0.016	-0.081
-307.880	46.204	-0.290	-0.267
-306.866	800.000	0.012	0.042
-305.851	48.567	-0.150	-0.140
-304.837	34.399	-0.112	0.097
-303.822	23.819	-0.031	0.025
-302.807	-200.000	0.008	-0.040
-301.793	148.176	0.070	-0.094
-300.778	292.278	-0.046	0.083
-299.764	-82.652	-0.186	0.060
-298.749	-112.176	-0.037	0.007
-297.735	254.177	-0.046	-0.078
-296.720	-100.322	0.282	0.069
-295.705	82.595	0.270	0.290
-294.691	-92.983	0.281	0.078
-293.676	-136.035	0.366	0.043
-292.662	-79.741	-0.352	0.118
-291.647	157.617	-0.049	0.068
-290.632	-40.991	-0.338	-0.173
-289.618	47.404	-0.174	0.161
-288.603	83.069	-0.131	0.141
-287.589	-200.000	0.014	0.095
-286.574	-111.663	0.452	0.091
-285.559	216.258	-0.022	-0.034
-284.545	-55.805	0.326	-0.144
-283.530	800.000	0.031	-0.115
-282.516	-121.772	-0.176	-0.029
-281.501	41.969	0.296	0.266
-280.486	-95.737	0.394	0.104
-279.472	-143.414	0.231	-0.022
-278.457	-169.835	-0.328	-0.012
-277.443	800.000	0.090	0.286
-276.428	-95.373	0.291	0.077
-275.413	-95.693	-0.165	0.044
-274.399	-48.181	-0.158	-0.075
-273.384	-43.893	-0.236	0.118
-272.370	74.032	-0.226	0.235
-271.355	482.094	0.060	0.136
-270.340	-134.941	0.227	0.027
-269.326	-173.581	-0.227	0.007
-268.311	-126.186	0.135	0.020
-267.297	163.844	-0.180	0.251
-266.282	202.918	-0.071	-0.109
-265.267	-52.027	0.079	-0.036
-264.253	284.975	0.065	0.117
-263.238	324.001	-0.137	0.259
-262.224	-2.538	0.193	-0.134
-261.209	-89.147	-0.178	0.052
-260.195	-200.000	0.010	-0.271
-259.180	-200.000	0.064	-0.287
-258.165	324.170	-0.024	0.045
-257.151	800.000	-0.031	-0.102
-256.136	-39.946	-0.237	0.123
-255.122	67.402	0.145	-0.147
-254.107	800.000	-0.017	-0.050
-253.092	-73.652	-0.244	0.088
-252.078	232.819	-0.066	-0.108
-251.063	-54.939	0.091	0.040
-250.049	14.642	0.050	-0.039
-249.034	800.000	0.068	-0.205
-248.019	77.603	0.244	-0.257
-247.005	108.809	-0.063	0.075
-245.990	75.775	-0.226	-0.236
-244.976	-79.221	0.094	-0.031
-243.961	24.462	-0.252	0.207
-242.946	-76.057	-0.299	-0.105
-241.932	-200.000	0.019	-0.220
-240.917	8.201	0.251	-0.187
-239.903	31.776	-0.181	0.154
-238.888	-58.181	0.227	-0.098
-237.873	647.744	-0.009	0.022
-236.859	-200.000	-0.046	-0.209
-235.844	-116.714	0.029	-0.005
-234.830	29.812	0.129	-0.109
-233.815	39.845	0.091	-0.081
-232.800	501.350	0.080	-0.182
-231.786	-63.252	-0.042	-0.017
-230.771	-200.000	0.034	-0.195
-229.757	190.131	-0.038	-0.056
-228.742	-186.813	0.144	0.002
-227.727	57.827	0.166	0.161
-226.713	334.604	0.157	0.300
-225.698	-112.833	-0.162	0.032
-224.684	152.916	0.072	-0.098
-223.669	165.440	-0.151	-0.212
-222.655	-25.016	-0.144	-0.084
-221.640	-124.747	0.150	-0.023
-220.625	-200.000	-0.026	0.132
-219.611	-133.465	0.229	-0.028
-218.596	755.438	-0.086	-0.230
-217.582	-58.453	-0.112	0.048
-216.567	800.000	-0.016	-0.048
-215.552	-77.071	0.096	0.033
-214.538	-200.000	0.029	0.305
-213.523	-16.438	-0.155	0.097
-212.509	-30.551	0.198	0.111
-211.494	-152.930	0.214	-0.015
-210.479	114.059	-0.152	0.182
-209.465	-46.791	0.458	0.221
-208.450	-158.626	-0.195	-0.011
-207.436	-194.644	-0.073	-0.001
-206.421	-60.289	-0.085	0.036
-205.406	-200.000	-0.024	0.437
-204.392	800.000	-0.086	0.250
-203.377	-3.413	0.135	0.093
-202.363	170.455	-0.169	0.239
-201.348	340.071	0.087	0.167
-200.333	-127.746	0.368	0.052
-199.319	-200.000	-0.010	0.069
-198.304	-105.466	-0.047	0.010
-197.290	-21.307	-0.214	-0.129
-196.275	85.502	0.180	-0.195
-195.260	800.000	-0.121	-0.385
-194.246	-130.596	0.251	-0.033
-193.231	-200.000	0.021	0.309
-192.217	-200.000	0.005	0.234
-191.202	719.943	0.086	-0.227
-190.187	-26.016	-0.223	-0.129
-189.173	-30.922	-0.146	0.081
-188.158	314.644	0.115	-0.213
-187.144	-163.953	0.065	0.003
-186.129	-147.972	-0.069	0.006
-185.114	-115.600	0.176	-0.033
-184.100	-200.000	0.018	-0.149
-183.085	366.610	-0.067	-0.134
-182.071	301.671	0.124	-0.226
-181.056	-101.725	-0.125	0.030
-180.042	76.864	0.217	-0.228
-179.027	97.912	-0.080	0.091
-178.012	-200.000	-0.018	0.280
-176.998	428.820	-0.046	0.099
-175.983	-200.000	-0.004	-0.186
-174.969	-200.000	0.035	0.290
-173.954	192.573	-0.070	0.104
-172.939	323.322	-0.106	0.200
-171.925	-142.422	-0.101	0.010
-170.910	-60.754	0.103	-0.043
-169.896	416.311	-0.117	-0.247
-168.881	392.894	0.207	-0.424
-167.866	27.528	0.246	-0.204
-166.852	-101.236	-0.240	-0.058
-165.837	-55.563	0.384	0.170
-164.823	25.471	0.205	-0.168
-163.808	-133.393	-0.167	-0.021
-162.793	-60.757	0.131	0.055
-161.779	265.777	0.054	-0.094
-160.764	-44.249	-0.227	0.112
-159.750	256.091	-0.087	-0.147
-158.735	800.000	-0.016	0.045
-157.720	268.673	0.031	-0.053
-156.706	630.700	0.084	-0.210
-155.691	45.825	-0.034	-0.031
-154.677	-200.000	0.013	0.060
-153.662	-64.963	0.215	0.086
-152.647	-130.677	0.363	-0.048
-151.633	-200.000	-0.010	0.092
-150.618	103.166	0.093	-0.107
-149.604	-61.323	-0.350	0.145
-148.589	800.000	-0.088	0.276
-147.574	238.616	0.132	0.216
-146.560	125.217	0.145	0.180
-145.545	800.000	-0.046	-0.164
-144.531	61.754	-0.170	-0.167
-143.516	16.887	0.202	0.158
-142.502	-123.708	0.206	0.032
-141.487	-200.000	-0.007	-0.215
-140.472	-94.652	0.120	-0.032
-139.458	50.322	0.177	-0.165
-138.443	14.325	-0.048	0.037
-137.429	116.597	0.126	0.153
-136.414	-117.970	-0.219	-0.039
-135.399	141.729	-0.247	0.322
-134.385	61.942	0.277	-0.273
-133.370	427.847	0.092	0.195
-132.356	-184.688	-0.086	0.001
-131.341	78.492	-0.148	0.156
-130.326	-200.000	-0.244	-0.001
-129.312	99.571	-0.112	0.128
-128.297	-4.378	-0.044	0.030
-127.283	800.000	-0.091	-0.380
-126.268	32.899	-0.072	-0.061
-125.253	-10.482	-0.174	0.113
-124.239	-200.000	0.021	0.123
-123.224	505.588	-0.025	0.056
-122.210	-200.000	-0.002	-0.075
-121.195	-200.000	-0.036	0.198
-120.180	-200.000	-0.028	-0.159
-119.166	-200.000	0.045	-0.199
-118.151	-81.447	0.233	0.075
-117.137	202.108	0.156	0.237
-116.122	-200.000	0.012	-0.185
-115.107	272.561	0.042	0.073
-114.093	40.249	-0.128	-0.114
-113.078	-39.555	-0.357	-0.184
-112.064	-89.547	-0.150	0.043
-111.049	-64.238	0.158	-0.063
-110.034	-86.481	0.318	0.096
-109.020	329.946	0.045	-0.086
-108.005	743.912	-0.034	0.089
-106.991	13.412	0.305	0.233
-105.976	22.042	-0.194	-0.156
-104.962	-139.177	0.198	0.021
-103.947	-144.436	-0.272	0.025
-102.932	-105.254	-0.214	0.048
-101.918	-23.611	-0.069	0.041
-100.903	800.000	0.060	-0.182
-99.889	-200.000	0.015	-0.206
-98.874	134.742	0.049	0.062
-97.859	328.765	-0.048	0.091
-96.845	163.554	-0.304	0.421
-95.830	509.728	0.083	0.191
-94.816	164.897	0.102	-0.142
-93.801	661.508	0.084	0.213
-92.786	-56.379	0.276	0.121
-91.772	-200.000	-0.036	0.232
-90.757	632.013	-0.073	-0.181
-89.743	-200.000	-0.077	-0.341
-88.728	800.000	-0.115	-0.330
-87.713	514.796	-0.104	0.238
-86.699	-137.088	0.098	0.011
-85.684	88.955	-0.243	0.266
-84.670	61.139	0.247	-0.241
-83.655	-46.742	-0.150	0.072
-82.640	-97.437	0.089	-0.023
-81.626	-90.159	-0.099	-0.028
-80.611	306.011	0.055	0.101
-79.597	-76.230	-0.261	-0.091
-78.582	-200.000	-0.081	-0.390
-77.567	257.607	0.054	-0.092
-76.553	-150.986	-0.217	0.016
-75.538	800.000	0.120	0.484
-74.524	-106.187	0.144	-0.032
-73.509	800.000	-0.043	-0.163
-72.494	-146.888	0.036	0.003
-71.480	-200.000	-0.009	-0.279
-70.465	-82.924	0.084	-0.027
-69.451	800.000	0.074	-0.236
-68.436	-192.062	-0.132	0.001
-67.422	-101.770	0.093	-0.022
-66.407	12.120	-0.219	-0.166
-65.392	-200.000	0.024	0.161
-64.378	-114.417	-0.171	0.032
-63.363	-44.668	-0.181	0.089
-62.349	-132.061	-0.210	-0.027
-61.334	137.059	-0.886	-1.138
-60.319	122.095	0.553	0.678
-59.305	-200.000	-0.086	-0.785
-58.290	305.629	0.641	1.171
-57.276	-200.000	0.300	1.516
-56.261	-200.000	96.706	582.932
-55.246	498.056	1417.598	3206.751
-54.232	149.515	2640.059	3512.979
-53.217	103.832	2332.906	2692.500
-52.203	40.559	1948.001	1723.972
-51.188	34.087	1733.750	1484.020
-50.173	31.436	1689.407	1425.817
-49.159	49.693	1736.341	1606.792
-48.144	50.611	1752.318	1628.596
-47.130	33.802	1713.537	1464.284
-46.115	31.120	1698.943	1431.213
-45.100	30.917	1694.246	1425.648
-44.086	30.875	1691.376	1422.858
-43.071	30.831	1689.391	1420.798
-42.057	30.798	1686.752	1418.269
-41.042	30.816	1684.479	1416.436
-40.027	30.838	1682.703	1415.053
-39.013	30.864	1680.459	1413.308
-37.998	30.760	1678.968	1411.214
-36.984	30.860	1677.397	1410.594
-35.969	30.915	1676.302	1410.028
-34.954	31.055	1674.550	1409.559
-33.940	30.937	1673.184	1407.465
-32.925	30.924	1671.564	1405.944
-31.911	30.933	1669.626	1404.331
-30.896	30.986	1667.263	1402.688
-29.881	30.907	1665.796	1400.798
-28.867	30.945	1663.906	1399.440
-27.852	30.923	1662.797	1398.286
-26.838	30.799	1661.433	1396.158
-25.823	30.962	1659.453	1395.653
-24.809	30.956	1658.706	1394.931
-23.794	31.027	1656.846	1393.841
-22.779	30.965	1655.707	1392.362
-21.765	30.913	1653.953	1390.443
-20.750	30.964	1652.450	1389.509
-19.736	30.949	1650.959	1388.084
-18.721	31.030	1649.142	1387.105
-17.706	30.982	1647.434	1385.258
-16.692	30.946	1645.699	1383.474
-15.677	30.870	1645.266	1382.493
-14.663	31.031	1643.724	1382.334
-13.648	31.111	1641.949	1381.379
-12.633	30.994	1640.433	1379.188
-11.619	30.999	1638.661	1377.677
-10.604	30.910	1637.588	1376.066
-9.590	30.991	1636.170	1375.415
-8.575	30.992	1635.226	1374.571
-7.560	30.897	1633.912	1372.713
-6.546	30.920	1632.946	1372.016
-5.531	30.890	1631.693	1370.690
-4.517	30.907	1630.562	1369.807
-3.502	30.942	1628.903	1368.622
-2.487	31.123	1627.426	1368.649
-1.473	30.936	1616.069	1357.686
-0.458	28.600	1597.064	1324.823
0.556	23.943	1597.010	1290.553
1.571	21.029	1620.298	1287.771
2.586	19.946	1632.572	1289.351
3.600	17.654	1578.356	1229.900
4.615	10.027	1465.579	1090.628
5.629	2.578	1400.327	993.797
6.644	1.088	1391.933	978.142
7.659	1.047	1390.721	976.943
8.673	0.966	1389.975	975.809
9.688	0.979	1387.396	973.996
10.702	0.775	1384.703	970.707
11.717	3.934	1389.895	994.594
12.731	11.567	1401.248	1051.942
13.746	16.485	1408.448	1089.010
14.761	17.397	1408.453	1094.788
15.775	16.798	1406.473	1089.298
16.790	15.855	1403.630	1080.950
17.804	15.045	1401.542	1074.050
18.819	14.660	1399.989	1070.296
19.834	14.343	1398.563	1067.082
20.848	14.128	1397.657	1064.922
21.863	13.799	1396.174	1061.591
22.877	13.673	1394.759	1059.614
23.892	13.613	1393.900	1058.489
24.907	13.604	1393.153	1057.766
25.921	13.622	1392.628	1057.393
26.936	13.570	1391.346	1055.992
27.950	13.750	1389.852	1055.909
28.965	13.750	1389.712	1055.710
29.980	13.759	1388.588	1054.821
30.994	13.843	1387.391	1054.350
32.009	13.817	1386.518	1053.429
33.023	13.880	1385.031	1052.608
34.038	13.879	1383.572	1051.400
35.053	13.732	1383.075	1049.999
36.067	13.768	1381.736	1049.113
37.082	13.901	1380.261	1048.742
38.096	13.866	1379.523	1047.868
39.111	13.792	1378.905	1046.839
40.126	13.739	1378.102	1045.806
41.140	13.683	1377.344	1044.784
42.155	13.605	1377.131	1044.035
43.169	13.612	1377.152	1044.002
44.184	13.545	1377.259	1043.570
45.199	13.644	1376.263	1043.348
46.213	13.680	1375.450	1042.866
47.228	13.595	1374.556	1041.563
48.242	13.626	1373.453	1040.827
49.257	13.621	1372.158	1039.722
50.271	13.607	1370.634	1038.390
51.286	13.611	1369.471	1037.443
52.301	13.629	1367.975	1036.325
53.315	13.667	1367.017	1035.746
54.330	13.704	1365.502	1034.739
55.344	13.641	1364.511	1033.501
56.359	13.700	1363.055	1032.676
57.374	13.587	1362.329	1031.333
58.388	13.605	1361.760	1030.921
59.403	13.587	1361.186	1030.283
60.417	13.567	1360.439	1029.507
61.432	13.556	1359.608	1028.717
62.447	13.554	1358.385	1027.689
63.461	13.500	1357.483	1026.576
64.476	13.486	1356.478	1025.640
65.490	13.495	1355.041	1024.517
66.505	13.623	1353.551	1024.092
67.520	13.553	1352.568	1022.828
68.534	13.610	1350.937	1021.854
69.549	13.598	1349.995	1020.980
70.563	13.502	1348.901	1019.470
71.578	13.546	1348.053	1019.011
72.593	13.464	1347.137	1017.723
73.607	13.490	1346.294	1017.155
74.622	13.511	1345.290	1016.435
75.636	13.455	1344.461	1015.374
76.651	13.534	1343.429	1014.990
77.666	13.506	1343.465	1014.753
78.680	13.513	1342.727	1014.152
79.695	13.429	1341.729	1012.791
80.709	13.481	1340.962	1012.443
81.724	13.614	1339.622	1012.152
82.739	13.585	1338.957	1011.385
83.753	13.605	1338.083	1010.756
84.768	13.624	1337.044	1009.997
85.782	13.704	1335.616	1009.316
86.797	13.628	1334.360	1007.818
87.812	13.508	1333.570	1006.403
88.826	13.718	1331.758	1006.219
89.841	13.669	1330.980	1005.245
90.855	13.607	1330.102	1004.119
91.870	13.736	1328.637	1003.702
92.884	13.785	1328.206	1003.588
93.899	13.742	1327.665	1002.831
94.914	13.709	1326.877	1001.944
95.928	13.798	1325.833	1001.608
96.943	13.803	1324.852	1000.808
97.957	13.663	1324.255	999.424
98.972	13.660	1322.799	998.218
99.987	13.691	1322.086	997.779
101.001	13.774	1321.114	997.452
102.016	13.666	1320.290	996.093
103.030	13.745	1319.188	995.648
104.045	13.689	1318.164	994.455
105.060	13.594	1317.243	993.101
106.074	13.697	1315.202	992.092
107.089	13.678	1314.119	991.070
108.103	13.589	1313.311	989.844
109.118	13.540	1311.803	988.330
110.133	13.623	1310.357	987.643
111.147	13.557	1309.001	986.144
112.162	13.622	1307.507	985.316
113.176	13.612	1306.730	984.586
114.191	13.685	1305.542	984.038
115.206	13.761	1304.043	983.268
116.220	13.678	1302.931	981.854
117.235	13.743	1302.043	981.483
118.249	13.689	1301.304	980.516
119.264	13.639	1299.800	979.005
120.279	13.662	1298.870	978.351
121.293	13.738	1297.715	977.845
122.308	13.710	1296.343	976.556
123.322	13.739	1295.212	975.790
124.337	13.666	1294.349	974.626
125.352	13.655	1293.342	973.714
126.366	13.631	1292.114	972.565
127.381	13.709	1290.939	972.052
128.395	13.740	1289.584	971.126
129.410	13.563	1289.034	969.592
130.424	13.696	1288.071	969.554
131.439	13.712	1286.955	968.722
132.454	13.719	1285.919	967.898
133.468	13.750	1285.121	967.396
134.483	13.615	1284.806	966.286
135.497	13.717	1283.274	965.638
136.512	13.654	1282.043	964.262
137.527	13.814	1280.158	963.687
138.541	13.715	1278.842	962.037
139.556	13.748	1277.479	961.117
140.570	13.785	1276.483	960.498
141.585	13.886	1275.108	959.961
142.600	13.863	1273.840	958.793
143.614	13.871	1272.907	958.050
144.629	13.882	1272.331	957.593
145.643	13.779	1271.076	955.974
146.658	13.784	1269.612	954.818
147.673	13.769	1268.274	953.638
148.687	13.773	1267.081	952.681
149.702	13.698	1265.976	951.336
150.716	13.731	1264.372	950.237
151.731	13.672	1263.013	948.793
152.746	13.826	1261.881	948.736
153.760	13.837	1260.715	947.843
154.775	13.801	1259.810	946.871
155.789	13.847	1258.816	946.301
156.804	13.932	1257.497	945.711
157.819	13.908	1256.764	944.937
158.833	13.918	1255.605	944.041
159.848	13.948	1255.067	943.724
160.862	14.033	1253.727	943.114
161.877	13.907	1253.134	941.869
162.892	13.777	1251.899	940.121
163.906	13.865	1250.860	939.755
164.921	13.870	1250.491	939.427
165.935	13.938	1248.939	938.557
166.950	14.014	1248.419	938.515
167.964	14.068	1247.598	938.118
168.979	13.914	1247.127	936.814
169.994	14.035	1245.858	936.462
171.008	14.029	1244.735	935.502
172.023	14.038	1244.259	935.110
173.037	14.024	1243.891	934.674
174.052	14.105	1242.272	933.826
175.067	14.080	1241.307	932.878
176.081	14.071	1240.248	931.947
177.096	14.057	1239.854	931.494
178.110	14.068	1238.680	930.587
179.125	14.042	1237.492	929.472
180.140	14.094	1235.994	928.552
181.154	14.146	1234.669	927.768
182.169	14.121	1233.831	926.913
183.183	14.184	1232.237	925.987
184.198	14.161	1231.364	925.117
185.213	14.163	1230.128	924.119
186.227	14.271	1229.176	923.925
187.242	14.353	1227.553	923.078
188.256	14.392	1226.366	922.316
189.271	14.279	1225.840	921.213
190.286	14.214	1224.809	919.999
191.300	14.125	1224.474	919.173
192.315	14.163	1223.832	918.822
193.329	14.255	1222.896	918.546
194.344	14.213	1222.546	917.969
195.359	14.324	1221.402	917.639
196.373	14.295	1221.054	917.135
197.388	14.394	1220.824	917.428
198.402	14.335	1220.189	916.545
199.417	14.469	1218.932	916.255
200.432	14.509	1218.194	915.841
201.446	14.494	1217.879	915.441
202.461	14.595	1216.501	914.876
203.475	14.448	1215.710	913.395
204.490	14.527	1214.515	912.849
205.504	14.475	1213.391	911.639
206.519	14.412	1212.182	910.310
207.534	14.458	1210.900	909.513
208.548	14.564	1209.877	909.244
209.563	14.505	1209.376	908.465
210.577	14.533	1208.323	907.749
211.592	14.524	1207.727	907.171
212.607	14.665	1206.465	906.910
213.621	14.541	1205.647	905.540
214.636	14.582	1204.459	904.791
215.650	14.621	1203.460	904.169
216.665	14.576	1203.079	903.558
217.680	14.662	1201.915	903.071
218.694	14.667	1201.098	902.405
219.709	14.766	1200.314	902.268
220.723	14.717	1199.667	901.437
221.738	14.743	1199.080	901.057
222.753	14.707	1198.169	900.102
223.767	14.789	1197.096	899.657
224.782	14.825	1196.597	899.394
225.796	14.852	1196.471	899.366
226.811	14.861	1195.263	898.426
227.826	14.735	1195.309	897.706
228.840	14.859	1193.766	897.135
229.855	14.843	1193.239	896.570
230.869	14.813	1192.598	895.852
231.884	14.847	1191.740	895.307
232.899	14.865	1190.720	894.561
233.913	14.788	1190.335	893.779
234.928	14.792	1189.718	893.259
235.942	14.955	1188.460	893.103
236.957	14.854	1187.871	892.045
237.972	14.759	1187.408	891.112
238.986	14.799	1186.679	890.699
240.001	14.923	1185.251	890.209
241.015	14.882	1184.769	889.546
242.030	14.967	1183.736	889.147
243.045	15.050	1182.903	888.880
244.059	14.987	1182.101	887.867
245.074	14.914	1181.571	887.003
246.088	14.985	1180.528	886.519
247.103	15.014	1179.792	886.038
248.117	15.047	1179.070	885.594
249.132	15.123	1178.225	885.282
250.147	15.158	1177.266	884.671
251.161	15.100	1176.820	883.947
252.176	15.169	1176.283	883.832
253.190	15.164	1175.905	883.444
254.205	15.282	1174.828	883.177
255.220	15.217	1174.669	882.637
256.234	15.217	1174.046	882.091
257.249	15.348	1172.805	881.766
258.263	15.353	1172.491	881.480
259.278	15.400	1171.572	880.957
260.293	15.315	1171.569	880.430
261.307	15.274	1171.002	879.714
262.322	15.375	1169.854	879.301
263.336	15.412	1169.335	879.029
264.351	15.519	1168.608	878.965
265.366	15.444	1168.290	878.254
266.380	15.525	1167.305	877.862
267.395	15.471	1166.597	876.967
268.409	15.518	1165.629	876.408
269.424	15.384	1165.544	875.565
270.439	15.408	1164.557	874.874
271.453	15.538	1163.761	874.873
272.468	15.509	1162.684	873.840
273.482	15.518	1161.894	873.211
274.497	15.560	1161.348	872.945
275.512	15.606	1160.544	872.500
276.526	15.630	1159.791	871.984
277.541	15.572	1158.784	870.845
278.555	15.647	1158.230	870.742
279.570	15.598	1157.640	869.970
280.585	15.627	1156.635	869.287
281.599	15.801	1155.396	869.175
282.614	15.723	1154.662	868.147
283.628	15.657	1154.032	867.252
284.643	15.662	1153.379	866.712
285.657	15.669	1152.442	865.965
286.672	15.791	1151.010	865.444
287.687	15.809	1150.140	864.802
288.701	15.664	1149.781	863.712
289.716	15.802	1148.889	863.676
290.730	15.761	1147.520	862.358
291.745	15.779	1147.230	862.156
292.760	15.760	1146.842	861.690
293.774	15.818	1146.124	861.372
294.789	15.945	1145.092	861.173
295.803	16.040	1144.897	861.430
296.818	15.805	1144.180	859.617
297.833	15.904	1142.902	859.086
298.847	15.943	1142.280	858.739
299.862	15.967	1141.801	858.427
300.876	15.932	1140.863	857.469
301.891	16.035	1140.267	857.466
302.906	16.009	1139.694	856.828
303.920	16.033	1138.854	856.243
304.935	16.083	1138.061	855.827
305.949	16.134	1137.326	855.457
306.964	16.137	1136.805	855.006
307.979	16.142	1135.923	854.289
308.993	16.178	1135.086	853.767
310.008	16.170	1134.545	853.243
311.022	16.100	1134.082	852.467
312.037	16.141	1133.064	851.831
313.052	16.186	1132.270	851.388
314.066	16.050	1131.311	849.906
315.081	16.124	1130.429	849.541
316.095	16.076	1129.685	848.666
317.110	16.259	1128.693	848.766
318.125	16.232	1128.064	848.082
319.139	16.155	1127.196	846.965
320.154	16.087	1126.895	846.322
321.168	16.154	1126.014	845.926
322.183	16.225	1125.580	845.880
323.197	16.159	1125.111	845.119
324.212	16.174	1124.423	844.605
325.227	16.291	1123.529	844.443
326.241	16.164	1123.297	843.559
327.256	16.247	1122.497	843.300
328.270	16.363	1121.332	842.930
329.285	16.228	1120.544	841.586
330.300	16.271	1119.342	840.824
331.314	16.333	1118.403	840.356
332.329	16.160	1117.765	838.941
333.343	16.218	1117.061	838.626
334.358	16.435	1116.049	838.868
335.373	16.265	1115.480	837.523
336.387	16.357	1114.263	836.989
337.402	16.253	1113.879	836.111
338.416	16.514	1112.915	836.607
339.431	16.446	1112.409	835.817
340.446	16.507	1111.676	835.493
341.460	16.688	1111.011	835.813
342.475	16.585	1110.024	834.490
343.489	16.509	1109.002	833.270
344.504	16.673	1108.156	833.368
345.519	16.688	1107.158	832.620
346.533	16.737	1106.401	832.219
347.548	16.664	1105.932	831.433
348.562	16.773	1104.962	831.165
349.577	16.736	1104.487	830.551
350.592	16.676	1103.703	829.593
351.606	16.746	1102.620	829.052
352.621	16.610	1102.310	828.079
353.635	16.649	1101.944	827.921
354.650	16.668	1100.754	827.045
355.665	16.770	1099.575	826.584
356.679	16.729	1099.514	826.267
357.694	16.852	1098.748	826.219
358.708	16.791	1098.003	825.285
359.723	16.699	1097.789	824.603
360.738	16.753	1097.111	824.286
361.752	16.792	1096.733	824.118
362.767	16.903	1096.268	824.237
363.781	16.949	1095.349	823.697
364.796	16.863	1094.753	822.756
365.810	16.931	1094.050	822.484
366.825	16.905	1093.419	821.810
367.840	17.011	1092.948	821.898
368.854	17.004	1092.327	821.324
369.869	16.968	1091.371	820.357
370.883	16.999	1090.784	819.996
371.898	16.955	1090.029	819.142
372.913	17.020	1089.644	819.096
373.927	17.146	1088.380	818.678
374.942	17.244	1087.668	818.544
375.956	17.239	1087.776	818.528
376.971	17.163	1086.826	817.378
377.986	17.103	1086.289	816.613
379.000	17.228	1085.574	816.600
380.015	17.121	1084.945	815.542
381.029	17.314	1084.290	815.902
382.044	17.107	1084.232	814.796
383.059	17.299	1083.057	814.760
384.073	17.297	1082.599	814.335
385.088	17.298	1081.365	813.336
386.102	17.422	1080.388	813.124
387.117	17.315	1079.514	811.882
388.132	17.378	1078.672	811.480
389.146	17.325	1078.021	810.663
390.161	17.258	1077.041	809.535
391.175	17.325	1076.509	809.386
392.190	17.345	1075.631	808.746
393.205	17.264	1075.054	807.859
394.219	17.377	1074.095	807.603
395.234	17.320	1073.390	806.729
396.248	17.413	1072.166	806.179
397.263	17.403	1071.047	805.218
398.278	17.361	1070.642	804.643
399.292	17.449	1070.045	804.542
400.307	17.452	1069.182	803.836
401.321	17.463	1068.627	803.401
402.336	17.477	1067.732	802.719
403.350	17.479	1066.899	802.035
404.365	17.527	1066.612	801.972
405.380	17.413	1066.435	801.231
406.394	17.556	1065.516	801.142
407.409	17.556	1064.208	800.090
408.423	17.530	1064.027	799.757
409.438	17.591	1063.203	799.357
410.453	17.695	1062.364	799.140
411.467	17.692	1061.594	798.480
412.482	17.721	1060.711	797.878
413.496	17.707	1059.928	797.155
414.511	17.794	1059.433	797.119
415.526	17.715	1059.741	796.908
416.540	17.797	1058.571	796.341
417.555	17.807	1058.328	796.137
418.569	17.767	1057.556	795.299
419.584	17.908	1056.784	795.304
420.599	17.735	1056.596	794.287
421.613	103.244	1322.771	1464.947
422.628	95.219	1361.528	1465.050
