DTS Sentinel unit serial number:	SN413079Multiplexer serial number:	ORYXHardware model number:	OX4-SRSoftware version number:	ORYX F/W v4.00 Oryx Data Collector v3.7.2.0data status	okinstallation	princeton_trtdifferential loss correction	single-endedforward channel	channel 2reverse channel	N/Adate	2019/09/14time	18:27:35forward acquisition time	60.00reverse acquisition time	0.00gamma	496.2192k internal	0.2317k external	0.2317temperature offset calibration	1.0102default loss term (dB/km)	0.3790temperature slope calibration	1.0000multiplexer offset coefficient	1.0000multiplexer slope coefficient	1.0000fibre end	0.00T internal ref (°C)	36.69T ext. ref 1 (°C)	4.93T ext. ref 2 (°C)	30.51length (m)	temperature (°C)	Stokes	anti-Stokes-747.200	-114.491	0.289	-0.056
-746.185	108.659	-0.096	0.117
-745.171	736.898	-0.055	-0.149
-744.156	-74.475	-0.074	-0.027
-743.142	-200.000	0.056	0.264
-742.127	-28.297	-0.038	-0.022
-741.112	800.000	-0.027	0.111
-740.098	772.225	0.124	0.342
-739.083	-200.000	0.019	0.237
-738.069	800.000	-0.019	-0.057
-737.054	-187.337	-0.148	-0.002
-736.039	270.649	0.022	-0.039
-735.025	586.170	0.212	0.528
-734.010	-73.553	0.317	0.117
-732.996	-104.314	0.246	-0.058
-731.981	22.911	-0.271	-0.224
-730.966	-18.638	0.277	-0.175
-729.952	-161.066	0.164	0.009
-728.937	-14.236	-0.253	-0.165
-727.923	12.286	0.227	-0.177
-726.908	73.877	-0.144	-0.153
-725.894	781.267	-0.037	0.103
-724.879	800.000	0.085	0.313
-723.864	-0.860	-0.031	-0.022
-722.850	-85.299	-0.381	0.120
-721.835	-200.000	0.014	0.099
-720.821	-200.000	-0.008	-0.174
-719.806	99.315	-0.031	0.036
-718.791	800.000	-0.104	0.333
-717.777	84.670	-0.228	-0.253
-716.762	38.687	-0.132	-0.119
-715.748	80.408	-0.096	-0.104
-714.733	-128.825	-0.347	0.049
-713.718	126.569	-0.108	-0.138
-712.704	-200.000	0.000	0.232
-711.689	-172.577	-0.230	-0.007
-710.675	-116.587	0.363	0.068
-709.660	280.552	-0.067	-0.121
-708.645	89.469	-0.019	0.021
-707.631	222.689	-0.134	-0.218
-706.616	65.405	-0.126	-0.129
-705.602	800.000	0.065	0.190
-704.587	-200.000	-0.031	0.279
-703.572	15.117	0.224	-0.178
-702.558	-86.063	0.103	-0.032
-701.543	-111.178	0.180	-0.037
-700.529	-127.159	-0.034	-0.005
-699.514	-200.000	0.022	-0.242
-698.499	-100.227	-0.292	0.073
-697.485	800.000	0.058	0.211
-696.470	452.040	-0.030	0.067
-695.456	-69.591	0.331	-0.128
-694.441	25.155	-0.156	0.131
-693.426	639.497	-0.108	-0.279
-692.412	-200.000	0.086	-0.485
-691.397	-67.406	-0.127	0.050
-690.383	-153.024	-0.366	-0.026
-689.368	143.107	0.114	0.154
-688.354	800.000	-0.100	0.379
-687.339	139.902	-0.089	0.118
-686.324	176.961	-0.071	-0.105
-685.310	800.000	0.022	0.067
-684.295	-200.000	-0.029	0.151
-683.281	162.553	0.085	0.120
-682.266	-200.000	-0.114	-0.522
-681.251	-118.844	-0.205	0.036
-680.237	-200.000	-0.039	0.435
-679.222	-200.000	0.010	-0.287
-678.208	71.195	-0.164	-0.172
-677.193	306.602	0.190	0.357
-676.178	-111.511	-0.049	-0.010
-675.164	640.267	-0.152	-0.390
-674.149	-1.901	-0.267	0.190
-673.135	-159.055	0.069	-0.004
-672.120	-141.703	0.242	-0.025
-671.105	-200.000	-0.035	0.170
-670.091	22.203	-0.302	0.249
-669.076	-198.733	0.543	-0.003
-668.062	-38.002	-0.103	-0.055
-667.047	-94.251	-0.100	0.028
-666.032	14.832	-0.092	-0.073
-665.018	39.526	-0.100	-0.091
-664.003	763.596	0.116	0.319
-662.989	407.191	0.038	-0.081
-661.974	156.458	-0.226	-0.316
-660.959	-200.000	-0.002	-0.029
-659.945	-200.000	-0.051	-0.247
-658.930	53.181	-0.020	-0.020
-657.916	-200.000	-0.015	0.287
-656.901	333.727	0.053	-0.104
-655.886	-200.000	0.033	0.214
-654.872	-169.136	0.124	0.005
-653.857	-83.450	0.585	0.189
-652.843	-65.996	-0.057	-0.023
-651.828	-122.557	0.285	0.047
-650.814	-61.603	-0.092	-0.039
-649.799	-20.686	-0.108	-0.067
-648.784	800.000	-0.108	0.321
-647.770	-90.000	-0.400	0.118
-646.755	101.574	-0.206	-0.243
-645.741	-12.939	0.155	-0.102
-644.726	-200.000	0.029	0.287
-643.711	-108.183	0.394	-0.086
-642.697	-200.000	0.014	0.230
-641.682	387.379	0.192	0.399
-640.668	-200.000	-0.021	0.130
-639.653	-200.000	0.008	-0.394
-638.638	-200.000	-0.004	-0.114
-637.624	-152.240	-0.129	-0.009
-636.609	-62.958	0.263	-0.110
-635.595	75.835	-0.206	0.219
-634.580	73.725	0.104	-0.110
-633.565	274.069	-0.093	-0.166
-632.551	800.000	-0.060	-0.242
-631.536	-125.043	0.095	-0.015
-630.522	-50.985	0.246	-0.116
-629.507	61.241	0.246	0.247
-628.492	93.292	0.170	0.194
-627.478	107.188	0.324	0.388
-626.463	-94.940	0.039	0.011
-625.449	-200.000	-0.014	-0.215
-624.434	-200.000	0.031	-0.240
-623.419	96.191	-0.049	-0.057
-622.405	52.017	-0.146	-0.141
-621.390	330.753	-0.063	0.122
-620.376	39.963	0.200	-0.181
-619.361	-200.000	-0.006	-0.193
-618.346	-126.770	0.266	0.040
-617.332	800.000	-0.039	0.122
-616.317	-112.281	0.166	-0.034
-615.303	58.368	-0.093	-0.092
-614.288	62.046	-0.243	0.244
-613.273	-25.683	-0.432	0.256
-612.259	800.000	0.070	0.214
-611.244	-40.345	0.290	0.152
-610.230	307.243	-0.159	0.298
-609.215	-96.309	-0.180	0.048
-608.201	-118.275	0.349	-0.063
-607.186	-29.203	-0.156	0.090
-606.171	-200.000	0.020	-0.153
-605.157	-45.931	0.065	-0.032
-604.142	-22.166	-0.191	0.117
-603.128	-41.655	0.055	0.029
-602.113	43.614	-0.186	0.171
-601.098	800.000	-0.050	0.186
-600.084	-200.000	0.060	-0.412
-599.069	-181.090	-0.336	-0.007
-598.055	-200.000	0.021	0.150
-597.040	133.759	-0.070	0.091
-596.025	-200.000	-0.035	-0.247
-595.011	67.513	0.280	0.287
-593.996	-200.000	0.043	0.229
-592.982	-36.825	0.091	-0.049
-591.967	-76.462	0.383	-0.135
-590.952	488.501	-0.084	-0.193
-589.938	-200.000	0.025	-0.149
-588.923	-77.808	-0.295	-0.103
-587.909	-200.000	0.024	0.174
-586.894	222.148	-0.101	-0.164
-585.879	7.032	0.300	0.225
-584.865	227.753	0.010	-0.016
-583.850	-46.016	-0.150	-0.075
-582.836	298.225	-0.025	-0.047
-581.821	800.000	0.054	-0.202
-580.806	-109.037	-0.178	-0.038
-579.792	800.000	-0.069	-0.194
-578.777	-73.733	-0.090	-0.033
-577.763	69.765	-0.178	0.184
-576.748	772.652	-0.035	0.096
-575.733	-111.861	-0.100	0.020
-574.719	-27.365	-0.055	-0.032
-573.704	-8.120	-0.283	0.192
-572.690	-200.000	0.022	0.111
-571.675	-71.335	0.094	-0.035
-570.661	-17.443	-0.365	-0.231
-569.646	-71.427	0.110	-0.041
-568.631	5.694	0.322	0.239
-567.617	126.942	-0.064	-0.081
-566.602	308.045	0.238	-0.447
-565.588	198.097	0.308	-0.474
-564.573	-49.232	-0.321	-0.154
-563.558	685.179	-0.028	0.074
-562.544	-176.122	-0.433	0.011
-561.529	-200.000	0.028	-0.210
-560.515	-18.083	-0.109	0.069
-559.500	442.489	0.035	-0.077
-558.485	-200.000	0.016	-0.164
-557.471	64.778	-0.046	-0.047
-556.456	170.473	0.116	-0.168
-555.442	247.795	-0.176	0.299
-554.427	-200.000	0.042	0.216
-553.412	-146.843	0.227	0.020
-552.398	-27.439	-0.132	-0.077
-551.383	-200.000	0.060	-0.348
-550.369	527.404	0.055	0.130
-549.354	69.329	-0.272	0.281
-548.339	800.000	-0.034	0.128
-547.325	-200.000	-0.068	0.404
-546.310	34.824	-0.172	-0.151
-545.296	-69.302	-0.418	-0.161
-544.281	29.228	0.174	0.149
-543.266	-4.611	-0.420	-0.292
-542.252	-200.000	-0.019	-0.355
-541.237	37.714	0.217	-0.194
-540.223	-104.275	-0.192	-0.045
-539.208	800.000	-0.054	0.223
-538.193	-81.680	0.197	0.065
-537.179	-200.000	0.009	0.321
-536.164	-200.000	-0.036	0.281
-535.150	800.000	-0.018	0.056
-534.135	-44.307	-0.109	0.055
-533.121	-200.000	-0.009	0.062
-532.106	413.109	-0.234	0.500
-531.091	93.588	0.074	0.084
-530.077	-75.653	-0.121	0.043
-529.062	36.224	0.231	-0.204
-528.048	-96.417	0.039	-0.010
-527.033	0.557	-0.092	-0.066
-526.018	50.445	0.138	-0.131
-525.004	-108.325	-0.117	-0.025
-523.989	-87.917	0.418	0.126
-522.975	-151.311	0.076	-0.006
-521.960	296.809	0.112	0.206
-520.945	-75.491	-0.325	0.116
-519.931	-124.931	-0.609	-0.094
-518.916	88.003	-0.134	-0.150
-517.902	800.000	-0.075	0.291
-516.887	-200.000	-0.034	0.310
-515.872	-109.893	0.315	0.066
-514.858	-1.516	0.195	0.138
-513.843	-200.000	-0.007	-0.216
-512.829	-58.968	0.210	0.091
-511.814	29.860	-0.244	-0.208
-510.799	-200.000	0.034	-0.229
-509.785	800.000	-0.096	-0.268
-508.770	263.980	-0.120	-0.210
-507.756	46.201	0.127	0.118
-506.741	71.806	0.085	-0.089
-505.726	-91.339	-0.086	0.025
-504.712	800.000	0.073	-0.306
-503.697	579.529	-0.070	0.172
-502.683	-0.201	-0.298	0.212
-501.668	96.080	0.145	0.167
-500.653	-200.000	-0.007	0.204
-499.639	-200.000	0.019	0.311
-498.624	-164.235	0.246	-0.011
-497.610	-48.632	-0.207	0.100
-496.595	87.740	0.207	-0.230
-495.581	15.834	0.178	-0.141
-494.566	800.000	-0.061	0.182
-493.551	-200.000	-0.011	-0.128
-492.537	34.852	-0.158	-0.138
-491.522	605.681	-0.083	0.206
-490.508	-20.616	0.425	-0.262
-489.493	566.471	0.049	-0.119
-488.478	-19.130	0.075	0.047
-487.464	37.048	0.154	0.137
-486.449	-122.275	-0.177	0.029
-485.435	-200.000	-0.025	0.290
-484.420	86.993	0.107	0.119
-483.405	-11.875	0.312	0.205
-482.391	2.725	-0.357	0.259
-481.376	-58.620	0.047	-0.021
-480.362	-104.234	0.214	0.050
-479.347	61.553	0.174	0.174
-478.332	-26.905	-0.088	-0.051
-477.318	35.798	0.190	0.167
-476.303	-80.820	-0.253	-0.084
-475.289	-180.890	0.025	0.001
-474.274	-149.740	0.199	0.016
-473.259	-200.000	0.017	-0.106
-472.245	186.768	0.131	-0.195
-471.230	307.660	-0.112	-0.209
-470.216	148.008	0.152	0.205
-469.201	-22.282	-0.110	-0.067
-468.186	346.471	0.007	0.013
-467.172	-49.709	-0.270	0.128
-466.157	-29.186	-0.147	0.084
-465.143	784.887	0.100	-0.276
-464.128	78.664	-0.137	-0.147
-463.113	-200.000	-0.022	-0.513
-462.099	-177.406	0.220	-0.005
-461.084	3.746	-0.213	0.155
-460.070	-48.952	-0.234	-0.112
-459.055	800.000	-0.067	0.203
-458.040	-200.000	0.009	-0.121
-457.026	-200.000	-0.003	-0.074
-456.011	-48.761	-0.066	0.032
-454.997	28.970	0.267	-0.227
-453.982	21.481	0.301	-0.245
-452.968	-200.000	-0.022	-0.233
-451.953	109.216	0.203	0.243
-450.938	-70.774	0.218	0.083
-449.924	-200.000	0.053	-0.360
-448.909	800.000	-0.053	-0.192
-447.895	-74.726	0.073	-0.026
-446.880	115.952	0.135	0.166
-445.865	55.940	-0.043	-0.042
-444.851	285.096	-0.102	-0.184
-443.836	-112.688	-0.184	0.037
-442.822	-53.312	0.191	0.088
-441.807	800.000	0.058	-0.203
-440.792	-200.000	0.008	0.044
-439.778	-94.135	-0.215	0.059
-438.763	713.229	-0.040	-0.105
-437.749	-72.042	-0.297	0.111
-436.734	11.032	-0.257	-0.197
-435.719	8.616	-0.227	0.171
-434.705	-200.000	-0.011	0.109
-433.690	567.032	-0.122	0.295
-432.676	41.667	0.223	-0.203
-431.661	-1.855	-0.063	-0.045
-430.646	-200.000	-0.027	-0.185
-429.632	-22.956	-0.082	-0.049
-428.617	-25.679	-0.167	0.099
-427.603	46.768	0.095	0.088
-426.588	488.964	0.118	-0.271
-425.573	82.397	-0.112	-0.122
-424.559	714.333	0.109	-0.289
-423.544	-48.951	0.220	0.105
-422.530	56.390	-0.125	0.122
-421.515	800.000	0.027	-0.085
-420.500	637.265	-0.043	0.110
-419.486	470.163	0.078	0.176
-418.471	243.788	0.106	-0.178
-417.457	-200.000	0.074	0.365
-416.442	800.000	-0.047	0.179
-415.428	159.352	0.045	-0.063
-414.413	-105.039	-0.227	-0.052
-413.398	-200.000	-0.029	-0.264
-412.384	-162.639	0.203	0.010
-411.369	-92.900	-0.162	-0.045
-410.355	374.284	-0.070	-0.143
-409.340	-189.837	0.217	-0.002
-408.325	800.000	-0.058	-0.161
-407.311	6.237	-0.200	-0.149
-406.296	-200.000	0.022	-0.470
-405.282	51.691	0.141	-0.134
-404.267	-20.390	-0.125	0.077
-403.252	-139.378	-0.183	0.020
-402.238	800.000	0.076	-0.230
-401.223	49.428	-0.199	-0.187
-400.209	-44.941	-0.070	0.035
-399.194	-85.847	0.097	0.030
-398.179	-187.551	-0.152	-0.002
-397.165	-200.000	0.069	-0.420
-396.150	13.653	0.192	-0.149
-395.136	8.571	-0.123	0.092
-394.121	19.062	0.008	0.006
-393.106	-114.586	0.213	0.041
-392.092	-95.652	0.349	0.093
-391.077	-30.126	0.239	-0.136
-390.063	-54.909	-0.534	0.240
-389.048	-200.000	0.018	-0.513
-388.033	182.573	-0.223	-0.328
-387.019	65.925	0.066	0.066
-386.004	197.457	0.113	0.173
-384.990	237.824	0.121	-0.200
-383.975	-63.793	-0.214	-0.087
-382.960	-55.699	-0.146	-0.065
-381.946	48.164	0.130	-0.122
-380.931	-109.861	-0.093	-0.020
-379.917	-94.404	-0.404	-0.110
-378.902	29.738	-0.139	0.118
-377.888	-77.037	0.242	0.084
-376.873	-61.659	0.266	-0.111
-375.858	-55.194	0.242	0.109
-374.844	131.594	0.150	-0.193
-373.829	-52.188	-0.225	-0.104
-372.815	-200.000	-0.024	-0.108
-371.800	-135.148	-0.086	-0.010
-370.785	-121.006	0.094	-0.016
-369.771	-200.000	-0.034	0.495
-368.756	-84.368	0.488	-0.154
-367.742	401.191	-0.090	-0.189
-366.727	-90.018	-0.168	0.049
-365.712	-158.845	0.572	-0.033
-364.698	59.784	-0.209	-0.206
-363.683	273.496	-0.102	-0.180
-362.669	267.918	0.108	-0.189
-361.654	-65.148	-0.183	-0.074
-360.639	-113.946	0.334	-0.065
-359.625	354.869	0.119	0.236
-358.610	-73.419	-0.331	-0.121
-357.596	-60.772	-0.207	-0.088
-356.581	151.211	-0.164	-0.223
-355.566	-12.561	0.214	0.139
-354.552	468.905	-0.108	0.241
-353.537	363.571	0.087	0.175
-352.523	247.732	0.117	0.196
-351.508	648.020	0.011	0.027
-350.493	-55.856	0.074	-0.033
-349.479	53.319	0.181	-0.173
-348.464	-116.558	-0.179	-0.033
-347.450	-70.742	-0.217	0.082
-346.435	-200.000	-0.003	0.133
-345.420	541.784	-0.108	-0.257
-344.406	669.029	0.053	-0.137
-343.391	-51.151	-0.030	0.014
-342.377	117.182	0.091	0.112
-341.362	-160.044	0.110	0.006
-340.348	-200.000	-0.040	-0.180
-339.333	800.000	0.054	0.208
-338.318	-200.000	-0.013	-0.094
-337.304	109.415	-0.134	0.160
-336.289	-200.000	0.036	-0.239
-335.275	-176.619	0.060	0.002
-334.260	-78.481	0.315	0.108
-333.245	102.266	0.111	-0.129
-332.231	-200.000	-0.010	0.093
-331.216	-110.496	-0.229	0.047
-330.202	-17.514	-0.056	-0.035
-329.187	-200.000	-0.005	-0.112
-328.172	56.288	-0.150	-0.146
-327.158	22.030	-0.117	0.095
-326.143	-25.381	-0.269	0.159
-325.129	-200.000	-0.028	-0.177
-324.114	303.441	0.043	-0.080
-323.099	-52.342	0.278	0.128
-322.085	-18.184	-0.265	0.165
-321.070	-44.804	0.310	-0.154
-320.056	-60.320	0.035	-0.015
-319.041	9.395	-0.036	0.027
-318.026	220.110	-0.133	0.212
-317.012	43.262	-0.174	0.159
-315.997	185.730	-0.052	-0.077
-314.983	284.064	-0.081	-0.145
-313.968	800.000	-0.047	0.181
-312.953	223.697	0.105	0.169
-311.939	-55.898	-0.092	-0.041
-310.924	1.505	-0.147	0.105
-309.910	-200.000	-0.003	-0.433
-308.895	800.000	0.081	-0.229
-307.880	-111.862	0.137	0.028
-306.866	-62.906	0.084	-0.034
-305.851	-40.095	-0.058	0.030
-304.837	-97.129	0.276	0.072
-303.822	-99.726	0.073	0.018
-302.807	-53.795	-0.134	0.061
-301.793	336.622	-0.109	-0.211
-300.778	-131.042	0.083	-0.011
-299.764	-200.000	0.000	0.296
-298.749	-200.000	0.011	-0.057
-297.735	800.000	0.075	0.258
-296.720	800.000	-0.035	0.137
-295.705	452.232	-0.092	0.203
-294.691	-200.000	0.402	0.002
-293.676	-83.129	-0.185	-0.059
-292.662	167.125	0.066	-0.094
-291.647	133.862	-0.114	-0.147
-290.632	552.096	0.079	0.188
-289.618	100.397	0.118	0.136
-288.603	-40.693	0.214	0.111
-287.589	-77.338	0.181	0.063
-286.574	42.810	0.102	0.092
-285.559	-168.359	-0.293	-0.011
-284.545	-158.067	-0.138	0.008
-283.530	-80.991	-0.358	-0.118
-282.516	800.000	-0.046	-0.178
-281.501	-200.000	-0.053	0.237
-280.486	-77.370	-0.263	-0.091
-279.472	-200.000	-0.058	-0.421
-278.457	-21.879	0.238	-0.144
-277.443	111.976	0.168	0.202
-276.428	345.177	0.086	0.167
-275.413	-200.000	-0.167	0.001
-274.399	171.520	-0.144	-0.206
-273.384	9.059	0.336	-0.252
-272.370	427.699	0.213	0.458
-271.355	-200.000	0.028	0.305
-270.340	557.199	0.060	-0.144
-269.326	27.458	-0.111	0.093
-268.311	-82.476	0.309	0.100
-267.297	377.868	-0.107	0.218
-266.282	122.769	-0.028	-0.034
-265.267	-200.000	-0.003	0.187
-264.253	60.191	0.082	0.080
-263.238	15.403	-0.343	-0.268
-262.224	-200.000	0.002	-0.262
-261.209	380.334	-0.140	0.284
-260.195	96.668	0.095	-0.108
-259.180	481.443	0.101	0.229
-258.165	-89.217	0.187	0.055
-257.151	582.743	0.122	0.298
-256.136	-29.932	0.055	-0.031
-255.122	-200.000	-0.017	0.340
-254.107	245.887	0.172	0.288
-253.092	-4.088	0.241	0.166
-252.078	-92.734	0.217	0.060
-251.063	-69.321	-0.122	-0.047
-250.049	-165.372	-0.386	0.017
-249.034	-200.000	-0.022	-0.135
-248.019	8.966	0.029	-0.021
-247.005	-20.508	0.175	-0.107
-245.990	-61.693	-0.120	-0.050
-244.976	-124.711	-0.481	-0.074
-243.961	800.000	0.014	0.058
-242.946	-200.000	-0.014	0.072
-241.932	93.508	-0.258	-0.290
-240.917	-79.601	-0.311	-0.104
-239.903	-169.366	0.214	-0.008
-238.888	800.000	0.056	0.193
-237.873	207.233	0.060	-0.094
-236.859	432.401	0.158	0.340
-235.844	-105.139	0.215	-0.049
-234.830	-200.000	0.042	0.233
-233.815	-43.438	0.095	0.048
-232.800	-20.072	-0.249	0.153
-231.786	-35.145	-0.214	-0.116
-230.771	800.000	0.118	0.325
-229.757	-200.000	0.040	0.231
-228.742	-138.248	0.288	0.032
-227.727	-35.228	0.127	0.069
-226.713	800.000	-0.103	-0.303
-225.698	-14.731	-0.244	-0.156
-224.684	667.444	-0.038	0.097
-223.669	30.464	-0.234	0.198
-222.655	-29.697	0.055	-0.031
-221.640	1.101	0.086	0.061
-220.625	800.000	0.045	-0.147
-219.611	-200.000	0.075	-0.461
-218.596	-200.000	0.010	-0.297
-217.582	-19.427	0.213	-0.131
-216.567	-116.397	0.189	-0.035
-215.552	368.060	-0.050	-0.100
-214.538	66.901	0.099	-0.100
-213.523	-62.830	-0.381	-0.157
-212.509	160.543	0.138	0.192
-211.494	-55.543	0.145	-0.064
-210.479	-200.000	-0.007	-0.198
-209.465	-141.792	-0.199	-0.020
-208.450	800.000	0.050	-0.162
-207.436	131.756	0.059	-0.075
-206.421	347.492	0.111	0.217
-205.406	-200.000	-0.087	0.558
-204.392	96.981	-0.169	-0.192
-203.377	-153.648	0.151	0.010
-202.363	247.269	-0.059	0.098
-201.348	800.000	0.069	0.208
-200.333	-165.951	0.089	-0.004
-199.319	800.000	-0.083	-0.259
-198.304	-199.031	-0.233	0.001
-197.290	-19.882	0.054	0.033
-196.275	470.713	0.042	0.093
-195.260	21.463	0.194	0.157
-194.246	800.000	0.131	-0.370
-193.231	800.000	-0.073	0.291
-192.217	-31.167	0.356	-0.199
-191.202	478.659	0.080	-0.180
-190.187	166.547	-0.193	0.271
-189.173	-200.000	0.051	0.230
-188.158	-123.848	0.219	0.034
-187.144	113.212	-0.113	0.135
-186.129	46.965	-0.184	0.169
-185.114	349.719	0.132	0.259
-184.100	-144.143	-0.073	0.007
-183.085	800.000	0.054	-0.178
-182.071	188.054	-0.108	-0.160
-181.056	-92.264	-0.109	-0.030
-180.042	106.264	0.146	-0.171
-179.027	446.096	-0.082	0.178
-178.012	35.799	0.046	-0.040
-176.998	-85.653	-0.213	0.066
-175.983	147.741	-0.283	0.378
-174.969	-24.118	0.119	-0.071
-173.954	265.419	0.048	0.084
-172.939	800.000	0.012	-0.039
-171.925	30.232	0.182	-0.154
-170.910	-37.774	-0.179	-0.095
-169.896	-200.000	0.022	0.127
-168.881	103.113	-0.069	0.080
-167.866	-200.000	0.007	0.295
-166.852	-140.142	-0.226	-0.024
-165.837	-142.319	0.230	-0.022
-164.823	800.000	0.081	-0.228
-163.808	-200.000	-0.059	-0.277
-162.793	-79.803	0.366	0.122
-161.779	800.000	0.071	0.282
-160.764	-200.000	-0.031	0.199
-159.750	-200.000	0.027	0.143
-158.735	89.538	0.217	-0.239
-157.720	800.000	0.006	0.026
-156.706	-33.838	0.221	0.121
-155.691	-200.000	0.013	0.324
-154.677	-70.700	-0.151	-0.057
-153.662	116.159	-0.093	0.113
-152.647	-200.000	-0.037	-0.162
-151.633	-105.699	0.163	-0.036
-150.618	-23.997	-0.202	-0.119
-149.604	0.570	0.090	-0.064
-148.589	-200.000	0.012	-0.074
-147.574	798.333	0.031	-0.083
-146.560	23.822	-0.168	-0.137
-145.545	-125.857	-0.193	0.029
-144.531	-27.522	0.026	0.015
-143.516	152.892	-0.132	-0.178
-142.502	124.236	0.153	-0.191
-141.487	26.196	-0.142	0.117
-140.472	800.000	-0.030	0.106
-139.458	-200.000	0.010	-0.208
-138.443	800.000	0.023	0.071
-137.429	67.245	0.151	0.152
-136.414	197.699	0.232	0.351
-135.399	-137.039	0.125	0.014
-134.385	-200.000	-0.039	0.176
-133.370	6.448	0.171	0.125
-132.356	-66.011	-0.197	0.078
-131.341	-38.354	0.121	0.063
-130.326	-46.583	-0.122	0.059
-129.312	-200.000	-0.076	0.356
-128.297	110.057	-0.268	0.318
-127.283	-133.791	0.110	0.014
-126.268	-164.277	-0.031	0.001
-125.253	800.000	0.050	-0.163
-124.239	61.952	0.122	-0.120
-123.224	-200.000	0.051	-0.417
-122.210	541.203	-0.084	-0.197
-121.195	22.767	-0.023	-0.019
-120.180	249.342	-0.059	0.099
-119.166	19.231	0.172	-0.137
-118.151	-62.279	0.213	0.088
-117.137	-72.150	-0.270	0.099
-116.122	443.364	0.018	-0.038
-115.107	140.355	0.106	0.138
-114.093	800.000	-0.039	-0.168
-113.078	-35.510	-0.024	-0.013
-112.064	-6.893	0.269	0.181
-111.049	12.177	0.352	0.267
-110.034	7.098	-0.077	0.057
-109.020	301.779	0.081	0.148
-108.005	-78.670	0.125	0.042
-106.991	-73.768	-0.170	0.061
-105.976	-12.907	0.186	0.120
-104.962	-32.490	-0.115	-0.063
-103.947	-47.531	0.344	0.165
-102.932	423.771	-0.194	0.413
-101.918	-103.375	0.074	0.017
-100.903	-57.808	-0.081	0.035
-99.889	800.000	0.094	0.297
-98.874	-96.446	-0.263	0.069
-97.859	-200.000	0.043	-0.193
-96.845	275.606	0.125	-0.218
-95.830	-105.587	0.253	0.057
-94.816	-142.164	-0.095	-0.009
-93.801	800.000	-0.166	0.522
-92.786	-200.000	-0.013	-0.071
-91.772	-9.145	0.059	0.039
-90.757	-96.425	-0.372	0.097
-89.743	800.000	-0.022	-0.076
-88.728	-75.588	-0.283	0.099
-87.713	464.857	0.086	0.190
-86.699	119.588	0.113	0.138
-85.684	-200.000	-0.014	0.121
-84.670	114.374	0.170	0.204
-83.655	-200.000	0.011	0.144
-82.640	800.000	0.116	-0.343
-81.626	-96.425	0.337	-0.088
-80.611	-97.729	0.019	0.005
-79.597	43.913	-0.115	-0.104
-78.582	-166.504	0.232	-0.010
-77.567	484.611	0.043	-0.096
-76.553	-200.000	0.016	0.121
-75.538	109.975	0.298	0.352
-74.524	-131.347	0.171	0.022
-73.509	39.489	0.077	0.068
-72.494	-71.408	0.086	0.032
-71.480	-200.000	-0.012	-0.065
-70.465	-45.541	-0.078	0.038
-69.451	-200.000	0.001	0.106
-68.436	164.633	0.147	0.205
-67.422	224.378	0.092	0.146
-66.407	-94.747	-0.431	-0.115
-65.392	-120.230	-0.384	0.065
-64.378	44.480	-0.190	0.172
-63.363	-121.111	0.385	0.064
-62.349	-169.020	-0.082	0.003
-61.334	-69.387	-1.000	-0.378
-60.319	214.332	0.454	0.708
-59.305	-200.000	-0.091	-0.813
-58.290	800.000	0.265	0.843
-57.276	439.557	0.711	1.530
-56.261	-200.000	90.754	529.626
-55.246	594.707	1378.377	3360.475
-54.232	189.816	2593.383	3834.533
-53.217	118.160	2311.312	2808.327
-52.203	46.277	1928.734	1761.611
-51.188	39.883	1719.170	1521.101
-50.173	37.137	1674.682	1461.042
-49.159	53.383	1720.371	1625.141
-48.144	57.097	1738.417	1670.428
-47.130	39.707	1696.071	1499.091
-46.115	36.785	1680.733	1463.425
-45.100	36.637	1676.176	1458.283
-44.086	36.574	1673.323	1455.268
-43.071	36.501	1671.026	1452.664
-42.057	36.521	1668.799	1450.826
-41.042	36.494	1666.737	1448.771
-40.027	36.566	1665.061	1447.796
-39.013	36.489	1663.134	1445.485
-37.998	36.472	1660.985	1443.437
-36.984	36.621	1659.867	1443.518
-35.969	36.665	1658.079	1442.234
-34.954	36.737	1656.779	1441.582
-33.940	36.675	1654.964	1439.482
-32.925	36.788	1652.846	1438.421
-31.911	36.706	1651.138	1436.273
-30.896	36.647	1649.792	1434.610
-29.881	36.713	1647.894	1433.389
-28.867	36.664	1646.557	1431.804
-27.852	36.699	1644.937	1430.597
-26.838	36.727	1643.318	1429.342
-25.823	36.738	1641.795	1428.038
-24.809	36.708	1640.535	1426.664
-23.794	36.683	1639.238	1425.296
-22.779	36.749	1637.251	1424.000
-21.765	36.767	1635.192	1422.281
-20.750	36.698	1634.553	1421.163
-19.736	36.757	1632.446	1419.714
-18.721	36.677	1631.196	1417.984
-17.706	36.796	1629.884	1417.654
-16.692	36.664	1628.933	1415.804
-15.677	36.696	1627.259	1414.530
-14.663	36.626	1626.494	1413.297
-13.648	36.684	1624.989	1412.357
-12.633	36.710	1622.836	1410.618
-11.619	36.685	1621.428	1409.154
-10.604	36.821	1619.555	1408.464
-9.590	36.718	1618.772	1406.978
-8.575	36.699	1617.657	1405.815
-7.560	36.660	1616.445	1404.417
-6.546	36.797	1614.619	1403.774
-5.531	36.684	1613.908	1402.279
-4.517	36.764	1612.371	1401.467
-3.502	36.641	1612.146	1400.325
-2.487	36.706	1610.411	1399.233
-1.473	36.458	1598.349	1386.914
-0.458	33.282	1577.871	1346.539
0.556	29.654	1576.311	1307.946
1.571	26.820	1599.739	1306.876
2.586	25.991	1613.056	1311.613
3.600	22.817	1558.639	1244.913
4.615	13.781	1446.666	1095.952
5.629	6.258	1380.281	998.002
6.644	5.031	1371.736	983.992
7.659	4.924	1370.091	982.050
8.673	4.872	1368.787	980.707
9.688	4.884	1367.312	979.634
10.702	4.793	1364.955	977.292
11.717	8.054	1371.110	1002.147
12.731	16.223	1385.757	1064.490
13.746	20.886	1392.867	1099.352
14.761	20.274	1390.329	1093.396
15.775	19.165	1387.524	1084.115
16.790	18.088	1384.880	1075.181
17.804	17.249	1382.348	1067.852
18.819	16.795	1381.402	1064.175
19.834	16.486	1379.955	1061.025
20.848	16.292	1379.303	1059.212
21.863	16.146	1377.405	1056.747
22.877	15.917	1376.140	1054.252
23.892	16.001	1375.347	1054.073
24.907	15.916	1374.903	1053.112
25.921	16.022	1373.521	1052.618
26.936	15.865	1373.119	1051.237
27.950	16.063	1371.417	1051.077
28.965	16.147	1370.578	1050.863
29.980	16.191	1369.816	1050.464
30.994	16.289	1368.523	1049.990
32.009	16.423	1367.220	1049.729
33.023	16.408	1366.317	1048.849
34.038	16.288	1364.635	1046.722
35.053	16.152	1363.697	1045.064
36.067	16.135	1362.500	1043.950
37.082	16.192	1361.462	1043.416
38.096	16.131	1360.821	1042.455
39.111	16.124	1360.267	1041.894
40.126	16.120	1358.467	1040.398
41.140	15.954	1357.630	1038.641
42.155	15.869	1357.513	1037.934
43.169	15.832	1357.278	1037.438
44.184	15.784	1356.983	1036.826
45.199	15.905	1356.489	1037.097
46.213	16.001	1355.856	1037.114
47.228	16.088	1355.229	1037.078
48.242	16.040	1354.100	1035.827
49.257	16.054	1352.424	1034.541
50.271	16.008	1350.886	1032.992
51.286	16.095	1349.538	1032.401
52.301	16.122	1348.005	1031.299
53.315	16.057	1347.193	1030.191
54.330	15.943	1346.338	1028.749
55.344	15.952	1345.199	1027.847
56.359	15.921	1343.644	1026.379
57.374	15.845	1343.766	1025.916
58.388	15.872	1342.088	1024.707
59.403	15.842	1341.865	1024.268
60.417	15.857	1341.004	1023.609
61.432	15.753	1340.591	1022.571
62.447	15.660	1339.649	1021.197
63.461	15.628	1338.282	1019.873
64.476	15.747	1336.694	1019.290
65.490	15.779	1335.796	1018.711
66.505	15.736	1334.469	1017.348
67.520	15.780	1333.173	1016.532
68.534	15.679	1332.268	1015.144
69.549	15.754	1330.888	1014.456
70.563	15.687	1330.197	1013.433
71.578	15.660	1328.615	1011.979
72.593	15.519	1328.355	1010.844
73.607	15.591	1327.452	1010.501
74.622	15.577	1326.377	1009.506
75.636	15.552	1325.827	1008.846
76.651	15.618	1325.009	1008.534
77.666	15.696	1324.126	1008.240
78.680	15.624	1324.263	1007.825
79.695	15.692	1322.951	1007.142
80.709	15.681	1322.828	1006.891
81.724	15.739	1321.975	1006.500
82.739	15.932	1320.742	1006.628
83.753	16.015	1320.305	1006.700
84.768	16.084	1319.039	1006.057
85.782	16.169	1317.568	1005.354
86.797	16.038	1316.854	1003.942
87.812	15.984	1315.313	1002.358
88.826	16.060	1314.152	1001.837
89.841	15.991	1313.271	1000.663
90.855	16.095	1312.427	1000.552
91.870	16.038	1311.313	999.274
92.884	16.134	1310.577	999.193
93.899	16.112	1309.950	998.494
94.914	16.161	1309.638	998.462
95.928	16.172	1307.919	997.125
96.943	16.136	1307.097	996.202
97.957	16.127	1306.116	995.313
98.972	16.184	1304.968	994.685
99.987	16.223	1304.256	994.285
101.001	16.201	1303.058	993.149
102.016	16.118	1302.719	992.318
103.030	16.118	1301.417	991.239
104.045	16.049	1300.566	990.099
105.060	16.046	1299.160	988.922
106.074	15.976	1297.599	987.234
107.089	15.876	1296.784	985.945
108.103	15.811	1295.186	984.261
109.118	15.708	1294.347	982.931
110.133	15.740	1293.065	982.062
111.147	15.776	1291.029	980.638
112.162	15.798	1290.343	980.156
113.176	15.955	1288.915	979.899
114.191	16.011	1287.715	979.223
115.206	15.879	1286.968	977.804
116.220	15.904	1285.748	976.936
117.235	16.015	1284.709	976.702
118.249	15.846	1284.018	975.113
119.264	15.796	1282.674	973.713
120.279	15.775	1281.575	972.677
121.293	15.792	1280.145	971.604
122.308	15.761	1279.571	970.903
123.322	15.657	1278.532	969.428
124.337	15.689	1277.337	968.616
125.352	15.672	1276.432	967.747
126.366	15.653	1275.426	966.792
127.381	15.731	1274.388	966.369
128.395	15.834	1273.022	965.839
129.410	15.749	1272.336	964.746
130.424	15.748	1271.876	964.303
131.439	15.867	1271.099	964.312
132.454	15.809	1270.027	963.078
133.468	15.818	1269.206	962.427
134.483	15.837	1268.675	962.045
135.497	15.897	1267.860	961.683
136.512	15.889	1266.592	960.592
137.527	15.900	1264.883	959.275
138.541	15.987	1263.159	958.377
139.556	15.991	1262.177	957.568
140.570	16.143	1261.009	957.464
141.585	16.062	1260.020	956.168
142.600	16.262	1258.400	955.984
143.614	16.179	1257.971	955.102
144.629	16.283	1256.757	954.687
145.643	16.264	1255.573	953.597
146.658	16.087	1254.453	951.662
147.673	16.090	1252.809	950.348
148.687	16.112	1251.394	949.312
149.702	15.968	1250.180	947.500
150.716	15.909	1249.068	946.241
151.731	15.998	1247.720	945.637
152.746	15.956	1246.656	944.507
153.760	15.944	1245.699	943.632
154.775	16.182	1244.223	943.764
155.789	16.228	1243.386	943.300
156.804	16.183	1242.481	942.282
157.819	16.171	1241.973	941.748
158.833	16.290	1240.640	941.316
159.848	16.307	1239.864	940.739
160.862	16.356	1238.762	940.093
161.877	16.179	1237.313	937.925
162.892	16.111	1235.756	936.283
163.906	15.998	1235.548	935.418
164.921	16.029	1234.361	934.609
165.935	16.166	1233.370	934.533
166.950	16.049	1233.125	933.615
167.964	16.151	1232.111	933.329
168.979	16.084	1231.595	932.484
169.994	16.022	1230.813	931.470
171.008	16.141	1230.123	931.519
172.023	16.203	1229.171	931.059
173.037	16.296	1228.728	931.155
174.052	16.324	1227.274	930.128
175.067	16.204	1226.166	928.541
176.081	16.186	1224.884	927.388
177.096	16.137	1224.410	926.681
178.110	16.117	1223.357	925.693
179.125	16.135	1222.062	924.731
180.140	16.243	1221.042	924.466
181.154	16.142	1220.291	923.262
182.169	16.285	1218.799	922.835
183.183	16.340	1217.300	921.918
184.198	16.391	1216.483	921.496
185.213	16.436	1215.027	920.556
186.227	16.315	1214.239	919.221
187.242	16.413	1213.150	918.846
188.256	16.491	1212.011	918.329
189.271	16.521	1211.115	917.729
190.286	16.364	1209.702	915.728
191.300	16.140	1209.140	914.008
192.315	16.049	1208.353	912.839
193.329	16.200	1207.359	912.823
194.344	16.198	1207.163	912.585
195.359	16.220	1206.639	912.224
196.373	16.332	1206.007	912.271
197.388	16.394	1205.886	912.433
198.402	16.559	1205.825	913.196
199.417	16.717	1204.369	912.865
200.432	16.703	1203.641	912.157
201.446	16.733	1203.159	911.876
202.461	16.860	1202.079	911.661
203.475	16.890	1200.752	910.731
204.490	16.716	1199.865	909.045
205.504	16.537	1198.870	907.250
206.519	16.623	1197.173	906.346
207.534	16.564	1196.235	905.241
208.548	16.518	1195.106	904.059
209.563	16.557	1193.921	903.291
210.577	16.629	1193.399	903.203
211.592	16.644	1192.258	902.340
212.607	16.784	1192.217	902.975
213.621	16.815	1190.676	901.892
214.636	16.813	1190.111	901.371
215.650	16.707	1189.402	900.194
216.665	16.765	1188.393	899.659
217.680	16.946	1187.382	899.775
218.694	16.939	1186.944	899.326
219.709	16.896	1185.695	898.072
220.723	16.969	1185.135	897.954
221.738	16.865	1184.346	896.725
222.753	16.877	1183.664	896.192
223.767	16.916	1183.004	895.820
224.782	17.052	1182.140	895.805
225.796	17.133	1181.661	895.790
226.811	17.105	1180.712	894.847
227.826	16.903	1180.264	893.362
228.840	16.995	1179.531	893.211
229.855	16.980	1178.457	892.239
230.869	16.886	1177.850	891.208
231.884	16.948	1176.599	890.509
232.899	16.848	1176.298	889.678
233.913	16.730	1175.933	888.701
234.928	16.776	1174.470	887.757
235.942	16.872	1174.145	887.938
236.957	16.753	1173.130	886.467
237.972	16.894	1172.398	886.573
238.986	16.882	1171.803	885.985
240.001	16.824	1171.180	885.130
241.015	16.880	1170.320	884.696
242.030	16.977	1169.354	884.394
243.045	17.037	1168.713	884.144
244.059	17.075	1167.552	883.386
245.074	17.086	1167.064	882.991
246.088	17.162	1166.119	882.595
247.103	17.089	1165.818	881.909
248.117	17.292	1164.744	882.073
249.132	17.421	1164.194	882.246
250.147	17.383	1163.725	881.617
251.161	17.528	1162.763	881.560
252.176	17.525	1162.270	881.092
253.190	17.513	1161.683	880.510
254.205	17.576	1161.355	880.509
255.220	17.606	1160.449	879.897
256.234	17.588	1160.117	879.476
257.249	17.633	1159.321	879.029
258.263	17.671	1158.730	878.697
259.278	17.650	1158.083	878.021
260.293	17.576	1157.464	877.090
261.307	17.677	1157.062	877.232
262.322	17.780	1156.421	877.195
263.336	17.803	1155.438	876.492
264.351	17.883	1154.670	876.239
265.366	17.712	1154.388	875.070
266.380	17.823	1153.745	875.076
267.395	17.828	1152.568	874.131
268.409	17.688	1152.289	873.127
269.424	17.670	1151.450	872.319
270.439	17.668	1150.847	871.774
271.453	17.623	1150.302	871.054
272.468	17.654	1149.228	870.323
273.482	17.500	1148.616	868.999
274.497	17.564	1147.805	868.635
275.512	17.610	1147.422	868.503
276.526	17.611	1146.468	867.708
277.541	17.754	1145.214	867.410
278.555	17.753	1144.905	867.095
279.570	17.886	1144.225	867.177
280.585	17.862	1143.698	866.577
281.599	17.771	1142.691	865.280
282.614	17.869	1141.480	864.779
283.628	17.851	1140.126	863.588
284.643	17.814	1139.619	862.938
285.657	17.782	1139.000	862.235
286.672	17.872	1137.569	861.529
287.687	17.900	1136.723	860.953
288.701	17.816	1136.208	860.061
289.716	17.937	1135.629	860.156
290.730	17.801	1134.758	858.738
291.745	17.942	1134.004	858.798
292.760	17.879	1133.428	857.973
293.774	17.979	1132.915	858.006
294.789	18.032	1132.490	857.879
295.803	18.040	1131.610	857.177
296.818	17.969	1130.807	856.136
297.833	17.898	1129.929	855.037
298.847	17.958	1129.459	854.908
299.862	17.982	1128.699	854.377
300.876	17.943	1127.820	853.439
301.891	17.999	1127.507	853.407
302.906	18.210	1126.346	853.506
303.920	18.117	1125.835	852.582
304.935	18.330	1125.149	853.049
305.949	18.316	1124.949	852.749
306.964	18.314	1123.913	851.881
307.979	18.366	1123.010	851.381
308.993	18.267	1122.675	850.558
310.008	18.309	1121.818	850.044
311.022	18.322	1120.763	849.229
312.037	18.390	1119.739	848.715
313.052	18.221	1118.906	847.171
314.066	18.132	1118.211	846.129
315.081	18.152	1116.960	845.209
316.095	18.072	1116.274	844.218
317.110	18.109	1115.912	844.057
318.125	18.142	1114.899	843.377
319.139	18.145	1114.465	842.989
320.154	18.188	1113.582	842.460
321.168	18.087	1113.509	841.832
322.183	18.111	1112.714	841.270
323.197	18.206	1111.868	841.025
324.212	18.332	1110.935	840.863
325.227	18.273	1110.709	840.331
326.241	18.370	1110.136	840.299
327.256	18.240	1109.544	839.138
328.270	18.356	1108.273	838.672
329.285	18.294	1107.331	837.581
330.300	18.315	1106.589	837.049
331.314	18.277	1105.658	836.085
332.329	18.356	1104.512	835.528
333.343	18.428	1103.608	835.121
334.358	18.299	1103.172	834.090
335.373	18.458	1102.452	834.245
336.387	18.532	1101.835	834.063
337.402	18.471	1100.882	832.971
338.416	18.539	1100.581	833.001
339.431	18.556	1099.897	832.493
340.446	18.662	1098.969	832.231
341.460	18.668	1098.226	831.623
342.475	18.764	1097.511	831.475
343.489	18.852	1096.585	831.126
344.504	18.842	1095.681	830.318
345.519	18.972	1094.579	830.035
346.533	18.941	1093.960	829.345
347.548	18.912	1093.696	828.931
348.562	19.003	1092.304	828.239
349.577	18.800	1091.733	826.756
350.592	18.724	1090.845	825.645
351.606	18.746	1090.073	825.093
352.621	18.697	1089.194	824.121
353.635	18.651	1088.906	823.608
354.650	18.671	1088.394	823.246
355.665	18.721	1087.512	822.745
356.679	18.775	1086.750	822.354
357.694	18.755	1086.503	821.999
358.708	18.733	1086.018	821.455
359.723	18.752	1085.169	820.827
360.738	18.931	1084.486	821.095
361.752	18.810	1083.692	819.843
362.767	18.976	1083.232	820.216
363.781	18.943	1082.414	819.366
364.796	19.024	1082.284	819.579
365.810	18.939	1082.331	819.138
366.825	19.175	1081.077	819.238
367.840	19.131	1080.823	818.766
368.854	19.195	1080.301	818.602
369.869	19.354	1078.771	818.124
370.883	19.202	1078.209	816.906
371.898	19.275	1077.112	816.350
372.913	19.212	1076.590	815.581
373.927	19.255	1076.049	815.301
374.942	19.283	1075.793	815.167
375.956	19.296	1075.262	814.756
376.971	19.266	1074.699	814.114
377.986	19.290	1074.108	813.709
379.000	19.286	1073.586	813.225
380.015	19.325	1073.173	813.020
381.029	19.429	1072.175	812.684
382.044	19.348	1072.043	812.131
383.059	19.423	1071.260	811.819
384.073	19.502	1069.961	811.135
385.088	19.414	1069.305	810.149
386.102	19.433	1068.549	809.598
387.117	19.356	1067.625	808.463
388.132	19.340	1066.508	807.473
389.146	19.236	1065.874	806.431
390.161	19.180	1065.303	805.669
391.175	19.356	1064.324	805.676
392.190	19.380	1063.579	805.156
393.205	19.512	1063.015	805.275
394.219	19.534	1062.029	804.556
395.234	19.462	1061.123	803.464
396.248	19.385	1060.385	802.476
397.263	19.277	1059.345	801.114
398.278	19.294	1058.799	800.710
399.292	19.285	1057.907	799.923
400.307	19.288	1057.062	799.227
401.321	19.237	1056.796	798.720
402.336	19.357	1055.999	798.601
403.350	19.300	1055.569	797.945
404.365	19.353	1054.463	797.282
405.380	19.346	1054.078	796.888
406.394	19.493	1053.155	796.797
407.409	19.474	1052.395	796.065
408.423	19.696	1051.480	796.325
409.438	19.736	1051.042	796.106
410.453	19.766	1050.477	795.748
411.467	19.811	1049.552	795.184
412.482	19.905	1048.873	795.031
413.496	19.840	1048.112	794.082
414.511	19.949	1047.507	794.057
415.526	19.988	1047.265	793.982
416.540	19.941	1047.324	793.740
417.555	19.927	1046.203	792.758
418.569	19.935	1046.058	792.611
419.584	19.856	1045.752	791.948
420.599	19.974	1044.885	791.764
421.613	150.505	1399.885	1786.903
422.628	137.827	1451.610	1787.014
