DTS Sentinel unit serial number:	SN413079Multiplexer serial number:	ORYXHardware model number:	OX4-SRSoftware version number:	ORYX F/W v4.00 Oryx Data Collector v3.7.2.0data status	okinstallation	princeton_trtdifferential loss correction	single-endedforward channel	channel 2reverse channel	N/Adate	2019/09/14time	07:11:34forward acquisition time	60.00reverse acquisition time	0.00gamma	496.2192k internal	0.2338k external	0.2338temperature offset calibration	1.0136default loss term (dB/km)	0.3790temperature slope calibration	1.0000multiplexer offset coefficient	1.0000multiplexer slope coefficient	1.0000fibre end	0.00T internal ref (°C)	26.19T ext. ref 1 (°C)	3.45T ext. ref 2 (°C)	20.93length (m)	temperature (°C)	Stokes	anti-Stokes-747.200	302.046	-0.167	0.311
-746.185	367.419	-0.051	0.104
-745.171	727.381	-0.067	0.179
-744.156	800.000	0.098	0.316
-743.142	-42.231	0.196	-0.100
-742.127	336.037	0.087	0.169
-741.112	164.174	0.192	0.272
-740.098	-140.572	-0.520	0.054
-739.083	800.000	-0.032	-0.097
-738.069	-72.278	0.285	0.106
-737.054	-200.000	-0.029	-0.387
-736.039	-200.000	0.017	-0.166
-735.025	-88.150	0.177	0.053
-734.010	-200.000	0.018	-0.215
-732.996	-200.000	-0.011	-0.216
-731.981	147.041	-0.213	-0.287
-730.966	356.854	-0.053	-0.105
-729.952	-46.472	-0.308	-0.151
-728.937	-176.692	0.099	0.003
-727.923	63.386	0.086	-0.087
-726.908	1.196	-0.181	-0.131
-725.894	-47.588	-0.078	0.038
-724.879	-32.079	0.257	0.144
-723.864	800.000	0.088	-0.301
-722.850	-23.395	-0.220	-0.133
-721.835	-200.000	-0.010	0.054
-720.821	-28.700	0.177	0.102
-719.806	435.024	-0.060	0.130
-718.791	8.865	-0.305	0.231
-717.777	-137.351	0.162	0.018
-716.762	-200.000	-0.024	-0.117
-715.748	149.144	0.018	-0.025
-714.733	-101.074	0.291	0.072
-713.718	39.541	-0.169	0.152
-712.704	77.440	-0.062	0.066
-711.689	-74.044	-0.283	-0.103
-710.675	163.470	0.004	0.006
-709.660	-120.908	-0.123	0.021
-708.645	-200.000	0.066	0.544
-707.631	-86.814	0.242	0.074
-706.616	-24.004	0.241	-0.145
-705.602	800.000	-0.079	-0.271
-704.587	-72.572	-0.207	-0.077
-703.572	8.508	-0.231	0.174
-702.558	309.328	0.039	-0.074
-701.543	35.219	0.086	0.076
-700.529	-13.650	-0.124	-0.080
-699.514	-200.000	-0.008	0.240
-698.499	800.000	0.111	-0.412
-697.485	92.602	-0.279	-0.316
-696.470	-121.301	0.190	0.032
-695.456	-200.000	-0.085	-0.422
-694.441	-53.293	-0.117	0.054
-693.426	390.619	0.088	0.182
-692.412	398.352	-0.076	0.159
-691.397	-44.438	-0.309	-0.155
-690.383	278.190	0.145	0.259
-689.368	-200.000	-0.013	-0.458
-688.354	130.892	0.183	0.236
-687.339	-143.150	-0.301	-0.029
-686.324	-119.063	0.234	-0.041
-685.310	663.855	-0.145	-0.375
-684.295	-34.573	-0.149	0.082
-683.281	560.485	0.150	-0.363
-682.266	317.020	-0.069	-0.131
-681.251	-89.944	-0.234	-0.068
-680.237	-22.571	-0.283	-0.171
-679.222	800.000	-0.045	0.195
-678.208	90.203	0.173	-0.193
-677.193	-163.011	-0.366	-0.018
-676.178	109.842	-0.367	-0.440
-675.164	-117.238	-0.266	-0.048
-674.149	800.000	-0.030	-0.106
-673.135	-200.000	-0.011	-0.230
-672.120	103.005	-0.170	-0.199
-671.105	281.744	0.114	-0.205
-670.091	-162.611	-0.295	-0.015
-669.076	421.081	-0.208	-0.447
-668.062	-77.177	-0.491	0.171
-667.047	166.681	-0.099	0.141
-666.032	-54.329	-0.123	0.056
-665.018	800.000	0.049	-0.205
-664.003	-200.000	-0.003	0.248
-662.989	607.170	0.023	0.057
-661.974	-79.633	-0.146	0.049
-660.959	466.761	-0.107	-0.239
-659.945	-200.000	0.005	-0.072
-658.930	143.243	-0.127	-0.169
-657.916	-109.545	-0.548	0.116
-656.901	-116.110	-0.073	0.014
-655.886	-100.363	0.373	0.092
-654.872	-128.217	-0.191	0.027
-653.857	-134.422	0.164	0.020
-652.843	23.251	-0.222	0.182
-651.828	152.588	-0.218	-0.298
-650.814	-110.911	-0.159	0.033
-649.799	794.855	0.091	-0.249
-648.784	-200.000	0.007	0.123
-647.770	-74.227	-0.304	0.110
-646.755	90.808	0.136	-0.152
-645.741	-195.621	-0.085	0.001
-644.726	-200.000	0.026	-0.252
-643.711	-93.279	0.360	-0.100
-642.697	156.777	-0.064	-0.088
-641.682	-200.000	0.014	-0.569
-640.668	746.446	-0.052	0.140
-639.653	18.031	-0.150	0.120
-638.638	14.105	-0.326	0.254
-637.624	-200.000	0.006	0.324
-636.609	-200.000	-0.022	0.211
-635.595	-145.000	-0.407	0.037
-634.580	-98.865	-0.255	0.065
-633.565	-200.000	-0.022	-0.173
-632.551	29.803	-0.156	-0.133
-631.536	49.319	0.180	-0.169
-630.522	1.595	0.326	0.235
-629.507	800.000	0.056	-0.239
-628.492	454.563	-0.094	-0.207
-627.478	-37.971	0.236	-0.125
-626.463	-200.000	-0.084	-0.455
-625.449	-200.000	-0.010	-0.759
-624.434	-30.853	-0.113	-0.064
-623.419	-162.443	0.146	-0.007
-622.405	-148.390	-0.357	-0.029
-621.390	766.046	-0.072	-0.194
-620.376	-200.000	-0.019	-0.130
-619.361	-200.000	0.013	-0.118
-618.346	-15.300	0.052	-0.033
-617.332	109.210	-0.123	-0.147
-616.317	-20.250	0.184	-0.113
-615.303	-0.049	0.141	-0.100
-614.288	-200.000	0.009	0.121
-613.273	-200.000	0.010	0.178
-612.259	-62.504	0.075	0.031
-611.244	-200.000	-0.003	0.111
-610.230	800.000	0.039	-0.158
-609.215	788.104	0.103	-0.283
-608.201	-17.011	0.174	0.109
-607.186	-26.245	0.213	0.125
-606.171	-2.788	-0.404	0.282
-605.157	800.000	0.031	0.101
-604.142	-97.373	-0.453	0.118
-603.128	-136.225	-0.346	0.040
-602.113	369.597	-0.037	0.076
-601.098	143.026	0.174	-0.231
-600.084	56.986	-0.077	0.075
-599.069	-59.080	0.296	-0.127
-598.055	-141.330	-0.271	0.027
-597.040	-86.233	-0.211	-0.065
-596.025	242.361	-0.134	0.224
-595.011	718.486	0.045	0.120
-593.996	12.207	-0.187	-0.144
-592.982	-1.296	-0.281	-0.198
-591.967	800.000	-0.074	0.258
-590.952	-51.675	0.173	-0.080
-589.938	-72.956	-0.252	0.092
-588.923	386.831	0.018	-0.036
-587.909	-200.000	0.013	-0.077
-586.894	181.493	-0.157	-0.230
-585.879	616.604	0.086	-0.215
-584.865	39.666	-0.236	0.211
-583.850	33.075	-0.058	-0.050
-582.836	174.914	-0.138	-0.199
-581.821	14.667	-0.106	0.082
-580.806	800.000	0.043	-0.145
-579.792	-183.654	-0.318	-0.005
-578.777	183.595	-0.142	-0.209
-577.763	-3.065	0.260	-0.181
-576.748	335.220	-0.123	-0.237
-575.733	390.893	-0.106	0.220
-574.719	-103.721	0.139	-0.032
-573.704	110.325	-0.098	-0.117
-572.690	-160.828	0.116	0.006
-571.675	349.644	-0.130	-0.256
-570.661	-22.807	0.117	-0.070
-569.646	-33.786	-0.193	-0.106
-568.631	274.836	0.129	0.227
-567.617	291.989	0.097	-0.176
-566.602	253.915	-0.020	0.033
-565.588	-44.786	0.175	-0.087
-564.573	58.266	-0.079	0.078
-563.558	-183.974	-0.307	-0.005
-562.544	11.503	-0.081	0.062
-561.529	-87.258	0.266	0.080
-560.515	-36.936	-0.126	-0.067
-559.500	-131.891	-0.066	-0.009
-558.485	-119.546	0.246	0.042
-557.471	-200.000	0.002	0.144
-556.456	-18.963	0.215	0.133
-555.442	800.000	-0.033	-0.099
-554.427	-200.000	0.008	-0.065
-553.412	-134.531	-0.149	-0.018
-552.398	26.734	-0.141	-0.118
-551.383	-130.972	-0.229	0.030
-550.369	-120.854	-0.211	-0.035
-549.354	-90.401	-0.335	-0.097
-548.339	-61.457	-0.282	0.118
-547.325	81.562	-0.185	-0.199
-546.310	-167.392	0.107	-0.004
-545.296	-118.821	-0.158	-0.028
-544.281	-66.002	-0.236	-0.094
-543.266	6.924	0.197	0.146
-542.252	-23.935	-0.292	0.174
-541.237	245.087	-0.023	-0.039
-540.223	-200.000	0.005	-0.126
-539.208	-16.502	-0.223	0.141
-538.193	-200.000	0.038	-0.176
-537.179	-42.841	0.104	-0.052
-536.164	498.284	-0.076	-0.174
-535.150	-73.436	0.129	-0.047
-534.135	-137.065	-0.182	-0.021
-533.121	-200.000	-0.005	0.160
-532.106	161.162	-0.149	-0.207
-531.091	-75.578	0.317	0.112
-530.077	3.026	0.294	0.213
-529.062	57.987	-0.162	0.158
-528.048	68.212	-0.351	0.358
-527.033	82.759	-0.203	-0.219
-526.018	446.630	-0.060	0.131
-525.004	268.368	0.061	-0.106
-523.989	135.552	-0.124	-0.161
-522.975	-51.548	-0.083	0.038
-521.960	-115.010	-0.155	-0.029
-520.945	-200.000	0.023	-0.101
-519.931	386.724	0.026	0.053
-518.916	-200.000	0.052	-0.357
-517.902	-51.088	-0.168	-0.078
-516.887	-200.000	-0.005	0.036
-515.872	545.246	-0.072	0.170
-514.858	-161.455	0.157	0.008
-513.843	132.557	0.100	-0.128
-512.829	63.416	0.316	-0.315
-511.814	258.663	-0.071	0.122
-510.799	190.418	-0.078	-0.117
-509.785	-141.814	-0.113	0.011
-508.770	196.687	-0.074	0.112
-507.756	138.288	0.040	-0.052
-506.741	10.228	-0.070	-0.053
-505.726	-173.271	0.192	0.006
-504.712	-200.000	0.009	-0.125
-503.697	207.354	0.121	0.187
-502.683	800.000	-0.124	0.390
-501.668	192.396	0.314	0.470
-500.653	370.294	0.032	-0.064
-499.639	-48.985	0.148	0.070
-498.624	-200.000	-0.031	-0.256
-497.610	479.784	0.095	0.215
-496.595	-54.793	0.211	-0.095
-495.581	724.285	0.085	0.225
-494.566	-127.975	0.063	0.009
-493.551	520.274	-0.081	-0.188
-492.537	-31.015	0.161	-0.090
-491.522	800.000	0.077	-0.216
-490.508	52.428	-0.164	0.155
-489.493	96.561	-0.023	-0.026
-488.478	-200.000	-0.023	-0.418
-487.464	17.924	-0.162	0.128
-486.449	152.178	-0.110	0.149
-485.435	37.905	0.147	0.130
-484.420	-15.382	-0.019	0.012
-483.405	137.644	0.218	-0.284
-482.391	26.732	-0.308	0.256
-481.376	-110.159	-0.124	0.026
-480.362	132.580	0.150	-0.192
-479.347	477.623	-0.066	0.148
-478.332	-92.298	0.137	0.038
-477.318	611.181	0.065	0.161
-476.303	303.055	-0.071	-0.130
-475.289	43.176	0.202	-0.183
-474.274	-163.841	0.343	0.016
-473.259	-200.000	-0.033	-0.196
-472.245	-200.000	0.005	0.085
-471.230	-102.499	-0.210	0.050
-470.216	-78.119	0.252	0.086
-469.201	-91.467	0.242	0.069
-468.186	-200.000	0.080	-0.508
-467.172	800.000	-0.040	0.145
-466.157	-119.697	-0.182	0.031
-465.143	15.631	-0.123	-0.096
-464.128	-33.118	0.202	-0.111
-463.113	-200.000	0.019	-0.205
-462.099	-131.595	-0.127	-0.017
-461.084	-175.135	-0.394	0.011
-460.070	144.773	0.151	0.201
-459.055	-171.207	-0.182	0.006
-458.040	184.582	0.266	-0.391
-457.026	98.481	-0.238	0.272
-456.011	-70.624	0.324	-0.122
-454.997	163.851	0.228	0.319
-453.982	171.474	-0.210	-0.299
-452.968	145.750	0.239	-0.317
-451.953	671.762	0.179	0.459
-450.938	10.777	-0.121	0.092
-449.924	75.126	-0.029	-0.030
-448.909	-200.000	0.002	-0.244
-447.895	-86.045	0.096	0.029
-446.880	79.510	0.108	0.115
-445.865	238.859	0.110	0.182
-444.851	-42.843	-0.373	-0.188
-443.836	3.930	-0.170	-0.123
-442.822	47.416	-0.138	0.127
-441.807	-200.000	-0.013	-0.119
-440.792	180.389	-0.043	-0.062
-439.778	18.392	0.304	0.240
-438.763	-191.544	-0.192	-0.002
-437.749	229.993	-0.154	-0.250
-436.734	61.783	0.192	-0.189
-435.719	16.745	0.106	0.083
-434.705	800.000	-0.088	0.244
-433.690	210.689	-0.169	0.263
-432.676	-104.553	0.250	0.057
-431.661	196.789	0.029	-0.044
-430.646	182.457	-0.175	0.256
-429.632	800.000	0.136	0.532
-428.617	9.808	0.069	-0.052
-427.603	-2.331	0.263	0.183
-426.588	206.757	-0.138	0.212
-425.573	800.000	0.024	0.068
-424.559	-200.000	-0.005	0.141
-423.544	-200.000	-0.000	0.239
-422.530	228.979	0.181	0.292
-421.515	-200.000	0.010	0.128
-420.500	204.954	0.169	-0.260
-419.486	-110.122	-0.261	0.054
-418.471	-45.957	0.259	-0.126
-417.457	11.399	0.363	0.275
-416.442	-141.620	0.194	-0.019
-415.428	60.710	0.128	-0.125
-414.413	371.123	0.068	-0.137
-413.398	164.735	0.170	-0.237
-412.384	-126.926	0.290	0.042
-411.369	-200.000	0.017	0.150
-410.355	-144.295	-0.212	0.020
-409.340	763.111	0.077	-0.207
-408.325	372.176	-0.197	-0.396
-407.311	-0.102	-0.109	0.077
-406.296	-200.000	-0.006	0.069
-405.282	56.380	-0.134	-0.129
-404.267	5.200	0.108	-0.079
-403.252	23.803	0.080	0.066
-402.238	-98.188	-0.109	0.028
-401.223	800.000	0.061	-0.191
-400.209	-200.000	-0.011	0.383
-399.194	56.771	0.217	0.209
-398.179	58.679	0.097	0.094
-397.165	89.495	-0.180	-0.199
-396.150	660.215	0.039	0.100
-395.136	800.000	-0.035	0.124
-394.121	-49.813	0.307	-0.144
-393.106	220.325	-0.031	-0.049
-392.092	-98.921	-0.051	-0.013
-391.077	474.359	0.043	-0.097
-390.063	707.162	0.026	0.069
-389.048	176.558	-0.083	-0.119
-388.033	158.543	0.221	0.303
-387.019	-84.105	-0.166	-0.052
-386.004	35.459	-0.097	0.085
-384.990	-33.715	-0.191	-0.104
-383.975	217.459	0.172	-0.272
-382.960	-21.533	-0.177	-0.107
-381.946	160.361	-0.101	-0.140
-380.931	-93.806	0.164	0.045
-379.917	-200.000	0.018	-0.093
-378.902	-64.392	-0.333	0.134
-377.888	-48.326	-0.032	-0.015
-376.873	147.387	0.015	-0.020
-375.858	-32.809	0.133	-0.073
-374.844	-110.656	0.252	0.052
-373.829	106.469	-0.059	-0.069
-372.815	-175.229	-0.127	0.003
-371.800	-200.000	0.054	-0.298
-370.785	-75.708	0.219	0.077
-369.771	332.414	-0.102	-0.194
-368.756	250.968	-0.023	-0.038
-367.742	232.642	-0.066	-0.107
-366.727	-200.000	-0.007	0.073
-365.712	87.800	0.028	0.030
-364.698	41.575	-0.191	-0.171
-363.683	502.126	-0.123	0.282
-362.669	210.879	0.061	0.094
-361.654	21.908	0.025	-0.020
-360.639	32.454	-0.261	-0.223
-359.625	64.736	0.229	-0.228
-358.610	-200.000	0.007	0.080
-357.596	-200.000	-0.024	-0.363
-356.581	800.000	0.056	0.175
-355.566	-111.524	-0.128	0.026
-354.552	-59.531	0.298	-0.126
-353.537	-157.557	-0.401	-0.024
-352.523	-200.000	-0.017	0.074
-351.508	530.587	-0.065	0.151
-350.493	45.705	0.072	0.065
-349.479	-200.000	0.019	0.104
-348.464	-131.558	-0.256	0.033
-347.450	391.850	-0.047	-0.096
-346.435	198.977	0.175	0.265
-345.420	-30.529	-0.371	0.208
-344.406	353.184	0.163	0.319
-343.391	-200.000	-0.021	-0.214
-342.377	-200.000	-0.032	-0.426
-341.362	-97.697	-0.221	-0.057
-340.348	-128.371	-0.161	0.023
-339.333	75.144	0.130	0.135
-338.318	-200.000	0.007	-0.146
-337.304	-200.000	-0.001	0.218
-336.289	199.113	-0.099	-0.150
-335.275	-146.643	-0.057	-0.005
-334.260	-92.057	0.300	0.084
-333.245	108.581	0.132	0.156
-332.231	524.229	-0.116	0.270
-331.216	118.240	0.228	0.277
-330.202	-156.541	0.113	-0.007
-329.187	800.000	0.079	0.254
-328.172	-102.107	0.280	0.066
-327.158	-200.000	-0.007	-0.055
-326.143	301.056	-0.054	0.099
-325.129	-96.804	-0.162	0.042
-324.114	-67.252	-0.113	-0.044
-323.099	-118.099	0.282	-0.050
-322.085	-136.195	0.165	0.019
-321.070	37.631	0.140	0.123
-320.056	-200.000	-0.005	-0.312
-319.041	-200.000	-0.029	-0.186
-318.026	142.468	0.133	-0.174
-317.012	65.189	-0.140	0.139
-315.997	-32.601	0.060	-0.033
-314.983	632.013	0.027	0.067
-313.968	-55.586	0.247	0.109
-312.953	49.225	0.103	-0.096
-311.939	316.319	0.057	-0.107
-310.924	-18.477	-0.134	0.083
-309.910	149.039	0.079	-0.105
-308.895	288.227	0.085	0.153
-307.880	-79.912	-0.380	0.126
-306.866	228.636	-0.220	0.353
-305.851	-140.981	0.084	0.009
-304.837	183.857	0.207	0.303
-303.822	-200.000	0.044	0.212
-302.807	132.961	-0.074	0.094
-301.793	21.838	0.149	0.120
-300.778	-200.000	-0.018	-0.204
-299.764	-0.201	-0.257	0.181
-298.749	-200.000	-0.004	-0.103
-297.735	193.952	0.172	-0.256
-296.720	-200.000	-0.005	-0.269
-295.705	800.000	0.033	0.135
-294.691	800.000	0.108	-0.339
-293.676	-27.051	0.353	-0.203
-292.662	-109.244	0.182	0.038
-291.647	-116.300	0.356	0.065
-290.632	800.000	0.053	0.164
-289.618	502.557	0.082	0.187
-288.603	-200.000	-0.007	0.068
-287.589	800.000	-0.171	0.466
-286.574	-86.197	-0.159	0.048
-285.559	-200.000	-0.022	0.128
-284.545	-96.231	-0.203	-0.053
-283.530	-106.407	-0.168	0.037
-282.516	150.301	0.119	0.159
-281.501	84.613	-0.081	-0.087
-280.486	52.696	-0.121	-0.114
-279.472	800.000	0.073	0.231
-278.457	800.000	-0.030	0.083
-277.443	52.478	0.116	-0.109
-276.428	186.028	0.128	0.188
-275.413	-184.712	0.163	0.003
-274.399	-161.625	-0.092	0.005
-273.384	-61.125	-0.081	-0.034
-272.370	-127.135	0.282	-0.041
-271.355	-121.341	-0.074	0.012
-270.340	247.361	0.050	0.084
-269.326	-200.000	-0.088	-0.390
-268.311	-54.034	-0.146	-0.065
-267.297	-191.588	-0.066	0.001
-266.282	396.107	-0.056	0.115
-265.267	-8.487	0.094	0.062
-264.253	-28.089	-0.107	-0.061
-263.238	-200.000	0.024	-0.295
-262.224	-175.216	-0.099	0.003
-261.209	-0.996	0.147	-0.102
-260.195	-17.190	-0.216	0.134
-259.180	22.436	-0.189	-0.152
-258.165	80.535	-0.091	-0.097
-257.151	-175.351	0.025	-0.001
-256.136	63.688	-0.174	0.172
-255.122	204.295	-0.059	-0.090
-254.107	800.000	0.080	0.221
-253.092	20.718	-0.204	-0.163
-252.078	-103.722	0.057	0.013
-251.063	-200.000	-0.025	0.207
-250.049	-200.000	-0.005	-0.101
-249.034	-200.000	0.034	-0.207
-248.019	-17.868	-0.055	0.034
-247.005	104.898	0.353	0.409
-245.990	129.671	-0.215	-0.271
-244.976	-200.000	-0.020	0.132
-243.961	-200.000	0.059	0.325
-242.946	-108.263	0.249	-0.053
-241.932	117.310	-0.139	-0.168
-240.917	800.000	0.051	-0.141
-239.903	-7.987	0.169	-0.112
-238.888	-36.880	-0.236	0.125
-237.873	478.362	-0.066	0.147
-236.859	546.468	0.135	0.317
-235.844	103.599	0.219	-0.253
-234.830	236.727	-0.039	-0.064
-233.815	-200.000	-0.009	0.345
-232.800	-200.000	0.014	-0.143
-231.786	-200.000	0.025	0.222
-230.771	348.172	0.126	0.245
-229.757	800.000	-0.049	0.137
-228.742	8.331	-0.080	-0.059
-227.727	-172.087	-0.183	0.006
-226.713	-190.783	0.134	0.001
-225.698	800.000	0.100	0.317
-224.684	-200.000	-0.032	-0.150
-223.669	281.118	0.089	0.157
-222.655	-200.000	-0.032	0.352
-221.640	-43.854	0.442	-0.218
-220.625	-200.000	-0.061	-0.341
-219.611	465.377	-0.055	-0.122
-218.596	-200.000	0.031	0.298
-217.582	-8.473	0.180	0.119
-216.567	-140.057	0.292	-0.030
-215.552	-200.000	0.023	-0.221
-214.538	180.566	0.096	-0.139
-213.523	-119.358	-0.176	0.030
-212.509	721.019	-0.061	-0.160
-211.494	-60.400	-0.182	-0.076
-210.479	-200.000	-0.019	0.133
-209.465	-87.605	0.237	-0.070
-208.450	284.344	-0.088	0.156
-207.436	178.801	0.117	-0.168
-206.421	-41.876	-0.154	-0.077
-205.406	800.000	-0.037	-0.130
-204.392	-105.219	0.208	-0.047
-203.377	395.412	0.071	0.145
-202.363	-53.903	-0.325	0.146
-201.348	-130.921	0.332	0.044
-200.333	-200.000	-0.081	0.385
-199.319	323.228	-0.049	0.092
-198.304	157.710	0.144	-0.196
-197.290	574.043	-0.052	0.124
-196.275	-53.095	0.288	0.130
-195.260	-152.358	-0.191	0.014
-194.246	-2.144	-0.208	0.143
-193.231	-200.000	-0.015	0.314
-192.217	-13.179	-0.160	0.102
-191.202	92.465	-0.102	0.113
-190.187	494.373	0.056	-0.126
-189.173	78.535	0.107	-0.112
-188.158	-124.075	0.196	0.030
-187.144	-200.000	-0.025	-0.156
-186.129	-110.341	0.299	-0.061
-185.114	-63.450	0.210	0.085
-184.100	16.659	0.107	0.083
-183.085	451.318	-0.107	-0.233
-182.071	-158.706	-0.057	-0.003
-181.056	11.265	0.396	-0.298
-180.042	20.076	0.196	0.155
-179.027	100.935	0.142	0.162
-178.012	-116.400	0.128	-0.023
-176.998	-72.085	-0.065	-0.024
-175.983	-135.106	-0.301	-0.036
-174.969	-86.640	0.090	-0.027
-173.954	800.000	-0.099	0.279
-172.939	364.818	0.151	0.299
-171.925	24.495	0.151	-0.122
-170.910	-181.661	-0.134	0.003
-169.896	19.478	-0.140	-0.110
-168.881	537.526	0.053	-0.124
-167.866	72.967	-0.077	-0.079
-166.852	-42.425	0.243	0.122
-165.837	800.000	-0.097	-0.341
-164.823	800.000	-0.017	-0.063
-163.808	-200.000	-0.043	-0.266
-162.793	-98.944	-0.291	-0.072
-161.779	-104.512	0.383	-0.087
-160.764	-129.347	0.357	0.049
-159.750	800.000	-0.100	-0.334
-158.735	16.739	-0.185	0.144
-157.720	-0.162	0.047	0.033
-156.706	490.998	0.068	0.153
-155.691	-200.000	-0.072	0.386
-154.677	-97.570	0.118	0.030
-153.662	-89.433	-0.248	0.072
-152.647	17.410	-0.097	0.075
-151.633	-200.000	-0.047	0.305
-150.618	-200.000	0.023	0.342
-149.604	110.393	0.104	0.123
-148.589	-160.809	-0.260	-0.013
-147.574	800.000	0.022	0.071
-146.560	-200.000	-0.009	0.326
-145.545	331.598	0.126	0.238
-144.531	256.693	0.020	-0.034
-143.516	800.000	0.127	0.379
-142.502	140.758	0.206	0.267
-141.487	-16.395	-0.197	-0.122
-140.472	-97.902	-0.049	0.012
-139.458	-67.592	-0.257	-0.099
-138.443	36.033	0.078	-0.067
-137.429	-0.330	-0.178	0.124
-136.414	-200.000	0.020	0.227
-135.399	33.047	0.219	0.186
-134.385	408.920	0.091	0.190
-133.370	-102.121	0.170	-0.040
-132.356	-21.007	-0.139	0.083
-131.341	-33.751	-0.106	-0.057
-130.326	99.850	-0.088	-0.100
-129.312	-20.173	0.381	-0.230
-128.297	-100.569	0.242	-0.059
-127.283	-200.000	-0.034	0.162
-126.268	-143.853	0.029	0.003
-125.253	424.570	0.113	-0.239
-124.239	-58.292	0.130	-0.055
-123.224	226.251	0.247	-0.392
-122.210	-119.211	0.313	-0.054
-121.195	-200.000	-0.033	0.147
-120.180	105.962	-0.153	0.177
-119.166	340.842	-0.076	0.145
-118.151	54.633	0.158	-0.149
-117.137	-22.024	-0.022	0.013
-116.122	800.000	-0.022	0.081
-115.107	800.000	-0.025	0.104
-114.093	-200.000	0.011	-0.215
-113.078	-168.231	0.124	-0.005
-112.064	68.545	-0.088	-0.088
-111.049	800.000	-0.074	-0.273
-110.034	-50.261	-0.188	0.087
-109.020	74.833	0.109	-0.112
-108.005	-157.619	0.365	-0.021
-106.991	-200.000	-0.024	0.331
-105.976	72.903	-0.165	0.169
-104.962	-34.553	0.289	0.155
-103.947	-34.034	-0.300	0.162
-102.932	-131.898	0.172	0.022
-101.918	-200.000	0.007	0.176
-100.903	800.000	-0.009	-0.035
-99.889	594.151	0.056	-0.135
-98.874	-159.285	-0.331	-0.018
-97.859	-200.000	-0.037	-0.250
-96.845	-24.994	0.045	-0.026
-95.830	195.689	-0.137	0.204
-94.816	-200.000	0.012	0.199
-93.801	-140.429	-0.146	0.015
-92.786	-24.221	0.306	0.178
-91.772	-200.000	0.022	0.306
-90.757	800.000	0.118	0.495
-89.743	309.893	0.154	0.281
-88.728	-89.414	-0.092	-0.026
-87.713	-200.000	-0.026	-0.124
-86.699	-36.684	0.403	0.212
-85.684	120.117	0.219	0.266
-84.670	-81.143	-0.146	-0.047
-83.655	273.924	0.078	0.134
-82.640	331.300	-0.152	0.286
-81.626	-200.000	0.012	-0.377
-80.611	100.178	-0.015	0.017
-79.597	217.093	-0.163	0.254
-78.582	-159.292	0.018	-0.001
-77.567	-163.024	0.407	-0.019
-76.553	-5.458	-0.412	-0.277
-75.538	800.000	-0.024	0.087
-74.524	-200.000	0.023	-0.229
-73.509	-79.419	0.283	-0.094
-72.494	-54.819	0.135	-0.060
-71.480	59.306	0.290	0.279
-70.465	109.902	0.112	-0.131
-69.451	605.222	0.121	0.295
-68.436	-4.752	-0.134	0.091
-67.422	201.373	0.156	-0.235
-66.407	-77.906	-0.067	-0.023
-65.392	-110.192	0.170	0.035
-64.378	-200.000	-0.025	-0.292
-63.363	49.421	-0.161	0.148
-62.349	-200.000	0.039	0.320
-61.334	76.502	-0.771	-0.799
-60.319	-78.873	0.741	0.247
-59.305	693.524	-0.401	-1.027
-58.290	553.077	0.465	1.092
-57.276	713.525	0.629	1.627
-56.261	-200.000	116.313	635.704
-55.246	482.053	1551.491	3441.474
-54.232	172.335	2734.905	3841.729
-53.217	98.595	2304.824	2595.650
-52.203	35.308	1909.901	1635.540
-51.188	29.323	1703.043	1412.653
-50.173	26.942	1661.449	1360.274
-49.159	46.752	1719.394	1559.437
-48.144	45.624	1732.325	1562.498
-47.130	28.857	1690.093	1398.144
-46.115	26.209	1675.688	1366.171
-45.100	26.109	1670.758	1361.340
-44.086	26.094	1668.298	1359.172
-43.071	26.043	1665.613	1356.549
-42.057	25.986	1663.155	1354.060
-41.042	26.096	1660.901	1352.995
-40.027	26.094	1658.919	1351.313
-39.013	26.014	1657.635	1349.613
-37.998	25.994	1655.569	1347.731
-36.984	26.114	1654.013	1347.310
-35.969	26.231	1652.800	1347.136
-34.954	26.204	1650.930	1345.356
-33.940	26.146	1649.438	1343.662
-32.925	26.122	1647.821	1342.111
-31.911	26.176	1646.218	1341.150
-30.896	26.206	1644.174	1339.654
-29.881	26.144	1642.766	1337.998
-28.867	26.207	1640.415	1336.497
-27.852	26.226	1639.601	1335.920
-26.838	26.214	1638.054	1334.519
-25.823	26.208	1636.804	1333.397
-24.809	26.256	1635.316	1332.492
-23.794	26.250	1634.366	1331.621
-22.779	26.235	1632.446	1329.891
-21.765	26.210	1630.741	1328.263
-20.750	26.191	1629.603	1327.145
-19.736	26.226	1628.056	1326.090
-18.721	26.308	1626.201	1325.125
-17.706	26.179	1625.296	1323.394
-16.692	26.202	1623.366	1321.935
-15.677	26.247	1622.054	1321.145
-14.663	26.219	1620.856	1319.914
-13.648	26.196	1619.857	1318.879
-12.633	26.118	1618.310	1316.998
-11.619	26.153	1616.101	1315.404
-10.604	26.178	1614.420	1314.168
-9.590	26.241	1612.819	1313.268
-8.575	26.309	1611.510	1312.644
-7.560	26.140	1610.814	1310.799
-6.546	26.223	1609.721	1310.457
-5.531	26.316	1608.205	1309.843
-4.517	26.139	1608.140	1308.458
-3.502	26.184	1607.001	1307.804
-2.487	26.343	1604.321	1306.723
-1.473	25.885	1592.705	1293.925
-0.458	23.123	1572.915	1258.180
0.556	20.687	1574.649	1227.338
1.571	18.452	1598.736	1229.984
2.586	17.942	1610.804	1235.465
3.600	15.955	1555.222	1178.839
4.615	9.342	1448.386	1054.530
5.629	4.284	1389.107	979.407
6.644	3.456	1381.803	968.966
7.659	3.467	1380.620	968.123
8.673	3.430	1379.780	967.211
9.688	3.457	1377.746	965.874
10.702	3.428	1375.064	963.724
11.717	5.911	1378.502	981.597
12.731	12.835	1391.852	1034.611
13.746	18.855	1401.376	1079.533
14.761	20.254	1403.170	1089.611
15.775	19.692	1401.302	1084.535
16.790	18.749	1398.314	1076.222
17.804	17.919	1396.329	1069.402
18.819	17.538	1394.948	1065.866
19.834	17.427	1393.573	1064.027
20.848	17.242	1392.954	1062.300
21.863	16.901	1391.777	1059.180
22.877	16.850	1390.921	1058.119
23.892	16.826	1389.473	1056.772
24.907	16.828	1388.403	1055.877
25.921	16.879	1387.114	1055.120
26.936	16.903	1386.632	1054.813
27.950	16.911	1385.763	1054.105
28.965	16.903	1385.193	1053.529
29.980	17.036	1383.707	1053.134
30.994	17.169	1382.411	1052.879
32.009	17.094	1381.766	1051.828
33.023	17.226	1380.128	1051.306
34.038	17.019	1379.088	1049.143
35.053	16.998	1377.734	1047.887
36.067	16.977	1376.907	1047.039
37.082	17.008	1375.773	1046.271
38.096	17.050	1374.723	1045.641
39.111	17.061	1373.525	1044.705
40.126	17.037	1372.578	1043.746
41.140	16.835	1372.098	1042.044
42.155	16.722	1371.538	1040.830
43.169	16.680	1371.117	1040.161
44.184	16.748	1370.878	1040.309
45.199	16.729	1370.625	1039.908
46.213	16.750	1370.086	1039.534
47.228	16.928	1368.969	1039.684
48.242	17.061	1368.122	1039.763
49.257	16.943	1366.649	1037.830
50.271	16.966	1365.196	1036.775
51.286	16.887	1363.660	1035.039
52.301	16.961	1362.325	1034.381
53.315	16.893	1361.400	1033.177
54.330	16.719	1360.352	1031.230
55.344	16.737	1359.373	1030.504
56.359	16.744	1357.834	1029.289
57.374	16.732	1357.239	1028.678
58.388	16.614	1356.431	1027.254
59.403	16.593	1356.281	1026.922
60.417	16.555	1355.871	1026.294
61.432	16.552	1354.592	1025.215
62.447	16.624	1353.331	1024.605
63.461	16.478	1352.044	1022.656
64.476	16.384	1351.320	1021.450
65.490	16.476	1349.733	1020.715
66.505	16.472	1348.286	1019.505
67.520	16.583	1347.042	1019.145
68.534	16.613	1346.025	1018.465
69.549	16.595	1344.901	1017.417
70.563	16.524	1343.833	1016.095
71.578	16.378	1343.127	1014.589
72.593	16.304	1342.336	1013.459
73.607	16.330	1341.510	1012.903
74.622	16.377	1340.553	1012.376
75.636	16.453	1339.533	1011.971
76.651	16.450	1339.144	1011.565
77.666	16.481	1338.572	1011.233
78.680	16.398	1338.449	1010.553
79.695	16.472	1337.613	1010.274
80.709	16.629	1336.402	1010.207
81.724	16.614	1336.049	1009.763
82.739	16.652	1335.218	1009.269
83.753	16.871	1334.179	1009.701
84.768	16.907	1333.227	1009.106
85.782	16.980	1332.245	1008.708
86.797	16.952	1331.238	1007.687
87.812	16.988	1329.046	1006.154
88.826	16.896	1328.259	1004.925
89.841	16.902	1327.562	1004.340
90.855	16.960	1326.510	1003.800
91.870	17.045	1325.712	1003.609
92.884	17.107	1324.689	1003.112
93.899	17.087	1323.914	1002.322
94.914	17.119	1322.980	1001.713
95.928	17.146	1322.390	1001.337
96.943	17.035	1321.654	1000.037
97.957	17.031	1320.630	999.149
98.972	17.034	1319.692	998.371
99.987	17.046	1318.325	997.316
101.001	17.076	1317.559	996.826
102.016	16.916	1316.701	995.148
103.030	17.064	1315.373	994.925
104.045	17.026	1314.415	993.891
105.060	16.886	1313.285	992.131
106.074	16.711	1311.844	989.928
107.089	16.662	1310.356	988.431
108.103	16.531	1308.841	986.437
109.118	16.582	1307.448	985.598
110.133	16.572	1306.397	984.662
111.147	16.655	1304.995	983.997
112.162	16.670	1303.798	983.096
113.176	16.741	1302.808	982.673
114.191	16.747	1301.944	981.970
115.206	16.733	1301.094	981.166
116.220	16.732	1299.246	979.676
117.235	16.770	1298.646	979.357
118.249	16.699	1297.330	977.868
119.264	16.543	1296.808	976.487
120.279	16.507	1295.267	975.036
121.293	16.515	1294.295	974.259
122.308	16.432	1293.170	972.848
123.322	16.427	1292.236	972.035
124.337	16.472	1291.181	971.411
125.352	16.554	1289.520	970.547
126.366	16.506	1289.133	969.897
127.381	16.396	1288.136	968.427
128.395	16.509	1286.593	967.827
129.410	16.571	1285.752	967.467
130.424	16.536	1285.082	966.674
131.439	16.541	1284.477	966.164
132.454	16.688	1283.583	966.243
133.468	16.532	1282.842	964.714
134.483	16.699	1281.686	964.708
135.497	16.684	1280.591	963.716
136.512	16.671	1279.418	962.673
137.527	16.823	1277.642	962.112
138.541	16.693	1276.862	960.704
139.556	16.783	1275.621	960.193
140.570	16.870	1274.788	959.976
141.585	16.947	1273.114	959.066
142.600	16.854	1272.487	957.983
143.614	17.043	1271.214	958.006
144.629	17.073	1270.278	957.388
145.643	17.152	1269.135	956.886
146.658	17.026	1267.717	955.023
147.673	16.932	1266.512	953.503
148.687	16.857	1265.186	952.000
149.702	16.789	1263.777	950.471
150.716	16.762	1262.706	949.431
151.731	16.773	1261.692	948.645
152.746	16.807	1260.340	947.737
153.760	16.962	1259.292	947.729
154.775	16.935	1258.500	946.901
155.789	16.968	1257.153	945.983
156.804	16.942	1256.205	945.042
157.819	17.102	1254.946	944.902
158.833	17.129	1254.226	944.427
159.848	17.196	1253.777	944.377
160.862	17.191	1252.436	943.259
161.877	16.986	1251.179	941.091
162.892	16.844	1250.302	939.559
163.906	16.806	1249.542	938.695
164.921	16.807	1248.198	937.611
165.935	16.914	1247.183	937.352
166.950	17.013	1246.730	937.480
167.964	16.993	1245.887	936.650
168.979	16.996	1245.267	936.117
169.994	16.929	1244.436	935.042
171.008	16.873	1243.827	934.193
172.023	17.184	1242.465	934.799
173.037	17.194	1241.956	934.387
174.052	17.205	1240.994	933.642
175.067	17.010	1239.929	931.688
176.081	16.888	1238.854	930.129
177.096	17.007	1237.618	929.771
178.110	16.905	1237.061	928.709
179.125	17.013	1235.822	928.292
180.140	16.946	1234.960	927.191
181.154	17.012	1233.374	926.282
182.169	17.199	1232.262	926.384
183.183	17.238	1231.423	925.882
184.198	17.242	1230.031	924.775
185.213	17.324	1228.610	924.072
186.227	17.255	1228.015	923.166
187.242	17.406	1226.545	922.803
188.256	17.348	1226.112	922.078
189.271	17.334	1225.146	921.195
190.286	17.225	1223.629	919.385
191.300	16.970	1222.568	917.124
192.315	17.009	1221.811	916.687
193.329	16.942	1221.324	915.878
194.344	16.972	1220.897	915.639
195.359	17.172	1220.388	916.257
196.373	17.293	1219.636	916.263
197.388	17.263	1219.981	916.277
198.402	17.488	1219.041	916.705
199.417	17.581	1218.564	916.763
200.432	17.610	1217.871	916.316
201.446	17.645	1217.048	915.806
202.461	17.688	1216.118	915.256
203.475	17.748	1215.047	914.691
204.490	17.570	1213.421	912.429
205.504	17.430	1212.472	910.890
206.519	17.531	1210.897	910.167
207.534	17.489	1209.851	909.071
208.548	17.435	1209.033	908.091
209.563	17.561	1208.170	908.034
210.577	17.531	1207.346	907.174
211.592	17.679	1206.164	906.994
212.607	17.809	1205.172	906.856
213.621	17.700	1204.753	905.885
214.636	17.647	1203.544	904.612
215.650	17.703	1202.818	904.285
216.665	17.697	1202.022	903.572
217.680	17.885	1201.389	904.016
218.694	17.844	1200.394	902.967
219.709	17.687	1199.959	901.731
220.723	17.834	1198.728	901.503
221.738	17.780	1198.149	900.704
222.753	17.770	1197.463	900.052
223.767	17.786	1196.410	899.270
224.782	17.861	1196.263	899.471
225.796	17.948	1195.378	899.183
226.811	17.919	1194.395	898.215
227.826	17.837	1193.757	897.225
228.840	17.801	1193.385	896.676
229.855	17.766	1192.743	895.932
230.869	17.826	1191.530	895.256
231.884	17.782	1190.856	894.437
232.899	17.605	1189.996	892.785
233.913	17.628	1188.997	892.077
234.928	17.714	1188.423	892.019
235.942	17.548	1188.053	890.794
236.957	17.582	1187.320	890.342
237.972	17.716	1186.035	889.999
238.986	17.726	1185.202	889.348
240.001	17.661	1185.052	888.816
241.015	17.689	1184.007	888.103
242.030	17.870	1182.971	888.189
243.045	17.842	1182.647	887.721
244.059	17.942	1181.521	887.317
245.074	17.899	1181.090	886.692
246.088	17.985	1179.857	886.132
247.103	18.022	1179.374	885.884
248.117	18.103	1178.829	885.813
249.132	18.174	1178.233	885.655
250.147	18.397	1177.260	886.000
251.161	18.343	1177.101	885.523
252.176	18.412	1176.153	885.086
253.190	18.493	1175.503	884.936
254.205	18.615	1174.954	885.078
255.220	18.642	1174.037	884.444
256.234	18.558	1173.422	883.470
257.249	18.529	1172.757	882.743
258.263	18.538	1172.010	882.152
259.278	18.494	1171.798	881.688
260.293	18.486	1171.287	881.181
261.307	18.562	1170.770	881.105
262.322	18.694	1169.812	880.984
263.336	18.635	1169.224	880.159
264.351	18.783	1168.371	880.201
265.366	18.729	1167.450	879.152
266.380	18.703	1167.137	878.703
267.395	18.664	1166.099	877.646
268.409	18.570	1165.303	876.489
269.424	18.550	1164.549	875.741
270.439	18.600	1164.411	875.814
271.453	18.647	1163.065	874.965
272.468	18.410	1162.309	873.110
273.482	18.556	1161.217	872.957
274.497	18.519	1161.345	872.789
275.512	18.580	1160.232	872.187
276.526	18.593	1159.298	871.473
277.541	18.579	1158.667	870.851
278.555	18.653	1158.124	870.737
279.570	18.735	1157.445	870.569
280.585	18.807	1156.749	870.330
281.599	18.748	1155.482	869.002
282.614	18.713	1154.074	867.689
283.628	18.725	1153.302	867.092
284.643	18.657	1152.336	865.947
285.657	18.786	1151.756	866.083
286.672	18.648	1150.824	864.612
287.687	18.687	1149.799	863.963
288.701	18.722	1148.935	863.413
289.716	18.786	1148.509	863.336
290.730	18.620	1147.856	861.935
291.745	18.700	1147.159	861.739
292.760	18.771	1146.207	861.303
293.774	18.921	1145.553	861.488
294.789	18.926	1145.317	861.257
295.803	19.010	1144.312	860.849
296.818	18.852	1143.474	859.353
297.833	18.824	1142.776	858.610
298.847	18.877	1141.915	858.153
299.862	18.869	1141.552	857.763
300.876	18.840	1140.828	857.000
301.891	18.978	1140.201	857.139
302.906	18.970	1139.411	856.430
303.920	19.015	1138.636	855.996
304.935	19.279	1137.863	856.650
305.949	19.289	1137.586	856.415
306.964	19.202	1136.885	855.381
307.979	19.170	1136.243	854.664
308.993	19.190	1134.940	853.709
310.008	19.210	1134.465	853.373
311.022	19.257	1133.461	852.774
312.037	19.268	1132.958	852.374
313.052	19.079	1132.015	850.658
314.066	19.089	1130.544	849.526
315.081	19.034	1129.828	848.640
316.095	18.982	1129.048	847.725
317.110	18.902	1128.549	846.882
318.125	18.945	1127.957	846.570
319.139	19.038	1126.818	846.099
320.154	19.021	1126.602	845.782
321.168	18.994	1125.899	845.045
322.183	19.070	1125.341	844.922
323.197	19.188	1124.403	844.721
324.212	18.975	1124.170	843.428
325.227	18.980	1123.702	843.028
326.241	19.125	1122.808	842.993
327.256	19.159	1121.531	842.125
328.270	19.033	1120.908	840.969
329.285	19.120	1119.919	840.575
330.300	18.982	1119.037	839.167
331.314	19.135	1117.964	839.034
332.329	19.108	1117.234	838.281
333.343	19.103	1116.823	837.874
334.358	19.366	1115.489	838.076
335.373	19.390	1115.024	837.771
336.387	19.414	1114.142	837.150
337.402	19.467	1112.971	836.450
338.416	19.425	1112.705	835.974
339.431	19.529	1111.997	835.872
340.446	19.595	1111.272	835.572
341.460	19.596	1111.080	835.360
342.475	19.697	1110.305	835.192
343.489	19.680	1109.064	834.102
344.504	19.835	1108.312	834.208
345.519	19.859	1107.514	833.650
346.533	19.820	1106.727	832.797
347.548	19.819	1105.863	832.066
348.562	19.907	1104.967	831.745
349.577	19.549	1104.442	829.556
350.592	19.567	1103.094	828.553
351.606	19.412	1102.796	827.512
352.621	19.607	1101.545	827.435
353.635	19.498	1101.406	826.736
354.650	19.578	1100.334	826.244
355.665	19.520	1100.017	825.654
356.679	19.501	1099.401	825.029
357.694	19.645	1098.505	824.968
358.708	19.790	1098.016	825.223
359.723	19.658	1097.792	824.353
360.738	19.711	1096.719	823.724
361.752	19.654	1096.493	823.212
362.767	19.746	1095.883	823.117
363.781	19.730	1094.944	822.264
364.796	19.893	1094.376	822.538
365.810	19.955	1093.750	822.290
366.825	20.081	1093.104	822.331
367.840	20.169	1092.613	822.305
368.854	20.239	1092.103	822.180
369.869	20.141	1091.250	821.002
370.883	20.082	1090.370	819.988
371.898	19.978	1090.110	819.228
372.913	20.023	1089.434	818.860
373.927	19.992	1089.051	818.354
374.942	20.153	1088.342	818.508
375.956	20.043	1088.077	817.717
376.971	20.000	1087.575	817.064
377.986	20.059	1086.691	816.606
379.000	20.242	1086.348	817.137
380.015	20.309	1085.379	816.651
381.029	20.261	1084.724	815.859
382.044	20.310	1083.954	815.441
383.059	20.326	1083.370	815.003
384.073	20.327	1082.512	814.288
385.088	20.385	1081.667	813.856
386.102	20.333	1080.358	812.553
387.117	20.221	1079.396	811.233
388.132	20.200	1078.559	810.437
389.146	20.210	1077.523	809.631
390.161	20.134	1077.445	809.150
391.175	20.091	1076.536	808.192
392.190	20.193	1075.992	808.190
393.205	20.385	1075.282	808.476
394.219	20.303	1073.825	806.931
395.234	20.353	1072.902	806.395
396.248	20.203	1071.874	804.854
397.263	20.088	1071.588	804.036
398.278	20.073	1070.783	803.292
399.292	20.096	1070.120	802.832
400.307	20.089	1068.986	801.878
401.321	20.046	1068.769	801.444
402.336	20.211	1067.747	801.370
403.350	20.193	1067.292	800.874
404.365	20.308	1066.261	800.557
405.380	20.258	1065.792	799.906
406.394	20.274	1065.150	799.425
407.409	20.409	1064.438	799.444
408.423	20.552	1064.019	799.714
409.438	20.535	1063.176	798.933
410.453	20.616	1062.258	798.543
411.467	20.673	1061.332	798.039
412.482	20.630	1061.332	797.774
413.496	20.662	1060.449	797.185
414.511	20.719	1060.110	797.118
415.526	20.873	1059.225	797.090
416.540	20.830	1059.182	796.790
417.555	20.888	1058.784	796.685
418.569	20.696	1057.987	795.134
419.584	20.710	1057.662	794.884
420.599	20.861	1056.681	794.765
421.613	155.722	1404.816	1796.253
422.628	143.014	1455.521	1796.321
