DTS Sentinel unit serial number:	SN413079Multiplexer serial number:	ORYXHardware model number:	OX4-SRSoftware version number:	ORYX F/W v4.00 Oryx Data Collector v3.7.2.0data status	okinstallation	princeton_trtdifferential loss correction	single-endedforward channel	channel 2reverse channel	N/Adate	2019/09/13time	13:31:35forward acquisition time	60.00reverse acquisition time	0.00gamma	496.2192k internal	0.2315k external	0.2315temperature offset calibration	1.0209default loss term (dB/km)	0.3790temperature slope calibration	1.0000multiplexer offset coefficient	1.0000multiplexer slope coefficient	1.0000fibre end	0.00T internal ref (°C)	35.02T ext. ref 1 (°C)	4.57T ext. ref 2 (°C)	30.99length (m)	temperature (°C)	Stokes	anti-Stokes-747.200	779.561	-0.114	0.317
-746.185	235.952	0.071	0.119
-745.171	237.306	0.089	0.150
-744.156	77.565	-0.277	0.298
-743.142	378.196	0.231	0.479
-742.127	136.458	0.036	-0.048
-741.112	-92.966	-0.246	-0.069
-740.098	91.267	-0.247	0.281
-739.083	-200.000	-0.025	-0.281
-738.069	800.000	-0.085	0.353
-737.054	86.358	-0.251	-0.280
-736.039	-132.323	-0.508	0.066
-735.025	-200.000	0.081	0.510
-734.010	-200.000	0.028	0.161
-732.996	-159.585	0.213	-0.012
-731.981	31.341	-0.217	0.189
-730.966	-17.494	-0.188	0.120
-729.952	-60.217	-0.095	-0.041
-728.937	-42.019	-0.159	0.082
-727.923	40.837	-0.415	-0.380
-726.908	-200.000	-0.002	-0.011
-725.894	-200.000	-0.052	-0.454
-724.879	144.573	-0.091	-0.124
-723.864	62.750	0.093	-0.094
-722.850	349.518	-0.079	0.158
-721.835	-120.292	-0.204	0.035
-720.821	111.678	-0.156	-0.191
-719.806	800.000	-0.023	-0.065
-718.791	800.000	0.139	-0.433
-717.777	-200.000	-0.008	0.051
-716.762	346.181	0.062	-0.124
-715.748	-92.158	-0.155	0.044
-714.733	-200.000	-0.004	0.159
-713.718	-200.000	0.040	0.377
-712.704	485.015	0.132	-0.305
-711.689	-90.337	-0.264	0.077
-710.675	383.352	-0.072	0.149
-709.660	187.964	0.193	0.291
-708.645	800.000	0.072	-0.245
-707.631	-131.332	0.188	0.025
-706.616	-127.903	0.221	-0.032
-705.602	-113.122	0.133	-0.027
-704.587	-94.762	0.151	-0.041
-703.572	800.000	0.082	0.271
-702.558	800.000	0.090	0.303
-701.543	-144.148	0.222	0.021
-700.529	732.071	0.067	0.180
-699.514	54.825	-0.135	-0.132
-698.499	77.588	0.156	0.168
-697.485	-112.927	0.263	0.053
-696.470	7.280	-0.258	-0.195
-695.456	-200.000	-0.036	-0.246
-694.441	-167.590	-0.508	-0.020
-693.426	284.022	-0.187	-0.340
-692.412	135.508	0.170	-0.223
-691.397	-200.000	0.058	-0.269
-690.383	394.361	0.046	-0.097
-689.368	-200.000	0.011	-0.088
-688.354	-106.058	-0.302	0.069
-687.339	431.224	-0.123	-0.269
-686.324	-200.000	0.027	-0.156
-685.310	-176.217	0.282	-0.007
-684.295	-162.604	0.163	-0.008
-683.281	465.188	0.097	-0.219
-682.266	-124.957	-0.473	0.074
-681.251	-126.186	0.119	0.018
-680.237	33.578	-0.330	-0.290
-679.222	-33.703	-0.207	-0.116
-678.208	133.665	-0.119	-0.156
-677.193	-26.562	-0.276	-0.163
-676.178	126.441	-0.149	-0.191
-675.164	-72.266	-0.120	-0.045
-674.149	-3.328	0.089	-0.062
-673.135	136.534	-0.072	-0.095
-672.120	16.051	-0.290	0.231
-671.105	-115.550	0.088	0.017
-670.091	52.889	0.253	0.245
-669.076	-200.000	0.020	-0.241
-668.062	514.745	0.026	0.061
-667.047	-135.586	-0.113	0.014
-666.032	378.482	-0.139	0.287
-665.018	800.000	-0.103	-0.320
-664.003	84.524	-0.123	0.136
-662.989	-40.924	-0.148	0.077
-661.974	800.000	-0.016	-0.055
-660.959	-92.381	0.304	0.086
-659.945	500.749	-0.043	0.100
-658.930	158.995	0.077	0.108
-657.916	-37.225	0.248	0.134
-656.901	800.000	-0.099	-0.282
-655.886	524.203	-0.094	-0.222
-654.872	-8.448	0.246	0.167
-653.857	95.113	0.056	-0.064
-652.843	-108.930	-0.156	0.034
-651.828	-84.852	-0.219	-0.069
-650.814	-40.212	-0.100	0.053
-649.799	263.281	0.072	0.127
-648.784	-200.000	-0.012	0.186
-647.770	-149.242	0.157	0.013
-646.755	-50.988	-0.177	-0.084
-645.741	-104.260	-0.274	0.064
-644.726	-24.794	-0.146	-0.087
-643.711	-17.561	0.156	0.099
-642.697	134.007	-0.144	-0.188
-641.682	-129.104	0.221	0.031
-640.668	-46.578	0.187	0.092
-639.653	-13.254	0.394	-0.258
-638.638	303.947	0.075	-0.141
-637.624	-56.098	-0.262	-0.118
-636.609	800.000	0.064	-0.235
-635.595	-115.596	-0.107	0.020
-634.580	800.000	-0.067	0.188
-633.565	-89.956	-0.484	0.143
-632.551	800.000	-0.048	-0.162
-631.536	-200.000	-0.015	0.254
-630.522	-200.000	0.024	-0.186
-629.507	-200.000	-0.005	-0.244
-628.492	142.225	0.086	0.115
-627.478	-51.094	0.239	-0.113
-626.463	58.513	0.120	-0.118
-625.449	-104.055	0.154	0.036
-624.434	370.920	0.100	-0.205
-623.419	-38.660	-0.150	-0.080
-622.405	-200.000	0.008	-0.220
-621.390	-200.000	0.017	0.085
-620.376	-147.868	-0.412	0.035
-619.361	136.058	0.220	0.289
-618.346	-186.700	-0.342	0.005
-617.332	800.000	0.046	0.201
-616.317	2.957	0.234	-0.171
-615.303	338.953	-0.010	-0.020
-614.288	12.236	-0.240	-0.186
-613.273	47.298	-0.118	0.111
-612.259	154.386	-0.144	-0.200
-611.244	117.804	-0.145	-0.179
-610.230	43.283	-0.137	0.126
-609.215	-38.765	-0.065	0.034
-608.201	54.650	0.200	0.194
-607.186	-200.000	0.054	-0.309
-606.171	-23.985	0.093	0.056
-605.157	-88.940	-0.324	0.097
-604.142	-17.803	-0.202	0.128
-603.128	-79.820	0.139	0.047
-602.113	75.840	0.166	-0.177
-601.098	-101.242	-0.193	-0.047
-600.084	-112.311	-0.234	0.047
-599.069	69.812	-0.067	0.069
-598.055	-200.000	0.040	-0.249
-597.040	-121.881	0.476	-0.079
-596.025	800.000	-0.032	-0.103
-595.011	-30.710	-0.544	0.310
-593.996	97.989	0.121	0.140
-592.982	5.373	0.194	0.144
-591.967	800.000	0.057	0.227
-590.952	186.084	0.068	0.102
-589.938	-200.000	-0.006	-0.094
-588.923	-200.000	-0.018	0.378
-587.909	148.821	0.124	-0.168
-586.894	37.707	0.171	-0.153
-585.879	494.958	-0.084	-0.194
-584.865	-114.326	0.384	-0.074
-583.850	645.259	0.059	-0.152
-582.836	-60.420	-0.132	-0.057
-581.821	-96.751	0.342	-0.091
-580.806	-200.000	-0.013	0.073
-579.792	-200.000	-0.008	-0.602
-578.777	800.000	-0.126	-0.475
-577.763	-82.285	-0.317	-0.104
-576.748	108.148	0.135	0.162
-575.733	800.000	-0.062	-0.174
-574.719	-108.944	0.269	0.058
-573.704	14.307	-0.141	0.111
-572.690	800.000	0.026	-0.078
-571.675	-55.886	0.175	-0.079
-570.661	-200.000	0.023	-0.282
-569.646	-200.000	0.053	-0.287
-568.631	-200.000	0.014	0.135
-567.617	63.018	-0.162	-0.163
-566.602	-89.369	-0.281	0.083
-565.588	-131.999	0.305	0.040
-564.573	79.023	0.196	-0.211
-563.558	541.579	-0.100	-0.239
-562.544	245.401	-0.093	0.158
-561.529	-143.460	0.333	0.032
-560.515	-200.000	0.023	-0.206
-559.500	118.265	-0.234	-0.290
-558.485	-151.193	0.330	-0.025
-557.471	81.492	0.208	0.227
-556.456	-32.344	-0.222	0.125
-555.442	96.313	0.258	-0.297
-554.427	-60.634	-0.065	0.028
-553.412	18.877	-0.090	0.073
-552.398	-200.000	-0.030	-0.216
-551.383	8.550	0.163	0.123
-550.369	-71.171	0.153	-0.058
-549.354	-11.840	-0.110	0.073
-548.339	-152.092	-0.087	-0.006
-547.325	565.317	-0.100	0.244
-546.310	1.467	0.167	-0.120
-545.296	662.576	-0.074	-0.193
-544.281	94.479	0.131	0.150
-543.266	-92.595	0.223	-0.063
-542.252	78.574	0.101	0.109
-541.237	-152.905	0.219	0.016
-540.223	-200.000	-0.014	-0.109
-539.208	672.824	-0.062	-0.162
-538.193	-56.524	0.053	0.024
-537.179	-91.163	0.114	0.033
-536.164	130.860	0.067	-0.086
-535.150	-120.428	-0.116	-0.020
-534.135	251.284	-0.257	0.440
-533.121	11.013	0.088	-0.068
-532.106	65.621	-0.192	-0.196
-531.091	362.891	0.018	0.036
-530.077	24.636	-0.116	-0.097
-529.062	63.127	-0.153	0.154
-528.048	-165.811	0.207	0.009
-527.033	-106.356	-0.117	-0.026
-526.018	672.583	-0.120	-0.313
-525.004	359.852	0.147	0.295
-523.989	73.247	0.179	-0.188
-522.975	46.093	-0.277	0.258
-521.960	85.516	0.249	-0.274
-520.945	-66.938	0.216	-0.086
-519.931	-131.094	-0.147	0.020
-518.916	800.000	0.052	0.166
-517.902	323.250	0.107	-0.205
-516.887	49.798	-0.423	-0.400
-515.872	67.877	-0.176	-0.181
-514.858	-200.000	-0.038	-0.308
-513.843	-9.475	0.208	0.139
-512.829	800.000	0.043	-0.148
-511.814	153.919	0.058	-0.080
-510.799	-200.000	0.003	0.210
-509.785	800.000	-0.098	-0.367
-508.770	-60.681	0.298	0.127
-507.756	-48.715	-0.192	-0.092
-506.741	800.000	0.065	0.199
-505.726	37.983	-0.106	-0.095
-504.712	-191.986	0.111	-0.001
-503.697	609.166	-0.037	-0.093
-502.683	-29.281	0.125	-0.072
-501.668	800.000	0.055	0.213
-500.653	-200.000	-0.059	0.508
-499.639	-49.013	-0.346	0.166
-498.624	103.569	-0.162	0.190
-497.610	-37.624	-0.083	-0.044
-496.595	800.000	0.097	-0.396
-495.581	-62.009	-0.175	-0.073
-494.566	-57.632	-0.190	-0.084
-493.551	217.226	-0.105	0.168
-492.537	-48.786	0.144	-0.069
-491.522	800.000	0.070	0.263
-490.508	81.115	0.085	-0.093
-489.493	800.000	-0.118	-0.365
-488.478	-200.000	-0.034	-0.198
-487.464	-99.957	-0.278	-0.070
-486.449	-168.327	-0.425	0.016
-485.435	-28.765	0.117	0.067
-484.420	643.567	0.144	0.369
-483.405	800.000	-0.100	-0.375
-482.391	-23.076	-0.372	0.225
-481.376	-16.222	0.218	0.139
-480.362	-200.000	0.005	0.201
-479.347	72.890	-0.036	0.038
-478.332	-144.669	0.309	-0.029
-477.318	800.000	-0.067	-0.206
-476.303	26.953	0.120	0.101
-475.289	265.633	0.102	0.178
-474.274	17.477	0.179	0.142
-473.259	-92.350	-0.344	-0.097
-472.245	-200.000	-0.037	-0.164
-471.230	800.000	-0.018	-0.080
-470.216	85.050	0.076	-0.084
-469.201	221.337	0.111	0.179
-468.186	-152.843	0.093	-0.007
-467.172	-71.597	-0.268	0.100
-466.157	-59.000	0.197	-0.085
-465.143	165.755	-0.162	0.229
-464.128	571.874	0.146	0.356
-463.113	327.235	-0.139	0.267
-462.099	37.109	-0.136	-0.121
-461.084	152.389	-0.077	-0.106
-460.070	-200.000	0.016	-0.114
-459.055	-129.995	0.138	0.019
-458.040	55.702	-0.128	0.125
-457.026	-200.000	-0.027	0.203
-456.011	-13.593	-0.214	0.139
-454.997	680.879	-0.037	-0.097
-453.982	800.000	0.080	0.228
-452.968	580.214	-0.115	-0.283
-451.953	-200.000	0.021	0.235
-450.938	-132.487	-0.150	0.019
-449.924	-98.076	0.518	0.134
-448.909	198.289	-0.082	-0.126
-447.895	-46.841	0.168	-0.082
-446.880	-115.488	0.162	0.031
-445.865	640.564	0.036	0.092
-444.851	133.782	-0.146	0.190
-443.836	-200.000	0.015	0.079
-442.822	3.648	-0.038	-0.028
-441.807	249.717	-0.208	-0.353
-440.792	-20.650	0.098	-0.060
-439.778	-20.354	0.260	-0.160
-438.763	-200.000	0.023	-0.111
-437.749	24.693	0.361	-0.299
-436.734	206.774	-0.186	-0.290
-435.719	-175.251	0.117	0.003
-434.705	-60.556	0.332	-0.141
-433.690	-39.527	-0.309	-0.162
-432.676	93.913	0.116	0.132
-431.661	-108.514	-0.046	-0.010
-430.646	652.163	-0.058	0.148
-429.632	-8.969	-0.168	0.112
-428.617	-143.556	-0.071	-0.007
-427.603	-72.236	0.135	-0.050
-426.588	18.991	0.311	-0.249
-425.573	797.507	-0.137	-0.377
-424.559	267.445	-0.033	0.058
-423.544	-101.024	-0.209	-0.051
-422.530	23.964	-0.019	0.016
-421.515	-84.417	0.172	0.054
-420.500	127.872	-0.254	-0.323
-419.486	625.884	-0.012	-0.029
-418.471	-64.209	-0.177	0.072
-417.457	-83.599	-0.120	0.038
-416.442	-200.000	-0.054	0.415
-415.428	268.771	-0.070	0.123
-414.413	14.299	-0.136	-0.106
-413.398	382.350	0.104	0.213
-412.384	800.000	0.086	-0.280
-411.369	-200.000	0.011	0.103
-410.355	-200.000	-0.048	0.266
-409.340	800.000	0.056	-0.187
-408.325	412.629	0.019	-0.040
-407.311	-200.000	-0.034	-0.421
-406.296	-200.000	0.097	0.444
-405.282	70.892	-0.041	0.043
-404.267	32.002	0.082	0.071
-403.252	-82.133	-0.352	-0.115
-402.238	68.106	0.377	0.385
-401.223	-200.000	-0.040	-0.206
-400.209	-105.933	-0.421	0.095
-399.194	-200.000	-0.002	0.015
-398.179	-48.544	-0.153	0.073
-397.165	-80.062	0.089	-0.030
-396.150	-200.000	0.007	0.074
-395.136	-200.000	-0.071	0.339
-394.121	-200.000	0.035	0.632
-393.106	68.790	0.218	0.224
-392.092	-200.000	-0.057	-0.333
-391.077	-77.407	0.235	-0.082
-390.063	-136.777	0.437	0.050
-389.048	-200.000	-0.002	-0.311
-388.033	-11.417	-0.148	-0.097
-387.019	36.753	-0.097	-0.086
-386.004	513.962	0.108	0.251
-384.990	-110.361	-0.126	0.026
-383.975	156.325	0.227	0.313
-382.960	7.623	0.094	-0.070
-381.946	76.790	-0.160	-0.170
-380.931	41.939	0.183	0.166
-379.917	-89.662	0.261	0.076
-378.902	37.163	-0.098	-0.087
-377.888	-67.814	-0.127	0.050
-376.873	-200.000	0.007	0.075
-375.858	-56.019	0.093	-0.042
-374.844	800.000	-0.089	-0.276
-373.829	434.271	-0.099	-0.215
-372.815	-116.301	-0.185	-0.034
-371.800	800.000	0.114	-0.342
-370.785	444.784	0.131	-0.287
-369.771	-77.409	-0.190	-0.066
-368.756	157.796	-0.082	0.114
-367.742	-200.000	0.034	0.229
-366.727	-200.000	0.007	0.274
-365.712	-200.000	-0.031	0.271
-364.698	-200.000	-0.026	0.248
-363.683	389.320	-0.073	-0.150
-362.669	800.000	-0.025	-0.073
-361.654	434.344	-0.088	0.190
-360.639	-36.703	-0.181	-0.097
-359.625	-48.039	0.102	0.049
-358.610	439.915	-0.031	0.067
-357.596	-137.703	-0.169	-0.019
-356.581	-11.708	-0.114	-0.074
-355.566	249.974	0.183	-0.310
-354.552	-200.000	0.013	-0.245
-353.537	-1.180	-0.147	0.104
-352.523	-140.997	0.235	0.024
-351.508	-123.345	-0.120	-0.019
-350.493	153.172	-0.162	0.222
-349.479	507.892	0.093	-0.216
-348.464	-200.000	0.001	0.098
-347.450	-200.000	-0.033	-0.233
-346.435	-126.617	-0.307	-0.045
-345.420	-200.000	0.002	0.179
-344.406	33.825	-0.118	0.103
-343.391	667.613	-0.075	-0.193
-342.377	44.164	-0.155	-0.141
-341.362	66.004	0.167	-0.169
-340.348	-200.000	-0.004	-0.243
-339.333	136.099	-0.274	-0.356
-338.318	-149.700	0.183	0.014
-337.304	-200.000	-0.017	0.257
-336.289	23.026	-0.071	-0.058
-335.275	-90.764	0.147	0.042
-334.260	-200.000	0.007	0.042
-333.245	-37.628	0.208	0.110
-332.231	-67.136	-0.022	-0.009
-331.216	83.410	0.135	-0.146
-330.202	-91.815	0.379	0.107
-329.187	-95.502	-0.337	-0.090
-328.172	69.826	-0.098	-0.101
-327.158	-0.821	-0.315	0.222
-326.143	-200.000	0.030	0.166
-325.129	800.000	-0.064	0.194
-324.114	93.028	0.193	-0.218
-323.099	665.596	0.053	0.137
-322.085	-110.924	-0.057	-0.012
-321.070	-200.000	0.000	0.048
-320.056	-46.902	0.301	0.146
-319.041	56.510	0.046	-0.045
-318.026	307.437	-0.097	-0.181
-317.012	-32.550	-0.261	-0.145
-315.997	-78.713	-0.275	0.093
-314.983	54.328	0.169	0.163
-313.968	-66.614	0.084	0.033
-312.953	748.230	0.084	0.225
-311.939	-49.774	0.204	0.097
-310.924	-147.522	0.208	-0.017
-309.910	-200.000	-0.004	0.028
-308.895	-32.495	0.247	-0.137
-307.880	53.195	-0.175	0.167
-306.866	270.994	-0.111	0.195
-305.851	-200.000	0.021	0.240
-304.837	78.808	0.082	-0.088
-303.822	-162.029	-0.187	-0.009
-302.807	-59.837	0.198	0.084
-301.793	-156.664	0.215	-0.013
-300.778	-74.459	0.125	-0.045
-299.764	-119.913	-0.314	0.054
-298.749	-21.037	0.311	0.189
-297.735	-29.904	0.164	-0.093
-296.720	-74.864	-0.341	-0.122
-295.705	738.819	-0.089	-0.238
-294.691	389.453	-0.063	0.130
-293.676	78.539	0.279	0.297
-292.662	-200.000	0.052	-0.363
-291.647	-18.137	-0.295	-0.184
-290.632	-152.066	0.043	-0.003
-289.618	52.928	0.092	0.088
-288.603	316.456	0.127	-0.240
-287.589	319.108	-0.259	0.488
-286.574	-98.125	0.106	0.027
-285.559	176.818	0.177	-0.256
-284.545	-105.343	-0.090	0.021
-283.530	72.322	-0.120	0.124
-282.516	-133.477	0.226	0.028
-281.501	-86.233	0.190	-0.058
-280.486	-53.278	-0.179	-0.082
-279.472	800.000	-0.066	0.227
-278.457	-30.347	-0.231	0.130
-277.443	442.597	0.176	-0.383
-276.428	146.833	-0.088	-0.118
-275.413	69.750	0.113	0.116
-274.399	192.466	0.106	-0.159
-273.384	213.027	0.086	0.136
-272.370	-9.540	-0.224	-0.148
-271.355	241.731	0.209	0.347
-270.340	122.698	-0.130	0.162
-269.326	-200.000	0.017	0.124
-268.311	-124.735	0.109	0.017
-267.297	-142.240	0.430	-0.042
-266.282	-73.625	-0.085	0.031
-265.267	-137.428	0.160	0.018
-264.253	800.000	0.055	0.186
-263.238	560.034	-0.103	0.248
-262.224	109.116	-0.172	-0.205
-261.209	86.950	0.280	0.307
-260.195	-9.324	0.194	-0.129
-259.180	-200.000	-0.009	-0.137
-258.165	-200.000	0.001	0.040
-257.151	800.000	-0.104	-0.354
-256.136	1.623	-0.045	-0.032
-255.122	800.000	-0.097	-0.292
-254.107	182.616	0.114	-0.167
-253.092	-61.874	0.192	0.080
-252.078	800.000	-0.012	0.043
-251.063	784.833	0.129	0.352
-250.049	-55.033	0.065	-0.029
-249.034	88.058	-0.160	-0.176
-248.019	610.253	0.077	-0.191
-247.005	743.949	0.033	-0.089
-245.990	-101.446	-0.430	-0.104
-244.976	-200.000	0.525	-0.000
-243.961	-6.853	0.060	-0.040
-242.946	-191.244	-0.135	-0.001
-241.932	-200.000	0.011	0.137
-240.917	-200.000	0.001	0.174
-239.903	-84.561	0.261	0.082
-238.888	-56.143	-0.296	-0.131
-237.873	-85.197	-0.190	-0.059
-236.859	-200.000	-0.002	0.308
-235.844	658.385	-0.036	0.093
-234.830	-28.448	0.086	0.049
-233.815	472.435	0.074	0.166
-232.800	-200.000	0.020	-0.098
-231.786	29.046	0.204	-0.172
-230.771	514.723	-0.200	-0.463
-229.757	-118.322	0.310	-0.055
-228.742	-121.923	-0.344	0.056
-227.727	-109.381	-0.238	-0.050
-226.713	-52.809	-0.316	0.145
-225.698	157.718	-0.084	-0.116
-224.684	191.818	-0.151	0.226
-223.669	-102.384	-0.031	0.007
-222.655	-200.000	0.022	0.264
-221.640	800.000	0.082	-0.277
-220.625	648.870	-0.057	0.145
-219.611	501.260	0.200	0.459
-218.596	679.297	-0.044	-0.114
-217.582	-94.398	0.151	0.041
-216.567	284.516	-0.067	0.119
-215.552	800.000	-0.018	0.076
-214.538	800.000	0.085	0.274
-213.523	-87.558	0.146	0.044
-212.509	-86.731	-0.380	-0.115
-211.494	-188.178	0.045	-0.001
-210.479	755.171	-0.042	-0.113
-209.465	-200.000	0.049	-0.242
-208.450	8.854	0.232	0.173
-207.436	-162.673	-0.196	0.010
-206.421	166.599	-0.115	0.162
-205.406	211.457	-0.080	0.125
-204.392	-200.000	-0.028	0.307
-203.377	-65.311	0.121	-0.049
-202.363	-32.879	-0.145	-0.080
-201.348	-108.370	0.120	0.026
-200.333	-88.969	0.160	0.047
-199.319	-127.692	0.111	0.016
-198.304	-200.000	0.081	-0.494
-197.290	244.918	0.155	0.259
-196.275	-117.245	0.167	-0.030
-195.260	800.000	0.021	0.073
-194.246	800.000	0.039	0.147
-193.231	-107.687	-0.201	0.044
-192.217	-200.000	-0.066	0.564
-191.202	106.483	0.168	0.197
-190.187	-3.087	-0.286	0.198
-189.173	-76.559	-0.213	-0.074
-188.158	-200.000	0.052	0.273
-187.144	63.271	0.103	0.102
-186.129	505.664	-0.031	-0.071
-185.114	-50.299	0.120	-0.056
-184.100	-200.000	-0.014	0.318
-183.085	176.710	-0.025	-0.035
-182.071	-68.001	-0.134	0.052
-181.056	19.438	0.067	-0.053
-180.042	-46.742	-0.132	-0.064
-179.027	-200.000	0.004	0.142
-178.012	-96.793	0.042	-0.011
-176.998	119.982	-0.103	0.126
-175.983	142.165	0.210	-0.276
-174.969	30.779	0.326	-0.277
-173.954	8.642	-0.221	0.165
-172.939	800.000	-0.084	-0.319
-171.925	-2.143	0.104	-0.072
-170.910	-196.837	0.246	-0.002
-169.896	-47.587	-0.308	-0.148
-168.881	-96.776	0.065	0.017
-167.866	152.251	0.091	-0.123
-166.852	52.032	-0.301	-0.284
-165.837	-4.436	0.112	-0.077
-164.823	-109.840	0.137	-0.028
-163.808	56.615	-0.142	-0.137
-162.793	23.621	0.232	0.189
-161.779	99.818	0.190	0.218
-160.764	-150.714	-0.384	0.029
-159.750	-3.373	0.114	-0.079
-158.735	-200.000	0.007	0.035
-157.720	399.091	-0.116	0.241
-156.706	-105.301	0.028	0.006
-155.691	800.000	0.088	0.342
-154.677	139.376	-0.191	0.248
-153.662	-143.698	-0.173	-0.016
-152.647	-200.000	0.022	0.356
-151.633	800.000	-0.016	0.062
-150.618	337.964	-0.124	-0.238
-149.604	-21.942	0.112	0.068
-148.589	99.708	0.153	0.175
-147.574	348.163	0.106	-0.206
-146.560	-143.033	-0.141	-0.013
-145.545	240.784	0.372	0.614
-144.531	165.356	-0.125	-0.175
-143.516	33.845	-0.355	0.306
-142.502	-132.510	-0.287	-0.036
-141.487	-75.380	-0.182	0.064
-140.472	-54.967	-0.351	-0.157
-139.458	-2.540	0.118	-0.082
-138.443	36.666	0.363	0.318
-137.429	219.572	0.129	0.204
-136.414	302.293	-0.021	-0.039
-135.399	-200.000	0.007	-0.036
-134.385	-200.000	0.002	-0.087
-133.370	-16.501	0.197	-0.124
-132.356	135.628	-0.110	-0.142
-131.341	159.423	-0.178	-0.245
-130.326	-200.000	0.003	-0.106
-129.312	16.421	0.143	0.112
-128.297	61.975	0.226	0.223
-127.283	590.123	-0.043	0.106
-126.268	-78.633	0.074	-0.025
-125.253	-90.568	0.267	0.077
-124.239	800.000	-0.068	0.199
-123.224	-3.109	0.294	0.203
-122.210	362.701	0.146	-0.289
-121.195	318.703	0.076	-0.142
-120.180	46.666	0.206	0.189
-119.166	222.470	-0.115	0.184
-118.151	-98.447	0.204	-0.052
-117.137	-200.000	0.029	-0.338
-116.122	-200.000	-0.022	-0.154
-115.107	-27.347	0.395	-0.227
-114.093	36.535	0.134	0.117
-113.078	-144.556	-0.264	0.024
-112.064	130.998	0.083	-0.105
-111.049	-98.590	0.243	-0.061
-110.034	93.713	-0.316	0.354
-109.020	-200.000	0.021	0.109
-108.005	800.000	0.042	-0.183
-106.991	-20.620	0.290	0.176
-105.976	-200.000	0.039	-0.453
-104.962	-69.786	-0.570	0.215
-103.947	-7.914	0.166	-0.110
-102.932	-200.000	0.053	-0.249
-101.918	-9.904	0.356	0.234
-100.903	115.018	0.054	-0.065
-99.889	-200.000	-0.010	0.184
-98.874	-97.132	0.186	0.048
-97.859	-117.774	-0.094	0.017
-96.845	-133.707	-0.465	-0.057
-95.830	-198.284	-0.254	-0.001
-94.816	280.299	-0.133	-0.236
-93.801	-157.210	0.474	0.028
-92.786	739.708	0.061	0.162
-91.772	800.000	0.034	-0.102
-90.757	-104.873	-0.040	0.009
-89.743	-103.095	-0.129	0.030
-88.728	-121.593	-0.307	0.050
-87.713	311.489	0.136	0.252
-86.699	-100.465	0.144	0.035
-85.684	-120.375	0.132	0.022
-84.670	-112.860	0.082	0.016
-83.655	66.917	-0.065	0.065
-82.640	64.248	0.102	-0.101
-81.626	-125.780	-0.155	0.023
-80.611	-200.000	0.010	0.397
-79.597	11.362	0.178	-0.135
-78.582	1.302	0.294	-0.209
-77.567	60.061	-0.183	-0.179
-76.553	800.000	-0.079	-0.239
-75.538	-2.360	0.079	0.055
-74.524	-6.005	0.207	-0.140
-73.509	145.552	-0.032	-0.043
-72.494	800.000	-0.035	0.148
-71.480	-200.000	-0.004	0.104
-70.465	8.270	-0.210	-0.156
-69.451	527.122	0.134	0.313
-68.436	5.813	0.254	0.186
-67.422	3.458	0.011	0.008
-66.407	-58.990	0.162	-0.069
-65.392	107.962	-0.043	0.051
-64.378	-75.286	-0.122	0.043
-63.363	471.124	0.050	0.110
-62.349	219.607	0.125	0.197
-61.334	95.700	-0.744	-0.838
-60.319	194.510	0.401	0.600
-59.305	791.305	-0.346	-0.938
-58.290	289.727	0.362	0.648
-57.276	800.000	0.326	1.213
-56.261	-200.000	94.505	558.029
-55.246	642.030	1382.292	3474.178
-54.232	186.314	2614.188	3837.197
-53.217	116.953	2322.330	2813.119
-52.203	44.933	1933.106	1755.587
-51.188	38.391	1718.311	1510.164
-50.173	35.485	1672.811	1448.234
-49.159	51.876	1719.887	1614.684
-48.144	55.308	1738.326	1658.168
-47.130	38.008	1694.870	1486.406
-46.115	35.101	1679.498	1450.881
-45.100	34.877	1675.114	1445.348
-44.086	34.887	1672.021	1442.693
-43.071	34.916	1669.786	1440.930
-42.057	34.831	1667.112	1437.928
-41.042	34.972	1664.904	1437.019
-40.027	34.954	1663.299	1435.441
-39.013	34.833	1661.348	1432.797
-37.998	34.876	1659.923	1431.831
-36.984	34.915	1658.404	1430.756
-35.969	34.966	1657.163	1430.015
-34.954	35.019	1655.753	1429.131
-33.940	35.085	1653.288	1427.445
-32.925	35.026	1651.566	1425.460
-31.911	34.948	1650.403	1423.819
-30.896	35.027	1648.180	1422.429
-29.881	35.009	1646.754	1421.009
-28.867	34.950	1645.056	1419.054
-27.852	35.054	1643.156	1418.126
-26.838	35.032	1641.857	1416.786
-25.823	34.972	1640.419	1415.044
-24.809	35.041	1639.155	1414.407
-23.794	35.060	1637.447	1413.022
-22.779	34.978	1636.328	1411.390
-21.765	35.131	1634.006	1410.462
-20.750	35.052	1632.539	1408.557
-19.736	35.071	1631.016	1407.326
-18.721	35.145	1629.677	1406.656
-17.706	35.089	1627.999	1404.745
-16.692	35.007	1626.030	1402.388
-15.677	35.116	1625.023	1402.258
-14.663	35.093	1623.479	1400.709
-13.648	35.044	1622.654	1399.578
-12.633	34.945	1620.795	1397.200
-11.619	34.966	1619.255	1395.972
-10.604	35.104	1617.518	1395.417
-9.590	35.035	1616.733	1394.188
-8.575	34.988	1615.102	1392.383
-7.560	35.076	1613.621	1391.691
-6.546	35.063	1612.599	1390.657
-5.531	35.069	1611.253	1389.489
-4.517	35.022	1610.022	1388.025
-3.502	35.108	1609.445	1388.100
-2.487	35.131	1607.800	1386.792
-1.473	34.958	1596.298	1375.572
-0.458	32.003	1576.562	1337.491
0.556	30.339	1575.870	1299.879
1.571	27.503	1599.357	1298.946
2.586	26.147	1611.860	1299.232
3.600	22.602	1557.853	1230.881
4.615	13.836	1446.471	1085.686
5.629	6.039	1380.177	987.001
6.644	4.619	1371.419	971.782
7.659	4.509	1370.066	970.053
8.673	4.541	1369.426	969.711
9.688	4.622	1367.779	968.965
10.702	4.600	1365.091	966.837
11.717	8.352	1372.356	995.321
12.731	17.025	1388.948	1061.755
13.746	22.537	1396.767	1102.220
14.761	22.607	1395.979	1101.939
15.775	21.925	1393.195	1095.389
16.790	20.885	1390.939	1087.034
17.804	20.062	1388.798	1080.134
18.819	19.799	1387.288	1077.230
19.834	19.612	1386.423	1075.297
20.848	19.380	1385.532	1073.064
21.863	19.181	1384.250	1070.743
22.877	19.161	1382.873	1069.459
23.892	19.138	1382.233	1068.725
24.907	19.069	1381.290	1067.476
25.921	18.986	1380.713	1066.417
26.936	19.069	1379.245	1065.704
27.950	19.214	1378.305	1065.783
28.965	19.183	1377.676	1065.011
29.980	19.432	1376.543	1065.580
30.994	19.470	1375.206	1064.682
32.009	19.541	1373.990	1064.087
33.023	19.390	1373.296	1062.523
34.038	19.375	1371.694	1061.099
35.053	19.321	1370.121	1059.457
36.067	19.343	1368.966	1058.600
37.082	19.297	1367.875	1057.382
38.096	19.368	1367.412	1057.368
39.111	19.433	1366.796	1057.198
40.126	19.256	1365.522	1055.035
41.140	18.942	1364.697	1052.380
42.155	18.816	1364.222	1051.152
43.169	18.784	1364.073	1050.744
44.184	18.837	1363.380	1050.445
45.199	18.814	1362.806	1049.766
46.213	19.089	1362.428	1051.064
47.228	19.074	1362.304	1050.787
48.242	19.236	1360.647	1050.400
49.257	19.289	1359.194	1049.506
50.271	19.185	1357.769	1047.679
51.286	19.239	1356.371	1046.841
52.301	19.180	1354.907	1045.260
53.315	19.116	1354.039	1044.109
54.330	18.890	1353.523	1042.248
55.344	19.011	1351.354	1041.220
56.359	18.890	1350.615	1039.827
57.374	18.879	1349.814	1039.051
58.388	18.877	1348.346	1037.818
59.403	18.827	1348.073	1037.210
60.417	18.671	1347.935	1036.073
61.432	18.653	1346.571	1034.821
62.447	18.597	1345.641	1033.677
63.461	18.619	1344.397	1032.768
64.476	18.601	1343.359	1031.767
65.490	18.547	1342.118	1030.401
66.505	18.669	1340.272	1029.621
67.520	18.611	1339.153	1028.327
68.534	18.679	1338.029	1027.775
69.549	18.580	1337.510	1026.697
70.563	18.642	1336.079	1025.878
71.578	18.440	1335.006	1023.752
72.593	18.503	1333.862	1023.161
73.607	18.409	1333.437	1022.183
74.622	18.443	1332.646	1021.692
75.636	18.422	1331.982	1020.969
76.651	18.428	1331.258	1020.358
77.666	18.437	1331.499	1020.507
78.680	18.582	1330.615	1020.601
79.695	18.779	1329.478	1020.811
80.709	18.876	1328.932	1020.874
81.724	18.860	1328.493	1020.352
82.739	19.059	1327.353	1020.570
83.753	19.115	1326.942	1020.495
84.768	19.179	1326.309	1020.294
85.782	19.327	1325.417	1020.393
86.797	19.404	1323.995	1019.664
87.812	19.218	1322.733	1017.503
88.826	19.212	1321.653	1016.549
89.841	19.219	1320.859	1015.889
90.855	19.358	1319.782	1015.789
91.870	19.377	1319.127	1015.305
92.884	19.383	1318.172	1014.519
93.899	19.389	1317.629	1014.044
94.914	19.528	1316.116	1013.610
95.928	19.420	1315.833	1012.669
96.943	19.411	1314.777	1011.711
97.957	19.310	1313.838	1010.307
98.972	19.424	1312.874	1010.145
99.987	19.434	1311.981	1009.424
101.001	19.379	1310.858	1008.154
102.016	19.185	1310.608	1006.736
103.030	19.343	1309.048	1006.369
104.045	19.201	1308.591	1005.104
105.060	19.187	1306.703	1003.481
106.074	19.051	1304.712	1001.074
107.089	18.733	1303.805	998.441
108.103	18.668	1302.486	996.960
109.118	18.623	1301.477	995.840
110.133	18.772	1299.579	995.162
111.147	18.707	1298.529	993.897
112.162	18.733	1297.228	992.964
113.176	18.756	1297.139	992.940
114.191	18.773	1295.531	991.720
115.206	18.842	1294.275	991.071
116.220	18.819	1293.074	989.929
117.235	18.789	1292.249	989.036
118.249	18.764	1291.238	988.031
119.264	18.779	1289.834	986.957
120.279	18.654	1288.453	985.095
121.293	18.588	1287.680	984.039
122.308	18.537	1286.730	982.930
123.322	18.422	1285.462	981.219
124.337	18.415	1284.690	980.500
125.352	18.329	1283.755	979.210
126.366	18.454	1282.398	978.803
127.381	18.443	1281.460	977.935
128.395	18.465	1280.211	977.024
129.410	18.530	1279.447	976.725
130.424	18.561	1278.833	976.343
131.439	18.696	1277.764	976.208
132.454	18.690	1276.971	975.485
133.468	18.824	1275.976	975.400
134.483	18.880	1275.068	974.935
135.497	18.853	1274.524	974.278
136.512	18.904	1272.925	973.260
137.527	18.871	1271.958	972.249
138.541	18.973	1269.836	971.113
139.556	18.956	1269.393	970.593
140.570	19.090	1268.122	970.292
141.585	19.104	1267.103	969.508
142.600	19.214	1266.195	969.345
143.614	19.403	1265.522	969.804
144.629	19.360	1264.686	968.840
145.643	19.360	1263.291	967.686
146.658	19.121	1262.263	965.473
147.673	19.169	1260.221	964.095
148.687	18.954	1259.145	961.984
149.702	18.939	1257.672	960.686
150.716	18.857	1256.606	959.332
151.731	18.870	1255.495	958.472
152.746	18.917	1254.012	957.516
153.760	19.029	1252.832	957.151
154.775	18.976	1252.549	956.557
155.789	19.113	1251.190	956.194
156.804	19.188	1250.122	955.709
157.819	19.153	1249.340	954.833
158.833	19.296	1248.697	955.047
159.848	19.345	1247.699	954.475
160.862	19.431	1246.580	954.009
161.877	19.109	1245.074	950.991
162.892	18.866	1243.962	948.719
163.906	18.768	1243.465	947.717
164.921	18.787	1242.164	946.743
165.935	18.981	1241.750	947.412
166.950	19.087	1240.804	947.192
167.964	19.117	1239.839	946.537
168.979	18.961	1239.458	945.303
169.994	19.000	1238.358	944.597
171.008	19.144	1237.599	944.721
172.023	19.189	1236.912	944.363
173.037	19.306	1235.968	944.197
174.052	19.307	1235.558	943.809
175.067	18.967	1234.666	941.181
176.081	18.971	1233.038	939.878
177.096	18.915	1232.527	939.102
178.110	18.945	1231.307	938.253
179.125	18.931	1230.374	937.384
180.140	19.031	1228.665	936.543
181.154	19.188	1227.954	936.772
182.169	19.260	1226.878	936.255
183.183	19.363	1225.698	935.834
184.198	19.370	1224.677	935.009
185.213	19.394	1223.469	934.133
186.227	19.435	1222.534	933.561
187.242	19.562	1221.299	933.220
188.256	19.582	1220.511	932.646
189.271	19.657	1219.545	932.229
190.286	19.404	1218.581	930.045
191.300	19.012	1216.836	926.519
192.315	18.904	1216.334	925.473
193.329	18.915	1216.437	925.529
194.344	19.072	1215.614	925.663
195.359	19.190	1214.809	925.607
196.373	19.220	1214.778	925.660
197.388	19.314	1214.337	925.748
198.402	19.547	1214.048	926.696
199.417	19.676	1213.600	926.963
200.432	19.774	1213.187	927.091
201.446	19.867	1212.261	926.802
202.461	20.003	1211.258	926.680
203.475	19.846	1210.318	925.041
204.490	19.786	1208.827	923.495
205.504	19.556	1207.460	921.142
206.519	19.580	1206.374	920.362
207.534	19.458	1205.214	918.746
208.548	19.435	1204.528	918.017
209.563	19.524	1203.653	917.746
210.577	19.549	1202.786	917.137
211.592	19.572	1202.081	916.639
212.607	19.683	1201.686	916.846
213.621	19.670	1200.748	915.979
214.636	19.635	1200.009	915.152
215.650	19.639	1198.632	914.037
216.665	19.788	1197.710	914.041
217.680	19.912	1197.023	914.091
218.694	19.980	1195.993	913.587
219.709	19.933	1195.427	912.824
220.723	19.864	1194.461	911.639
221.738	19.912	1194.467	911.815
222.753	19.919	1192.990	910.648
223.767	19.855	1192.447	909.817
224.782	20.032	1191.854	910.214
225.796	20.150	1190.882	910.011
226.811	20.048	1190.516	909.113
227.826	19.905	1190.031	907.911
228.840	19.909	1188.925	907.009
229.855	19.871	1188.277	906.235
230.869	19.953	1187.054	905.654
231.884	19.778	1186.715	904.397
232.899	19.729	1185.511	903.146
233.913	19.636	1184.944	902.148
234.928	19.548	1184.244	901.075
235.942	19.617	1183.509	900.796
236.957	19.574	1182.598	899.800
237.972	19.570	1181.904	899.170
238.986	19.605	1181.334	898.837
240.001	19.736	1180.424	898.749
241.015	19.650	1179.616	897.607
242.030	19.661	1179.202	897.270
243.045	19.855	1178.190	897.425
244.059	19.807	1177.624	896.666
245.074	19.835	1176.956	896.223
246.088	19.895	1176.216	895.893
247.103	20.223	1174.788	896.421
248.117	20.121	1174.783	895.811
249.132	20.331	1174.559	896.646
250.147	20.550	1174.028	897.293
251.161	20.593	1173.053	896.689
252.176	20.739	1172.368	896.835
253.190	20.815	1171.650	896.602
254.205	20.800	1171.381	896.236
255.220	20.830	1170.454	895.605
256.234	20.750	1170.195	894.913
257.249	20.791	1169.377	894.423
258.263	20.721	1168.892	893.610
259.278	20.688	1168.109	892.762
260.293	20.857	1167.442	893.043
261.307	20.871	1166.984	892.685
262.322	20.853	1166.740	892.327
263.336	20.856	1165.437	891.265
264.351	20.881	1164.955	890.946
265.366	21.032	1164.118	891.001
266.380	20.960	1163.626	890.176
267.395	20.649	1162.888	887.947
268.409	20.661	1161.708	887.028
269.424	20.689	1161.219	886.718
270.439	20.703	1160.627	886.258
271.453	20.629	1160.037	885.351
272.468	20.585	1158.760	884.075
273.482	20.539	1157.719	882.968
274.497	20.548	1157.423	882.710
275.512	20.667	1156.516	882.544
276.526	20.708	1155.802	882.129
277.541	20.594	1155.108	880.945
278.555	20.685	1154.611	880.948
279.570	20.823	1154.240	881.286
280.585	21.063	1153.367	881.753
281.599	20.985	1152.370	880.519
282.614	20.815	1151.032	878.563
283.628	20.770	1150.009	877.478
284.643	20.742	1149.129	876.588
285.657	20.660	1148.351	875.504
286.672	20.799	1147.052	875.133
287.687	20.807	1146.532	874.702
288.701	20.782	1145.931	874.041
289.716	20.850	1144.672	873.344
290.730	20.800	1144.555	872.927
291.745	20.903	1143.636	872.666
292.760	20.837	1143.350	872.038
293.774	21.044	1142.354	872.235
294.789	21.036	1142.114	871.936
295.803	21.104	1141.207	871.505
296.818	20.861	1140.790	869.899
297.833	20.888	1139.623	869.062
298.847	20.748	1139.235	867.994
299.862	20.900	1138.062	867.783
300.876	20.937	1137.606	867.543
301.891	20.971	1137.138	867.273
302.906	21.131	1136.132	867.226
303.920	21.173	1135.854	867.149
304.935	21.240	1135.349	867.018
305.949	21.392	1134.772	867.252
306.964	21.349	1134.174	866.508
307.979	21.274	1133.018	865.178
308.993	21.308	1132.371	864.773
310.008	21.287	1131.689	864.071
311.022	21.292	1131.059	863.540
312.037	21.293	1130.289	862.881
313.052	21.237	1129.007	861.550
314.066	21.033	1128.018	859.714
315.081	20.851	1127.152	858.081
316.095	20.880	1126.099	857.346
317.110	20.923	1125.250	856.833
318.125	20.880	1124.816	856.214
319.139	20.910	1124.092	855.738
320.154	20.965	1123.258	855.295
321.168	21.023	1122.762	855.128
322.183	21.029	1122.271	854.706
323.197	21.019	1121.658	854.113
324.212	21.161	1121.117	854.321
325.227	21.058	1120.223	853.061
326.241	20.972	1120.313	852.636
327.256	20.969	1119.301	851.776
328.270	21.030	1117.923	850.947
329.285	21.017	1117.197	850.256
330.300	21.114	1115.835	849.617
331.314	21.009	1114.840	848.275
332.329	21.100	1114.400	848.305
333.343	21.079	1113.557	847.487
334.358	21.292	1112.745	847.826
335.373	21.253	1112.153	847.111
336.387	21.280	1111.522	846.689
337.402	21.399	1110.389	846.324
338.416	21.441	1110.087	846.224
339.431	21.437	1109.232	845.479
340.446	21.511	1109.062	845.634
341.460	21.742	1108.229	846.037
342.475	21.797	1107.877	845.957
343.489	21.796	1106.764	845.030
344.504	21.897	1105.498	844.473
345.519	21.933	1104.913	844.124
346.533	22.024	1104.173	843.923
347.548	22.038	1103.388	843.317
348.562	21.928	1102.387	841.947
349.577	21.716	1101.667	840.309
350.592	21.673	1100.518	839.151
351.606	21.380	1099.949	837.242
352.621	21.437	1098.946	836.673
353.635	21.443	1098.282	836.122
354.650	21.330	1098.035	835.322
355.665	21.434	1097.221	835.126
356.679	21.533	1096.413	834.911
357.694	21.624	1096.297	835.179
358.708	21.725	1095.395	834.902
359.723	21.678	1094.928	834.246
360.738	21.687	1094.287	833.729
361.752	21.804	1093.727	833.784
362.767	21.788	1092.938	833.031
363.781	21.827	1092.293	832.653
364.796	21.867	1092.074	832.599
365.810	21.964	1091.828	832.798
366.825	22.161	1091.243	833.212
367.840	22.166	1090.755	832.793
368.854	22.286	1090.067	832.763
369.869	22.217	1089.206	831.705
370.883	22.141	1088.264	830.553
371.898	22.060	1087.408	829.441
372.913	22.046	1086.848	828.874
373.927	22.144	1086.202	828.772
374.942	22.252	1086.103	829.130
375.956	22.233	1085.239	828.309
376.971	22.307	1084.384	827.934
377.986	22.248	1084.307	827.523
379.000	22.348	1084.018	827.697
380.015	22.456	1083.198	827.505
381.029	22.401	1082.568	826.695
382.044	22.368	1082.296	826.261
383.059	22.505	1081.060	825.884
384.073	22.309	1080.370	824.365
385.088	22.458	1079.689	824.472
386.102	22.345	1078.810	823.199
387.117	22.276	1077.395	821.722
388.132	22.103	1076.204	819.937
389.146	22.088	1075.734	819.435
390.161	22.073	1075.095	818.803
391.175	22.226	1073.915	818.545
392.190	22.317	1073.295	818.424
393.205	22.391	1072.913	818.403
394.219	22.473	1072.040	818.047
395.234	22.361	1070.932	816.610
396.248	22.250	1069.959	815.281
397.263	22.187	1069.048	814.225
398.278	22.081	1068.148	812.972
399.292	21.977	1067.772	812.137
400.307	22.115	1066.548	811.770
401.321	21.936	1066.392	810.753
402.336	21.938	1065.819	810.257
403.350	21.872	1065.123	809.348
404.365	21.997	1064.509	809.388
405.380	22.197	1063.750	809.658
406.394	22.200	1063.170	809.160
407.409	22.228	1062.798	808.933
408.423	22.578	1061.626	809.582
409.438	22.550	1060.975	808.884
410.453	22.735	1060.369	809.199
411.467	22.784	1059.298	808.535
412.482	22.792	1059.046	808.305
413.496	22.799	1058.574	807.908
414.511	22.854	1057.699	807.418
415.526	22.893	1057.690	807.518
416.540	23.163	1056.955	808.121
417.555	22.879	1056.726	806.576
418.569	22.844	1056.061	805.835
419.584	22.830	1055.526	805.296
420.599	22.783	1055.283	804.821
421.613	154.140	1401.390	1789.458
422.628	141.572	1451.811	1789.572
