DTS Sentinel unit serial number:	SN413079Multiplexer serial number:	ORYXHardware model number:	OX4-SRSoftware version number:	ORYX F/W v4.00 Oryx Data Collector v3.7.2.0data status	okinstallation	princeton_trtdifferential loss correction	single-endedforward channel	channel 2reverse channel	N/Adate	2019/09/13time	09:11:35forward acquisition time	60.00reverse acquisition time	0.00gamma	496.2192k internal	0.2329k external	0.2329temperature offset calibration	1.0193default loss term (dB/km)	0.3790temperature slope calibration	1.0000multiplexer offset coefficient	1.0000multiplexer slope coefficient	1.0000fibre end	0.00T internal ref (°C)	28.84T ext. ref 1 (°C)	4.39T ext. ref 2 (°C)	26.31length (m)	temperature (°C)	Stokes	anti-Stokes-747.200	80.087	-0.045	0.049
-746.185	-21.912	-0.239	0.146
-745.171	-93.675	0.118	-0.033
-744.156	-200.000	0.030	0.278
-743.142	-84.938	0.151	-0.048
-742.127	121.259	0.119	0.149
-741.112	-21.776	0.288	0.177
-740.098	-117.765	-0.238	0.043
-739.083	-43.698	0.360	0.183
-738.069	800.000	0.045	0.163
-737.054	-133.188	0.106	0.014
-736.039	-200.000	0.020	0.314
-735.025	39.858	0.165	0.149
-734.010	397.608	-0.024	-0.050
-732.996	696.682	-0.100	-0.263
-731.981	-24.188	-0.299	-0.180
-730.966	-70.427	0.147	0.056
-729.952	-98.978	0.246	-0.063
-728.937	7.338	0.076	-0.057
-727.923	195.440	0.130	0.199
-726.908	-3.510	-0.281	0.197
-725.894	187.373	-0.056	-0.084
-724.879	-57.536	-0.185	-0.082
-723.864	-200.000	-0.019	0.093
-722.850	-32.839	-0.164	-0.092
-721.835	-83.108	0.096	-0.031
-720.821	-35.749	0.111	0.060
-719.806	-200.000	0.362	0.000
-718.791	-107.426	0.176	-0.039
-717.777	-172.764	-0.250	0.008
-716.762	-15.867	-0.183	-0.117
-715.748	-5.839	-0.165	-0.113
-714.733	-38.566	-0.203	0.108
-713.718	166.541	-0.056	0.080
-712.704	-131.527	0.076	0.010
-711.689	238.436	-0.099	0.165
-710.675	-113.022	0.203	-0.040
-709.660	-8.393	0.083	-0.056
-708.645	615.028	-0.055	0.138
-707.631	285.432	0.016	-0.030
-706.616	347.514	0.028	0.056
-705.602	-159.430	-0.309	0.017
-704.587	-28.714	-0.128	-0.074
-703.572	-173.636	0.438	0.013
-702.558	329.221	-0.135	0.261
-701.543	-107.881	-0.213	-0.047
-700.529	440.116	0.310	0.681
-699.514	35.956	0.070	-0.062
-698.499	-164.678	0.536	0.024
-697.485	-162.456	0.274	-0.014
-696.470	-52.948	0.184	-0.085
-695.456	-20.940	-0.270	-0.166
-694.441	-36.557	-0.397	0.215
-693.426	182.726	-0.040	0.059
-692.412	-200.000	0.001	0.123
-691.397	14.488	0.195	-0.153
-690.383	270.039	-0.071	-0.125
-689.368	-70.885	-0.188	-0.071
-688.354	-88.236	-0.265	0.080
-687.339	264.663	0.222	0.388
-686.324	-126.103	-0.215	0.032
-685.310	800.000	0.045	0.159
-684.295	800.000	-0.058	0.207
-683.281	-200.000	0.019	-0.092
-682.266	-6.993	-0.471	0.321
-681.251	216.691	0.217	0.347
-680.237	-108.016	0.234	-0.051
-679.222	-200.000	-0.022	-0.247
-678.208	-30.192	0.041	0.024
-677.193	147.877	-0.013	-0.017
-676.178	262.761	-0.098	-0.171
-675.164	0.298	-0.234	0.167
-674.149	-27.607	0.230	-0.134
-673.135	75.905	0.128	-0.136
-672.120	-200.000	-0.017	0.078
-671.105	-200.000	0.023	-0.110
-670.091	-40.134	0.143	0.075
-669.076	-200.000	-0.037	0.266
-668.062	174.177	-0.122	0.178
-667.047	-70.569	-0.353	-0.134
-666.032	-41.526	0.269	0.139
-665.018	149.125	-0.075	0.102
-664.003	-13.629	-0.201	0.131
-662.989	-26.339	-0.281	-0.166
-661.974	122.465	-0.044	0.055
-660.959	7.105	0.101	0.076
-659.945	-98.116	0.126	0.033
-658.930	131.823	-0.092	-0.119
-657.916	800.000	-0.018	0.077
-656.901	594.183	-0.072	0.178
-655.886	79.019	0.155	0.167
-654.872	79.614	-0.252	-0.271
-653.857	-54.352	-0.052	0.024
-652.843	520.802	0.100	0.235
-651.828	123.492	-0.121	0.152
-650.814	61.094	-0.234	0.233
-649.799	-40.076	0.098	0.052
-648.784	25.252	-0.081	-0.067
-647.770	195.763	0.070	-0.107
-646.755	-66.355	-0.188	-0.075
-645.741	16.203	0.184	0.146
-644.726	-113.358	-0.194	0.038
-643.711	-104.499	0.112	0.026
-642.697	800.000	-0.103	0.376
-641.682	-16.514	0.200	-0.127
-640.668	-119.030	-0.215	-0.038
-639.653	-10.926	-0.152	-0.101
-638.638	47.140	-0.336	-0.314
-637.624	-90.391	-0.138	0.040
-636.609	800.000	-0.055	0.195
-635.595	-159.598	-0.346	-0.019
-634.580	90.642	0.135	-0.152
-633.565	153.908	0.189	0.260
-632.551	-83.787	0.231	0.074
-631.536	199.051	-0.219	-0.337
-630.522	-29.423	-0.271	0.156
-629.507	-103.002	0.122	-0.029
-628.492	-114.878	0.144	0.028
-627.478	800.000	0.057	0.205
-626.463	41.102	-0.138	-0.125
-625.449	-52.889	-0.309	-0.143
-624.434	136.065	-0.132	-0.172
-623.419	-200.000	-0.003	0.030
-622.405	4.763	0.217	0.160
-621.390	264.289	0.019	-0.034
-620.376	-113.875	0.247	-0.048
-619.361	-138.242	-0.074	-0.008
-618.346	-87.847	-0.350	-0.106
-617.332	-183.099	-0.169	0.003
-616.317	-200.000	0.008	-0.098
-615.303	30.256	-0.118	0.101
-614.288	-200.000	0.030	-0.349
-613.273	-110.873	-0.053	0.011
-612.259	208.550	0.151	-0.237
-611.244	25.677	-0.173	-0.144
-610.230	800.000	-0.103	0.287
-609.215	800.000	0.050	0.142
-608.201	361.243	-0.124	0.249
-607.186	10.785	0.274	0.210
-606.171	450.831	0.111	-0.245
-605.157	800.000	0.052	0.205
-604.142	-101.120	-0.179	0.044
-603.128	-200.000	0.029	0.181
-602.113	-3.394	-0.044	0.031
-601.098	-200.000	0.021	0.125
-600.084	118.711	-0.075	0.093
-599.069	12.368	-0.146	0.113
-598.055	-36.284	0.177	0.095
-597.040	61.881	0.149	-0.149
-596.025	-200.000	0.033	-0.346
-595.011	-158.184	0.145	0.008
-593.996	426.532	-0.080	-0.173
-592.982	-200.000	0.028	-0.214
-591.967	791.680	0.064	0.177
-590.952	800.000	0.123	-0.344
-589.938	-200.000	-0.035	0.207
-588.923	-152.280	0.157	-0.011
-587.909	-200.000	-0.018	-0.079
-586.894	800.000	-0.046	0.202
-585.879	2.232	-0.323	0.234
-584.865	40.274	-0.132	0.119
-583.850	-36.564	0.264	-0.142
-582.836	-99.092	0.098	0.025
-581.821	-200.000	-0.057	-0.362
-580.806	300.831	0.098	0.181
-579.792	-200.000	-0.068	-0.337
-578.777	0.397	-0.321	-0.229
-577.763	-77.868	-0.157	-0.054
-576.748	-37.895	-0.166	0.088
-575.733	-103.386	0.360	0.085
-574.719	800.000	-0.074	-0.311
-573.704	88.342	-0.063	-0.070
-572.690	-200.000	-0.026	-0.183
-571.675	768.991	0.185	0.504
-570.661	43.157	-0.320	0.292
-569.646	-51.035	0.280	-0.131
-568.631	-200.000	0.010	-0.275
-567.617	-106.738	-0.118	-0.026
-566.602	59.582	-0.194	0.192
-565.588	-200.000	0.052	0.301
-564.573	800.000	0.029	0.092
-563.558	-102.493	-0.324	-0.077
-562.544	-73.658	0.222	0.081
-561.529	-200.000	-0.016	0.340
-560.515	532.306	-0.062	0.147
-559.500	415.008	-0.112	-0.239
-558.485	-138.943	0.135	-0.015
-557.471	-152.238	0.324	0.023
-556.456	50.061	0.035	-0.033
-555.442	-88.675	-0.173	0.051
-554.427	-200.000	-0.072	0.360
-553.412	-130.137	-0.154	-0.021
-552.398	332.495	0.039	-0.075
-551.383	-53.362	-0.258	0.118
-550.369	-200.000	-0.009	0.126
-549.354	-162.628	0.148	-0.007
-548.339	26.656	-0.152	0.128
-547.325	-200.000	-0.004	-0.249
-546.310	-27.458	0.118	-0.069
-545.296	-200.000	-0.053	-0.319
-544.281	230.882	-0.093	0.152
-543.266	-122.886	0.179	-0.029
-542.252	-200.000	0.068	0.327
-541.237	-200.000	0.005	0.067
-540.223	-141.165	0.187	0.019
-539.208	-76.144	0.124	-0.044
-538.193	-13.838	0.339	0.219
-537.179	169.279	-0.116	-0.166
-536.164	52.676	-0.133	0.127
-535.150	-16.369	-0.121	0.077
-534.135	-45.027	0.330	-0.164
-533.121	-49.374	-0.262	0.125
-532.106	-200.000	-0.022	-0.176
-531.091	-29.859	-0.226	-0.129
-530.077	-6.687	-0.240	0.163
-529.062	17.552	0.084	-0.067
-528.048	-23.335	-0.180	-0.108
-527.033	-200.000	-0.033	-0.334
-526.018	-82.619	0.330	0.107
-525.004	-129.112	0.449	-0.063
-523.989	800.000	-0.004	0.016
-522.975	-77.823	0.178	0.061
-521.960	719.242	-0.074	0.196
-520.945	-70.354	-0.321	-0.121
-519.931	800.000	0.046	-0.142
-518.916	-122.130	0.399	0.065
-517.902	272.541	0.060	0.106
-516.887	-49.782	-0.294	0.140
-515.872	-200.000	0.016	-0.220
-514.858	14.063	0.181	-0.141
-513.843	15.618	0.239	-0.187
-512.829	-45.627	0.174	-0.086
-511.814	-200.000	-0.023	-0.111
-510.799	17.712	-0.134	-0.106
-509.785	-40.092	-0.256	-0.133
-508.770	800.000	0.003	0.013
-507.756	44.912	0.161	-0.148
-506.741	800.000	-0.040	-0.130
-505.726	-115.753	0.107	0.020
-504.712	487.960	0.054	0.123
-503.697	529.065	0.048	-0.114
-502.683	800.000	-0.047	-0.182
-501.668	-56.002	0.268	-0.119
-500.653	-200.000	0.048	-0.370
-499.639	-62.085	-0.226	-0.094
-498.624	-90.517	-0.102	-0.029
-497.610	-75.160	0.228	0.081
-496.595	-142.964	0.069	0.007
-495.581	-117.511	0.145	0.026
-494.566	147.056	-0.084	0.113
-493.551	-23.359	-0.266	0.160
-492.537	-200.000	-0.023	-0.181
-491.522	800.000	0.029	-0.104
-490.508	800.000	0.124	-0.476
-489.493	124.730	-0.128	0.160
-488.478	-166.562	-0.164	-0.007
-487.464	329.743	-0.091	0.174
-486.449	-45.718	0.099	0.049
-485.435	-146.436	-0.041	0.004
-484.420	161.731	-0.108	-0.151
-483.405	-99.002	0.263	0.066
-482.391	-200.000	0.002	0.079
-481.376	-57.020	-0.244	-0.107
-480.362	-200.000	0.006	-0.269
-479.347	34.404	-0.104	-0.091
-478.332	-119.574	-0.118	0.020
-477.318	-200.000	0.008	-0.142
-476.303	-12.940	0.200	0.130
-475.289	143.073	-0.142	-0.189
-474.274	-168.208	-0.200	-0.008
-473.259	-94.523	-0.121	-0.033
-472.245	433.391	0.093	-0.201
-471.230	-200.000	-0.004	0.027
-470.216	-40.503	-0.155	-0.080
-469.201	-83.319	0.287	-0.092
-468.186	800.000	0.050	-0.177
-467.172	790.918	-0.113	-0.310
-466.157	800.000	-0.018	-0.079
-465.143	-200.000	0.013	-0.163
-464.128	674.657	0.071	-0.183
-463.113	-200.000	0.004	-0.059
-462.099	-200.000	-0.028	0.192
-461.084	68.900	-0.277	0.284
-460.070	-15.443	0.260	-0.166
-459.055	-79.192	-0.406	0.137
-458.040	800.000	0.086	0.256
-457.026	58.574	0.105	0.102
-456.011	5.847	0.173	-0.128
-454.997	-10.537	-0.168	0.111
-453.982	-78.260	0.424	0.145
-452.968	-200.000	0.001	0.283
-451.953	-43.621	-0.242	0.122
-450.938	307.880	0.196	0.364
-449.924	-5.499	-0.109	0.074
-448.909	-52.097	0.301	0.139
-447.895	-200.000	-0.006	-0.032
-446.880	15.890	0.235	-0.184
-445.865	800.000	-0.020	-0.085
-444.851	50.876	0.263	0.248
-443.836	800.000	-0.055	0.189
-442.822	182.509	-0.237	-0.348
-441.807	69.347	-0.143	-0.146
-440.792	88.727	-0.353	0.391
-439.778	397.831	0.082	0.171
-438.763	-150.219	-0.175	-0.013
-437.749	577.738	-0.079	0.192
-436.734	-23.891	-0.234	-0.139
-435.719	800.000	-0.043	0.122
-434.705	108.019	0.092	-0.109
-433.690	56.140	-0.322	-0.312
-432.676	454.835	-0.143	-0.315
-431.661	22.361	0.188	0.153
-430.646	-200.000	0.015	0.458
-429.632	-200.000	-0.052	-0.331
-428.617	481.962	0.028	-0.064
-427.603	-160.053	-0.561	-0.030
-426.588	271.968	0.268	-0.471
-425.573	-152.431	0.068	0.005
-424.559	41.913	0.181	-0.163
-423.544	-80.408	0.127	-0.042
-422.530	88.330	0.049	-0.055
-421.515	-177.898	-0.330	0.008
-420.500	800.000	-0.023	-0.080
-419.486	441.532	0.091	0.198
-418.471	-149.039	-0.258	0.021
-417.457	533.904	0.110	-0.259
-416.442	-122.261	0.124	-0.020
-415.428	-24.224	0.142	-0.084
-414.413	-90.406	-0.218	0.063
-413.398	63.009	-0.188	-0.187
-412.384	800.000	-0.062	-0.231
-411.369	-172.740	-0.210	0.007
-410.355	-79.153	0.230	-0.078
-409.340	800.000	0.099	0.308
-408.325	467.934	0.027	-0.060
-407.311	44.288	-0.131	-0.120
-406.296	423.908	0.180	-0.385
-405.282	-144.241	0.339	-0.031
-404.267	-113.216	-0.244	0.048
-403.252	10.754	-0.167	0.127
-402.238	135.530	0.159	0.205
-401.223	800.000	-0.056	0.242
-400.209	40.820	-0.200	0.179
-399.194	-71.450	0.265	-0.098
-398.179	-36.588	-0.145	-0.078
-397.165	146.028	0.130	0.173
-396.150	-132.110	-0.142	0.018
-395.136	-184.863	0.367	-0.006
-394.121	-200.000	-0.006	0.098
-393.106	109.843	-0.123	0.147
-392.092	-97.141	-0.211	-0.055
-391.077	79.693	0.128	0.137
-390.063	69.874	-0.053	-0.054
-389.048	800.000	0.110	-0.377
-388.033	-200.000	-0.045	-0.443
-387.019	800.000	0.045	0.132
-386.004	-89.286	-0.289	-0.085
-384.990	-35.025	-0.272	0.147
-383.975	400.168	-0.042	0.087
-382.960	2.571	0.102	0.074
-381.946	603.559	-0.047	-0.117
-380.931	-102.192	0.160	-0.038
-379.917	800.000	-0.067	0.224
-378.902	73.294	-0.131	-0.137
-377.888	491.766	-0.114	-0.260
-376.873	466.114	-0.121	0.270
-375.858	800.000	0.027	0.084
-374.844	44.937	0.045	-0.042
-373.829	-200.000	-0.001	0.311
-372.815	-34.688	-0.049	0.027
-371.800	-62.580	-0.099	-0.041
-370.785	218.846	-0.142	-0.225
-369.771	-77.008	0.324	-0.112
-368.756	-142.891	0.272	0.026
-367.742	-200.000	0.054	-0.340
-366.727	-120.257	0.190	-0.032
-365.712	-200.000	0.031	0.211
-364.698	382.362	0.072	-0.147
-363.683	-109.676	-0.111	-0.023
-362.669	-10.319	0.283	-0.187
-361.654	679.455	0.074	-0.192
-360.639	129.265	-0.285	0.361
-359.625	-200.000	0.018	-0.161
-358.610	-116.798	0.137	0.025
-357.596	-200.000	-0.040	-0.205
-356.581	800.000	-0.046	0.135
-355.566	-90.134	0.150	0.043
-354.552	77.948	0.341	0.361
-353.537	273.183	-0.152	-0.266
-352.523	270.425	-0.211	0.369
-351.508	800.000	-0.125	0.356
-350.493	398.635	0.063	0.130
-349.479	-41.461	-0.088	-0.045
-348.464	-200.000	-0.037	0.221
-347.450	-170.467	0.144	-0.005
-346.435	-22.166	-0.297	0.179
-345.420	-128.997	-0.149	0.021
-344.406	800.000	0.177	0.550
-343.391	-200.000	0.031	0.178
-342.377	-109.410	0.341	-0.072
-341.362	-20.986	-0.064	-0.039
-340.348	-34.648	-0.083	-0.045
-339.333	-200.000	0.004	0.029
-338.318	783.091	-0.096	0.260
-337.304	-7.711	-0.016	-0.011
-336.289	-31.189	-0.186	0.104
-335.275	800.000	0.057	-0.182
-334.260	800.000	0.034	0.136
-333.245	105.193	-0.074	-0.086
-332.231	-154.917	-0.184	0.012
-331.216	-126.685	0.272	-0.040
-330.202	-97.588	0.174	0.045
-329.187	-11.073	0.261	0.170
-328.172	800.000	-0.103	0.396
-327.158	454.700	-0.035	-0.078
-326.143	75.866	0.058	0.061
-325.129	-30.959	-0.150	0.084
-324.114	-142.369	0.237	-0.023
-323.099	-126.899	0.472	-0.069
-322.085	-200.000	0.048	-0.402
-321.070	232.699	0.144	-0.234
-320.056	142.581	-0.027	-0.035
-319.041	121.875	0.039	0.048
-318.026	54.191	0.023	0.022
-317.012	-118.056	0.468	0.083
-315.997	800.000	0.028	0.092
-314.983	-8.258	-0.150	-0.100
-313.968	-141.372	-0.264	-0.027
-312.953	34.137	-0.152	-0.131
-311.939	800.000	-0.088	-0.260
-310.924	-55.542	-0.381	0.169
-309.910	-112.297	-0.124	-0.025
-308.895	206.480	0.180	-0.277
-307.880	-200.000	-0.029	0.260
-306.866	9.427	0.411	-0.308
-305.851	46.831	0.121	-0.112
-304.837	143.184	0.171	-0.226
-303.822	45.300	-0.276	-0.252
-302.807	-69.894	0.104	0.039
-301.793	13.618	0.166	0.128
-300.778	-70.236	-0.300	0.113
-299.764	91.682	-0.191	-0.212
-298.749	684.067	0.090	0.234
-297.735	61.112	0.400	0.393
-296.720	-70.078	-0.158	0.060
-295.705	439.984	0.031	-0.068
-294.691	103.584	0.249	0.289
-293.676	-176.133	-0.216	-0.006
-292.662	92.676	-0.103	0.115
-291.647	-200.000	-0.048	-0.240
-290.632	-0.428	0.237	-0.166
-289.618	19.600	0.083	-0.066
-288.603	-17.613	-0.076	0.047
-287.589	525.452	0.084	0.196
-286.574	-200.000	-0.034	-0.206
-285.559	33.595	0.272	0.234
-284.545	-20.359	0.182	-0.111
-283.530	800.000	0.035	0.146
-282.516	-137.228	0.311	-0.035
-281.501	106.007	0.335	-0.393
-280.486	-32.899	-0.299	-0.164
-279.472	-200.000	0.009	-0.205
-278.457	-60.014	0.285	0.120
-277.443	90.970	-0.241	0.267
-276.428	-200.000	0.069	-0.367
-275.413	800.000	0.045	0.149
-274.399	-64.607	0.184	-0.074
-273.384	-15.693	0.149	-0.094
-272.370	215.738	0.108	-0.170
-271.355	-200.000	0.007	-0.087
-270.340	-137.735	-0.216	-0.024
-269.326	681.153	0.138	-0.355
-268.311	-88.374	-0.180	-0.053
-267.297	-45.613	-0.232	-0.114
-266.282	-72.074	0.267	0.098
-265.267	456.454	0.110	0.242
-264.253	-187.044	-0.210	0.003
-263.238	-76.266	0.256	-0.089
-262.224	800.000	-0.023	0.067
-261.209	-200.000	0.016	0.570
-260.195	-53.170	-0.152	0.069
-259.180	249.012	-0.194	0.325
-258.165	-200.000	-0.040	0.212
-257.151	761.434	-0.071	0.190
-256.136	-137.987	0.237	-0.026
-255.122	101.098	-0.099	0.114
-254.107	271.878	0.119	-0.207
-253.092	302.737	0.085	0.155
-252.078	-96.395	-0.474	-0.124
-251.063	-144.881	0.184	0.017
-250.049	143.668	-0.038	-0.050
-249.034	-200.000	0.015	-0.141
-248.019	84.639	-0.140	-0.151
-247.005	-92.205	-0.192	0.054
-245.990	-200.000	0.046	0.301
-244.976	257.565	0.067	0.114
-243.961	-124.224	-0.418	0.065
-242.946	78.329	0.194	-0.205
-241.932	800.000	-0.084	0.336
-240.917	-112.213	0.120	-0.024
-239.903	800.000	-0.090	0.290
-238.888	405.408	-0.104	0.216
-237.873	194.809	-0.034	-0.052
-236.859	23.964	-0.259	0.211
-235.844	105.584	0.142	-0.165
-234.830	-8.632	0.434	-0.288
-233.815	187.971	-0.176	-0.260
-232.800	5.186	0.036	-0.026
-231.786	246.604	0.121	0.202
-230.771	-118.913	-0.117	-0.020
-229.757	-129.720	-0.445	-0.060
-228.742	800.000	0.016	0.054
-227.727	-200.000	0.076	0.380
-226.713	226.930	-0.058	0.093
-225.698	800.000	0.112	-0.323
-224.684	431.027	0.063	-0.135
-223.669	-80.266	0.104	-0.034
-222.655	-152.760	0.419	0.029
-221.640	-120.706	0.129	0.022
-220.625	234.400	0.103	-0.168
-219.611	503.711	0.065	-0.148
-218.596	73.271	0.340	0.350
-217.582	-200.000	-0.017	0.129
-216.567	168.275	0.073	-0.103
-215.552	-154.773	0.258	-0.017
-214.538	-41.156	-0.108	0.055
-213.523	-33.663	0.168	0.092
-212.509	153.559	-0.084	0.114
-211.494	177.986	-0.151	0.217
-210.479	355.366	-0.057	-0.111
-209.465	16.950	-0.244	-0.190
-208.450	-102.993	-0.048	-0.011
-207.436	486.515	0.079	0.179
-206.421	160.476	-0.111	0.153
-205.406	264.435	0.038	0.064
-204.392	-200.000	0.010	0.387
-203.377	181.664	-0.200	0.291
-202.363	-200.000	-0.039	0.275
-201.348	43.812	-0.219	-0.198
-200.333	800.000	0.008	-0.032
-199.319	-48.615	0.178	0.084
-198.304	-102.884	-0.276	0.065
-197.290	282.096	-0.154	-0.272
-196.275	232.869	-0.157	-0.254
-195.260	-168.731	-0.101	0.004
-194.246	-64.246	-0.033	-0.013
-193.231	-200.000	0.053	0.479
-192.217	-83.877	-0.192	-0.060
-191.202	162.812	0.204	-0.283
-190.187	-94.206	0.234	-0.063
-189.173	-200.000	0.045	-0.217
-188.158	-40.810	-0.430	-0.219
-187.144	-21.711	0.184	0.111
-186.129	-200.000	-0.073	-0.343
-185.114	800.000	0.038	-0.157
-184.100	-137.977	-0.215	0.024
-183.085	150.972	-0.051	-0.069
-182.071	-34.271	0.096	-0.052
-181.056	578.250	0.055	-0.132
-180.042	-166.656	-0.341	0.014
-179.027	-25.840	0.160	0.093
-178.012	-38.807	0.178	-0.093
-176.998	-200.000	-0.045	0.409
-175.983	594.368	0.045	0.110
-174.969	-200.000	0.036	0.534
-173.954	800.000	-0.034	-0.135
-172.939	-153.442	0.107	0.007
-171.925	-153.637	0.179	0.012
-170.910	187.606	-0.075	0.111
-169.896	-151.948	-0.355	0.026
-168.881	800.000	0.100	0.282
-167.866	-106.767	-0.062	0.014
-166.852	-150.716	-0.291	0.022
-165.837	-168.903	0.181	-0.007
-164.823	49.149	-0.166	0.154
-163.808	82.686	0.078	0.083
-162.793	-199.256	-0.190	-0.001
-161.779	-110.218	0.238	-0.049
-160.764	346.926	0.094	0.183
-159.750	800.000	-0.070	-0.237
-158.735	97.186	0.233	-0.263
-157.720	8.801	0.329	-0.244
-156.706	-126.509	0.248	-0.036
-155.691	84.899	-0.159	-0.172
-154.677	20.488	0.117	0.093
-153.662	105.100	0.172	0.200
-152.647	436.352	0.065	-0.140
-151.633	93.580	0.022	0.024
-150.618	-165.422	-0.361	-0.016
-149.604	88.283	0.134	0.147
-148.589	-200.000	-0.008	0.449
-147.574	192.567	0.134	0.199
-146.560	-106.364	-0.246	0.054
-145.545	-148.579	-0.380	0.031
-144.531	-56.943	0.173	-0.075
-143.516	115.169	0.256	0.308
-142.502	148.268	-0.139	0.185
-141.487	-117.044	0.196	0.035
-140.472	800.000	-0.058	-0.215
-139.458	800.000	0.047	0.198
-138.443	-79.994	0.107	-0.035
-137.429	-18.267	-0.190	0.117
-136.414	125.471	0.267	-0.331
-135.399	800.000	-0.101	-0.365
-134.385	800.000	-0.029	0.104
-133.370	-46.051	-0.105	0.051
-132.356	-163.405	-0.166	0.008
-131.341	-39.612	-0.425	0.219
-130.326	-3.016	0.165	0.113
-129.312	-160.966	-0.255	0.013
-128.297	-200.000	0.000	0.171
-127.283	-72.109	0.143	-0.052
-126.268	39.577	-0.245	0.216
-125.253	288.055	0.084	-0.150
-124.239	-200.000	0.030	0.183
-123.224	564.035	-0.041	-0.097
-122.210	-43.407	-0.404	0.201
-121.195	-14.181	0.555	0.352
-120.180	5.881	0.076	-0.055
-119.166	130.316	-0.131	0.165
-118.151	-7.811	0.132	0.088
-117.137	-115.085	-0.079	0.015
-116.122	-15.378	0.223	-0.140
-115.107	800.000	0.023	0.073
-114.093	411.698	-0.103	0.216
-113.078	800.000	-0.070	0.286
-112.064	74.944	-0.024	-0.025
-111.049	-90.845	0.191	0.054
-110.034	-200.000	-0.030	-0.274
-109.020	196.198	-0.085	0.127
-108.005	-46.569	-0.242	-0.117
-106.991	-200.000	-0.049	0.244
-105.976	-200.000	0.025	0.175
-104.962	-200.000	-0.020	-0.108
-103.947	-12.684	0.159	0.102
-102.932	188.171	0.165	0.242
-101.918	5.694	0.110	0.080
-100.903	140.808	-0.122	-0.159
-99.889	716.769	0.130	0.338
-98.874	118.050	0.122	0.148
-97.859	0.476	-0.038	0.026
-96.845	154.758	-0.192	-0.259
-95.830	-115.840	0.140	0.026
-94.816	-92.805	-0.139	0.038
-93.801	152.234	-0.042	0.056
-92.786	-69.552	-0.222	-0.083
-91.772	156.954	-0.066	0.089
-90.757	319.326	0.038	0.071
-89.743	-65.515	0.115	-0.045
-88.728	800.000	-0.077	0.259
-87.713	-200.000	0.026	0.221
-86.699	-200.000	-0.035	0.257
-85.684	-200.000	-0.016	0.283
-84.670	800.000	0.076	0.273
-83.655	-28.373	-0.178	-0.101
-82.640	-157.317	0.280	0.017
-81.626	-200.000	-0.002	-0.108
-80.611	-20.386	-0.389	0.235
-79.597	800.000	-0.105	0.396
-78.582	419.711	0.077	-0.161
-77.567	552.393	-0.084	0.198
-76.553	77.646	-0.192	0.201
-75.538	-200.000	-0.002	0.032
-74.524	192.769	-0.066	-0.097
-73.509	-120.903	-0.126	-0.021
-72.494	31.518	0.188	0.158
-71.480	68.553	-0.102	0.103
-70.465	6.801	0.196	-0.143
-69.451	-68.347	-0.029	-0.011
-68.436	60.076	-0.144	-0.140
-67.422	-28.511	0.249	0.141
-66.407	-200.000	-0.005	0.078
-65.392	49.249	0.129	0.119
-64.378	261.684	0.223	0.379
-63.363	119.425	0.060	0.073
-62.349	-74.960	0.316	0.111
-61.334	15.087	-0.959	-0.737
-60.319	26.657	0.710	0.583
-59.305	800.000	-0.255	-0.995
-58.290	-200.000	0.211	0.913
-57.276	201.692	1.088	1.645
-56.261	-200.000	106.199	593.447
-55.246	505.051	1498.785	3403.092
-54.232	174.620	2708.255	3841.034
-53.217	103.329	2307.803	2653.399
-52.203	37.990	1911.826	1666.585
-51.188	31.927	1698.600	1434.458
-50.173	29.491	1655.003	1379.405
-49.159	48.056	1708.771	1565.731
-48.144	48.387	1724.053	1582.187
-47.130	31.570	1681.405	1417.007
-46.115	28.924	1667.214	1385.094
-45.100	28.776	1662.128	1379.699
-44.086	28.783	1659.045	1377.139
-43.071	28.702	1656.452	1374.327
-42.057	28.724	1653.691	1372.149
-41.042	28.746	1652.046	1370.892
-40.027	28.735	1650.049	1369.097
-39.013	28.746	1647.991	1367.420
-37.998	28.676	1646.737	1365.801
-36.984	28.759	1645.187	1365.080
-35.969	28.881	1643.622	1364.634
-34.954	28.859	1642.221	1363.254
-33.940	28.792	1640.620	1361.373
-32.925	28.811	1638.616	1359.794
-31.911	28.892	1636.950	1358.960
-30.896	28.823	1635.510	1357.196
-29.881	28.789	1633.815	1355.490
-28.867	28.820	1632.103	1354.245
-27.852	28.855	1630.384	1353.019
-26.838	28.790	1628.901	1351.254
-25.823	28.900	1627.709	1351.025
-24.809	28.862	1626.626	1349.791
-23.794	28.833	1625.126	1348.278
-22.779	28.969	1623.324	1347.726
-21.765	28.818	1621.699	1345.217
-20.750	28.814	1619.895	1343.640
-19.736	28.885	1618.614	1343.044
-18.721	28.889	1617.202	1341.846
-17.706	28.842	1615.915	1340.386
-16.692	28.889	1614.351	1339.376
-15.677	28.903	1612.615	1337.982
-14.663	28.977	1611.002	1337.131
-13.648	28.815	1610.798	1335.729
-12.633	28.891	1608.419	1334.257
-11.619	28.815	1607.871	1333.195
-10.604	28.865	1606.088	1332.033
-9.590	28.927	1604.551	1331.151
-8.575	28.922	1603.099	1329.858
-7.560	28.827	1602.240	1328.407
-6.546	28.897	1600.750	1327.625
-5.531	28.896	1599.709	1326.702
-4.517	28.856	1598.429	1325.296
-3.502	28.857	1597.441	1324.429
-2.487	28.924	1595.782	1323.485
-1.473	28.890	1584.045	1313.457
-0.458	26.447	1565.744	1280.957
0.556	25.248	1567.714	1251.874
1.571	23.099	1592.631	1256.407
2.586	22.498	1604.478	1261.344
3.600	19.810	1550.564	1200.224
4.615	12.234	1441.543	1066.677
5.629	5.577	1379.994	979.511
6.644	4.409	1371.613	966.211
7.659	4.402	1370.423	965.242
8.673	4.341	1370.255	964.662
9.688	4.387	1368.468	963.601
10.702	4.280	1365.370	960.674
11.717	7.582	1371.032	985.079
12.731	15.500	1386.261	1045.408
13.746	21.496	1395.318	1089.604
14.761	22.551	1395.848	1096.490
15.775	21.940	1393.848	1091.030
16.790	20.926	1391.778	1083.011
17.804	20.161	1389.077	1076.068
18.819	19.875	1388.274	1073.579
19.834	19.755	1387.227	1071.929
20.848	19.701	1386.257	1070.753
21.863	19.511	1385.110	1068.593
22.877	19.343	1383.847	1066.487
23.892	19.375	1382.765	1065.756
24.907	19.266	1381.809	1064.248
25.921	19.302	1381.276	1063.966
26.936	19.351	1379.985	1063.182
27.950	19.365	1379.129	1062.517
28.965	19.462	1378.049	1062.188
29.980	19.562	1377.057	1061.942
30.994	19.639	1376.280	1061.725
32.009	19.746	1374.875	1061.203
33.023	19.706	1374.205	1060.346
34.038	19.657	1372.926	1058.965
35.053	19.546	1371.156	1056.826
36.067	19.541	1370.154	1055.927
37.082	19.549	1369.305	1055.228
38.096	19.656	1368.405	1055.099
39.111	19.696	1367.604	1054.629
40.126	19.535	1366.518	1052.720
41.140	19.264	1365.378	1050.093
42.155	19.019	1365.021	1048.236
43.169	18.897	1365.115	1047.473
44.184	18.897	1364.929	1047.236
45.199	18.893	1364.888	1047.086
46.213	19.127	1363.857	1047.625
47.228	19.489	1363.301	1049.311
48.242	19.481	1362.212	1048.328
49.257	19.511	1360.600	1047.179
50.271	19.369	1359.486	1045.368
51.286	19.444	1358.266	1044.789
52.301	19.447	1356.502	1043.359
53.315	19.253	1355.617	1041.414
54.330	19.161	1354.601	1039.984
55.344	19.125	1353.477	1038.813
56.359	19.174	1352.037	1037.912
57.374	18.994	1351.837	1036.580
58.388	18.961	1351.010	1035.654
59.403	18.952	1350.719	1035.285
60.417	18.992	1349.271	1034.325
61.432	18.915	1348.301	1033.030
62.447	18.868	1347.498	1032.038
63.461	18.709	1346.438	1030.182
64.476	18.752	1345.271	1029.458
65.490	18.782	1343.748	1028.378
66.505	18.789	1342.731	1027.555
67.520	18.705	1341.651	1026.131
68.534	18.826	1340.322	1025.747
69.549	18.810	1339.276	1024.763
70.563	18.692	1338.483	1023.362
71.578	18.633	1336.561	1021.451
72.593	18.679	1335.677	1020.955
73.607	18.579	1335.152	1019.868
74.622	18.725	1334.069	1019.819
75.636	18.659	1333.965	1019.258
76.651	18.612	1333.603	1018.611
77.666	18.627	1332.973	1018.132
78.680	18.812	1332.522	1018.793
79.695	18.860	1332.094	1018.663
80.709	18.976	1331.446	1018.763
81.724	19.046	1330.438	1018.318
82.739	19.130	1329.835	1018.263
83.753	19.310	1328.852	1018.481
84.768	19.493	1328.233	1019.000
85.782	19.617	1327.178	1018.831
86.797	19.681	1326.259	1018.409
87.812	19.448	1324.960	1015.951
88.826	19.507	1323.925	1015.415
89.841	19.439	1323.008	1014.224
90.855	19.670	1321.467	1014.309
91.870	19.613	1321.329	1013.780
92.884	19.730	1320.205	1013.514
93.899	19.758	1319.907	1013.354
94.914	19.850	1318.417	1012.661
95.928	19.749	1317.729	1011.451
96.943	19.713	1316.888	1010.510
97.957	19.620	1316.003	1009.196
98.972	19.549	1315.248	1008.111
99.987	19.594	1314.206	1007.488
101.001	19.563	1313.158	1006.414
102.016	19.637	1312.053	1005.911
103.030	19.650	1311.408	1005.399
104.045	19.619	1310.466	1004.411
105.060	19.448	1308.612	1001.904
106.074	19.179	1307.067	999.077
107.089	18.911	1305.749	996.427
108.103	18.729	1304.755	994.526
109.118	18.790	1302.794	993.294
110.133	18.835	1301.741	992.666
111.147	18.783	1300.457	991.295
112.162	18.895	1299.384	991.040
113.176	19.001	1298.549	990.921
114.191	18.988	1297.696	990.110
115.206	19.010	1296.285	989.070
116.220	18.982	1295.132	987.946
117.235	18.992	1293.700	986.825
118.249	18.833	1292.980	985.273
119.264	18.751	1291.825	983.838
120.279	18.854	1290.159	983.072
121.293	18.797	1288.959	981.743
122.308	18.616	1288.358	980.166
123.322	18.621	1287.055	979.115
124.337	18.599	1285.954	978.063
125.352	18.545	1285.039	976.975
126.366	18.545	1283.523	975.737
127.381	18.515	1282.629	974.799
128.395	18.507	1281.988	974.178
129.410	18.660	1281.053	974.254
130.424	18.620	1280.873	973.800
131.439	18.797	1279.313	973.533
132.454	18.896	1278.567	973.441
133.468	19.047	1277.662	973.519
134.483	18.951	1277.227	972.561
135.497	18.927	1276.588	971.850
136.512	18.951	1275.051	970.731
137.527	19.123	1273.560	970.480
138.541	19.180	1272.186	969.668
139.556	19.198	1271.015	968.791
140.570	19.195	1270.506	968.301
141.585	19.505	1268.794	968.647
142.600	19.519	1267.577	967.711
143.614	19.566	1267.516	967.847
144.629	19.595	1266.396	967.067
145.643	19.435	1265.803	965.633
146.658	19.277	1264.375	963.577
147.673	19.171	1262.721	961.635
148.687	19.106	1261.083	959.939
149.702	19.028	1259.896	958.518
150.716	18.932	1258.678	956.973
151.731	19.097	1256.807	956.383
152.746	19.103	1255.918	955.652
153.760	19.224	1254.829	955.410
154.775	19.158	1254.526	954.732
155.789	19.359	1253.253	954.789
156.804	19.351	1252.572	954.143
157.819	19.461	1251.010	953.479
158.833	19.398	1250.986	953.028
159.848	19.613	1249.859	953.271
160.862	19.549	1249.152	952.292
161.877	19.384	1247.171	949.792
162.892	19.146	1245.694	947.276
163.906	19.069	1245.262	946.439
164.921	19.098	1244.109	945.639
165.935	19.162	1243.464	945.415
166.950	19.331	1242.787	945.740
167.964	19.279	1242.266	944.978
168.979	19.118	1241.412	943.359
169.994	19.160	1240.513	942.828
171.008	19.280	1239.896	942.927
172.023	19.322	1239.287	942.611
173.037	19.492	1238.603	942.938
174.052	19.451	1237.755	941.983
175.067	19.149	1236.412	939.234
176.081	19.078	1235.206	937.844
177.096	19.083	1234.440	937.209
178.110	19.238	1233.136	936.978
179.125	19.217	1232.211	936.080
180.140	19.295	1231.490	935.873
181.154	19.372	1230.573	935.511
182.169	19.495	1229.028	934.921
183.183	19.563	1228.081	934.482
184.198	19.589	1226.869	933.618
185.213	19.715	1225.624	933.268
186.227	19.675	1225.227	932.670
187.242	19.655	1224.348	931.810
188.256	19.891	1222.886	931.887
189.271	19.836	1222.281	931.044
190.286	19.581	1220.911	928.551
191.300	19.103	1219.823	925.073
192.315	19.179	1218.822	924.638
193.329	19.257	1218.259	924.546
194.344	19.318	1217.522	924.235
195.359	19.331	1217.301	924.056
196.373	19.330	1216.965	923.712
197.388	19.526	1216.703	924.482
198.402	19.567	1216.848	924.732
199.417	19.936	1215.697	925.745
200.432	20.016	1214.966	925.534
201.446	20.091	1214.427	925.443
202.461	20.223	1213.889	925.653
203.475	20.097	1213.193	924.369
204.490	19.889	1210.981	921.498
205.504	19.631	1209.720	919.085
206.519	19.653	1208.514	918.205
207.534	19.631	1207.522	917.251
208.548	19.560	1206.945	916.352
209.563	19.576	1206.089	915.706
210.577	19.668	1204.860	915.182
211.592	19.621	1204.229	914.372
212.607	19.910	1203.630	915.365
213.621	19.998	1202.620	914.982
214.636	19.858	1201.738	913.488
215.650	19.915	1200.936	913.101
216.665	20.131	1199.956	913.414
217.680	20.150	1199.459	913.054
218.694	20.224	1198.440	912.585
219.709	20.093	1197.643	911.211
220.723	19.977	1197.070	910.084
221.738	20.054	1196.232	909.771
222.753	19.914	1195.609	908.481
223.767	20.062	1194.736	908.514
224.782	20.206	1194.383	908.920
225.796	20.296	1193.993	909.013
226.811	20.249	1193.295	908.155
227.826	20.072	1192.341	906.423
228.840	20.017	1191.087	905.102
229.855	19.969	1190.507	904.332
230.869	20.041	1190.186	904.383
231.884	19.945	1189.046	902.939
232.899	19.846	1187.936	901.500
233.913	19.842	1187.146	900.798
234.928	19.807	1186.273	899.875
235.942	19.691	1185.484	898.594
236.957	19.765	1185.054	898.572
237.972	19.651	1184.182	897.240
238.986	19.681	1183.868	897.078
240.001	19.790	1182.836	896.782
241.015	19.735	1181.728	895.575
242.030	19.930	1181.409	896.267
243.045	20.050	1180.300	895.967
244.059	20.029	1179.542	895.203
245.074	20.026	1178.867	894.597
246.088	20.006	1178.492	894.129
247.103	20.256	1177.807	894.820
248.117	20.375	1177.109	894.826
249.132	20.560	1176.678	895.371
250.147	20.801	1176.112	896.101
251.161	20.949	1175.122	896.029
252.176	21.024	1174.535	895.885
253.190	20.952	1173.954	894.993
254.205	20.968	1173.840	894.912
255.220	21.061	1173.361	894.941
256.234	21.076	1171.954	893.866
257.249	20.982	1171.553	892.999
258.263	20.963	1170.789	892.240
259.278	20.933	1170.107	891.492
260.293	21.007	1169.232	891.121
261.307	21.059	1169.305	891.365
262.322	21.123	1168.883	891.291
263.336	21.214	1167.972	890.979
264.351	21.193	1166.987	890.045
265.366	21.197	1166.342	889.494
266.380	21.125	1166.018	888.803
267.395	21.026	1164.779	887.278
268.409	20.993	1163.896	886.357
269.424	20.944	1163.655	885.845
270.439	20.981	1163.145	885.566
271.453	20.824	1162.098	883.895
272.468	20.782	1160.640	882.495
273.482	20.759	1160.034	881.841
274.497	20.822	1159.725	881.843
275.512	20.834	1158.700	881.047
276.526	20.720	1158.314	880.099
277.541	20.771	1156.984	879.270
278.555	20.868	1156.773	879.523
279.570	21.075	1156.218	880.067
280.585	21.190	1155.657	880.138
281.599	21.210	1154.785	879.498
282.614	20.909	1153.562	876.978
283.628	20.921	1152.330	876.021
284.643	20.892	1151.691	875.313
285.657	20.884	1150.694	874.435
286.672	20.925	1149.813	873.899
287.687	20.972	1148.721	873.225
288.701	20.902	1148.330	872.500
289.716	21.008	1147.112	872.025
290.730	21.025	1146.638	871.673
291.745	20.907	1146.431	870.848
292.760	21.087	1145.522	870.980
293.774	21.155	1144.914	870.779
294.789	21.456	1144.354	871.781
295.803	21.389	1143.703	870.871
296.818	21.053	1143.209	868.746
297.833	20.952	1142.237	867.426
298.847	21.042	1141.198	867.007
299.862	21.091	1140.307	866.501
300.876	21.113	1139.938	866.253
301.891	21.184	1139.558	866.239
302.906	21.267	1138.440	865.722
303.920	21.479	1137.998	866.360
304.935	21.531	1137.610	866.245
305.949	21.627	1137.597	866.633
306.964	21.595	1136.094	865.254
307.979	21.566	1135.396	864.504
308.993	21.427	1134.913	863.373
310.008	21.505	1134.219	863.151
311.022	21.648	1133.327	863.104
312.037	21.623	1132.088	861.962
313.052	21.362	1131.457	860.118
314.066	21.219	1130.153	858.349
315.081	21.022	1129.328	856.679
316.095	20.959	1128.881	855.956
317.110	21.041	1127.993	855.607
318.125	20.987	1127.524	854.909
319.139	21.127	1126.356	854.633
320.154	21.111	1125.748	854.020
321.168	21.016	1125.389	853.205
322.183	21.075	1125.043	853.156
323.197	21.096	1124.252	852.587
324.212	21.259	1123.520	852.749
325.227	21.331	1122.948	852.593
326.241	21.309	1122.382	851.980
327.256	21.274	1121.423	851.006
328.270	21.263	1120.422	850.116
329.285	21.362	1119.262	849.644
330.300	21.233	1118.477	848.346
331.314	21.209	1117.657	847.531
332.329	21.107	1117.069	846.517
333.343	21.275	1115.826	846.316
334.358	21.439	1115.338	846.662
335.373	21.519	1114.479	846.322
336.387	21.488	1114.229	845.907
337.402	21.512	1113.731	845.569
338.416	21.656	1112.853	845.526
339.431	21.673	1111.987	844.876
340.446	21.810	1111.540	845.121
341.460	21.877	1111.209	845.119
342.475	22.012	1109.937	844.724
343.489	21.914	1109.366	843.745
344.504	22.059	1108.354	843.594
345.519	22.197	1107.564	843.581
346.533	22.198	1106.862	842.978
347.548	22.146	1106.299	842.223
348.562	22.210	1105.184	841.607
349.577	21.866	1104.436	839.320
350.592	21.786	1103.161	837.895
351.606	21.721	1101.934	836.575
352.621	21.547	1101.792	835.565
353.635	21.503	1101.182	834.815
354.650	21.576	1100.353	834.463
355.665	21.603	1099.793	834.092
356.679	21.774	1099.452	834.574
357.694	21.751	1098.707	833.827
358.708	21.887	1098.082	833.926
359.723	22.068	1097.181	834.026
360.738	21.910	1096.828	832.933
361.752	21.750	1095.987	831.464
362.767	21.924	1095.601	831.921
363.781	21.875	1094.996	831.154
364.796	22.047	1094.829	831.768
365.810	22.251	1094.283	832.249
366.825	22.325	1094.024	832.329
367.840	22.517	1093.302	832.612
368.854	22.482	1092.885	832.054
369.869	22.428	1092.087	831.121
370.883	22.413	1090.669	829.894
371.898	22.310	1089.829	828.696
372.913	22.265	1089.496	828.160
373.927	22.371	1088.643	827.937
374.942	22.312	1088.974	827.838
375.956	22.333	1088.375	827.408
376.971	22.286	1087.082	826.129
377.986	22.469	1087.015	826.866
379.000	22.585	1086.354	826.833
380.015	22.734	1085.381	826.716
381.029	22.656	1085.426	826.312
382.044	22.690	1084.361	825.590
383.059	22.633	1083.706	824.753
384.073	22.556	1082.873	823.682
385.088	22.631	1081.813	823.155
386.102	22.595	1081.002	822.297
387.117	22.448	1079.905	820.704
388.132	22.110	1079.075	818.428
389.146	22.269	1078.028	818.301
390.161	22.305	1077.121	817.709
391.175	22.175	1076.678	816.696
392.190	22.453	1076.047	817.433
393.205	22.640	1075.472	817.794
394.219	22.574	1074.463	816.647
395.234	22.373	1073.489	814.906
396.248	22.324	1071.998	813.474
397.263	22.361	1071.603	813.272
398.278	22.258	1070.847	812.150
399.292	22.102	1069.811	810.575
400.307	22.084	1069.158	809.927
401.321	22.045	1068.581	809.235
402.336	22.167	1067.605	808.986
403.350	22.136	1067.037	808.343
404.365	22.142	1067.033	808.296
405.380	22.295	1066.038	808.174
406.394	22.387	1065.128	807.834
407.409	22.523	1064.404	807.837
408.423	22.635	1063.883	807.881
409.438	22.813	1063.142	808.064
410.453	22.925	1062.637	808.120
411.467	22.886	1062.281	807.602
412.482	22.817	1061.874	806.905
413.496	22.929	1061.179	806.814
414.511	23.041	1060.487	806.728
415.526	23.207	1060.057	807.090
416.540	23.269	1059.685	807.015
417.555	23.172	1058.784	805.817
418.569	23.033	1058.776	805.107
419.584	22.973	1058.146	804.282
420.599	22.981	1057.489	803.751
421.613	156.513	1402.929	1794.776
422.628	143.843	1453.242	1794.872
