DTS Sentinel unit serial number:	SN413079Multiplexer serial number:	ORYXHardware model number:	OX4-SRSoftware version number:	ORYX F/W v4.00 Oryx Data Collector v3.7.2.0data status	okinstallation	princeton_trtdifferential loss correction	single-endedforward channel	channel 2reverse channel	N/Adate	2019/09/18time	08:07:34forward acquisition time	60.00reverse acquisition time	0.00gamma	496.2192k internal	0.2345k external	0.2345temperature offset calibration	0.9979default loss term (dB/km)	0.3790temperature slope calibration	1.0000multiplexer offset coefficient	1.0000multiplexer slope coefficient	1.0000fibre end	0.00T internal ref (°C)	23.75T ext. ref 1 (°C)	0.20T ext. ref 2 (°C)	19.45length (m)	temperature (°C)	Stokes	anti-Stokes-747.200	83.716	-0.139	0.152
-746.185	542.813	-0.063	0.150
-745.171	255.939	-0.078	0.134
-744.156	440.460	-0.137	0.300
-743.142	-154.261	0.100	-0.007
-742.127	-115.873	-0.475	-0.089
-741.112	-48.209	-0.223	0.108
-740.098	-200.000	0.014	0.297
-739.083	152.464	-0.218	0.298
-738.069	-24.430	-0.146	-0.087
-737.054	-71.001	-0.159	0.060
-736.039	-173.323	-0.283	0.009
-735.025	-33.530	-0.086	-0.047
-734.010	25.697	0.188	-0.157
-732.996	-109.085	-0.345	-0.073
-731.981	-139.790	-0.106	-0.011
-730.966	-71.763	-0.314	-0.117
-729.952	-18.795	-0.211	-0.132
-728.937	-121.108	-0.174	-0.029
-727.923	-19.427	-0.318	-0.197
-726.908	-200.000	0.013	0.164
-725.894	-200.000	0.008	0.381
-724.879	64.835	-0.051	-0.052
-723.864	30.495	-0.080	0.069
-722.850	-117.444	-0.384	-0.069
-721.835	-59.000	-0.217	-0.094
-720.821	-200.000	-0.076	-0.460
-719.806	71.497	-0.087	-0.090
-718.791	-200.000	-0.000	-0.025
-717.777	-130.056	0.114	-0.016
-716.762	-71.225	-0.218	0.082
-715.748	-153.240	0.134	0.009
-714.733	-5.188	0.072	0.050
-713.718	-200.000	-0.000	0.088
-712.704	-200.000	-0.049	0.219
-711.689	800.000	-0.029	-0.091
-710.675	-37.999	0.329	0.175
-709.660	-26.689	-0.263	-0.154
-708.645	200.878	0.052	-0.080
-707.631	3.012	-0.131	-0.095
-706.616	-186.955	-0.132	0.002
-705.602	244.180	-0.008	0.013
-704.587	-200.000	0.019	-0.453
-703.572	-44.703	-0.224	0.112
-702.558	-143.955	0.316	0.030
-701.543	62.198	0.092	-0.092
-700.529	-59.094	-0.063	0.027
-699.514	-77.781	-0.118	-0.041
-698.499	-109.550	-0.171	0.036
-697.485	-85.442	-0.181	0.056
-696.470	66.702	-0.072	0.073
-695.456	-30.992	0.092	0.052
-694.441	-200.000	0.043	0.234
-693.426	72.047	-0.163	0.169
-692.412	126.439	0.084	-0.106
-691.397	74.102	-0.078	0.081
-690.383	175.856	-0.055	0.079
-689.368	-200.000	-0.062	-0.509
-688.354	-82.759	0.394	0.127
-687.339	-175.427	-0.370	-0.010
-686.324	-139.661	0.323	-0.034
-685.310	25.549	0.155	0.129
-684.295	-85.471	0.239	0.074
-683.281	447.163	0.073	-0.161
-682.266	134.111	-0.269	-0.347
-681.251	-23.373	-0.192	-0.115
-680.237	104.731	0.126	0.148
-679.222	-200.000	0.087	-0.391
-678.208	-33.585	0.141	-0.078
-677.193	-200.000	-0.026	0.194
-676.178	-101.007	-0.165	0.040
-675.164	800.000	0.041	0.158
-674.149	800.000	-0.043	-0.129
-673.135	-156.496	0.232	-0.014
-672.120	-34.845	-0.171	-0.093
-671.105	11.943	0.169	-0.129
-670.091	-175.775	0.126	-0.003
-669.076	-200.000	-0.001	-0.262
-668.062	48.151	-0.139	-0.130
-667.047	-110.897	0.332	-0.068
-666.032	123.733	0.084	-0.106
-665.018	20.539	-0.123	-0.099
-664.003	-17.327	-0.111	0.069
-662.989	-101.315	0.056	-0.014
-661.974	-100.117	-0.268	0.067
-660.959	122.778	0.113	-0.141
-659.945	-62.966	-0.183	-0.075
-658.930	168.789	-0.073	-0.104
-657.916	215.982	0.028	0.045
-656.901	-200.000	0.003	0.093
-655.886	800.000	-0.035	0.118
-654.872	181.255	-0.157	-0.231
-653.857	-69.662	0.342	0.130
-652.843	-200.000	-0.001	0.250
-651.828	-80.517	0.124	-0.041
-650.814	-98.447	0.070	0.018
-649.799	86.616	-0.179	-0.197
-648.784	-200.000	0.032	-0.262
-647.770	-166.885	-0.180	-0.007
-646.755	-200.000	0.020	0.108
-645.741	277.541	-0.144	0.255
-644.726	260.047	0.057	-0.098
-643.711	-200.000	0.056	-0.246
-642.697	-29.635	0.453	-0.258
-641.682	-43.261	-0.151	-0.076
-640.668	669.017	-0.082	0.211
-639.653	-115.280	-0.126	-0.024
-638.638	-131.423	0.278	-0.037
-637.624	-200.000	-0.041	0.336
-636.609	-200.000	0.186	0.000
-635.595	-124.748	0.062	-0.010
-634.580	-200.000	-0.035	-0.162
-633.565	32.660	0.060	0.052
-632.551	-136.878	-0.132	-0.015
-631.536	-50.479	-0.243	-0.114
-630.522	800.000	0.078	-0.303
-629.507	192.144	-0.132	0.198
-628.492	-200.000	-0.030	0.217
-627.478	-200.000	0.053	-0.268
-626.463	593.003	-0.057	-0.140
-625.449	-88.128	-0.224	0.067
-624.434	-200.000	0.003	0.230
-623.419	299.111	0.177	0.324
-622.405	-200.000	-0.011	-0.115
-621.390	-200.000	-0.054	-0.320
-620.376	-131.876	-0.249	-0.032
-619.361	-200.000	-0.036	0.432
-618.346	-200.000	-0.025	0.214
-617.332	366.009	-0.076	-0.153
-616.317	13.550	-0.024	-0.019
-615.303	-200.000	0.008	0.111
-614.288	-22.343	-0.158	-0.096
-613.273	233.941	-0.093	0.153
-612.259	-200.000	0.013	-0.088
-611.244	264.571	0.128	0.221
-610.230	17.036	-0.106	-0.083
-609.215	800.000	0.158	-0.443
-608.201	-44.294	0.137	0.068
-607.186	96.149	0.107	0.121
-606.171	3.744	-0.282	0.205
-605.157	-139.787	-0.106	-0.011
-604.142	-93.637	-0.138	-0.038
-603.128	-200.000	0.039	-0.171
-602.113	65.898	0.130	0.131
-601.098	-164.320	-0.238	0.011
-600.084	-128.257	-0.079	-0.011
-599.069	19.176	-0.159	-0.127
-598.055	-88.567	0.238	-0.071
-597.040	-87.186	0.322	-0.097
-596.025	44.915	-0.113	0.103
-595.011	-129.774	0.441	0.060
-593.996	515.513	-0.087	0.202
-592.982	-200.000	-0.038	-0.255
-591.967	-200.000	-0.017	0.139
-590.952	-86.216	-0.073	-0.022
-589.938	139.116	0.144	0.189
-588.923	0.575	0.173	0.123
-587.909	651.645	-0.138	-0.351
-586.894	300.391	-0.142	-0.260
-585.879	800.000	0.133	-0.412
-584.865	800.000	-0.064	-0.212
-583.850	-83.959	-0.258	0.082
-582.836	-34.011	-0.131	0.072
-581.821	-200.000	0.016	-0.238
-580.806	-200.000	-0.002	-0.094
-579.792	-150.493	-0.150	-0.011
-578.777	14.217	0.035	-0.027
-577.763	-148.162	-0.135	0.011
-576.748	-153.424	0.254	0.018
-575.733	800.000	-0.141	0.417
-574.719	-63.509	-0.093	-0.038
-573.704	-178.596	0.168	0.004
-572.690	448.679	-0.110	0.242
-571.675	800.000	-0.059	-0.243
-570.661	800.000	0.013	-0.040
-569.646	-55.617	0.188	-0.084
-568.631	92.861	0.319	-0.358
-567.617	-14.828	-0.136	0.087
-566.602	25.787	0.267	0.221
-565.588	-200.000	0.041	-0.180
-564.573	-3.282	0.151	0.104
-563.558	100.615	0.046	0.053
-562.544	-200.000	0.010	0.266
-561.529	-115.147	-0.062	-0.012
-560.515	-137.830	0.202	-0.022
-559.500	800.000	-0.033	-0.104
-558.485	68.635	-0.126	-0.128
-557.471	800.000	-0.116	0.389
-556.456	-51.352	0.175	0.081
-555.442	31.476	0.292	-0.249
-554.427	-0.735	0.191	0.134
-553.412	-67.464	0.326	0.127
-552.398	-200.000	0.015	0.086
-551.383	-94.664	0.313	-0.085
-550.369	246.544	0.035	0.059
-549.354	-163.187	-0.472	-0.023
-548.339	-200.000	0.009	-0.211
-547.325	-200.000	0.026	0.274
-546.310	-124.077	0.213	-0.033
-545.296	-200.000	-0.018	-0.107
-544.281	-55.766	-0.190	-0.084
-543.266	13.879	-0.073	0.056
-542.252	-139.304	0.114	0.012
-541.237	50.729	-0.293	0.275
-540.223	-200.000	0.001	-0.268
-539.208	-200.000	-0.036	0.249
-538.193	-26.862	0.109	0.063
-537.179	-1.528	-0.280	0.196
-536.164	-90.426	-0.209	-0.060
-535.150	473.110	0.145	-0.324
-534.135	29.027	-0.084	-0.071
-533.121	-200.000	-0.028	0.127
-532.106	800.000	-0.042	0.151
-531.091	573.219	0.107	-0.258
-530.077	-87.959	-0.309	-0.092
-529.062	-87.564	0.367	0.110
-528.048	133.745	-0.088	-0.113
-527.033	-39.050	0.176	-0.092
-526.018	-14.416	0.176	0.112
-525.004	80.095	0.046	0.049
-523.989	-200.000	0.052	-0.286
-522.975	-200.000	-0.030	0.294
-521.960	446.642	0.096	-0.210
-520.945	-200.000	-0.068	-0.321
-519.931	-177.292	0.101	-0.002
-518.916	800.000	0.040	-0.130
-517.902	564.686	0.049	-0.118
-516.887	-28.517	-0.283	-0.162
-515.872	-155.393	-0.259	0.017
-514.858	800.000	0.092	0.278
-513.843	-69.881	0.130	-0.049
-512.829	87.791	0.129	0.142
-511.814	393.957	0.035	0.073
-510.799	800.000	0.072	0.211
-509.785	-200.000	-0.074	-0.528
-508.770	454.374	-0.030	-0.065
-507.756	110.269	0.334	0.398
-506.741	-34.747	0.234	-0.127
-505.726	-118.161	-0.197	0.035
-504.712	-200.000	0.000	0.090
-503.697	800.000	-0.096	-0.334
-502.683	67.785	-0.014	-0.014
-501.668	60.588	0.074	0.073
-500.653	-55.795	-0.337	-0.149
-499.639	-137.595	-0.226	0.025
-498.624	134.587	-0.059	0.075
-497.610	298.569	0.059	0.108
-496.595	800.000	0.018	-0.051
-495.581	800.000	0.050	-0.188
-494.566	160.377	0.064	-0.089
-493.551	-200.000	0.076	0.399
-492.537	-200.000	0.009	-0.073
-491.522	-200.000	-0.038	0.172
-490.508	800.000	0.056	-0.208
-489.493	-172.329	-0.156	0.005
-488.478	-13.130	-0.062	-0.040
-487.464	12.928	0.307	-0.235
-486.449	-200.000	0.012	0.095
-485.435	-13.814	0.230	-0.147
-484.420	-10.737	-0.248	0.163
-483.405	59.159	0.270	-0.263
-482.391	-32.345	0.089	-0.049
-481.376	60.866	-0.274	-0.269
-480.362	25.347	0.061	-0.050
-479.347	-200.000	-0.017	0.172
-478.332	-125.213	0.346	0.052
-477.318	-45.878	0.417	-0.204
-476.303	-40.076	0.216	0.111
-475.289	69.092	-0.351	0.357
-474.274	-59.671	0.266	-0.113
-473.259	29.242	0.284	0.239
-472.245	110.673	-0.045	0.054
-471.230	-200.000	0.007	-0.040
-470.216	-49.713	-0.025	-0.012
-469.201	-112.068	-0.201	-0.040
-468.186	-55.624	-0.105	0.047
-467.172	-184.403	-0.299	-0.005
-466.157	-155.495	-0.093	-0.006
-465.143	-200.000	-0.019	-0.137
-464.128	-200.000	0.005	0.081
-463.113	-168.585	0.180	-0.007
-462.099	579.520	-0.209	-0.506
-461.084	193.995	0.045	0.067
-460.070	-91.128	-0.390	-0.111
-459.055	60.220	0.084	0.082
-458.040	-71.821	0.320	0.118
-457.026	-64.050	0.065	0.026
-456.011	474.250	0.141	0.315
-454.997	-132.200	0.157	0.020
-453.982	74.887	0.141	0.147
-452.968	-99.458	-0.152	0.038
-451.953	-151.552	-0.124	-0.009
-450.938	800.000	-0.035	-0.126
-449.924	-200.000	-0.021	-0.133
-448.909	-55.997	-0.148	0.065
-447.895	800.000	0.067	-0.206
-446.880	-94.205	-0.286	0.077
-445.865	161.529	0.132	-0.183
-444.851	479.196	-0.125	-0.280
-443.836	280.851	-0.095	-0.169
-442.822	507.297	0.082	0.189
-441.807	32.923	0.139	0.119
-440.792	-139.183	-0.191	0.020
-439.778	625.206	-0.081	-0.201
-438.763	-146.228	-0.115	0.010
-437.749	800.000	-0.023	-0.062
-436.734	-85.080	0.155	0.048
-435.719	62.331	0.080	-0.079
-434.705	221.080	-0.188	0.298
-433.690	-200.000	0.022	-0.271
-432.676	-5.995	-0.389	0.263
-431.661	189.507	0.096	0.142
-430.646	-200.000	0.046	0.454
-429.632	-200.000	0.030	0.163
-428.617	-37.749	0.042	-0.022
-427.603	-200.000	0.018	-0.130
-426.588	800.000	-0.048	0.167
-425.573	186.075	-0.203	0.299
-424.559	-65.305	0.081	0.032
-423.544	121.528	0.202	-0.249
-422.530	65.367	-0.053	0.053
-421.515	-11.549	-0.014	0.009
-420.500	15.792	0.042	-0.033
-419.486	-26.344	0.316	0.183
-418.471	-149.440	0.194	0.015
-417.457	134.839	-0.123	0.158
-416.442	109.324	-0.067	0.080
-415.428	-147.720	0.183	-0.015
-414.413	800.000	-0.048	0.171
-413.398	-187.196	0.451	0.006
-412.384	-95.981	0.412	0.108
-411.369	-118.511	-0.130	0.023
-410.355	1.734	0.131	-0.093
-409.340	-200.000	0.053	-0.259
-408.325	434.275	-0.110	-0.235
-407.311	144.866	-0.203	0.269
-406.296	112.915	-0.101	-0.121
-405.282	-111.289	-0.271	-0.055
-404.267	-48.451	0.105	0.050
-403.252	-172.595	0.162	0.005
-402.238	-74.009	-0.139	0.050
-401.223	-113.950	0.326	0.062
-400.209	-121.139	0.025	0.004
-399.194	701.142	-0.114	-0.296
-398.179	-15.681	-0.369	0.233
-397.165	-121.491	-0.295	0.048
-396.150	800.000	-0.027	0.113
-395.136	64.852	0.205	0.204
-394.121	800.000	0.017	0.060
-393.106	100.690	0.111	-0.127
-392.092	-55.192	-0.166	0.074
-391.077	682.421	-0.091	-0.234
-390.063	800.000	-0.004	-0.013
-389.048	-92.137	-0.266	0.074
-388.033	-145.487	0.068	-0.006
-387.019	46.690	0.043	0.039
-386.004	6.806	0.129	-0.095
-384.990	-174.715	0.250	-0.007
-383.975	-200.000	0.065	-0.412
-382.960	55.229	-0.279	-0.266
-381.946	211.942	0.258	-0.401
-380.931	-114.525	0.205	-0.039
-379.917	201.546	-0.035	0.053
-378.902	248.215	0.119	-0.199
-377.888	-77.588	-0.156	0.053
-376.873	-1.536	-0.046	-0.032
-375.858	-200.000	-0.028	-0.286
-374.844	179.417	0.131	0.189
-373.829	-83.228	0.187	0.059
-372.815	236.226	-0.148	0.241
-371.800	-200.000	-0.046	0.229
-370.785	-140.449	0.068	0.007
-369.771	-20.716	0.131	0.079
-368.756	518.831	0.133	-0.307
-367.742	-200.000	0.028	-0.148
-366.727	-58.980	0.091	0.039
-365.712	9.085	-0.109	0.081
-364.698	-88.536	0.264	0.078
-363.683	-17.038	-0.164	-0.102
-362.669	409.466	-0.089	-0.185
-361.654	-28.692	0.232	-0.132
-360.639	-200.000	-0.018	0.133
-359.625	466.171	-0.029	0.064
-358.610	198.329	-0.044	0.066
-357.596	35.424	-0.256	0.221
-356.581	378.308	0.035	-0.070
-355.566	123.330	-0.177	-0.219
-354.552	-57.100	-0.316	0.137
-353.537	-109.592	-0.218	0.045
-352.523	800.000	0.149	-0.514
-351.508	40.849	0.094	0.083
-350.493	-50.209	0.351	0.164
-349.479	-58.936	-0.158	0.067
-348.464	91.926	0.199	0.220
-347.450	167.887	-0.015	-0.021
-346.435	15.135	0.075	0.058
-345.420	-96.777	0.249	-0.064
-344.406	800.000	0.036	-0.124
-343.391	800.000	-0.076	0.298
-342.377	-200.000	-0.004	-0.108
-341.362	111.959	0.210	0.250
-340.348	-200.000	-0.028	-0.282
-339.333	197.429	0.088	-0.132
-338.318	424.659	0.117	-0.247
-337.304	368.828	0.097	-0.194
-336.289	-200.000	0.007	-0.237
-335.275	-51.972	-0.097	-0.044
-334.260	-61.318	-0.148	-0.061
-333.245	219.826	0.118	0.186
-332.231	88.435	-0.146	0.160
-331.216	160.046	0.197	-0.270
-330.202	40.305	0.078	0.069
-329.187	189.048	0.229	0.338
-328.172	-200.000	-0.012	0.086
-327.158	458.569	-0.094	-0.205
-326.143	-48.944	0.418	-0.197
-325.129	-94.038	-0.168	-0.045
-324.114	124.754	0.221	-0.274
-323.099	352.141	0.114	-0.222
-322.085	-17.393	0.386	0.239
-321.070	-126.235	0.305	0.045
-320.056	23.877	-0.232	0.188
-319.041	34.870	0.229	-0.197
-318.026	-90.315	0.161	-0.046
-317.012	-76.325	-0.040	0.014
-315.997	-142.719	-0.102	0.010
-314.983	181.690	0.198	0.287
-313.968	-200.000	-0.032	-0.226
-312.953	-200.000	0.037	-0.300
-311.939	-33.099	-0.238	0.130
-310.924	30.306	0.137	0.115
-309.910	-161.693	-0.325	0.016
-308.895	80.418	-0.178	-0.189
-307.880	62.083	-0.277	-0.272
-306.866	200.336	-0.038	-0.058
-305.851	-49.880	0.410	-0.191
-304.837	800.000	-0.058	-0.215
-303.822	-58.678	0.071	-0.030
-302.807	-109.248	-0.164	0.034
-301.793	569.767	-0.043	0.104
-300.778	338.623	0.126	-0.240
-299.764	180.384	0.141	-0.204
-298.749	62.362	0.398	0.391
-297.735	-116.644	-0.472	-0.085
-296.720	800.000	0.058	-0.191
-295.705	-35.661	-0.171	-0.091
-294.691	-151.113	0.252	-0.019
-293.676	704.277	0.090	0.233
-292.662	-108.148	0.168	-0.036
-291.647	-62.983	0.297	0.121
-290.632	-200.000	-0.036	-0.172
-289.618	282.096	0.079	0.139
-288.603	-97.274	-0.088	-0.023
-287.589	-71.452	-0.225	-0.083
-286.574	-110.056	0.118	-0.024
-285.559	-9.946	-0.184	0.121
-284.545	-137.235	-0.109	0.012
-283.530	-200.000	0.006	0.173
-282.516	-104.670	-0.176	-0.040
-281.501	-25.001	-0.313	-0.183
-280.486	51.676	-0.272	0.254
-279.472	350.530	0.035	0.067
-278.457	161.301	-0.105	0.144
-277.443	-74.273	-0.383	-0.136
-276.428	-89.117	0.250	-0.073
-275.413	20.741	0.153	-0.122
-274.399	800.000	-0.052	0.219
-273.384	-10.626	-0.172	0.112
-272.370	-73.977	0.160	-0.057
-271.355	800.000	0.045	-0.141
-270.340	-94.681	-0.057	0.015
-269.326	-200.000	-0.021	0.183
-268.311	274.295	0.151	-0.263
-267.297	22.693	0.065	0.052
-266.282	-91.832	0.008	0.002
-265.267	-58.227	0.277	0.118
-264.253	-30.240	0.084	0.047
-263.238	-89.742	0.070	-0.020
-262.224	-61.821	-0.070	-0.029
-261.209	129.228	0.131	0.164
-260.195	-125.312	0.203	0.030
-259.180	94.358	-0.206	-0.229
-258.165	324.036	-0.077	-0.144
-257.151	-35.381	0.202	0.108
-256.136	-77.065	0.079	0.027
-255.122	153.211	-0.222	-0.298
-254.107	115.590	0.184	0.221
-253.092	-200.000	-0.000	0.240
-252.078	800.000	-0.073	0.313
-251.063	159.742	-0.182	0.248
-250.049	72.725	0.213	0.218
-249.034	521.421	-0.079	0.182
-248.019	-0.756	-0.204	-0.142
-247.005	-74.449	-0.241	-0.085
-245.990	-31.638	-0.179	0.099
-244.976	-99.440	0.193	0.048
-243.961	800.000	0.031	0.107
-242.946	407.493	0.062	-0.128
-241.932	34.120	0.104	0.089
-240.917	-15.215	-0.453	-0.285
-239.903	-34.547	-0.150	0.081
-238.888	-58.822	0.152	0.065
-237.873	800.000	-0.078	0.325
-236.859	-143.916	-0.106	-0.010
-235.844	-153.626	-0.119	0.008
-234.830	-8.541	0.229	-0.151
-233.815	93.854	0.171	0.190
-232.800	-200.000	-0.013	0.199
-231.786	157.054	0.189	0.256
-230.771	800.000	-0.017	0.063
-229.757	-61.108	-0.280	-0.116
-228.742	-200.000	0.009	0.144
-227.727	800.000	-0.071	-0.199
-226.713	546.280	-0.141	-0.330
-225.698	-39.113	0.054	0.028
-224.684	1.400	0.163	-0.115
-223.669	-131.817	-0.165	0.021
-222.655	87.699	-0.282	0.306
-221.640	-200.000	0.049	-0.384
-220.625	-148.907	0.264	-0.021
-219.611	637.996	-0.191	-0.476
-218.596	-200.000	0.000	0.128
-217.582	800.000	-0.073	0.264
-216.567	219.707	-0.023	0.036
-215.552	4.696	0.288	0.207
-214.538	-21.820	0.214	-0.128
-213.523	150.790	0.109	0.145
-212.509	118.242	0.055	0.067
-211.494	-120.118	-0.319	0.053
-210.479	246.412	-0.224	0.370
-209.465	-200.000	-0.040	0.172
-208.450	123.035	0.202	0.248
-207.436	340.396	0.227	-0.433
-206.421	-200.000	-0.003	0.233
-205.406	143.284	0.161	-0.209
-204.392	-1.758	-0.063	-0.044
-203.377	-200.000	-0.023	0.242
-202.363	800.000	-0.098	0.316
-201.348	422.543	-0.180	0.379
-200.333	26.519	-0.224	0.184
-199.319	-134.942	-0.302	0.036
-198.304	-174.322	0.136	-0.004
-197.290	2.070	0.107	-0.076
-196.275	-121.829	-0.333	-0.054
-195.260	-200.000	-0.079	-0.414
-194.246	477.808	0.086	0.190
-193.231	-37.271	-0.142	-0.074
-192.217	-166.490	-0.518	0.021
-191.202	-190.814	0.291	0.003
-190.187	5.022	-0.201	0.145
-189.173	172.727	-0.237	0.334
-188.158	-82.354	-0.115	0.037
-187.144	-92.068	0.270	0.075
-186.129	-200.000	-0.009	0.056
-185.114	387.888	0.010	-0.021
-184.100	386.485	0.136	0.275
-183.085	127.225	-0.178	-0.221
-182.071	-53.668	0.146	0.065
-181.056	24.471	0.092	-0.074
-180.042	-73.022	-0.077	-0.028
-179.027	124.928	-0.095	-0.117
-178.012	-68.722	-0.143	-0.054
-176.998	379.139	-0.024	-0.048
-175.983	-149.446	-0.250	-0.019
-174.969	68.526	-0.168	0.168
-173.954	117.312	0.127	0.153
-172.939	-45.306	0.056	0.027
-171.925	211.371	-0.127	-0.196
-170.910	800.000	-0.055	0.206
-169.896	8.776	-0.254	-0.187
-168.881	154.309	0.150	-0.201
-167.866	-200.000	0.011	-0.129
-166.852	-96.151	-0.225	-0.059
-165.837	233.598	0.106	-0.170
-164.823	-41.037	0.253	0.128
-163.808	-200.000	-0.014	0.090
-162.793	-7.755	-0.338	-0.223
-161.779	75.675	0.076	-0.078
-160.764	-45.120	-0.293	-0.142
-159.750	-116.233	0.270	0.049
-158.735	11.581	-0.265	0.198
-157.720	-200.000	0.058	0.274
-156.706	-200.000	0.001	0.157
-155.691	-36.409	-0.253	0.133
-154.677	404.443	0.061	-0.126
-153.662	-164.309	-0.215	0.010
-152.647	-44.042	-0.291	0.143
-151.633	-20.254	0.289	0.174
-150.618	800.000	0.052	-0.166
-149.604	9.349	0.333	0.246
-148.589	-136.586	-0.220	-0.025
-147.574	-59.217	-0.244	-0.103
-146.560	-200.000	-0.019	0.082
-145.545	-6.375	0.197	-0.131
-144.531	313.106	0.164	-0.301
-143.516	-113.568	0.156	-0.030
-142.502	114.221	0.106	0.127
-141.487	6.421	0.159	0.115
-140.472	-113.374	0.279	-0.053
-139.458	-200.000	0.038	-0.213
-138.443	202.319	0.156	0.235
-137.429	800.000	0.053	0.176
-136.414	-106.848	-0.466	0.101
-135.399	47.495	0.132	0.120
-134.385	-62.767	0.225	0.091
-133.370	-200.000	0.014	-0.120
-132.356	784.449	-0.068	-0.183
-131.341	-200.000	0.093	-0.498
-130.326	-79.013	-0.234	0.078
-129.312	132.509	0.157	0.198
-128.297	-194.552	-0.274	0.002
-127.283	-200.000	-0.077	0.339
-126.268	549.268	-0.084	0.197
-125.253	-200.000	0.047	-0.309
-124.239	68.007	0.151	-0.151
-123.224	289.405	-0.314	-0.556
-122.210	-132.440	-0.061	-0.008
-121.195	-77.243	0.379	0.129
-120.180	-148.117	-0.043	-0.004
-119.166	350.323	-0.107	-0.207
-118.151	-167.474	0.108	0.004
-117.137	36.963	0.081	-0.070
-116.122	-200.000	-0.022	0.294
-115.107	120.500	0.265	0.321
-114.093	-200.000	0.022	0.213
-113.078	-49.165	-0.180	-0.084
-112.064	-97.411	0.241	-0.061
-111.049	349.446	-0.038	0.074
-110.034	11.391	-0.178	0.133
-109.020	366.631	-0.066	0.129
-108.005	-92.943	0.416	0.113
-106.991	15.750	-0.221	0.169
-105.976	130.917	-0.030	0.037
-104.962	241.433	0.132	-0.215
-103.947	14.632	0.100	-0.076
-102.932	-111.792	-0.197	0.039
-101.918	-174.948	-0.297	-0.008
-100.903	-40.841	-0.198	-0.100
-99.889	21.943	0.119	0.095
-98.874	178.168	0.155	0.221
-97.859	-200.000	-0.019	0.359
-96.845	19.524	-0.345	0.271
-95.830	25.902	0.264	0.214
-94.816	221.759	0.029	-0.045
-93.801	-21.174	-0.305	0.182
-92.786	79.188	0.144	-0.151
-91.772	-200.000	-0.007	0.091
-90.757	-84.539	-0.259	0.080
-89.743	608.299	-0.070	-0.169
-88.728	238.437	0.053	0.086
-87.713	800.000	0.170	0.458
-86.699	800.000	-0.059	0.189
-85.684	-162.371	0.213	-0.010
-84.670	-200.000	-0.001	0.022
-83.655	177.655	-0.092	0.131
-82.640	800.000	-0.097	-0.394
-81.626	-200.000	-0.015	-0.087
-80.611	4.473	-0.232	0.166
-79.597	-80.640	0.263	0.085
-78.582	185.566	-0.008	-0.011
-77.567	7.809	-0.096	0.070
-76.553	8.089	0.073	-0.053
-75.538	-187.186	0.175	-0.002
-74.524	-64.954	0.100	0.039
-73.509	32.884	0.074	0.063
-72.494	-112.966	-0.402	-0.077
-71.480	17.107	-0.011	0.009
-70.465	-55.660	0.303	0.132
-69.451	-35.634	-0.106	-0.056
-68.436	73.891	-0.068	0.070
-67.422	276.722	0.064	0.112
-66.407	-72.051	0.308	0.112
-65.392	53.028	0.252	-0.235
-64.378	-87.162	-0.298	-0.088
-63.363	-200.000	-0.063	0.366
-62.349	800.000	-0.032	-0.125
-61.334	9.395	-1.145	-0.844
-60.319	278.297	0.480	0.833
-59.305	800.000	-0.503	-1.379
-58.290	222.780	0.888	1.394
-57.276	507.278	0.567	1.282
-56.261	-200.000	122.352	617.731
-55.246	398.726	1558.845	3178.438
-54.232	142.845	2729.587	3533.414
-53.217	88.723	2309.449	2500.972
-52.203	32.693	1916.938	1614.699
-51.188	26.768	1710.461	1395.272
-50.173	24.520	1671.204	1346.270
-49.159	44.674	1737.518	1555.693
-48.144	42.804	1749.670	1552.099
-47.130	26.274	1701.810	1384.213
-46.115	23.857	1686.583	1353.393
-45.100	23.642	1681.463	1347.605
-44.086	23.628	1678.878	1345.371
-43.071	23.675	1676.807	1344.016
-42.057	23.631	1674.372	1341.678
-41.042	23.651	1672.188	1340.021
-40.027	23.646	1670.260	1338.384
-39.013	23.619	1667.969	1336.295
-37.998	23.598	1666.901	1335.226
-36.984	23.661	1665.673	1334.664
-35.969	23.809	1663.475	1333.966
-34.954	23.792	1662.612	1333.089
-33.940	23.746	1660.721	1331.174
-32.925	23.740	1658.864	1329.594
-31.911	23.688	1657.553	1328.099
-30.896	23.668	1656.078	1326.717
-29.881	23.764	1653.886	1325.624
-28.867	23.779	1652.415	1324.504
-27.852	23.697	1650.727	1322.482
-26.838	23.725	1649.762	1321.872
-25.823	23.746	1648.842	1321.237
-24.809	23.762	1647.332	1320.088
-23.794	23.769	1646.056	1319.067
-22.779	23.872	1644.217	1318.306
-21.765	23.685	1642.829	1315.752
-20.750	23.763	1640.395	1314.328
-19.736	23.748	1639.720	1313.625
-18.721	23.835	1638.087	1312.906
-17.706	23.805	1636.784	1311.589
-16.692	23.773	1634.399	1309.389
-15.677	23.787	1633.662	1308.849
-14.663	23.911	1631.605	1308.066
-13.648	23.878	1630.489	1306.876
-12.633	23.842	1629.153	1305.488
-11.619	23.778	1627.641	1303.755
-10.604	23.784	1626.382	1302.738
-9.590	23.701	1625.092	1301.045
-8.575	23.800	1623.250	1300.247
-7.560	23.706	1622.536	1298.932
-6.546	23.759	1621.661	1298.569
-5.531	23.752	1620.475	1297.519
-4.517	23.801	1618.983	1296.631
-3.502	23.789	1618.133	1295.806
-2.487	23.827	1616.446	1294.685
-1.473	23.581	1604.661	1283.413
-0.458	21.147	1585.928	1250.959
0.556	16.283	1588.797	1222.585
1.571	14.238	1613.184	1226.188
2.586	13.977	1625.471	1233.484
3.600	12.878	1570.143	1183.509
4.615	6.997	1461.489	1062.118
5.629	1.328	1401.380	981.760
6.644	0.311	1394.670	970.424
7.659	0.169	1393.887	968.885
8.673	0.183	1392.124	967.664
9.688	0.157	1390.126	966.020
10.702	0.006	1387.294	963.001
11.717	2.828	1390.741	983.409
12.731	9.770	1402.001	1035.993
13.746	15.242	1409.287	1076.523
14.761	16.690	1410.257	1086.465
15.775	16.212	1408.973	1082.313
16.790	15.188	1406.597	1073.834
17.804	14.439	1404.374	1067.246
18.819	14.199	1402.486	1064.183
19.834	13.883	1401.423	1061.266
20.848	13.565	1400.450	1058.404
21.863	13.358	1399.145	1055.999
22.877	13.175	1397.969	1053.852
23.892	13.143	1396.665	1052.572
24.907	13.030	1396.420	1051.573
25.921	13.096	1394.872	1050.738
26.936	13.154	1394.397	1050.654
27.950	13.246	1393.292	1050.312
28.965	13.264	1392.133	1049.462
29.980	13.279	1391.501	1048.990
30.994	13.210	1390.553	1047.741
32.009	13.396	1389.152	1047.773
33.023	13.343	1387.987	1046.462
34.038	13.317	1386.937	1045.417
35.053	13.312	1385.101	1043.905
36.067	13.345	1384.302	1043.421
37.082	13.246	1383.780	1042.311
38.096	13.306	1382.867	1041.911
39.111	13.297	1381.700	1040.884
40.126	13.197	1381.385	1039.924
41.140	13.127	1380.664	1038.845
42.155	13.050	1379.753	1037.588
43.169	13.178	1379.863	1038.382
44.184	13.072	1379.867	1037.625
45.199	13.098	1379.127	1037.139
46.213	13.141	1378.346	1036.731
47.228	13.233	1376.878	1036.112
48.242	13.179	1375.876	1034.928
49.257	13.234	1374.403	1034.077
50.271	13.207	1372.836	1032.633
51.286	13.261	1372.068	1032.300
52.301	13.152	1370.512	1030.360
53.315	13.237	1369.328	1029.907
54.330	13.249	1367.996	1028.891
55.344	13.113	1367.247	1027.388
56.359	13.142	1365.823	1026.409
57.374	13.109	1365.279	1025.709
58.388	13.034	1364.718	1024.731
59.403	13.095	1363.880	1024.388
60.417	13.160	1363.004	1024.043
61.432	13.036	1362.249	1022.618
62.447	12.970	1361.273	1021.385
63.461	13.029	1359.765	1020.524
64.476	13.032	1358.831	1019.754
65.490	13.005	1357.767	1018.698
66.505	13.088	1355.978	1017.779
67.520	13.060	1355.109	1016.864
68.534	13.021	1354.088	1015.768
69.549	13.053	1352.969	1015.032
70.563	13.119	1351.616	1014.332
71.578	13.128	1350.220	1013.250
72.593	13.105	1349.040	1012.134
73.607	12.906	1348.862	1010.694
74.622	13.096	1347.452	1010.709
75.636	12.950	1347.238	1009.569
76.651	13.004	1346.299	1009.106
77.666	13.023	1345.524	1008.552
78.680	13.072	1345.380	1008.653
79.695	13.061	1343.993	1007.458
80.709	13.121	1343.113	1007.074
81.724	13.111	1342.381	1006.376
82.739	13.187	1341.054	1005.750
83.753	13.139	1340.573	1005.011
84.768	13.174	1339.500	1004.331
85.782	13.318	1338.133	1004.093
86.797	13.210	1336.833	1002.375
87.812	13.184	1335.991	1001.495
88.826	13.307	1334.092	1000.727
89.841	13.177	1333.502	999.411
90.855	13.266	1332.673	999.240
91.870	13.286	1331.602	998.466
92.884	13.261	1330.645	997.507
93.899	13.322	1329.638	997.036
94.914	13.347	1329.441	996.951
95.928	13.344	1328.209	995.917
96.943	13.292	1327.421	994.929
97.957	13.283	1326.126	993.814
98.972	13.277	1325.031	992.873
99.987	13.285	1324.012	992.066
101.001	13.283	1323.071	991.263
102.016	13.253	1321.625	989.910
103.030	13.209	1321.359	989.358
104.045	13.236	1320.466	988.768
105.060	13.174	1319.328	987.458
106.074	13.173	1317.298	985.845
107.089	13.177	1316.036	984.838
108.103	13.056	1315.142	983.358
109.118	13.092	1313.597	982.334
110.133	13.096	1312.350	981.334
111.147	13.162	1310.772	980.459
112.162	13.160	1309.343	979.293
113.176	13.218	1308.516	978.932
114.191	13.187	1307.329	977.772
115.206	13.111	1306.689	976.761
116.220	13.131	1305.031	975.552
117.235	13.255	1303.986	975.414
118.249	13.192	1302.898	974.142
119.264	13.130	1302.330	973.265
120.279	13.214	1300.605	972.384
121.293	13.228	1299.476	971.538
122.308	13.181	1298.875	970.727
123.322	13.213	1297.509	969.808
124.337	13.085	1296.516	968.231
125.352	13.090	1295.570	967.466
126.366	13.150	1294.198	966.710
127.381	13.207	1292.768	965.885
128.395	13.060	1291.718	964.158
129.410	13.089	1291.025	963.723
130.424	13.116	1290.273	963.236
131.439	13.202	1288.926	962.649
132.454	13.178	1288.048	961.764
133.468	13.176	1287.316	961.123
134.483	13.195	1286.085	960.230
135.497	13.148	1284.965	959.035
136.512	13.332	1283.537	958.950
137.527	13.231	1282.354	957.399
138.541	13.175	1281.196	956.125
139.556	13.162	1279.630	954.799
140.570	13.257	1278.807	954.645
141.585	13.278	1277.389	953.623
142.600	13.223	1276.604	952.637
143.614	13.309	1275.036	951.875
144.629	13.456	1274.321	952.108
145.643	13.352	1273.409	950.742
146.658	13.264	1271.735	948.901
147.673	13.303	1270.395	948.044
148.687	13.304	1269.342	947.181
149.702	13.272	1268.083	945.973
150.716	13.202	1266.908	944.609
151.731	13.297	1265.531	944.045
152.746	13.346	1264.525	943.489
153.760	13.390	1263.275	942.726
154.775	13.377	1261.807	941.471
155.789	13.327	1261.255	940.690
156.804	13.420	1259.875	940.107
157.819	13.418	1258.894	939.283
158.833	13.352	1258.383	938.441
159.848	13.542	1257.059	938.446
160.862	13.518	1255.833	937.313
161.877	13.467	1254.694	936.094
162.892	13.354	1254.007	934.860
163.906	13.410	1252.579	934.027
164.921	13.494	1251.988	933.976
165.935	13.512	1251.130	933.356
166.950	13.446	1250.075	932.115
167.964	13.569	1249.634	932.396
168.979	13.579	1248.303	931.377
169.994	13.512	1248.038	930.718
171.008	13.504	1247.535	930.218
172.023	13.655	1246.547	930.244
173.037	13.679	1245.466	929.495
174.052	13.545	1244.761	928.136
175.067	13.429	1243.925	926.777
176.081	13.491	1242.834	926.229
177.096	13.595	1241.962	926.080
178.110	13.634	1240.206	924.905
179.125	13.585	1239.541	924.053
180.140	13.654	1237.769	923.037
181.154	13.656	1236.785	922.230
182.169	13.681	1235.565	921.382
183.183	13.691	1234.704	920.712
184.198	13.655	1234.051	919.942
185.213	13.783	1232.205	919.195
186.227	13.873	1230.957	918.679
187.242	13.776	1230.052	917.390
188.256	13.780	1229.504	916.922
189.271	13.817	1228.246	916.106
190.286	13.786	1227.312	915.158
191.300	13.627	1226.501	913.593
192.315	13.621	1226.053	913.146
193.329	13.675	1225.444	912.907
194.344	13.777	1224.406	912.618
195.359	13.739	1223.752	911.842
196.373	13.865	1223.276	912.098
197.388	13.897	1222.652	911.726
198.402	13.944	1222.357	911.686
199.417	13.981	1221.344	911.048
200.432	13.985	1220.829	910.605
201.446	13.960	1219.984	909.757
202.461	14.059	1218.728	909.287
203.475	13.997	1218.070	908.372
204.490	14.015	1216.716	907.380
205.504	14.051	1215.249	906.401
206.519	14.022	1213.995	905.231
207.534	14.044	1212.829	904.401
208.548	13.930	1212.114	903.169
209.563	14.090	1211.316	903.364
210.577	14.013	1210.244	902.066
211.592	14.016	1209.823	901.688
212.607	14.136	1208.610	901.356
213.621	14.045	1208.287	900.542
214.636	14.100	1207.350	900.060
215.650	14.244	1205.861	899.648
216.665	14.224	1204.778	898.651
217.680	14.137	1204.637	897.997
218.694	14.272	1203.120	897.516
219.709	14.218	1202.308	896.543
220.723	14.281	1201.925	896.513
221.738	14.168	1201.257	895.331
222.753	14.279	1200.052	894.949
223.767	14.326	1199.657	894.828
224.782	14.336	1199.338	894.562
225.796	14.230	1198.783	893.500
226.811	14.300	1197.996	893.211
227.826	14.342	1196.915	892.552
228.840	14.286	1196.148	891.598
229.855	14.325	1195.411	891.183
230.869	14.375	1194.748	890.875
231.884	14.358	1193.607	889.854
232.899	14.356	1192.855	889.206
233.913	14.332	1192.067	888.411
234.928	14.298	1191.765	887.925
235.942	14.303	1190.658	887.048
236.957	14.338	1189.555	886.335
237.972	14.237	1189.217	885.468
238.986	14.387	1188.510	885.659
240.001	14.305	1187.848	884.654
241.015	14.519	1187.210	885.235
242.030	14.462	1185.930	883.903
243.045	14.564	1184.833	883.545
244.059	14.561	1184.103	882.905
245.074	14.502	1183.425	882.010
246.088	14.560	1182.851	881.813
247.103	14.649	1181.748	881.383
248.117	14.647	1180.844	880.617
249.132	14.711	1180.298	880.471
250.147	14.703	1179.923	880.073
251.161	14.748	1179.040	879.569
252.176	14.687	1178.579	878.829
253.190	14.774	1177.963	878.748
254.205	14.901	1177.150	878.732
255.220	14.695	1177.195	877.605
256.234	14.769	1176.129	877.121
257.249	14.869	1175.308	876.956
258.263	14.888	1174.321	876.245
259.278	14.815	1174.161	875.663
260.293	14.898	1173.801	875.752
261.307	14.907	1172.629	874.845
262.322	14.899	1171.988	874.248
263.336	14.929	1171.727	874.134
264.351	15.051	1170.921	874.095
265.366	15.032	1170.104	873.306
266.380	15.041	1169.660	872.942
267.395	14.956	1168.689	871.699
268.409	14.929	1167.834	870.842
269.424	14.945	1167.472	870.582
270.439	15.035	1166.516	870.258
271.453	15.013	1165.955	869.651
272.468	14.894	1165.124	868.333
273.482	15.051	1164.114	868.317
274.497	15.043	1163.555	867.784
275.512	15.062	1162.934	867.340
276.526	15.098	1162.014	866.764
277.541	15.112	1161.259	866.197
278.555	14.998	1160.517	864.981
279.570	15.121	1160.178	865.283
280.585	15.229	1158.863	864.785
281.599	15.194	1158.339	864.136
282.614	15.268	1156.527	863.087
283.628	15.159	1156.350	862.323
284.643	15.104	1155.278	861.164
285.657	15.252	1154.188	861.034
286.672	15.189	1153.507	860.126
287.687	15.289	1152.544	859.843
288.701	15.291	1151.446	858.960
289.716	15.364	1150.825	858.792
290.730	15.302	1150.327	858.031
291.745	15.339	1149.723	857.693
292.760	15.339	1148.500	856.701
293.774	15.412	1148.133	856.729
294.789	15.377	1147.551	856.040
295.803	15.359	1147.132	855.559
296.818	15.398	1145.979	854.823
297.833	15.431	1145.555	854.599
298.847	15.385	1144.965	853.849
299.862	15.453	1143.864	853.297
300.876	15.457	1143.348	852.857
301.891	15.512	1142.219	852.219
302.906	15.441	1141.622	851.335
303.920	15.509	1141.144	851.252
304.935	15.512	1140.561	850.753
305.949	15.597	1139.576	850.374
306.964	15.588	1139.078	849.884
307.979	15.641	1137.815	849.135
308.993	15.599	1137.158	848.357
310.008	15.667	1136.413	848.067
311.022	15.575	1135.913	847.155
312.037	15.593	1135.054	846.531
313.052	15.722	1134.130	846.415
314.066	15.598	1133.206	845.026
315.081	15.696	1132.206	844.699
316.095	15.530	1131.833	843.512
317.110	15.673	1131.086	843.597
318.125	15.641	1129.809	842.410
319.139	15.667	1129.363	842.136
320.154	15.555	1128.950	841.192
321.168	15.590	1128.325	840.829
322.183	15.630	1127.311	840.198
323.197	15.751	1127.018	840.508
324.212	15.697	1126.212	839.565
325.227	15.716	1125.721	839.219
326.241	15.850	1124.915	839.211
327.256	15.717	1124.008	837.799
328.270	15.819	1122.939	837.433
329.285	15.802	1121.924	836.520
330.300	15.807	1121.271	835.981
331.314	15.799	1120.830	835.541
332.329	15.834	1119.249	834.459
333.343	15.766	1118.676	833.622
334.358	15.856	1117.704	833.271
335.373	15.951	1116.905	833.073
336.387	15.914	1116.081	832.200
337.402	15.944	1115.438	831.796
338.416	15.937	1115.009	831.368
339.431	15.990	1114.574	831.229
340.446	15.965	1113.731	830.406
341.460	15.992	1113.051	829.958
342.475	16.128	1111.590	829.466
343.489	16.059	1110.851	828.500
344.504	16.092	1109.989	827.945
345.519	16.109	1109.120	827.307
346.533	16.216	1108.098	826.998
347.548	16.243	1107.381	826.520
348.562	16.171	1107.045	825.842
349.577	16.226	1106.303	825.487
350.592	16.118	1105.385	824.202
351.606	16.072	1105.163	823.739
352.621	16.145	1104.120	823.243
353.635	16.258	1103.592	823.330
354.650	16.243	1102.454	822.334
355.665	16.166	1102.031	821.569
356.679	16.241	1101.394	821.390
357.694	16.102	1100.848	820.230
358.708	16.231	1100.162	820.275
359.723	16.353	1099.376	820.211
360.738	16.400	1098.484	819.701
361.752	16.334	1098.255	819.134
362.767	16.350	1097.600	818.651
363.781	16.322	1097.196	818.142
364.796	16.459	1096.362	818.113
365.810	16.404	1095.733	817.304
366.825	16.398	1095.397	816.949
367.840	16.529	1094.620	816.931
368.854	16.571	1093.531	816.248
369.869	16.542	1093.089	815.707
370.883	16.592	1092.214	815.226
371.898	16.492	1091.501	814.140
372.913	16.571	1090.918	814.011
373.927	16.569	1090.408	813.548
374.942	16.583	1090.205	813.395
375.956	16.547	1089.467	812.596
376.971	16.632	1088.800	812.436
377.986	16.606	1088.284	811.854
379.000	16.634	1087.968	811.682
380.015	16.842	1086.676	811.644
381.029	16.758	1086.407	810.969
382.044	16.863	1085.655	810.838
383.059	16.796	1085.065	810.001
384.073	16.705	1084.394	808.995
385.088	16.824	1083.290	808.668
386.102	16.841	1082.031	807.740
387.117	16.885	1080.812	806.965
388.132	16.840	1080.057	806.119
389.146	16.744	1079.792	805.391
390.161	16.634	1079.344	804.464
391.175	16.835	1078.043	804.377
392.190	16.936	1077.598	804.452
393.205	16.843	1077.065	803.544
394.219	16.820	1076.404	802.868
395.234	16.938	1074.897	802.230
396.248	16.884	1073.918	801.174
397.263	16.953	1073.026	800.766
398.278	16.924	1072.332	800.042
399.292	16.876	1071.899	799.419
400.307	16.821	1071.483	798.780
401.321	16.871	1070.655	798.329
402.336	17.010	1069.591	798.115
403.350	16.940	1069.130	797.375
404.365	16.944	1068.682	796.989
405.380	17.066	1067.865	796.881
406.394	16.968	1067.184	795.843
407.409	16.847	1066.848	794.953
408.423	17.007	1065.643	794.733
409.438	17.191	1064.635	794.775
410.453	17.171	1064.352	794.397
411.467	17.225	1063.389	793.864
412.482	17.281	1062.786	793.601
413.496	17.144	1062.252	792.495
414.511	17.252	1061.551	792.405
415.526	17.340	1061.023	792.352
416.540	17.238	1060.900	791.714
417.555	17.247	1060.347	791.273
418.569	17.288	1059.899	791.061
419.584	17.323	1059.150	790.594
420.599	17.324	1058.250	789.858
421.613	107.125	1330.564	1486.470
422.628	98.788	1370.215	1486.512
