DTS Sentinel unit serial number:	SN413079Multiplexer serial number:	ORYXHardware model number:	OX4-SRSoftware version number:	ORYX F/W v4.00 Oryx Data Collector v3.7.2.0data status	okinstallation	princeton_trtdifferential loss correction	single-endedforward channel	channel 2reverse channel	N/Adate	2019/09/15time	18:43:35forward acquisition time	60.00reverse acquisition time	0.00gamma	496.2192k internal	0.2287k external	0.2287temperature offset calibration	0.9924default loss term (dB/km)	0.3790temperature slope calibration	1.0000multiplexer offset coefficient	1.0000multiplexer slope coefficient	1.0000fibre end	0.00T internal ref (°C)	43.53T ext. ref 1 (°C)	6.87T ext. ref 2 (°C)	36.07length (m)	temperature (°C)	Stokes	anti-Stokes-747.200	-138.010	-0.370	-0.042
-746.185	800.000	-0.119	0.406
-745.171	-6.138	0.264	-0.185
-744.156	-200.000	0.015	0.092
-743.142	-159.570	-0.187	0.011
-742.127	-48.835	-0.346	0.170
-741.112	218.311	-0.037	-0.061
-740.098	-61.126	0.131	0.057
-739.083	-113.102	0.218	0.044
-738.069	800.000	0.088	0.306
-737.054	-47.726	-0.185	0.092
-736.039	83.533	-0.079	-0.088
-735.025	387.290	0.151	0.320
-734.010	56.592	0.099	-0.099
-732.996	157.133	-0.089	-0.126
-731.981	56.131	-0.108	-0.108
-730.966	-200.000	0.039	-0.288
-729.952	-26.376	0.088	-0.053
-728.937	635.368	-0.027	-0.070
-727.923	64.171	0.241	-0.249
-726.908	800.000	-0.041	-0.170
-725.894	98.154	-0.212	-0.250
-724.879	130.303	-0.121	-0.159
-723.864	559.019	-0.125	0.308
-722.850	2.590	-0.108	-0.080
-721.835	-200.000	-0.021	-0.114
-720.821	176.279	-0.025	-0.038
-719.806	-200.000	-0.009	-0.355
-718.791	800.000	0.035	-0.121
-717.777	-200.000	0.007	0.078
-716.762	-200.000	0.027	0.131
-715.748	-200.000	-0.034	-0.225
-714.733	800.000	-0.136	-0.468
-713.718	-166.181	0.063	0.003
-712.704	-135.364	0.436	0.053
-711.689	-200.000	-0.069	-0.387
-710.675	-139.013	0.323	0.036
-709.660	-85.289	-0.250	0.080
-708.645	40.182	-0.121	-0.112
-707.631	-200.000	0.010	-0.384
-706.616	800.000	0.066	0.186
-705.602	-116.953	0.150	-0.028
-704.587	70.802	-0.072	-0.077
-703.572	644.476	-0.069	-0.181
-702.558	-53.591	-0.065	0.031
-701.543	-153.122	-0.263	-0.019
-700.529	800.000	-0.033	-0.126
-699.514	-69.395	-0.221	-0.087
-698.499	-162.668	-0.241	0.012
-697.485	-79.871	0.259	-0.089
-696.470	800.000	0.057	-0.181
-695.456	-100.532	-0.274	0.069
-694.441	230.767	-0.077	-0.129
-693.426	-103.410	0.059	-0.014
-692.412	800.000	0.024	0.105
-691.397	47.809	0.276	0.264
-690.383	-158.923	-0.095	-0.006
-689.368	-200.000	-0.008	-0.187
-688.354	253.764	0.037	-0.065
-687.339	-165.377	-0.448	0.020
-686.324	58.525	-0.181	-0.182
-685.310	-83.713	0.261	0.085
-684.295	49.070	0.036	0.035
-683.281	-200.000	-0.022	0.173
-682.266	613.058	-0.039	0.100
-681.251	-102.746	0.149	-0.036
-680.237	521.554	0.106	-0.255
-679.222	-112.004	0.099	0.020
-678.208	-200.000	0.013	0.267
-677.193	-61.229	0.061	0.026
-676.178	800.000	0.068	-0.208
-675.164	29.665	-0.098	-0.085
-674.149	-200.000	-0.068	0.334
-673.135	-184.524	-0.085	0.001
-672.120	-81.343	0.361	-0.122
-671.105	-200.000	-0.004	-0.052
-670.091	80.590	0.296	-0.327
-669.076	60.492	-0.195	-0.197
-668.062	-200.000	-0.024	-0.249
-667.047	-200.000	-0.008	0.310
-666.032	791.430	0.077	-0.216
-665.018	69.459	-0.165	0.174
-664.003	371.662	-0.030	0.063
-662.989	-91.548	-0.096	0.028
-661.974	-16.376	0.090	0.058
-660.959	149.967	-0.194	0.268
-659.945	800.000	-0.040	-0.177
-658.930	55.932	-0.270	0.268
-657.916	-200.000	0.067	-0.000
-656.901	-3.455	-0.157	0.112
-655.886	436.654	-0.009	0.021
-654.872	-80.033	0.290	-0.099
-653.857	86.946	0.132	-0.149
-652.843	-200.000	0.001	-0.160
-651.828	-102.970	0.123	0.030
-650.814	-81.283	-0.177	0.060
-649.799	-106.254	-0.184	0.042
-648.784	-200.000	0.013	0.206
-647.770	-121.185	-0.294	-0.050
-646.755	441.953	0.163	0.365
-645.741	-49.508	-0.171	-0.083
-644.726	428.777	-0.203	-0.449
-643.711	-5.411	0.116	0.082
-642.697	-200.000	0.045	0.513
-641.682	19.575	-0.273	-0.225
-640.668	-123.268	-0.160	0.026
-639.653	-126.791	0.364	-0.055
-638.638	-196.043	0.175	-0.001
-637.624	800.000	-0.027	0.106
-636.609	135.981	-0.227	-0.302
-635.595	-132.556	-0.189	0.025
-634.580	76.394	-0.204	0.220
-633.565	-200.000	0.023	0.365
-632.551	-200.000	-0.047	0.234
-631.536	258.751	-0.161	0.283
-630.522	-54.339	0.147	0.068
-629.507	800.000	0.109	-0.436
-628.492	-106.539	-0.162	0.037
-627.478	163.500	-0.046	0.066
-626.463	241.769	0.246	0.421
-625.449	127.009	-0.101	0.130
-624.434	114.382	0.193	-0.240
-623.419	-88.988	0.342	-0.103
-622.405	800.000	-0.086	-0.356
-621.390	14.973	0.155	0.123
-620.376	46.782	0.188	-0.179
-619.361	-200.000	-0.020	0.129
-618.346	80.675	0.166	-0.183
-617.332	-7.332	0.225	-0.156
-616.317	-87.361	-0.270	-0.083
-615.303	109.688	-0.241	-0.294
-614.288	-200.000	-0.052	0.379
-613.273	-200.000	-0.008	-0.099
-612.259	-102.104	0.078	0.019
-611.244	-200.000	0.040	-0.214
-610.230	176.683	-0.255	-0.378
-609.215	-200.000	-0.002	0.184
-608.201	-193.785	-0.232	-0.002
-607.186	-54.131	0.045	-0.021
-606.171	-180.344	0.247	0.005
-605.157	475.284	0.173	-0.399
-604.142	101.376	-0.057	-0.068
-603.128	800.000	-0.051	-0.171
-602.113	-21.013	0.048	0.030
-601.098	-33.393	0.353	0.199
-600.084	-78.792	0.399	-0.139
-599.069	-134.564	-0.212	0.026
-598.055	-200.000	0.014	0.105
-597.040	-57.337	0.315	0.141
-596.025	-39.197	-0.170	0.091
-595.011	-86.294	0.277	-0.087
-593.996	42.544	0.112	-0.104
-592.982	800.000	0.028	-0.116
-591.967	-42.230	-0.325	-0.170
-590.952	-131.857	0.399	-0.053
-589.938	-147.141	0.399	0.035
-588.923	79.978	-0.247	-0.270
-587.909	-82.538	-0.176	-0.058
-586.894	-153.381	0.268	-0.019
-585.879	101.395	0.301	-0.357
-584.865	117.587	-0.145	0.181
-583.850	48.473	0.094	0.089
-582.836	769.531	-0.160	0.443
-581.821	129.222	0.042	-0.054
-580.806	800.000	0.047	-0.149
-579.792	-132.046	-0.270	-0.036
-578.777	317.200	-0.144	-0.278
-577.763	-73.505	-0.147	-0.055
-576.748	-183.615	-0.272	-0.005
-575.733	800.000	-0.034	-0.114
-574.719	-5.206	0.338	0.237
-573.704	-90.057	-0.222	0.066
-572.690	2.939	-0.292	0.216
-571.675	-42.210	-0.201	-0.105
-570.661	85.739	0.254	0.285
-569.646	168.051	0.118	-0.171
-568.631	-200.000	0.018	0.406
-567.617	-66.627	-0.012	-0.005
-566.602	-200.000	-0.011	0.210
-565.588	-200.000	0.003	-0.332
-564.573	800.000	-0.047	-0.192
-563.558	-102.226	-0.097	0.024
-562.544	475.751	-0.138	-0.316
-561.529	-141.107	0.088	0.009
-560.515	-200.000	-0.001	-0.172
-559.500	473.878	-0.242	0.556
-558.485	315.944	-0.101	0.195
-557.471	-31.685	0.185	0.106
-556.456	287.438	-0.176	-0.323
-555.442	30.111	-0.245	0.213
-554.427	-200.000	0.000	-0.240
-553.412	-200.000	-0.044	-0.226
-552.398	133.925	-0.155	0.204
-551.383	-122.115	0.204	0.034
-550.369	-69.948	-0.061	-0.024
-549.354	14.251	0.077	-0.061
-548.339	111.207	0.056	-0.069
-547.325	-119.150	-0.180	-0.032
-546.310	323.927	0.082	0.158
-545.296	-81.593	-0.222	0.074
-544.281	-122.883	0.154	0.025
-543.266	-143.971	-0.067	0.006
-542.252	-181.043	-0.074	-0.002
-541.237	800.000	0.106	0.335
-540.223	677.328	0.164	0.434
-539.208	-59.209	0.153	-0.067
-538.193	19.649	0.256	-0.210
-537.179	800.000	-0.051	0.180
-536.164	410.607	-0.089	0.192
-535.150	-97.249	-0.060	-0.016
-534.135	41.167	0.131	-0.120
-533.121	68.852	-0.172	-0.179
-532.106	-8.485	0.135	0.092
-531.091	-183.876	-0.470	-0.008
-530.077	247.986	0.203	0.349
-529.062	-111.939	-0.230	-0.047
-528.048	-57.794	-0.322	-0.143
-527.033	201.646	0.156	0.244
-526.018	800.000	-0.108	-0.426
-525.004	-200.000	-0.010	-0.075
-523.989	537.004	-0.026	-0.062
-522.975	-124.246	0.065	0.010
-521.960	-76.844	0.237	-0.084
-520.945	56.630	0.120	0.119
-519.931	-200.000	0.012	0.060
-518.916	186.798	-0.186	0.282
-517.902	-200.000	0.015	0.258
-516.887	-135.280	0.144	0.018
-515.872	-53.389	0.135	0.063
-514.858	68.847	-0.056	-0.059
-513.843	457.056	-0.105	0.237
-512.829	679.780	0.148	0.392
-511.814	-50.058	0.234	-0.113
-510.799	163.755	0.043	0.061
-509.785	800.000	-0.013	-0.049
-508.770	-17.958	-0.221	-0.141
-507.756	717.728	0.031	-0.085
-506.741	167.954	-0.260	0.376
-505.726	-200.000	-0.009	-0.215
-504.712	301.870	-0.098	0.184
-503.697	-200.000	-0.006	0.066
-502.683	336.391	-0.044	-0.088
-501.668	-200.000	0.061	-0.306
-500.653	47.742	-0.144	0.137
-499.639	-4.307	-0.152	0.107
-498.624	-34.268	-0.260	0.145
-497.610	367.090	0.022	0.044
-496.595	-187.394	0.276	-0.004
-495.581	-200.000	0.031	0.236
-494.566	-126.443	-0.293	0.044
-493.551	-115.069	0.023	-0.004
-492.537	-110.994	0.153	0.032
-491.522	-87.813	-0.103	-0.032
-490.508	82.256	-0.179	0.197
-489.493	800.000	-0.078	-0.270
-488.478	-107.116	-0.329	-0.074
-487.464	-22.176	0.317	0.195
-486.449	800.000	-0.048	-0.175
-485.435	-200.000	0.006	-0.501
-484.420	-83.774	-0.146	0.047
-483.405	-200.000	-0.027	-0.283
-482.391	-131.134	-0.427	0.058
-481.376	-36.780	-0.034	-0.018
-480.362	-2.857	0.223	0.158
-479.347	-22.612	0.075	0.046
-478.332	-23.676	-0.193	-0.118
-477.318	800.000	-0.020	-0.083
-476.303	449.754	-0.094	0.210
-475.289	-121.820	0.148	0.025
-474.274	-200.000	-0.036	0.250
-473.259	-199.264	0.389	-0.002
-472.245	108.331	0.215	0.260
-471.230	-10.622	-0.219	-0.147
-470.216	758.240	-0.097	-0.266
-469.201	-200.000	-0.003	-0.078
-468.186	-69.072	0.019	-0.007
-467.172	-200.000	0.019	-0.094
-466.157	-87.944	0.288	-0.088
-465.143	-24.106	-0.094	-0.057
-464.128	-200.000	-0.333	-0.001
-463.113	173.971	-0.178	0.260
-462.099	-93.120	0.095	-0.027
-461.084	-200.000	0.002	-0.020
-460.070	-170.531	0.078	0.003
-459.055	800.000	-0.095	-0.303
-458.040	-52.768	0.509	-0.238
-457.026	-200.000	0.010	0.177
-456.011	214.934	-0.086	-0.138
-454.997	635.844	-0.097	0.250
-453.982	-129.095	-0.114	-0.016
-452.968	-124.126	-0.129	0.020
-451.953	44.091	-0.109	-0.101
-450.938	-56.798	-0.214	-0.096
-449.924	-200.000	0.069	0.397
-448.909	202.968	-0.222	-0.348
-447.895	4.062	0.148	0.110
-446.880	-200.000	-0.015	0.066
-445.865	92.883	-0.061	-0.070
-444.851	514.837	0.013	0.031
-443.836	800.000	-0.116	-0.369
-442.822	-131.553	-0.231	-0.031
-441.807	-22.990	0.075	-0.046
-440.792	-117.351	0.208	0.038
-439.778	-130.048	0.156	-0.022
-438.763	800.000	0.095	-0.352
-437.749	324.786	-0.157	0.304
-436.734	-134.406	0.288	-0.036
-435.719	-93.490	-0.129	0.036
-434.705	720.920	0.071	-0.192
-433.690	21.296	-0.096	-0.079
-432.676	-102.152	-0.397	-0.097
-431.661	222.210	0.095	0.155
-430.646	-87.781	0.382	0.117
-429.632	354.742	-0.019	0.038
-428.617	-67.812	0.120	-0.047
-427.603	-5.944	-0.365	-0.253
-426.588	-200.000	-0.053	-0.290
-425.573	-141.065	0.162	0.017
-424.559	110.733	0.066	-0.080
-423.544	13.552	-0.153	-0.120
-422.530	-75.157	-0.246	-0.089
-421.515	6.818	0.298	0.225
-420.500	-116.044	-0.272	-0.051
-419.486	38.922	-0.236	-0.213
-418.471	-29.108	-0.102	0.059
-417.457	800.000	0.058	-0.256
-416.442	800.000	0.061	0.210
-415.428	5.115	0.136	-0.101
-414.413	-200.000	0.035	-0.221
-413.398	-200.000	-0.041	-0.293
-412.384	-200.000	-0.042	0.190
-411.369	-49.167	-0.245	-0.119
-410.355	179.708	-0.203	-0.301
-409.340	800.000	0.016	0.051
-408.325	800.000	-0.099	0.321
-407.311	-90.595	-0.297	0.087
-406.296	86.709	0.102	-0.114
-405.282	-103.652	-0.106	-0.025
-404.267	-60.799	-0.277	0.119
-403.252	800.000	-0.012	0.051
-402.238	800.000	0.093	0.348
-401.223	-126.429	0.227	0.034
-400.209	-200.000	-0.021	-0.184
-399.194	-167.182	0.204	-0.008
-398.179	-138.232	0.085	-0.010
-397.165	-200.000	-0.003	-0.339
-396.150	60.768	0.363	0.364
-395.136	-136.844	-0.202	0.024
-394.121	-94.694	-0.091	-0.025
-393.106	-139.768	0.328	-0.035
-392.092	35.729	0.143	-0.127
-391.077	-98.930	-0.115	0.030
-390.063	-200.000	0.022	-0.391
-389.048	-173.778	-0.229	-0.007
-388.033	-200.000	-0.020	-0.270
-387.019	291.270	0.125	-0.229
-386.004	-19.897	0.350	-0.219
-384.990	527.452	-0.040	-0.095
-383.975	-59.213	-0.047	-0.020
-382.960	-36.770	-0.157	0.085
-381.946	-14.858	-0.327	-0.212
-380.931	-97.105	0.233	-0.062
-379.917	63.768	-0.301	0.306
-378.902	800.000	0.088	-0.328
-377.888	-158.331	0.076	-0.004
-376.873	-9.154	-0.174	-0.118
-375.858	149.072	-0.109	-0.149
-374.844	-200.000	0.020	0.107
-373.829	-128.402	-0.082	0.012
-372.815	-200.000	0.058	-0.265
-371.800	373.539	0.093	0.192
-370.785	800.000	0.111	-0.365
-369.771	502.928	0.067	-0.156
-368.756	423.700	-0.067	-0.145
-367.742	800.000	-0.064	0.234
-366.727	-107.725	0.168	-0.037
-365.712	353.897	0.071	0.143
-364.698	-200.000	-0.015	-0.227
-363.683	-200.000	-0.013	0.159
-362.669	-97.534	0.134	0.035
-361.654	-200.000	-0.051	0.387
-360.639	-105.573	-0.519	0.119
-359.625	-200.000	-0.193	0.001
-358.610	-49.275	0.390	-0.188
-357.596	166.737	0.053	0.076
-356.581	-21.443	0.141	0.087
-355.566	18.571	-0.162	-0.131
-354.552	-133.260	-0.066	-0.008
-353.537	-127.068	0.314	0.047
-352.523	80.593	0.135	-0.147
-351.508	-28.385	-0.153	0.089
-350.493	0.588	-0.300	-0.217
-349.479	-102.042	0.158	-0.038
-348.464	-86.306	0.318	-0.099
-347.450	-200.000	0.031	0.171
-346.435	149.587	0.064	0.088
-345.420	300.610	0.120	-0.223
-344.406	-169.525	-0.010	0.000
-343.391	-107.960	-0.206	-0.045
-342.377	28.743	0.189	0.161
-341.362	800.000	-0.042	0.158
-340.348	-200.000	0.166	-0.001
-339.333	125.540	0.063	0.080
-338.318	-30.810	0.092	0.053
-337.304	42.471	-0.108	0.100
-336.289	-180.706	-0.025	-0.001
-335.275	629.934	0.086	-0.221
-334.260	-200.000	-0.012	-0.064
-333.245	-77.313	-0.129	0.045
-332.231	-120.927	0.108	-0.018
-331.216	-100.486	-0.182	-0.046
-330.202	-200.000	0.009	-0.188
-329.187	136.826	0.119	-0.157
-328.172	537.106	0.043	0.102
-327.158	-13.499	-0.254	-0.166
-326.143	-35.425	0.182	-0.100
-325.129	-70.714	0.182	0.069
-324.114	667.020	0.128	0.334
-323.099	183.393	-0.081	-0.121
-322.085	-200.000	0.012	0.058
-321.070	330.830	-0.123	0.239
-320.056	-96.636	-0.277	-0.074
-319.041	-200.000	-0.022	0.201
-318.026	-86.564	0.178	0.055
-317.012	558.273	0.038	-0.092
-315.997	-92.965	-0.148	0.042
-314.983	315.408	-0.052	0.099
-313.968	-117.187	-0.076	-0.014
-312.953	-17.160	0.166	0.106
-311.939	-138.787	-0.164	0.018
-310.924	800.000	-0.039	-0.171
-309.910	-45.104	-0.253	-0.127
-308.895	11.049	-0.285	0.220
-307.880	-113.263	0.138	-0.027
-306.866	800.000	-0.080	0.277
-305.851	253.582	0.113	-0.195
-304.837	-14.703	0.245	-0.158
-303.822	-39.811	-0.189	-0.099
-302.807	18.092	0.186	0.149
-301.793	42.054	0.118	-0.108
-300.778	145.579	0.132	0.179
-299.764	-9.737	0.098	0.066
-298.749	-200.000	-0.012	-0.278
-297.735	423.936	-0.123	0.267
-296.720	-12.596	0.196	-0.129
-295.705	-74.927	0.415	0.150
-294.691	-200.000	-0.003	0.304
-293.676	234.091	-0.306	0.509
-292.662	153.303	-0.246	0.340
-291.647	144.649	0.058	0.077
-290.632	94.495	0.146	0.167
-289.618	403.540	0.073	-0.154
-288.603	-200.000	-0.031	-0.250
-287.589	800.000	-0.119	0.459
-286.574	457.886	0.081	0.182
-285.559	-120.668	0.340	-0.058
-284.545	-1.691	0.135	-0.096
-283.530	75.302	0.074	0.079
-282.516	127.118	0.171	0.218
-281.501	9.960	0.149	0.114
-280.486	26.018	-0.132	-0.111
-279.472	-61.286	0.126	-0.054
-278.457	-200.000	-0.014	0.141
-277.443	130.252	-0.105	0.136
-276.428	8.498	0.137	0.104
-275.413	-130.836	0.216	-0.029
-274.399	-121.926	-0.272	0.045
-273.384	-22.642	0.175	-0.106
-272.370	800.000	-0.051	-0.176
-271.355	-200.000	-0.004	0.026
-270.340	-188.092	-0.197	-0.003
-269.326	404.929	0.097	-0.207
-268.311	800.000	0.037	-0.163
-267.297	49.821	0.185	-0.176
-266.282	45.888	-0.079	0.074
-265.267	-167.074	0.125	0.005
-264.253	-200.000	0.053	0.434
-263.238	334.980	-0.042	0.083
-262.224	26.920	-0.101	-0.085
-261.209	-39.123	0.201	0.106
-260.195	-125.529	0.195	0.030
-259.180	-200.000	-0.030	0.193
-258.165	-27.361	0.190	-0.111
-257.151	-138.709	-0.446	0.049
-256.136	-61.546	-0.192	0.081
-255.122	-2.917	-0.102	-0.072
-254.107	6.100	0.177	0.132
-253.092	-126.597	-0.248	-0.037
-252.078	500.576	-0.093	0.217
-251.063	-91.333	-0.253	0.073
-250.049	-200.000	0.004	0.415
-249.034	800.000	0.036	0.103
-248.019	-200.000	-0.029	0.285
-247.005	-14.714	-0.109	-0.070
-245.990	262.176	0.061	0.106
-244.976	-101.002	0.187	-0.046
-243.961	800.000	-0.053	0.171
-242.946	-110.034	-0.305	-0.064
-241.932	-110.754	0.426	0.088
-240.917	800.000	0.024	-0.080
-239.903	800.000	-0.006	-0.024
-238.888	-200.000	-0.074	0.339
-237.873	-116.021	0.433	-0.081
-236.859	-137.638	0.094	0.011
-235.844	145.855	-0.147	-0.198
-234.830	-104.281	0.339	0.079
-233.815	-24.838	0.075	-0.045
-232.800	-145.681	-0.440	0.040
-231.786	44.035	0.253	-0.234
-230.771	715.172	0.050	-0.132
-229.757	800.000	0.023	-0.084
-228.742	-97.468	-0.370	0.097
-227.727	71.064	-0.246	-0.256
-226.713	243.504	0.168	0.283
-225.698	668.163	0.008	0.022
-224.684	529.794	-0.125	-0.297
-223.669	36.305	0.245	-0.217
-222.655	-80.022	0.248	0.084
-221.640	-200.000	-0.002	0.033
-220.625	360.076	0.043	-0.087
-219.611	-28.190	0.243	-0.141
-218.596	200.060	0.231	-0.357
-217.582	-155.750	-0.367	-0.024
-216.567	585.224	0.118	0.292
-215.552	-112.785	0.245	-0.049
-214.538	101.834	-0.042	0.049
-213.523	-200.000	-0.055	-0.339
-212.509	116.521	0.124	0.152
-211.494	27.359	-0.180	-0.152
-210.479	201.236	-0.049	0.075
-209.465	-87.374	0.121	-0.037
-208.450	8.744	-0.258	-0.195
-207.436	-60.866	-0.417	0.177
-206.421	-200.000	0.006	-0.269
-205.406	107.365	0.065	0.077
-204.392	800.000	-0.044	0.190
-203.377	800.000	-0.033	0.114
-202.363	250.728	-0.122	0.209
-201.348	-23.715	-0.102	0.061
-200.333	497.112	0.069	-0.159
-199.319	-69.505	-0.219	-0.084
-198.304	184.263	-0.088	-0.130
-197.290	45.317	0.191	-0.177
-196.275	-125.987	-0.099	0.015
-195.260	-14.598	-0.288	-0.186
-194.246	429.877	0.069	0.151
-193.231	-121.548	0.037	0.006
-192.217	-48.441	0.249	0.120
-191.202	-70.495	-0.168	0.064
-190.187	-8.802	0.142	-0.096
-189.173	-158.910	-0.389	0.022
-188.158	53.905	0.215	0.207
-187.144	-49.495	0.243	0.116
-186.129	322.085	0.124	-0.236
-185.114	-196.151	0.130	-0.001
-184.100	521.686	-0.067	-0.157
-183.085	800.000	-0.097	0.399
-182.071	-119.334	0.407	-0.071
-181.056	800.000	0.104	0.336
-180.042	339.173	0.078	0.152
-179.027	-121.139	-0.221	-0.037
-178.012	-200.000	0.006	-0.081
-176.998	800.000	-0.150	-0.563
-175.983	-37.565	0.236	-0.126
-174.969	354.585	0.104	-0.208
-173.954	-200.000	0.039	0.204
-172.939	-126.129	0.158	0.024
-171.925	306.151	-0.067	-0.124
-170.910	309.061	0.191	0.359
-169.896	-97.507	-0.123	-0.032
-168.881	-101.807	-0.241	-0.058
-167.866	-200.000	-0.024	-0.190
-166.852	-66.189	-0.115	-0.046
-165.837	-91.085	0.240	-0.069
-164.823	-173.468	-0.107	0.003
-163.808	167.431	0.195	-0.277
-162.793	-200.000	-0.045	0.403
-161.779	-15.049	0.122	-0.078
-160.764	-70.411	-0.189	-0.072
-159.750	791.556	0.101	0.278
-158.735	15.815	0.258	-0.204
-157.720	396.709	0.090	-0.189
-156.706	313.316	0.039	-0.074
-155.691	-31.043	-0.210	0.119
-154.677	-102.203	0.077	-0.019
-153.662	-29.541	0.131	0.075
-152.647	800.000	0.027	0.095
-151.633	40.798	0.344	0.311
-150.618	-40.868	0.170	0.088
-149.604	87.252	-0.164	0.182
-148.589	-121.218	0.273	-0.046
-147.574	-75.100	-0.186	-0.067
-146.560	342.755	-0.144	-0.282
-145.545	39.179	-0.082	-0.074
-144.531	-39.954	0.241	-0.126
-143.516	138.046	0.024	0.032
-142.502	113.355	-0.140	-0.170
-141.487	800.000	0.088	-0.258
-140.472	-200.000	0.202	0.000
-139.458	800.000	-0.036	0.111
-138.443	-86.460	-0.176	-0.054
-137.429	289.424	-0.124	-0.225
-136.414	-200.000	-0.150	-0.000
-135.399	-76.197	-0.158	0.056
-134.385	-124.143	0.258	-0.040
-133.370	39.818	-0.083	0.074
-132.356	-200.000	-0.011	0.371
-131.341	-82.501	0.204	0.066
-130.326	130.350	0.044	0.057
-129.312	-54.645	0.154	0.070
-128.297	-194.873	-0.285	0.002
-127.283	252.817	-0.054	0.093
-126.268	185.098	0.077	0.114
-125.253	321.711	0.049	0.094
-124.239	-180.668	0.042	0.001
-123.224	169.979	-0.037	0.053
-122.210	190.487	-0.166	-0.250
-121.195	-147.496	0.243	-0.021
-120.180	-134.711	-0.145	-0.018
-119.166	-25.134	-0.087	-0.052
-118.151	-200.000	-0.020	0.160
-117.137	-200.000	-0.070	-0.364
-116.122	-139.542	-0.152	0.016
-115.107	-165.979	0.276	-0.012
-114.093	105.808	-0.133	0.158
-113.078	147.947	0.221	-0.298
-112.064	-200.000	0.005	0.054
-111.049	-139.684	-0.293	-0.031
-110.034	-107.291	-0.127	0.028
-109.020	-200.000	-0.003	-0.031
-108.005	50.749	0.040	-0.038
-106.991	713.538	0.124	0.329
-105.976	59.319	0.085	0.084
-104.962	-101.181	0.454	0.111
-103.947	74.837	-0.031	0.033
-102.932	800.000	-0.013	0.055
-101.918	18.841	-0.075	-0.060
-100.903	70.913	-0.105	-0.109
-99.889	-115.068	0.201	-0.038
-98.874	81.352	-0.159	-0.172
-97.859	-0.368	-0.189	-0.134
-96.845	145.286	0.133	-0.178
-95.830	-124.282	0.327	0.051
-94.816	171.786	0.050	0.072
-93.801	355.843	0.195	-0.387
-92.786	-70.707	0.314	-0.119
-91.772	-6.981	-0.163	-0.111
-90.757	444.848	-0.115	-0.253
-89.743	-8.292	-0.147	0.099
-88.728	-78.372	-0.149	0.051
-87.713	800.000	0.052	0.166
-86.699	25.141	0.084	-0.070
-85.684	537.974	0.031	-0.074
-84.670	-43.952	0.140	-0.070
-83.655	-124.303	0.304	0.047
-82.640	-74.859	0.190	-0.068
-81.626	761.839	-0.026	0.071
-80.611	175.779	0.199	0.288
-79.597	214.217	0.122	-0.193
-78.582	-96.111	-0.182	-0.048
-77.567	-85.479	-0.159	0.049
-76.553	-66.934	0.100	-0.040
-75.538	-200.000	0.023	0.112
-74.524	-200.000	0.003	0.209
-73.509	-107.310	0.228	-0.050
-72.494	-49.353	0.071	-0.034
-71.480	506.783	-0.104	-0.241
-70.465	140.164	-0.113	0.149
-69.451	-200.000	-0.007	0.117
-68.436	-58.005	0.181	0.079
-67.422	-200.000	-0.003	-0.217
-66.407	-108.126	0.364	-0.079
-65.392	46.994	0.257	-0.238
-64.378	-200.000	0.037	0.230
-63.363	175.053	0.111	0.160
-62.349	70.964	-0.187	0.193
-61.334	-200.000	-0.211	-0.936
-60.319	90.665	0.246	0.275
-59.305	634.911	-0.269	-0.681
-58.290	327.917	0.449	0.861
-57.276	297.322	0.898	1.647
-56.261	-200.000	75.436	567.655
-55.246	570.374	1311.263	3185.253
-54.232	143.755	2529.270	3365.098
-53.217	115.442	2345.347	2861.073
-52.203	53.477	1961.548	1877.994
-51.188	47.119	1751.616	1627.112
-50.173	44.033	1705.445	1560.463
-49.159	58.535	1738.660	1703.405
-48.144	64.942	1756.764	1770.568
-47.130	46.958	1721.307	1597.461
-46.115	43.620	1707.666	1559.063
-45.100	43.470	1703.073	1553.652
-44.086	43.366	1700.053	1550.036
-43.071	43.415	1697.352	1547.889
-42.057	43.335	1695.350	1545.386
-41.042	43.394	1693.468	1544.062
-40.027	43.436	1691.176	1542.236
-39.013	43.450	1689.111	1540.395
-37.998	43.389	1687.753	1538.632
-36.984	43.451	1686.184	1537.610
-35.969	43.462	1685.005	1536.559
-34.954	43.535	1683.362	1535.552
-33.940	43.579	1680.893	1533.573
-32.925	43.569	1679.257	1531.948
-31.911	43.549	1677.399	1530.037
-30.896	43.544	1675.797	1528.479
-29.881	43.505	1674.174	1526.642
-28.867	43.500	1672.398	1524.928
-27.852	43.519	1670.843	1523.590
-26.838	43.434	1669.630	1521.783
-25.823	43.590	1667.980	1521.397
-24.809	43.548	1666.513	1519.678
-23.794	43.559	1665.283	1518.577
-22.779	43.497	1663.464	1516.393
-21.765	43.565	1661.859	1515.385
-20.750	43.493	1659.872	1512.971
-19.736	43.482	1658.813	1511.867
-18.721	43.575	1656.965	1510.817
-17.706	43.483	1656.069	1509.251
-16.692	43.584	1654.027	1508.087
-15.677	43.613	1652.198	1506.573
-14.663	43.628	1651.014	1505.540
-13.648	43.618	1649.695	1504.204
-12.633	43.576	1648.354	1502.612
-11.619	43.535	1646.656	1500.698
-10.604	43.597	1644.576	1499.203
-9.590	43.611	1643.691	1498.442
-8.575	43.577	1642.725	1497.254
-7.560	43.524	1641.583	1495.761
-6.546	43.590	1639.849	1494.609
-5.531	43.596	1638.885	1493.710
-4.517	43.488	1637.769	1491.835
-3.502	43.548	1636.619	1491.172
-2.487	43.575	1635.068	1489.900
-1.473	43.121	1623.653	1476.118
-0.458	39.495	1600.689	1428.942
0.556	31.283	1594.576	1376.386
1.571	27.181	1615.342	1363.492
2.586	25.603	1627.886	1362.017
3.600	22.291	1576.463	1294.546
4.615	15.039	1466.881	1154.607
5.629	8.491	1399.714	1058.413
6.644	6.960	1390.008	1040.909
7.659	6.954	1388.089	1039.342
8.673	6.844	1387.511	1038.092
9.688	6.732	1385.467	1035.736
10.702	6.517	1383.399	1032.689
11.717	9.204	1388.007	1053.682
12.731	14.894	1398.666	1099.182
13.746	17.739	1402.616	1120.917
14.761	17.034	1399.582	1113.772
15.775	16.080	1396.368	1104.862
16.790	14.816	1393.967	1094.595
17.804	13.997	1391.339	1087.074
18.819	13.570	1389.965	1083.116
19.834	13.244	1388.893	1080.054
20.848	13.038	1387.335	1077.402
21.863	12.794	1386.565	1075.115
22.877	12.655	1384.863	1072.794
23.892	12.633	1383.903	1071.816
24.907	12.544	1383.451	1070.791
25.921	12.518	1382.739	1069.978
26.936	12.557	1382.056	1069.606
27.950	12.690	1380.458	1069.136
28.965	12.810	1379.362	1068.971
29.980	12.814	1378.219	1068.018
30.994	12.893	1376.768	1067.312
32.009	12.898	1375.852	1066.536
33.023	12.938	1374.135	1065.369
34.038	12.932	1372.908	1064.286
35.053	12.757	1371.867	1062.259
36.067	12.742	1370.761	1061.210
37.082	12.770	1369.600	1060.398
38.096	12.826	1369.231	1060.380
39.111	12.812	1368.036	1059.270
40.126	12.840	1366.771	1058.375
41.140	12.697	1366.222	1056.939
42.155	12.628	1365.707	1056.004
43.169	12.559	1365.408	1055.236
44.184	12.378	1365.448	1054.015
45.199	12.553	1364.555	1054.355
46.213	12.583	1364.253	1054.220
47.228	12.704	1363.074	1053.986
48.242	12.681	1362.048	1052.957
49.257	12.712	1360.632	1051.966
50.271	12.686	1358.806	1050.292
51.286	12.715	1357.726	1049.552
52.301	12.724	1356.241	1048.367
53.315	12.704	1355.475	1047.555
54.330	12.599	1354.436	1045.995
55.344	12.567	1353.198	1044.741
56.359	12.561	1352.593	1044.146
57.374	12.615	1351.375	1043.455
58.388	12.552	1350.271	1042.110
59.403	12.522	1349.933	1041.570
60.417	12.594	1348.853	1041.098
61.432	12.521	1348.211	1040.049
62.447	12.415	1347.335	1038.613
63.461	12.378	1346.176	1037.390
64.476	12.427	1345.141	1036.809
65.490	12.406	1344.111	1035.794
66.505	12.440	1342.120	1034.378
67.520	12.493	1341.408	1034.074
68.534	12.494	1340.027	1032.921
69.549	12.508	1338.777	1031.959
70.563	12.481	1337.777	1030.926
71.578	12.373	1337.088	1029.628
72.593	12.303	1336.094	1028.334
73.607	12.299	1334.855	1027.262
74.622	12.368	1334.271	1027.156
75.636	12.325	1333.690	1026.346
76.651	12.363	1332.802	1025.810
77.666	12.242	1332.314	1024.589
78.680	12.359	1332.060	1025.035
79.695	12.450	1330.912	1024.626
80.709	12.473	1329.972	1023.956
81.724	12.634	1328.937	1024.066
82.739	12.575	1327.872	1022.788
83.753	12.558	1327.739	1022.491
84.768	12.691	1326.515	1022.282
85.782	12.814	1324.957	1021.758
86.797	12.780	1323.720	1020.503
87.812	12.663	1322.432	1018.692
88.826	12.679	1321.704	1018.141
89.841	12.703	1320.596	1017.344
90.855	12.708	1320.066	1016.878
91.870	12.698	1319.244	1016.096
92.884	12.772	1318.202	1015.660
93.899	12.748	1317.448	1014.841
94.914	12.894	1316.199	1014.686
95.928	12.893	1315.500	1014.053
96.943	12.784	1314.566	1012.574
97.957	12.758	1313.497	1011.500
98.972	12.822	1312.449	1010.994
99.987	12.700	1311.560	1009.474
101.001	12.749	1310.836	1009.126
102.016	12.801	1309.678	1008.465
103.030	12.649	1308.978	1006.909
104.045	12.728	1307.581	1006.224
105.060	12.684	1306.468	1005.010
106.074	12.539	1305.125	1003.004
107.089	12.473	1303.920	1001.585
108.103	12.517	1302.172	1000.427
109.118	12.482	1301.054	999.263
110.133	12.535	1299.394	998.226
111.147	12.441	1298.556	996.921
112.162	12.580	1296.729	996.269
113.176	12.596	1295.515	995.346
114.191	12.551	1295.148	994.706
115.206	12.593	1293.466	993.577
116.220	12.539	1292.429	992.371
117.235	12.558	1291.274	991.508
118.249	12.567	1290.160	990.622
119.264	12.642	1288.831	989.965
120.279	12.543	1288.098	988.717
121.293	12.508	1287.247	987.769
122.308	12.467	1286.094	986.546
123.322	12.461	1284.954	985.548
124.337	12.442	1283.690	984.383
125.352	12.456	1282.773	983.676
126.366	12.464	1281.451	982.618
127.381	12.604	1280.447	982.600
128.395	12.526	1279.130	981.037
129.410	12.538	1278.678	980.677
130.424	12.548	1278.064	980.174
131.439	12.621	1276.670	979.454
132.454	12.667	1275.671	978.876
133.468	12.582	1275.463	978.126
134.483	12.675	1274.579	977.911
135.497	12.698	1273.433	977.081
136.512	12.638	1272.541	975.955
137.527	12.690	1271.018	975.010
138.541	12.715	1269.939	974.243
139.556	12.644	1268.756	972.830
140.570	12.799	1266.993	972.307
141.585	12.808	1266.041	971.547
142.600	12.758	1265.459	970.717
143.614	13.008	1264.208	971.142
144.629	12.848	1263.163	969.312
145.643	12.847	1261.767	968.152
146.658	12.869	1260.296	967.065
147.673	12.822	1258.726	965.500
148.687	12.776	1258.022	964.603
149.702	12.710	1256.440	962.922
150.716	12.568	1255.490	961.280
151.731	12.651	1253.733	960.333
152.746	12.750	1252.514	959.890
153.760	12.861	1251.008	959.296
154.775	12.798	1250.271	958.280
155.789	12.835	1249.247	957.624
156.804	12.802	1248.161	956.517
157.819	12.894	1246.986	956.065
158.833	12.978	1246.202	955.865
159.848	13.049	1245.011	955.282
160.862	12.954	1244.192	954.019
161.877	12.796	1243.415	952.423
162.892	12.749	1242.188	951.127
163.906	12.721	1241.295	950.196
164.921	12.774	1240.387	949.724
165.935	12.867	1239.135	949.215
166.950	12.847	1238.567	948.581
167.964	12.826	1238.438	948.282
168.979	12.820	1237.396	947.364
169.994	12.886	1236.474	946.955
171.008	12.862	1236.097	946.446
172.023	12.897	1234.938	945.672
173.037	12.932	1233.985	945.059
174.052	12.908	1233.205	944.243
175.067	12.947	1231.894	943.376
176.081	12.902	1230.845	942.230
177.096	12.873	1230.278	941.549
178.110	12.935	1229.027	940.862
179.125	13.038	1227.629	940.298
180.140	13.014	1226.631	939.310
181.154	12.981	1225.343	938.053
182.169	13.050	1224.434	937.666
183.183	12.994	1223.391	936.470
184.198	13.057	1222.107	935.762
185.213	13.148	1221.361	935.623
186.227	13.191	1219.905	934.666
187.242	13.103	1219.039	933.422
188.256	13.173	1218.010	932.950
189.271	13.132	1216.963	931.831
190.286	13.074	1216.166	930.814
191.300	12.883	1215.458	929.115
192.315	12.877	1214.407	928.191
193.329	12.965	1213.859	928.188
194.344	12.965	1213.035	927.475
195.359	13.094	1211.865	927.220
196.373	13.144	1211.905	927.449
197.388	13.179	1211.578	927.315
198.402	13.204	1211.316	927.175
199.417	13.333	1209.970	926.784
200.432	13.590	1208.664	927.142
201.446	13.399	1208.534	925.892
202.461	13.386	1207.514	924.954
203.475	13.489	1206.211	924.447
204.490	13.401	1205.559	923.374
205.504	13.475	1203.565	922.180
206.519	13.337	1202.748	920.704
207.534	13.320	1201.523	919.591
208.548	13.350	1200.591	918.960
209.563	13.334	1200.068	918.393
210.577	13.290	1199.086	917.314
211.592	13.392	1198.305	917.203
212.607	13.467	1197.456	916.886
213.621	13.503	1196.396	916.191
214.636	13.392	1196.029	915.216
215.650	13.556	1194.624	914.966
216.665	13.534	1193.528	913.925
217.680	13.606	1192.525	913.472
218.694	13.559	1192.102	912.808
219.709	13.618	1191.230	912.388
220.723	13.663	1190.060	911.658
221.738	13.570	1190.062	911.064
222.753	13.530	1189.050	909.988
223.767	13.546	1188.456	909.545
224.782	13.597	1187.600	909.085
225.796	13.687	1186.839	908.916
226.811	13.675	1185.856	908.019
227.826	13.683	1185.479	907.696
228.840	13.623	1184.933	906.869
229.855	13.631	1183.856	906.005
230.869	13.611	1183.248	905.352
231.884	13.618	1182.141	904.464
232.899	13.552	1181.664	903.658
233.913	13.544	1180.580	902.707
234.928	13.646	1179.468	902.332
235.942	13.687	1179.119	902.203
236.957	13.573	1178.199	900.801
237.972	13.635	1177.055	900.184
238.986	13.632	1176.642	899.771
240.001	13.776	1175.662	899.725
241.015	13.659	1174.786	898.341
242.030	13.670	1174.239	897.901
243.045	13.629	1173.888	897.331
244.059	13.788	1172.624	897.147
245.074	13.788	1172.207	896.749
246.088	13.733	1171.159	895.572
247.103	13.903	1170.378	895.811
248.117	13.887	1169.923	895.300
249.132	14.010	1169.167	895.305
250.147	14.125	1168.262	895.152
251.161	14.068	1167.958	894.528
252.176	14.153	1167.107	894.255
253.190	14.201	1166.444	893.925
254.205	14.181	1165.583	893.082
255.220	14.179	1165.380	892.833
256.234	14.216	1164.564	892.332
257.249	14.219	1163.973	891.813
258.263	14.227	1163.183	891.175
259.278	14.229	1162.193	890.345
260.293	14.188	1161.698	889.671
261.307	14.344	1161.211	890.053
262.322	14.421	1160.204	889.610
263.336	14.277	1159.973	888.589
264.351	14.399	1159.672	888.928
265.366	14.425	1158.876	888.377
266.380	14.376	1158.144	887.478
267.395	14.413	1157.171	886.848
268.409	14.349	1156.357	885.810
269.424	14.380	1155.824	885.486
270.439	14.317	1155.467	884.797
271.453	14.492	1154.039	884.557
272.468	14.297	1153.885	883.323
273.482	14.168	1153.278	882.099
274.497	14.332	1152.438	882.247
275.512	14.338	1151.740	881.664
276.526	14.386	1150.774	881.102
277.541	14.486	1149.675	880.712
278.555	14.446	1149.528	880.312
279.570	14.500	1148.530	879.755
280.585	14.564	1147.715	879.390
281.599	14.428	1146.960	878.012
282.614	14.484	1145.739	877.300
283.628	14.518	1144.610	876.535
284.643	14.482	1143.736	875.599
285.657	14.412	1143.060	874.635
286.672	14.459	1141.594	873.681
287.687	14.575	1140.879	873.666
288.701	14.637	1140.209	873.401
289.716	14.532	1139.710	872.392
290.730	14.619	1138.773	872.052
291.745	14.674	1138.350	871.935
292.760	14.728	1137.351	871.379
293.774	14.571	1137.434	870.546
294.789	14.691	1136.451	870.338
295.803	14.729	1135.408	869.663
296.818	14.739	1134.650	869.056
297.833	14.604	1134.511	868.172
298.847	14.639	1133.577	867.564
299.862	14.798	1132.310	867.340
300.876	14.662	1131.617	866.029
301.891	14.834	1131.154	866.490
302.906	14.869	1130.478	866.075
303.920	14.892	1129.650	865.483
304.935	14.917	1129.269	865.246
305.949	14.919	1128.541	864.619
306.964	15.006	1127.595	864.269
307.979	14.953	1126.711	863.242
308.993	14.939	1125.914	862.484
310.008	14.902	1125.503	861.900
311.022	14.952	1124.540	861.342
312.037	15.016	1123.668	860.928
313.052	15.003	1122.601	859.969
314.066	14.912	1121.939	858.918
315.081	14.854	1121.191	857.972
316.095	14.810	1120.591	857.211
317.110	14.834	1119.893	856.722
318.125	14.920	1118.556	856.064
319.139	14.866	1118.485	855.659
320.154	14.823	1117.345	854.492
321.168	14.906	1116.637	854.298
322.183	14.993	1116.269	854.387
323.197	15.015	1115.655	853.951
324.212	14.916	1115.008	852.878
325.227	14.981	1114.705	852.901
326.241	14.988	1114.104	852.400
327.256	15.034	1112.952	851.677
328.270	14.948	1112.139	850.544
329.285	14.985	1111.116	849.873
330.300	14.989	1110.396	849.268
331.314	15.040	1109.562	848.816
332.329	15.054	1108.406	847.923
333.343	15.024	1107.836	847.263
334.358	15.115	1106.707	846.783
335.373	15.219	1106.086	846.757
336.387	15.134	1105.587	845.872
337.402	15.133	1104.595	845.036
338.416	15.217	1103.683	844.684
339.431	15.159	1103.367	844.076
340.446	15.312	1102.458	844.076
341.460	15.304	1101.620	843.318
342.475	15.337	1100.998	842.933
343.489	15.417	1100.113	842.587
344.504	15.463	1099.149	842.003
345.519	15.413	1098.518	841.192
346.533	15.478	1097.334	840.538
347.548	15.610	1096.673	840.619
348.562	15.456	1096.437	839.594
349.577	15.468	1095.152	838.594
350.592	15.501	1094.036	837.829
351.606	15.347	1093.676	836.711
352.621	15.371	1093.023	836.258
353.635	15.362	1092.343	835.617
354.650	15.389	1091.691	835.184
355.665	15.503	1091.117	835.236
356.679	15.393	1090.339	834.019
357.694	15.378	1090.197	833.761
358.708	15.581	1089.141	833.886
359.723	15.557	1088.278	833.032
360.738	15.639	1087.582	832.833
361.752	15.613	1087.147	832.299
362.767	15.634	1086.613	831.922
363.781	15.744	1085.493	831.534
364.796	15.555	1085.826	830.778
365.810	15.672	1085.023	830.668
366.825	15.853	1084.294	830.934
367.840	15.868	1083.553	830.366
368.854	15.819	1083.335	829.883
369.869	15.930	1082.334	829.591
370.883	15.885	1081.048	828.309
371.898	15.789	1080.476	827.325
372.913	15.763	1080.037	826.786
373.927	15.730	1079.941	826.480
374.942	15.858	1079.338	826.573
375.956	15.891	1078.724	826.192
376.971	15.833	1077.652	825.013
377.986	15.934	1077.572	825.376
379.000	15.917	1076.985	824.770
380.015	15.964	1076.417	824.488
381.029	16.150	1075.159	824.361
382.044	16.177	1074.774	824.128
383.059	16.106	1074.104	823.191
384.073	16.124	1073.492	822.741
385.088	16.132	1072.524	821.963
386.102	16.094	1071.662	821.043
387.117	16.219	1070.060	820.351
388.132	16.011	1069.491	818.834
389.146	15.994	1069.138	818.407
390.161	16.018	1068.046	817.615
391.175	15.997	1067.447	816.984
392.190	16.015	1067.251	816.847
393.205	16.258	1066.086	817.059
394.219	16.066	1065.409	815.541
395.234	16.270	1064.051	815.417
396.248	16.177	1063.126	814.184
397.263	16.117	1062.254	813.156
398.278	16.010	1061.843	812.256
399.292	15.984	1061.232	811.590
400.307	15.969	1060.679	811.024
401.321	16.091	1059.918	810.956
402.336	16.034	1059.258	810.105
403.350	16.103	1058.060	809.449
404.365	16.210	1057.564	809.510
405.380	16.146	1057.048	808.736
406.394	16.120	1056.213	807.901
407.409	16.195	1055.630	807.742
408.423	16.239	1054.778	807.231
409.438	16.274	1053.941	806.686
410.453	16.452	1053.645	807.237
411.467	16.297	1052.766	805.755
412.482	16.444	1052.053	805.838
413.496	16.515	1051.474	805.659
414.511	16.675	1050.562	805.651
415.526	16.661	1050.229	805.260
416.540	16.685	1049.924	805.070
417.555	16.674	1049.294	804.460
418.569	16.597	1048.901	803.722
419.584	16.573	1048.311	803.084
420.599	16.602	1048.232	803.092
421.613	76.610	1281.437	1316.960
422.628	70.331	1315.382	1317.119
