DTS Sentinel unit serial number:	SN413079Multiplexer serial number:	ORYXHardware model number:	OX4-SRSoftware version number:	ORYX F/W v4.00 Oryx Data Collector v3.7.2.0data status	okinstallation	princeton_trtdifferential loss correction	single-endedforward channel	channel 2reverse channel	N/Adate	2019/09/17time	19:27:35forward acquisition time	60.00reverse acquisition time	0.00gamma	496.2192k internal	0.2323k external	0.2323temperature offset calibration	0.9988default loss term (dB/km)	0.3790temperature slope calibration	1.0000multiplexer offset coefficient	1.0000multiplexer slope coefficient	1.0000fibre end	0.00T internal ref (°C)	37.02T ext. ref 1 (°C)	0.25T ext. ref 2 (°C)	25.31length (m)	temperature (°C)	Stokes	anti-Stokes-747.200	-200.000	-0.035	-0.183
-746.185	-65.676	-0.307	0.124
-745.171	-111.545	0.072	0.015
-744.156	75.987	-0.329	0.351
-743.142	-156.627	-0.275	0.017
-742.127	-126.247	-0.326	-0.049
-741.112	-78.220	0.020	-0.007
-740.098	29.721	0.148	0.127
-739.083	94.193	0.178	-0.204
-738.069	-200.000	-0.005	0.161
-737.054	800.000	0.049	0.175
-736.039	41.156	-0.279	0.254
-735.025	-113.634	0.312	0.062
-734.010	-110.391	-0.076	-0.016
-732.996	54.903	0.019	0.019
-731.981	-200.000	0.018	0.259
-730.966	79.383	-0.067	-0.073
-729.952	-177.237	0.142	-0.004
-728.937	-152.905	-0.426	0.030
-727.923	12.611	-0.275	-0.214
-726.908	800.000	-0.076	0.218
-725.894	-122.067	-0.281	0.047
-724.879	-169.949	0.358	0.013
-723.864	35.182	-0.214	0.189
-722.850	134.978	-0.208	-0.272
-721.835	-16.900	-0.168	-0.107
-720.821	-172.372	0.101	-0.003
-719.806	-104.821	-0.096	-0.022
-718.791	-200.000	0.005	-0.231
-717.777	16.397	0.094	0.074
-716.762	800.000	0.042	-0.144
-715.748	79.810	0.108	-0.117
-714.733	-106.545	0.049	0.011
-713.718	143.077	0.041	0.055
-712.704	64.188	-0.179	-0.181
-711.689	221.641	-0.139	-0.225
-710.675	800.000	0.024	-0.071
-709.660	775.825	-0.055	0.153
-708.645	-200.000	0.018	-0.240
-707.631	-200.000	-0.034	-0.255
-706.616	-200.000	0.099	-0.540
-705.602	106.217	-0.104	0.124
-704.587	592.197	-0.092	-0.229
-703.572	-109.647	-0.235	0.050
-702.558	181.799	0.137	0.204
-701.543	-51.281	-0.068	-0.032
-700.529	-200.000	-0.024	-0.167
-699.514	-72.560	0.198	0.074
-698.499	-133.861	0.129	0.016
-697.485	-3.773	-0.210	-0.147
-696.470	-24.362	0.216	-0.130
-695.456	84.180	0.079	0.087
-694.441	126.884	-0.233	0.298
-693.426	652.810	0.141	-0.365
-692.412	800.000	-0.115	-0.360
-691.397	-200.000	-0.003	-0.167
-690.383	7.850	0.230	-0.174
-689.368	41.793	-0.216	-0.197
-688.354	-134.639	0.291	-0.036
-687.339	800.000	0.046	0.159
-686.324	378.822	-0.073	-0.150
-685.310	314.487	-0.024	-0.045
-684.295	-89.641	0.147	0.043
-683.281	-10.367	-0.159	-0.106
-682.266	-5.261	0.083	0.058
-681.251	-95.829	-0.135	0.036
-680.237	-200.000	0.011	-0.171
-679.222	-99.270	-0.132	0.034
-678.208	800.000	-0.048	0.153
-677.193	-200.000	0.055	-0.319
-676.178	-101.278	0.071	-0.017
-675.164	-200.000	0.004	0.032
-674.149	375.075	0.071	-0.146
-673.135	800.000	0.059	-0.259
-672.120	800.000	-0.101	0.374
-671.105	-200.000	0.027	0.265
-670.091	-18.223	-0.244	-0.154
-669.076	-49.724	0.221	-0.106
-668.062	235.627	0.166	-0.276
-667.047	-10.382	0.350	-0.233
-666.032	-47.669	-0.037	-0.018
-665.018	290.505	-0.074	0.136
-664.003	262.951	-0.114	-0.199
-662.989	558.853	0.056	-0.137
-661.974	51.847	0.080	-0.076
-660.959	-31.615	-0.331	0.187
-659.945	-167.855	0.367	-0.015
-658.930	-200.000	-0.020	0.576
-657.916	290.639	-0.187	0.342
-656.901	800.000	0.084	0.266
-655.886	450.770	-0.126	0.280
-654.872	-200.000	0.019	-0.126
-653.857	-163.871	-0.373	0.018
-652.843	-89.370	-0.176	0.052
-651.828	76.869	0.195	0.208
-650.814	508.155	-0.100	-0.235
-649.799	69.745	-0.118	0.122
-648.784	-45.770	0.112	0.056
-647.770	595.566	-0.092	-0.229
-646.755	12.793	-0.209	0.162
-645.741	800.000	0.092	0.377
-644.726	159.369	-0.047	0.066
-643.711	-200.000	0.010	0.102
-642.697	-132.658	0.181	0.023
-641.682	-34.316	0.029	-0.016
-640.668	-161.357	-0.066	0.003
-639.653	133.159	0.114	0.149
-638.638	-200.000	-0.007	-0.281
-637.624	-200.000	-0.009	-0.274
-636.609	23.140	-0.044	-0.036
-635.595	186.408	0.046	0.068
-634.580	-3.155	0.018	-0.012
-633.565	-42.144	0.473	0.243
-632.551	-41.405	-0.135	-0.070
-631.536	36.598	0.051	-0.045
-630.522	-200.000	0.056	-0.349
-629.507	-69.873	0.105	-0.040
-628.492	-36.347	0.122	0.066
-627.478	-100.169	-0.230	0.057
-626.463	29.572	-0.154	-0.132
-625.449	317.527	-0.145	-0.276
-624.434	69.370	0.123	-0.128
-623.419	-200.000	0.040	0.200
-622.405	26.367	0.321	-0.269
-621.390	-97.448	0.209	-0.055
-620.376	-200.000	0.013	-0.376
-619.361	-200.000	0.031	-0.409
-618.346	-114.773	0.400	0.077
-617.332	-200.000	-0.024	-0.108
-616.317	-82.673	-0.291	-0.095
-615.303	119.146	-0.179	0.223
-614.288	-200.000	-0.001	0.388
-613.273	-71.816	0.050	-0.019
-612.259	-78.398	-0.303	-0.104
-611.244	-156.875	0.293	-0.018
-610.230	800.000	-0.064	0.255
-609.215	539.550	-0.144	-0.345
-608.201	-79.055	0.182	0.062
-607.186	-30.343	0.159	0.091
-606.171	77.215	-0.351	-0.374
-605.157	20.068	0.134	-0.109
-604.142	-200.000	0.020	-0.365
-603.128	-200.000	-0.014	-0.170
-602.113	800.000	0.066	-0.231
-601.098	80.318	0.160	-0.173
-600.084	-52.768	0.510	0.236
-599.069	-128.443	-0.007	-0.001
-598.055	220.589	0.273	0.439
-597.040	-39.816	-0.103	-0.054
-596.025	641.713	-0.048	-0.123
-595.011	-200.000	0.000	0.030
-593.996	-98.527	0.056	0.014
-592.982	511.260	-0.125	0.292
-591.967	689.608	-0.086	0.226
-590.952	-200.000	-0.030	-0.267
-589.938	5.014	-0.050	0.037
-588.923	109.705	-0.137	0.165
-587.909	800.000	0.096	0.317
-586.894	7.541	-0.193	-0.145
-585.879	-21.504	0.211	0.129
-584.865	-46.914	0.198	0.097
-583.850	273.307	-0.046	-0.081
-582.836	-10.705	0.155	-0.103
-581.821	376.555	0.016	-0.034
-580.806	119.945	-0.097	0.121
-579.792	160.350	0.333	-0.465
-578.777	-200.000	-0.029	-0.000
-577.763	15.147	-0.260	-0.205
-576.748	8.862	-0.296	0.224
-575.733	160.203	0.202	0.283
-574.719	-200.000	-0.042	0.196
-573.704	-200.000	0.007	-0.243
-572.690	-16.094	0.209	-0.133
-571.675	-200.000	-0.015	0.131
-570.661	16.352	-0.294	-0.233
-569.646	800.000	-0.014	-0.061
-568.631	116.833	-0.281	0.346
-567.617	-200.000	0.007	-0.245
-566.602	-173.327	-0.131	-0.004
-565.588	8.431	-0.118	-0.089
-564.573	-200.000	0.003	0.057
-563.558	800.000	-0.031	0.133
-562.544	-200.000	-0.060	-0.347
-561.529	-91.267	0.128	-0.037
-560.515	-139.209	-0.176	0.019
-559.500	-60.560	-0.021	0.009
-558.485	800.000	-0.063	-0.210
-557.471	104.202	0.202	0.239
-556.456	408.177	-0.066	0.141
-555.442	46.511	-0.235	-0.219
-554.427	-79.357	0.048	0.016
-553.412	-71.478	0.155	0.058
-552.398	-103.588	0.207	-0.049
-551.383	-140.788	-0.178	0.018
-550.369	-138.892	-0.182	-0.020
-549.354	228.264	-0.069	-0.112
-548.339	-200.000	0.049	0.643
-547.325	-19.266	-0.189	0.118
-546.310	647.966	0.070	0.178
-545.296	4.680	-0.289	0.213
-544.281	800.000	-0.021	-0.083
-543.266	24.224	-0.329	0.273
-542.252	-200.000	-0.016	-0.112
-541.237	-200.000	-0.006	-0.133
-540.223	157.345	-0.111	0.154
-539.208	17.180	-0.078	-0.062
-538.193	-200.000	0.019	-0.421
-537.179	800.000	0.032	0.125
-536.164	-200.000	0.001	0.059
-535.150	-6.777	0.045	-0.031
-534.135	68.673	0.116	0.119
-533.121	-32.336	0.284	0.159
-532.106	-200.000	0.012	0.226
-531.091	-42.589	0.198	0.101
-530.077	665.127	-0.046	0.118
-529.062	800.000	-0.092	-0.305
-528.048	25.503	-0.386	-0.322
-527.033	-200.000	-0.024	0.219
-526.018	596.258	-0.090	0.223
-525.004	-144.662	0.233	0.022
-523.989	281.683	0.082	0.147
-522.975	120.671	-0.035	0.044
-521.960	-86.739	0.304	-0.093
-520.945	-115.022	-0.167	-0.032
-519.931	-200.000	0.036	-0.157
-518.916	-91.434	0.102	0.029
-517.902	-2.335	0.238	-0.167
-516.887	8.204	0.122	-0.091
-515.872	-124.772	-0.187	-0.029
-514.858	-122.412	-0.227	-0.037
-513.843	1.779	0.340	-0.245
-512.829	262.419	0.087	-0.151
-511.814	34.025	0.197	-0.172
-510.799	-123.175	-0.055	-0.009
-509.785	-106.626	-0.105	0.023
-508.770	493.204	-0.041	-0.094
-507.756	-77.528	0.241	-0.084
-506.741	112.858	-0.060	0.073
-505.726	-6.414	-0.266	0.182
-504.712	-134.345	0.202	-0.025
-503.697	415.138	-0.063	-0.134
-502.683	-62.405	-0.235	0.098
-501.668	-162.585	0.265	-0.013
-500.653	-200.000	0.003	0.194
-499.639	-200.000	-0.017	0.111
-498.624	-132.057	0.185	0.024
-497.610	-35.949	-0.119	0.064
-496.595	-14.902	0.165	-0.106
-495.581	-46.459	-0.234	0.115
-494.566	800.000	-0.083	0.364
-493.551	51.711	-0.044	0.042
-492.537	133.839	0.100	-0.130
-491.522	800.000	0.110	-0.344
-490.508	136.516	0.063	-0.082
-489.493	-200.000	-0.032	0.152
-488.478	-26.868	-0.094	-0.055
-487.464	-39.350	0.140	-0.074
-486.449	-23.039	0.199	0.120
-485.435	-188.709	-0.180	-0.002
-484.420	6.475	0.151	0.112
-483.405	322.242	0.155	-0.295
-482.391	-97.908	-0.129	-0.033
-481.376	800.000	-0.049	-0.213
-480.362	-200.000	-0.022	0.117
-479.347	-67.884	0.081	-0.032
-478.332	-129.974	0.141	0.019
-477.318	-135.195	0.152	0.018
-476.303	262.708	-0.123	0.213
-475.289	-200.000	0.002	-0.112
-474.274	29.321	0.192	0.163
-473.259	-108.456	0.103	0.022
-472.245	-87.527	-0.349	0.106
-471.230	800.000	0.080	-0.314
-470.216	800.000	-0.098	0.409
-469.201	387.668	0.075	-0.154
-468.186	527.945	-0.136	-0.319
-467.172	-24.053	-0.078	0.047
-466.157	800.000	-0.044	-0.124
-465.143	-79.114	-0.330	0.112
-464.128	800.000	-0.054	-0.156
-463.113	183.641	-0.129	-0.190
-462.099	315.897	-0.097	0.183
-461.084	45.533	0.056	0.052
-460.070	800.000	0.043	0.155
-459.055	-31.107	0.245	0.138
-458.040	-200.000	-0.008	-0.261
-457.026	-100.828	0.236	0.058
-456.011	123.496	0.219	0.275
-454.997	-164.054	0.016	0.001
-453.982	-86.780	0.233	0.071
-452.968	-120.804	0.127	0.021
-451.953	800.000	0.046	-0.135
-450.938	-56.575	0.118	-0.052
-449.924	-200.000	0.021	-0.188
-448.909	-200.000	0.033	0.186
-447.895	-97.247	0.109	0.028
-446.880	-198.166	-0.354	-0.002
-445.865	-104.342	-0.290	-0.067
-444.851	-124.511	-0.229	-0.036
-443.836	376.828	0.025	-0.050
-442.822	11.510	0.117	-0.089
-441.807	-200.000	-0.044	-0.211
-440.792	-7.067	0.283	0.191
-439.778	-200.000	-0.008	0.153
-438.763	8.547	-0.226	-0.170
-437.749	461.070	0.029	-0.064
-436.734	165.000	0.101	-0.142
-435.719	-21.234	-0.056	-0.034
-434.705	-200.000	0.000	0.104
-433.690	-97.918	0.142	0.037
-432.676	-107.855	-0.374	-0.081
-431.661	-32.617	-0.269	0.150
-430.646	-200.000	-0.009	0.082
-429.632	503.218	0.089	0.206
-428.617	-26.255	0.321	-0.188
-427.603	-79.313	0.061	-0.020
-426.588	-200.000	-0.040	0.262
-425.573	347.815	0.170	0.334
-424.559	-88.418	-0.346	-0.103
-423.544	-84.218	-0.023	-0.007
-422.530	148.674	-0.137	0.185
-421.515	-115.643	-0.189	-0.035
-420.500	800.000	0.035	-0.110
-419.486	-164.446	-0.245	0.011
-418.471	-147.070	0.172	-0.015
-417.457	800.000	-0.049	-0.140
-416.442	-62.388	0.118	-0.049
-415.428	-90.842	0.168	-0.048
-414.413	89.129	0.026	0.029
-413.398	-30.711	-0.105	-0.059
-412.384	7.836	-0.045	0.034
-411.369	2.427	-0.193	-0.139
-410.355	-200.000	-0.030	-0.292
-409.340	-87.573	-0.261	-0.078
-408.325	-31.767	-0.367	-0.205
-407.311	-24.871	-0.092	-0.055
-406.296	33.765	-0.260	-0.225
-405.282	-42.962	0.344	0.174
-404.267	-200.000	-0.020	-0.195
-403.252	735.085	-0.023	-0.061
-402.238	-70.429	-0.160	-0.060
-401.223	800.000	-0.058	-0.171
-400.209	65.498	-0.057	-0.058
-399.194	-200.000	0.016	-0.160
-398.179	241.963	-0.231	0.384
-397.165	26.270	0.323	0.269
-396.150	800.000	0.021	0.070
-395.136	48.039	-0.139	0.130
-394.121	-200.000	0.009	-0.154
-393.106	721.208	-0.215	0.568
-392.092	-160.090	-0.298	-0.016
-391.077	-178.518	-0.077	-0.002
-390.063	-168.439	0.296	0.011
-389.048	81.791	0.104	0.112
-388.033	-45.142	0.373	-0.185
-387.019	19.775	0.069	-0.055
-386.004	512.266	-0.230	-0.532
-384.990	268.671	0.128	-0.223
-383.975	-200.000	0.042	0.360
-382.960	-31.685	0.125	0.070
-381.946	57.808	0.099	0.097
-380.931	295.064	0.127	-0.231
-379.917	-59.149	0.197	0.085
-378.902	173.745	0.075	0.108
-377.888	-44.700	0.187	-0.093
-376.873	563.587	-0.127	0.307
-375.858	202.770	-0.160	0.246
-374.844	-200.000	0.001	0.297
-373.829	-37.488	0.243	0.129
-372.815	81.549	-0.111	0.120
-371.800	-200.000	-0.001	-0.212
-370.785	-200.000	-0.006	-0.115
-369.771	-200.000	0.030	-0.336
-368.756	-120.242	0.249	-0.042
-367.742	800.000	-0.045	-0.130
-366.727	375.277	-0.029	-0.059
-365.712	-47.333	0.211	-0.102
-364.698	-200.000	-0.030	0.131
-363.683	-109.248	-0.101	-0.021
-362.669	-53.071	0.199	-0.091
-361.654	800.000	0.071	-0.239
-360.639	-64.427	0.110	0.044
-359.625	800.000	0.037	-0.157
-358.610	9.263	0.400	-0.300
-357.596	125.452	-0.090	-0.113
-356.581	-52.964	-0.191	-0.087
-355.566	-200.000	-0.004	0.213
-354.552	-190.315	0.123	0.001
-353.537	120.550	-0.090	0.112
-352.523	50.048	-0.277	0.260
-351.508	-137.088	0.265	-0.030
-350.493	-52.561	-0.060	0.027
-349.479	-200.000	-0.041	-0.447
-348.464	800.000	0.016	0.066
-347.450	-108.955	-0.205	-0.043
-346.435	-191.255	0.160	-0.002
-345.420	-129.326	-0.288	-0.040
-344.406	-200.000	-0.005	-0.125
-343.391	-21.836	-0.123	-0.074
-342.377	90.303	0.137	-0.153
-341.362	779.540	-0.008	0.021
-340.348	60.989	0.168	0.166
-339.333	190.430	-0.211	0.315
-338.318	-33.998	-0.347	-0.190
-337.304	295.301	0.074	0.134
-336.289	99.379	-0.208	-0.239
-335.275	-71.011	-0.172	-0.064
-334.260	-23.169	0.154	-0.092
-333.245	-34.096	-0.132	-0.072
-332.231	-70.372	0.138	-0.052
-331.216	-200.000	-0.030	-0.401
-330.202	800.000	-0.071	-0.264
-329.187	-77.489	-0.194	0.067
-328.172	-45.138	-0.084	-0.041
-327.158	-151.185	0.215	0.016
-326.143	97.841	-0.194	0.221
-325.129	-101.634	-0.262	0.063
-324.114	39.019	0.039	0.034
-323.099	-200.000	0.016	0.101
-322.085	166.110	0.108	-0.152
-321.070	-200.000	-0.150	-0.001
-320.056	800.000	-0.136	0.492
-319.041	-153.185	0.228	0.016
-318.026	-178.362	-0.269	0.006
-317.012	-200.000	-0.007	0.063
-315.997	4.000	-0.145	0.105
-314.983	231.012	0.204	0.332
-313.968	800.000	0.064	-0.188
-312.953	-49.238	-0.338	-0.161
-311.939	4.880	-0.113	0.082
-310.924	-200.000	-0.011	0.124
-309.910	62.407	-0.135	0.134
-308.895	-14.490	-0.248	-0.158
-307.880	-200.000	-0.048	-0.233
-306.866	-69.070	0.086	-0.033
-305.851	144.307	0.140	-0.185
-304.837	-200.000	0.007	0.130
-303.822	12.095	0.184	-0.140
-302.807	-94.966	0.136	0.037
-301.793	800.000	0.134	0.406
-300.778	20.204	-0.028	-0.023
-299.764	132.917	0.176	0.226
-298.749	76.887	0.071	-0.074
-297.735	390.539	-0.168	-0.345
-296.720	-200.000	-0.007	-0.035
-295.705	26.767	-0.132	-0.110
-294.691	-200.000	0.014	0.268
-293.676	-200.000	-0.015	0.181
-292.662	-88.987	0.028	-0.008
-291.647	800.000	-0.115	0.342
-290.632	-32.533	-0.215	-0.119
-289.618	-21.575	-0.054	-0.033
-288.603	190.111	-0.110	0.163
-287.589	242.822	-0.109	0.182
-286.574	-200.000	-0.072	0.322
-285.559	800.000	-0.051	0.184
-284.545	-79.286	-0.242	0.081
-283.530	800.000	-0.072	-0.300
-282.516	-200.000	-0.066	-0.395
-281.501	327.157	0.242	-0.460
-280.486	2.880	-0.218	-0.157
-279.472	211.997	0.140	0.219
-278.457	456.844	-0.131	0.289
-277.443	-56.650	0.157	0.069
-276.428	-200.000	0.009	0.000
-275.413	800.000	0.084	0.266
-274.399	-200.000	-0.001	0.220
-273.384	49.352	-0.145	-0.135
-272.370	-88.835	0.552	0.162
-271.355	-187.058	-0.065	-0.001
-270.340	-58.665	-0.148	0.064
-269.326	-92.481	0.166	0.046
-268.311	-200.000	-0.013	0.298
-267.297	297.896	-0.102	0.185
-266.282	800.000	-0.062	0.214
-265.267	-200.000	-0.002	0.023
-264.253	323.612	0.053	0.099
-263.238	-26.296	-0.272	0.158
-262.224	10.564	-0.238	0.180
-261.209	21.433	0.129	-0.104
-260.195	285.287	0.095	0.170
-259.180	-81.513	-0.059	-0.019
-258.165	-43.547	-0.158	-0.079
-257.151	-108.466	0.106	-0.023
-256.136	195.955	0.170	0.256
-255.122	-77.888	0.176	-0.060
-254.107	560.471	-0.115	0.276
-253.092	240.051	0.005	-0.008
-252.078	152.671	-0.112	0.151
-251.063	-120.856	0.398	0.066
-250.049	249.783	-0.194	0.326
-249.034	-144.846	0.157	0.014
-248.019	257.209	0.124	0.211
-247.005	53.727	-0.111	0.106
-245.990	221.398	0.236	0.376
-244.976	133.020	0.044	-0.056
-243.961	800.000	0.069	0.263
-242.946	800.000	0.094	0.329
-241.932	-200.000	0.017	0.142
-240.917	10.461	0.078	-0.059
-239.903	333.958	0.009	-0.016
-238.888	-23.723	-0.206	0.122
-237.873	-109.018	0.170	0.036
-236.859	86.456	-0.158	-0.172
-235.844	283.299	-0.109	-0.194
-234.830	-37.201	-0.221	-0.117
-233.815	10.050	0.107	0.080
-232.800	595.145	0.200	-0.490
-231.786	-125.015	0.236	0.036
-230.771	-115.886	-0.376	-0.070
-229.757	-200.000	0.003	-0.265
-228.742	419.551	0.131	0.277
-227.727	189.659	0.033	0.049
-226.713	-200.000	-0.028	-0.200
-225.698	-200.000	0.005	0.207
-224.684	-101.671	-0.123	-0.030
-223.669	2.838	-0.083	0.060
-222.655	-152.227	0.506	-0.036
-221.640	309.033	0.161	0.297
-220.625	-200.000	-0.019	0.274
-219.611	119.234	-0.205	-0.251
-218.596	256.181	-0.069	0.118
-217.582	-101.440	-0.254	-0.061
-216.567	133.226	-0.140	-0.179
-215.552	131.707	0.082	0.104
-214.538	55.449	0.381	0.364
-213.523	-66.040	-0.077	-0.031
-212.509	-88.094	0.147	-0.043
-211.494	-200.000	-0.042	0.357
-210.479	-200.000	0.010	-0.168
-209.465	-200.000	0.005	0.060
-208.450	-105.440	-0.095	0.021
-207.436	527.209	-0.175	0.408
-206.421	-14.893	-0.251	0.160
-205.406	736.054	-0.027	-0.072
-204.392	800.000	-0.036	0.107
-203.377	-200.000	0.071	-0.333
-202.363	800.000	-0.090	-0.249
-201.348	14.016	0.237	0.183
-200.333	224.631	-0.076	0.121
-199.319	-76.238	-0.132	0.046
-198.304	800.000	-0.075	0.228
-197.290	124.677	0.177	-0.220
-196.275	-200.000	0.006	0.036
-195.260	-200.000	-0.015	-0.313
-194.246	64.981	-0.149	-0.149
-193.231	-166.147	0.233	-0.010
-192.217	-101.816	0.146	-0.035
-191.202	6.681	0.200	0.147
-190.187	-147.148	-0.320	0.027
-189.173	-85.729	-0.084	0.026
-188.158	800.000	-0.066	-0.221
-187.144	-60.751	0.200	0.084
-186.129	-60.008	0.140	-0.059
-185.114	19.056	-0.151	-0.119
-184.100	398.146	-0.118	-0.244
-183.085	-95.372	0.176	0.047
-182.071	-155.694	-0.398	-0.025
-181.056	80.115	0.177	0.188
-180.042	176.647	0.055	-0.078
-179.027	678.670	0.113	-0.289
-178.012	-200.000	0.087	0.409
-176.998	58.635	0.150	0.145
-175.983	145.852	-0.155	0.205
-174.969	20.488	-0.211	-0.169
-173.954	55.019	0.088	-0.084
-172.939	-200.000	-0.023	-0.306
-171.925	344.445	0.123	-0.238
-170.910	-10.693	0.358	-0.234
-169.896	48.912	-0.308	-0.285
-168.881	-52.311	0.139	-0.063
-167.866	-200.000	0.028	0.197
-166.852	244.305	-0.060	-0.100
-165.837	-4.328	-0.165	-0.112
-164.823	800.000	-0.071	-0.245
-163.808	-0.515	-0.064	-0.045
-162.793	-89.020	-0.266	0.078
-161.779	323.779	-0.040	0.075
-160.764	-57.222	0.417	0.181
-159.750	-121.522	0.288	-0.047
-158.735	-1.345	0.136	-0.095
-157.720	102.769	0.159	-0.184
-156.706	-111.090	0.366	-0.074
-155.691	-200.000	-0.001	-0.119
-154.677	401.925	-0.064	0.133
-153.662	-200.000	-0.085	-0.523
-152.647	146.269	0.144	-0.191
-151.633	-200.000	-0.010	-0.139
-150.618	-131.462	0.145	-0.019
-149.604	200.511	0.121	-0.184
-148.589	-19.452	0.076	0.046
-147.574	800.000	-0.092	0.282
-146.560	261.871	0.058	-0.100
-145.545	-92.306	-0.250	-0.070
-144.531	800.000	0.030	0.126
-143.516	253.935	0.190	-0.321
-142.502	-200.000	-0.001	-0.180
-141.487	-78.745	-0.337	0.113
-140.472	84.330	0.170	0.183
-139.458	-139.718	0.202	0.021
-138.443	457.225	0.087	-0.191
-137.429	-3.108	-0.173	0.119
-136.414	800.000	-0.055	-0.167
-135.399	-138.994	0.118	-0.013
-134.385	-200.000	0.022	0.108
-133.370	573.486	0.063	-0.150
-132.356	271.425	-0.156	-0.271
-131.341	17.387	0.398	0.312
-130.326	800.000	-0.056	-0.196
-129.312	113.139	0.119	0.142
-128.297	294.039	0.219	-0.395
-127.283	-30.778	-0.204	0.114
-126.268	-200.000	0.007	0.286
-125.253	-87.923	-0.353	0.105
-124.239	-102.559	-0.248	0.058
-123.224	148.113	-0.228	-0.303
-122.210	-0.557	-0.322	-0.225
-121.195	164.383	0.110	0.153
-120.180	-66.904	-0.235	-0.091
-119.166	208.788	-0.169	0.260
-118.151	614.691	-0.058	0.143
-117.137	-99.940	0.194	-0.048
-116.122	22.547	0.152	0.122
-115.107	580.319	0.088	-0.211
-114.093	38.565	0.113	0.099
-113.078	42.672	-0.046	0.041
-112.064	255.379	0.191	0.322
-111.049	141.822	0.106	0.138
-110.034	139.637	0.221	-0.287
-109.020	-165.656	-0.177	0.008
-108.005	148.645	-0.179	0.239
-106.991	-63.171	-0.244	-0.099
-105.976	599.524	-0.072	0.175
-104.962	26.218	0.301	0.247
-103.947	800.000	0.076	0.213
-102.932	124.416	-0.088	-0.109
-101.918	674.833	-0.086	-0.220
-100.903	-65.373	0.239	0.095
-99.889	335.234	-0.075	-0.144
-98.874	-23.940	-0.300	0.177
-97.859	800.000	-0.087	-0.263
-96.845	29.175	-0.172	-0.144
-95.830	300.394	0.013	0.023
-94.816	-200.000	0.021	0.222
-93.801	-93.659	-0.175	0.047
-92.786	-121.698	-0.397	0.065
-91.772	-154.388	-0.240	-0.016
-90.757	-46.042	-0.028	0.014
-89.743	375.266	0.208	-0.417
-88.728	21.053	0.068	-0.054
-87.713	59.137	0.082	0.080
-86.699	800.000	-0.131	0.375
-85.684	-115.623	0.288	-0.053
-84.670	-200.000	-0.030	0.225
-83.655	48.108	0.194	0.179
-82.640	-130.621	-0.187	-0.025
-81.626	800.000	0.083	-0.312
-80.611	-73.465	0.135	0.049
-79.597	254.335	0.066	-0.112
-78.582	-47.941	-0.098	0.047
-77.567	-102.537	0.171	0.040
-76.553	-39.421	-0.132	-0.068
-75.538	-73.841	-0.139	-0.050
-74.524	-11.023	0.226	0.146
-73.509	16.631	0.074	0.057
-72.494	-180.871	0.343	0.007
-71.480	695.901	0.044	-0.113
-70.465	-70.898	0.109	0.040
-69.451	-60.747	-0.126	0.053
-68.436	-81.605	-0.192	0.062
-67.422	-129.030	-0.192	0.026
-66.407	43.619	0.097	-0.087
-65.392	232.314	-0.038	-0.062
-64.378	-200.000	-0.015	0.102
-63.363	425.519	0.141	-0.299
-62.349	163.087	-0.195	-0.270
-61.334	91.165	-0.810	-0.894
-60.319	29.257	0.508	0.424
-59.305	392.105	-0.218	-0.445
-58.290	800.000	0.310	0.986
-57.276	613.645	0.591	1.454
-56.261	-200.000	95.038	553.579
-55.246	533.741	1388.857	3234.430
-54.232	153.296	2589.471	3483.881
-53.217	110.708	2306.212	2726.887
-52.203	46.877	1923.686	1757.546
-51.188	40.449	1712.663	1515.737
-50.173	37.493	1668.094	1454.175
-49.159	53.779	1715.859	1619.644
-48.144	57.342	1733.643	1663.356
-47.130	39.960	1690.159	1491.895
-46.115	37.132	1675.207	1457.434
-45.100	36.914	1670.348	1451.513
-44.086	36.864	1667.648	1448.736
-43.071	36.869	1664.799	1446.239
-42.057	36.848	1662.719	1444.217
-41.042	36.817	1660.559	1442.055
-40.027	36.861	1658.886	1440.869
-39.013	36.873	1657.271	1439.504
-37.998	36.848	1655.520	1437.737
-36.984	36.878	1653.859	1436.463
-35.969	36.999	1652.247	1435.898
-34.954	37.028	1650.935	1434.918
-33.940	37.015	1648.962	1433.051
-32.925	37.096	1646.846	1431.755
-31.911	37.044	1645.432	1430.084
-30.896	36.958	1643.935	1428.087
-29.881	37.065	1641.934	1427.084
-28.867	36.978	1640.466	1425.112
-27.852	37.104	1638.735	1424.476
-26.838	37.017	1637.423	1422.637
-25.823	37.043	1636.017	1421.554
-24.809	36.972	1634.636	1419.777
-23.794	36.993	1633.154	1418.589
-22.779	37.119	1631.239	1417.791
-21.765	37.058	1629.971	1416.182
-20.750	36.997	1628.561	1414.460
-19.736	37.071	1627.246	1413.796
-18.721	37.120	1625.537	1412.615
-17.706	37.057	1624.233	1410.966
-16.692	36.985	1622.979	1409.298
-15.677	36.981	1621.315	1407.770
-14.663	37.021	1620.248	1407.075
-13.648	36.933	1619.220	1405.491
-12.633	37.035	1616.902	1404.161
-11.619	37.107	1615.099	1403.059
-10.604	37.023	1614.293	1401.695
-9.590	37.029	1612.717	1400.314
-8.575	37.064	1611.198	1399.198
-7.560	37.136	1609.668	1398.326
-6.546	37.064	1608.923	1397.104
-5.531	37.078	1607.753	1396.139
-4.517	37.100	1606.719	1395.339
-3.502	37.043	1605.747	1394.035
-2.487	37.143	1603.888	1393.078
-1.473	36.230	1590.915	1375.252
-0.458	31.323	1566.542	1319.577
0.556	23.640	1561.149	1264.070
1.571	19.760	1580.936	1251.943
2.586	18.502	1592.622	1251.905
3.600	16.589	1541.206	1197.846
4.615	9.579	1433.929	1068.045
5.629	2.028	1367.944	970.905
6.644	0.388	1358.568	953.797
7.659	0.166	1357.382	951.476
8.673	0.232	1356.083	950.898
9.688	0.203	1354.587	949.581
10.702	-0.021	1351.636	946.020
11.717	3.220	1356.764	969.972
12.731	11.137	1368.969	1028.788
13.746	16.470	1376.109	1067.836
14.761	17.202	1375.816	1072.136
15.775	16.349	1373.152	1064.590
16.790	15.340	1370.617	1056.176
17.804	14.597	1368.380	1049.687
18.819	14.166	1366.971	1045.809
19.834	13.867	1365.616	1042.802
20.848	13.587	1364.452	1040.059
21.863	13.416	1363.374	1038.078
22.877	13.297	1361.856	1036.082
23.892	13.214	1360.687	1034.582
24.907	13.159	1360.704	1034.161
25.921	13.202	1359.316	1033.278
26.936	13.203	1358.766	1032.779
27.950	13.332	1357.271	1032.353
28.965	13.337	1356.533	1031.735
29.980	13.377	1355.621	1031.197
30.994	13.361	1355.088	1030.603
32.009	13.473	1353.659	1030.121
33.023	13.477	1352.193	1028.940
34.038	13.381	1351.725	1027.894
35.053	13.382	1350.529	1026.903
36.067	13.412	1349.332	1026.086
37.082	13.424	1348.244	1025.243
38.096	13.398	1347.262	1024.243
39.111	13.298	1347.084	1023.402
40.126	13.276	1345.843	1022.229
41.140	13.321	1344.538	1021.427
42.155	13.147	1344.997	1020.609
43.169	13.228	1344.158	1020.382
44.184	13.187	1344.102	1019.997
45.199	13.213	1343.394	1019.528
46.213	13.262	1343.095	1019.513
47.228	13.293	1341.819	1018.648
48.242	13.312	1340.562	1017.718
49.257	13.315	1339.310	1016.696
50.271	13.355	1337.910	1015.793
51.286	13.242	1336.814	1014.177
52.301	13.269	1335.769	1013.458
53.315	13.276	1334.169	1012.195
54.330	13.212	1333.197	1010.981
55.344	13.256	1332.631	1010.730
56.359	13.216	1331.278	1009.370
57.374	13.207	1330.871	1008.919
58.388	13.170	1329.845	1007.821
59.403	13.147	1329.279	1007.165
60.417	13.261	1328.033	1006.826
61.432	13.106	1327.497	1005.384
62.447	13.047	1326.923	1004.502
63.461	13.172	1325.334	1003.970
64.476	13.059	1324.487	1002.557
65.490	13.109	1323.345	1001.907
66.505	13.052	1322.029	1000.474
67.520	13.110	1320.222	999.371
68.534	13.115	1319.426	998.708
69.549	13.280	1318.217	998.700
70.563	13.121	1317.715	997.277
71.578	13.104	1316.261	995.982
72.593	13.095	1315.164	995.013
73.607	13.102	1314.530	994.485
74.622	13.060	1313.450	993.330
75.636	13.164	1312.634	993.247
76.651	13.073	1311.887	992.047
77.666	13.088	1311.749	991.944
78.680	13.065	1311.176	991.286
79.695	13.090	1310.110	990.543
80.709	13.113	1309.568	990.182
81.724	13.041	1309.145	989.344
82.739	13.150	1307.723	988.834
83.753	13.183	1306.887	988.313
84.768	13.262	1305.620	987.736
85.782	13.456	1304.060	987.629
86.797	13.243	1303.255	985.659
87.812	13.212	1302.248	984.629
88.826	13.205	1300.974	983.538
89.841	13.290	1299.864	983.116
90.855	13.376	1298.559	982.549
91.870	13.224	1298.243	981.324
92.884	13.269	1297.263	980.761
93.899	13.431	1295.739	980.483
94.914	13.359	1295.485	979.779
95.928	13.335	1294.750	978.994
96.943	13.427	1293.889	978.800
97.957	13.284	1293.385	977.488
98.972	13.355	1292.184	976.911
99.987	13.381	1290.885	975.999
101.001	13.346	1290.053	975.077
102.016	13.402	1288.934	974.471
103.030	13.385	1287.903	973.509
104.045	13.295	1287.374	972.493
105.060	13.262	1286.353	971.439
106.074	13.225	1284.985	970.105
107.089	13.179	1283.537	968.654
108.103	13.163	1282.665	967.816
109.118	13.185	1281.276	966.814
110.133	13.138	1279.545	965.147
111.147	13.186	1278.691	964.697
112.162	13.207	1277.570	963.889
113.176	13.295	1276.203	963.286
114.191	13.244	1275.659	962.495
115.206	13.236	1274.184	961.251
116.220	13.161	1273.154	959.950
117.235	13.174	1272.238	959.253
118.249	13.217	1271.354	958.748
119.264	13.232	1270.170	957.857
120.279	13.341	1268.620	957.235
121.293	13.240	1268.434	956.426
122.308	13.194	1267.108	955.077
123.322	13.224	1266.124	954.421
124.337	13.212	1264.779	953.256
125.352	13.216	1263.617	952.320
126.366	13.160	1262.757	951.264
127.381	13.184	1261.754	950.559
128.395	13.300	1260.259	950.017
129.410	13.267	1259.400	949.099
130.424	13.271	1258.833	948.605
131.439	13.314	1257.973	948.125
132.454	13.332	1256.722	947.198
133.468	13.298	1256.329	946.624
134.483	13.305	1255.202	945.733
135.497	13.301	1254.218	944.882
136.512	13.385	1252.621	944.076
137.527	13.325	1251.581	942.866
138.541	13.289	1250.279	941.598
139.556	13.349	1248.620	940.606
140.570	13.387	1248.134	940.371
141.585	13.352	1246.865	939.136
142.600	13.352	1245.459	937.991
143.614	13.488	1244.460	937.925
144.629	13.403	1243.634	936.739
145.643	13.426	1242.329	935.808
146.658	13.444	1241.213	934.984
147.673	13.331	1239.905	933.278
148.687	13.388	1238.744	932.643
149.702	13.374	1237.235	931.348
150.716	13.367	1235.785	930.131
151.731	13.259	1234.866	928.749
152.746	13.337	1233.563	928.125
153.760	13.353	1232.549	927.374
154.775	13.414	1230.667	926.215
155.789	13.502	1229.914	926.059
156.804	13.445	1229.263	925.168
157.819	13.466	1227.800	924.101
158.833	13.585	1226.945	924.040
159.848	13.611	1226.354	923.661
160.862	13.547	1225.179	922.334
161.877	13.617	1223.630	921.479
162.892	13.441	1223.358	920.209
163.906	13.504	1222.066	919.510
164.921	13.486	1221.007	918.529
165.935	13.477	1220.338	917.894
166.950	13.569	1219.192	917.462
167.964	13.522	1218.745	916.787
168.979	13.511	1217.741	915.886
169.994	13.495	1217.443	915.494
171.008	13.538	1216.353	914.829
172.023	13.628	1215.448	914.565
173.037	13.674	1214.769	914.229
174.052	13.653	1214.163	913.573
175.067	13.581	1212.982	912.212
176.081	13.572	1211.925	911.281
177.096	13.547	1211.190	910.515
178.110	13.599	1210.165	909.949
179.125	13.700	1208.531	909.194
180.140	13.603	1207.206	907.582
181.154	13.685	1206.366	907.323
182.169	13.769	1205.138	906.776
183.183	13.751	1203.894	905.662
184.198	13.647	1202.873	904.249
185.213	13.709	1201.712	903.630
186.227	13.830	1200.374	903.205
187.242	13.815	1199.551	902.425
188.256	13.858	1198.547	901.824
189.271	13.844	1197.737	901.059
190.286	13.778	1196.618	899.775
191.300	13.675	1195.662	898.423
192.315	13.548	1194.974	897.135
193.329	13.682	1194.225	897.219
194.344	13.709	1193.888	897.031
195.359	13.817	1193.094	896.940
196.373	13.823	1192.520	896.463
197.388	13.928	1192.244	896.744
198.402	13.871	1192.049	896.208
199.417	13.903	1191.353	895.777
200.432	13.947	1190.049	894.958
201.446	14.059	1189.370	894.972
202.461	14.006	1188.440	893.904
203.475	14.063	1187.422	893.366
204.490	13.895	1186.722	891.858
205.504	13.985	1185.261	891.163
206.519	14.031	1183.524	890.027
207.534	13.959	1183.234	889.346
208.548	14.062	1181.995	888.883
209.563	14.046	1181.381	888.258
210.577	13.997	1180.445	887.217
211.592	14.008	1179.882	886.771
212.607	14.175	1178.518	886.559
213.621	14.157	1177.643	885.728
214.636	14.125	1177.204	885.146
215.650	14.076	1176.192	884.047
216.665	14.177	1175.088	883.676
217.680	14.203	1174.173	883.050
218.694	14.169	1173.628	882.380
219.709	14.301	1172.277	881.984
220.723	14.328	1171.584	881.530
221.738	14.238	1171.465	880.884
222.753	14.321	1170.553	880.561
223.767	14.343	1169.428	879.753
224.782	14.296	1169.415	879.418
225.796	14.392	1168.486	879.145
226.811	14.275	1167.861	877.981
227.826	14.429	1166.943	878.023
228.840	14.305	1166.460	876.932
229.855	14.425	1165.574	876.820
230.869	14.393	1164.999	876.139
231.884	14.399	1163.715	875.130
232.899	14.333	1163.324	874.408
233.913	14.267	1162.599	873.440
234.928	14.340	1161.943	873.254
235.942	14.310	1161.050	872.346
236.957	14.435	1159.997	872.131
237.972	14.476	1159.501	871.899
238.986	14.358	1159.044	870.863
240.001	14.291	1158.586	870.092
241.015	14.427	1157.307	869.763
242.030	14.482	1156.477	869.346
243.045	14.379	1155.979	868.358
244.059	14.334	1155.227	867.486
245.074	14.515	1154.206	867.582
246.088	14.495	1153.829	867.116
247.103	14.572	1152.523	866.462
248.117	14.607	1151.726	865.966
249.132	14.514	1151.869	865.514
250.147	14.775	1150.233	865.559
251.161	14.763	1149.528	864.892
252.176	14.794	1149.016	864.590
253.190	14.647	1148.763	863.560
254.205	14.815	1147.639	863.508
255.220	14.810	1147.227	863.097
256.234	14.791	1146.807	862.607
257.249	14.886	1145.812	862.269
258.263	14.811	1144.992	861.189
259.278	14.884	1144.560	861.167
260.293	14.859	1144.699	861.064
261.307	14.996	1143.567	860.845
262.322	14.972	1142.851	860.103
263.336	14.933	1141.992	859.183
264.351	15.040	1141.707	859.439
265.366	15.023	1140.917	858.681
266.380	15.094	1140.365	858.553
267.395	15.074	1139.125	857.445
268.409	15.067	1138.685	856.998
269.424	15.072	1137.933	856.382
270.439	15.057	1137.427	855.849
271.453	15.078	1136.842	855.440
272.468	15.076	1135.449	854.310
273.482	14.960	1135.240	853.483
274.497	15.071	1134.630	853.515
275.512	15.076	1133.891	852.908
276.526	15.104	1133.065	852.358
277.541	15.109	1132.402	851.807
278.555	15.074	1131.795	851.098
279.570	15.125	1130.798	850.530
280.585	15.231	1130.134	850.496
281.599	15.183	1129.186	849.459
282.614	15.169	1128.282	848.637
283.628	15.200	1127.564	848.179
284.643	15.253	1126.186	847.333
285.657	15.191	1125.511	846.437
286.672	15.319	1124.520	846.263
287.687	15.221	1123.949	845.265
288.701	15.242	1123.259	844.778
289.716	15.293	1122.261	844.208
290.730	15.389	1121.201	843.819
291.745	15.377	1120.598	843.231
292.760	15.401	1119.733	842.628
293.774	15.373	1119.915	842.547
294.789	15.365	1119.111	841.827
295.803	15.479	1118.348	841.749
296.818	15.378	1117.767	840.735
297.833	15.486	1116.523	840.265
298.847	15.419	1115.613	839.168
299.862	15.470	1115.097	838.963
300.876	15.346	1114.901	838.120
301.891	15.427	1113.949	837.736
302.906	15.590	1113.116	837.846
303.920	15.496	1112.281	836.675
304.935	15.600	1111.944	836.866
305.949	15.561	1111.577	836.324
306.964	15.606	1110.816	835.900
307.979	15.701	1109.939	835.638
308.993	15.659	1109.046	834.682
310.008	15.688	1108.318	834.204
311.022	15.753	1107.480	833.820
312.037	15.699	1106.625	832.841
313.052	15.673	1105.815	832.025
314.066	15.605	1104.946	830.962
315.081	15.666	1104.288	830.695
316.095	15.592	1103.490	829.655
317.110	15.529	1103.091	828.969
318.125	15.514	1102.345	828.265
319.139	15.613	1101.769	828.246
320.154	15.729	1100.833	828.038
321.168	15.688	1100.043	827.172
322.183	15.700	1099.496	826.746
323.197	15.714	1098.858	826.259
324.212	15.783	1097.808	825.739
325.227	15.745	1097.558	825.290
326.241	15.643	1097.300	824.520
327.256	15.721	1096.371	824.135
328.270	15.752	1095.260	823.377
329.285	15.687	1094.510	822.422
330.300	15.781	1093.569	822.104
331.314	15.706	1092.658	820.978
332.329	15.861	1091.390	820.708
333.343	15.790	1090.928	819.944
334.358	15.949	1090.125	820.041
335.373	15.926	1089.314	819.248
336.387	15.921	1088.426	818.481
337.402	15.957	1087.961	818.235
338.416	15.971	1087.139	817.610
339.431	16.012	1086.449	817.220
340.446	15.969	1085.950	816.565
341.460	16.050	1085.070	816.222
342.475	16.069	1084.494	815.809
343.489	16.102	1083.742	815.328
344.504	16.177	1082.551	814.726
345.519	16.190	1081.714	814.085
346.533	16.152	1080.970	813.269
347.548	16.261	1080.134	813.092
348.562	16.214	1079.102	812.016
349.577	16.162	1078.545	811.276
350.592	16.134	1078.113	810.745
351.606	16.110	1076.999	809.722
352.621	16.183	1076.472	809.603
353.635	16.217	1075.497	808.964
354.650	16.208	1074.904	808.402
355.665	16.135	1074.534	807.701
356.679	16.239	1074.071	807.780
357.694	16.338	1073.218	807.541
358.708	16.324	1072.423	806.803
359.723	16.235	1072.103	806.068
360.738	16.327	1071.143	805.712
361.752	16.206	1070.889	804.874
362.767	16.262	1070.467	804.754
363.781	16.402	1069.544	804.655
364.796	16.295	1069.315	803.901
365.810	16.401	1068.423	803.666
366.825	16.508	1067.949	803.746
367.840	16.537	1067.384	803.387
368.854	16.497	1066.790	802.677
369.869	16.500	1065.804	801.879
370.883	16.549	1064.873	801.339
371.898	16.500	1064.529	800.777
372.913	16.477	1063.865	800.100
373.927	16.548	1063.586	800.152
374.942	16.621	1062.931	799.936
375.956	16.579	1062.123	799.058
376.971	16.610	1061.960	799.011
377.986	16.649	1060.952	798.367
379.000	16.670	1060.675	798.187
380.015	16.715	1060.129	797.916
381.029	16.729	1059.144	797.169
382.044	16.719	1058.731	796.741
383.059	16.663	1058.207	796.013
384.073	16.861	1056.974	795.946
385.088	16.710	1056.191	794.578
386.102	16.762	1055.554	794.270
387.117	16.871	1054.046	793.576
388.132	16.748	1053.304	792.373
389.146	16.764	1052.536	791.799
390.161	16.775	1051.749	791.191
391.175	16.761	1051.014	790.499
392.190	16.722	1050.808	790.096
393.205	16.815	1049.932	789.799
394.219	16.883	1048.873	789.247
395.234	16.841	1048.528	788.722
396.248	16.876	1047.416	787.979
397.263	16.723	1046.773	786.714
398.278	16.872	1045.595	786.454
399.292	16.858	1045.270	786.076
400.307	16.843	1044.845	785.615
401.321	16.843	1044.013	784.919
402.336	16.851	1043.060	784.172
403.350	16.916	1042.242	783.789
404.365	16.889	1041.786	783.248
405.380	16.949	1041.309	783.097
406.394	17.072	1040.147	782.722
407.409	17.003	1039.633	781.949
408.423	17.023	1039.164	781.620
409.438	17.195	1038.184	781.605
410.453	17.101	1037.475	780.571
411.467	17.201	1036.671	780.356
412.482	17.218	1036.161	779.979
413.496	17.154	1035.669	779.248
414.511	17.262	1034.888	779.084
415.526	17.306	1033.958	778.516
416.540	17.232	1034.084	778.204
417.555	17.259	1033.400	777.744
418.569	17.216	1033.173	777.309
419.584	17.402	1032.424	777.527
420.599	17.351	1031.999	776.903
421.613	98.872	1311.865	1435.815
422.628	90.580	1352.611	1435.944
