DTS Sentinel unit serial number:	SN413079Multiplexer serial number:	ORYXHardware model number:	OX4-SRSoftware version number:	ORYX F/W v4.00 Oryx Data Collector v3.7.2.0data status	okinstallation	princeton_trtdifferential loss correction	single-endedforward channel	channel 2reverse channel	N/Adate	2019/09/13time	00:55:35forward acquisition time	60.00reverse acquisition time	0.00gamma	496.2192k internal	0.2333k external	0.2333temperature offset calibration	1.0159default loss term (dB/km)	0.3790temperature slope calibration	1.0000multiplexer offset coefficient	1.0000multiplexer slope coefficient	1.0000fibre end	0.00T internal ref (°C)	28.11T ext. ref 1 (°C)	3.65T ext. ref 2 (°C)	22.65length (m)	temperature (°C)	Stokes	anti-Stokes-747.200	409.932	-0.186	0.396
-746.185	-36.434	0.268	0.145
-745.171	424.544	-0.037	-0.079
-744.156	602.548	-0.071	-0.179
-743.142	-142.879	0.101	-0.010
-742.127	-89.206	0.053	0.016
-741.112	-47.583	0.356	-0.174
-740.098	-200.000	-0.031	0.177
-739.083	-46.746	0.130	0.064
-738.069	-160.359	0.179	0.010
-737.054	800.000	0.094	-0.351
-736.039	-111.762	-0.296	-0.060
-735.025	-80.266	-0.062	-0.021
-734.010	-114.492	-0.185	0.036
-732.996	-200.000	-0.033	0.203
-731.981	-200.000	-0.002	-0.166
-730.966	-108.068	-0.291	-0.063
-729.952	328.556	-0.067	0.130
-728.937	-159.423	-0.096	0.005
-727.923	-110.677	0.109	0.023
-726.908	243.756	-0.184	-0.310
-725.894	10.529	-0.005	-0.004
-724.879	48.258	0.092	0.086
-723.864	-76.335	-0.116	0.041
-722.850	-139.101	0.112	-0.012
-721.835	-200.000	-0.047	-0.443
-720.821	182.321	-0.186	0.275
-719.806	-89.756	-0.179	0.053
-718.791	119.166	-0.240	-0.298
-717.777	54.719	-0.246	0.238
-716.762	-200.000	-0.033	-0.224
-715.748	800.000	-0.042	-0.165
-714.733	-120.604	-0.100	0.017
-713.718	-200.000	-0.020	0.149
-712.704	98.703	-0.103	0.120
-711.689	-50.008	-0.119	0.057
-710.675	113.060	-0.149	0.182
-709.660	-89.831	-0.138	0.041
-708.645	34.672	-0.173	-0.152
-707.631	800.000	0.077	-0.334
-706.616	-200.000	0.019	-0.356
-705.602	147.672	0.236	-0.319
-704.587	-200.000	-0.028	-0.374
-703.572	-64.781	-0.239	0.097
-702.558	374.226	0.178	0.365
-701.543	800.000	-0.182	-0.545
-700.529	-200.000	0.012	0.172
-699.514	182.278	-0.191	-0.282
-698.499	-95.777	-0.391	0.105
-697.485	75.715	0.197	0.209
-696.470	-116.944	-0.406	-0.074
-695.456	800.000	0.030	-0.083
-694.441	-102.976	-0.170	0.041
-693.426	800.000	0.007	-0.028
-692.412	17.125	-0.121	-0.096
-691.397	314.233	0.043	0.080
-690.383	206.966	0.151	0.236
-689.368	-182.213	0.065	0.001
-688.354	-91.591	-0.182	-0.052
-687.339	84.610	0.075	-0.082
-686.324	-56.603	0.177	-0.079
-685.310	-93.995	-0.083	0.023
-684.295	417.794	0.030	-0.064
-683.281	175.175	-0.151	-0.219
-682.266	-154.089	-0.321	0.022
-681.251	-53.063	-0.172	0.079
-680.237	800.000	0.057	-0.240
-679.222	-200.000	0.002	0.333
-678.208	-140.304	0.174	0.018
-677.193	-41.389	0.128	-0.066
-676.178	47.910	-0.204	-0.191
-675.164	102.960	0.183	-0.215
-674.149	-165.612	0.198	0.009
-673.135	-165.752	0.373	-0.016
-672.120	10.140	-0.265	0.202
-671.105	-200.000	0.000	-0.045
-670.091	140.965	-0.167	0.221
-669.076	-200.000	-0.064	-0.301
-668.062	-200.000	0.005	-0.117
-667.047	-200.000	0.003	0.061
-666.032	-4.409	-0.361	-0.250
-665.018	-200.000	0.043	0.221
-664.003	378.995	-0.130	-0.266
-662.989	8.931	0.309	-0.234
-661.974	-200.000	0.037	0.293
-660.959	349.835	0.114	-0.226
-659.945	232.044	-0.072	0.118
-658.930	-0.409	-0.101	-0.072
-657.916	-200.000	0.051	-0.281
-656.901	-69.557	0.225	-0.086
-655.886	-200.000	-0.012	-0.083
-654.872	-135.068	0.053	-0.006
-653.857	-200.000	0.003	-0.060
-652.843	-69.409	0.109	-0.042
-651.828	-200.000	0.008	-0.095
-650.814	800.000	-0.071	-0.273
-649.799	800.000	0.069	0.271
-648.784	-97.969	-0.214	0.055
-647.770	-22.641	0.196	0.119
-646.755	5.409	-0.176	-0.130
-645.741	120.953	-0.094	-0.117
-644.726	-122.646	0.272	-0.044
-643.711	-200.000	-0.054	-0.304
-642.697	-102.295	0.263	0.063
-641.682	-55.802	-0.160	-0.071
-640.668	-200.000	-0.002	-0.046
-639.653	-79.427	-0.052	-0.017
-638.638	2.292	0.349	-0.252
-637.624	140.082	0.117	0.154
-636.609	34.084	-0.112	0.098
-635.595	78.642	-0.219	-0.235
-634.580	0.919	-0.188	-0.135
-633.565	-98.471	0.241	-0.062
-632.551	144.940	-0.108	-0.144
-631.536	353.022	-0.058	-0.114
-630.522	-17.279	0.096	-0.061
-629.507	-125.273	0.139	-0.021
-628.492	-99.801	0.134	-0.034
-627.478	-109.864	0.096	-0.020
-626.463	-54.042	0.264	-0.120
-625.449	800.000	0.085	-0.327
-624.434	62.799	-0.239	-0.240
-623.419	800.000	-0.103	0.296
-622.405	-200.000	0.021	-0.146
-621.390	-200.000	0.025	-0.345
-620.376	-200.000	0.007	-0.195
-619.361	275.480	0.078	0.138
-618.346	-70.057	-0.254	-0.097
-617.332	800.000	0.052	-0.210
-616.317	270.000	-0.056	-0.099
-615.303	-200.000	-0.001	-0.158
-614.288	-135.069	-0.393	-0.047
-613.273	-200.000	0.019	-0.146
-612.259	-200.000	0.014	0.063
-611.244	-200.000	-0.002	-0.266
-610.230	12.492	-0.016	0.012
-609.215	-200.000	0.019	-0.260
-608.201	55.390	0.022	0.021
-607.186	-183.735	-0.081	0.001
-606.171	596.262	0.053	-0.130
-605.157	-132.865	0.297	0.038
-604.142	65.792	0.167	0.170
-603.128	9.171	0.172	-0.130
-602.113	-47.662	-0.167	-0.081
-601.098	156.258	-0.070	-0.097
-600.084	24.316	-0.139	-0.115
-599.069	23.772	-0.193	0.159
-598.055	-135.905	0.236	0.028
-597.040	-158.836	-0.099	0.006
-596.025	9.356	0.147	-0.111
-595.011	-1.667	0.040	0.028
-593.996	800.000	-0.020	-0.059
-592.982	197.095	0.188	-0.287
-591.967	1.651	-0.035	0.025
-590.952	-200.000	-0.048	0.278
-589.938	666.820	0.134	-0.347
-588.923	50.366	0.105	0.099
-587.909	48.455	-0.131	0.123
-586.894	131.833	-0.060	-0.077
-585.879	-98.539	-0.320	-0.082
-584.865	-8.738	-0.190	-0.127
-583.850	-24.703	0.133	-0.079
-582.836	30.935	-0.124	-0.106
-581.821	524.435	0.026	-0.061
-580.806	-200.000	0.035	0.271
-579.792	-200.000	0.038	0.186
-578.777	-200.000	0.016	0.198
-577.763	-136.572	0.159	0.018
-576.748	483.179	0.089	0.203
-575.733	-200.000	0.015	0.163
-574.719	-71.765	0.501	-0.187
-573.704	252.611	-0.117	0.199
-572.690	-3.171	0.112	-0.078
-571.675	-100.186	0.323	-0.080
-570.661	800.000	-0.145	-0.479
-569.646	-86.640	-0.180	0.055
-568.631	-22.106	0.160	0.097
-567.617	-62.461	0.097	-0.040
-566.602	-200.000	-0.013	-0.177
-565.588	-55.285	-0.297	-0.133
-564.573	-57.581	0.296	0.130
-563.558	-0.557	-0.195	0.138
-562.544	-200.000	-0.038	-0.323
-561.529	384.339	0.120	-0.246
-560.515	-200.000	0.046	0.253
-559.500	148.853	-0.085	0.115
-558.485	800.000	0.013	-0.049
-557.471	-61.816	0.193	-0.081
-556.456	-40.084	0.147	-0.077
-555.442	-200.000	0.021	0.226
-554.427	-13.071	-0.251	0.163
-553.412	800.000	-0.024	0.104
-552.398	495.703	0.108	-0.247
-551.383	-78.182	-0.283	0.097
-550.369	-115.937	0.090	0.017
-549.354	33.443	-0.076	-0.066
-548.339	125.179	-0.084	0.105
-547.325	48.377	-0.327	-0.305
-546.310	102.280	0.285	-0.332
-545.296	-200.000	-0.016	-0.206
-544.281	-83.321	-0.344	0.110
-543.266	-200.000	0.034	0.381
-542.252	427.871	0.067	-0.144
-541.237	-141.083	-0.266	-0.027
-540.223	17.631	0.166	-0.132
-539.208	-89.415	-0.268	-0.079
-538.193	-21.836	0.122	-0.074
-537.179	428.649	0.091	-0.195
-536.164	-195.931	-0.162	-0.001
-535.150	33.182	0.257	-0.222
-534.135	257.551	0.107	0.183
-533.121	-200.000	-0.043	0.239
-532.106	800.000	0.026	-0.079
-531.091	-200.000	0.058	0.388
-530.077	-200.000	-0.031	0.165
-529.062	-155.898	0.295	0.019
-528.048	193.188	0.055	0.083
-527.033	-37.859	0.114	0.061
-526.018	-116.694	0.063	-0.012
-525.004	8.892	-0.156	-0.117
-523.989	-64.194	0.105	0.043
-522.975	440.947	0.103	0.225
-521.960	30.917	0.037	0.031
-520.945	96.445	-0.183	0.209
-519.931	109.373	-0.187	-0.223
-518.916	55.730	-0.211	0.204
-517.902	-132.442	-0.155	0.020
-516.887	-200.000	-0.035	0.406
-515.872	108.274	0.296	-0.352
-514.858	0.001	-0.121	-0.086
-513.843	63.135	-0.163	-0.162
-512.829	492.677	0.033	-0.076
-511.814	124.753	0.077	0.096
-510.799	-109.268	-0.208	-0.044
-509.785	-200.000	0.002	-0.107
-508.770	128.944	-0.226	-0.287
-507.756	258.198	-0.154	0.265
-506.741	800.000	0.086	0.307
-505.726	4.690	-0.083	0.060
-504.712	166.426	-0.317	0.447
-503.697	379.476	0.134	0.274
-502.683	800.000	0.036	0.131
-501.668	800.000	-0.037	-0.145
-500.653	263.871	0.044	-0.077
-499.639	-131.522	0.226	-0.030
-498.624	800.000	-0.020	-0.068
-497.610	-80.214	0.249	-0.083
-496.595	-37.207	0.149	0.079
-495.581	-200.000	0.009	-0.430
-494.566	260.147	0.139	0.239
-493.551	-107.267	-0.183	0.040
-492.537	-50.988	-0.260	0.122
-491.522	-115.492	-0.380	0.071
-490.508	312.283	-0.048	0.090
-489.493	-9.928	-0.268	0.177
-488.478	-153.660	-0.223	0.015
-487.464	-42.745	-0.334	0.169
-486.449	125.065	-0.120	0.151
-485.435	112.832	-0.056	-0.067
-484.420	-110.690	0.217	0.045
-483.405	-145.903	0.121	0.011
-482.391	-119.676	-0.303	0.052
-481.376	-200.000	0.003	0.211
-480.362	800.000	0.012	-0.050
-479.347	-172.738	-0.297	0.009
-478.332	-200.000	-0.007	0.290
-477.318	-55.386	0.285	0.127
-476.303	-35.286	-0.233	-0.126
-475.289	670.529	-0.095	-0.245
-474.274	-121.888	-0.240	0.039
-473.259	657.598	-0.038	-0.096
-472.245	55.270	-0.343	0.330
-471.230	-19.477	-0.303	-0.187
-470.216	-200.000	0.006	0.074
-469.201	553.644	-0.080	-0.192
-468.186	-146.358	0.167	0.015
-467.172	158.770	0.103	0.142
-466.157	-200.000	-0.026	-0.240
-465.143	339.821	-0.033	-0.064
-464.128	95.396	-0.142	-0.161
-463.113	112.047	-0.176	0.212
-462.099	-57.021	0.562	-0.247
-461.084	-200.000	0.033	0.215
-460.070	-200.000	-0.064	-0.293
-459.055	-1.731	0.112	-0.078
-458.040	-62.244	0.259	0.107
-457.026	191.348	0.153	0.230
-456.011	105.387	-0.193	-0.227
-454.997	216.016	-0.039	0.061
-453.982	-7.575	0.400	-0.269
-452.968	-21.081	0.190	0.116
-451.953	-114.248	0.404	0.077
-450.938	-71.935	-0.147	-0.054
-449.924	-200.000	0.038	0.201
-448.909	47.002	-0.330	0.305
-447.895	-50.299	0.421	0.198
-446.880	-159.949	-0.201	-0.011
-445.865	541.828	0.056	0.134
-444.851	-200.000	-0.008	-0.201
-443.836	-108.802	-0.193	0.041
-442.822	-3.106	0.240	-0.166
-441.807	485.489	-0.125	0.282
-440.792	432.330	0.118	0.253
-439.778	197.462	0.201	-0.305
-438.763	11.152	-0.097	0.074
-437.749	-200.000	-0.011	0.210
-436.734	82.554	0.021	-0.023
-435.719	-55.979	-0.331	0.147
-434.705	375.920	-0.118	0.239
-433.690	402.736	0.168	-0.351
-432.676	-125.867	-0.095	0.014
-431.661	-130.536	0.182	-0.024
-430.646	800.000	0.096	0.391
-429.632	113.219	0.049	0.060
-428.617	-200.000	0.029	-0.352
-427.603	90.869	0.088	0.098
-426.588	-76.852	0.215	-0.075
-425.573	-200.000	-0.187	-0.001
-424.559	-100.975	-0.087	-0.021
-423.544	-75.119	-0.097	0.035
-422.530	-175.595	0.183	0.005
-421.515	-143.494	-0.203	-0.019
-420.500	609.453	-0.017	-0.042
-419.486	-23.040	0.337	-0.202
-418.471	-75.567	-0.300	0.106
-417.457	800.000	0.047	-0.132
-416.442	59.888	0.091	0.089
-415.428	-200.000	0.019	-0.311
-414.413	-144.976	0.185	0.017
-413.398	15.330	0.211	-0.164
-412.384	1.904	0.134	-0.096
-411.369	-173.276	-0.097	-0.003
-410.355	36.385	-0.245	0.215
-409.340	656.539	-0.015	0.037
-408.325	-200.000	-0.015	-0.210
-407.311	43.697	-0.087	0.079
-406.296	-122.550	-0.198	0.032
-405.282	-72.442	0.299	-0.110
-404.267	-105.017	0.273	-0.062
-403.252	640.805	-0.071	0.180
-402.238	800.000	0.067	0.214
-401.223	28.896	-0.096	0.080
-400.209	-29.513	0.124	0.070
-399.194	-104.985	0.160	-0.036
-398.179	85.171	0.149	-0.162
-397.165	12.520	-0.231	-0.177
-396.150	151.612	-0.170	-0.230
-395.136	800.000	-0.055	-0.212
-394.121	-200.000	-0.014	0.150
-393.106	800.000	-0.078	-0.241
-392.092	139.066	-0.164	0.214
-391.077	8.434	0.101	-0.075
-390.063	-107.340	0.275	-0.060
-389.048	-55.112	0.340	-0.152
-388.033	-200.000	0.041	0.179
-387.019	-200.000	-0.070	0.323
-386.004	128.726	0.092	-0.116
-384.990	90.099	0.091	-0.101
-383.975	800.000	0.068	0.195
-382.960	103.930	-0.203	-0.236
-381.946	-160.086	0.203	-0.011
-380.931	-108.475	0.314	-0.067
-379.917	99.569	-0.182	0.209
-378.902	800.000	-0.021	0.081
-377.888	202.575	-0.138	-0.212
-376.873	-108.124	0.276	0.059
-375.858	-74.149	-0.184	-0.066
-374.844	-119.673	0.219	0.038
-373.829	-167.364	-0.254	0.010
-372.815	-149.466	0.174	0.014
-371.800	277.854	0.048	-0.084
-370.785	-200.000	-0.021	-0.148
-369.771	719.465	-0.026	0.068
-368.756	61.992	0.178	0.175
-367.742	800.000	0.048	0.144
-366.727	-88.022	-0.400	0.119
-365.712	-200.000	0.046	-0.366
-364.698	30.808	-0.198	-0.168
-363.683	-1.660	-0.103	-0.072
-362.669	-89.672	0.198	0.058
-361.654	-200.000	-0.030	-0.387
-360.639	-49.795	-0.064	0.030
-359.625	-99.648	-0.169	-0.042
-358.610	84.743	0.195	0.211
-357.596	800.000	0.071	-0.263
-356.581	-48.268	-0.078	0.037
-355.566	160.039	0.269	0.371
-354.552	-94.859	-0.164	-0.044
-353.537	-200.000	0.000	0.282
-352.523	800.000	0.090	-0.287
-351.508	-180.400	-0.340	0.007
-350.493	279.786	-0.112	-0.198
-349.479	-106.458	-0.217	-0.048
-348.464	2.523	-0.190	-0.136
-347.450	-200.000	-0.009	0.339
-346.435	800.000	-0.034	-0.096
-345.420	82.146	-0.230	0.247
-344.406	26.904	0.105	-0.087
-343.391	800.000	0.102	-0.292
-342.377	-87.282	0.335	0.101
-341.362	-146.855	0.099	-0.008
-340.348	-103.706	0.156	-0.036
-339.333	197.800	-0.091	-0.137
-338.318	-200.000	-0.003	0.082
-337.304	233.360	0.079	-0.128
-336.289	-27.755	0.067	-0.038
-335.275	-200.000	-0.010	0.060
-334.260	126.728	-0.068	-0.085
-333.245	252.496	-0.034	0.057
-332.231	51.252	0.239	-0.225
-331.216	-85.166	0.117	0.036
-330.202	-194.730	0.369	0.003
-329.187	-200.000	0.013	0.304
-328.172	800.000	-0.023	-0.096
-327.158	-56.632	0.219	0.096
-326.143	115.102	0.112	0.136
-325.129	198.966	0.081	0.123
-324.114	109.999	-0.101	-0.120
-323.099	-26.544	-0.036	-0.021
-322.085	-151.586	-0.248	0.018
-321.070	-146.700	-0.174	-0.015
-320.056	-65.020	0.388	-0.155
-319.041	-200.000	0.005	0.400
-318.026	800.000	0.089	0.351
-317.012	23.628	0.176	0.143
-315.997	0.261	0.287	0.202
-314.983	79.459	-0.091	-0.096
-313.968	108.867	-0.207	0.244
-312.953	41.674	0.383	0.343
-311.939	-200.000	0.031	0.212
-310.924	-64.431	-0.053	-0.021
-309.910	-32.531	0.020	-0.011
-308.895	-117.709	0.282	-0.050
-307.880	260.790	0.226	-0.387
-306.866	-30.324	0.069	0.039
-305.851	-49.050	-0.411	0.194
-304.837	-85.914	-0.195	-0.060
-303.822	-200.000	0.098	0.459
-302.807	-200.000	0.028	0.162
-301.793	-200.000	0.012	0.096
-300.778	800.000	0.108	-0.455
-299.764	183.262	0.038	0.056
-298.749	87.422	0.141	0.154
-297.735	800.000	-0.104	-0.299
-296.720	800.000	-0.130	-0.499
-295.705	15.763	-0.137	-0.107
-294.691	-56.686	0.167	0.073
-293.676	-200.000	-0.015	-0.136
-292.662	-158.717	0.346	0.020
-291.647	27.744	0.123	-0.102
-290.632	-5.300	-0.255	0.173
-289.618	800.000	-0.010	-0.031
-288.603	800.000	0.016	-0.053
-287.589	-200.000	0.007	-0.163
-286.574	-88.003	0.246	0.073
-285.559	800.000	0.059	0.161
-284.545	-41.666	-0.111	0.057
-283.530	-200.000	0.044	-0.306
-282.516	800.000	0.046	-0.179
-281.501	800.000	0.061	0.177
-280.486	33.192	0.035	0.030
-279.472	-5.884	-0.018	-0.012
-278.457	-12.595	0.208	0.134
-277.443	-200.000	-0.011	-0.121
-276.428	25.100	-0.047	0.039
-275.413	-58.248	-0.160	0.069
-274.399	3.074	0.139	-0.100
-273.384	454.956	0.067	0.147
-272.370	-127.539	-0.031	-0.004
-271.355	-10.951	0.082	-0.054
-270.340	-97.237	0.150	0.039
-269.326	-148.474	-0.288	-0.023
-268.311	-200.000	-0.023	-0.267
-267.297	17.471	0.296	-0.232
-266.282	-98.874	0.450	-0.113
-265.267	800.000	-0.081	0.273
-264.253	27.946	-0.266	0.221
-263.238	-70.149	0.407	0.153
-262.224	348.412	0.082	-0.160
-261.209	-200.000	0.061	0.268
-260.195	244.628	0.113	0.188
-259.180	-200.000	0.010	0.247
-258.165	80.207	0.199	-0.211
-257.151	-90.236	-0.177	0.051
-256.136	324.908	0.147	-0.278
-255.122	-101.831	0.255	-0.061
-254.107	800.000	-0.025	-0.093
-253.092	360.892	-0.136	-0.269
-252.078	-87.959	-0.039	0.011
-251.063	-200.000	-0.017	0.240
-250.049	800.000	-0.054	-0.172
-249.034	361.837	0.123	-0.244
-248.019	-146.325	0.336	-0.029
-247.005	67.553	-0.304	0.306
-245.990	518.900	-0.050	0.116
-244.976	127.386	-0.075	-0.094
-243.961	-58.164	-0.065	-0.028
-242.946	45.196	-0.095	-0.086
-241.932	-65.811	-0.103	0.041
-240.917	-124.200	-0.456	-0.070
-239.903	-0.828	-0.079	0.055
-238.888	376.048	0.127	-0.255
-237.873	86.590	0.221	0.240
-236.859	11.002	0.189	0.143
-235.844	515.865	0.101	0.233
-234.830	192.212	0.021	0.031
-233.815	261.344	0.023	-0.039
-232.800	225.450	0.120	0.191
-231.786	-200.000	-0.005	0.139
-230.771	-200.000	-0.020	-0.162
-229.757	-200.000	-0.026	-0.404
-228.742	-75.019	-0.067	-0.024
-227.727	-34.195	-0.092	0.050
-226.713	-46.244	0.095	-0.046
-225.698	-101.413	0.124	0.030
-224.684	-125.064	-0.192	0.029
-223.669	-49.335	-0.194	0.091
-222.655	27.346	-0.169	0.140
-221.640	-69.254	-0.284	0.108
-220.625	-150.432	-0.116	0.009
-219.611	-130.097	-0.042	-0.006
-218.596	751.376	-0.166	0.442
-217.582	314.582	0.234	0.434
-216.567	44.482	0.261	0.237
-215.552	-152.073	-0.343	-0.025
-214.538	477.719	0.061	0.136
-213.523	31.670	-0.178	-0.151
-212.509	115.462	-0.166	-0.200
-211.494	-47.460	-0.325	-0.155
-210.479	754.074	-0.036	0.095
-209.465	800.000	0.022	-0.066
-208.450	-200.000	0.006	-0.146
-207.436	-21.547	-0.151	0.090
-206.421	104.466	0.192	-0.223
-205.406	-200.000	0.030	-0.163
-204.392	-112.460	0.163	-0.032
-203.377	-200.000	-0.026	-0.381
-202.363	-35.589	-0.299	-0.160
-201.348	32.635	-0.126	-0.108
-200.333	-146.108	0.158	0.014
-199.319	-200.000	0.003	0.292
-198.304	125.984	-0.004	-0.005
-197.290	-49.833	-0.062	-0.029
-196.275	58.249	-0.268	0.258
-195.260	7.423	-0.274	-0.201
-194.246	-200.000	0.010	0.072
-193.231	-140.136	-0.213	-0.022
-192.217	-75.796	0.147	-0.051
-191.202	800.000	0.063	-0.187
-190.187	81.267	-0.173	0.183
-189.173	800.000	-0.054	0.198
-188.158	26.110	-0.149	-0.122
-187.144	800.000	-0.057	0.218
-186.129	-29.811	-0.324	0.182
-185.114	164.266	0.288	0.400
-184.100	-71.199	-0.246	0.091
-183.085	-102.236	-0.304	-0.072
-182.071	359.624	0.213	0.419
-181.056	100.716	0.105	-0.120
-180.042	129.315	-0.216	-0.271
-179.027	-128.764	-0.258	-0.036
-178.012	800.000	-0.030	-0.113
-176.998	-200.000	0.041	-0.285
-175.983	800.000	0.018	-0.063
-174.969	800.000	0.025	-0.083
-173.954	-80.061	0.178	-0.059
-172.939	800.000	-0.030	0.127
-171.925	-25.779	0.207	0.120
-170.910	401.961	0.114	0.236
-169.896	-50.167	0.339	-0.158
-168.881	-149.880	-0.176	0.014
-167.866	73.435	0.126	-0.130
-166.852	-98.527	-0.220	-0.055
-165.837	30.024	0.026	0.022
-164.823	-18.866	-0.232	-0.142
-163.808	257.822	0.045	0.076
-162.793	172.387	0.189	0.267
-161.779	800.000	-0.055	-0.224
-160.764	800.000	-0.057	0.164
-159.750	230.419	0.041	-0.066
-158.735	-200.000	0.046	0.229
-157.720	800.000	-0.096	0.286
-156.706	283.406	-0.104	0.183
-155.691	800.000	-0.077	0.302
-154.677	800.000	-0.072	0.213
-153.662	56.642	-0.241	-0.230
-152.647	154.768	-0.188	0.253
-151.633	628.097	-0.025	-0.063
-150.618	98.276	-0.202	-0.228
-149.604	-18.283	-0.277	-0.170
-148.589	-57.114	0.182	0.079
-147.574	-1.581	-0.272	-0.189
-146.560	800.000	-0.052	-0.154
-145.545	-149.666	0.266	-0.021
-144.531	-46.928	0.188	-0.090
-143.516	148.946	-0.090	-0.119
-142.502	-19.504	-0.145	-0.088
-141.487	-125.210	0.311	0.047
-140.472	-45.652	0.198	0.096
-139.458	-82.788	-0.260	-0.083
-138.443	-50.196	0.281	-0.130
-137.429	90.034	0.317	-0.347
-136.414	-200.000	-0.044	0.369
-135.399	364.077	-0.117	-0.231
-134.385	10.079	-0.045	0.034
-133.370	-200.000	0.003	0.291
-132.356	120.252	0.102	-0.124
-131.341	135.652	0.176	0.225
-130.326	-21.719	-0.041	-0.024
-129.312	-28.002	-0.142	0.081
-128.297	-118.092	0.193	-0.034
-127.283	-200.000	0.012	-0.190
-126.268	-200.000	0.060	0.636
-125.253	800.000	-0.065	0.178
-124.239	364.111	-0.085	0.167
-123.224	7.615	-0.177	0.130
-122.210	-11.037	-0.319	0.206
-121.195	263.913	0.074	-0.126
-120.180	474.895	0.056	-0.124
-119.166	-75.173	0.052	-0.018
-118.151	-68.031	-0.184	0.070
-117.137	-112.300	0.099	-0.019
-116.122	-111.737	-0.068	-0.013
-115.107	-6.962	-0.345	0.230
-114.093	-134.138	0.257	-0.031
-113.078	23.757	0.123	-0.099
-112.064	224.735	0.180	-0.285
-111.049	664.775	0.061	0.153
-110.034	-140.507	-0.162	-0.017
-109.020	-200.000	-0.017	0.450
-108.005	-2.438	-0.145	0.100
-106.991	52.554	0.028	0.026
-105.976	236.114	0.170	0.275
-104.962	88.420	0.326	0.355
-103.947	-55.461	0.184	0.081
-102.932	-174.288	-0.215	0.006
-101.918	47.334	-0.112	0.102
-100.903	30.961	-0.017	0.015
-99.889	262.426	-0.049	0.083
-98.874	800.000	0.041	0.122
-97.859	-74.935	0.454	-0.160
-96.845	-81.767	-0.032	-0.010
-95.830	-33.367	0.193	0.105
-94.816	411.755	0.155	0.323
-93.801	-145.713	0.104	0.009
-92.786	28.029	-0.069	-0.057
-91.772	-106.448	0.089	-0.019
-90.757	-76.135	-0.259	-0.090
-89.743	118.311	0.034	0.041
-88.728	800.000	0.028	-0.080
-87.713	-200.000	-0.018	-0.204
-86.699	-22.539	-0.105	0.062
-85.684	800.000	0.054	0.216
-84.670	-93.839	0.205	0.055
-83.655	199.031	-0.124	0.186
-82.640	-82.972	-0.370	0.117
-81.626	-200.000	0.048	0.281
-80.611	-200.000	-0.036	0.232
-79.597	-158.534	-0.224	0.013
-78.582	-166.013	0.231	0.010
-77.567	415.891	0.109	0.228
-76.553	706.643	-0.052	0.135
-75.538	7.762	0.365	0.268
-74.524	-147.377	0.201	-0.017
-73.509	800.000	0.065	0.271
-72.494	3.311	0.147	-0.105
-71.480	162.521	0.044	0.061
-70.465	-89.993	0.258	-0.074
-69.451	-84.460	-0.201	0.062
-68.436	800.000	0.075	0.233
-67.422	-200.000	0.016	-0.322
-66.407	26.100	-0.022	0.018
-65.392	-92.209	-0.217	-0.060
-64.378	800.000	-0.039	-0.158
-63.363	193.024	0.075	0.111
-62.349	-38.885	-0.214	0.110
-61.334	124.270	-0.968	-1.192
-60.319	19.188	0.752	0.591
-59.305	153.706	-0.494	-0.662
-58.290	99.506	0.904	1.024
-57.276	800.000	0.462	1.517
-56.261	-200.000	113.380	642.093
-55.246	533.892	1516.755	3517.046
-54.232	177.989	2692.546	3843.692
-53.217	104.315	2283.053	2629.341
-52.203	37.412	1890.509	1640.212
-51.188	31.404	1678.996	1411.445
-50.173	28.760	1636.828	1356.453
-49.159	50.522	1692.507	1566.413
-48.144	49.350	1706.757	1570.765
-47.130	30.874	1664.315	1394.919
-46.115	28.222	1649.494	1362.724
-45.100	27.983	1644.867	1357.075
-44.086	27.979	1642.116	1354.723
-43.071	28.000	1639.476	1352.644
-42.057	27.866	1637.439	1349.922
-41.042	27.961	1635.084	1348.630
-40.027	27.917	1633.317	1346.791
-39.013	27.937	1631.058	1345.026
-37.998	27.932	1629.565	1343.705
-36.984	28.036	1627.958	1343.089
-35.969	28.090	1626.975	1342.622
-34.954	28.067	1624.844	1340.640
-33.940	28.083	1623.427	1339.531
-32.925	28.106	1621.533	1338.085
-31.911	28.102	1620.244	1336.941
-30.896	28.030	1618.581	1334.992
-29.881	28.039	1616.985	1333.685
-28.867	28.108	1614.553	1332.133
-27.852	28.060	1613.509	1330.868
-26.838	28.248	1611.896	1330.848
-25.823	28.125	1610.490	1328.741
-24.809	28.168	1609.057	1327.816
-23.794	28.102	1608.201	1326.580
-22.779	28.125	1606.525	1325.309
-21.765	28.099	1605.010	1323.826
-20.750	28.147	1603.126	1322.561
-19.736	28.214	1602.001	1322.064
-18.721	28.129	1600.967	1320.549
-17.706	28.125	1599.483	1319.243
-16.692	28.092	1598.329	1317.997
-15.677	28.186	1596.834	1317.390
-14.663	28.168	1595.325	1315.964
-13.648	28.202	1593.468	1314.624
-12.633	28.182	1592.504	1313.633
-11.619	28.082	1590.809	1311.468
-10.604	28.094	1589.096	1310.088
-9.590	28.222	1587.484	1309.626
-8.575	28.120	1587.288	1308.678
-7.560	28.175	1585.605	1307.634
-6.546	28.173	1584.501	1306.659
-5.531	28.197	1583.705	1306.118
-4.517	28.089	1582.637	1304.418
-3.502	28.141	1581.605	1303.885
-2.487	28.225	1579.264	1302.501
-1.473	27.851	1568.085	1290.588
-0.458	24.807	1548.904	1253.461
0.556	22.719	1549.569	1221.750
1.571	20.261	1573.083	1222.872
2.586	19.740	1585.864	1228.996
3.600	17.870	1532.612	1174.765
4.615	10.984	1426.120	1048.796
5.629	4.793	1365.745	965.987
6.644	3.505	1358.734	952.985
7.659	3.636	1357.489	952.839
8.673	3.662	1356.329	952.099
9.688	3.818	1354.403	951.622
10.702	3.482	1352.175	947.909
11.717	6.528	1357.119	970.061
12.731	14.306	1371.559	1028.504
13.746	21.216	1382.202	1079.254
14.761	23.088	1384.451	1092.487
15.775	22.513	1383.190	1087.847
16.790	21.694	1380.674	1080.721
17.804	21.034	1378.760	1075.058
18.819	20.804	1377.840	1072.833
19.834	20.788	1376.940	1071.939
20.848	20.789	1376.527	1071.528
21.863	20.679	1374.943	1069.521
22.877	20.628	1373.734	1068.178
23.892	20.533	1372.478	1066.521
24.907	20.371	1371.980	1065.049
25.921	20.439	1370.739	1064.404
26.936	20.448	1369.831	1063.659
27.950	20.526	1369.719	1063.959
28.965	20.582	1368.643	1063.371
29.980	20.663	1367.583	1062.946
30.994	20.854	1366.178	1062.926
32.009	20.920	1365.696	1062.861
33.023	20.860	1364.149	1061.195
34.038	20.811	1362.696	1059.675
35.053	20.689	1361.189	1057.665
36.067	20.520	1360.363	1055.905
37.082	20.679	1359.504	1056.110
38.096	20.677	1358.858	1055.502
39.111	20.704	1357.989	1054.897
40.126	20.576	1357.016	1053.273
41.140	20.347	1355.759	1050.816
42.155	20.112	1355.182	1048.854
43.169	20.032	1355.273	1048.352
44.184	20.086	1355.114	1048.460
45.199	20.218	1355.200	1049.234
46.213	20.395	1354.494	1049.664
47.228	20.442	1353.834	1049.345
48.242	20.559	1352.542	1048.958
49.257	20.520	1351.303	1047.668
50.271	20.580	1349.584	1046.605
51.286	20.482	1348.467	1045.052
52.301	20.545	1346.771	1044.028
53.315	20.381	1345.930	1042.299
54.330	20.169	1344.720	1039.999
55.344	20.203	1343.650	1039.283
56.359	20.207	1342.262	1038.138
57.374	20.028	1342.122	1036.866
58.388	19.944	1341.011	1035.413
59.403	19.844	1340.992	1034.713
60.417	19.945	1339.730	1034.246
61.432	19.823	1338.415	1032.413
62.447	19.853	1337.561	1031.841
63.461	19.644	1336.720	1029.854
64.476	19.706	1335.716	1029.361
65.490	19.651	1334.164	1027.749
66.505	19.777	1332.414	1027.060
67.520	19.679	1332.083	1026.130
68.534	19.787	1330.649	1025.572
69.549	19.742	1329.547	1024.369
70.563	19.581	1329.016	1022.912
71.578	19.429	1327.808	1020.996
72.593	19.445	1326.801	1020.225
73.607	19.400	1325.924	1019.192
74.622	19.406	1325.749	1019.003
75.636	19.532	1325.177	1019.216
76.651	19.579	1323.819	1018.364
77.666	19.617	1323.605	1018.329
78.680	19.754	1323.034	1018.607
79.695	19.765	1322.176	1017.919
80.709	19.935	1322.249	1018.886
81.724	20.122	1321.063	1018.984
82.739	20.228	1320.426	1019.027
83.753	20.438	1319.809	1019.691
84.768	20.653	1318.920	1020.178
85.782	20.756	1318.320	1020.227
86.797	20.839	1316.950	1019.558
87.812	20.649	1315.472	1017.217
88.826	20.610	1314.628	1016.244
89.841	20.677	1313.439	1015.630
90.855	20.740	1312.849	1015.450
91.870	20.794	1312.039	1015.046
92.884	20.780	1311.944	1014.804
93.899	20.896	1310.595	1014.345
94.914	20.831	1310.337	1013.674
95.928	20.741	1309.647	1012.531
96.943	20.818	1308.610	1012.086
97.957	20.797	1307.400	1010.941
98.972	20.752	1306.575	1009.947
99.987	20.730	1305.751	1009.095
101.001	20.699	1304.498	1007.858
102.016	20.710	1303.769	1007.271
103.030	20.758	1302.824	1006.726
104.045	20.637	1302.351	1005.572
105.060	20.521	1300.910	1003.702
106.074	20.148	1298.929	999.937
107.089	19.830	1297.227	996.705
108.103	19.637	1296.009	994.567
109.118	19.674	1294.571	993.591
110.133	19.737	1293.287	992.880
111.147	19.846	1291.882	992.339
112.162	19.829	1290.987	991.465
113.176	20.015	1289.181	991.057
114.191	19.956	1288.914	990.425
115.206	19.993	1288.076	989.905
116.220	19.954	1287.119	988.856
117.235	19.881	1285.768	987.316
118.249	19.830	1284.643	986.073
119.264	19.694	1283.361	984.227
120.279	19.668	1282.196	983.101
121.293	19.629	1280.872	981.774
122.308	19.565	1279.965	980.629
123.322	19.402	1279.320	979.125
124.337	19.399	1278.038	978.041
125.352	19.443	1276.804	977.257
126.366	19.305	1276.057	975.818
127.381	19.256	1274.621	974.358
128.395	19.307	1273.692	973.848
129.410	19.408	1272.556	973.464
130.424	19.439	1272.133	973.227
131.439	19.660	1271.874	974.192
132.454	19.787	1270.863	974.046
133.468	19.749	1270.303	973.316
134.483	19.915	1269.437	973.503
135.497	19.980	1268.024	972.699
136.512	19.997	1266.701	971.692
137.527	19.950	1265.910	970.734
138.541	20.040	1264.568	970.126
139.556	20.055	1263.617	969.390
140.570	20.243	1262.438	969.454
141.585	20.318	1261.485	969.054
142.600	20.406	1260.944	969.046
143.614	20.656	1260.045	969.661
144.629	20.648	1259.664	969.239
145.643	20.630	1258.017	967.785
146.658	20.437	1256.572	965.516
147.673	20.273	1254.871	963.211
148.687	20.097	1253.364	960.993
149.702	19.870	1252.235	958.784
150.716	19.744	1251.189	957.200
151.731	19.771	1249.678	956.112
152.746	19.910	1248.773	956.101
153.760	19.990	1247.793	955.710
154.775	20.110	1247.109	955.759
155.789	20.251	1246.004	955.607
156.804	20.282	1245.166	955.053
157.819	20.357	1244.258	954.684
158.833	20.526	1243.772	955.154
159.848	20.626	1243.448	955.367
160.862	20.494	1241.964	953.418
161.877	20.267	1240.041	950.616
162.892	19.903	1239.129	947.838
163.906	19.853	1238.075	946.675
164.921	19.862	1236.999	945.820
165.935	20.015	1236.146	945.918
166.950	20.004	1235.948	945.622
167.964	20.091	1234.546	944.942
168.979	20.021	1234.238	944.243
169.994	19.988	1233.243	943.214
171.008	19.960	1232.892	942.712
172.023	20.112	1232.410	943.087
173.037	20.422	1231.964	944.346
174.052	20.338	1230.572	942.740
175.067	20.187	1228.852	940.522
176.081	19.909	1228.002	938.281
177.096	19.779	1227.311	936.967
178.110	19.888	1226.327	936.719
179.125	20.002	1225.101	936.320
180.140	20.175	1224.015	936.339
181.154	20.366	1223.571	936.950
182.169	20.395	1222.050	935.859
183.183	20.434	1221.752	935.757
184.198	20.546	1220.549	935.354
185.213	20.464	1219.641	934.138
186.227	20.592	1218.434	933.815
187.242	20.642	1217.352	933.174
188.256	20.812	1216.523	933.367
189.271	20.712	1215.979	932.332
190.286	20.531	1215.030	930.550
191.300	20.081	1213.236	926.689
192.315	19.826	1212.744	924.866
193.329	20.025	1211.815	925.140
194.344	19.939	1211.577	924.415
195.359	20.099	1210.454	924.333
196.373	20.101	1209.889	923.827
197.388	20.360	1209.882	925.120
198.402	20.616	1209.825	926.361
199.417	20.798	1209.322	926.865
200.432	21.053	1208.384	927.415
201.446	21.026	1208.216	927.063
202.461	21.120	1207.508	926.939
203.475	21.153	1206.116	925.963
204.490	20.825	1204.772	923.111
205.504	20.528	1202.989	920.089
206.519	20.501	1202.136	919.210
207.534	20.279	1201.091	917.158
208.548	20.254	1200.128	916.209
209.563	20.414	1199.887	916.789
210.577	20.351	1198.955	915.663
211.592	20.512	1197.861	915.599
212.607	20.811	1197.475	916.793
213.621	20.844	1196.200	915.911
214.636	20.677	1195.655	914.536
215.650	20.747	1194.588	914.008
216.665	20.835	1194.009	913.941
217.680	21.038	1193.493	914.533
218.694	21.004	1193.133	913.997
219.709	20.904	1191.594	912.212
220.723	20.964	1190.666	911.736
221.738	20.943	1190.506	911.424
222.753	20.884	1189.199	910.033
223.767	20.845	1188.769	909.422
224.782	21.070	1188.843	910.570
225.796	21.149	1188.319	910.505
226.811	21.048	1187.461	909.239
227.826	20.935	1186.209	907.611
228.840	20.769	1185.250	905.934
229.855	20.784	1184.962	905.712
230.869	20.801	1183.776	904.812
231.884	20.658	1183.038	903.423
232.899	20.500	1182.016	901.745
233.913	20.397	1181.161	900.479
234.928	20.381	1180.117	899.520
235.942	20.269	1179.250	898.202
236.957	20.215	1178.663	897.392
237.972	20.249	1178.204	897.139
238.986	20.387	1177.217	897.025
240.001	20.325	1177.171	896.588
241.015	20.360	1176.107	895.882
242.030	20.563	1175.338	896.262
243.045	20.562	1175.085	895.986
244.059	20.780	1173.572	895.875
245.074	20.773	1173.522	895.721
246.088	20.881	1172.862	895.692
247.103	20.994	1172.123	895.627
248.117	21.143	1171.874	896.121
249.132	21.325	1171.198	896.463
250.147	21.651	1170.597	897.592
251.161	21.789	1170.327	898.015
252.176	21.887	1169.267	897.622
253.190	21.989	1168.917	897.797
254.205	22.059	1168.603	897.831
255.220	22.014	1167.993	897.052
256.234	21.889	1167.622	896.052
257.249	21.991	1166.474	895.611
258.263	21.881	1165.586	894.293
259.278	21.869	1164.896	893.623
260.293	21.922	1164.851	893.776
261.307	21.994	1164.418	893.735
262.322	22.089	1163.732	893.612
263.336	22.077	1162.667	892.654
264.351	22.034	1162.539	892.255
265.366	22.101	1161.743	891.906
266.380	22.118	1161.260	891.545
267.395	21.963	1159.846	889.595
268.409	21.891	1158.779	888.333
269.424	21.715	1158.561	887.193
270.439	21.718	1157.936	886.651
271.453	21.716	1156.830	885.718
272.468	21.550	1155.665	883.909
273.482	21.490	1154.892	882.938
274.497	21.374	1154.683	882.114
275.512	21.518	1153.814	882.095
276.526	21.492	1152.916	881.200
277.541	21.527	1152.353	880.869
278.555	21.622	1151.900	880.924
279.570	21.763	1151.646	881.358
280.585	22.074	1151.097	882.423
281.599	21.985	1149.994	881.054
282.614	21.698	1148.712	878.554
283.628	21.589	1147.347	876.889
284.643	21.545	1146.417	875.878
285.657	21.562	1146.054	875.612
286.672	21.664	1144.695	875.006
287.687	21.701	1144.170	874.710
288.701	21.713	1143.460	874.149
289.716	21.645	1142.283	872.831
290.730	21.754	1141.623	872.794
291.745	21.720	1141.254	872.267
292.760	21.743	1140.330	871.594
293.774	21.897	1140.309	872.269
294.789	22.023	1139.929	872.527
295.803	22.042	1138.782	871.667
296.818	21.802	1138.109	869.885
297.833	21.675	1136.954	868.295
298.847	21.564	1136.597	867.395
299.862	21.706	1135.452	867.145
300.876	21.772	1134.849	866.938
301.891	21.879	1134.652	867.238
302.906	21.989	1134.418	867.525
303.920	22.210	1133.702	867.995
304.935	22.292	1133.525	868.186
305.949	22.461	1132.950	868.503
306.964	22.373	1132.542	867.678
307.979	22.204	1130.962	865.561
308.993	22.066	1130.284	864.285
310.008	22.082	1129.687	863.830
311.022	22.319	1129.148	864.505
312.037	22.151	1127.948	862.686
313.052	22.111	1127.117	861.780
314.066	21.897	1125.723	859.588
315.081	21.637	1124.563	857.356
316.095	21.484	1124.011	856.109
317.110	21.599	1123.584	856.268
318.125	21.577	1122.272	855.087
319.139	21.545	1121.744	854.453
320.154	21.648	1120.934	854.264
321.168	21.543	1120.983	853.710
322.183	21.575	1120.315	853.285
323.197	21.664	1119.781	853.237
324.212	21.748	1119.165	853.101
325.227	21.802	1118.436	852.732
326.241	21.931	1117.690	852.713
327.256	21.774	1116.889	851.264
328.270	21.640	1115.861	849.756
329.285	21.675	1115.308	849.430
330.300	21.730	1114.011	848.631
331.314	21.716	1113.313	847.955
332.329	21.615	1112.667	846.905
333.343	21.795	1111.672	846.938
334.358	22.025	1111.035	847.487
335.373	22.051	1110.935	847.463
336.387	22.167	1109.878	847.142
337.402	22.277	1109.352	847.197
338.416	22.351	1108.439	846.777
339.431	22.352	1108.409	846.688
340.446	22.337	1108.246	846.412
341.460	22.701	1107.583	847.581
342.475	22.699	1106.541	846.702
343.489	22.816	1105.564	846.439
344.504	22.838	1104.906	845.965
345.519	22.959	1104.172	845.910
346.533	23.039	1103.378	845.606
347.548	23.069	1102.663	845.126
348.562	22.911	1102.051	843.831
349.577	22.564	1100.702	841.068
350.592	22.311	1099.098	838.563
351.606	21.973	1099.078	836.858
352.621	22.051	1098.001	836.336
353.635	22.074	1097.358	835.884
354.650	22.031	1096.823	835.199
355.665	22.072	1096.268	834.896
356.679	22.209	1095.460	834.857
357.694	22.445	1094.869	835.453
358.708	22.518	1094.377	835.350
359.723	22.489	1094.099	834.928
360.738	22.500	1092.963	834.035
361.752	22.438	1092.701	833.469
362.767	22.538	1092.196	833.485
363.781	22.440	1091.761	832.616
364.796	22.792	1091.053	833.665
365.810	22.872	1090.965	833.902
366.825	23.100	1090.183	834.303
367.840	23.213	1090.342	834.885
368.854	23.383	1089.359	834.861
369.869	23.282	1088.569	833.705
370.883	23.095	1087.487	831.922
371.898	23.039	1086.415	830.766
372.913	22.988	1085.595	829.827
373.927	22.989	1085.432	829.633
374.942	23.032	1085.425	829.757
375.956	23.092	1085.169	829.769
376.971	23.024	1083.902	828.407
377.986	23.117	1083.659	828.585
379.000	23.315	1083.273	829.143
380.015	23.245	1083.075	828.589
381.029	23.346	1082.349	828.436
382.044	23.331	1081.543	827.672
383.059	23.297	1080.755	826.837
384.073	23.229	1079.771	825.694
385.088	23.319	1078.920	825.390
386.102	23.366	1077.735	824.631
387.117	23.116	1076.446	822.409
388.132	22.842	1075.858	820.615
389.146	22.821	1074.970	819.767
390.161	22.587	1074.197	818.019
391.175	22.812	1073.231	818.253
392.190	22.919	1073.080	818.563
393.205	23.202	1072.223	819.146
394.219	23.167	1071.259	818.177
395.234	22.993	1070.371	816.619
396.248	22.779	1069.543	814.930
397.263	22.796	1068.161	813.881
398.278	22.584	1067.729	812.501
399.292	22.620	1066.462	811.633
400.307	22.537	1066.078	810.888
401.321	22.659	1065.120	810.648
402.336	22.498	1064.612	809.448
403.350	22.596	1063.470	808.959
404.365	22.815	1063.161	809.656
405.380	22.701	1063.463	809.293
406.394	22.805	1062.409	808.894
407.409	23.057	1061.443	809.242
408.423	23.293	1061.287	810.130
409.438	23.362	1060.593	809.843
410.453	23.452	1060.260	809.930
411.467	23.506	1059.149	809.258
412.482	23.616	1058.723	809.359
413.496	23.684	1058.328	809.295
414.511	23.773	1058.004	809.383
415.526	23.806	1057.676	809.211
416.540	23.903	1057.133	809.164
417.555	23.790	1056.516	808.109
418.569	23.694	1055.897	807.126
419.584	23.679	1055.228	806.475
420.599	23.693	1054.599	805.985
421.613	156.389	1403.149	1797.147
422.628	143.617	1453.914	1797.237
