DTS Sentinel unit serial number:	SN413079Multiplexer serial number:	ORYXHardware model number:	OX4-SRSoftware version number:	ORYX F/W v4.00 Oryx Data Collector v3.7.2.0data status	okinstallation	princeton_trtdifferential loss correction	single-endedforward channel	channel 2reverse channel	N/Adate	2019/09/13time	08:19:35forward acquisition time	60.00reverse acquisition time	0.00gamma	496.2192k internal	0.2333k external	0.2333temperature offset calibration	1.0194default loss term (dB/km)	0.3790temperature slope calibration	1.0000multiplexer offset coefficient	1.0000multiplexer slope coefficient	1.0000fibre end	0.00T internal ref (°C)	27.25T ext. ref 1 (°C)	4.28T ext. ref 2 (°C)	23.22length (m)	temperature (°C)	Stokes	anti-Stokes-747.200	800.000	-0.086	0.303
-746.185	23.877	0.244	0.202
-745.171	800.000	-0.074	0.221
-744.156	800.000	-0.035	0.099
-743.142	-143.650	-0.083	0.008
-742.127	5.382	-0.145	0.107
-741.112	-143.978	0.195	0.018
-740.098	-200.000	-0.008	0.185
-739.083	773.292	0.153	0.420
-738.069	82.919	-0.100	0.109
-737.054	-136.892	-0.107	0.012
-736.039	8.816	-0.219	-0.166
-735.025	-200.000	-0.001	0.119
-734.010	-129.359	-0.190	-0.027
-732.996	69.432	-0.300	-0.310
-731.981	170.320	-0.088	0.127
-730.966	-129.821	-0.231	0.032
-729.952	-2.129	-0.259	0.182
-728.937	-163.153	0.140	0.007
-727.923	-144.966	0.165	0.015
-726.908	-139.676	0.451	0.048
-725.894	16.732	-0.247	0.197
-724.879	96.696	-0.297	-0.342
-723.864	-153.304	0.138	0.010
-722.850	141.854	-0.010	-0.013
-721.835	-200.000	-0.026	0.210
-720.821	-85.698	0.349	0.109
-719.806	-133.186	0.182	0.023
-718.791	-11.398	-0.341	0.225
-717.777	20.238	-0.013	-0.010
-716.762	-200.000	0.003	0.246
-715.748	-77.025	-0.258	-0.090
-714.733	800.000	-0.027	-0.097
-713.718	67.505	0.171	-0.176
-712.704	800.000	-0.064	-0.233
-711.689	125.580	-0.126	-0.160
-710.675	-200.000	0.019	-0.146
-709.660	-200.000	-0.025	0.182
-708.645	34.343	0.208	-0.182
-707.631	-137.106	-0.255	0.029
-706.616	-60.233	-0.275	-0.118
-705.602	800.000	0.069	0.222
-704.587	-200.000	0.019	0.152
-703.572	48.116	-0.112	-0.105
-702.558	-69.345	-0.150	-0.058
-701.543	-104.324	0.063	0.015
-700.529	155.486	-0.053	0.073
-699.514	38.500	0.052	0.046
-698.499	-189.309	0.270	0.003
-697.485	70.981	0.101	-0.105
-696.470	20.968	0.203	0.165
-695.456	-94.294	-0.145	0.040
-694.441	620.501	-0.078	-0.196
-693.426	-72.470	0.323	0.120
-692.412	172.308	-0.048	-0.070
-691.397	-132.900	-0.400	0.051
-690.383	86.355	0.165	-0.182
-689.368	-55.238	-0.192	-0.087
-688.354	-33.302	0.136	-0.076
-687.339	-178.302	0.221	0.005
-686.324	-200.000	0.037	-0.248
-685.310	800.000	-0.064	-0.243
-684.295	592.124	0.037	-0.092
-683.281	-200.000	0.044	-0.230
-682.266	-100.926	-0.293	0.072
-681.251	-11.436	0.209	-0.138
-680.237	-83.859	-0.104	-0.033
-679.222	-119.253	-0.171	0.030
-678.208	227.039	0.094	-0.153
-677.193	-11.828	-0.246	-0.162
-676.178	-80.256	-0.139	0.046
-675.164	-200.000	0.080	-0.387
-674.149	31.011	-0.226	0.194
-673.135	-6.529	0.064	-0.044
-672.120	-119.575	0.117	0.020
-671.105	159.934	-0.187	0.261
-670.091	-125.488	-0.307	-0.047
-669.076	-107.163	-0.119	0.026
-668.062	166.355	0.171	-0.243
-667.047	-159.519	-0.120	-0.007
-666.032	21.775	0.015	0.012
-665.018	13.632	0.179	-0.139
-664.003	387.125	0.019	0.038
-662.989	-200.000	0.054	0.321
-661.974	21.953	0.165	-0.134
-660.959	-200.000	-0.002	0.033
-659.945	114.593	-0.029	0.035
-658.930	101.046	0.101	-0.118
-657.916	-43.735	-0.158	-0.080
-656.901	349.546	-0.122	0.241
-655.886	-55.694	-0.291	0.131
-654.872	762.302	0.075	0.205
-653.857	-200.000	-0.002	0.142
-652.843	317.695	0.107	0.203
-651.828	-200.000	0.010	-0.143
-650.814	800.000	-0.069	0.221
-649.799	-183.107	-0.146	0.003
-648.784	800.000	-0.017	-0.057
-647.770	246.167	-0.121	-0.204
-646.755	-114.738	-0.456	-0.087
-645.741	-113.362	-0.073	-0.014
-644.726	-139.905	-0.094	0.010
-643.711	488.542	0.173	-0.395
-642.697	800.000	0.058	0.159
-641.682	-73.059	-0.256	-0.094
-640.668	670.105	0.175	-0.452
-639.653	239.520	0.103	-0.171
-638.638	-108.754	-0.171	-0.037
-637.624	160.964	0.058	0.082
-636.609	-43.293	-0.326	-0.165
-635.595	-72.346	0.282	0.104
-634.580	-200.000	-0.001	0.155
-633.565	289.787	0.169	0.307
-632.551	105.643	-0.187	0.221
-631.536	195.368	-0.185	0.281
-630.522	-101.824	-0.264	-0.064
-629.507	-171.455	-0.122	0.004
-628.492	340.207	-0.114	0.223
-627.478	-157.792	-0.468	-0.028
-626.463	19.753	0.320	0.258
-625.449	-200.000	0.016	0.332
-624.434	395.854	0.095	0.198
-623.419	-162.490	-0.103	-0.005
-622.405	-109.814	0.307	-0.064
-621.390	42.620	-0.042	-0.038
-620.376	-200.000	-0.053	0.349
-619.361	149.359	0.143	-0.193
-618.346	8.341	-0.226	0.170
-617.332	-71.577	-0.160	0.060
-616.317	-98.047	-0.085	-0.022
-615.303	-200.000	0.007	0.074
-614.288	287.849	-0.067	0.122
-613.273	-200.000	0.034	0.203
-612.259	-20.847	0.119	0.073
-611.244	-45.605	0.303	-0.150
-610.230	-35.555	-0.060	0.033
-609.215	74.199	0.060	-0.063
-608.201	-200.000	-0.119	0.000
-607.186	-200.000	-0.020	0.716
-606.171	-149.337	-0.177	-0.014
-605.157	-66.516	-0.182	-0.072
-604.142	-200.000	0.006	-0.047
-603.128	-196.764	0.191	0.001
-602.113	-55.405	-0.062	0.028
-601.098	433.597	-0.089	-0.192
-600.084	168.352	-0.155	0.221
-599.069	-105.777	0.054	0.012
-598.055	439.676	0.058	0.126
-597.040	-117.271	0.228	0.041
-596.025	-135.620	0.331	-0.039
-595.011	103.633	-0.102	0.120
-593.996	-56.226	-0.051	-0.023
-592.982	147.799	-0.158	-0.213
-591.967	224.593	0.103	0.166
-590.952	103.979	-0.209	-0.245
-589.938	668.140	-0.100	-0.257
-588.923	9.022	0.051	-0.038
-587.909	800.000	-0.052	0.177
-586.894	469.163	-0.175	0.392
-585.879	-200.000	0.048	0.298
-584.865	-20.742	-0.286	-0.175
-583.850	792.829	0.038	-0.104
-582.836	-200.000	0.059	0.460
-581.821	-66.279	0.161	-0.064
-580.806	-200.000	-0.031	0.189
-579.792	-57.383	-0.300	-0.132
-578.777	50.174	0.206	-0.194
-577.763	242.452	0.145	-0.243
-576.748	248.531	0.070	0.119
-575.733	758.942	0.043	-0.115
-574.719	800.000	-0.045	-0.173
-573.704	800.000	0.036	0.134
-572.690	-102.134	-0.045	0.011
-571.675	-39.521	0.242	0.126
-570.661	639.755	0.065	0.164
-569.646	208.712	-0.166	-0.259
-568.631	-24.672	0.138	-0.082
-567.617	-161.780	-0.184	0.009
-566.602	-171.831	-0.266	-0.009
-565.588	800.000	-0.037	-0.144
-564.573	3.613	0.170	-0.124
-563.558	170.961	-0.087	-0.124
-562.544	301.233	-0.163	0.301
-561.529	31.462	0.062	-0.054
-560.515	-55.491	-0.191	0.086
-559.500	-96.825	-0.170	0.045
-558.485	-73.355	0.165	0.060
-557.471	-200.000	-0.002	-0.008
-556.456	-84.102	-0.417	-0.132
-555.442	-114.207	0.249	-0.048
-554.427	-169.511	0.165	-0.006
-553.412	640.984	0.085	-0.217
-552.398	800.000	0.038	-0.159
-551.383	170.880	-0.170	0.244
-550.369	-113.498	0.260	0.051
-549.354	-5.174	-0.062	0.043
-548.339	800.000	0.037	0.153
-547.325	-38.400	-0.153	-0.081
-546.310	-200.000	0.014	0.153
-545.296	800.000	-0.148	0.414
-544.281	800.000	-0.034	-0.096
-543.266	10.391	0.123	-0.094
-542.252	800.000	-0.105	0.367
-541.237	-22.626	0.312	-0.188
-540.223	-64.683	-0.116	-0.047
-539.208	29.659	-0.132	-0.112
-538.193	-200.000	0.018	0.190
-537.179	-200.000	0.039	-0.250
-536.164	-200.000	0.017	-0.140
-535.150	-38.900	0.103	-0.054
-534.135	-78.246	0.312	-0.107
-533.121	-200.000	0.012	0.155
-532.106	149.286	0.034	0.046
-531.091	81.694	0.246	0.266
-530.077	-200.000	0.387	-0.000
-529.062	-129.181	-0.243	-0.034
-528.048	-200.000	-0.073	-0.512
-527.033	236.900	-0.138	-0.227
-526.018	-92.462	0.155	0.044
-525.004	-75.197	0.191	-0.068
-523.989	-200.000	0.003	-0.229
-522.975	389.114	-0.119	0.245
-521.960	397.254	0.116	-0.241
-520.945	38.765	0.314	0.280
-519.931	-9.468	-0.216	-0.144
-518.916	301.249	-0.081	-0.150
-517.902	-103.530	0.099	0.023
-516.887	800.000	0.079	-0.243
-515.872	-51.197	-0.133	0.062
-514.858	-111.772	-0.378	-0.076
-513.843	-118.215	-0.245	-0.044
-512.829	236.456	0.040	0.066
-511.814	355.805	-0.079	0.156
-510.799	247.557	0.182	-0.307
-509.785	-134.642	0.135	-0.016
-508.770	-85.588	-0.252	-0.078
-507.756	-20.765	0.418	0.255
-506.741	262.872	0.167	0.289
-505.726	-70.736	0.182	0.068
-504.712	-79.951	-0.121	0.040
-503.697	168.965	0.161	0.229
-502.683	-3.459	-0.132	-0.091
-501.668	147.214	0.138	0.185
-500.653	299.586	0.129	0.236
-499.639	-5.005	-0.073	0.050
-498.624	-74.516	-0.273	-0.098
-497.610	-111.666	-0.253	-0.051
-496.595	-39.007	0.222	-0.117
-495.581	800.000	-0.030	-0.103
-494.566	-128.462	-0.262	-0.037
-493.551	-125.918	-0.142	-0.021
-492.537	390.801	-0.033	-0.067
-491.522	20.181	-0.159	0.127
-490.508	277.249	0.048	-0.084
-489.493	473.173	0.165	-0.370
-488.478	-114.879	-0.304	0.058
-487.464	-77.628	-0.526	-0.181
-486.449	-200.000	0.028	-0.219
-485.435	-200.000	0.022	-0.163
-484.420	-35.299	0.230	-0.124
-483.405	-200.000	-0.007	-0.042
-482.391	800.000	-0.067	0.273
-481.376	181.863	0.257	-0.377
-480.362	-200.000	0.044	-0.235
-479.347	-106.247	0.328	0.073
-478.332	56.227	0.237	0.229
-477.318	800.000	-0.109	-0.414
-476.303	-200.000	-0.017	-0.211
-475.289	64.685	-0.292	0.293
-474.274	-71.496	0.264	-0.098
-473.259	-58.044	-0.459	-0.199
-472.245	800.000	-0.014	-0.054
-471.230	-78.921	-0.285	0.097
-470.216	-200.000	-0.073	-0.480
-469.201	-14.039	0.300	-0.193
-468.186	-82.670	-0.285	0.092
-467.172	81.396	-0.128	0.138
-466.157	-92.389	0.369	-0.103
-465.143	800.000	0.088	-0.285
-464.128	-93.157	0.215	0.059
-463.113	-200.000	0.025	0.219
-462.099	89.241	-0.107	0.118
-461.084	51.227	0.176	0.166
-460.070	19.089	-0.238	-0.190
-459.055	-85.405	-0.277	-0.086
-458.040	-200.000	0.054	0.400
-457.026	240.372	0.081	-0.134
-456.011	-30.605	0.250	0.141
-454.997	-52.057	-0.141	0.065
-453.982	-17.447	0.270	-0.169
-452.968	-191.968	0.269	-0.003
-451.953	512.564	-0.011	-0.025
-450.938	-48.785	-0.166	-0.079
-449.924	-50.351	0.121	0.057
-448.909	-106.784	0.478	-0.106
-447.895	64.943	0.013	0.013
-446.880	-200.000	0.010	0.086
-445.865	14.015	-0.032	-0.024
-444.851	4.175	0.222	-0.161
-443.836	-98.605	0.077	0.019
-442.822	-136.407	0.112	0.013
-441.807	242.358	-0.139	-0.231
-440.792	234.406	-0.017	-0.028
-439.778	800.000	-0.023	-0.075
-438.763	-113.590	-0.184	-0.036
-437.749	-94.528	0.094	-0.025
-436.734	-200.000	0.006	0.362
-435.719	122.865	0.186	-0.231
-434.705	151.130	0.146	-0.197
-433.690	-200.000	-0.037	0.303
-432.676	21.250	-0.366	-0.295
-431.661	-108.231	-0.192	-0.041
-430.646	-200.000	-0.043	0.231
-429.632	7.244	0.110	-0.082
-428.617	11.124	0.145	0.110
-427.603	-51.848	0.196	-0.090
-426.588	124.385	0.041	0.052
-425.573	-200.000	-0.000	0.004
-424.559	-91.221	0.154	-0.044
-423.544	355.668	-0.046	0.091
-422.530	-131.746	-0.212	-0.028
-421.515	-47.394	0.152	-0.073
-420.500	49.616	-0.153	0.143
-419.486	406.155	-0.077	0.162
-418.471	-200.000	-0.004	-0.154
-417.457	-200.000	-0.001	-0.005
-416.442	62.630	0.110	0.109
-415.428	76.001	0.128	-0.135
-414.413	-149.770	0.199	0.016
-413.398	800.000	-0.032	0.116
-412.384	-20.271	0.109	0.066
-411.369	-92.192	0.191	-0.053
-410.355	36.329	0.211	-0.184
-409.340	-4.643	0.166	0.114
-408.325	800.000	-0.023	-0.085
-407.311	-0.112	-0.118	-0.083
-406.296	-22.743	-0.019	0.011
-405.282	-62.908	0.108	0.044
-404.267	57.415	0.190	-0.184
-403.252	-14.360	-0.322	-0.206
-402.238	-200.000	-0.024	-0.330
-401.223	165.808	0.095	0.133
-400.209	209.875	-0.137	-0.212
-399.194	-200.000	-0.016	-0.384
-398.179	-97.590	0.164	-0.042
-397.165	142.017	0.185	0.243
-396.150	800.000	0.080	0.279
-395.136	-109.312	0.267	-0.056
-394.121	54.252	-0.216	0.206
-393.106	716.946	0.112	0.295
-392.092	-200.000	-0.066	0.372
-391.077	-135.153	-0.188	0.022
-390.063	222.691	0.089	0.143
-389.048	180.289	0.236	0.343
-388.033	110.915	-0.075	0.089
-387.019	-200.000	-0.000	0.022
-386.004	800.000	-0.105	0.320
-384.990	248.118	-0.109	0.183
-383.975	-200.000	-0.015	-0.164
-382.960	89.914	0.121	0.134
-381.946	-200.000	-0.007	-0.147
-380.931	15.447	-0.347	0.270
-379.917	-200.000	0.103	0.460
-378.902	800.000	-0.067	-0.255
-377.888	26.945	0.147	-0.122
-376.873	-37.654	0.310	-0.164
-375.858	-200.000	0.001	-0.168
-374.844	800.000	0.073	-0.218
-373.829	-147.289	0.228	-0.019
-372.815	-70.043	0.349	-0.132
-371.800	-59.871	0.248	0.105
-370.785	540.275	-0.077	0.181
-369.771	-124.048	0.307	-0.048
-368.756	-171.311	0.259	-0.009
-367.742	322.794	0.172	0.325
-366.727	-103.209	-0.053	-0.012
-365.712	800.000	-0.031	0.121
-364.698	5.637	-0.124	-0.090
-363.683	329.969	0.111	-0.212
-362.669	34.223	0.090	0.078
-361.654	-41.444	0.278	-0.142
-360.639	450.476	-0.051	-0.111
-359.625	9.154	0.124	0.093
-358.610	137.318	-0.213	0.276
-357.596	-172.286	0.171	-0.005
-356.581	-143.687	-0.488	-0.046
-355.566	0.587	-0.171	0.121
-354.552	163.200	0.093	-0.129
-353.537	130.432	0.055	0.069
-352.523	800.000	-0.062	-0.192
-351.508	-156.330	0.056	0.003
-350.493	-200.000	-0.011	0.063
-349.479	-34.871	0.113	0.061
-348.464	-66.217	0.230	0.091
-347.450	-16.473	0.134	-0.084
-346.435	265.440	-0.133	0.229
-345.420	129.069	-0.093	0.117
-344.406	-200.000	0.006	-0.170
-343.391	50.698	0.068	0.063
-342.377	-14.624	-0.297	0.189
-341.362	-6.550	0.255	-0.172
-340.348	-48.375	-0.014	-0.007
-339.333	439.443	-0.119	0.257
-338.318	50.384	-0.111	-0.104
-337.304	800.000	-0.040	0.171
-336.289	107.608	0.212	0.250
-335.275	109.285	-0.093	-0.110
-334.260	396.635	0.063	-0.131
-333.245	-200.000	-0.033	0.447
-332.231	47.210	0.185	0.171
-331.216	85.921	-0.070	-0.076
-330.202	374.465	0.117	-0.235
-329.187	-200.000	0.003	0.066
-328.172	-102.422	0.155	0.037
-327.158	63.403	-0.117	-0.116
-326.143	-28.700	0.282	-0.160
-325.129	-49.591	0.222	0.104
-324.114	-200.000	0.023	0.197
-323.099	70.179	-0.062	0.063
-322.085	800.000	-0.024	0.068
-321.070	0.753	-0.126	0.089
-320.056	-200.000	0.003	-0.025
-319.041	-200.000	0.101	-0.479
-318.026	-107.755	-0.080	-0.017
-317.012	-133.235	0.211	-0.026
-315.997	-166.592	-0.090	0.004
-314.983	-160.370	-0.255	0.014
-313.968	-200.000	-0.038	-0.194
-312.953	84.947	0.187	-0.202
-311.939	-61.379	0.107	-0.044
-310.924	-43.476	-0.063	0.031
-309.910	574.072	-0.042	-0.101
-308.895	-39.939	-0.184	0.095
-307.880	-33.537	0.423	0.231
-306.866	-27.342	0.298	-0.172
-305.851	-174.774	0.085	-0.002
-304.837	255.605	0.085	0.144
-303.822	-32.437	-0.212	0.117
-302.807	-37.323	-0.138	-0.073
-301.793	35.542	-0.154	0.133
-300.778	-104.628	-0.071	0.016
-299.764	164.698	-0.097	-0.135
-298.749	-63.852	-0.323	0.131
-297.735	800.000	-0.088	-0.284
-296.720	784.980	-0.050	-0.134
-295.705	471.638	0.064	-0.142
-294.691	293.098	0.179	0.323
-293.676	-97.413	0.194	-0.050
-292.662	-109.553	-0.523	0.109
-291.647	450.979	-0.057	0.124
-290.632	-200.000	-0.023	0.157
-289.618	-30.182	-0.187	0.105
-288.603	116.852	0.247	-0.300
-287.589	-200.000	-0.043	0.336
-286.574	-200.000	-0.001	0.078
-285.559	800.000	-0.044	0.136
-284.545	-142.445	0.031	0.003
-283.530	67.531	-0.156	-0.157
-282.516	74.152	-0.137	-0.142
-281.501	-154.385	0.295	-0.020
-280.486	130.180	-0.027	-0.035
-279.472	527.582	-0.120	0.279
-278.457	-34.079	-0.058	0.031
-277.443	-24.621	0.180	-0.106
-276.428	-18.722	-0.362	-0.223
-275.413	-25.260	-0.165	0.097
-274.399	800.000	0.091	-0.324
-273.384	126.562	0.295	-0.369
-272.370	-70.679	0.103	0.038
-271.355	-133.040	0.262	-0.033
-270.340	-70.510	-0.111	-0.042
-269.326	-184.486	-0.064	-0.001
-268.311	-20.501	0.053	0.032
-267.297	98.286	-0.322	0.366
-266.282	66.422	-0.147	-0.148
-265.267	95.072	-0.120	-0.134
-264.253	-200.000	-0.022	0.202
-263.238	-51.614	-0.178	0.082
-262.224	-98.995	-0.221	0.055
-261.209	-50.176	-0.487	0.227
-260.195	-155.569	-0.090	-0.006
-259.180	-200.000	0.021	-0.140
-258.165	-200.000	-0.017	-0.097
-257.151	-80.605	-0.519	-0.170
-256.136	83.356	0.006	0.007
-255.122	-92.862	-0.537	-0.148
-254.107	-16.296	-0.230	-0.144
-253.092	304.486	0.216	-0.396
-252.078	-139.180	-0.180	-0.019
-251.063	-200.000	0.050	-0.417
-250.049	-200.000	-0.044	-0.242
-249.034	498.578	0.083	-0.188
-248.019	-59.555	-0.165	0.070
-247.005	-88.039	-0.154	-0.046
-245.990	-200.000	-0.012	-0.166
-244.976	-128.118	-0.095	0.013
-243.961	-200.000	-0.017	0.145
-242.946	-200.000	-0.032	0.356
-241.932	-175.716	0.221	-0.006
-240.917	237.921	-0.069	0.113
-239.903	522.597	0.113	-0.262
-238.888	-19.656	0.135	0.082
-237.873	-200.000	-0.034	0.233
-236.859	800.000	-0.099	0.316
-235.844	800.000	0.077	-0.235
-234.830	800.000	-0.102	-0.281
-233.815	-200.000	-0.020	-0.223
-232.800	-200.000	-0.015	0.096
-231.786	-76.714	-0.024	0.008
-230.771	379.270	0.243	0.490
-229.757	159.619	-0.104	0.143
-228.742	-55.622	-0.159	-0.070
-227.727	-46.139	-0.199	-0.096
-226.713	-200.000	-0.024	-0.157
-225.698	-7.254	-0.176	0.117
-224.684	-200.000	-0.068	0.347
-223.669	-198.457	0.198	0.001
-222.655	-13.612	0.276	-0.176
-221.640	282.155	-0.187	-0.330
-220.625	800.000	-0.031	-0.133
-219.611	127.617	0.236	0.295
-218.596	-200.000	-0.059	0.273
-217.582	-200.000	0.052	0.299
-216.567	4.395	-0.182	0.131
-215.552	-42.212	-0.076	0.038
-214.538	58.046	-0.105	0.101
-213.523	-48.344	-0.186	-0.088
-212.509	-200.000	-0.064	-0.422
-211.494	-175.258	0.281	-0.008
-210.479	-45.225	0.183	-0.089
-209.465	-23.227	0.127	-0.075
-208.450	800.000	-0.019	0.063
-207.436	-4.791	0.092	-0.063
-206.421	-33.953	0.295	0.160
-205.406	31.353	-0.079	0.067
-204.392	-144.876	-0.143	0.013
-203.377	293.660	-0.061	-0.109
-202.363	21.997	0.056	0.045
-201.348	63.975	0.084	-0.083
-200.333	547.035	0.029	0.069
-199.319	232.177	0.113	-0.182
-198.304	800.000	-0.044	-0.129
-197.290	209.853	0.138	0.214
-196.275	-99.506	0.364	0.090
-195.260	-80.340	-0.089	0.029
-194.246	-70.495	0.220	-0.082
-193.231	426.411	0.175	-0.371
-192.217	400.342	-0.055	-0.113
-191.202	5.837	0.198	0.144
-190.187	792.409	0.136	0.369
-189.173	-69.992	0.167	-0.063
-188.158	-80.539	-0.139	-0.046
-187.144	207.410	0.132	0.203
-186.129	-174.627	-0.133	0.004
-185.114	261.819	-0.086	-0.146
-184.100	356.103	0.153	0.299
-183.085	6.755	-0.153	-0.112
-182.071	-177.815	0.194	-0.005
-181.056	-38.917	-0.187	0.097
-180.042	-102.950	0.280	-0.065
-179.027	425.095	0.082	-0.174
-178.012	-200.000	-0.028	0.273
-176.998	728.605	0.077	0.201
-175.983	-61.697	-0.114	-0.047
-174.969	26.248	-0.359	-0.295
-173.954	146.891	-0.149	-0.196
-172.939	-70.367	0.173	-0.064
-171.925	576.168	-0.081	0.194
-170.910	-120.563	-0.261	-0.044
-169.896	-24.012	0.271	0.160
-168.881	39.076	0.141	0.124
-167.866	-11.576	-0.134	-0.086
-166.852	130.220	-0.101	0.128
-165.837	-200.000	-0.004	-0.112
-164.823	-121.327	-0.143	-0.024
-163.808	20.017	-0.050	0.040
-162.793	-69.296	-0.145	-0.055
-161.779	-200.000	0.059	-0.436
-160.764	-59.274	-0.269	0.114
-159.750	303.231	0.140	-0.255
-158.735	-200.000	0.009	0.298
-157.720	800.000	-0.077	-0.220
-156.706	-159.711	0.291	0.016
-155.691	112.286	0.040	-0.047
-154.677	-40.957	-0.115	0.059
-153.662	-65.685	-0.199	0.078
-152.647	-109.350	0.074	0.016
-151.633	-43.581	0.219	-0.109
-150.618	-63.761	-0.319	-0.128
-149.604	123.170	-0.089	-0.109
-148.589	-102.546	0.240	-0.056
-147.574	738.293	-0.136	-0.357
-146.560	-92.592	0.136	0.037
-145.545	-200.000	0.006	0.082
-144.531	196.957	0.173	0.259
-143.516	-9.246	-0.272	-0.179
-142.502	163.895	0.077	0.106
-141.487	-120.344	0.356	0.059
-140.472	-144.630	-0.130	-0.012
-139.458	-199.661	0.264	-0.001
-138.443	-167.229	-0.144	0.006
-137.429	-85.179	-0.134	-0.041
-136.414	-152.793	0.284	0.020
-135.399	800.000	0.062	-0.179
-134.385	-137.608	0.202	0.022
-133.370	-200.000	-0.003	0.260
-132.356	800.000	0.158	0.519
-131.341	-33.133	0.331	-0.180
-130.326	86.593	-0.043	-0.046
-129.312	369.267	-0.147	-0.293
-128.297	-144.736	-0.116	0.010
-127.283	800.000	0.029	0.106
-126.268	-200.000	0.030	0.144
-125.253	100.012	-0.045	0.051
-124.239	108.626	-0.189	0.221
-123.224	32.848	0.191	0.162
-122.210	-168.771	-0.234	0.009
-121.195	36.587	-0.129	0.112
-120.180	800.000	0.021	0.071
-119.166	-52.971	-0.202	-0.091
-118.151	-7.228	-0.158	0.105
-117.137	-175.229	0.148	0.004
-116.122	526.623	0.104	-0.241
-115.107	52.566	-0.073	0.069
-114.093	800.000	-0.002	-0.008
-113.078	49.247	0.146	-0.135
-112.064	800.000	-0.023	-0.093
-111.049	50.664	0.157	0.145
-110.034	-23.215	-0.013	0.008
-109.020	-151.291	-0.057	0.004
-108.005	-160.622	-0.095	0.005
-106.991	-105.125	0.228	-0.051
-105.976	-200.000	-0.028	-0.126
-104.962	184.462	0.079	-0.115
-103.947	-15.677	-0.204	-0.128
-102.932	-107.737	-0.076	-0.016
-101.918	-200.000	0.018	-0.376
-100.903	189.581	0.031	-0.045
-99.889	-200.000	-0.002	-0.058
-98.874	-86.006	0.337	0.102
-97.859	-200.000	0.001	0.144
-96.845	11.418	-0.233	0.175
-95.830	-200.000	0.020	-0.212
-94.816	-126.182	0.216	-0.032
-93.801	32.382	0.088	-0.074
-92.786	800.000	0.043	0.180
-91.772	127.621	-0.047	0.059
-90.757	306.164	0.109	0.198
-89.743	-200.000	-0.031	-0.289
-88.728	-200.000	0.004	-0.159
-87.713	-75.240	-0.310	-0.108
-86.699	26.022	-0.198	-0.162
-85.684	-164.690	0.132	-0.006
-84.670	256.040	0.038	-0.064
-83.655	-50.180	-0.418	0.194
-82.640	-54.943	-0.187	0.083
-81.626	8.898	0.141	0.104
-80.611	-119.456	-0.069	-0.012
-79.597	-103.470	0.253	-0.058
-78.582	-61.753	-0.185	0.076
-77.567	700.059	0.098	0.253
-76.553	-47.965	-0.122	0.058
-75.538	112.369	0.140	0.166
-74.524	-102.248	-0.190	-0.045
-73.509	-74.090	-0.327	-0.116
-72.494	149.468	-0.180	0.239
-71.480	-65.563	0.123	0.048
-70.465	37.872	0.251	-0.219
-69.451	-115.257	0.266	-0.049
-68.436	-36.591	-0.103	0.054
-67.422	800.000	-0.046	0.144
-66.407	5.322	-0.235	0.170
-65.392	-200.000	-0.006	0.103
-64.378	51.223	-0.151	-0.140
-63.363	283.911	0.048	0.084
-62.349	-36.668	0.137	0.072
-61.334	15.026	-1.158	-0.887
-60.319	-9.459	0.661	0.432
-59.305	800.000	-0.302	-0.965
-58.290	152.601	0.915	1.223
-57.276	625.088	0.651	1.607
-56.261	-200.000	113.815	644.734
-55.246	530.369	1527.966	3533.251
-54.232	175.416	2708.769	3842.248
-53.217	101.919	2303.403	2630.403
-52.203	36.538	1906.852	1646.831
-51.188	30.487	1693.965	1416.938
-50.173	27.918	1652.034	1362.673
-49.159	49.419	1707.595	1572.007
-48.144	48.178	1721.697	1575.537
-47.130	30.029	1679.188	1400.892
-46.115	27.345	1664.646	1368.556
-45.100	27.228	1659.959	1363.768
-44.086	27.113	1656.896	1360.338
-43.071	27.139	1654.437	1358.455
-42.057	27.014	1652.768	1356.103
-41.042	27.109	1650.115	1354.575
-40.027	27.170	1648.095	1353.323
-39.013	27.075	1646.163	1350.974
-37.998	27.047	1644.753	1349.551
-36.984	27.250	1642.998	1349.570
-35.969	27.271	1641.731	1348.627
-34.954	27.287	1639.723	1347.047
-33.940	27.241	1638.237	1345.430
-32.925	27.243	1636.258	1343.768
-31.911	27.216	1634.872	1342.377
-30.896	27.215	1633.068	1340.837
-29.881	27.176	1631.548	1339.245
-28.867	27.277	1629.407	1338.181
-27.852	27.141	1628.295	1336.212
-26.838	27.201	1626.742	1335.327
-25.823	27.172	1625.387	1333.948
-24.809	27.320	1623.991	1333.836
-23.794	27.203	1622.361	1331.586
-22.779	27.319	1620.969	1331.237
-21.765	27.370	1618.963	1329.910
-20.750	27.287	1617.917	1328.395
-19.736	27.365	1616.222	1327.515
-18.721	27.366	1614.407	1325.979
-17.706	27.235	1614.010	1324.646
-16.692	27.290	1612.054	1323.392
-15.677	27.274	1610.731	1322.139
-14.663	27.331	1608.999	1321.074
-13.648	27.302	1607.740	1319.777
-12.633	27.220	1606.126	1317.804
-11.619	27.245	1605.040	1317.044
-10.604	27.282	1603.223	1315.769
-9.590	27.344	1602.212	1315.334
-8.575	27.261	1600.945	1313.646
-7.560	27.267	1600.267	1313.080
-6.546	27.355	1598.339	1312.078
-5.531	27.297	1597.464	1310.894
-4.517	27.223	1596.781	1309.744
-3.502	27.185	1595.546	1308.405
-2.487	27.426	1593.247	1308.199
-1.473	27.104	1581.869	1296.510
-0.458	24.572	1562.630	1262.816
0.556	23.109	1564.260	1231.776
1.571	20.714	1589.062	1234.230
2.586	20.150	1600.629	1239.073
3.600	18.024	1546.447	1182.331
4.615	11.294	1439.084	1056.666
5.629	5.221	1379.488	974.997
6.644	4.279	1371.795	963.624
7.659	4.289	1371.042	963.074
8.673	4.248	1370.100	962.071
9.688	4.294	1368.449	961.110
10.702	4.249	1365.590	958.738
11.717	7.134	1370.492	979.973
12.731	14.606	1384.636	1036.577
13.746	20.789	1394.577	1082.487
14.761	22.495	1396.068	1094.155
15.775	21.961	1393.985	1089.116
16.790	20.883	1392.021	1080.800
17.804	20.145	1389.870	1074.463
18.819	19.843	1388.758	1071.635
19.834	19.773	1387.997	1070.520
20.848	19.796	1386.247	1069.221
21.863	19.583	1385.476	1067.212
22.877	19.326	1384.596	1064.853
23.892	19.366	1383.425	1064.107
24.907	19.398	1382.424	1063.437
25.921	19.314	1381.901	1062.429
26.936	19.377	1380.945	1061.987
27.950	19.612	1379.139	1061.950
28.965	19.572	1378.640	1061.220
29.980	19.761	1377.686	1061.552
30.994	19.877	1377.161	1061.768
32.009	19.845	1375.644	1060.307
33.023	19.942	1373.933	1059.492
34.038	19.771	1372.998	1057.630
35.053	19.673	1371.959	1056.138
36.067	19.538	1370.946	1054.439
37.082	19.664	1370.133	1054.491
38.096	19.739	1369.556	1054.409
39.111	19.755	1368.616	1053.690
40.126	19.506	1367.782	1051.435
41.140	19.161	1366.918	1048.580
42.155	19.094	1365.734	1047.169
43.169	19.159	1365.502	1047.294
44.184	19.082	1364.890	1046.265
45.199	19.083	1365.090	1046.333
46.213	19.315	1364.868	1047.478
47.228	19.639	1363.854	1048.573
48.242	19.588	1362.741	1047.316
49.257	19.455	1361.696	1045.615
50.271	19.497	1359.876	1044.383
51.286	19.582	1358.629	1043.846
52.301	19.479	1357.275	1042.087
53.315	19.294	1356.586	1040.351
54.330	19.173	1355.235	1038.492
55.344	19.214	1353.721	1037.486
56.359	19.226	1352.496	1036.533
57.374	19.114	1351.813	1035.244
58.388	18.951	1351.397	1033.852
59.403	18.996	1350.469	1033.320
60.417	19.033	1349.964	1033.064
61.432	19.088	1348.703	1032.336
62.447	18.863	1347.934	1030.310
63.461	18.900	1346.428	1029.286
64.476	18.836	1345.965	1028.461
65.490	18.775	1344.731	1027.065
66.505	18.917	1342.658	1026.233
67.520	18.902	1341.923	1025.492
68.534	18.850	1341.366	1024.664
69.549	18.810	1340.293	1023.518
70.563	18.781	1338.844	1022.148
71.578	18.657	1337.908	1020.604
72.593	18.577	1336.918	1019.285
73.607	18.578	1336.389	1018.799
74.622	18.604	1335.641	1018.293
75.636	18.713	1334.931	1018.306
76.651	18.720	1334.353	1017.817
77.666	18.816	1333.655	1017.765
78.680	18.856	1333.662	1017.915
79.695	18.984	1332.731	1017.872
80.709	19.133	1331.823	1017.973
81.724	19.157	1331.571	1017.832
82.739	19.210	1330.635	1017.336
83.753	19.296	1329.838	1017.147
84.768	19.463	1328.803	1017.251
85.782	19.683	1328.054	1017.883
86.797	19.604	1326.697	1016.283
87.812	19.555	1324.985	1014.595
88.826	19.543	1324.075	1013.741
89.841	19.547	1323.139	1012.957
90.855	19.739	1322.198	1013.272
91.870	19.840	1321.534	1013.263
92.884	19.755	1320.896	1012.192
93.899	19.790	1319.942	1011.572
94.914	19.880	1319.230	1011.466
95.928	19.744	1318.622	1010.113
96.943	19.829	1317.366	1009.558
97.957	19.664	1316.222	1007.629
98.972	19.588	1315.481	1006.532
99.987	19.686	1314.171	1006.012
101.001	19.663	1313.883	1005.569
102.016	19.610	1312.655	1004.227
103.030	19.689	1312.016	1004.114
104.045	19.673	1311.106	1003.230
105.060	19.515	1309.680	1001.139
106.074	19.198	1307.738	997.728
107.089	19.093	1305.784	995.543
108.103	18.850	1304.839	993.331
109.118	18.930	1303.581	992.744
110.133	18.851	1302.312	991.233
111.147	18.956	1301.115	990.842
112.162	18.995	1300.190	990.274
113.176	18.984	1298.848	989.099
114.191	19.071	1298.141	988.973
115.206	19.074	1297.083	988.100
116.220	19.033	1295.574	986.629
117.235	19.029	1294.662	985.824
118.249	19.001	1293.475	984.672
119.264	18.853	1292.921	983.315
120.279	18.909	1291.141	982.193
121.293	18.784	1290.250	980.716
122.308	18.667	1289.122	979.102
123.322	18.761	1287.816	978.563
124.337	18.602	1286.916	976.887
125.352	18.588	1285.920	975.962
126.366	18.636	1285.129	975.551
127.381	18.622	1283.599	974.225
128.395	18.554	1282.620	973.008
129.410	18.744	1282.108	973.611
130.424	18.870	1281.242	973.582
131.439	18.895	1280.515	973.085
132.454	18.899	1279.593	972.319
133.468	19.038	1278.890	972.482
134.483	19.031	1278.231	971.860
135.497	18.934	1277.436	970.617
136.512	19.103	1275.889	970.314
137.527	19.051	1274.921	969.196
138.541	19.240	1273.495	969.092
139.556	19.272	1272.542	968.459
140.570	19.410	1271.388	968.269
141.585	19.380	1270.223	967.126
142.600	19.569	1269.330	967.421
143.614	19.628	1268.527	967.057
144.629	19.664	1267.829	966.640
145.643	19.631	1266.859	965.628
146.658	19.343	1265.320	962.762
147.673	19.271	1263.320	960.757
148.687	19.160	1261.869	958.948
149.702	19.065	1260.868	957.576
150.716	19.054	1259.241	956.191
151.731	19.004	1258.301	955.114
152.746	19.154	1257.015	954.889
153.760	19.170	1256.550	954.537
154.775	19.305	1255.009	954.030
155.789	19.286	1254.659	953.573
156.804	19.532	1253.235	953.769
157.819	19.530	1252.794	953.336
158.833	19.604	1251.786	952.892
159.848	19.786	1251.144	953.325
160.862	19.572	1250.506	951.574
161.877	19.284	1248.747	948.564
162.892	19.113	1247.321	946.461
163.906	19.219	1245.745	945.759
164.921	19.018	1245.567	944.441
165.935	19.247	1244.788	945.023
166.950	19.338	1243.810	944.695
167.964	19.360	1243.339	944.372
168.979	19.328	1242.277	943.308
169.994	19.330	1241.471	942.625
171.008	19.280	1241.147	942.018
172.023	19.424	1240.108	941.932
173.037	19.470	1239.635	941.745
174.052	19.528	1238.773	941.319
175.067	19.286	1237.556	938.996
176.081	19.211	1236.219	937.491
177.096	19.104	1235.451	936.241
178.110	19.228	1233.937	935.688
179.125	19.308	1233.253	935.516
180.140	19.273	1232.346	934.556
181.154	19.482	1230.994	934.579
182.169	19.524	1230.116	934.059
183.183	19.616	1228.914	933.561
184.198	19.620	1228.334	933.061
185.213	19.622	1226.610	931.678
186.227	19.709	1226.012	931.610
187.242	19.692	1225.405	930.974
188.256	19.911	1224.058	931.048
189.271	19.919	1223.357	930.477
190.286	19.678	1221.829	927.939
191.300	19.173	1220.610	924.218
192.315	19.128	1219.913	923.369
193.329	19.188	1219.328	923.168
194.344	19.319	1218.931	923.487
195.359	19.280	1218.500	922.868
196.373	19.457	1217.949	923.319
197.388	19.526	1217.425	923.208
198.402	19.759	1217.648	924.541
199.417	19.841	1216.720	924.193
200.432	19.993	1216.019	924.386
201.446	20.098	1215.322	924.335
202.461	20.158	1214.527	923.971
203.475	20.197	1213.699	923.466
204.490	19.894	1211.754	920.291
205.504	19.809	1210.329	918.678
206.519	19.656	1209.492	917.148
207.534	19.599	1208.314	915.875
208.548	19.602	1207.294	915.037
209.563	19.705	1206.567	914.950
210.577	19.629	1206.025	914.055
211.592	19.824	1204.973	914.204
212.607	19.933	1204.120	914.054
213.621	19.946	1203.093	913.262
214.636	19.822	1202.287	911.914
215.650	19.827	1201.804	911.495
216.665	20.058	1200.390	911.557
217.680	20.228	1199.797	911.920
218.694	20.373	1198.901	911.919
219.709	20.292	1198.151	910.847
220.723	20.113	1197.696	909.478
221.738	20.169	1196.497	908.783
222.753	20.158	1195.691	908.030
223.767	20.169	1195.142	907.591
224.782	20.292	1194.665	907.795
225.796	20.326	1194.471	907.741
226.811	20.395	1193.131	907.005
227.826	20.146	1192.682	905.282
228.840	20.005	1191.765	903.770
229.855	20.040	1190.849	903.180
230.869	20.051	1190.062	902.559
231.884	19.875	1189.471	901.113
232.899	19.946	1188.522	900.684
233.913	19.708	1187.668	898.724
234.928	19.757	1186.623	898.107
235.942	19.707	1185.751	897.109
236.957	19.635	1185.221	896.254
237.972	19.717	1184.406	895.981
238.986	19.799	1183.557	895.685
240.001	19.707	1182.933	894.655
241.015	19.896	1181.977	894.835
242.030	19.996	1181.233	894.707
243.045	19.999	1180.868	894.366
244.059	20.069	1180.036	894.019
245.074	20.165	1179.311	893.885
246.088	20.144	1179.061	893.507
247.103	20.261	1178.323	893.474
248.117	20.458	1177.497	893.779
249.132	20.503	1176.921	893.494
250.147	20.822	1176.527	894.757
251.161	20.984	1175.854	894.997
252.176	20.876	1175.510	894.103
253.190	21.040	1174.750	894.285
254.205	21.159	1174.477	894.609
255.220	21.154	1173.557	893.801
256.234	21.192	1172.816	893.352
257.249	21.084	1172.050	892.138
258.263	21.019	1171.460	891.281
259.278	21.023	1170.817	890.731
260.293	21.105	1170.260	890.649
261.307	21.136	1169.955	890.494
262.322	21.271	1169.084	890.439
263.336	21.233	1168.459	889.693
264.351	21.100	1168.010	888.597
265.366	21.163	1167.387	888.363
266.380	21.181	1166.568	887.755
267.395	21.145	1165.610	886.763
268.409	21.004	1164.073	884.798
269.424	20.958	1163.743	884.238
270.439	20.979	1163.263	883.901
271.453	20.952	1162.548	883.143
272.468	20.861	1161.351	881.695
273.482	20.795	1160.423	880.579
274.497	20.739	1160.457	880.242
275.512	20.788	1159.427	879.630
276.526	20.834	1158.839	879.341
277.541	20.743	1158.183	878.305
278.555	20.926	1157.272	878.457
279.570	21.017	1156.802	878.483
280.585	21.209	1156.142	878.872
281.599	21.153	1155.364	877.919
282.614	21.070	1153.934	876.337
283.628	20.932	1152.697	874.630
284.643	20.760	1152.225	873.331
285.657	20.823	1150.951	872.600
286.672	20.881	1150.105	872.173
287.687	21.090	1149.238	872.486
288.701	20.880	1148.676	870.933
289.716	21.034	1147.893	871.030
290.730	21.046	1146.983	870.322
291.745	21.132	1146.355	870.200
292.760	21.004	1146.068	869.263
293.774	21.173	1145.515	869.612
294.789	21.266	1144.876	869.513
295.803	21.302	1143.917	868.884
296.818	21.132	1143.233	867.445
297.833	20.997	1142.669	866.269
298.847	21.006	1141.862	865.626
299.862	21.054	1140.670	864.880
300.876	21.092	1140.415	864.802
301.891	21.289	1139.453	864.971
302.906	21.335	1139.012	864.789
303.920	21.442	1138.767	865.056
304.935	21.499	1138.573	865.112
305.949	21.591	1137.457	864.640
306.964	21.569	1137.350	864.375
307.979	21.435	1136.063	862.661
308.993	21.419	1135.062	861.744
310.008	21.622	1134.274	862.069
311.022	21.705	1133.716	861.976
312.037	21.550	1132.748	860.404
313.052	21.331	1131.703	858.457
314.066	21.209	1130.660	856.990
315.081	20.908	1129.971	854.918
316.095	20.982	1128.735	854.267
317.110	21.043	1128.374	854.222
318.125	21.107	1127.334	853.669
319.139	21.029	1126.866	852.857
320.154	21.110	1126.167	852.651
321.168	21.063	1125.557	851.883
322.183	21.075	1125.028	851.465
323.197	21.255	1124.269	851.694
324.212	21.155	1123.643	850.656
325.227	21.238	1123.232	850.675
326.241	21.139	1122.954	849.903
327.256	21.207	1122.070	849.492
328.270	21.135	1120.825	848.126
329.285	21.205	1119.751	847.577
330.300	21.222	1118.973	846.996
331.314	21.191	1118.084	846.096
332.329	21.116	1117.327	845.087
333.343	21.235	1116.584	845.024
334.358	21.500	1115.658	845.531
335.373	21.566	1115.328	845.526
336.387	21.431	1114.728	844.343
337.402	21.515	1113.680	843.881
338.416	21.624	1113.048	843.853
339.431	21.691	1112.424	843.624
340.446	21.821	1112.266	844.059
341.460	22.025	1111.202	844.157
342.475	22.080	1110.612	843.896
343.489	21.991	1110.069	842.983
344.504	22.136	1109.044	842.828
345.519	22.055	1108.499	841.951
346.533	22.234	1107.440	841.928
347.548	22.064	1107.259	840.899
348.562	22.142	1106.021	840.261
349.577	21.913	1104.999	838.316
350.592	21.764	1103.762	836.590
351.606	21.563	1102.878	834.890
352.621	21.553	1102.380	834.392
353.635	21.506	1101.464	833.400
354.650	21.567	1100.751	833.078
355.665	21.688	1100.127	833.105
356.679	21.794	1099.857	833.330
357.694	21.846	1099.290	833.075
358.708	21.965	1098.380	832.875
359.723	21.891	1097.815	832.024
360.738	21.917	1097.119	831.548
361.752	21.830	1096.775	830.799
362.767	22.022	1096.153	831.165
363.781	21.984	1095.479	830.397
364.796	22.056	1095.241	830.483
365.810	22.140	1094.977	830.608
366.825	22.464	1093.994	831.318
367.840	22.392	1093.865	830.810
368.854	22.537	1093.287	830.979
369.869	22.541	1092.231	830.124
370.883	22.370	1091.337	828.566
371.898	22.185	1090.319	826.848
372.913	22.339	1089.760	827.075
373.927	22.302	1089.917	826.949
374.942	22.483	1089.220	827.194
375.956	22.323	1088.679	825.958
376.971	22.416	1087.555	825.471
377.986	22.451	1087.464	825.490
379.000	22.521	1086.975	825.375
380.015	22.556	1086.242	824.910
381.029	22.712	1085.833	825.255
382.044	22.769	1084.879	824.723
383.059	22.671	1084.276	823.736
384.073	22.726	1083.594	823.401
385.088	22.723	1082.742	822.667
386.102	22.698	1081.450	821.497
387.117	22.266	1080.417	818.628
388.132	22.238	1079.437	817.683
389.146	22.291	1078.555	817.188
390.161	22.211	1077.662	816.068
391.175	22.204	1077.267	815.662
392.190	22.311	1076.913	815.821
393.205	22.610	1075.861	816.335
394.219	22.479	1075.373	815.286
395.234	22.435	1074.197	814.119
396.248	22.442	1073.021	813.188
397.263	22.360	1071.743	811.770
398.278	22.184	1071.279	810.538
399.292	22.128	1070.526	809.636
400.307	22.019	1069.821	808.531
401.321	22.081	1069.118	808.214
402.336	22.129	1068.413	807.828
403.350	22.036	1067.922	806.960
404.365	22.208	1067.213	807.139
405.380	22.360	1066.551	807.268
406.394	22.263	1065.791	806.177
407.409	22.517	1064.984	806.656
408.423	22.644	1064.813	807.038
409.438	22.747	1064.212	806.979
410.453	22.756	1063.603	806.488
411.467	22.891	1062.961	806.548
412.482	22.832	1062.313	805.713
413.496	22.937	1061.678	805.643
414.511	23.151	1060.988	806.022
415.526	23.252	1061.120	806.509
416.540	23.343	1060.511	806.392
417.555	23.210	1059.936	805.277
418.569	23.146	1058.999	804.204
419.584	23.159	1058.356	803.701
420.599	22.988	1058.125	802.680
421.613	157.488	1402.829	1795.799
422.628	144.790	1453.002	1795.879
