DTS Sentinel unit serial number:	SN413079Multiplexer serial number:	ORYXHardware model number:	OX4-SRSoftware version number:	ORYX F/W v4.00 Oryx Data Collector v3.7.2.0data status	okinstallation	princeton_trtdifferential loss correction	single-endedforward channel	channel 2reverse channel	N/Adate	2019/09/13time	23:59:34forward acquisition time	60.00reverse acquisition time	0.00gamma	496.2192k internal	0.2338k external	0.2338temperature offset calibration	1.0127default loss term (dB/km)	0.3790temperature slope calibration	1.0000multiplexer offset coefficient	1.0000multiplexer slope coefficient	1.0000fibre end	0.00T internal ref (°C)	26.55T ext. ref 1 (°C)	3.16T ext. ref 2 (°C)	21.36length (m)	temperature (°C)	Stokes	anti-Stokes-747.200	544.135	0.131	-0.314
-746.185	639.765	-0.113	0.287
-745.171	119.783	0.286	0.355
-744.156	31.489	0.074	0.064
-743.142	155.046	0.126	-0.174
-742.127	19.737	-0.245	0.198
-741.112	112.832	-0.043	0.052
-740.098	-157.883	0.121	-0.007
-739.083	595.064	0.100	-0.248
-738.069	-200.000	0.018	0.309
-737.054	800.000	0.015	0.047
-736.039	-153.388	-0.435	-0.030
-735.025	800.000	-0.043	0.131
-734.010	-41.146	-0.128	-0.066
-732.996	95.366	-0.256	-0.292
-731.981	-172.754	-0.116	-0.004
-730.966	-65.662	0.079	-0.032
-729.952	284.137	-0.101	0.182
-728.937	-130.086	-0.184	0.025
-727.923	633.685	0.142	0.361
-726.908	196.606	-0.135	-0.207
-725.894	-200.000	0.023	-0.117
-724.879	800.000	0.106	0.304
-723.864	9.853	-0.235	0.178
-722.850	-200.000	-0.037	0.200
-721.835	-56.527	-0.434	-0.193
-720.821	-29.877	-0.153	-0.088
-719.806	69.482	0.137	-0.141
-718.791	45.847	-0.194	0.180
-717.777	-200.000	0.059	-0.431
-716.762	-200.000	0.016	0.280
-715.748	-20.765	0.220	0.135
-714.733	475.250	0.083	0.187
-713.718	-200.000	0.000	-0.096
-712.704	648.464	-0.094	-0.241
-711.689	222.615	-0.065	0.104
-710.675	-200.000	0.002	0.014
-709.660	169.366	-0.087	0.125
-708.645	800.000	-0.020	-0.057
-707.631	800.000	0.028	0.096
-706.616	153.771	-0.247	-0.338
-705.602	4.094	-0.319	0.233
-704.587	-200.000	0.035	-0.287
-703.572	342.467	-0.086	-0.169
-702.558	-200.000	-0.056	-0.449
-701.543	362.816	0.081	0.162
-700.529	800.000	-0.100	0.280
-699.514	-120.058	-0.365	0.063
-698.499	-46.870	-0.027	-0.013
-697.485	-200.000	-0.007	0.253
-696.470	-157.133	-0.196	-0.012
-695.456	34.874	0.385	-0.337
-694.441	501.415	0.017	0.039
-693.426	25.082	-0.040	-0.033
-692.412	-163.457	-0.267	0.013
-691.397	-200.000	-0.008	0.042
-690.383	-200.000	-0.003	-0.128
-689.368	-55.736	-0.254	0.114
-688.354	-200.000	0.004	0.088
-687.339	252.641	-0.269	-0.459
-686.324	-53.433	-0.092	-0.042
-685.310	-200.000	-0.050	-0.267
-684.295	125.338	-0.232	-0.292
-683.281	-143.819	-0.136	-0.013
-682.266	-70.084	-0.115	-0.044
-681.251	36.214	0.244	0.216
-680.237	-100.040	0.289	0.072
-679.222	5.538	-0.096	-0.071
-678.208	-200.000	0.041	-0.371
-677.193	157.363	-0.148	-0.204
-676.178	84.324	-0.046	-0.050
-675.164	605.572	0.104	-0.258
-674.149	-133.057	-0.077	-0.010
-673.135	-84.864	-0.301	-0.095
-672.120	1.749	0.114	0.082
-671.105	-28.722	-0.162	0.093
-670.091	295.018	-0.124	-0.226
-669.076	21.537	0.135	-0.110
-668.062	148.288	-0.270	-0.364
-667.047	-67.111	0.354	-0.140
-666.032	550.652	0.077	0.186
-665.018	-146.874	-0.168	0.014
-664.003	-75.321	-0.166	0.059
-662.989	-133.678	-0.175	-0.022
-661.974	132.745	0.073	0.094
-660.959	-94.916	-0.257	-0.069
-659.945	-144.701	0.276	-0.025
-658.930	-58.436	0.176	-0.077
-657.916	270.877	0.115	0.202
-656.901	394.100	-0.048	-0.100
-655.886	-200.000	0.043	-0.213
-654.872	237.419	-0.153	0.254
-653.857	-158.962	-0.262	-0.015
-652.843	3.476	-0.339	-0.247
-651.828	-27.927	0.125	-0.072
-650.814	-8.497	0.201	-0.135
-649.799	-31.919	-0.240	0.134
-648.784	18.938	-0.132	-0.106
-647.770	91.084	-0.046	-0.052
-646.755	175.362	0.077	-0.111
-645.741	578.594	-0.078	-0.191
-644.726	37.063	0.169	0.150
-643.711	-200.000	-0.003	-0.405
-642.697	-147.757	-0.083	-0.007
-641.682	-200.000	0.003	-0.174
-640.668	111.600	0.108	0.130
-639.653	800.000	-0.143	-0.399
-638.638	-147.910	-0.270	0.022
-637.624	222.415	0.165	-0.265
-636.609	-139.958	-0.327	-0.034
-635.595	-124.766	0.139	0.021
-634.580	800.000	-0.045	-0.189
-633.565	-18.174	0.277	0.173
-632.551	-200.000	-0.071	-0.346
-631.536	-200.000	-0.025	-0.401
-630.522	325.107	0.028	0.053
-629.507	33.602	-0.084	0.073
-628.492	800.000	-0.032	-0.110
-627.478	-72.922	-0.342	-0.126
-626.463	-73.844	0.114	0.041
-625.449	-35.604	0.293	-0.159
-624.434	335.452	0.044	0.085
-623.419	-200.000	-0.031	0.164
-622.405	-67.680	0.162	-0.063
-621.390	-39.400	0.184	0.096
-620.376	-67.668	0.090	0.035
-619.361	-200.000	-0.006	-0.093
-618.346	-200.000	-0.002	-0.189
-617.332	-200.000	0.019	-0.088
-616.317	-200.000	0.025	0.132
-615.303	-200.000	0.049	0.248
-614.288	657.406	-0.100	0.257
-613.273	262.496	0.037	-0.064
-612.259	33.542	-0.176	-0.152
-611.244	800.000	-0.020	-0.062
-610.230	-200.000	0.059	0.280
-609.215	-36.949	0.269	-0.144
-608.201	2.393	0.131	-0.094
-607.186	-30.668	-0.200	-0.113
-606.171	-12.073	-0.191	0.125
-605.157	730.411	0.111	-0.295
-604.142	-98.472	-0.357	-0.091
-603.128	-200.000	-0.033	0.234
-602.113	-20.343	0.335	-0.206
-601.098	-40.627	0.152	0.079
-600.084	474.093	0.070	-0.157
-599.069	25.366	-0.055	-0.045
-598.055	-200.000	0.015	-0.169
-597.040	-21.140	0.163	0.099
-596.025	-143.276	0.088	-0.008
-595.011	214.570	0.138	0.217
-593.996	-62.392	0.139	-0.057
-592.982	257.005	-0.099	-0.170
-591.967	746.759	0.040	-0.106
-590.952	-5.525	-0.169	-0.116
-589.938	-79.470	-0.052	-0.017
-588.923	-172.675	0.136	0.004
-587.909	-69.523	0.459	0.175
-586.894	181.461	0.099	0.145
-585.879	159.359	-0.256	-0.355
-584.865	731.984	0.013	-0.035
-583.850	-87.060	0.201	0.061
-582.836	-55.824	-0.357	0.159
-581.821	-64.544	-0.564	0.228
-580.806	48.159	-0.315	0.294
-579.792	-4.895	-0.140	0.096
-578.777	800.000	0.066	0.250
-577.763	-15.829	-0.018	0.011
-576.748	-50.442	0.402	-0.189
-575.733	-200.000	-0.036	-0.227
-574.719	800.000	-0.025	0.084
-573.704	-124.084	0.314	-0.049
-572.690	633.550	-0.131	0.332
-571.675	106.006	0.118	-0.139
-570.661	-18.368	-0.092	0.057
-569.646	-23.525	-0.200	0.120
-568.631	216.060	0.049	-0.077
-567.617	21.801	0.244	-0.198
-566.602	800.000	-0.096	0.304
-565.588	181.049	-0.127	-0.186
-564.573	743.977	0.044	-0.119
-563.558	800.000	0.069	-0.242
-562.544	-77.209	0.308	-0.107
-561.529	-158.931	-0.167	-0.009
-560.515	258.434	-0.049	0.084
-559.500	-34.369	0.108	0.059
-558.485	-24.428	-0.316	0.188
-557.471	-200.000	0.022	0.276
-556.456	51.496	0.055	0.052
-555.442	14.876	-0.329	0.256
-554.427	-7.609	0.056	-0.038
-553.412	39.887	-0.244	-0.218
-552.398	20.089	-0.221	0.178
-551.383	-93.426	0.244	0.067
-550.369	-200.000	0.039	-0.253
-549.354	-15.222	-0.019	0.012
-548.339	-200.000	-0.034	0.486
-547.325	33.029	-0.231	-0.200
-546.310	-200.000	0.003	-0.170
-545.296	49.412	0.128	0.120
-544.281	694.339	-0.022	-0.057
-543.266	229.571	-0.056	-0.091
-542.252	800.000	-0.093	0.318
-541.237	212.020	-0.218	0.342
-540.223	-94.793	-0.156	-0.042
-539.208	800.000	0.108	0.370
-538.193	11.300	-0.203	0.155
-537.179	21.630	-0.102	-0.083
-536.164	-108.373	-0.079	0.017
-535.150	-179.984	0.248	0.005
-534.135	202.013	0.064	-0.098
-533.121	186.093	0.221	-0.328
-532.106	151.385	-0.047	-0.064
-531.091	-84.768	-0.329	0.103
-530.077	8.330	0.063	-0.047
-529.062	253.587	0.070	0.120
-528.048	-6.799	-0.102	0.069
-527.033	35.050	0.186	0.162
-526.018	-111.235	-0.149	-0.030
-525.004	-148.312	0.099	-0.008
-523.989	388.419	0.087	0.179
-522.975	-194.171	-0.339	-0.003
-521.960	-200.000	-0.033	-0.159
-520.945	800.000	0.096	0.288
-519.931	-200.000	-0.037	-0.212
-518.916	-46.244	0.274	-0.134
-517.902	-121.142	0.141	-0.023
-516.887	13.735	0.255	-0.197
-515.872	-200.000	-0.019	0.130
-514.858	-83.074	0.394	0.126
-513.843	334.065	0.047	-0.090
-512.829	0.381	-0.023	0.017
-511.814	563.002	0.096	-0.232
-510.799	42.703	-0.223	-0.202
-509.785	-200.000	0.008	-0.113
-508.770	228.122	0.103	0.167
-507.756	800.000	-0.052	-0.165
-506.741	42.382	0.273	-0.247
-505.726	-30.562	0.258	-0.145
-504.712	41.646	-0.215	-0.193
-503.697	-119.090	0.136	0.024
-502.683	187.360	0.074	0.110
-501.668	208.885	0.184	0.286
-500.653	-66.718	-0.426	0.167
-499.639	-156.972	-0.210	-0.013
-498.624	-85.720	0.156	0.048
-497.610	81.873	-0.290	-0.312
-496.595	-114.766	0.215	-0.041
-495.581	-200.000	-0.009	0.177
-494.566	-200.000	0.025	0.269
-493.551	96.261	-0.105	0.119
-492.537	-42.587	0.076	-0.038
-491.522	28.016	-0.383	0.321
-490.508	285.777	0.104	0.186
-489.493	-29.661	-0.164	-0.093
-488.478	23.615	0.078	-0.064
-487.464	-46.707	0.209	0.102
-486.449	-76.311	-0.177	-0.062
-485.435	613.871	-0.050	0.123
-484.420	-18.115	-0.315	0.196
-483.405	-200.000	-0.046	-0.254
-482.391	-25.173	-0.201	-0.118
-481.376	-200.000	0.000	-0.195
-480.362	-8.436	0.202	-0.135
-479.347	205.071	-0.223	-0.343
-478.332	-89.958	-0.439	-0.127
-477.318	-51.982	0.114	0.053
-476.303	800.000	-0.075	-0.260
-475.289	-200.000	-0.022	-0.120
-474.274	-46.785	0.132	0.064
-473.259	738.183	0.080	0.212
-472.245	114.948	0.221	-0.268
-471.230	-99.539	-0.286	0.071
-470.216	176.601	0.044	-0.064
-469.201	800.000	0.044	0.167
-468.186	-200.000	-0.007	-0.058
-467.172	-58.440	-0.347	0.150
-466.157	800.000	0.024	-0.101
-465.143	800.000	-0.054	-0.190
-464.128	-144.466	0.174	-0.016
-463.113	-12.943	0.123	0.080
-462.099	-128.051	0.343	-0.049
-461.084	196.370	0.064	0.097
-460.070	-200.000	-0.018	-0.092
-459.055	191.134	-0.154	-0.229
-458.040	17.093	-0.142	0.112
-457.026	127.907	-0.177	-0.223
-456.011	-147.083	-0.246	-0.021
-454.997	348.696	0.064	0.125
-453.982	302.641	-0.056	-0.103
-452.968	-80.651	0.010	-0.003
-451.953	169.823	0.149	-0.211
-450.938	-13.933	-0.219	0.140
-449.924	67.269	0.121	-0.123
-448.909	-154.510	-0.223	0.015
-447.895	94.415	-0.074	-0.083
-446.880	-3.543	-0.202	0.139
-445.865	39.395	-0.210	0.187
-444.851	27.039	0.057	-0.047
-443.836	-200.000	0.004	-0.085
-442.822	-58.308	0.256	0.111
-441.807	-164.782	0.444	0.020
-440.792	-41.243	0.152	-0.077
-439.778	99.303	0.027	-0.031
-438.763	208.788	0.199	0.308
-437.749	-16.608	-0.296	0.186
-436.734	177.886	0.213	-0.308
-435.719	-163.870	-0.325	0.015
-434.705	-48.452	-0.326	0.155
-433.690	-59.125	-0.449	0.192
-432.676	-73.188	0.409	0.149
-431.661	19.848	-0.104	-0.083
-430.646	378.199	-0.107	-0.217
-429.632	-49.283	0.342	0.162
-428.617	800.000	0.059	-0.191
-427.603	800.000	-0.029	-0.101
-426.588	36.927	0.309	-0.270
-425.573	-61.226	-0.105	-0.044
-424.559	0.102	-0.072	0.051
-423.544	-200.000	-0.003	-0.060
-422.530	51.578	0.245	-0.231
-421.515	-45.112	-0.178	-0.088
-420.500	-37.672	0.302	-0.160
-419.486	173.578	0.056	-0.080
-418.471	-37.303	-0.142	-0.075
-417.457	-98.017	0.045	-0.011
-416.442	198.530	-0.105	0.159
-415.428	-200.000	0.023	0.152
-414.413	262.017	-0.110	0.189
-413.398	-200.000	0.022	-0.240
-412.384	271.476	-0.081	-0.141
-411.369	174.159	-0.290	0.415
-410.355	241.869	0.161	0.266
-409.340	-59.993	0.232	0.098
-408.325	791.873	0.075	0.204
-407.311	94.290	-0.070	-0.079
-406.296	-200.000	-0.052	-0.413
-405.282	-131.561	0.220	0.029
-404.267	21.230	-0.113	-0.091
-403.252	-71.085	0.122	-0.045
-402.238	-200.000	0.010	-0.098
-401.223	800.000	-0.041	0.162
-400.209	-23.706	-0.318	0.189
-399.194	231.793	-0.041	-0.066
-398.179	38.833	-0.308	-0.272
-397.165	-81.255	0.382	-0.125
-396.150	149.837	0.209	0.281
-395.136	43.571	0.087	-0.079
-394.121	19.418	-0.195	0.155
-393.106	-67.729	-0.153	0.059
-392.092	-56.384	0.065	-0.029
-391.077	-46.495	-0.263	0.128
-390.063	-0.508	0.059	-0.041
-389.048	-174.865	0.274	0.008
-388.033	60.094	-0.038	0.037
-387.019	-41.099	-0.234	-0.120
-386.004	-48.712	0.108	0.051
-384.990	-79.037	0.150	0.050
-383.975	-200.000	0.026	0.173
-382.960	-145.287	-0.279	0.025
-381.946	286.221	-0.051	-0.092
-380.931	635.775	-0.093	0.232
-379.917	-200.000	-0.030	-0.169
-378.902	-169.769	-0.230	0.008
-377.888	-109.596	-0.309	0.064
-376.873	-87.853	0.289	0.086
-375.858	427.713	0.042	0.090
-374.844	-140.969	-0.160	0.016
-373.829	-35.409	-0.300	-0.161
-372.815	-177.920	0.059	0.001
-371.800	68.220	0.377	0.382
-370.785	493.940	0.161	0.366
-369.771	-200.000	-0.089	0.394
-368.756	391.011	0.084	-0.171
-367.742	86.328	0.183	0.199
-366.727	676.555	-0.157	0.402
-365.712	-122.615	-0.143	-0.023
-364.698	180.021	0.177	0.256
-363.683	-2.279	-0.270	0.187
-362.669	-30.462	-0.130	0.073
-361.654	-23.491	-0.265	0.157
-360.639	50.247	0.075	0.070
-359.625	-123.580	0.103	0.016
-358.610	117.883	-0.121	-0.148
-357.596	-46.866	0.222	0.107
-356.581	-16.838	-0.088	0.055
-355.566	-54.583	0.240	0.107
-354.552	-99.970	0.162	-0.040
-353.537	-200.000	-0.016	-0.211
-352.523	-49.084	-0.184	-0.087
-351.508	211.620	0.099	-0.154
-350.493	-88.118	0.104	-0.031
-349.479	37.714	-0.148	0.130
-348.464	800.000	-0.029	-0.118
-347.450	-67.854	0.122	-0.047
-346.435	431.685	0.138	0.296
-345.420	-200.000	0.024	0.339
-344.406	282.318	0.147	0.261
-343.391	328.662	0.194	-0.367
-342.377	435.747	0.105	-0.225
-341.362	582.513	-0.040	-0.096
-340.348	-171.300	0.261	0.009
-339.333	-143.293	-0.123	-0.012
-338.318	-200.000	-0.019	0.179
-337.304	-200.000	-0.029	0.185
-336.289	234.405	0.211	-0.343
-335.275	-81.004	-0.237	0.077
-334.260	181.326	0.076	-0.110
-333.245	722.986	0.027	-0.072
-332.231	800.000	-0.146	0.412
-331.216	-77.846	0.355	-0.121
-330.202	87.978	-0.013	0.015
-329.187	165.437	0.142	-0.199
-328.172	58.465	0.031	-0.030
-327.158	119.481	-0.133	0.163
-326.143	-200.000	0.046	-0.429
-325.129	116.239	0.151	-0.182
-324.114	21.472	-0.053	-0.042
-323.099	110.688	0.174	0.207
-322.085	194.492	-0.030	-0.045
-321.070	24.064	0.269	-0.219
-320.056	800.000	0.062	0.217
-319.041	-200.000	0.025	0.263
-318.026	207.782	-0.252	-0.389
-317.012	-113.037	0.135	0.026
-315.997	-56.229	-0.295	0.129
-314.983	-200.000	0.060	0.498
-313.968	-21.324	0.090	-0.054
-312.953	5.294	0.147	-0.107
-311.939	455.318	0.091	0.200
-310.924	-172.047	-0.217	0.007
-309.910	168.323	-0.181	0.254
-308.895	-153.368	0.463	-0.032
-307.880	194.788	0.113	-0.169
-306.866	36.616	-0.276	0.241
-305.851	411.485	-0.068	-0.142
-304.837	-117.673	-0.310	-0.055
-303.822	-155.752	-0.086	0.005
-302.807	30.181	-0.123	0.104
-301.793	-47.197	-0.163	-0.078
-300.778	-129.209	0.438	-0.060
-299.764	800.000	0.041	-0.163
-298.749	-142.562	0.459	-0.044
-297.735	672.121	-0.044	0.114
-296.720	465.062	-0.096	0.211
-295.705	-120.827	0.204	0.034
-294.691	-131.237	-0.319	0.042
-293.676	-84.342	0.175	0.055
-292.662	29.096	-0.328	-0.274
-291.647	-200.000	-0.043	-0.344
-290.632	-200.000	-0.014	0.296
-289.618	638.398	0.081	0.202
-288.603	-14.325	-0.140	-0.089
-287.589	-81.196	0.203	0.066
-286.574	-200.000	-0.031	-0.441
-285.559	79.043	-0.093	-0.098
-284.545	7.116	0.250	-0.184
-283.530	-200.000	0.021	0.145
-282.516	800.000	0.069	0.191
-281.501	108.817	-0.091	0.107
-280.486	800.000	0.021	0.069
-279.472	-105.313	0.061	-0.014
-278.457	385.990	0.125	-0.254
-277.443	-94.086	-0.238	0.064
-276.428	-106.262	0.448	-0.099
-275.413	-200.000	-0.013	0.165
-274.399	-200.000	-0.028	-0.319
-273.384	800.000	0.006	-0.017
-272.370	-200.000	-0.011	-0.157
-271.355	-15.981	-0.049	-0.031
-270.340	381.824	-0.023	-0.046
-269.326	182.302	-0.132	-0.192
-268.311	-200.000	-0.051	-0.256
-267.297	-115.688	-0.071	-0.013
-266.282	132.188	0.234	0.297
-265.267	179.338	-0.071	0.103
-264.253	-62.947	0.093	-0.038
-263.238	-8.713	-0.086	0.057
-262.224	-200.000	-0.008	-0.082
-261.209	-79.636	-0.339	0.113
-260.195	196.699	0.136	0.204
-259.180	226.812	0.048	0.076
-258.165	-154.994	0.212	0.014
-257.151	230.043	-0.137	-0.221
-256.136	-128.949	0.219	0.030
-255.122	12.411	0.149	-0.113
-254.107	-143.957	0.260	-0.024
-253.092	27.513	-0.172	0.142
-252.078	-162.446	-0.436	-0.021
-251.063	130.362	0.135	-0.170
-250.049	-200.000	0.022	0.146
-249.034	-98.812	-0.174	-0.044
-248.019	52.488	-0.021	0.020
-247.005	800.000	-0.076	-0.311
-245.990	-200.000	-0.059	0.302
-244.976	18.244	-0.100	-0.078
-243.961	-48.676	-0.227	-0.107
-242.946	-174.576	0.178	-0.005
-241.932	-77.541	0.386	-0.132
-240.917	800.000	0.105	-0.426
-239.903	189.446	-0.113	0.166
-238.888	-107.858	0.421	-0.090
-237.873	800.000	-0.035	0.106
-236.859	24.449	0.163	0.132
-235.844	36.438	-0.101	-0.088
-234.830	-135.645	-0.107	-0.013
-233.815	-126.421	-0.109	0.016
-232.800	-33.600	-0.132	-0.072
-231.786	-67.640	-0.370	-0.143
-230.771	-200.000	0.037	-0.423
-229.757	54.817	-0.090	-0.086
-228.742	55.700	0.244	0.232
-227.727	-137.403	0.207	-0.023
-226.713	-67.542	-0.216	0.083
-225.698	-200.000	0.019	0.139
-224.684	-76.039	0.107	-0.037
-223.669	-71.287	0.303	0.112
-222.655	-97.233	-0.167	-0.043
-221.640	-200.000	0.011	0.060
-220.625	551.690	-0.141	0.333
-219.611	-200.000	0.004	0.468
-218.596	-100.771	-0.170	0.041
-217.582	-200.000	-0.086	-0.379
-216.567	-46.529	0.551	-0.266
-215.552	-136.863	0.300	-0.034
-214.538	-200.000	-0.030	0.512
-213.523	-72.872	-0.677	0.245
-212.509	74.323	-0.264	0.272
-211.494	20.537	-0.220	-0.175
-210.479	-82.008	0.381	0.122
-209.465	-63.167	-0.130	-0.053
-208.450	-4.609	-0.068	-0.046
-207.436	138.021	0.140	0.181
-206.421	210.475	0.059	-0.090
-205.406	136.029	0.152	-0.194
-204.392	-15.597	0.144	-0.091
-203.377	-200.000	0.017	-0.105
-202.363	237.110	0.191	0.311
-201.348	-137.029	0.041	-0.005
-200.333	81.842	-0.060	-0.064
-199.319	339.783	0.083	0.159
-198.304	-200.000	0.012	-0.077
-197.290	-113.452	-0.086	-0.017
-196.275	-200.000	-0.047	-0.232
-195.260	-36.537	0.146	-0.077
-194.246	-61.626	-0.235	0.097
-193.231	-10.083	0.205	0.134
-192.217	75.111	0.189	-0.196
-191.202	672.810	0.054	-0.138
-190.187	21.751	-0.045	0.036
-189.173	-200.000	0.065	0.450
-188.158	-144.584	-0.544	-0.049
-187.144	143.755	0.074	0.096
-186.129	-118.452	-0.391	-0.068
-185.114	204.615	0.076	-0.115
-184.100	-200.000	0.005	0.139
-183.085	6.633	-0.217	0.158
-182.071	-111.314	0.137	0.027
-181.056	-67.479	-0.081	-0.031
-180.042	15.371	0.155	0.120
-179.027	103.882	-0.092	0.106
-178.012	-31.114	0.070	0.039
-176.998	110.468	-0.103	-0.122
-175.983	101.457	0.106	0.121
-174.969	58.142	0.051	-0.049
-173.954	800.000	0.123	0.415
-172.939	86.932	-0.151	0.164
-171.925	-105.813	-0.081	-0.018
-170.910	-0.216	-0.072	-0.050
-169.896	-200.000	0.040	0.394
-168.881	121.008	0.251	-0.307
-167.866	800.000	0.109	-0.343
-166.852	298.705	-0.190	-0.343
-165.837	311.436	-0.065	-0.119
-164.823	-159.087	0.392	0.022
-163.808	24.161	-0.065	0.053
-162.793	-127.999	-0.205	-0.029
-161.779	142.030	0.048	-0.062
-160.764	-159.313	-0.318	0.017
-159.750	237.483	0.207	-0.337
-158.735	800.000	0.082	-0.344
-157.720	-42.750	0.312	-0.155
-156.706	-145.512	0.230	0.020
-155.691	59.507	0.150	0.145
-154.677	378.454	0.077	-0.154
-153.662	554.381	-0.089	0.209
-152.647	-142.692	-0.206	-0.020
-151.633	800.000	-0.078	0.320
-150.618	785.336	0.064	0.171
-149.604	-24.910	-0.109	-0.063
-148.589	-127.995	-0.241	0.034
-147.574	191.062	-0.104	-0.153
-146.560	-105.114	0.097	0.022
-145.545	-200.000	-0.037	-0.179
-144.531	-200.000	0.011	-0.105
-143.516	-200.000	-0.011	-0.243
-142.502	301.183	0.067	0.121
-141.487	-126.878	0.252	-0.036
-140.472	-26.192	-0.148	-0.085
-139.458	-91.939	-0.204	-0.057
-138.443	731.730	0.126	0.331
-137.429	-200.000	-0.045	0.291
-136.414	800.000	-0.099	-0.290
-135.399	-183.164	-0.125	-0.002
-134.385	165.873	-0.201	0.278
-133.370	367.776	-0.059	0.117
-132.356	-200.000	-0.029	0.270
-131.341	800.000	-0.075	-0.254
-130.326	21.567	0.201	0.161
-129.312	-24.867	0.044	0.026
-128.297	51.685	-0.158	-0.147
-127.283	800.000	0.047	-0.154
-126.268	122.145	0.097	-0.119
-125.253	800.000	0.052	0.190
-124.239	800.000	0.073	0.303
-123.224	-200.000	-0.002	-0.055
-122.210	-43.477	-0.200	-0.099
-121.195	800.000	0.037	-0.118
-120.180	800.000	-0.042	0.153
-119.166	800.000	0.052	-0.182
-118.151	97.875	-0.099	0.112
-117.137	631.179	-0.066	0.164
-116.122	-200.000	-0.018	-0.237
-115.107	-35.991	-0.290	-0.153
-114.093	307.800	-0.119	-0.218
-113.078	282.413	0.077	0.135
-112.064	800.000	-0.038	0.152
-111.049	-200.000	0.058	0.267
-110.034	-112.356	-0.115	-0.022
-109.020	-58.950	-0.481	0.203
-108.005	-51.105	0.218	-0.100
-106.991	-119.278	0.262	-0.045
-105.976	-143.736	-0.139	0.013
-104.962	-110.755	0.232	-0.047
-103.947	-59.363	-0.182	-0.076
-102.932	-11.544	-0.065	0.042
-101.918	-200.000	0.009	0.068
-100.903	535.525	-0.065	-0.150
-99.889	-176.792	0.165	0.004
-98.874	205.718	0.151	0.230
-97.859	58.544	0.076	-0.073
-96.845	-160.015	-0.198	0.011
-95.830	-137.688	-0.304	-0.033
-94.816	-200.000	0.002	0.216
-93.801	800.000	0.036	0.149
-92.786	-143.519	0.300	-0.028
-91.772	557.481	0.065	-0.154
-90.757	-72.376	0.169	-0.061
-89.743	-130.439	-0.474	-0.063
-88.728	-112.558	0.125	0.024
-87.713	-43.903	0.356	-0.175
-86.699	84.093	-0.277	0.296
-85.684	4.041	0.136	0.098
-84.670	-60.908	0.164	0.068
-83.655	143.558	0.101	-0.131
-82.640	-150.622	0.070	0.005
-81.626	-27.928	0.031	0.018
-80.611	45.807	0.128	0.115
-79.597	216.510	-0.249	0.388
-78.582	-186.295	0.185	-0.003
-77.567	-55.430	-0.053	0.023
-76.553	-81.420	0.168	0.054
-75.538	-65.318	-0.367	-0.144
-74.524	800.000	-0.076	-0.225
-73.509	-200.000	-0.023	0.248
-72.494	218.662	0.278	-0.435
-71.480	-117.508	0.277	-0.049
-70.465	800.000	-0.077	-0.244
-69.451	-200.000	-0.019	-0.283
-68.436	144.006	-0.204	-0.266
-67.422	561.771	-0.026	0.061
-66.407	800.000	-0.027	0.112
-65.392	-46.193	0.031	-0.015
-64.378	-104.478	-0.297	0.067
-63.363	353.270	-0.110	-0.213
-62.349	800.000	-0.035	0.116
-61.334	31.843	-1.290	-1.085
-60.319	64.921	0.752	0.742
-59.305	100.721	-0.602	-0.683
-58.290	272.222	0.813	1.400
-57.276	561.714	0.641	1.515
-56.261	-200.000	116.184	645.154
-55.246	504.044	1533.813	3466.136
-54.232	175.855	2711.745	3842.638
-53.217	98.747	2288.266	2578.438
-52.203	35.490	1897.727	1626.669
-51.188	29.724	1691.179	1405.871
-50.173	27.231	1650.715	1353.649
-49.159	46.931	1708.216	1550.657
-48.144	45.679	1721.334	1553.016
-47.130	29.100	1678.767	1390.619
-46.115	26.439	1664.779	1359.013
-45.100	26.375	1659.969	1354.560
-44.086	26.428	1656.973	1352.457
-43.071	26.455	1654.189	1350.327
-42.057	26.434	1652.190	1348.487
-41.042	26.390	1649.719	1346.087
-40.027	26.464	1647.797	1345.021
-39.013	26.432	1646.115	1343.357
-37.998	26.405	1644.640	1341.901
-36.984	26.463	1643.058	1340.986
-35.969	26.501	1642.162	1340.478
-34.954	26.613	1640.098	1339.570
-33.940	26.516	1638.775	1337.723
-32.925	26.503	1636.895	1336.035
-31.911	26.543	1635.275	1334.959
-30.896	26.507	1633.500	1333.187
-29.881	26.553	1632.101	1332.336
-28.867	26.543	1630.309	1330.747
-27.852	26.528	1629.127	1329.619
-26.838	26.540	1627.551	1328.368
-25.823	26.590	1626.053	1327.454
-24.809	26.619	1624.936	1326.707
-23.794	26.452	1623.608	1324.347
-22.779	26.573	1621.840	1323.736
-21.765	26.550	1619.996	1322.011
-20.750	26.563	1618.330	1320.688
-19.736	26.578	1617.284	1319.892
-18.721	26.494	1616.335	1318.460
-17.706	26.588	1614.335	1317.458
-16.692	26.538	1612.689	1315.695
-15.677	26.615	1611.071	1314.884
-14.663	26.561	1610.365	1313.863
-13.648	26.621	1609.016	1313.150
-12.633	26.625	1606.866	1311.373
-11.619	26.606	1605.219	1309.836
-10.604	26.612	1603.803	1308.668
-9.590	26.655	1601.946	1307.415
-8.575	26.627	1601.349	1306.669
-7.560	26.587	1600.306	1305.478
-6.546	26.550	1599.063	1304.148
-5.531	26.574	1597.849	1303.282
-4.517	26.528	1597.127	1302.306
-3.502	26.540	1595.940	1301.373
-2.487	26.613	1593.774	1300.082
-1.473	26.244	1582.270	1288.018
-0.458	23.431	1563.282	1252.661
0.556	20.919	1564.196	1221.920
1.571	18.635	1589.036	1224.922
2.586	18.188	1601.123	1230.916
3.600	16.093	1545.328	1173.353
4.615	9.461	1437.757	1048.507
5.629	4.043	1379.074	971.695
6.644	3.234	1371.752	961.396
7.659	3.080	1371.021	959.838
8.673	3.194	1369.517	959.413
9.688	3.142	1367.840	957.831
10.702	3.169	1364.693	955.706
11.717	5.681	1369.569	974.678
12.731	13.022	1383.191	1030.264
13.746	19.113	1392.816	1075.517
14.761	20.491	1394.224	1085.116
15.775	19.852	1392.045	1079.341
16.790	18.846	1389.162	1070.743
17.804	18.009	1387.398	1064.077
18.819	17.707	1386.041	1061.061
19.834	17.543	1385.197	1059.302
20.848	17.360	1383.896	1057.081
21.863	17.199	1382.685	1055.059
22.877	16.996	1381.500	1052.805
23.892	16.882	1381.293	1051.846
24.907	17.037	1379.950	1051.691
25.921	16.988	1378.797	1050.413
26.936	16.995	1378.253	1049.952
27.950	17.015	1377.363	1049.302
28.965	17.129	1376.235	1049.054
29.980	17.256	1374.802	1048.655
30.994	17.328	1373.569	1048.060
32.009	17.377	1372.973	1047.820
33.023	17.369	1371.410	1046.482
34.038	17.271	1369.921	1044.653
35.053	17.143	1369.043	1043.104
36.067	17.132	1367.947	1042.111
37.082	17.184	1367.016	1041.624
38.096	17.237	1366.496	1041.464
39.111	17.304	1365.285	1040.861
40.126	17.114	1364.403	1038.934
41.140	17.026	1363.046	1037.267
42.155	16.857	1362.204	1035.500
43.169	16.765	1362.932	1035.404
44.184	16.824	1361.915	1034.897
45.199	16.800	1361.758	1034.543
46.213	16.871	1361.313	1034.545
47.228	17.031	1360.458	1034.777
48.242	17.214	1359.068	1034.746
49.257	17.142	1357.366	1032.922
50.271	17.095	1356.152	1031.620
51.286	17.191	1354.707	1031.013
52.301	17.157	1353.461	1029.767
53.315	16.977	1352.726	1028.028
54.330	16.778	1351.938	1026.128
55.344	16.884	1350.451	1025.549
56.359	16.882	1349.659	1024.846
57.374	16.848	1348.659	1023.792
58.388	16.785	1348.109	1022.900
59.403	16.721	1347.445	1021.922
60.417	16.748	1346.690	1021.422
61.432	16.774	1345.457	1020.551
62.447	16.611	1344.468	1018.734
63.461	16.642	1343.041	1017.748
64.476	16.635	1341.932	1016.776
65.490	16.767	1340.753	1016.584
66.505	16.634	1339.212	1014.528
67.520	16.691	1338.263	1014.063
68.534	16.681	1337.143	1013.059
69.549	16.675	1336.383	1012.363
70.563	16.659	1335.064	1011.176
71.578	16.573	1334.262	1009.964
72.593	16.566	1332.947	1008.841
73.607	16.431	1332.686	1007.748
74.622	16.446	1331.866	1007.128
75.636	16.441	1331.156	1006.474
76.651	16.640	1330.343	1006.951
77.666	16.467	1330.122	1005.668
78.680	16.617	1329.228	1005.794
79.695	16.686	1328.400	1005.486
80.709	16.771	1327.650	1005.338
81.724	16.847	1327.017	1005.218
82.739	16.938	1326.560	1005.321
83.753	17.053	1325.924	1005.431
84.768	17.127	1324.456	1004.671
85.782	17.259	1323.576	1004.693
86.797	17.213	1322.262	1003.335
87.812	17.076	1321.196	1001.631
88.826	17.168	1319.648	1000.907
89.841	17.156	1318.882	1000.171
90.855	17.220	1318.096	999.862
91.870	17.248	1316.911	999.036
92.884	17.278	1316.008	998.439
93.899	17.288	1315.583	998.087
94.914	17.264	1314.478	997.022
95.928	17.338	1314.125	997.096
96.943	17.280	1313.251	996.006
97.957	17.252	1312.227	994.979
98.972	17.227	1310.909	993.747
99.987	17.275	1309.805	993.104
101.001	17.179	1308.920	991.785
102.016	17.218	1307.680	990.980
103.030	17.130	1307.578	990.303
104.045	17.184	1306.071	989.391
105.060	17.119	1304.485	987.720
106.074	16.833	1303.086	984.916
107.089	16.733	1301.087	982.737
108.103	16.700	1300.221	981.801
109.118	16.574	1299.047	980.102
110.133	16.687	1297.782	979.713
111.147	16.701	1296.576	978.799
112.162	16.734	1295.283	977.924
113.176	16.871	1293.996	977.655
114.191	16.786	1293.420	976.642
115.206	16.854	1292.174	976.012
116.220	16.744	1291.303	974.630
117.235	16.796	1289.882	973.774
118.249	16.719	1289.253	972.769
119.264	16.757	1287.558	971.620
120.279	16.711	1286.966	970.824
121.293	16.717	1285.656	969.788
122.308	16.558	1284.701	968.069
123.322	16.510	1284.035	967.210
124.337	16.516	1282.342	965.881
125.352	16.492	1281.321	964.890
126.366	16.468	1280.385	963.966
127.381	16.565	1278.764	963.212
128.395	16.492	1277.943	962.088
129.410	16.603	1277.191	962.071
130.424	16.714	1276.777	962.304
131.439	16.714	1275.753	961.447
132.454	16.822	1274.862	961.302
133.468	16.774	1274.302	960.526
134.483	16.798	1273.642	960.080
135.497	16.810	1272.210	958.983
136.512	16.853	1271.132	958.325
137.527	16.853	1269.699	957.163
138.541	16.907	1268.325	956.346
139.556	16.958	1267.163	955.674
140.570	17.048	1266.236	955.393
141.585	17.166	1264.689	954.805
142.600	17.266	1263.569	954.441
143.614	17.193	1263.271	953.718
144.629	17.241	1261.921	952.884
145.643	17.283	1260.428	951.910
146.658	17.053	1259.741	950.015
147.673	17.032	1257.644	948.236
148.687	16.892	1256.671	946.636
149.702	16.797	1256.087	945.584
150.716	16.830	1254.219	944.273
151.731	16.874	1253.428	943.844
152.746	16.953	1251.828	942.996
153.760	16.969	1250.740	942.178
154.775	17.093	1249.691	941.993
155.789	17.139	1248.945	941.603
156.804	17.174	1248.031	941.027
157.819	17.245	1246.696	940.329
158.833	17.286	1246.188	940.086
159.848	17.311	1245.567	939.676
160.862	17.361	1243.910	938.617
161.877	17.031	1242.804	935.878
162.892	16.907	1241.977	934.491
163.906	16.989	1240.850	934.013
164.921	17.000	1239.735	933.150
165.935	17.049	1239.354	933.049
166.950	17.109	1238.337	932.529
167.964	17.126	1237.724	932.084
168.979	17.059	1236.854	930.978
169.994	17.027	1236.007	930.080
171.008	17.052	1235.535	929.779
172.023	17.182	1234.335	929.507
173.037	17.401	1233.626	930.088
174.052	17.330	1232.577	928.827
175.067	17.093	1231.870	926.916
176.081	17.014	1230.550	925.410
177.096	16.988	1229.937	924.728
178.110	17.085	1229.113	924.554
179.125	17.119	1227.349	923.328
180.140	17.180	1226.476	922.921
181.154	17.226	1225.353	922.246
182.169	17.397	1223.947	922.033
183.183	17.406	1223.365	921.561
184.198	17.486	1221.995	920.883
185.213	17.327	1220.970	919.167
186.227	17.429	1219.983	918.896
187.242	17.451	1219.365	918.468
188.256	17.541	1218.183	917.981
189.271	17.538	1217.044	917.023
190.286	17.250	1215.898	914.532
191.300	17.063	1214.817	912.631
192.315	16.961	1214.100	911.464
193.329	16.993	1213.616	911.192
194.344	17.048	1213.208	911.097
195.359	17.256	1212.482	911.591
196.373	17.262	1212.151	911.294
197.388	17.395	1211.746	911.618
198.402	17.580	1211.220	912.134
199.417	17.660	1210.455	911.906
200.432	17.758	1209.979	911.992
201.446	17.838	1209.127	911.695
202.461	17.877	1207.959	910.943
203.475	17.827	1207.491	910.240
204.490	17.701	1206.023	908.383
205.504	17.590	1204.526	906.584
206.519	17.605	1203.417	905.751
207.534	17.557	1202.175	904.482
208.548	17.483	1201.948	903.837
209.563	17.450	1201.188	903.007
210.577	17.598	1199.576	902.500
211.592	17.708	1198.964	902.545
212.607	17.942	1197.984	902.964
213.621	17.815	1197.581	901.910
214.636	17.682	1196.327	900.183
215.650	17.772	1195.504	899.960
216.665	17.740	1195.017	899.343
217.680	17.868	1194.038	899.198
218.694	17.960	1193.406	899.129
219.709	17.872	1192.608	897.984
220.723	17.865	1191.889	897.329
221.738	17.802	1191.287	896.464
222.753	17.865	1190.084	895.812
223.767	17.919	1189.966	895.924
224.782	18.024	1189.215	895.830
225.796	18.084	1188.628	895.627
226.811	18.042	1188.214	895.015
227.826	17.931	1186.844	893.321
228.840	18.013	1186.105	893.113
229.855	17.928	1185.309	891.994
230.869	17.807	1184.539	890.704
231.884	17.828	1183.833	890.200
232.899	17.852	1182.529	889.267
233.913	17.782	1182.183	888.563
234.928	17.706	1181.453	887.541
235.942	17.605	1180.667	886.345
236.957	17.696	1179.889	886.158
237.972	17.799	1179.031	885.971
238.986	17.675	1178.461	884.821
240.001	17.738	1177.596	884.420
241.015	17.682	1177.274	883.808
242.030	17.943	1175.938	884.079
243.045	17.927	1175.468	883.564
244.059	17.932	1174.533	882.810
245.074	18.017	1173.565	882.444
246.088	18.111	1172.792	882.269
247.103	18.101	1172.359	881.811
248.117	18.191	1171.615	881.639
249.132	18.355	1170.896	881.863
250.147	18.457	1170.613	882.097
251.161	18.585	1169.788	882.054
252.176	18.634	1169.027	881.656
253.190	18.710	1168.304	881.426
254.205	18.774	1168.038	881.473
255.220	18.757	1167.406	880.833
256.234	18.709	1166.539	879.854
257.249	18.687	1165.907	879.185
258.263	18.695	1165.168	878.594
259.278	18.700	1164.739	878.217
260.293	18.740	1163.884	877.700
261.307	18.683	1163.465	877.014
262.322	18.803	1162.882	877.111
263.336	18.814	1162.077	876.481
264.351	18.866	1161.902	876.536
265.366	18.795	1160.777	875.248
266.380	18.859	1159.907	874.840
267.395	18.832	1159.297	874.169
268.409	18.708	1158.432	872.806
269.424	18.723	1157.612	872.185
270.439	18.627	1157.499	871.535
271.453	18.717	1156.394	871.082
272.468	18.646	1154.842	869.480
273.482	18.509	1154.918	868.767
274.497	18.504	1154.374	868.255
275.512	18.636	1153.474	868.167
276.526	18.612	1152.573	867.290
277.541	18.671	1151.929	867.026
278.555	18.730	1151.263	866.746
279.570	18.874	1150.604	866.902
280.585	18.910	1149.869	866.455
281.599	18.921	1148.998	865.774
282.614	18.857	1148.179	864.758
283.628	18.851	1146.493	863.380
284.643	18.784	1146.228	862.770
285.657	18.734	1145.116	861.605
286.672	18.883	1143.782	861.271
287.687	18.773	1142.961	860.026
288.701	18.755	1142.518	859.528
289.716	18.848	1141.647	859.263
290.730	18.803	1141.194	858.618
291.745	18.806	1140.605	858.117
292.760	18.880	1139.811	857.813
293.774	18.888	1139.339	857.421
294.789	19.059	1138.923	857.883
295.803	19.131	1138.081	857.531
296.818	18.904	1137.157	855.629
297.833	19.018	1135.606	854.953
298.847	18.861	1135.693	854.165
299.862	18.925	1134.834	853.761
300.876	18.951	1134.010	853.196
301.891	19.106	1133.372	853.405
302.906	19.125	1132.802	852.995
303.920	19.218	1132.133	852.880
304.935	19.318	1131.831	853.068
305.949	19.368	1131.062	852.663
306.964	19.418	1130.548	852.444
307.979	19.300	1129.476	850.980
308.993	19.239	1128.607	849.949
310.008	19.245	1127.994	849.442
311.022	19.425	1127.330	849.753
312.037	19.356	1126.152	848.451
313.052	19.181	1125.682	847.160
314.066	19.051	1124.726	845.725
315.081	19.010	1123.702	844.679
316.095	18.965	1122.925	843.802
317.110	19.028	1121.875	843.245
318.125	19.115	1121.429	843.263
319.139	18.946	1120.898	841.960
320.154	18.918	1120.208	841.231
321.168	19.115	1119.353	841.479
322.183	19.084	1119.168	841.111
323.197	19.148	1117.976	840.455
324.212	19.152	1117.788	840.259
325.227	19.181	1117.132	839.832
326.241	19.222	1116.612	839.566
327.256	19.165	1115.154	838.119
328.270	19.141	1114.505	837.443
329.285	19.098	1113.567	836.454
330.300	19.098	1112.841	835.836
331.314	19.154	1111.695	835.170
332.329	19.195	1111.088	834.842
333.343	19.238	1110.096	834.226
334.358	19.304	1109.417	833.964
335.373	19.286	1109.186	833.629
336.387	19.422	1107.941	833.275
337.402	19.369	1107.451	832.577
338.416	19.421	1106.867	832.315
339.431	19.541	1106.030	832.192
340.446	19.656	1105.447	832.236
341.460	19.694	1104.745	831.817
342.475	19.729	1103.901	831.272
343.489	19.813	1103.399	831.225
344.504	19.765	1102.537	830.271
345.519	19.940	1101.431	830.206
346.533	20.034	1100.396	829.801
347.548	19.951	1100.049	829.072
348.562	20.061	1098.906	828.663
349.577	19.764	1098.205	826.640
350.592	19.634	1097.200	825.188
351.606	19.474	1097.070	824.254
352.621	19.536	1095.834	823.549
353.635	19.537	1095.441	823.187
354.650	19.525	1094.679	822.483
355.665	19.527	1093.975	821.888
356.679	19.645	1093.424	821.966
357.694	19.698	1092.854	821.715
358.708	19.731	1092.409	821.463
359.723	19.767	1091.867	821.154
360.738	19.757	1091.008	820.389
361.752	19.845	1090.044	820.009
362.767	19.828	1089.979	819.806
363.781	19.722	1089.518	818.887
364.796	19.867	1089.042	819.141
365.810	20.140	1088.197	819.726
366.825	20.094	1087.488	818.900
367.840	20.130	1087.190	818.775
368.854	20.292	1086.572	819.002
369.869	20.328	1086.005	818.673
370.883	20.152	1084.987	817.000
371.898	20.130	1084.248	816.270
372.913	20.087	1083.657	815.552
373.927	20.079	1083.425	815.265
374.942	20.269	1082.642	815.498
375.956	20.314	1081.816	815.012
376.971	20.292	1080.933	814.175
377.986	20.250	1081.094	814.027
379.000	20.305	1080.668	813.893
380.015	20.501	1079.600	813.931
381.029	20.418	1078.843	812.903
382.044	20.428	1078.257	812.437
383.059	20.459	1077.470	811.917
384.073	20.432	1076.684	811.124
385.088	20.374	1075.882	810.178
386.102	20.385	1074.949	809.456
387.117	20.346	1074.110	808.571
388.132	20.181	1073.112	806.980
389.146	20.152	1072.257	806.132
390.161	20.101	1071.556	805.296
391.175	20.224	1070.214	804.786
392.190	20.382	1070.054	805.330
393.205	20.450	1069.469	805.131
394.219	20.363	1068.754	804.117
395.234	20.423	1067.527	803.402
396.248	20.314	1066.701	802.207
397.263	20.360	1065.657	801.560
398.278	20.243	1064.960	800.426
399.292	20.039	1064.548	799.106
400.307	20.026	1063.478	798.169
401.321	20.139	1062.525	797.907
402.336	20.295	1061.862	798.055
403.350	20.230	1061.540	797.444
404.365	20.216	1061.107	796.981
405.380	20.330	1060.053	796.646
406.394	20.428	1059.642	796.714
407.409	20.388	1058.694	795.748
408.423	20.529	1057.826	795.672
409.438	20.686	1057.684	796.212
410.453	20.730	1056.800	795.676
411.467	20.615	1056.337	794.735
412.482	20.711	1055.811	794.704
413.496	20.837	1054.844	794.480
414.511	20.939	1054.085	794.303
415.526	20.960	1054.007	794.272
416.540	20.935	1053.827	793.951
417.555	21.046	1052.520	793.401
418.569	20.880	1052.489	792.553
419.584	20.874	1051.817	791.948
420.599	20.943	1051.291	791.796
421.613	155.687	1404.723	1797.580
422.628	142.800	1456.192	1797.662
