DTS Sentinel unit serial number:	SN413079Multiplexer serial number:	ORYXHardware model number:	OX4-SRSoftware version number:	ORYX F/W v4.00 Oryx Data Collector v3.7.2.0data status	okinstallation	princeton_trtdifferential loss correction	single-endedforward channel	channel 2reverse channel	N/Adate	2019/09/10time	21:53:11forward acquisition time	60.00reverse acquisition time	0.00gamma	496.2192k internal	0.2330k external	0.2330temperature offset calibration	0.9947default loss term (dB/km)	0.3790temperature slope calibration	1.0000multiplexer offset coefficient	1.0000multiplexer slope coefficient	1.0000fibre end	0.00T internal ref (°C)	30.78T ext. ref 1 (°C)	-0.31T ext. ref 2 (°C)	24.02length (m)	temperature (°C)	Stokes	anti-Stokes-747.200	529.210	0.138	0.328
-746.185	249.909	0.026	0.045
-745.171	239.500	-0.136	-0.228
-744.156	77.220	0.140	-0.149
-743.142	-30.969	0.038	-0.021
-742.127	396.094	-0.100	0.211
-741.112	-200.000	-0.020	0.153
-740.098	-200.000	-0.110	0.523
-739.083	-200.000	0.030	0.168
-738.069	-66.744	-0.120	-0.048
-737.054	-168.859	-0.215	0.008
-736.039	16.753	-0.397	-0.316
-735.025	-13.645	0.290	-0.189
-734.010	-42.927	-0.302	0.154
-732.996	16.240	-0.087	0.069
-731.981	-200.000	-0.037	0.418
-730.966	116.591	-0.189	-0.233
-729.952	-43.422	-0.440	0.224
-728.937	-101.330	-0.151	0.037
-727.923	-145.143	-0.301	0.027
-726.908	800.000	0.030	-0.083
-725.894	-200.000	-0.001	0.147
-724.879	69.496	-0.319	-0.331
-723.864	-185.369	0.310	0.005
-722.850	-72.133	-0.261	0.098
-721.835	397.474	0.081	0.171
-720.821	71.992	0.169	0.177
-719.806	-96.895	-0.418	0.110
-718.791	520.605	0.057	-0.135
-717.777	3.402	0.144	0.105
-716.762	-49.141	0.130	-0.062
-715.748	-136.824	0.301	-0.035
-714.733	30.430	0.128	-0.110
-713.718	-47.372	0.215	0.105
-712.704	-200.000	-0.034	0.387
-711.689	185.901	-0.206	-0.309
-710.675	-47.141	0.095	-0.046
-709.660	271.189	0.021	-0.037
-708.645	-4.839	-0.085	-0.059
-707.631	-151.844	-0.067	0.005
-706.616	-84.231	0.125	0.040
-705.602	800.000	0.101	0.328
-704.587	-83.964	-0.179	0.057
-703.572	-12.167	0.302	0.199
-702.558	800.000	-0.049	-0.163
-701.543	-109.926	0.245	-0.052
-700.529	800.000	0.079	0.246
-699.514	-200.000	-0.021	-0.171
-698.499	-200.000	0.046	-0.372
-697.485	-131.592	-0.226	0.030
-696.470	-4.976	0.211	0.146
-695.456	363.537	0.023	-0.046
-694.441	97.501	-0.325	0.375
-693.426	-101.949	0.210	-0.051
-692.412	-200.000	0.006	-0.371
-691.397	-200.000	-0.012	0.097
-690.383	116.025	-0.139	0.171
-689.368	-67.054	0.343	-0.136
-688.354	385.499	-0.123	-0.255
-687.339	-133.145	-0.183	0.023
-686.324	-200.000	-0.031	-0.432
-685.310	-200.000	0.001	-0.084
-684.295	-200.000	0.009	-0.045
-683.281	262.257	-0.090	0.158
-682.266	298.643	-0.127	-0.234
-681.251	33.310	0.301	-0.263
-680.237	345.191	-0.244	-0.481
-679.222	-77.508	0.202	0.070
-678.208	-131.312	0.236	0.031
-677.193	-118.345	0.148	0.026
-676.178	60.091	0.035	0.034
-675.164	-61.672	0.386	0.163
-674.149	-0.433	-0.311	0.222
-673.135	-117.616	0.293	-0.053
-672.120	-200.000	0.025	0.170
-671.105	-126.609	-0.131	-0.020
-670.091	411.203	-0.042	0.089
-669.076	59.445	0.208	-0.206
-668.062	0.895	0.285	-0.205
-667.047	-159.579	-0.499	0.028
-666.032	-200.000	0.090	0.507
-665.018	-173.408	-0.158	0.005
-664.003	-121.412	-0.188	0.031
-662.989	-200.000	0.028	0.144
-661.974	85.371	-0.112	0.124
-660.959	800.000	-0.058	-0.222
-659.945	29.213	0.153	-0.130
-658.930	800.000	0.106	0.347
-657.916	26.072	0.108	0.091
-656.901	-43.118	-0.569	-0.289
-655.886	800.000	-0.070	-0.264
-654.872	343.247	0.047	-0.093
-653.857	-52.524	0.168	0.078
-652.843	800.000	-0.105	-0.322
-651.828	141.754	-0.187	-0.249
-650.814	23.984	-0.024	0.020
-649.799	-129.091	0.179	-0.025
-648.784	-95.731	-0.311	-0.083
-647.770	-200.000	0.016	-0.228
-646.755	426.903	0.043	0.093
-645.741	-142.003	-0.239	-0.024
-644.726	0.416	0.081	0.058
-643.711	20.660	-0.201	0.163
-642.697	-200.000	0.005	-0.163
-641.682	37.878	-0.225	0.200
-640.668	800.000	-0.068	0.190
-639.653	82.962	-0.040	0.043
-638.638	42.329	0.138	0.125
-637.624	138.377	-0.088	0.116
-636.609	-141.882	0.092	0.009
-635.595	-200.000	0.012	0.177
-634.580	171.142	0.134	0.193
-633.565	-6.832	0.268	-0.182
-632.551	264.308	0.063	-0.110
-631.536	42.636	-0.109	-0.100
-630.522	-200.000	0.022	0.208
-629.507	-200.000	-0.006	-0.308
-628.492	-99.025	-0.306	-0.078
-627.478	126.988	0.226	0.288
-626.463	-140.495	-0.310	0.032
-625.449	-200.000	-0.038	-0.445
-624.434	-105.419	-0.122	0.028
-623.419	-150.025	-0.188	0.015
-622.405	-134.613	0.189	-0.023
-621.390	800.000	0.070	0.281
-620.376	-58.214	-0.159	0.069
-619.361	-78.888	-0.302	0.103
-618.346	-148.481	-0.199	0.016
-617.332	-200.000	-0.060	-0.288
-616.317	-4.167	-0.193	0.134
-615.303	-110.662	0.272	-0.056
-614.288	-200.000	0.034	-0.212
-613.273	-80.665	0.089	0.030
-612.259	94.593	-0.259	-0.295
-611.244	366.604	-0.037	-0.075
-610.230	-72.731	-0.291	0.107
-609.215	800.000	-0.067	-0.245
-608.201	-130.164	0.202	-0.028
-607.186	148.459	0.057	-0.077
-606.171	-62.950	-0.158	0.065
-605.157	800.000	0.060	-0.191
-604.142	51.863	-0.146	-0.139
-603.128	800.000	0.031	0.114
-602.113	442.560	0.069	0.152
-601.098	421.865	-0.186	-0.399
-600.084	43.868	-0.279	-0.256
-599.069	189.154	0.187	-0.280
-598.055	-108.538	-0.283	-0.061
-597.040	-70.133	-0.123	0.047
-596.025	800.000	0.074	0.208
-595.011	-107.751	-0.104	0.023
-593.996	800.000	-0.038	-0.145
-592.982	21.650	-0.120	-0.097
-591.967	-144.328	-0.439	-0.041
-590.952	-153.862	0.301	-0.021
-589.938	-200.000	0.072	0.345
-588.923	83.088	0.125	0.136
-587.909	-110.800	-0.466	0.096
-586.894	183.073	-0.084	-0.124
-585.879	-54.228	-0.252	-0.114
-584.865	-93.155	0.279	0.078
-583.850	35.177	0.161	-0.141
-582.836	-200.000	-0.034	-0.305
-581.821	361.028	0.050	0.100
-580.806	-0.832	-0.303	0.215
-579.792	800.000	0.072	0.259
-578.777	800.000	-0.015	-0.052
-577.763	-200.000	-0.012	-0.057
-576.748	33.615	0.079	0.069
-575.733	117.730	0.094	-0.116
-574.719	-200.000	0.037	-0.371
-573.704	800.000	0.059	-0.169
-572.690	13.535	-0.328	0.255
-571.675	-95.843	-0.180	-0.048
-570.661	517.318	-0.092	0.216
-569.646	-177.658	-0.188	-0.005
-568.631	-26.755	-0.166	-0.097
-567.617	-200.000	0.076	-0.360
-566.602	351.718	0.124	0.245
-565.588	86.168	0.103	-0.114
-564.573	800.000	-0.119	-0.397
-563.558	1.583	0.265	0.190
-562.544	31.301	0.139	-0.119
-561.529	-100.615	-0.070	-0.017
-560.515	-84.193	-0.284	0.090
-559.500	-99.002	-0.120	0.030
-558.485	-52.676	0.169	0.078
-557.471	800.000	0.033	0.130
-556.456	-200.000	-0.001	0.024
-555.442	49.319	-0.153	-0.144
-554.427	-69.907	0.164	-0.063
-553.412	-54.510	0.199	-0.090
-552.398	-200.000	0.039	-0.199
-551.383	-200.000	-0.011	0.200
-550.369	135.241	0.091	0.118
-549.354	-200.000	-0.021	-0.167
-548.339	64.071	-0.095	0.095
-547.325	14.417	-0.082	-0.064
-546.310	-195.187	0.390	0.003
-545.296	-75.846	0.105	-0.037
-544.281	194.604	-0.229	-0.347
-543.266	-178.879	0.218	0.005
-542.252	603.667	-0.172	-0.428
-541.237	-83.696	0.214	-0.068
-540.223	28.265	0.197	-0.166
-539.208	800.000	-0.074	0.296
-538.193	61.939	-0.142	-0.142
-537.179	-53.427	0.195	-0.089
-536.164	278.263	-0.073	-0.130
-535.150	8.781	-0.227	-0.171
-534.135	800.000	0.082	0.290
-533.121	-200.000	-0.003	-0.201
-532.106	800.000	0.038	0.142
-531.091	-43.225	0.030	0.015
-530.077	270.306	-0.028	-0.049
-529.062	143.147	0.095	0.127
-528.048	-200.000	0.028	0.250
-527.033	-19.678	0.309	-0.191
-526.018	-98.169	0.482	0.124
-525.004	14.670	-0.387	0.302
-523.989	-200.000	-0.004	0.019
-522.975	214.706	0.211	-0.334
-521.960	-200.000	-0.025	-0.170
-520.945	354.461	0.137	-0.272
-519.931	55.093	0.081	-0.078
-518.916	318.792	0.039	-0.075
-517.902	-119.301	0.119	0.021
-516.887	-200.000	0.005	0.161
-515.872	-10.159	0.096	0.063
-514.858	170.992	0.018	-0.025
-513.843	-58.558	-0.065	-0.028
-512.829	-104.354	0.275	0.064
-511.814	-159.885	-0.257	0.014
-510.799	-125.773	0.494	-0.075
-509.785	-45.750	0.111	-0.055
-508.770	-118.624	0.208	0.037
-507.756	-200.000	-0.023	0.230
-506.741	800.000	0.045	0.142
-505.726	-22.311	-0.157	-0.095
-504.712	-14.911	-0.209	0.134
-503.697	103.211	-0.183	0.214
-502.683	73.337	-0.153	-0.159
-501.668	-200.000	0.010	0.380
-500.653	28.384	0.148	0.125
-499.639	160.407	0.193	-0.269
-498.624	214.389	0.138	0.218
-497.610	-30.455	0.142	-0.080
-496.595	-200.000	0.001	0.176
-495.581	-17.201	-0.064	-0.041
-494.566	17.581	0.148	0.117
-493.551	-111.098	0.031	0.006
-492.537	-111.986	0.180	0.036
-491.522	-62.035	-0.211	0.088
-490.508	-92.577	-0.308	-0.086
-489.493	800.000	0.087	0.239
-488.478	121.892	0.119	0.148
-487.464	-177.618	-0.160	-0.004
-486.449	-200.000	-0.004	0.061
-485.435	234.303	-0.124	0.204
-484.420	78.343	0.177	0.188
-483.405	-169.258	0.194	-0.007
-482.391	800.000	-0.129	-0.419
-481.376	138.115	-0.200	-0.261
-480.362	-200.000	-0.009	0.160
-479.347	-200.000	-0.027	0.189
-478.332	800.000	0.092	0.322
-477.318	-138.882	-0.324	0.035
-476.303	-200.000	-0.032	-0.330
-475.289	420.306	0.060	0.129
-474.274	800.000	0.057	0.232
-473.259	139.424	-0.136	0.178
-472.245	-49.185	0.234	-0.111
-471.230	-200.000	-0.006	-0.058
-470.216	-200.000	0.006	-0.183
-469.201	416.560	-0.029	-0.061
-468.186	35.016	-0.169	0.147
-467.172	800.000	0.078	0.282
-466.157	-16.955	0.359	-0.226
-465.143	-146.754	-0.083	-0.007
-464.128	-152.691	-0.272	0.019
-463.113	129.547	-0.124	-0.158
-462.099	-200.000	0.046	-0.225
-461.084	54.089	0.126	0.120
-460.070	-200.000	0.001	0.021
-459.055	-200.000	-0.017	0.166
-458.040	194.466	0.162	0.244
-457.026	-80.766	-0.138	-0.046
-456.011	10.039	0.103	-0.078
-454.997	466.040	-0.158	0.351
-453.982	19.710	0.268	0.215
-452.968	666.387	-0.149	0.382
-451.953	-200.000	0.022	-0.179
-450.938	141.040	0.110	-0.145
-449.924	350.420	0.076	0.150
-448.909	-109.075	0.227	-0.048
-447.895	-200.000	0.004	0.095
-446.880	-65.801	-0.366	-0.146
-445.865	-113.956	-0.295	0.057
-444.851	132.124	-0.055	-0.071
-443.836	-200.000	0.095	0.505
-442.822	-140.503	-0.404	-0.042
-441.807	-150.124	-0.148	0.011
-440.792	29.187	0.315	0.266
-439.778	-200.000	0.007	-0.239
-438.763	-123.517	0.180	-0.028
-437.749	-57.954	0.281	0.122
-436.734	117.884	0.047	-0.058
-435.719	61.350	0.075	-0.074
-434.705	133.048	-0.275	0.353
-433.690	-200.000	0.046	0.238
-432.676	-77.838	-0.126	0.043
-431.661	241.202	0.041	0.069
-430.646	-200.000	0.044	0.304
-429.632	-100.015	-0.230	-0.057
-428.617	-116.323	0.207	-0.038
-427.603	-91.214	-0.124	-0.035
-426.588	-86.777	-0.358	-0.109
-425.573	-126.496	0.041	0.006
-424.559	-200.000	-0.000	0.480
-423.544	164.370	0.091	-0.127
-422.530	52.472	-0.201	0.190
-421.515	128.852	-0.115	0.146
-420.500	10.283	0.215	-0.163
-419.486	-200.000	0.077	0.531
-418.471	-81.615	0.550	-0.179
-417.457	800.000	-0.102	-0.304
-416.442	800.000	0.070	0.218
-415.428	189.829	0.064	0.095
-414.413	-115.412	0.292	-0.055
-413.398	150.012	-0.153	-0.207
-412.384	-64.661	0.229	-0.092
-411.369	-169.585	0.276	0.010
-410.355	322.106	-0.073	-0.137
-409.340	0.286	0.041	-0.029
-408.325	102.701	0.161	0.188
-407.311	-147.027	0.190	0.016
-406.296	144.421	-0.234	0.310
-405.282	-145.166	0.038	0.003
-404.267	800.000	0.015	0.048
-403.252	800.000	0.013	0.051
-402.238	-200.000	-0.030	-0.201
-401.223	-90.213	0.284	0.082
-400.209	-200.000	-0.002	-0.305
-399.194	293.432	0.053	-0.096
-398.179	168.883	0.156	0.220
-397.165	-200.000	-0.008	0.096
-396.150	-185.608	-0.071	-0.001
-395.136	-94.810	0.344	0.093
-394.121	93.294	0.158	-0.177
-393.106	58.821	0.100	0.097
-392.092	274.928	-0.180	0.316
-391.077	-183.934	-0.290	-0.005
-390.063	2.123	-0.234	-0.168
-389.048	-7.682	-0.216	-0.145
-388.033	-0.081	0.095	-0.067
-387.019	-102.194	-0.086	-0.020
-386.004	202.690	-0.182	0.279
-384.990	42.891	0.112	-0.101
-383.975	-200.000	0.052	-0.295
-382.960	-109.663	0.180	-0.038
-381.946	-200.000	-0.046	0.227
-380.931	-110.559	-0.162	0.033
-379.917	305.560	-0.079	-0.147
-378.902	61.547	-0.065	0.064
-377.888	617.292	0.097	-0.242
-376.873	-200.000	-0.086	-0.385
-375.858	62.543	0.031	0.031
-374.844	-200.000	0.040	-0.228
-373.829	800.000	-0.068	-0.296
-372.815	74.920	-0.144	-0.151
-371.800	-14.616	-0.094	0.060
-370.785	279.508	-0.034	-0.061
-369.771	92.786	-0.216	-0.242
-368.756	532.234	0.089	0.210
-367.742	-71.847	-0.059	-0.022
-366.727	129.537	0.123	-0.155
-365.712	129.335	-0.226	0.286
-364.698	-200.000	-0.022	0.139
-363.683	-32.580	-0.076	0.042
-362.669	-107.000	0.178	0.039
-361.654	800.000	-0.030	0.113
-360.639	785.923	-0.023	0.063
-359.625	-200.000	0.033	-0.172
-358.610	156.309	-0.014	-0.020
-357.596	-72.320	-0.199	0.073
-356.581	-14.031	0.155	-0.099
-355.566	-106.298	0.364	0.081
-354.552	-194.112	0.224	0.002
-353.537	-70.414	0.128	0.048
-352.523	229.088	-0.251	-0.407
-351.508	800.000	-0.101	-0.407
-350.493	-132.392	0.135	-0.017
-349.479	435.268	-0.047	-0.101
-348.464	72.737	-0.047	-0.048
-347.450	-108.017	-0.213	-0.046
-346.435	-130.104	0.392	0.053
-345.420	-190.055	-0.431	-0.005
-344.406	46.670	-0.190	-0.175
-343.391	291.892	0.077	-0.140
-342.377	-200.000	0.010	-0.205
-341.362	-84.659	-0.103	-0.032
-340.348	-55.953	-0.141	-0.063
-339.333	71.117	0.143	-0.147
-338.318	-21.154	0.378	0.229
-337.304	-17.241	-0.277	-0.173
-336.289	-99.615	-0.332	0.082
-335.275	306.476	0.109	-0.201
-334.260	-200.000	-0.030	-0.413
-333.245	25.293	0.347	0.285
-332.231	800.000	0.074	-0.257
-331.216	-8.862	-0.279	0.185
-330.202	-172.541	-0.305	0.010
-329.187	-78.005	0.189	0.065
-328.172	141.538	-0.120	0.158
-327.158	-200.000	0.021	0.194
-326.143	83.658	-0.087	-0.094
-325.129	63.018	-0.196	0.194
-324.114	83.556	0.168	-0.181
-323.099	30.121	0.340	-0.288
-322.085	-9.403	0.079	-0.052
-321.070	-26.257	-0.251	-0.146
-320.056	53.111	0.177	-0.168
-319.041	14.482	0.168	0.130
-318.026	31.967	-0.292	-0.249
-317.012	800.000	-0.024	0.095
-315.997	-64.227	0.074	-0.030
-314.983	165.544	0.040	-0.055
-313.968	575.126	0.032	0.078
-312.953	162.869	0.064	-0.089
-311.939	-200.000	-0.023	0.395
-310.924	-77.465	0.212	-0.073
-309.910	-41.144	-0.161	0.082
-308.895	84.524	0.156	-0.169
-307.880	597.792	-0.061	-0.149
-306.866	310.605	-0.040	0.074
-305.851	-52.321	-0.202	-0.093
-304.837	800.000	0.049	-0.154
-303.822	-122.640	-0.428	-0.069
-302.807	-115.175	0.125	-0.023
-301.793	678.469	-0.059	-0.151
-300.778	800.000	0.050	0.187
-299.764	-157.170	-0.218	0.013
-298.749	-200.000	0.048	-0.318
-297.735	99.209	-0.058	-0.066
-296.720	-12.277	-0.181	0.117
-295.705	-1.866	0.350	0.244
-294.691	739.169	0.066	0.175
-293.676	74.725	-0.132	0.137
-292.662	-200.000	-0.026	0.149
-291.647	16.891	0.215	-0.169
-290.632	34.292	0.289	-0.250
-289.618	-159.208	0.145	0.008
-288.603	-100.174	0.207	-0.051
-287.589	6.753	-0.336	-0.247
-286.574	-159.201	-0.240	-0.013
-285.559	149.694	0.061	0.081
-284.545	52.453	0.153	0.144
-283.530	-200.000	0.036	0.257
-282.516	-84.654	0.250	0.078
-281.501	800.000	-0.027	0.103
-280.486	168.582	0.070	0.099
-279.472	-88.287	0.177	-0.052
-278.457	-200.000	-0.024	-0.560
-277.443	-55.037	0.239	-0.106
-276.428	-174.863	-0.106	0.003
-275.413	-200.000	0.362	-0.002
-274.399	-154.204	-0.135	0.009
-273.384	180.285	0.048	0.070
-272.370	-23.352	0.207	0.123
-271.355	-200.000	0.061	0.342
-270.340	-33.643	0.399	0.218
-269.326	75.154	-0.099	-0.103
-268.311	21.931	0.152	0.122
-267.297	348.795	0.075	0.147
-266.282	-93.557	-0.220	0.060
-265.267	-143.105	-0.156	0.015
-264.253	-200.000	-0.034	-0.238
-263.238	800.000	0.082	0.308
-262.224	800.000	-0.090	-0.310
-261.209	-73.890	-0.304	0.109
-260.195	36.299	-0.182	-0.159
-259.180	-28.956	0.166	-0.094
-258.165	-10.972	-0.342	-0.223
-257.151	-112.597	-0.012	0.002
-256.136	800.000	0.076	-0.284
-255.122	-112.296	-0.295	-0.058
-254.107	-61.329	-0.174	0.072
-253.092	33.282	0.327	0.280
-252.078	-60.481	-0.224	0.094
-251.063	-83.103	-0.092	0.029
-250.049	716.506	-0.152	0.398
-249.034	-50.036	0.204	0.096
-248.019	36.985	0.050	-0.043
-247.005	4.419	-0.059	-0.043
-245.990	800.000	0.023	0.084
-244.976	140.405	0.146	0.190
-243.961	-57.112	0.076	-0.033
-242.946	-200.000	0.008	0.093
-241.932	800.000	0.025	-0.092
-240.917	800.000	-0.089	-0.262
-239.903	-51.876	0.112	-0.051
-238.888	199.610	-0.224	0.339
-237.873	-200.000	0.069	-0.383
-236.859	-200.000	0.010	-0.102
-235.844	-49.292	-0.199	0.094
-234.830	-200.000	-0.032	-0.145
-233.815	156.438	0.126	-0.171
-232.800	31.298	0.243	0.206
-231.786	85.234	0.206	0.223
-230.771	-197.377	-0.127	0.001
-229.757	64.066	-0.192	-0.190
-228.742	180.528	-0.084	-0.122
-227.727	232.323	0.219	0.355
-226.713	168.871	-0.103	-0.145
-225.698	-200.000	-0.000	-0.066
-224.684	-96.074	0.195	0.051
-223.669	68.426	0.112	-0.114
-222.655	11.055	0.198	-0.149
-221.640	30.029	0.359	0.302
-220.625	-200.000	-0.023	0.138
-219.611	209.184	-0.130	-0.200
-218.596	79.656	-0.146	-0.154
-217.582	573.519	-0.089	-0.213
-216.567	-112.045	-0.091	0.018
-215.552	350.428	-0.069	0.134
-214.538	71.463	0.259	0.265
-213.523	58.875	0.077	0.074
-212.509	9.910	-0.053	0.040
-211.494	2.746	0.345	0.247
-210.479	-7.283	0.272	-0.182
-209.465	47.320	0.187	0.172
-208.450	-20.500	-0.276	-0.168
-207.436	-200.000	0.007	0.175
-206.421	61.858	0.076	0.074
-205.406	-12.423	0.063	-0.040
-204.392	26.086	0.234	-0.193
-203.377	-26.500	-0.220	0.127
-202.363	-64.252	-0.399	0.160
-201.348	190.438	-0.132	0.196
-200.333	209.503	0.170	-0.263
-199.319	-116.774	-0.099	-0.018
-198.304	-157.630	-0.449	0.026
-197.290	-74.192	-0.176	0.063
-196.275	-200.000	-0.004	0.084
-195.260	101.224	-0.169	0.194
-194.246	800.000	-0.041	-0.120
-193.231	8.063	-0.415	0.307
-192.217	83.566	0.194	-0.209
-191.202	-200.000	0.017	-0.317
-190.187	200.529	-0.089	0.135
-189.173	-72.593	0.238	-0.086
-188.158	-200.000	0.004	-0.022
-187.144	800.000	-0.053	0.199
-186.129	-119.802	-0.315	-0.053
-185.114	242.251	0.135	-0.223
-184.100	117.770	-0.083	0.100
-183.085	789.498	0.091	-0.245
-182.071	-133.170	-0.404	0.050
-181.056	274.918	0.098	-0.171
-180.042	-81.824	0.524	0.169
-179.027	-7.085	0.120	0.080
-178.012	800.000	0.020	-0.086
-176.998	-18.160	0.172	-0.106
-175.983	92.576	-0.347	-0.386
-174.969	9.461	0.052	0.039
-173.954	800.000	0.040	0.125
-172.939	14.165	0.064	0.049
-171.925	-116.833	0.227	0.041
-170.910	513.351	0.049	0.113
-169.896	93.056	-0.109	-0.121
-168.881	-33.553	-0.095	0.052
-167.866	-81.137	-0.155	-0.050
-166.852	-95.887	0.234	0.061
-165.837	213.464	0.204	0.317
-164.823	-7.005	-0.338	-0.226
-163.808	-44.377	-0.169	0.084
-162.793	-200.000	0.007	0.031
-161.779	91.913	-0.214	0.237
-160.764	-153.816	0.231	-0.016
-159.750	26.201	0.111	-0.091
-158.735	63.284	0.219	0.216
-157.720	-145.753	0.119	0.010
-156.706	-200.000	0.057	0.296
-155.691	-200.000	-0.011	-0.051
-154.677	22.351	0.153	-0.123
-153.662	32.615	0.260	0.222
-152.647	-200.000	-0.019	0.207
-151.633	-5.422	-0.143	-0.097
-150.618	-20.112	0.200	0.121
-149.604	-200.000	-0.012	-0.115
-148.589	-86.859	0.071	-0.021
-147.574	-93.185	0.062	-0.017
-146.560	1.410	0.084	0.060
-145.545	-103.019	0.179	0.042
-144.531	20.518	0.125	0.100
-143.516	455.498	0.177	0.387
-142.502	-200.000	-0.045	-0.297
-141.487	140.197	-0.181	0.235
-140.472	-200.000	0.044	0.197
-139.458	376.517	-0.181	-0.364
-138.443	-130.131	-0.154	-0.021
-137.429	410.069	0.095	-0.199
-136.414	41.449	-0.162	-0.144
-135.399	21.976	0.067	-0.054
-134.385	-133.066	0.119	0.015
-133.370	-200.000	0.011	0.167
-132.356	-200.000	0.002	0.195
-131.341	-113.791	0.189	-0.036
-130.326	-68.214	0.465	0.178
-129.312	-149.490	0.159	0.012
-128.297	44.218	-0.309	0.279
-127.283	58.236	0.118	0.114
-126.268	84.690	0.160	0.172
-125.253	-29.938	0.291	0.163
-124.239	-149.192	0.109	0.009
-123.224	-141.872	-0.154	0.015
-122.210	-79.969	-0.089	0.029
-121.195	126.842	0.160	-0.199
-120.180	-200.000	0.037	0.165
-119.166	-82.188	0.152	-0.049
-118.151	-200.000	-0.004	-0.369
-117.137	-163.640	-0.044	-0.002
-116.122	35.538	-0.194	0.167
-115.107	-200.000	0.006	0.034
-114.093	-107.030	-0.230	0.050
-113.078	-200.000	0.002	0.077
-112.064	78.413	0.137	-0.144
-111.049	453.804	0.138	0.300
-110.034	-61.500	-0.364	0.150
-109.020	-200.000	0.035	-0.426
-108.005	800.000	0.030	-0.102
-106.991	-2.225	-0.216	-0.149
-105.976	176.732	0.212	-0.303
-104.962	-200.000	0.073	0.382
-103.947	26.950	0.199	-0.164
-102.932	-81.730	0.115	-0.037
-101.918	104.106	0.137	0.159
-100.903	30.516	-0.213	-0.179
-99.889	55.240	0.165	-0.157
-98.874	74.748	-0.098	-0.101
-97.859	-129.382	-0.204	-0.028
-96.845	-5.027	-0.142	-0.096
-95.830	-44.482	-0.026	-0.013
-94.816	46.854	-0.157	-0.144
-93.801	-80.362	0.202	0.066
-92.786	7.661	-0.115	-0.085
-91.772	-119.470	-0.071	0.012
-90.757	-15.793	0.321	0.201
-89.743	-148.640	0.089	-0.007
-88.728	352.984	0.223	-0.435
-87.713	-200.000	0.001	0.059
-86.699	215.622	0.151	0.236
-85.684	-15.011	-0.167	-0.105
-84.670	-200.000	-0.013	-0.150
-83.655	-99.225	0.058	0.014
-82.640	41.010	-0.162	0.143
-81.626	-67.184	0.026	0.010
-80.611	84.065	0.072	0.077
-79.597	800.000	0.025	0.100
-78.582	1.946	-0.085	-0.060
-77.567	-154.119	-0.238	0.016
-76.553	98.765	0.245	-0.278
-75.538	-200.000	0.024	0.459
-74.524	-185.110	0.254	0.004
-73.509	800.000	-0.044	-0.171
-72.494	69.902	0.164	0.166
-71.480	244.732	0.233	0.384
-70.465	-10.312	-0.149	0.097
-69.451	-200.000	-0.043	-0.515
-68.436	-200.000	-0.022	0.334
-67.422	-200.000	0.032	-0.408
-66.407	-200.000	-0.027	-0.312
-65.392	800.000	0.010	0.040
-64.378	97.550	-0.162	0.183
-63.363	-3.500	0.231	-0.157
-62.349	-141.878	0.328	-0.032
-61.334	224.879	-0.766	-1.216
-60.319	300.233	0.505	0.913
-59.305	-200.000	-0.202	-1.350
-58.290	605.853	0.365	0.893
-57.276	800.000	0.451	1.322
-56.261	-200.000	100.586	615.963
-55.246	553.697	1438.495	3390.327
-54.232	185.192	2644.087	3846.294
-53.217	108.920	2280.507	2672.510
-52.203	40.121	1893.338	1668.107
-51.188	33.937	1681.490	1434.893
-50.173	31.326	1637.412	1378.002
-49.159	49.772	1687.872	1558.991
-48.144	50.764	1703.555	1580.839
-47.130	33.616	1663.009	1416.503
-46.115	30.893	1648.373	1383.787
-45.100	30.609	1643.384	1377.442
-44.086	30.705	1640.868	1375.989
-43.071	30.678	1638.505	1373.754
-42.057	30.572	1635.915	1370.747
-41.042	30.712	1633.703	1369.872
-40.027	30.724	1632.094	1368.554
-39.013	30.646	1630.413	1366.519
-37.998	30.621	1628.903	1365.014
-36.984	30.632	1627.612	1363.960
-35.969	30.705	1626.032	1363.112
-34.954	30.849	1623.642	1362.114
-33.940	30.797	1621.706	1360.055
-32.925	30.769	1620.369	1358.672
-31.911	30.804	1619.019	1357.741
-30.896	30.783	1617.194	1356.006
-29.881	30.780	1615.517	1354.522
-28.867	30.773	1613.923	1353.081
-27.852	30.734	1612.268	1351.358
-26.838	30.813	1610.563	1350.446
-25.823	30.842	1609.056	1349.342
-24.809	30.831	1607.991	1348.310
-23.794	30.763	1606.942	1346.889
-22.779	30.876	1605.054	1346.068
-21.765	30.837	1603.466	1344.404
-20.750	30.729	1601.675	1342.070
-19.736	30.764	1600.751	1341.494
-18.721	30.933	1598.532	1340.794
-17.706	30.754	1598.147	1339.132
-16.692	30.693	1596.244	1337.047
-15.677	30.849	1594.615	1336.748
-14.663	30.827	1593.237	1335.385
-13.648	30.924	1591.574	1334.632
-12.633	30.760	1590.942	1332.873
-11.619	30.764	1588.990	1331.218
-10.604	30.808	1587.100	1329.895
-9.590	30.815	1585.982	1328.956
-8.575	30.884	1584.600	1328.237
-7.560	30.795	1583.981	1327.031
-6.546	30.880	1582.576	1326.401
-5.531	30.771	1581.794	1324.917
-4.517	30.742	1580.426	1323.517
-3.502	30.792	1579.376	1322.936
-2.487	30.899	1577.500	1322.073
-1.473	30.561	1565.448	1309.539
-0.458	27.475	1546.437	1272.073
0.556	21.651	1546.621	1239.880
1.571	19.308	1571.211	1242.615
2.586	19.044	1584.557	1251.137
3.600	17.282	1532.262	1197.338
4.615	9.257	1423.157	1059.285
5.629	1.401	1358.584	961.551
6.644	-0.236	1350.575	945.490
7.659	-0.284	1348.699	943.794
8.673	-0.356	1348.288	942.972
9.688	-0.344	1346.345	941.604
10.702	-0.551	1342.887	937.807
11.717	2.427	1348.724	960.505
12.731	11.485	1366.121	1030.183
13.746	18.700	1378.488	1085.194
14.761	20.218	1380.196	1096.042
15.775	20.546	1379.454	1097.428
16.790	20.535	1379.096	1096.974
17.804	20.523	1378.857	1096.614
18.819	20.798	1378.178	1097.708
19.834	20.960	1377.838	1098.362
20.848	20.810	1376.710	1096.422
21.863	20.846	1376.287	1096.218
22.877	20.914	1375.374	1095.816
23.892	20.889	1374.316	1094.719
24.907	20.921	1373.232	1093.964
25.921	20.816	1372.581	1092.691
26.936	20.760	1371.474	1091.361
27.950	20.861	1371.027	1091.539
28.965	20.875	1369.506	1090.320
29.980	20.846	1368.075	1088.902
30.994	20.833	1367.097	1087.944
32.009	20.809	1365.892	1086.740
33.023	20.858	1364.074	1085.507
34.038	20.868	1363.383	1084.920
35.053	20.863	1362.344	1083.966
36.067	20.838	1361.860	1083.329
37.082	20.860	1360.757	1082.494
38.096	20.894	1359.860	1081.896
39.111	20.852	1358.727	1080.639
40.126	20.747	1358.325	1079.573
41.140	20.866	1357.610	1079.648
42.155	20.882	1357.480	1079.543
43.169	20.856	1357.194	1079.062
44.184	20.861	1356.792	1078.676
45.199	20.800	1356.535	1077.998
46.213	20.859	1355.552	1077.491
47.228	20.844	1354.944	1076.817
48.242	20.854	1353.622	1075.733
49.257	20.901	1352.148	1074.757
50.271	20.914	1350.459	1073.400
51.286	20.927	1349.563	1072.674
52.301	20.869	1348.277	1071.199
53.315	20.954	1347.114	1070.702
54.330	20.792	1346.994	1069.514
55.344	20.826	1345.533	1068.469
56.359	20.865	1344.334	1067.664
57.374	20.757	1343.976	1066.619
58.388	20.781	1343.215	1066.071
59.403	20.947	1342.552	1066.467
60.417	21.023	1341.723	1066.177
61.432	20.908	1341.160	1064.932
62.447	20.849	1340.654	1064.075
63.461	20.933	1339.268	1063.393
64.476	20.875	1337.663	1061.671
65.490	20.887	1336.946	1061.081
66.505	20.888	1335.057	1059.495
67.520	20.803	1334.336	1058.316
68.534	20.927	1332.787	1057.746
69.549	20.786	1332.557	1056.610
70.563	20.835	1331.034	1055.608
71.578	20.856	1329.962	1054.792
72.593	20.851	1329.232	1054.092
73.607	20.903	1328.440	1053.681
74.622	20.968	1327.733	1053.423
75.636	20.731	1327.018	1051.331
76.651	20.835	1326.324	1051.314
77.666	20.882	1325.777	1051.068
78.680	20.962	1325.058	1050.892
79.695	20.892	1324.184	1049.685
80.709	20.845	1323.417	1048.697
81.724	20.845	1322.565	1047.929
82.739	21.016	1321.262	1047.834
83.753	20.908	1320.543	1046.522
84.768	20.938	1319.428	1045.723
85.782	20.933	1318.267	1044.685
86.797	20.931	1317.183	1043.720
87.812	20.818	1316.198	1042.171
88.826	20.956	1315.190	1042.107
89.841	20.890	1314.257	1040.879
90.855	20.842	1313.202	1039.667
91.870	20.885	1312.196	1039.033
92.884	20.931	1311.492	1038.658
93.899	20.928	1310.765	1037.974
94.914	20.934	1310.065	1037.360
95.928	20.933	1308.986	1036.410
96.943	20.970	1308.203	1035.919
97.957	20.952	1307.577	1035.227
98.972	20.929	1306.441	1034.098
99.987	20.907	1305.694	1033.282
101.001	21.081	1303.948	1032.843
102.016	20.975	1303.281	1031.592
103.030	20.902	1302.415	1030.384
104.045	21.026	1301.135	1030.016
105.060	20.990	1300.686	1029.356
106.074	20.969	1299.688	1028.350
107.089	21.035	1298.304	1027.551
108.103	20.987	1297.344	1026.419
109.118	20.898	1296.485	1025.128
110.133	21.012	1294.950	1024.488
111.147	21.031	1294.206	1023.923
112.162	20.974	1292.788	1022.376
113.176	21.001	1291.633	1021.533
114.191	21.019	1290.885	1020.955
115.206	21.031	1289.854	1020.122
116.220	20.943	1288.904	1018.764
117.235	21.066	1287.672	1018.418
118.249	21.076	1286.884	1017.761
119.264	21.122	1285.391	1016.762
120.279	21.032	1285.020	1015.850
121.293	21.052	1284.293	1015.306
122.308	21.093	1283.381	1014.731
123.322	21.095	1282.001	1013.561
124.337	21.096	1281.213	1012.857
125.352	21.102	1280.548	1012.274
126.366	21.144	1279.489	1011.590
127.381	21.240	1278.397	1011.193
128.395	21.025	1277.902	1009.471
129.410	21.097	1276.530	1008.711
130.424	21.133	1276.102	1008.491
131.439	20.993	1275.401	1007.043
132.454	21.076	1274.186	1006.472
133.468	21.112	1273.490	1006.042
134.483	21.085	1273.015	1005.421
135.497	21.055	1272.504	1004.756
136.512	21.142	1271.241	1004.167
137.527	21.019	1270.033	1002.417
138.541	21.030	1268.581	1001.249
139.556	20.923	1267.413	999.625
140.570	21.037	1266.296	999.308
141.585	21.059	1265.018	998.336
142.600	21.045	1263.939	997.317
143.614	20.997	1263.396	996.527
144.629	21.034	1261.790	995.384
145.643	20.925	1261.069	994.103
146.658	20.921	1260.083	993.217
147.673	20.955	1259.554	992.906
148.687	21.053	1258.215	992.316
149.702	20.966	1257.149	990.893
150.716	21.044	1255.410	989.878
151.731	21.088	1254.911	989.645
152.746	21.040	1253.662	988.304
153.760	21.150	1252.546	987.961
154.775	21.090	1251.540	986.739
155.789	21.059	1250.835	985.919
156.804	20.964	1249.969	984.613
157.819	21.132	1248.725	984.497
158.833	21.103	1248.180	983.816
159.848	21.065	1247.412	982.909
160.862	21.126	1246.431	982.391
161.877	21.184	1245.466	981.869
162.892	21.143	1244.558	980.838
163.906	21.183	1243.692	980.294
164.921	21.136	1243.272	979.609
165.935	21.190	1242.335	979.089
166.950	21.198	1241.849	978.661
167.964	21.207	1241.187	978.103
168.979	21.183	1240.740	977.532
169.994	21.265	1240.188	977.471
171.008	21.159	1239.342	976.122
172.023	21.153	1238.650	975.457
173.037	21.229	1238.068	975.337
174.052	21.166	1237.255	974.260
175.067	21.281	1236.279	974.049
176.081	21.140	1235.697	972.714
177.096	21.206	1234.825	972.309
178.110	21.246	1233.655	971.527
179.125	21.262	1232.887	970.923
180.140	21.341	1231.420	970.122
181.154	21.330	1230.702	969.412
182.169	21.197	1229.453	967.601
183.183	21.248	1228.326	966.911
184.198	21.313	1227.386	966.449
185.213	21.264	1226.841	965.660
186.227	21.250	1225.545	964.481
187.242	21.294	1225.012	964.219
188.256	21.355	1223.808	963.523
189.271	21.271	1223.300	962.574
190.286	21.302	1222.390	961.940
191.300	21.186	1222.005	960.914
192.315	21.236	1221.902	961.024
193.329	21.344	1221.110	960.909
194.344	21.331	1220.563	960.320
195.359	21.308	1219.711	959.441
196.373	21.353	1219.181	959.187
197.388	21.207	1218.967	958.134
198.402	21.230	1218.821	958.059
199.417	21.287	1218.423	957.975
200.432	21.394	1217.405	957.677
201.446	21.250	1217.289	956.709
202.461	21.302	1216.399	956.212
203.475	21.294	1215.020	954.998
204.490	21.238	1214.274	954.023
205.504	21.210	1213.803	953.414
206.519	21.293	1212.454	952.721
207.534	21.416	1211.422	952.498
208.548	21.388	1210.648	951.651
209.563	21.288	1210.078	950.577
210.577	21.265	1209.162	949.648
211.592	21.370	1207.767	949.039
212.607	21.461	1207.265	949.052
213.621	21.513	1206.714	948.819
214.636	21.464	1206.096	947.980
215.650	21.455	1205.136	947.095
216.665	21.455	1204.134	946.225
217.680	21.374	1203.795	945.434
218.694	21.463	1202.500	944.814
219.709	21.477	1201.804	944.260
220.723	21.463	1201.115	943.560
221.738	21.392	1200.973	942.980
222.753	21.360	1199.757	941.769
223.767	21.384	1199.220	941.398
224.782	21.553	1198.479	941.638
225.796	21.549	1198.456	941.515
226.811	21.554	1197.687	940.859
227.826	21.437	1197.074	939.666
228.840	21.576	1196.286	939.705
229.855	21.471	1195.582	938.511
230.869	21.454	1194.961	937.846
231.884	21.462	1194.286	937.277
232.899	21.463	1193.657	936.709
233.913	21.558	1193.235	936.800
234.928	21.583	1192.212	936.047
235.942	21.661	1191.640	935.932
236.957	21.633	1191.150	935.317
237.972	21.578	1190.501	934.430
238.986	21.485	1190.039	933.489
240.001	21.509	1189.531	933.134
241.015	21.751	1188.116	933.229
242.030	21.696	1187.841	932.641
243.045	21.708	1186.591	931.638
244.059	21.673	1185.767	930.724
245.074	21.598	1185.766	930.242
246.088	21.765	1184.640	930.161
247.103	21.698	1184.053	929.263
248.117	21.631	1183.120	928.094
249.132	21.703	1182.360	927.796
250.147	21.762	1181.709	927.515
251.161	21.832	1180.769	927.069
252.176	21.647	1180.690	925.948
253.190	21.692	1179.671	925.304
254.205	21.839	1179.033	925.495
255.220	21.814	1178.261	924.678
256.234	21.880	1177.553	924.388
257.249	21.686	1177.646	923.353
258.263	21.728	1176.921	922.927
259.278	21.696	1176.357	922.236
260.293	21.782	1175.657	922.054
261.307	21.840	1175.001	921.762
262.322	21.691	1174.629	920.608
263.336	21.882	1173.721	920.819
264.351	21.764	1173.434	919.892
265.366	21.864	1172.165	919.338
266.380	21.788	1172.211	918.898
267.395	21.865	1171.116	918.358
268.409	21.798	1170.272	917.267
269.424	21.801	1170.157	917.113
270.439	21.823	1169.642	916.743
271.453	21.799	1168.817	915.887
272.468	21.724	1168.310	915.018
273.482	21.852	1167.565	915.023
274.497	21.881	1166.663	914.385
275.512	21.900	1166.021	913.899
276.526	21.920	1165.555	913.557
277.541	21.913	1164.844	912.882
278.555	21.925	1164.494	912.593
279.570	21.935	1163.591	911.855
280.585	22.010	1162.636	911.412
281.599	21.970	1161.590	910.306
282.614	21.964	1160.926	909.675
283.628	22.018	1159.915	909.082
284.643	22.052	1159.173	908.596
285.657	22.024	1158.538	907.874
286.672	22.051	1157.650	907.233
287.687	21.911	1157.134	906.029
288.701	21.984	1156.561	905.874
289.716	22.003	1155.775	905.279
290.730	22.123	1154.720	904.987
291.745	22.085	1154.358	904.430
292.760	22.024	1154.312	904.002
293.774	22.056	1153.444	903.403
294.789	21.997	1152.636	902.387
295.803	22.105	1152.017	902.378
296.818	22.050	1151.601	901.691
297.833	22.094	1150.794	901.205
298.847	22.081	1150.274	900.649
299.862	22.104	1149.196	899.848
300.876	22.077	1148.815	899.328
301.891	22.273	1147.806	899.462
302.906	22.294	1147.286	899.085
303.920	22.329	1146.863	898.850
304.935	22.157	1146.150	897.334
305.949	22.167	1145.632	896.900
306.964	22.205	1144.989	896.512
307.979	22.288	1143.917	896.015
308.993	22.287	1143.585	895.669
310.008	22.233	1143.085	894.925
311.022	22.386	1142.171	894.907
312.037	22.114	1141.768	893.133
313.052	22.297	1140.425	892.932
314.066	22.380	1139.532	892.572
315.081	22.281	1139.165	891.703
316.095	22.251	1138.423	890.894
317.110	22.415	1137.779	891.139
318.125	22.291	1137.311	890.065
319.139	22.225	1136.933	889.358
320.154	22.288	1135.845	888.746
321.168	22.285	1135.351	888.265
322.183	22.350	1134.649	887.969
323.197	22.393	1134.093	887.668
324.212	22.289	1133.546	886.641
325.227	22.377	1133.268	886.789
326.241	22.364	1132.601	886.123
327.256	22.462	1131.625	885.771
328.270	22.414	1130.665	884.703
329.285	22.451	1129.955	884.251
330.300	22.494	1129.194	883.796
331.314	22.318	1128.764	882.496
332.329	22.439	1127.727	882.216
333.343	22.413	1126.911	881.370
334.358	22.533	1125.946	881.138
335.373	22.574	1125.701	881.073
336.387	22.538	1124.897	880.182
337.402	22.373	1124.688	879.117
338.416	22.459	1123.723	878.718
339.431	22.518	1122.915	878.301
340.446	22.505	1122.251	877.638
341.460	22.618	1121.981	877.914
342.475	22.714	1120.487	877.141
343.489	22.603	1119.762	875.949
344.504	22.573	1119.088	875.190
345.519	22.532	1118.129	874.162
346.533	22.638	1117.579	874.181
347.548	22.719	1116.637	873.770
348.562	22.689	1116.207	873.205
349.577	22.595	1115.475	872.089
350.592	22.516	1114.831	871.119
351.606	22.534	1114.322	870.734
352.621	22.781	1113.714	871.399
353.635	22.746	1112.918	870.528
354.650	22.768	1112.339	870.105
355.665	22.894	1111.573	870.049
356.679	22.727	1111.271	868.917
357.694	22.706	1110.780	868.349
358.708	22.701	1109.750	867.446
359.723	22.479	1109.607	866.165
360.738	22.658	1108.620	866.199
361.752	22.763	1108.147	866.266
362.767	22.811	1107.471	865.896
363.781	22.657	1107.386	865.000
364.796	22.889	1106.357	865.256
365.810	22.850	1106.092	864.778
366.825	22.876	1105.147	864.089
367.840	22.878	1104.506	863.522
368.854	22.882	1104.159	863.193
369.869	22.895	1103.168	862.405
370.883	22.875	1102.610	861.799
371.898	22.849	1101.814	860.970
372.913	22.887	1101.386	860.746
373.927	22.940	1100.661	860.364
374.942	23.014	1100.188	860.277
375.956	22.960	1099.763	859.603
376.971	22.959	1099.162	859.057
377.986	22.914	1098.987	858.622
379.000	23.029	1098.260	858.540
380.015	22.904	1097.952	857.616
381.029	22.974	1096.981	857.119
382.044	23.018	1096.415	856.816
383.059	23.048	1095.718	856.340
384.073	22.973	1094.901	855.261
385.088	23.100	1094.105	855.179
386.102	23.123	1093.333	854.611
387.117	23.104	1092.031	853.425
388.132	23.106	1091.685	853.089
389.146	23.085	1091.159	852.503
390.161	23.204	1090.117	852.187
391.175	23.090	1089.645	851.191
392.190	23.213	1089.101	851.281
393.205	23.089	1088.075	849.810
394.219	23.100	1087.641	849.451
395.234	23.050	1087.086	848.699
396.248	23.305	1085.595	848.683
397.263	23.241	1084.458	847.412
398.278	23.323	1084.443	847.719
399.292	23.221	1083.968	846.783
400.307	23.223	1083.655	846.475
401.321	23.301	1082.593	845.943
402.336	23.234	1081.940	845.038
403.350	23.233	1081.488	844.606
404.365	23.303	1081.312	844.729
405.380	23.223	1080.103	843.326
406.394	23.274	1079.249	842.827
407.409	23.362	1078.414	842.520
408.423	23.448	1077.654	842.262
409.438	23.296	1077.126	841.049
410.453	23.326	1076.462	840.599
411.467	23.495	1075.536	840.606
412.482	23.381	1074.973	839.550
413.496	23.400	1074.567	839.249
414.511	23.430	1073.853	838.757
415.526	23.372	1073.391	838.047
416.540	23.444	1072.558	837.664
417.555	23.379	1072.627	837.337
418.569	23.475	1072.080	837.288
419.584	23.526	1071.222	836.784
420.599	23.427	1071.318	836.321
421.613	149.342	1400.016	1799.323
422.628	137.641	1447.865	1799.437
