DTS Sentinel unit serial number:	SN413079Multiplexer serial number:	ORYXHardware model number:	OX4-SRSoftware version number:	ORYX F/W v4.00 Oryx Data Collector v3.7.2.0data status	okinstallation	princeton_trtdifferential loss correction	single-endedforward channel	channel 2reverse channel	N/Adate	2019/09/19time	10:35:35forward acquisition time	60.00reverse acquisition time	0.00gamma	496.2192k internal	0.2342k external	0.2342temperature offset calibration	1.0009default loss term (dB/km)	0.3790temperature slope calibration	1.0000multiplexer offset coefficient	1.0000multiplexer slope coefficient	1.0000fibre end	0.00T internal ref (°C)	24.47T ext. ref 1 (°C)	0.73T ext. ref 2 (°C)	19.98length (m)	temperature (°C)	Stokes	anti-Stokes-747.200	-47.551	-0.079	-0.039
-746.185	-65.131	-0.262	-0.106
-745.171	-200.000	0.054	0.366
-744.156	-143.803	0.116	-0.011
-743.142	587.748	-0.046	0.113
-742.127	3.859	-0.555	0.406
-741.112	261.381	-0.113	-0.197
-740.098	-200.000	-0.041	0.358
-739.083	-163.680	-0.292	-0.014
-738.069	-33.482	-0.580	0.321
-737.054	-132.233	-0.088	0.011
-736.039	179.667	-0.135	-0.198
-735.025	212.653	-0.075	0.119
-734.010	800.000	-0.077	0.235
-732.996	-38.389	-0.260	-0.138
-731.981	-142.735	0.061	-0.006
-730.966	-200.000	-0.034	-0.161
-729.952	-121.705	0.085	-0.014
-728.937	-200.000	0.015	0.092
-727.923	-22.579	-0.211	-0.128
-726.908	2.811	0.044	-0.032
-725.894	54.642	0.130	-0.126
-724.879	321.615	0.111	-0.212
-723.864	551.818	-0.095	-0.229
-722.850	-200.000	-0.016	-0.292
-721.835	115.067	0.164	0.201
-720.821	174.918	-0.229	0.332
-719.806	730.489	0.052	0.140
-718.791	101.707	-0.074	-0.086
-717.777	-64.744	0.249	0.101
-716.762	449.002	-0.132	0.292
-715.748	21.227	0.114	0.092
-714.733	1.139	0.126	-0.090
-713.718	800.000	-0.051	-0.161
-712.704	-135.481	-0.005	-0.001
-711.689	450.780	-0.095	-0.209
-710.675	-121.698	0.489	0.081
-709.660	800.000	-0.032	0.104
-708.645	-173.582	0.080	0.002
-707.631	19.395	-0.095	-0.076
-706.616	76.790	0.134	0.142
-705.602	-200.000	0.020	-0.252
-704.587	-200.000	-0.025	0.337
-703.572	-45.822	-0.150	0.074
-702.558	-67.953	0.103	-0.040
-701.543	345.194	0.046	-0.090
-700.529	293.313	-0.103	0.188
-699.514	33.068	0.225	-0.195
-698.499	514.880	0.102	0.238
-697.485	104.501	0.025	-0.029
-696.470	800.000	0.042	0.162
-695.456	18.272	0.171	-0.136
-694.441	-77.041	-0.241	0.084
-693.426	800.000	-0.068	-0.247
-692.412	-200.000	0.012	-0.150
-691.397	-200.000	-0.010	0.397
-690.383	114.101	0.083	-0.101
-689.368	123.902	-0.076	-0.095
-688.354	275.863	0.098	0.174
-687.339	-60.933	0.137	-0.058
-686.324	800.000	0.013	-0.047
-685.310	800.000	0.057	-0.227
-684.295	-157.111	-0.213	0.013
-683.281	800.000	-0.083	-0.260
-682.266	-136.926	-0.119	-0.014
-681.251	-86.712	-0.090	0.028
-680.237	-200.000	-0.002	-0.196
-679.222	-200.000	0.012	0.272
-678.208	-200.000	0.083	0.378
-677.193	276.780	-0.098	-0.174
-676.178	53.632	-0.197	0.189
-675.164	-7.541	0.162	-0.109
-674.149	-200.000	-0.044	-0.231
-673.135	-102.609	0.215	0.051
-672.120	107.804	0.107	0.128
-671.105	182.431	0.102	0.150
-670.091	-27.153	-0.210	0.122
-669.076	27.441	0.623	0.523
-668.062	505.234	-0.155	0.359
-667.047	-143.895	0.123	0.012
-666.032	-93.881	-0.148	0.041
-665.018	97.239	0.055	-0.063
-664.003	-200.000	0.005	0.084
-662.989	121.784	0.049	-0.061
-661.974	-126.268	0.030	-0.004
-660.959	-136.305	-0.308	-0.036
-659.945	51.559	-0.249	0.236
-658.930	-200.000	-0.066	0.426
-657.916	800.000	-0.124	-0.367
-656.901	-200.000	0.019	-0.198
-655.886	-128.751	-0.118	0.017
-654.872	106.439	-0.163	0.193
-653.857	-0.960	-0.051	0.036
-652.843	800.000	0.098	0.336
-651.828	800.000	-0.068	0.257
-650.814	28.010	0.135	0.114
-649.799	800.000	-0.121	-0.495
-648.784	68.363	0.108	0.110
-647.770	214.996	0.145	-0.230
-646.755	-153.369	-0.192	0.013
-645.741	-5.170	0.130	-0.090
-644.726	-200.000	-0.004	-0.190
-643.711	800.000	0.079	-0.265
-642.697	-62.758	-0.170	0.070
-641.682	-141.993	-0.149	-0.015
-640.668	271.804	0.189	0.332
-639.653	-200.000	-0.001	0.082
-638.638	-136.207	-0.482	0.056
-637.624	64.989	-0.216	-0.218
-636.609	800.000	-0.041	-0.167
-635.595	800.000	-0.120	0.353
-634.580	-19.856	0.365	0.225
-633.565	-105.290	-0.300	0.068
-632.551	-95.936	-0.214	-0.057
-631.536	58.274	0.133	-0.130
-630.522	197.174	-0.202	0.308
-629.507	55.348	0.247	-0.239
-628.492	58.145	0.281	-0.274
-627.478	-56.234	-0.095	0.042
-626.463	140.228	-0.138	-0.181
-625.449	469.810	-0.052	0.116
-624.434	118.654	0.094	-0.116
-623.419	74.897	0.116	-0.122
-622.405	-200.000	0.018	0.201
-621.390	266.063	-0.173	-0.301
-620.376	-102.617	-0.519	0.123
-619.361	-2.805	0.069	-0.048
-618.346	-130.237	-0.097	-0.013
-617.332	-12.893	-0.298	0.193
-616.317	-200.000	-0.015	-0.233
-615.303	344.825	-0.086	-0.168
-614.288	463.353	-0.030	0.066
-613.273	-22.174	0.276	-0.167
-612.259	184.536	0.085	0.125
-611.244	640.688	-0.047	-0.120
-610.230	-16.227	-0.296	0.187
-609.215	-173.128	-0.205	0.006
-608.201	800.000	-0.046	-0.139
-607.186	-200.000	-0.011	0.082
-606.171	510.341	0.047	-0.108
-605.157	800.000	-0.037	0.147
-604.142	-96.585	-0.394	0.104
-603.128	-187.768	-0.225	-0.003
-602.113	114.759	-0.206	0.250
-601.098	-55.491	0.169	-0.076
-600.084	512.431	-0.086	-0.199
-599.069	800.000	0.044	0.179
-598.055	-122.953	-0.099	-0.016
-597.040	800.000	0.053	0.164
-596.025	211.844	-0.141	0.221
-595.011	-14.274	0.325	0.209
-593.996	-31.187	-0.073	-0.041
-592.982	85.228	-0.127	0.139
-591.967	800.000	0.074	0.296
-590.952	-200.000	-0.008	0.229
-589.938	-176.104	0.090	-0.002
-588.923	-24.149	-0.068	0.040
-587.909	-26.904	0.153	0.089
-586.894	3.662	0.119	0.086
-585.879	-69.673	-0.183	-0.070
-584.865	-95.157	-0.228	-0.061
-583.850	-56.852	0.123	0.054
-582.836	-121.877	0.263	0.043
-581.821	46.709	-0.349	0.323
-580.806	-109.407	-0.317	-0.067
-579.792	800.000	0.056	-0.196
-578.777	147.934	-0.185	-0.248
-577.763	800.000	0.041	0.124
-576.748	297.531	-0.240	-0.439
-575.733	254.960	0.221	-0.377
-574.719	2.169	-0.204	0.146
-573.704	265.248	0.113	0.196
-572.690	-200.000	-0.001	0.121
-571.675	-109.584	-0.071	-0.015
-570.661	-53.513	0.305	-0.139
-569.646	27.130	-0.123	-0.102
-568.631	-200.000	0.024	-0.163
-567.617	-32.883	0.249	-0.137
-566.602	11.201	-0.084	-0.064
-565.588	-200.000	0.035	-0.245
-564.573	-44.310	0.057	-0.029
-563.558	-95.220	-0.241	-0.065
-562.544	40.674	0.212	0.190
-561.529	-70.157	-0.295	-0.111
-560.515	-46.548	0.068	-0.033
-559.500	-47.399	-0.343	-0.166
-558.485	27.494	0.280	0.234
-557.471	800.000	-0.061	-0.182
-556.456	132.555	-0.066	-0.084
-555.442	800.000	-0.143	-0.445
-554.427	-103.868	-0.190	-0.044
-553.412	-200.000	-0.001	-0.168
-552.398	270.781	-0.100	0.175
-551.383	306.037	-0.224	0.414
-550.369	-30.752	-0.320	-0.180
-549.354	-107.818	0.503	-0.109
-548.339	-134.687	0.167	0.020
-547.325	-25.652	-0.309	0.181
-546.310	-134.496	0.169	0.020
-545.296	-141.143	-0.295	0.030
-544.281	800.000	-0.036	0.139
-543.266	158.473	0.129	0.178
-542.252	101.264	-0.190	-0.219
-541.237	-9.882	-0.186	-0.123
-540.223	114.126	-0.155	-0.188
-539.208	-200.000	-0.024	-0.133
-538.193	94.525	-0.063	0.072
-537.179	800.000	0.053	-0.211
-536.164	-144.759	-0.344	-0.031
-535.150	281.542	0.051	0.091
-534.135	-152.633	-0.148	-0.011
-533.121	-62.294	-0.254	-0.105
-532.106	-21.533	0.211	-0.128
-531.091	-131.040	-0.081	-0.011
-530.077	800.000	0.063	0.214
-529.062	-114.947	-0.012	-0.002
-528.048	-19.120	0.065	-0.040
-527.033	-49.480	0.218	-0.103
-526.018	89.987	-0.241	0.267
-525.004	116.061	0.125	0.152
-523.989	-1.794	-0.289	0.202
-522.975	631.515	-0.081	0.203
-521.960	-106.022	-0.074	-0.016
-520.945	70.579	0.128	-0.132
-519.931	30.287	0.166	0.141
-518.916	411.620	0.080	0.168
-517.902	-200.000	0.001	0.280
-516.887	-200.000	-0.017	-0.187
-515.872	-108.267	0.133	0.028
-514.858	-200.000	0.017	0.232
-513.843	71.473	-0.183	-0.189
-512.829	-43.025	0.247	-0.124
-511.814	-200.000	0.041	0.274
-510.799	-99.945	-0.244	-0.061
-509.785	-2.698	-0.065	-0.045
-508.770	-154.212	0.086	0.006
-507.756	215.798	0.105	-0.166
-506.741	-148.482	0.208	0.017
-505.726	53.814	-0.110	0.105
-504.712	-54.079	0.251	-0.113
-503.697	195.602	0.041	0.062
-502.683	-200.000	0.037	0.490
-501.668	-53.064	-0.362	0.165
-500.653	-200.000	-0.005	-0.268
-499.639	800.000	0.032	-0.098
-498.624	-66.723	0.277	-0.109
-497.610	-103.026	0.114	-0.027
-496.595	147.707	0.108	-0.144
-495.581	-95.856	0.273	-0.072
-494.566	45.604	0.136	-0.124
-493.551	800.000	0.036	0.151
-492.537	24.961	0.231	0.190
-491.522	180.562	-0.148	-0.215
-490.508	800.000	0.036	-0.102
-489.493	-140.132	-0.106	-0.011
-488.478	-50.579	-0.147	-0.069
-487.464	-200.000	-0.022	-0.211
-486.449	-27.967	0.035	0.020
-485.435	-200.000	-0.024	-0.409
-484.420	800.000	0.122	-0.411
-483.405	800.000	-0.074	-0.210
-482.391	-163.706	0.308	-0.014
-481.376	15.746	-0.273	-0.213
-480.362	-200.000	-0.038	-0.191
-479.347	660.564	-0.038	0.097
-478.332	262.578	-0.035	-0.061
-477.318	-6.849	0.254	-0.171
-476.303	-33.532	0.203	-0.111
-475.289	312.383	0.155	-0.288
-474.274	800.000	-0.049	0.168
-473.259	800.000	0.057	-0.165
-472.245	113.363	-0.177	-0.213
-471.230	14.800	-0.268	0.208
-470.216	-140.372	0.370	-0.038
-469.201	800.000	-0.059	0.220
-468.186	-200.000	0.011	0.131
-467.172	-102.552	0.152	0.036
-466.157	48.249	0.129	-0.120
-465.143	-56.175	0.332	0.146
-464.128	145.684	-0.316	-0.420
-463.113	-200.000	0.083	0.376
-462.099	800.000	0.041	0.124
-461.084	-79.556	-0.153	0.051
-460.070	422.893	-0.078	-0.166
-459.055	-82.804	-0.103	-0.033
-458.040	-77.692	0.139	0.048
-457.026	-176.322	0.051	-0.001
-456.011	-200.000	0.049	0.243
-454.997	-93.822	0.256	-0.070
-453.982	67.699	0.192	-0.194
-452.968	-200.000	0.006	0.128
-451.953	-116.784	0.083	0.015
-450.938	174.094	0.127	-0.182
-449.924	36.874	0.317	-0.278
-448.909	158.923	0.113	-0.155
-447.895	158.441	0.188	-0.258
-446.880	56.006	-0.320	0.307
-445.865	-20.520	-0.218	-0.133
-444.851	-16.636	-0.390	-0.244
-443.836	205.373	0.169	0.261
-442.822	800.000	-0.102	0.368
-441.807	72.390	-0.134	-0.139
-440.792	539.051	-0.078	-0.184
-439.778	12.221	0.154	0.118
-438.763	185.050	-0.128	-0.187
-437.749	7.345	-0.115	-0.085
-436.734	102.877	0.176	0.204
-435.719	800.000	0.067	-0.214
-434.705	-89.863	0.394	-0.114
-433.690	118.125	-0.273	0.333
-432.676	-200.000	0.007	-0.091
-431.661	-200.000	-0.086	-0.000
-430.646	800.000	-0.064	-0.251
-429.632	163.791	-0.108	0.150
-428.617	-118.323	0.249	0.044
-427.603	464.659	0.108	0.239
-426.588	84.370	0.087	0.095
-425.573	-72.509	0.219	-0.080
-424.559	-172.068	-0.098	0.003
-423.544	-200.000	-0.000	0.488
-422.530	9.865	-0.093	0.070
-421.515	71.135	0.329	-0.338
-420.500	302.285	-0.063	-0.115
-419.486	-37.487	0.127	0.067
-418.471	146.658	-0.257	0.342
-417.457	-200.000	0.004	-0.137
-416.442	229.018	-0.141	-0.228
-415.428	-161.097	0.198	0.010
-414.413	-99.640	-0.353	-0.088
-413.398	-196.654	0.112	-0.001
-412.384	-200.000	0.069	0.370
-411.369	800.000	0.022	-0.070
-410.355	800.000	-0.070	0.243
-409.340	133.936	0.037	-0.047
-408.325	-88.821	-0.191	-0.056
-407.311	8.751	0.021	-0.016
-406.296	-19.848	0.273	0.167
-405.282	282.884	-0.104	-0.184
-404.267	29.499	0.166	0.140
-403.252	-152.531	-0.233	0.016
-402.238	-54.380	0.084	0.038
-401.223	-30.761	0.176	0.099
-400.209	-15.925	0.267	-0.168
-399.194	-126.576	-0.156	0.023
-398.179	120.768	-0.260	-0.320
-397.165	689.745	0.121	-0.312
-396.150	-139.643	0.310	0.033
-395.136	-63.904	0.419	-0.169
-394.121	86.307	-0.114	0.124
-393.106	800.000	0.041	-0.152
-392.092	-118.746	0.299	-0.052
-391.077	36.479	-0.063	0.055
-390.063	-156.582	0.091	-0.006
-389.048	800.000	-0.031	-0.109
-388.033	645.702	-0.075	-0.190
-387.019	800.000	-0.084	0.239
-386.004	-89.822	-0.067	0.019
-384.990	-34.087	-0.136	-0.074
-383.975	90.726	0.063	0.070
-382.960	245.712	-0.152	0.252
-381.946	-102.814	-0.241	-0.057
-380.931	-200.000	0.004	0.298
-379.917	272.071	-0.125	-0.217
-378.902	-72.472	-0.078	0.028
-377.888	800.000	-0.098	0.295
-376.873	11.690	-0.173	-0.131
-375.858	-200.000	-0.040	-0.176
-374.844	-84.873	0.424	0.131
-373.829	215.318	0.113	0.176
-372.815	211.893	-0.188	-0.292
-371.800	-108.969	-0.284	-0.060
-370.785	52.187	0.210	0.198
-369.771	-200.000	0.026	0.314
-368.756	-200.000	-0.014	-0.123
-367.742	314.750	0.095	-0.176
-366.727	-176.565	0.251	-0.006
-365.712	78.011	-0.094	0.098
-364.698	-17.514	-0.320	-0.199
-363.683	-75.996	-0.258	0.090
-362.669	284.983	0.055	0.098
-361.654	22.105	0.295	0.238
-360.639	536.919	-0.089	-0.209
-359.625	-162.633	-0.058	-0.003
-358.610	-200.000	0.009	0.078
-357.596	-109.262	-0.213	0.045
-356.581	800.000	0.149	0.407
-355.566	58.137	-0.265	0.256
-354.552	-200.000	-0.113	-0.633
-353.537	-162.858	-0.075	0.004
-352.523	800.000	-0.046	0.154
-351.508	-17.333	0.186	0.116
-350.493	800.000	0.060	-0.235
-349.479	32.968	0.058	-0.050
-348.464	-200.000	-0.009	-0.103
-347.450	-200.000	-0.037	0.186
-346.435	251.250	-0.224	-0.376
-345.420	-200.000	-0.028	0.331
-344.406	-130.647	0.271	0.036
-343.391	149.040	-0.145	-0.194
-342.377	95.250	0.166	-0.187
-341.362	-86.385	-0.117	0.035
-340.348	-127.275	-0.151	-0.022
-339.333	-64.847	-0.251	0.100
-338.318	0.294	-0.379	0.267
-337.304	-159.090	0.399	-0.022
-336.289	-64.553	0.111	0.044
-335.275	2.630	0.130	0.093
-334.260	-61.600	0.381	0.158
-333.245	605.153	0.090	0.221
-332.231	-139.061	-0.154	0.016
-331.216	20.940	-0.118	-0.094
-330.202	-200.000	-0.056	-0.306
-329.187	-200.000	0.012	-0.187
-328.172	-24.400	0.201	-0.118
-327.158	242.092	-0.058	-0.096
-326.143	141.824	0.285	0.373
-325.129	324.047	0.092	0.172
-324.114	317.020	0.108	0.201
-323.099	86.345	-0.242	-0.263
-322.085	35.006	0.183	-0.158
-321.070	-139.591	0.116	0.012
-320.056	-200.000	-0.007	0.081
-319.041	140.156	-0.278	-0.361
-318.026	-100.769	-0.218	0.053
-317.012	-17.568	0.059	0.036
-315.997	-200.000	-0.013	-0.077
-314.983	-91.069	0.236	0.067
-313.968	-200.000	0.073	-0.350
-312.953	10.488	-0.159	-0.119
-311.939	30.790	-0.085	-0.072
-310.924	-13.027	0.078	-0.050
-309.910	456.363	0.014	-0.031
-308.895	125.254	-0.396	-0.492
-307.880	4.633	0.100	0.072
-306.866	166.762	0.103	0.144
-305.851	-21.972	-0.139	0.083
-304.837	-187.716	0.197	0.003
-303.822	36.016	-0.205	-0.178
-302.807	200.985	0.125	0.189
-301.793	201.209	-0.247	-0.374
-300.778	1.538	-0.405	-0.287
-299.764	-125.875	0.173	-0.026
-298.749	-200.000	0.079	-0.383
-297.735	-126.906	-0.294	-0.043
-296.720	-130.637	0.394	0.052
-295.705	-65.371	-0.055	-0.022
-294.691	-32.848	0.138	0.076
-293.676	-3.599	-0.181	-0.124
-292.662	169.350	-0.246	0.346
-291.647	-28.418	0.136	-0.077
-290.632	1.728	-0.014	-0.010
-289.618	392.452	0.149	0.304
-288.603	-26.428	0.091	0.053
-287.589	-200.000	-0.001	0.014
-286.574	-63.625	-0.184	0.074
-285.559	39.168	0.108	-0.095
-284.545	122.174	0.221	-0.272
-283.530	-200.000	0.010	0.069
-282.516	-144.435	-0.040	-0.004
-281.501	-126.784	0.252	0.037
-280.486	-200.000	0.019	0.169
-279.472	-200.000	-0.011	-0.317
-278.457	-200.000	-0.020	-0.103
-277.443	200.040	0.045	0.069
-276.428	410.265	0.046	-0.095
-275.413	-200.000	-0.023	-0.156
-274.399	-86.319	0.097	0.029
-273.384	-90.248	0.413	0.118
-272.370	53.317	0.172	-0.163
-271.355	-114.126	-0.254	0.048
-270.340	-109.967	0.257	0.053
-269.326	60.883	-0.469	0.457
-268.311	5.037	-0.112	0.081
-267.297	-200.000	-0.017	0.118
-266.282	-200.000	0.004	0.060
-265.267	-200.000	0.045	0.239
-264.253	-200.000	0.040	0.231
-263.238	62.315	-0.082	0.080
-262.224	72.498	0.185	-0.189
-261.209	524.537	0.033	0.077
-260.195	-27.190	0.413	0.236
-259.180	-117.548	0.230	-0.041
-258.165	-52.010	0.257	0.117
-257.151	-200.000	-0.045	0.272
-256.136	137.787	-0.116	0.150
-255.122	-182.619	0.199	0.004
-254.107	-70.109	-0.148	0.055
-253.092	63.706	-0.049	-0.048
-252.078	209.131	0.042	-0.065
-251.063	800.000	0.037	0.120
-250.049	90.690	-0.100	0.111
-249.034	5.420	-0.183	0.133
-248.019	-109.349	-0.140	-0.029
-247.005	-200.000	-0.061	0.432
-245.990	70.143	0.167	-0.169
-244.976	353.605	0.075	0.146
-243.961	9.957	0.176	0.131
-242.946	800.000	0.133	0.364
-241.932	-103.936	-0.218	0.050
-240.917	800.000	0.064	-0.200
-239.903	-26.266	0.215	-0.124
-238.888	-194.618	-0.287	0.002
-237.873	526.329	0.027	-0.061
-236.859	169.001	0.192	0.268
-235.844	-76.801	0.463	0.159
-234.830	800.000	0.120	0.388
-233.815	800.000	-0.066	0.273
-232.800	-200.000	0.050	-0.291
-231.786	417.169	-0.064	-0.135
-230.771	15.685	0.324	0.250
-229.757	-121.483	-0.292	-0.048
-228.742	129.713	-0.136	0.171
-227.727	-200.000	-0.030	-0.208
-226.713	614.148	0.066	-0.163
-225.698	-40.899	0.055	-0.028
-224.684	-200.000	0.024	0.263
-223.669	800.000	-0.063	-0.186
-222.655	-104.993	0.187	0.042
-221.640	14.889	0.137	0.105
-220.625	11.608	-0.163	-0.123
-219.611	-200.000	0.039	-0.177
-218.596	-97.531	0.209	0.053
-217.582	30.648	0.111	0.093
-216.567	-200.000	-0.019	-0.258
-215.552	452.399	-0.008	-0.018
-214.538	-170.839	-0.278	0.009
-213.523	-42.958	0.262	0.131
-212.509	-131.843	0.165	0.021
-211.494	-140.080	-0.141	0.015
-210.479	-28.864	-0.345	-0.195
-209.465	729.502	0.036	-0.094
-208.450	-200.000	0.036	-0.252
-207.436	-12.212	-0.440	0.283
-206.421	652.147	-0.012	0.030
-205.406	58.209	0.023	-0.022
-204.392	-106.069	-0.175	-0.039
-203.377	536.789	-0.041	-0.095
-202.363	274.843	-0.062	0.109
-201.348	-130.016	-0.306	-0.041
-200.333	800.000	-0.082	-0.264
-199.319	34.181	0.386	0.330
-198.304	-200.000	-0.034	0.279
-197.290	-20.137	-0.102	-0.062
-196.275	-200.000	-0.009	0.111
-195.260	-30.128	-0.131	0.073
-194.246	-200.000	0.002	0.099
-193.231	800.000	-0.149	-0.443
-192.217	-184.531	0.187	0.003
-191.202	-17.048	-0.119	-0.074
-190.187	-138.490	0.325	0.035
-189.173	-200.000	0.028	0.120
-188.158	-200.000	-0.002	0.195
-187.144	-146.128	0.497	0.043
-186.129	-105.099	-0.064	0.014
-185.114	-200.000	0.032	-0.473
-184.100	800.000	0.008	-0.033
-183.085	472.333	0.182	-0.402
-182.071	-49.728	-0.259	-0.121
-181.056	-164.071	0.265	0.012
-180.042	-88.949	0.129	0.038
-179.027	-200.000	0.012	0.376
-178.012	800.000	-0.019	0.067
-176.998	800.000	0.130	0.361
-175.983	-11.569	-0.151	0.097
-174.969	231.229	-0.226	-0.363
-173.954	-22.929	-0.224	-0.132
-172.939	-77.986	0.239	-0.081
-171.925	-200.000	-0.004	0.070
-170.910	800.000	-0.016	0.058
-169.896	-117.797	0.310	-0.055
-168.881	-161.186	0.171	-0.009
-167.866	269.325	0.115	0.198
-166.852	800.000	0.042	0.154
-165.837	72.608	-0.309	-0.315
-164.823	-130.695	-0.059	0.008
-163.808	72.116	0.034	-0.034
-162.793	-112.057	0.266	0.052
-161.779	-96.226	0.275	-0.071
-160.764	-200.000	-0.024	0.199
-159.750	-200.000	-0.067	0.318
-158.735	-130.578	0.198	0.026
-157.720	-43.192	-0.127	-0.063
-156.706	-17.382	0.263	0.162
-155.691	800.000	-0.137	0.410
-154.677	-73.290	0.151	0.054
-153.662	-163.460	-0.194	-0.009
-152.647	-200.000	-0.020	0.157
-151.633	398.992	-0.187	0.383
-150.618	-35.195	-0.178	-0.095
-149.604	-200.000	-0.094	-0.507
-148.589	28.617	-0.245	0.203
-147.574	60.592	-0.156	-0.152
-146.560	2.993	-0.193	-0.137
-145.545	204.279	0.064	-0.098
-144.531	-82.227	-0.218	-0.070
-143.516	273.357	0.249	-0.431
-142.502	283.818	-0.082	0.145
-141.487	78.058	0.380	0.397
-140.472	-89.101	0.239	-0.069
-139.458	-200.000	-0.012	0.257
-138.443	272.119	-0.033	-0.057
-137.429	-95.993	0.206	-0.054
-136.414	501.634	-0.084	-0.190
-135.399	-200.000	0.024	0.251
-134.385	-54.576	-0.432	0.191
-133.370	800.000	0.044	0.142
-132.356	124.988	-0.086	0.106
-131.341	-131.675	-0.215	-0.028
-130.326	-22.464	0.237	0.140
-129.312	168.818	0.047	-0.065
-128.297	-79.707	0.248	-0.082
-127.283	771.942	0.121	0.323
-126.268	-200.000	0.013	-0.118
-125.253	315.037	-0.040	-0.074
-124.239	-188.034	-0.257	-0.003
-123.224	800.000	-0.067	-0.236
-122.210	24.558	-0.029	0.023
-121.195	68.962	0.262	0.263
-120.180	-200.000	0.025	0.126
-119.166	-30.389	0.226	0.125
-118.151	17.951	0.163	0.127
-117.137	184.926	-0.231	-0.334
-116.122	-138.108	0.369	0.040
-115.107	20.627	-0.092	0.073
-114.093	-200.000	-0.027	0.387
-113.078	-200.000	-0.003	-0.172
-112.064	-34.036	0.237	-0.128
-111.049	372.344	-0.056	0.110
-110.034	-200.000	0.021	-0.150
-109.020	174.802	0.090	-0.128
-108.005	-92.607	-0.179	-0.049
-106.991	-200.000	0.003	-0.146
-105.976	264.776	-0.120	-0.205
-104.962	-12.983	0.229	0.145
-103.947	548.031	0.161	0.377
-102.932	-200.000	-0.044	-0.203
-101.918	362.814	0.148	0.291
-100.903	62.939	0.110	-0.108
-99.889	800.000	0.057	0.179
-98.874	-21.522	0.365	0.217
-97.859	-83.776	-0.380	-0.118
-96.845	-79.530	0.164	0.054
-95.830	709.717	-0.054	-0.140
-94.816	461.483	0.043	0.094
-93.801	72.459	0.032	-0.033
-92.786	800.000	0.050	-0.169
-91.772	-179.205	0.067	-0.001
-90.757	-146.696	0.314	0.027
-89.743	-200.000	-0.031	-0.159
-88.728	-133.732	0.311	-0.038
-87.713	111.518	-0.031	0.037
-86.699	276.257	-0.077	0.134
-85.684	-200.000	-0.008	-0.227
-84.670	-200.000	0.004	0.311
-83.655	476.396	-0.117	-0.258
-82.640	-64.024	0.180	0.072
-81.626	800.000	-0.042	-0.136
-80.611	-105.003	0.218	0.049
-79.597	670.022	0.033	0.083
-78.582	-123.125	-0.249	-0.039
-77.567	-69.358	0.140	0.052
-76.553	-200.000	-0.010	0.156
-75.538	-160.459	-0.165	0.009
-74.524	-31.139	-0.115	-0.063
-73.509	-94.312	0.273	-0.073
-72.494	-137.210	0.282	-0.031
-71.480	-124.761	-0.174	-0.026
-70.465	-30.924	-0.291	0.161
-69.451	19.326	-0.257	0.202
-68.436	-146.972	-0.205	-0.017
-67.422	60.123	0.096	-0.092
-66.407	327.363	-0.179	0.335
-65.392	800.000	-0.042	0.165
-64.378	-113.875	-0.149	0.028
-63.363	-23.312	0.141	0.083
-62.349	-200.000	-0.008	-0.112
-61.334	10.033	-1.327	-0.983
-60.319	-2.667	0.693	0.473
-59.305	696.717	-0.476	-1.219
-58.290	800.000	0.453	1.576
-57.276	749.105	0.583	1.532
-56.261	-200.000	122.471	622.234
-55.246	384.738	1580.268	3175.216
-54.232	138.564	2760.557	3533.120
-53.217	89.327	2327.590	2529.010
-52.203	33.550	1928.381	1633.419
-51.188	27.541	1719.784	1410.321
-50.173	25.190	1680.092	1359.918
-49.159	44.925	1745.014	1565.959
-48.144	43.503	1757.862	1566.409
-47.130	27.052	1710.079	1398.376
-46.115	24.529	1694.929	1366.655
-45.100	24.398	1689.781	1361.446
-44.086	24.397	1686.404	1358.664
-43.071	24.316	1684.146	1356.175
-42.057	24.344	1681.473	1354.182
-41.042	24.360	1679.623	1352.757
-40.027	24.374	1678.014	1351.520
-39.013	24.348	1676.004	1349.646
-37.998	24.309	1674.510	1348.096
-36.984	24.410	1672.432	1347.132
-35.969	24.534	1671.515	1347.278
-34.954	24.379	1670.323	1345.090
-33.940	24.476	1668.399	1344.217
-32.925	24.451	1666.941	1342.805
-31.911	24.480	1665.300	1341.646
-30.896	24.426	1663.664	1339.868
-29.881	24.440	1662.161	1338.709
-28.867	24.520	1660.073	1337.576
-27.852	24.470	1658.671	1336.021
-26.838	24.411	1657.523	1334.601
-25.823	24.416	1656.637	1333.874
-24.809	24.540	1654.662	1333.154
-23.794	24.555	1653.011	1331.882
-22.779	24.525	1651.778	1330.610
-21.765	24.486	1650.093	1328.912
-20.750	24.449	1648.508	1327.311
-19.736	24.531	1647.709	1327.218
-18.721	24.469	1646.128	1325.437
-17.706	24.506	1644.348	1324.224
-16.692	24.462	1642.589	1322.430
-15.677	24.452	1641.878	1321.730
-14.663	24.457	1640.113	1320.292
-13.648	24.521	1638.427	1319.359
-12.633	24.548	1636.872	1318.253
-11.619	24.473	1635.269	1316.358
-10.604	24.526	1633.793	1315.507
-9.590	24.650	1632.819	1315.583
-8.575	24.539	1631.523	1313.669
-7.560	24.482	1630.391	1312.286
-6.546	24.522	1629.487	1311.799
-5.531	24.408	1628.393	1310.027
-4.517	24.421	1627.339	1309.228
-3.502	24.408	1626.120	1308.099
-2.487	24.574	1624.287	1307.788
-1.473	24.260	1612.708	1296.132
-0.458	21.705	1593.235	1262.050
0.556	17.090	1595.753	1231.369
1.571	14.820	1620.165	1233.354
2.586	14.434	1632.030	1239.413
3.600	13.382	1577.645	1190.438
4.615	7.729	1468.037	1069.688
5.629	1.922	1407.775	988.142
6.644	0.753	1400.609	975.485
7.659	0.739	1399.383	974.457
8.673	0.750	1398.235	973.638
9.688	0.668	1396.213	971.618
10.702	0.602	1392.780	968.718
11.717	3.424	1397.155	989.819
12.731	10.228	1407.678	1041.078
13.746	15.575	1414.871	1080.790
14.761	17.150	1416.665	1092.204
15.775	16.578	1414.762	1086.965
16.790	15.706	1412.061	1079.200
17.804	14.892	1410.038	1072.339
18.819	14.569	1407.955	1068.594
19.834	14.273	1406.692	1065.643
20.848	14.056	1405.859	1063.532
21.863	13.717	1404.619	1060.333
22.877	13.597	1403.214	1058.412
23.892	13.538	1402.147	1057.140
24.907	13.607	1401.216	1056.780
25.921	13.628	1400.181	1056.039
26.936	13.572	1399.377	1054.986
27.950	13.664	1398.528	1054.833
28.965	13.674	1397.507	1054.034
29.980	13.694	1396.637	1053.414
30.994	13.875	1395.628	1053.708
32.009	13.800	1394.684	1052.425
33.023	13.705	1393.347	1050.723
34.038	13.648	1392.741	1049.811
35.053	13.608	1391.239	1048.334
36.067	13.746	1389.758	1047.997
37.082	13.720	1389.111	1047.250
38.096	13.625	1388.343	1045.984
39.111	13.661	1387.536	1045.505
40.126	13.668	1386.193	1044.447
41.140	13.617	1385.598	1043.587
42.155	13.577	1384.919	1042.728
43.169	13.527	1385.174	1042.514
44.184	13.569	1384.793	1042.401
45.199	13.538	1384.040	1041.543
46.213	13.615	1383.299	1041.382
47.228	13.627	1382.533	1040.786
48.242	13.677	1381.225	1040.024
49.257	13.620	1379.999	1038.650
50.271	13.596	1378.468	1037.256
51.286	13.593	1376.907	1035.971
52.301	13.611	1375.437	1034.886
53.315	13.623	1374.899	1034.466
54.330	13.664	1373.689	1033.718
55.344	13.592	1372.588	1032.353
56.359	13.598	1371.312	1031.334
57.374	13.552	1370.417	1030.288
58.388	13.431	1369.889	1029.047
59.403	13.558	1369.377	1029.361
60.417	13.563	1368.373	1028.545
61.432	13.501	1367.713	1027.573
62.447	13.486	1366.796	1026.702
63.461	13.437	1365.345	1025.216
64.476	13.498	1364.019	1024.509
65.490	13.400	1363.453	1023.385
66.505	13.518	1361.413	1022.494
67.520	13.458	1360.300	1021.195
68.534	13.537	1359.243	1020.798
69.549	13.570	1358.023	1019.993
70.563	13.571	1356.907	1019.074
71.578	13.449	1356.067	1017.599
72.593	13.461	1354.811	1016.641
73.607	13.529	1353.932	1016.309
74.622	13.471	1353.197	1015.312
75.636	13.419	1352.874	1014.661
76.651	13.445	1351.974	1014.059
77.666	13.389	1351.458	1013.238
78.680	13.387	1350.877	1012.703
79.695	13.373	1349.803	1011.717
80.709	13.532	1348.619	1011.715
81.724	13.527	1347.892	1011.047
82.739	13.584	1347.047	1010.672
83.753	13.580	1346.063	1009.820
84.768	13.643	1345.073	1009.371
85.782	13.597	1344.089	1008.261
86.797	13.584	1342.744	1007.088
87.812	13.588	1341.047	1005.752
88.826	13.538	1340.355	1004.841
89.841	13.569	1339.199	1004.074
90.855	13.656	1338.441	1003.939
91.870	13.697	1337.138	1003.125
92.884	13.742	1335.821	1002.319
93.899	13.774	1334.966	1001.780
94.914	13.699	1335.005	1001.267
95.928	13.625	1334.113	1000.064
96.943	13.681	1332.743	999.286
97.957	13.719	1331.488	998.486
98.972	13.729	1330.546	997.753
99.987	13.674	1329.365	996.447
101.001	13.703	1328.558	995.930
102.016	13.597	1327.722	994.577
103.030	13.640	1326.785	994.042
104.045	13.674	1325.711	993.356
105.060	13.634	1324.637	992.222
106.074	13.633	1323.347	991.165
107.089	13.642	1321.611	989.832
108.103	13.541	1320.831	988.556
109.118	13.623	1319.186	987.727
110.133	13.590	1317.993	986.551
111.147	13.570	1316.896	985.523
112.162	13.523	1315.266	983.933
113.176	13.569	1314.844	983.806
114.191	13.719	1313.303	983.453
115.206	13.686	1311.756	982.016
116.220	13.604	1311.077	980.934
117.235	13.687	1309.442	980.115
118.249	13.676	1308.643	979.364
119.264	13.621	1307.706	978.252
120.279	13.598	1306.813	977.362
121.293	13.560	1305.623	976.160
122.308	13.536	1304.427	975.041
123.322	13.631	1303.597	974.891
124.337	13.566	1302.777	973.809
125.352	13.628	1301.307	972.987
126.366	13.552	1299.846	971.366
127.381	13.589	1298.902	970.791
128.395	13.538	1297.708	969.515
129.410	13.596	1297.012	969.249
130.424	13.643	1295.800	968.532
131.439	13.658	1294.881	967.845
132.454	13.533	1294.524	966.762
133.468	13.693	1293.036	966.500
134.483	13.593	1292.621	965.523
135.497	13.646	1291.182	964.668
136.512	13.638	1289.781	963.493
137.527	13.638	1288.790	962.665
138.541	13.636	1286.992	961.222
139.556	13.675	1285.582	960.314
140.570	13.730	1284.583	959.799
141.585	13.702	1283.512	958.751
142.600	13.804	1282.134	958.230
143.614	13.740	1281.648	957.411
144.629	13.771	1280.148	956.383
145.643	13.744	1279.205	955.439
146.658	13.759	1277.738	954.347
147.673	13.745	1276.365	953.153
148.687	13.673	1275.361	951.908
149.702	13.782	1273.974	951.414
150.716	13.774	1272.468	950.155
151.731	13.719	1271.616	949.123
152.746	13.834	1270.155	948.605
153.760	13.807	1268.646	947.241
154.775	13.923	1267.555	947.003
155.789	13.835	1266.287	945.474
156.804	13.887	1265.858	945.366
157.819	13.795	1264.879	944.026
158.833	13.855	1263.560	943.297
159.848	13.914	1262.427	942.707
160.862	13.961	1261.590	942.265
161.877	13.812	1260.411	940.456
162.892	13.774	1259.584	939.540
163.906	13.896	1258.107	939.046
164.921	13.833	1257.117	937.867
165.935	13.961	1256.072	937.725
166.950	13.968	1255.658	937.373
167.964	13.831	1255.029	936.050
168.979	13.966	1254.345	936.216
169.994	13.889	1253.601	935.147
171.008	13.980	1252.609	934.837
172.023	14.048	1251.508	934.311
173.037	14.088	1250.614	933.785
174.052	14.059	1249.717	932.872
175.067	13.960	1249.103	931.773
176.081	13.973	1247.512	930.577
177.096	14.034	1247.243	930.635
178.110	13.971	1245.733	929.075
179.125	14.026	1244.399	928.307
180.140	13.996	1243.375	927.294
181.154	14.065	1242.140	926.673
182.169	14.102	1241.058	925.993
183.183	14.139	1239.971	925.306
184.198	14.124	1238.501	924.043
185.213	14.231	1237.399	923.734
186.227	14.198	1236.291	922.640
187.242	14.195	1235.391	921.873
188.256	14.199	1234.366	921.045
189.271	14.167	1233.633	920.242
190.286	14.254	1232.508	919.803
191.300	14.085	1231.632	918.130
192.315	14.120	1230.789	917.615
193.329	14.103	1230.558	917.271
194.344	14.174	1229.622	916.881
195.359	14.180	1229.211	916.529
196.373	14.197	1228.498	916.007
197.388	14.201	1228.034	915.604
198.402	14.342	1227.538	915.925
199.417	14.321	1226.526	914.975
200.432	14.435	1225.651	914.866
201.446	14.354	1225.159	913.974
202.461	14.426	1223.897	913.345
203.475	14.364	1223.161	912.379
204.490	14.437	1221.664	911.581
205.504	14.534	1220.240	910.963
206.519	14.399	1219.960	909.938
207.534	14.388	1218.543	908.739
208.548	14.496	1217.536	908.499
209.563	14.510	1216.714	907.878
210.577	14.502	1215.430	906.801
211.592	14.550	1214.746	906.470
212.607	14.521	1213.766	905.503
213.621	14.577	1213.064	905.202
214.636	14.637	1212.019	904.665
215.650	14.595	1211.105	903.674
216.665	14.535	1210.174	902.580
217.680	14.572	1209.124	901.917
218.694	14.674	1208.521	901.937
219.709	14.650	1208.001	901.339
220.723	14.614	1206.706	900.096
221.738	14.590	1206.065	899.410
222.753	14.568	1205.312	898.652
223.767	14.775	1204.254	898.899
224.782	14.674	1204.017	898.097
225.796	14.743	1203.385	897.915
226.811	14.740	1202.701	897.311
227.826	14.768	1201.538	896.513
228.840	14.862	1200.720	896.327
229.855	14.611	1200.724	894.909
230.869	14.684	1199.232	894.106
231.884	14.752	1198.299	893.697
232.899	14.833	1197.404	893.381
233.913	14.779	1197.452	893.048
234.928	14.716	1196.421	891.865
235.942	14.676	1195.782	891.096
236.957	14.744	1195.088	890.865
237.972	14.734	1194.225	890.090
238.986	14.860	1193.499	890.137
240.001	14.788	1192.769	889.134
241.015	14.839	1191.639	888.481
242.030	14.884	1190.845	888.051
243.045	14.857	1190.579	887.631
244.059	14.975	1189.265	887.201
245.074	14.844	1188.613	885.941
246.088	14.858	1187.988	885.468
247.103	15.078	1186.460	885.414
248.117	14.882	1186.216	884.120
249.132	15.052	1185.139	884.137
250.147	15.028	1184.708	883.608
251.161	15.007	1183.849	882.781
252.176	15.096	1183.082	882.601
253.190	15.178	1182.289	882.361
254.205	15.147	1181.752	881.717
255.220	15.273	1181.128	881.839
256.234	15.205	1180.499	880.933
257.249	15.245	1179.641	880.425
258.263	15.181	1179.633	880.003
259.278	15.213	1178.777	879.457
260.293	15.359	1177.743	879.370
261.307	15.291	1177.526	878.777
262.322	15.213	1177.197	878.043
263.336	15.294	1176.132	877.595
264.351	15.316	1175.465	877.135
265.366	15.279	1175.126	876.612
266.380	15.307	1173.896	875.762
267.395	15.360	1173.120	875.383
268.409	15.332	1172.507	874.702
269.424	15.452	1171.397	874.423
270.439	15.404	1171.227	873.965
271.453	15.398	1170.555	873.357
272.468	15.462	1169.454	872.793
273.482	15.433	1168.687	871.993
274.497	15.412	1168.538	871.692
275.512	15.429	1167.520	870.948
276.526	15.471	1166.732	870.497
277.541	15.439	1165.848	869.597
278.555	15.494	1165.035	869.198
279.570	15.511	1164.371	868.713
280.585	15.624	1163.438	868.522
281.599	15.558	1163.095	867.849
282.614	15.619	1161.608	866.977
283.628	15.635	1160.521	866.174
284.643	15.603	1159.713	865.330
285.657	15.663	1158.718	864.820
286.672	15.620	1158.097	864.056
287.687	15.676	1157.167	863.576
288.701	15.733	1156.364	863.194
289.716	15.667	1155.402	862.058
290.730	15.659	1154.852	861.532
291.745	15.730	1153.953	861.151
292.760	15.746	1153.322	860.685
293.774	15.742	1152.894	860.265
294.789	15.884	1152.366	860.521
295.803	15.721	1152.134	859.440
296.818	15.882	1151.177	859.471
297.833	15.859	1150.166	858.525
298.847	15.737	1149.302	857.182
299.862	15.969	1148.411	857.623
300.876	15.813	1147.802	856.298
301.891	15.890	1146.998	856.014
302.906	15.951	1146.230	855.676
303.920	15.926	1145.679	855.063
304.935	16.019	1145.066	854.998
305.949	16.066	1144.220	854.530
306.964	16.072	1144.108	854.403
307.979	16.043	1142.930	853.299
308.993	15.915	1142.032	851.905
310.008	16.149	1141.155	852.362
311.022	16.076	1140.496	851.422
312.037	16.173	1139.111	850.805
313.052	16.037	1138.920	849.897
314.066	16.212	1137.343	849.530
315.081	16.061	1137.177	848.568
316.095	16.171	1135.892	848.088
317.110	16.130	1135.325	847.381
318.125	16.191	1134.141	846.731
319.139	16.065	1133.897	845.841
320.154	16.129	1133.303	845.644
321.168	16.156	1132.572	845.159
322.183	16.186	1132.163	844.929
323.197	16.157	1131.697	844.364
324.212	16.264	1130.498	843.929
325.227	16.198	1130.326	843.396
326.241	16.251	1129.471	842.948
327.256	16.205	1128.636	842.020
328.270	16.233	1127.435	841.188
329.285	16.268	1126.857	840.856
330.300	16.311	1125.781	840.197
331.314	16.236	1125.092	839.233
332.329	16.241	1124.126	838.464
333.343	16.311	1123.179	838.028
334.358	16.224	1122.468	836.995
335.373	16.349	1121.628	836.914
336.387	16.367	1120.624	836.179
337.402	16.357	1120.073	835.644
338.416	16.374	1119.391	835.147
339.431	16.414	1118.496	834.602
340.446	16.431	1118.070	834.294
341.460	16.420	1117.550	833.777
342.475	16.492	1116.698	833.423
343.489	16.493	1115.997	832.830
344.504	16.459	1114.426	831.416
345.519	16.695	1113.522	831.831
346.533	16.661	1113.138	831.302
347.548	16.561	1112.577	830.318
348.562	16.609	1111.548	829.714
349.577	16.557	1110.925	828.919
350.592	16.513	1110.248	828.126
351.606	16.591	1109.567	827.923
352.621	16.568	1108.826	827.185
353.635	16.490	1108.275	826.321
354.650	16.477	1107.258	825.429
355.665	16.655	1106.641	825.762
356.679	16.626	1106.345	825.326
357.694	16.690	1105.279	824.769
358.708	16.762	1104.665	824.591
359.723	16.749	1103.897	823.882
360.738	16.666	1103.266	822.932
361.752	16.799	1102.912	823.243
362.767	16.772	1102.568	822.782
363.781	16.742	1101.814	822.000
364.796	16.784	1101.180	821.658
365.810	16.843	1100.398	821.286
366.825	16.738	1099.835	820.288
367.840	16.827	1099.093	820.092
368.854	16.885	1098.673	819.986
369.869	16.937	1097.880	819.571
370.883	16.864	1097.229	818.660
371.898	16.924	1096.098	818.037
372.913	17.014	1095.947	818.286
373.927	16.910	1095.682	817.511
374.942	16.961	1094.756	816.996
375.956	16.946	1094.111	816.368
376.971	17.013	1093.555	816.204
377.986	17.102	1092.610	815.854
379.000	17.133	1092.224	815.641
380.015	17.131	1091.533	815.044
381.029	17.142	1091.055	814.668
382.044	17.163	1090.287	814.121
383.059	17.302	1089.356	814.024
384.073	17.345	1088.464	813.489
385.088	17.222	1087.469	812.084
386.102	17.260	1086.790	811.690
387.117	17.281	1085.615	810.839
388.132	17.099	1085.125	809.535
389.146	17.072	1084.430	808.815
390.161	17.260	1083.630	809.040
391.175	17.243	1082.699	808.195
392.190	17.357	1082.260	808.339
393.205	17.311	1081.325	807.350
394.219	17.365	1080.498	806.917
395.234	17.398	1079.431	806.206
396.248	17.329	1078.492	805.103
397.263	17.202	1077.790	803.908
398.278	17.287	1076.785	803.491
399.292	17.326	1076.185	803.154
400.307	17.366	1075.791	802.981
401.321	17.333	1075.301	802.388
402.336	17.366	1074.245	801.685
403.350	17.351	1073.462	800.959
404.365	17.343	1072.856	800.399
405.380	17.271	1072.446	799.680
406.394	17.375	1071.614	799.477
407.409	17.429	1070.508	798.835
408.423	17.470	1069.893	798.497
409.438	17.540	1069.194	798.234
410.453	17.509	1068.559	797.546
411.467	17.628	1067.782	797.452
412.482	17.629	1066.930	796.751
413.496	17.583	1066.376	796.052
414.511	17.626	1065.618	795.613
415.526	17.704	1065.130	795.546
416.540	17.759	1064.735	795.436
417.555	17.831	1063.756	794.970
418.569	17.734	1063.678	794.388
419.584	17.835	1063.163	794.405
420.599	17.801	1062.557	793.720
421.613	107.729	1329.867	1485.827
422.628	99.521	1368.785	1485.918
