DTS Sentinel unit serial number:	SN413079Multiplexer serial number:	ORYXHardware model number:	OX4-SRSoftware version number:	ORYX F/W v4.00 Oryx Data Collector v3.7.2.0data status	okinstallation	princeton_trtdifferential loss correction	single-endedforward channel	channel 2reverse channel	N/Adate	2019/09/18time	15:27:35forward acquisition time	60.00reverse acquisition time	0.00gamma	496.2192k internal	0.2314k external	0.2314temperature offset calibration	1.0002default loss term (dB/km)	0.3790temperature slope calibration	1.0000multiplexer offset coefficient	1.0000multiplexer slope coefficient	1.0000fibre end	0.00T internal ref (°C)	36.08T ext. ref 1 (°C)	0.77T ext. ref 2 (°C)	34.49length (m)	temperature (°C)	Stokes	anti-Stokes-747.200	175.094	0.163	-0.239
-746.185	160.281	-0.233	0.330
-745.171	-64.809	-0.167	0.069
-744.156	179.258	-0.071	0.105
-743.142	66.324	0.046	0.047
-742.127	12.426	-0.220	0.172
-741.112	-48.948	0.333	-0.162
-740.098	-200.000	-0.036	0.318
-739.083	-200.000	-0.077	-0.456
-738.069	-22.997	0.148	0.090
-737.054	-161.512	0.153	-0.008
-736.039	-93.173	-0.191	0.054
-735.025	-67.693	0.442	0.175
-734.010	324.611	-0.150	0.290
-732.996	-39.364	-0.364	-0.194
-731.981	-92.507	-0.286	-0.081
-730.966	-121.131	0.237	-0.040
-729.952	-90.454	0.120	0.035
-728.937	-200.000	0.032	-0.174
-727.923	800.000	-0.022	0.066
-726.908	-200.000	-0.033	-0.178
-725.894	-27.907	-0.219	-0.128
-724.879	58.113	0.059	-0.059
-723.864	-200.000	-0.028	0.145
-722.850	-81.846	0.066	-0.022
-721.835	-183.637	-0.157	0.003
-720.821	-200.000	-0.039	0.531
-719.806	800.000	-0.033	-0.116
-718.791	49.972	-0.017	0.016
-717.777	203.559	0.097	0.152
-716.762	-115.300	0.005	-0.001
-715.748	346.895	-0.182	-0.362
-714.733	800.000	-0.048	-0.175
-713.718	539.670	-0.041	-0.099
-712.704	145.963	0.180	-0.245
-711.689	192.923	-0.121	0.186
-710.675	-200.000	-0.004	0.226
-709.660	8.802	0.103	-0.078
-708.645	388.057	0.198	-0.414
-707.631	-62.298	-0.326	0.137
-706.616	-200.000	-0.020	-0.393
-705.602	-61.999	0.105	0.044
-704.587	-64.719	-0.362	0.149
-703.572	166.511	0.153	-0.220
-702.558	-45.656	-0.246	-0.123
-701.543	-200.000	0.002	0.111
-700.529	-138.975	0.296	-0.032
-699.514	62.505	-0.235	-0.238
-698.499	12.164	0.211	-0.164
-697.485	-138.439	0.465	0.052
-696.470	124.952	0.112	-0.142
-695.456	158.433	0.293	-0.411
-694.441	-154.346	-0.102	-0.007
-693.426	-200.000	-0.028	0.166
-692.412	265.387	0.033	-0.058
-691.397	-107.068	-0.112	-0.025
-690.383	-52.223	-0.238	0.112
-689.368	800.000	0.080	-0.245
-688.354	83.665	-0.276	-0.305
-687.339	28.012	0.243	-0.208
-686.324	-96.211	0.147	0.039
-685.310	-142.958	-0.137	-0.013
-684.295	-4.700	0.474	0.331
-683.281	-29.637	-0.196	-0.113
-682.266	-119.321	0.241	-0.042
-681.251	-200.000	0.047	-0.263
-680.237	136.852	-0.071	0.093
-679.222	370.137	0.078	0.161
-678.208	800.000	-0.054	0.166
-677.193	800.000	0.015	0.053
-676.178	-71.361	-0.167	0.063
-675.164	93.570	0.159	0.182
-674.149	-174.438	-0.367	-0.011
-673.135	-200.000	-0.048	0.239
-672.120	-50.738	0.169	-0.081
-671.105	24.248	-0.093	-0.078
-670.091	93.808	0.148	0.169
-669.076	-145.616	0.062	-0.006
-668.062	570.469	0.114	-0.279
-667.047	-200.000	-0.061	-0.337
-666.032	-200.000	-0.098	-0.496
-665.018	29.154	-0.160	-0.137
-664.003	104.472	0.243	-0.290
-662.989	45.430	-0.252	-0.235
-661.974	325.236	-0.115	0.222
-660.959	-79.969	0.211	0.072
-659.945	58.579	-0.324	0.322
-658.930	583.658	-0.157	0.389
-657.916	-200.000	-0.034	0.270
-656.901	800.000	0.058	-0.201
-655.886	-150.690	-0.231	0.018
-654.872	96.035	0.115	0.133
-653.857	-71.816	0.066	0.025
-652.843	178.921	-0.065	-0.096
-651.828	-200.000	0.011	-0.057
-650.814	75.854	-0.123	0.132
-649.799	655.746	0.193	0.501
-648.784	-127.047	-0.180	-0.027
-647.770	287.976	-0.085	-0.155
-646.755	-30.319	-0.320	-0.184
-645.741	-200.000	0.020	0.096
-644.726	553.709	-0.119	0.288
-643.711	-74.034	0.143	-0.052
-642.697	340.539	0.113	-0.223
-641.682	-16.113	0.061	0.039
-640.668	-5.808	-0.214	0.148
-639.653	129.321	-0.071	-0.092
-638.638	-63.822	-0.087	0.036
-637.624	-200.000	-0.008	-0.185
-636.609	-89.409	0.178	0.053
-635.595	-194.064	-0.123	-0.001
-634.580	765.242	-0.079	0.217
-633.565	99.196	0.243	0.284
-632.551	-88.414	0.264	0.080
-631.536	800.000	-0.136	-0.418
-630.522	610.653	0.024	-0.060
-629.507	-200.000	0.070	0.332
-628.492	-200.000	0.043	-0.232
-627.478	-114.233	-0.129	-0.025
-626.463	197.754	-0.183	0.283
-625.449	230.448	0.086	-0.142
-624.434	498.269	-0.079	-0.183
-623.419	437.339	-0.059	-0.130
-622.405	96.681	-0.202	-0.233
-621.390	-200.000	0.013	-0.461
-620.376	381.019	0.107	-0.222
-619.361	-180.177	0.056	0.001
-618.346	800.000	-0.025	0.069
-617.332	99.365	-0.261	0.305
-616.317	225.892	0.097	0.158
-615.303	95.085	-0.194	0.223
-614.288	111.117	-0.247	-0.301
-613.273	-200.000	0.025	0.222
-612.259	45.667	-0.115	0.107
-611.244	103.546	0.176	0.208
-610.230	-92.389	-0.164	-0.047
-609.215	-184.570	0.174	0.003
-608.201	-123.519	0.142	-0.023
-607.186	-200.000	-0.031	0.226
-606.171	614.514	-0.102	0.258
-605.157	-200.000	-0.023	-0.255
-604.142	38.860	-0.196	-0.176
-603.128	-183.637	-0.138	0.002
-602.113	69.604	0.307	0.319
-601.098	701.266	-0.030	0.079
-600.084	800.000	0.033	0.119
-599.069	-50.139	-0.200	0.095
-598.055	85.205	-0.122	0.135
-597.040	-104.425	0.502	-0.117
-596.025	31.484	-0.168	0.146
-595.011	-200.000	0.014	-0.067
-593.996	-56.551	0.124	-0.055
-592.982	-114.509	-0.231	-0.045
-591.967	118.439	0.118	0.146
-590.952	-200.000	-0.040	-0.194
-589.938	147.874	0.143	0.195
-588.923	2.688	-0.081	-0.059
-587.909	800.000	0.041	0.165
-586.894	-200.000	0.021	0.122
-585.879	49.443	0.066	0.062
-584.865	-125.222	0.080	0.012
-583.850	249.227	0.217	0.371
-582.836	562.059	-0.105	0.255
-581.821	800.000	-0.012	0.048
-580.806	778.368	-0.103	-0.285
-579.792	-147.448	-0.226	-0.019
-578.777	-200.000	-0.032	-0.341
-577.763	-38.129	0.341	-0.182
-576.748	-28.757	0.146	0.085
-575.733	104.326	-0.237	0.281
-574.719	-19.925	0.093	0.058
-573.704	-48.535	0.211	-0.102
-572.690	435.804	0.038	0.084
-571.675	319.715	0.137	0.261
-570.661	-60.387	0.357	-0.153
-569.646	-88.188	-0.201	0.061
-568.631	-12.240	-0.178	-0.117
-567.617	-182.983	0.316	0.006
-566.602	361.280	-0.216	-0.437
-565.588	-200.000	0.010	0.126
-564.573	-156.689	-0.102	-0.006
-563.558	800.000	0.006	0.025
-562.544	-200.000	-0.023	0.143
-561.529	-68.021	0.180	0.071
-560.515	-34.623	0.065	0.036
-559.500	178.325	-0.070	0.103
-558.485	5.414	0.134	-0.099
-557.471	-142.549	0.276	0.027
-556.456	361.236	-0.014	-0.027
-555.442	352.194	0.084	0.167
-554.427	-79.277	-0.405	-0.138
-553.412	217.488	-0.075	-0.120
-552.398	-136.312	-0.353	0.041
-551.383	148.171	0.042	-0.058
-550.369	-2.364	-0.195	-0.138
-549.354	239.901	-0.089	0.149
-548.339	-152.028	-0.241	-0.018
-547.325	-38.342	-0.162	-0.086
-546.310	224.133	0.191	-0.310
-545.296	164.962	-0.086	-0.122
-544.281	-171.396	0.207	-0.007
-543.266	129.213	-0.066	-0.084
-542.252	241.347	0.060	-0.101
-541.237	-6.511	0.091	0.062
-540.223	3.118	-0.442	-0.323
-539.208	104.253	-0.170	-0.201
-538.193	157.833	-0.281	-0.391
-537.179	-200.000	0.027	0.162
-536.164	-200.000	0.043	-0.215
-535.150	283.818	-0.146	-0.264
-534.135	-200.000	0.008	0.096
-533.121	-28.358	0.380	-0.221
-532.106	-147.365	-0.077	0.007
-531.091	538.239	0.085	0.203
-530.077	-200.000	-0.025	-0.116
-529.062	800.000	0.039	0.145
-528.048	-45.956	0.378	0.188
-527.033	93.652	0.127	0.145
-526.018	135.138	-0.133	-0.174
-525.004	-200.000	-0.056	0.284
-523.989	-124.633	0.127	-0.020
-522.975	-200.000	0.023	0.136
-521.960	310.408	0.041	0.077
-520.945	-155.258	-0.339	0.022
-519.931	-64.340	-0.151	-0.062
-518.916	-80.163	-0.153	0.052
-517.902	800.000	-0.063	-0.232
-516.887	-200.000	0.021	-0.215
-515.872	-182.048	-0.204	0.004
-514.858	800.000	0.065	-0.235
-513.843	543.166	0.231	0.553
-512.829	-200.000	-0.018	0.225
-511.814	-36.677	0.220	0.119
-510.799	-200.000	0.029	-0.265
-509.785	5.698	-0.190	0.141
-508.770	-108.080	-0.156	0.034
-507.756	331.650	-0.135	-0.261
-506.741	18.997	-0.056	-0.045
-505.726	-143.799	-0.239	0.023
-504.712	272.151	0.123	-0.218
-503.697	152.460	0.071	-0.098
-502.683	681.286	-0.108	0.284
-501.668	-34.182	-0.240	-0.133
-500.653	-28.725	-0.120	-0.069
-499.639	-200.000	-0.061	-0.375
-498.624	17.634	0.093	0.075
-497.610	-166.537	0.319	0.013
-496.595	-200.000	-0.016	-0.187
-495.581	-35.344	-0.138	-0.075
-494.566	-74.856	-0.516	-0.186
-493.551	-124.039	0.130	-0.020
-492.537	800.000	-0.120	-0.368
-491.522	-94.005	-0.099	0.027
-490.508	162.450	0.124	-0.175
-489.493	364.429	0.063	0.127
-488.478	-200.000	-0.048	0.271
-487.464	269.920	-0.028	-0.049
-486.449	-48.241	0.202	-0.098
-485.435	79.976	-0.077	-0.083
-484.420	-200.000	0.021	-0.356
-483.405	-200.000	-0.050	-0.344
-482.391	-200.000	0.088	0.732
-481.376	202.792	-0.026	0.041
-480.362	1.999	-0.222	-0.161
-479.347	800.000	0.028	0.109
-478.332	-200.000	0.038	0.252
-477.318	430.009	-0.025	-0.054
-476.303	-2.191	0.035	-0.025
-475.289	-60.822	-0.084	-0.036
-474.274	800.000	0.091	0.269
-473.259	-200.000	-0.013	-0.066
-472.245	2.778	0.309	-0.225
-471.230	-155.831	-0.276	-0.018
-470.216	-72.253	-0.116	-0.043
-469.201	155.573	0.056	0.078
-468.186	800.000	-0.114	-0.404
-467.172	11.480	-0.268	-0.206
-466.157	-58.524	0.277	0.121
-465.143	51.099	0.036	-0.035
-464.128	46.043	-0.123	0.114
-463.113	-67.629	0.357	0.140
-462.099	800.000	-0.034	0.116
-461.084	86.314	0.228	-0.252
-460.070	-105.315	-0.173	0.040
-459.055	-200.000	0.054	-0.269
-458.040	800.000	0.059	0.215
-457.026	-200.000	0.015	-0.505
-456.011	-125.728	0.258	-0.039
-454.997	250.508	0.132	0.225
-453.982	514.813	-0.127	-0.297
-452.968	800.000	0.073	0.317
-451.953	35.830	-0.126	0.111
-450.938	-200.000	-0.020	0.326
-449.924	800.000	-0.093	-0.268
-448.909	-35.027	-0.161	0.088
-447.895	268.666	0.165	-0.290
-446.880	-116.893	-0.039	-0.007
-445.865	144.597	-0.179	-0.239
-444.851	141.829	-0.071	0.094
-443.836	329.921	-0.270	-0.520
-442.822	55.815	0.234	-0.227
-441.807	-56.376	-0.223	-0.099
-440.792	-4.400	-0.363	0.251
-439.778	-26.504	0.390	0.229
-438.763	-110.568	-0.144	-0.030
-437.749	-91.080	-0.164	0.047
-436.734	-200.000	-0.012	0.142
-435.719	67.443	0.273	-0.279
-434.705	-43.842	0.148	0.074
-433.690	33.300	0.122	0.106
-432.676	-122.442	0.231	-0.038
-431.661	38.528	-0.107	-0.096
-430.646	-200.000	0.002	-0.295
-429.632	800.000	0.071	0.277
-428.617	266.000	-0.057	0.099
-427.603	-22.995	-0.088	-0.053
-426.588	70.302	-0.192	0.199
-425.573	-129.526	-0.142	0.020
-424.559	-200.000	-0.008	-0.064
-423.544	139.177	-0.190	-0.251
-422.530	104.318	0.023	0.027
-421.515	85.027	0.146	0.160
-420.500	-200.000	-0.020	0.090
-419.486	127.169	0.191	0.243
-418.471	-66.243	0.286	-0.114
-417.457	-200.000	0.008	0.077
-416.442	800.000	-0.105	0.362
-415.428	-19.940	0.200	0.123
-414.413	333.117	0.115	-0.223
-413.398	453.568	-0.052	-0.116
-412.384	-200.000	-0.022	-0.213
-411.369	-61.015	-0.208	-0.088
-410.355	800.000	0.076	0.235
-409.340	77.627	0.147	0.157
-408.325	79.048	-0.234	0.250
-407.311	-27.669	-0.106	0.062
-406.296	-57.546	-0.232	0.102
-405.282	-69.383	-0.224	0.086
-404.267	16.921	0.144	0.114
-403.252	-86.581	0.138	0.042
-402.238	50.586	0.030	-0.029
-401.223	800.000	-0.074	0.234
-400.209	-81.022	0.452	-0.150
-399.194	8.568	0.178	0.134
-398.179	59.511	0.287	0.284
-397.165	-132.351	-0.244	0.032
-396.150	-200.000	-0.025	-0.119
-395.136	-47.205	0.098	0.048
-394.121	-200.000	-0.022	-0.207
-393.106	-200.000	0.015	-0.162
-392.092	-61.696	0.343	0.144
-391.077	-66.984	0.050	0.020
-390.063	-87.660	-0.177	0.054
-389.048	-97.566	-0.095	0.025
-388.033	254.409	0.216	-0.370
-387.019	20.533	0.128	-0.103
-386.004	-119.417	-0.040	0.007
-384.990	116.820	-0.174	-0.213
-383.975	-200.000	-0.033	-0.323
-382.960	-200.000	-0.028	-0.221
-381.946	-74.929	0.098	0.035
-380.931	-200.000	0.034	-0.287
-379.917	170.676	0.114	-0.163
-378.902	204.995	-0.041	0.063
-377.888	-158.142	0.116	-0.007
-376.873	-5.977	0.226	0.155
-375.858	-128.039	0.085	0.012
-374.844	800.000	0.042	0.121
-373.829	-180.290	-0.121	0.003
-372.815	800.000	-0.080	0.233
-371.800	-200.000	0.006	0.135
-370.785	466.842	0.166	-0.371
-369.771	24.220	0.033	-0.027
-368.756	-105.585	-0.195	0.044
-367.742	399.980	-0.188	0.393
-366.727	-200.000	0.010	0.283
-365.712	800.000	0.120	-0.371
-364.698	-200.000	0.011	-0.057
-363.683	400.794	0.104	0.218
-362.669	2.449	-0.166	0.120
-361.654	-200.000	0.072	0.564
-360.639	800.000	-0.088	-0.304
-359.625	-133.197	0.269	-0.034
-358.610	800.000	-0.087	0.325
-357.596	-94.438	-0.319	-0.087
-356.581	31.121	0.249	-0.213
-355.566	-76.528	-0.114	0.040
-354.552	-200.000	0.024	0.399
-353.537	391.099	-0.107	0.222
-352.523	-183.707	0.255	0.004
-351.508	-129.983	0.239	-0.033
-350.493	-200.000	-0.028	0.433
-349.479	800.000	0.017	0.061
-348.464	280.837	-0.200	-0.357
-347.450	-200.000	0.016	-0.304
-346.435	-40.873	0.298	0.154
-345.420	-87.851	0.042	0.012
-344.406	-32.155	-0.249	-0.139
-343.391	383.967	-0.136	0.279
-342.377	205.854	0.058	-0.090
-341.362	-102.577	0.274	-0.065
-340.348	-111.540	0.245	-0.050
-339.333	800.000	0.061	0.178
-338.318	-200.000	-0.066	0.445
-337.304	708.248	-0.076	0.200
-336.289	110.677	0.129	-0.154
-335.275	158.767	0.190	0.263
-334.260	-200.000	0.007	-0.209
-333.245	-108.516	0.149	0.032
-332.231	-200.000	-0.000	-0.220
-331.216	800.000	-0.046	0.163
-330.202	-101.292	0.264	-0.064
-329.187	800.000	-0.045	0.150
-328.172	-117.800	0.244	-0.044
-327.158	155.007	0.278	-0.381
-326.143	-200.000	-0.012	-0.114
-325.129	-154.800	-0.085	-0.006
-324.114	636.989	-0.058	-0.147
-323.099	374.653	-0.163	0.332
-322.085	-7.002	-0.151	0.102
-321.070	136.510	0.064	0.083
-320.056	800.000	0.048	-0.154
-319.041	43.852	-0.129	-0.118
-318.026	-47.221	0.184	-0.089
-317.012	-54.436	0.094	0.042
-315.997	596.530	-0.129	0.319
-314.983	170.295	-0.290	0.415
-313.968	-12.233	0.070	0.046
-312.953	-59.086	0.133	-0.057
-311.939	-58.814	0.301	-0.130
-310.924	43.203	0.198	0.180
-309.910	-200.000	-0.022	-0.472
-308.895	-200.000	0.001	-0.376
-307.880	12.515	-0.081	0.062
-306.866	-200.000	0.050	-0.386
-305.851	69.348	-0.034	-0.035
-304.837	800.000	-0.096	0.407
-303.822	800.000	-0.025	-0.086
-302.807	-200.000	0.040	0.331
-301.793	-87.647	0.249	-0.075
-300.778	358.373	0.027	-0.053
-299.764	584.619	0.031	-0.076
-298.749	64.079	-0.057	0.057
-297.735	-50.916	0.208	0.098
-296.720	-105.230	-0.196	-0.044
-295.705	800.000	-0.092	0.257
-294.691	91.513	0.155	-0.174
-293.676	33.080	-0.098	0.085
-292.662	-200.000	-0.015	0.551
-291.647	409.433	-0.040	0.085
-290.632	-124.380	-0.175	-0.027
-289.618	24.891	-0.321	-0.265
-288.603	232.912	0.106	-0.174
-287.589	800.000	-0.086	0.247
-286.574	-13.297	0.164	-0.106
-285.559	-200.000	-0.038	0.190
-284.545	205.386	0.198	0.306
-283.530	-30.106	0.133	0.076
-282.516	-200.000	0.004	-0.142
-281.501	800.000	-0.131	0.459
-280.486	-200.000	-0.016	0.182
-279.472	72.925	-0.087	0.091
-278.457	52.102	-0.209	-0.199
-277.443	-163.791	-0.185	0.009
-276.428	-44.113	-0.136	-0.068
-275.413	-111.851	0.076	-0.015
-274.399	699.368	-0.042	-0.110
-273.384	78.232	0.143	-0.152
-272.370	-139.623	-0.211	0.022
-271.355	-118.100	0.152	-0.027
-270.340	88.746	0.096	-0.106
-269.326	122.633	0.055	0.068
-268.311	251.273	0.106	0.179
-267.297	131.709	-0.075	0.097
-266.282	270.676	0.221	0.386
-265.267	-148.229	-0.211	-0.017
-264.253	-200.000	0.001	0.124
-263.238	-37.091	-0.228	0.122
-262.224	-49.080	0.421	0.200
-261.209	434.850	0.122	0.264
-260.195	129.015	0.043	-0.055
-259.180	16.922	-0.199	-0.157
-258.165	435.154	0.050	-0.108
-257.151	-158.929	0.184	0.010
-256.136	145.808	0.115	-0.154
-255.122	-200.000	0.038	0.201
-254.107	425.288	-0.126	-0.270
-253.092	39.326	0.084	0.075
-252.078	800.000	0.050	-0.165
-251.063	196.506	0.117	-0.177
-250.049	-68.825	-0.110	-0.042
-249.034	-163.755	0.039	0.002
-248.019	350.005	0.135	-0.266
-247.005	284.182	0.143	0.255
-245.990	-78.207	0.246	-0.084
-244.976	-100.785	0.126	-0.031
-243.961	184.846	-0.149	0.219
-242.946	-200.000	-0.018	-0.292
-241.932	-200.000	0.036	0.215
-240.917	800.000	0.084	-0.270
-239.903	-104.695	-0.285	-0.065
-238.888	-200.000	-0.057	-0.306
-237.873	106.241	-0.088	0.104
-236.859	-200.000	0.007	-0.152
-235.844	800.000	0.051	-0.163
-234.830	-79.855	-0.169	0.056
-233.815	800.000	0.108	0.320
-232.800	-52.295	-0.259	0.119
-231.786	-115.939	0.058	0.011
-230.771	-62.281	-0.269	-0.112
-229.757	-132.963	0.364	0.046
-228.742	616.211	0.103	-0.256
-227.727	-81.919	-0.125	0.041
-226.713	-125.819	-0.162	0.024
-225.698	800.000	-0.108	-0.305
-224.684	-19.107	0.329	-0.203
-223.669	187.802	-0.249	0.370
-222.655	-30.159	-0.224	0.127
-221.640	800.000	-0.072	-0.220
-220.625	-48.857	0.344	0.164
-219.611	-104.231	0.275	-0.063
-218.596	-33.228	0.040	-0.022
-217.582	17.606	-0.333	-0.263
-216.567	800.000	0.051	-0.164
-215.552	48.584	-0.226	-0.210
-214.538	-200.000	0.053	-0.249
-213.523	-119.340	0.067	-0.012
-212.509	-151.460	-0.323	-0.024
-211.494	-65.278	0.031	-0.012
-210.479	-200.000	0.032	0.148
-209.465	-200.000	0.061	-0.321
-208.450	800.000	-0.017	-0.065
-207.436	-200.000	-0.063	0.568
-206.421	309.205	-0.078	0.145
-205.406	-140.095	-0.491	-0.051
-204.392	-200.000	-0.006	0.219
-203.377	61.611	-0.101	-0.100
-202.363	-48.444	-0.223	0.106
-201.348	-200.000	0.013	0.214
-200.333	-62.638	-0.196	0.081
-199.319	-127.904	-0.142	0.020
-198.304	-114.363	0.181	0.035
-197.290	-200.000	0.011	-0.088
-196.275	-58.705	-0.185	0.080
-195.260	-200.000	0.071	-0.321
-194.246	800.000	-0.044	-0.187
-193.231	91.602	0.140	0.157
-192.217	-200.000	-0.020	0.096
-191.202	-86.204	0.161	0.049
-190.187	-29.412	0.327	-0.186
-189.173	13.970	-0.079	0.061
-188.158	641.217	0.118	-0.298
-187.144	-196.242	0.279	-0.002
-186.129	20.955	-0.291	0.234
-185.114	54.590	0.043	0.041
-184.100	81.472	-0.150	0.161
-183.085	-37.469	0.107	0.057
-182.071	-54.209	-0.122	-0.055
-181.056	-55.876	-0.209	-0.093
-180.042	-192.137	0.286	0.003
-179.027	211.646	-0.078	-0.121
-178.012	800.000	0.052	0.163
-176.998	-200.000	-0.027	0.207
-175.983	-83.956	0.203	-0.064
-174.969	-200.000	-0.038	0.203
-173.954	-96.684	-0.281	-0.073
-172.939	-161.286	-0.040	-0.002
-171.925	-200.000	0.013	-0.096
-170.910	800.000	0.057	0.222
-169.896	315.418	0.091	0.170
-168.881	-200.000	0.017	-0.158
-167.866	-39.406	0.061	0.032
-166.852	-178.430	0.218	-0.005
-165.837	238.244	0.120	-0.197
-164.823	-144.246	0.122	-0.011
-163.808	-122.809	-0.229	-0.037
-162.793	52.624	0.042	-0.039
-161.779	109.880	-0.132	-0.157
-160.764	-71.655	-0.113	-0.042
-159.750	58.310	-0.263	-0.256
-158.735	-44.845	-0.324	0.160
-157.720	800.000	0.070	-0.196
-156.706	-200.000	-0.010	-0.042
-155.691	-82.606	0.248	0.080
-154.677	-200.000	0.041	0.197
-153.662	-49.331	0.345	-0.163
-152.647	-2.225	-0.070	-0.048
-151.633	2.529	0.300	-0.215
-150.618	7.964	-0.211	0.157
-149.604	-105.643	-0.238	-0.053
-148.589	-118.141	0.186	0.033
-147.574	-200.000	0.022	-0.283
-146.560	127.556	-0.284	0.357
-145.545	-84.629	0.173	0.054
-144.531	800.000	0.127	-0.409
-143.516	140.327	0.105	-0.137
-142.502	-81.476	-0.112	0.037
-141.487	-21.704	-0.217	0.131
-140.472	-200.000	0.033	0.254
-139.458	102.726	0.122	0.142
-138.443	-200.000	-0.040	0.176
-137.429	-123.024	0.146	0.023
-136.414	669.748	-0.104	-0.268
-135.399	-4.348	-0.175	-0.120
-134.385	-117.249	0.116	0.021
-133.370	53.356	0.130	0.124
-132.356	-16.952	-0.314	-0.196
-131.341	-171.792	-0.335	0.011
-130.326	334.764	-0.036	0.070
-129.312	16.663	0.251	0.197
-128.297	-116.926	-0.398	-0.072
-127.283	-200.000	0.037	-0.343
-126.268	60.744	0.047	-0.046
-125.253	242.164	-0.075	0.125
-124.239	-58.705	0.502	-0.215
-123.224	250.556	-0.123	-0.206
-122.210	274.160	-0.075	-0.131
-121.195	117.620	-0.202	-0.246
-120.180	800.000	-0.027	0.102
-119.166	28.262	0.021	0.017
-118.151	-200.000	0.029	0.452
-117.137	778.226	0.032	-0.087
-116.122	262.863	0.108	-0.186
-115.107	-200.000	-0.017	0.163
-114.093	-200.000	0.012	0.213
-113.078	72.128	0.075	0.077
-112.064	800.000	0.054	0.228
-111.049	61.537	-0.075	-0.074
-110.034	-57.084	-0.017	-0.007
-109.020	121.233	0.064	0.078
-108.005	209.487	-0.299	0.464
-106.991	-18.559	-0.114	-0.071
-105.976	77.689	0.215	0.226
-104.962	-15.515	0.156	-0.099
-103.947	-106.670	-0.148	0.033
-102.932	-136.798	-0.056	-0.006
-101.918	-200.000	-0.003	-0.115
-100.903	-58.634	-0.057	-0.024
-99.889	-146.188	0.150	-0.013
-98.874	-200.000	0.004	0.162
-97.859	461.301	0.093	-0.205
-96.845	-140.196	-0.255	0.026
-95.830	-71.012	-0.280	0.104
-94.816	70.523	0.261	0.266
-93.801	-14.850	-0.164	-0.104
-92.786	127.965	-0.161	0.203
-91.772	-76.516	0.117	-0.041
-90.757	537.638	-0.054	-0.127
-89.743	21.757	-0.160	0.129
-88.728	-200.000	-0.014	0.196
-87.713	140.175	-0.105	0.137
-86.699	-200.000	-0.031	0.161
-85.684	-52.492	-0.235	-0.107
-84.670	-53.402	0.266	0.120
-83.655	-47.577	0.463	-0.222
-82.640	-200.000	0.021	-0.117
-81.626	464.251	0.132	0.293
-80.611	-63.789	-0.301	-0.122
-79.597	-200.000	0.000	-0.024
-78.582	63.935	0.215	0.214
-77.567	164.487	0.164	0.228
-76.553	39.516	-0.174	0.154
-75.538	2.766	-0.419	0.300
-74.524	-86.345	0.289	0.088
-73.509	-103.395	-0.175	-0.041
-72.494	-140.164	0.109	0.011
-71.480	45.938	0.234	0.213
-70.465	191.547	0.035	0.053
-69.451	-28.890	-0.220	-0.125
-68.436	-200.000	-0.006	0.321
-67.422	-180.523	0.174	-0.004
-66.407	-122.690	-0.149	-0.024
-65.392	379.477	0.121	0.244
-64.378	-174.259	-0.226	-0.006
-63.363	800.000	0.137	0.418
-62.349	800.000	-0.086	0.299
-61.334	-63.454	-1.072	-0.435
-60.319	800.000	-0.114	0.347
-59.305	-200.000	-0.108	-0.946
-58.290	289.297	0.466	0.835
-57.276	800.000	0.455	1.720
-56.261	-200.000	89.435	511.506
-55.246	450.930	1425.569	3106.842
-54.232	143.478	2647.127	3478.994
-53.217	104.534	2362.606	2746.103
-52.203	45.091	1966.184	1787.941
-51.188	39.186	1750.615	1545.609
-50.173	36.566	1705.150	1485.311
-49.159	52.109	1750.151	1645.754
-48.144	55.397	1768.223	1688.258
-47.130	39.192	1726.599	1524.213
-46.115	36.207	1711.221	1487.594
-45.100	35.927	1707.058	1481.766
-44.086	35.935	1704.477	1479.522
-43.071	35.994	1701.801	1477.596
-42.057	35.913	1699.632	1475.031
-41.042	35.987	1697.390	1473.594
-40.027	36.049	1695.117	1472.039
-39.013	35.998	1693.578	1470.254
-37.998	35.863	1691.996	1467.789
-36.984	35.947	1690.726	1467.275
-35.969	36.108	1688.918	1466.872
-34.954	36.126	1687.821	1465.993
-33.940	36.096	1685.283	1463.507
-32.925	36.086	1683.495	1461.817
-31.911	36.107	1681.932	1460.561
-30.896	36.049	1679.747	1458.172
-29.881	36.056	1678.067	1456.708
-28.867	36.141	1676.566	1455.985
-27.852	36.152	1675.203	1454.828
-26.838	36.096	1673.514	1452.880
-25.823	36.029	1672.872	1451.766
-24.809	36.111	1671.256	1450.921
-23.794	36.164	1669.516	1449.752
-22.779	36.090	1667.933	1447.764
-21.765	36.137	1665.775	1446.186
-20.750	36.081	1664.460	1444.564
-19.736	36.128	1663.446	1443.981
-18.721	36.105	1661.849	1442.365
-17.706	36.166	1659.792	1440.974
-16.692	36.083	1658.360	1439.055
-15.677	35.990	1657.711	1437.741
-14.663	36.123	1656.133	1437.307
-13.648	36.100	1654.515	1435.679
-12.633	36.059	1653.084	1434.070
-11.619	36.057	1651.631	1432.739
-10.604	36.096	1649.991	1431.552
-9.590	36.118	1648.556	1430.412
-8.575	36.189	1646.938	1429.481
-7.560	36.092	1645.656	1427.592
-6.546	36.127	1644.564	1426.845
-5.531	36.032	1644.074	1425.658
-4.517	36.140	1641.869	1424.488
-3.502	36.184	1640.972	1423.981
-2.487	36.147	1639.835	1422.663
-1.473	36.360	1628.852	1414.643
-0.458	34.571	1610.037	1385.273
0.556	29.590	1609.951	1350.633
1.571	26.087	1632.673	1343.542
2.586	24.439	1644.572	1340.845
3.600	21.302	1590.175	1273.553
4.615	11.958	1473.335	1116.479
5.629	2.925	1402.382	1003.791
6.644	0.848	1393.115	983.577
7.659	0.835	1391.833	982.500
8.673	0.747	1391.086	981.315
9.688	0.641	1388.879	978.987
10.702	0.457	1386.008	975.688
11.717	4.154	1392.295	1004.013
12.731	12.885	1406.279	1070.933
13.746	17.826	1412.242	1107.525
14.761	17.468	1410.819	1103.990
15.775	16.756	1407.915	1097.012
16.790	15.641	1405.631	1087.922
17.804	14.798	1403.275	1080.552
18.819	14.385	1402.355	1077.082
19.834	14.147	1400.065	1073.687
20.848	13.893	1399.317	1071.381
21.863	13.754	1397.387	1068.915
22.877	13.495	1396.336	1066.345
23.892	13.509	1395.109	1065.407
24.907	13.386	1394.625	1064.149
25.921	13.365	1393.966	1063.417
26.936	13.521	1393.208	1063.752
27.950	13.644	1391.361	1063.032
28.965	13.469	1390.969	1061.517
29.980	13.677	1389.813	1061.875
30.994	13.710	1389.046	1061.404
32.009	13.694	1388.429	1060.740
33.023	13.757	1387.006	1059.961
34.038	13.724	1385.725	1058.674
35.053	13.623	1384.678	1057.138
36.067	13.673	1383.955	1056.811
37.082	13.617	1383.131	1055.732
38.096	13.651	1381.865	1054.892
39.111	13.700	1381.033	1054.472
40.126	13.576	1380.525	1053.204
41.140	13.623	1379.385	1052.536
42.155	13.470	1379.170	1051.307
43.169	13.454	1379.213	1051.146
44.184	13.375	1378.727	1050.181
45.199	13.515	1377.452	1050.006
46.213	13.552	1377.299	1050.032
47.228	13.477	1376.529	1048.877
48.242	13.516	1375.332	1048.116
49.257	13.554	1373.835	1047.126
50.271	13.547	1372.514	1045.981
51.286	13.505	1371.353	1044.737
52.301	13.490	1369.801	1043.369
53.315	13.613	1368.301	1042.911
54.330	13.490	1368.020	1041.828
55.344	13.493	1367.007	1040.981
56.359	13.458	1365.549	1039.563
57.374	13.447	1364.602	1038.681
58.388	13.439	1364.057	1038.123
59.403	13.404	1363.959	1037.738
60.417	13.399	1362.680	1036.640
61.432	13.381	1361.682	1035.679
62.447	13.363	1360.729	1034.747
63.461	13.263	1359.887	1033.394
64.476	13.352	1358.583	1032.864
65.490	13.369	1357.477	1032.036
66.505	13.438	1355.163	1030.616
67.520	13.477	1353.901	1029.808
68.534	13.463	1353.267	1029.148
69.549	13.409	1352.281	1027.971
70.563	13.443	1351.356	1027.389
71.578	13.313	1350.008	1025.468
72.593	13.278	1349.064	1024.443
73.607	13.346	1348.046	1024.002
74.622	13.218	1347.746	1022.887
75.636	13.324	1346.653	1022.625
76.651	13.290	1346.339	1022.088
77.666	13.347	1345.704	1021.862
78.680	13.329	1344.959	1021.097
79.695	13.379	1344.073	1020.643
80.709	13.359	1343.437	1019.950
81.724	13.448	1342.329	1019.561
82.739	13.592	1340.886	1019.264
83.753	13.487	1340.174	1017.989
84.768	13.534	1339.322	1017.537
85.782	13.593	1337.913	1016.738
86.797	13.591	1336.401	1015.486
87.812	13.490	1335.211	1013.876
88.826	13.510	1334.068	1013.040
89.841	13.552	1333.002	1012.396
90.855	13.598	1331.881	1011.738
91.870	13.557	1331.024	1010.747
92.884	13.494	1330.827	1010.127
93.899	13.562	1329.578	1009.504
94.914	13.640	1329.167	1009.574
95.928	13.495	1328.659	1008.215
96.943	13.619	1326.967	1007.599
97.957	13.596	1326.164	1006.759
98.972	13.641	1324.757	1005.873
99.987	13.571	1324.028	1004.805
101.001	13.586	1322.530	1003.675
102.016	13.578	1321.735	1002.932
103.030	13.592	1321.222	1002.541
104.045	13.591	1319.797	1001.360
105.060	13.528	1319.169	1000.420
106.074	13.563	1317.562	999.324
107.089	13.414	1316.449	997.493
108.103	13.449	1314.597	996.212
109.118	13.468	1313.438	995.355
110.133	13.432	1312.856	994.615
111.147	13.448	1311.336	993.467
112.162	13.456	1310.255	992.607
113.176	13.565	1308.719	992.009
114.191	13.558	1307.915	991.272
115.206	13.589	1306.691	990.444
116.220	13.535	1305.578	989.188
117.235	13.560	1304.356	988.322
118.249	13.514	1303.416	987.252
119.264	13.547	1301.988	986.279
120.279	13.532	1301.225	985.523
121.293	13.525	1300.200	984.620
122.308	13.481	1299.122	983.455
123.322	13.450	1298.354	982.598
124.337	13.427	1297.312	981.588
125.352	13.571	1295.655	981.102
126.366	13.448	1294.714	979.576
127.381	13.492	1293.386	978.745
128.395	13.412	1292.704	977.666
129.410	13.402	1291.444	976.568
130.424	13.507	1291.129	976.864
131.439	13.652	1289.679	976.532
132.454	13.604	1288.389	975.187
133.468	13.612	1287.798	974.704
134.483	13.572	1287.314	974.016
135.497	13.587	1286.418	973.341
136.512	13.545	1284.764	971.755
137.527	13.571	1282.892	970.405
138.541	13.665	1281.538	969.846
139.556	13.636	1280.355	968.693
140.570	13.742	1279.136	968.306
141.585	13.604	1278.137	966.661
142.600	13.616	1277.345	966.047
143.614	13.673	1276.292	965.492
144.629	13.761	1274.977	964.924
145.643	13.760	1273.437	963.672
146.658	13.689	1272.454	962.428
147.673	13.579	1271.029	960.628
148.687	13.624	1270.332	960.279
149.702	13.582	1268.500	958.566
150.716	13.664	1267.368	958.098
151.731	13.629	1265.730	956.572
152.746	13.640	1265.125	956.092
153.760	13.694	1263.870	955.370
154.775	13.742	1262.516	954.541
155.789	13.886	1260.898	954.059
156.804	13.790	1260.650	953.237
157.819	13.808	1259.269	952.211
158.833	13.838	1258.097	951.413
159.848	13.907	1257.467	951.246
160.862	13.902	1256.441	950.361
161.877	13.766	1254.842	948.287
162.892	13.735	1254.081	947.451
163.906	13.782	1253.451	947.160
164.921	13.682	1252.274	945.616
165.935	13.837	1251.582	945.895
166.950	13.830	1250.573	945.005
167.964	13.866	1249.790	944.537
168.979	13.827	1248.848	943.522
169.994	13.833	1248.548	943.244
171.008	13.799	1247.850	942.437
172.023	13.901	1246.742	942.099
173.037	13.997	1245.713	941.779
174.052	13.916	1244.961	940.671
175.067	13.974	1243.288	939.654
176.081	13.856	1242.806	938.537
177.096	13.865	1241.813	937.753
178.110	13.935	1240.384	936.988
179.125	13.822	1239.583	935.662
180.140	13.811	1238.359	934.597
181.154	13.899	1236.882	933.891
182.169	13.998	1235.776	933.531
183.183	13.941	1234.994	932.538
184.198	14.129	1233.484	932.369
185.213	14.031	1232.339	930.873
186.227	13.978	1231.360	929.754
187.242	14.094	1230.386	929.585
188.256	14.131	1229.457	929.005
189.271	14.090	1228.505	927.976
190.286	14.062	1227.697	927.127
191.300	13.957	1226.737	925.734
192.315	14.037	1225.776	925.376
193.329	13.935	1225.252	924.328
194.344	13.949	1224.353	923.649
195.359	14.039	1224.080	923.857
196.373	14.135	1223.223	923.662
197.388	14.144	1222.865	923.360
198.402	14.289	1222.011	923.440
199.417	14.232	1221.843	922.914
200.432	14.238	1220.791	922.072
201.446	14.252	1220.381	921.758
202.461	14.206	1219.358	920.646
203.475	14.343	1217.762	920.121
204.490	14.274	1216.835	918.956
205.504	14.336	1215.447	918.167
206.519	14.382	1214.241	917.429
207.534	14.222	1213.224	915.701
208.548	14.293	1212.747	915.651
209.563	14.435	1211.210	915.190
210.577	14.352	1210.445	914.074
211.592	14.368	1209.653	913.480
212.607	14.345	1209.095	912.853
213.621	14.443	1208.042	912.512
214.636	14.458	1206.936	911.678
215.650	14.478	1205.980	910.987
216.665	14.532	1204.873	910.365
217.680	14.577	1204.139	909.976
218.694	14.523	1203.517	909.128
219.709	14.554	1202.641	908.555
220.723	14.528	1201.943	907.807
221.738	14.506	1201.524	907.290
222.753	14.546	1200.312	906.512
223.767	14.542	1199.940	906.132
224.782	14.716	1199.214	906.445
225.796	14.695	1198.143	905.443
226.811	14.612	1197.581	904.486
227.826	14.614	1197.041	904.010
228.840	14.615	1196.488	903.520
229.855	14.632	1195.471	902.763
230.869	14.644	1194.746	902.199
231.884	14.611	1194.178	901.516
232.899	14.655	1192.879	900.693
233.913	14.667	1192.187	900.153
234.928	14.604	1191.473	899.194
235.942	14.611	1190.934	898.748
236.957	14.605	1190.206	898.087
237.972	14.647	1189.120	897.413
238.986	14.711	1188.255	897.021
240.001	14.754	1188.143	897.088
241.015	14.708	1187.394	896.197
242.030	14.726	1186.544	895.576
243.045	14.753	1185.437	894.804
244.059	14.782	1184.607	894.254
245.074	14.749	1183.906	893.467
246.088	14.790	1183.380	893.212
247.103	14.863	1182.771	893.065
248.117	14.794	1182.014	892.043
249.132	14.895	1180.972	891.720
250.147	14.987	1180.483	891.763
251.161	15.102	1179.457	891.517
252.176	15.086	1178.851	890.898
253.190	15.111	1178.411	890.618
254.205	15.065	1177.652	889.723
255.220	15.167	1176.814	889.552
256.234	15.191	1176.243	889.167
257.249	15.123	1175.800	888.393
258.263	15.146	1174.634	887.554
259.278	15.210	1174.073	887.395
260.293	15.125	1173.626	886.529
261.307	15.097	1173.574	886.261
262.322	15.179	1172.717	885.967
263.336	15.259	1172.215	885.935
264.351	15.283	1170.975	885.043
265.366	15.250	1170.491	884.425
266.380	15.301	1169.829	884.117
267.395	15.300	1168.778	883.238
268.409	15.265	1168.131	882.489
269.424	15.292	1167.282	881.912
270.439	15.335	1166.991	881.838
271.453	15.305	1166.424	881.176
272.468	15.324	1165.490	880.492
273.482	15.379	1164.252	879.768
274.497	15.277	1164.318	879.205
275.512	15.389	1163.070	878.767
276.526	15.295	1162.735	877.947
277.541	15.354	1161.919	877.564
278.555	15.364	1161.152	876.958
279.570	15.449	1160.350	876.715
280.585	15.461	1159.446	876.020
281.599	15.522	1158.360	875.437
282.614	15.584	1157.179	874.794
283.628	15.502	1156.365	873.672
284.643	15.526	1155.624	873.162
285.657	15.584	1154.466	872.511
286.672	15.513	1153.966	871.687
287.687	15.507	1153.387	871.139
288.701	15.670	1152.451	871.200
289.716	15.648	1151.541	870.323
290.730	15.616	1151.025	869.690
291.745	15.577	1149.981	868.623
292.760	15.708	1149.220	868.648
293.774	15.643	1149.134	868.168
294.789	15.673	1148.349	867.654
295.803	15.766	1147.624	867.511
296.818	15.696	1146.818	866.464
297.833	15.709	1145.969	865.812
298.847	15.692	1145.253	865.106
299.862	15.749	1144.403	864.682
300.876	15.755	1143.428	863.896
301.891	15.787	1143.199	863.815
302.906	15.805	1142.581	863.362
303.920	15.887	1141.698	863.039
304.935	15.945	1140.921	862.672
305.949	15.941	1140.110	861.960
306.964	15.929	1139.657	861.481
307.979	15.954	1138.739	860.842
308.993	15.828	1138.461	859.908
310.008	15.983	1137.204	859.677
311.022	15.910	1136.393	858.615
312.037	16.031	1135.307	858.336
313.052	15.930	1134.737	857.311
314.066	15.980	1133.756	856.750
315.081	15.954	1132.983	855.958
316.095	15.962	1132.385	855.471
317.110	16.028	1131.417	854.997
318.125	15.997	1130.987	854.439
319.139	15.973	1130.369	853.776
320.154	16.034	1129.598	853.427
321.168	16.074	1128.926	853.045
322.183	15.919	1128.568	851.919
323.197	15.992	1127.705	851.561
324.212	16.048	1127.285	851.452
325.227	16.066	1126.314	850.733
326.241	16.098	1125.585	850.266
327.256	16.032	1124.695	849.185
328.270	16.006	1123.821	848.324
329.285	16.047	1122.872	847.733
330.300	16.132	1122.043	847.461
331.314	16.031	1120.964	846.065
332.329	16.109	1120.067	845.705
333.343	16.115	1118.917	844.792
334.358	16.183	1117.943	844.321
335.373	16.334	1117.617	844.755
336.387	16.245	1116.659	843.514
337.402	16.241	1116.260	843.119
338.416	16.209	1115.541	842.341
339.431	16.306	1114.930	842.288
340.446	16.235	1114.345	841.417
341.460	16.342	1113.512	841.245
342.475	16.452	1112.276	840.787
343.489	16.393	1111.665	839.956
344.504	16.404	1110.625	839.151
345.519	16.513	1109.562	838.812
346.533	16.498	1109.139	838.345
347.548	16.567	1108.504	838.135
348.562	16.511	1107.705	837.178
349.577	16.561	1106.717	836.606
350.592	16.578	1105.963	836.046
351.606	16.563	1105.067	835.220
352.621	16.577	1104.244	834.591
353.635	16.551	1103.875	834.111
354.650	16.511	1103.061	833.224
355.665	16.389	1102.696	832.273
356.679	16.479	1101.833	831.993
357.694	16.680	1100.797	832.127
358.708	16.532	1100.737	831.278
359.723	16.575	1100.278	831.068
360.738	16.500	1099.372	829.942
361.752	16.625	1098.762	830.020
362.767	16.646	1098.155	829.595
363.781	16.647	1097.519	829.043
364.796	16.807	1096.660	829.107
365.810	16.717	1096.500	828.470
366.825	16.854	1095.701	828.465
367.840	16.803	1095.248	827.797
368.854	16.816	1094.618	827.314
369.869	16.771	1094.133	826.655
370.883	16.811	1092.921	825.861
371.898	16.848	1092.181	825.406
372.913	16.805	1091.652	824.725
373.927	16.822	1091.079	824.301
374.942	16.904	1090.356	824.081
375.956	16.976	1090.249	824.279
376.971	16.986	1089.260	823.507
377.986	16.920	1088.736	822.715
379.000	16.954	1088.417	822.567
380.015	17.026	1087.728	822.324
381.029	17.045	1086.958	821.761
382.044	16.971	1086.030	820.629
383.059	16.993	1085.728	820.432
384.073	17.129	1084.689	820.233
385.088	17.047	1083.856	819.136
386.102	17.129	1082.906	818.740
387.117	17.203	1081.742	818.144
388.132	17.100	1081.126	817.111
389.146	17.059	1080.292	816.210
390.161	17.109	1079.496	815.775
391.175	17.124	1078.769	815.228
392.190	17.054	1078.166	814.365
393.205	17.248	1077.794	814.938
394.219	17.266	1076.318	813.839
395.234	17.252	1075.480	813.065
396.248	17.167	1074.687	811.986
397.263	17.239	1073.455	811.326
398.278	17.228	1072.843	810.743
399.292	17.131	1072.480	809.934
400.307	17.215	1071.819	809.764
401.321	17.167	1071.219	809.009
402.336	17.171	1070.631	808.510
403.350	17.209	1069.728	807.941
404.365	17.211	1069.026	807.346
405.380	17.260	1068.515	807.124
406.394	17.285	1067.390	806.319
407.409	17.352	1066.638	805.996
408.423	17.357	1065.907	805.400
409.438	17.391	1065.256	804.995
410.453	17.344	1064.547	804.167
411.467	17.455	1063.844	804.089
412.482	17.473	1063.059	803.510
413.496	17.497	1062.617	803.219
414.511	17.557	1062.114	803.050
415.526	17.602	1061.495	802.720
416.540	17.585	1061.402	802.499
417.555	17.639	1060.826	802.247
418.569	17.637	1060.032	801.566
419.584	17.630	1059.229	800.856
420.599	17.584	1059.072	800.449
421.613	96.900	1313.355	1430.970
422.628	89.426	1350.395	1431.086
