DTS Sentinel unit serial number:	SN413079Multiplexer serial number:	ORYXHardware model number:	OX4-SRSoftware version number:	ORYX F/W v4.00 Oryx Data Collector v3.7.2.0data status	okinstallation	princeton_trtdifferential loss correction	single-endedforward channel	channel 2reverse channel	N/Adate	2019/09/15time	00:23:34forward acquisition time	60.00reverse acquisition time	0.00gamma	496.2192k internal	0.2324k external	0.2324temperature offset calibration	1.0044default loss term (dB/km)	0.3790temperature slope calibration	1.0000multiplexer offset coefficient	1.0000multiplexer slope coefficient	1.0000fibre end	0.00T internal ref (°C)	32.14T ext. ref 1 (°C)	4.58T ext. ref 2 (°C)	27.17length (m)	temperature (°C)	Stokes	anti-Stokes-747.200	-44.679	0.269	0.135
-746.185	-66.305	-0.343	0.138
-745.171	800.000	-0.058	-0.231
-744.156	-69.074	0.115	0.045
-743.142	-2.784	-0.131	0.093
-742.127	-45.960	0.201	0.100
-741.112	89.848	-0.104	0.118
-740.098	350.680	-0.131	0.261
-739.083	789.452	0.098	-0.270
-738.069	751.227	0.061	0.166
-737.054	193.697	-0.042	-0.064
-736.039	-8.574	-0.155	-0.105
-735.025	-200.000	0.025	-0.293
-734.010	-78.538	0.153	-0.053
-732.996	-18.161	-0.233	-0.147
-731.981	12.117	-0.205	0.159
-730.966	-140.015	0.218	-0.023
-729.952	-129.915	0.316	0.044
-728.937	553.770	-0.101	0.245
-727.923	123.532	-0.202	0.255
-726.908	-200.000	-0.419	-0.000
-725.894	-120.496	-0.106	-0.018
-724.879	389.010	-0.088	-0.183
-723.864	-157.724	-0.139	0.008
-722.850	8.681	-0.084	0.064
-721.835	-200.000	-0.008	0.265
-720.821	-59.847	0.233	0.101
-719.806	406.038	-0.079	-0.168
-718.791	390.492	-0.057	-0.120
-717.777	-178.881	0.232	-0.005
-716.762	-90.988	-0.264	-0.076
-715.748	-20.673	-0.135	-0.084
-714.733	-135.936	-0.045	0.005
-713.718	157.042	0.204	0.284
-712.704	-200.000	0.000	0.125
-711.689	-176.513	-0.250	-0.006
-710.675	-33.250	-0.045	0.025
-709.660	5.606	0.212	0.158
-708.645	1.375	0.066	-0.048
-707.631	-200.000	-0.010	0.159
-706.616	-200.000	-0.009	0.208
-705.602	788.926	-0.068	0.190
-704.587	400.984	-0.093	0.196
-703.572	-68.057	-0.285	0.112
-702.558	209.750	-0.090	0.142
-701.543	-200.000	-0.015	0.101
-700.529	-98.774	-0.037	-0.010
-699.514	-91.331	0.187	-0.054
-698.499	-61.128	0.434	0.184
-697.485	169.782	-0.293	-0.422
-696.470	306.056	0.091	-0.171
-695.456	800.000	-0.063	-0.207
-694.441	500.775	-0.154	0.359
-693.426	224.333	-0.136	0.222
-692.412	-200.000	0.006	-0.137
-691.397	52.773	0.170	-0.164
-690.383	-76.861	0.077	0.027
-689.368	42.476	0.188	0.172
-688.354	7.039	-0.192	0.144
-687.339	800.000	-0.025	-0.096
-686.324	181.478	0.083	-0.123
-685.310	-200.000	-0.004	-0.127
-684.295	-200.000	0.059	-0.373
-683.281	-6.640	0.078	-0.054
-682.266	800.000	-0.036	-0.146
-681.251	717.808	-0.105	-0.282
-680.237	800.000	-0.085	0.243
-679.222	800.000	-0.103	-0.346
-678.208	14.792	0.184	-0.145
-677.193	-200.000	-0.040	-0.273
-676.178	154.059	0.110	-0.152
-675.164	-115.047	-0.144	0.027
-674.149	-115.748	-0.193	0.036
-673.135	94.607	0.102	-0.117
-672.120	514.378	0.133	0.312
-671.105	800.000	-0.016	-0.048
-670.091	-31.393	-0.086	-0.049
-669.076	-33.423	-0.185	-0.103
-668.062	-123.338	0.062	0.010
-667.047	-200.000	-0.043	-0.322
-666.032	-83.104	-0.376	-0.122
-665.018	-200.000	-0.045	-0.215
-664.003	6.333	-0.107	0.080
-662.989	-90.445	0.123	0.036
-661.974	225.116	0.046	-0.076
-660.959	-200.000	-0.013	0.128
-659.945	-110.968	0.185	0.038
-658.930	800.000	0.022	-0.064
-657.916	646.292	0.042	-0.107
-656.901	496.261	-0.121	-0.281
-655.886	-158.879	0.170	0.010
-654.872	686.397	0.034	0.090
-653.857	609.108	-0.141	-0.354
-652.843	81.497	-0.253	0.275
-651.828	-78.550	-0.197	0.068
-650.814	-62.953	0.198	-0.082
-649.799	-162.475	-0.178	0.009
-648.784	-57.346	-0.363	-0.160
-647.770	-81.979	-0.391	-0.129
-646.755	-200.000	0.463	0.002
-645.741	-200.000	-0.042	-0.184
-644.726	239.719	-0.041	-0.068
-643.711	-92.837	0.173	0.049
-642.697	31.020	-0.192	0.165
-641.682	-54.223	-0.282	-0.129
-640.668	-4.621	0.216	-0.150
-639.653	106.256	0.033	-0.039
-638.638	151.728	-0.173	0.237
-637.624	-200.000	0.021	0.222
-636.609	-31.553	0.237	0.134
-635.595	480.926	0.088	-0.200
-634.580	-170.331	-0.148	0.005
-633.565	-38.615	-0.188	0.100
-632.551	37.492	0.107	0.095
-631.536	79.853	-0.130	-0.140
-630.522	442.191	0.189	-0.415
-629.507	-200.000	-0.011	0.354
-628.492	3.465	0.083	-0.061
-627.478	-154.736	-0.072	-0.005
-626.463	101.633	-0.312	-0.366
-625.449	-118.129	0.117	-0.021
-624.434	-94.185	-0.096	-0.027
-623.419	-200.000	-0.045	0.210
-622.405	-200.000	-0.003	0.457
-621.390	-117.800	0.208	0.037
-620.376	222.608	-0.214	-0.346
-619.361	15.159	-0.117	0.093
-618.346	-200.000	0.046	0.229
-617.332	-128.202	-0.345	-0.050
-616.317	131.811	0.199	0.258
-615.303	-200.000	0.015	-0.117
-614.288	-200.000	-0.019	0.156
-613.273	-62.417	-0.311	0.130
-612.259	-58.266	-0.236	0.103
-611.244	-200.000	-0.080	0.385
-610.230	154.041	-0.087	0.120
-609.215	-200.000	0.051	-0.256
-608.201	-124.442	-0.270	-0.042
-607.186	89.949	0.227	-0.255
-606.171	176.995	-0.156	0.227
-605.157	91.919	-0.085	-0.097
-604.142	-71.519	-0.231	0.087
-603.128	-73.230	-0.296	-0.109
-602.113	145.906	-0.068	0.092
-601.098	59.005	0.135	-0.133
-600.084	-11.286	0.370	-0.244
-599.069	-200.000	0.010	-0.190
-598.055	106.532	-0.204	-0.243
-597.040	-72.451	-0.232	-0.086
-596.025	525.064	-0.126	0.297
-595.011	800.000	-0.008	0.025
-593.996	-111.188	-0.182	-0.037
-592.982	-123.525	-0.162	0.026
-591.967	-200.000	0.049	-0.245
-590.952	27.077	-0.019	-0.016
-589.938	100.885	0.126	0.147
-588.923	166.746	-0.075	-0.106
-587.909	800.000	-0.031	0.088
-586.894	212.781	0.107	0.170
-585.879	123.811	-0.099	-0.125
-584.865	-200.000	0.041	-0.278
-583.850	-184.379	-0.219	0.004
-582.836	800.000	-0.084	0.308
-581.821	-111.028	0.306	0.063
-580.806	-24.005	0.109	-0.065
-579.792	95.454	0.278	0.318
-578.777	-63.108	0.098	-0.040
-577.763	205.069	-0.220	-0.343
-576.748	-53.832	-0.248	0.114
-575.733	554.660	-0.100	-0.241
-574.719	-200.000	-0.029	-0.297
-573.704	184.962	-0.146	0.217
-572.690	-200.000	0.064	-0.301
-571.675	177.633	0.038	-0.056
-570.661	399.617	-0.147	-0.310
-569.646	67.362	0.136	0.139
-568.631	-200.000	-0.015	0.259
-567.617	28.652	0.095	0.081
-566.602	84.365	-0.094	-0.103
-565.588	136.815	-0.143	0.187
-564.573	340.456	0.131	0.257
-563.558	-200.000	-0.019	0.220
-562.544	163.506	-0.018	-0.025
-561.529	-54.100	-0.193	-0.088
-560.515	446.842	0.092	0.202
-559.500	-200.000	0.028	-0.132
-558.485	-89.132	0.137	-0.041
-557.471	-33.447	-0.230	0.128
-556.456	100.231	0.052	0.061
-555.442	-28.218	-0.187	0.108
-554.427	-178.594	0.345	0.008
-553.412	399.256	-0.144	-0.303
-552.398	-118.173	-0.446	0.080
-551.383	-76.435	-0.151	0.053
-550.369	381.668	0.138	0.284
-549.354	-107.474	0.469	0.103
-548.339	-57.082	-0.128	0.056
-547.325	286.730	-0.158	-0.286
-546.310	-200.000	-0.010	-0.160
-545.296	-200.000	0.007	-0.384
-544.281	800.000	-0.082	0.331
-543.266	207.354	0.189	0.295
-542.252	800.000	-0.016	0.049
-541.237	800.000	0.051	-0.209
-540.223	52.554	-0.106	-0.101
-539.208	-200.000	-0.008	0.186
-538.193	786.487	-0.083	-0.227
-537.179	-200.000	-0.055	-0.380
-536.164	-141.446	-0.226	-0.023
-535.150	328.336	0.051	-0.098
-534.135	800.000	-0.052	0.197
-533.121	-109.302	-0.223	-0.047
-532.106	224.523	0.154	0.249
-531.091	-78.405	-0.105	0.036
-530.077	-36.011	0.221	-0.120
-529.062	289.795	-0.120	0.218
-528.048	169.780	-0.023	0.033
-527.033	247.813	0.175	-0.296
-526.018	800.000	-0.106	-0.360
-525.004	165.080	0.152	-0.215
-523.989	-164.341	-0.384	0.018
-522.975	277.170	0.039	0.070
-521.960	-175.663	-0.186	0.005
-520.945	-200.000	0.018	-0.184
-519.931	113.705	-0.313	-0.380
-518.916	-67.250	-0.126	0.050
-517.902	-200.000	0.051	0.376
-516.887	-40.005	0.144	0.075
-515.872	-59.816	-0.212	-0.091
-514.858	10.083	-0.100	-0.076
-513.843	27.980	-0.079	0.067
-512.829	159.384	-0.044	0.062
-511.814	-45.175	0.106	0.053
-510.799	-200.000	0.017	-0.396
-509.785	-141.332	0.095	0.010
-508.770	154.641	-0.049	0.068
-507.756	-22.972	-0.190	-0.115
-506.741	-200.000	-0.028	-0.177
-505.726	587.880	0.110	0.272
-504.712	-35.843	-0.361	-0.196
-503.697	-142.460	0.261	-0.026
-502.683	449.997	0.039	0.085
-501.668	-141.719	0.183	-0.018
-500.653	-174.885	0.149	0.004
-499.639	-200.000	0.002	-0.073
-498.624	-95.007	-0.209	0.056
-497.610	20.119	-0.350	-0.282
-496.595	114.489	-0.118	-0.144
-495.581	24.721	0.063	0.052
-494.566	361.789	0.103	-0.207
-493.551	-200.000	-0.324	0.000
-492.537	-137.185	-0.191	-0.022
-491.522	618.778	0.131	-0.329
-490.508	757.958	0.062	-0.167
-489.493	800.000	0.056	0.234
-488.478	-108.301	-0.220	0.047
-487.464	-147.840	-0.270	-0.023
-486.449	-2.338	-0.190	0.133
-485.435	-200.000	0.006	0.074
-484.420	108.434	-0.137	0.164
-483.405	-73.539	0.140	-0.051
-482.391	-200.000	0.050	0.296
-481.376	-90.006	0.337	0.098
-480.362	-138.381	0.438	-0.048
-479.347	-11.764	-0.177	-0.116
-478.332	286.963	0.141	0.254
-477.318	555.928	-0.046	0.110
-476.303	-140.234	0.233	-0.024
-475.289	-41.729	-0.193	0.099
-474.274	-97.163	0.162	-0.042
-473.259	-28.623	-0.215	0.124
-472.245	-16.457	0.090	-0.057
-471.230	-22.843	0.357	0.215
-470.216	38.406	0.300	-0.267
-469.201	41.518	-0.037	-0.034
-468.186	29.219	-0.097	-0.082
-467.172	-146.843	0.334	0.029
-466.157	-54.710	0.220	0.099
-465.143	50.684	0.169	-0.160
-464.128	-200.000	0.341	0.000
-463.113	365.285	0.101	0.203
-462.099	-57.394	0.084	0.037
-461.084	268.044	0.099	0.174
-460.070	56.749	-0.072	0.070
-459.055	-25.637	0.047	0.027
-458.040	-24.162	0.042	0.025
-457.026	-117.429	0.425	0.077
-456.011	339.338	-0.021	-0.041
-454.997	484.664	0.075	-0.171
-453.982	-200.000	-0.010	0.094
-452.968	-200.000	-0.010	-0.073
-451.953	125.925	0.066	0.084
-450.938	167.124	-0.069	-0.098
-449.924	-60.624	-0.187	-0.079
-448.909	-200.000	0.061	0.283
-447.895	137.575	-0.130	0.170
-446.880	92.927	0.178	-0.201
-445.865	7.193	-0.092	-0.068
-444.851	130.359	-0.171	0.218
-443.836	800.000	0.086	-0.284
-442.822	-144.223	0.103	0.010
-441.807	33.778	-0.035	-0.030
-440.792	14.703	0.099	-0.077
-439.778	284.134	0.131	-0.235
-438.763	-173.449	0.119	-0.004
-437.749	-24.835	0.339	0.201
-436.734	-200.000	-0.006	0.170
-435.719	31.902	-0.095	-0.081
-434.705	-1.833	-0.152	-0.107
-433.690	-200.000	-0.001	0.152
-432.676	800.000	-0.029	-0.123
-431.661	-165.962	-0.187	-0.008
-430.646	-142.643	-0.145	-0.014
-429.632	-16.462	-0.234	-0.148
-428.617	-167.624	-0.227	0.009
-427.603	164.228	-0.125	-0.175
-426.588	-146.845	-0.153	0.013
-425.573	117.785	-0.136	-0.166
-424.559	-200.000	0.050	0.238
-423.544	800.000	0.037	0.146
-422.530	-91.752	0.016	0.005
-421.515	800.000	-0.026	-0.074
-420.500	76.545	0.300	-0.316
-419.486	278.853	0.065	0.116
-418.471	411.882	-0.145	0.308
-417.457	-200.000	-0.009	0.072
-416.442	61.164	-0.240	0.238
-415.428	347.293	0.109	-0.214
-414.413	-10.111	-0.182	0.120
-413.398	41.800	-0.149	-0.134
-412.384	156.077	0.092	-0.127
-411.369	800.000	0.070	0.229
-410.355	149.845	0.091	-0.123
-409.340	-200.000	-0.010	-0.238
-408.325	-134.396	-0.065	0.008
-407.311	406.704	0.202	-0.425
-406.296	800.000	-0.077	-0.272
-405.282	-53.093	-0.136	-0.062
-404.267	-23.928	0.110	-0.066
-403.252	-82.471	-0.155	0.050
-402.238	-4.341	0.157	0.108
-401.223	259.323	0.167	-0.287
-400.209	-62.286	0.449	-0.186
-399.194	-200.000	-0.021	-0.151
-398.179	-58.557	0.033	0.014
-397.165	47.347	-0.176	0.163
-396.150	-200.000	0.013	0.091
-395.136	800.000	-0.080	0.250
-394.121	-104.379	0.196	0.045
-393.106	800.000	0.070	-0.194
-392.092	-75.910	0.253	-0.089
-391.077	169.098	-0.239	0.339
-390.063	31.127	0.246	0.210
-389.048	-116.641	-0.299	-0.055
-388.033	-200.000	0.055	-0.545
-387.019	-18.092	0.111	-0.069
-386.004	53.353	0.119	0.114
-384.990	-75.071	-0.380	-0.135
-383.975	30.497	-0.300	-0.256
-382.960	20.560	0.285	-0.229
-381.946	246.097	-0.124	-0.208
-380.931	-132.305	0.165	0.021
-379.917	800.000	-0.101	0.315
-378.902	146.744	-0.253	-0.339
-377.888	-18.177	-0.239	0.149
-376.873	171.331	0.132	0.189
-375.858	570.274	-0.096	0.231
-374.844	30.215	0.397	0.337
-373.829	-200.000	-0.034	0.227
-372.815	-200.000	0.009	-0.206
-371.800	-149.081	-0.156	-0.012
-370.785	-200.000	-0.024	0.179
-369.771	117.805	0.146	-0.179
-368.756	355.575	-0.122	-0.242
-367.742	800.000	-0.089	0.269
-366.727	162.715	-0.084	0.117
-365.712	-48.013	-0.139	0.067
-364.698	-9.990	-0.158	-0.104
-363.683	-172.200	0.208	0.007
-362.669	-193.440	-0.056	0.000
-361.654	800.000	-0.018	0.059
-360.639	800.000	0.033	-0.140
-359.625	-200.000	-0.029	-0.302
-358.610	-83.770	-0.098	0.031
-357.596	256.391	0.018	0.032
-356.581	285.111	-0.087	-0.156
-355.566	367.590	-0.083	-0.167
-354.552	-95.212	-0.299	-0.080
-353.537	-200.000	-0.034	-0.278
-352.523	183.210	0.028	-0.042
-351.508	111.180	0.126	0.151
-350.493	-200.000	-0.024	0.261
-349.479	53.658	-0.238	0.227
-348.464	581.796	-0.027	0.065
-347.450	-9.975	-0.420	0.278
-346.435	-46.103	-0.264	-0.129
-345.420	-2.297	-0.008	0.005
-344.406	273.152	-0.347	0.609
-343.391	-200.000	0.018	-0.165
-342.377	-66.342	-0.259	-0.102
-341.362	357.218	0.069	0.136
-340.348	-140.535	0.291	-0.030
-339.333	243.552	0.108	-0.180
-338.318	249.980	0.180	0.304
-337.304	7.588	0.215	0.160
-336.289	26.983	-0.126	0.105
-335.275	-8.548	-0.386	-0.257
-334.260	-200.000	-0.013	-0.069
-333.245	-115.134	-0.062	0.012
-332.231	19.289	-0.200	0.160
-331.216	36.486	-0.104	0.091
-330.202	-200.000	0.016	-0.073
-329.187	-151.430	-0.083	-0.006
-328.172	-71.630	0.183	-0.068
-327.158	129.856	0.223	0.283
-326.143	212.615	0.107	-0.167
-325.129	338.341	-0.094	-0.181
-324.114	432.975	-0.101	0.218
-323.099	123.315	0.042	0.052
-322.085	800.000	0.111	0.401
-321.070	800.000	0.084	0.333
-320.056	-72.033	0.174	0.064
-319.041	-88.014	-0.047	-0.014
-318.026	-132.456	-0.067	-0.009
-317.012	-120.016	-0.009	0.002
-315.997	80.347	-0.153	-0.164
-314.983	-200.000	0.021	0.123
-313.968	85.255	0.161	0.176
-312.953	-200.000	0.030	0.238
-311.939	26.278	0.177	0.147
-310.924	255.084	-0.096	-0.162
-309.910	-165.873	-0.326	-0.014
-308.895	-200.000	0.012	0.136
-307.880	248.623	-0.096	0.161
-306.866	-200.000	-0.014	-0.161
-305.851	-9.772	0.277	-0.183
-304.837	242.638	-0.147	-0.244
-303.822	-57.074	0.173	0.076
-302.807	800.000	0.105	0.395
-301.793	488.575	0.108	0.245
-300.778	-153.569	0.013	-0.001
-299.764	46.904	0.020	-0.018
-298.749	-200.000	0.006	-0.459
-297.735	-96.028	0.247	0.065
-296.720	-157.333	-0.049	0.003
-295.705	-5.584	-0.168	0.114
-294.691	47.820	0.128	0.119
-293.676	-35.299	-0.164	0.089
-292.662	37.399	0.047	0.041
-291.647	-88.334	0.304	0.090
-290.632	65.397	-0.083	-0.083
-289.618	-131.520	0.186	0.024
-288.603	193.475	0.173	-0.259
-287.589	33.382	0.178	-0.154
-286.574	-114.620	0.202	-0.038
-285.559	-200.000	0.085	0.423
-284.545	404.843	-0.123	-0.258
-283.530	-52.972	0.104	0.048
-282.516	-154.546	0.168	0.011
-281.501	-200.000	0.016	0.130
-280.486	-26.218	0.244	0.142
-279.472	-118.332	0.273	-0.048
-278.457	-85.022	0.110	0.034
-277.443	-200.000	0.051	-0.476
-276.428	174.652	-0.112	0.160
-275.413	800.000	-0.080	-0.225
-274.399	350.827	-0.024	-0.047
-273.384	231.365	0.173	0.281
-272.370	109.916	0.075	0.089
-271.355	7.276	-0.145	-0.107
-270.340	-75.057	0.195	-0.069
-269.326	789.778	-0.058	0.159
-268.311	-3.671	0.378	0.260
-267.297	9.348	-0.322	0.242
-266.282	-81.640	-0.129	0.042
-265.267	19.615	-0.060	0.048
-264.253	-161.868	-0.252	-0.013
-263.238	103.622	0.155	0.180
-262.224	-136.369	-0.081	0.009
-261.209	-183.659	0.033	-0.001
-260.195	98.080	0.126	-0.144
-259.180	381.568	-0.060	0.121
-258.165	231.899	0.162	-0.263
-257.151	289.028	-0.166	0.298
-256.136	326.931	0.059	0.112
-255.122	720.253	-0.074	-0.194
-254.107	438.661	0.079	-0.171
-253.092	83.140	-0.150	0.161
-252.078	-50.649	0.111	-0.052
-251.063	-88.039	-0.163	0.049
-250.049	-47.351	-0.277	0.133
-249.034	313.539	-0.127	0.237
-248.019	677.012	0.133	0.342
-247.005	-200.000	0.008	0.050
-245.990	-94.101	0.304	0.082
-244.976	-36.043	0.232	-0.124
-243.961	152.589	-0.216	-0.292
-242.946	800.000	0.082	0.326
-241.932	-44.833	0.207	0.102
-240.917	-88.120	-0.351	-0.104
-239.903	10.104	0.267	-0.201
-238.888	-71.152	-0.145	-0.054
-237.873	-156.208	0.291	-0.018
-236.859	-43.045	0.213	0.107
-235.844	-200.000	-0.003	0.202
-234.830	-146.481	0.092	0.008
-233.815	13.896	-0.213	-0.164
-232.800	95.902	0.156	-0.176
-231.786	30.311	-0.217	-0.184
-230.771	-148.251	0.169	-0.014
-229.757	211.062	0.224	-0.349
-228.742	-200.000	0.024	-0.122
-227.727	230.900	-0.029	-0.048
-226.713	-120.683	-0.348	-0.058
-225.698	177.956	0.025	0.036
-224.684	-120.036	0.105	-0.018
-223.669	-57.305	-0.131	0.057
-222.655	30.500	-0.187	-0.158
-221.640	205.617	0.045	0.069
-220.625	-161.428	0.023	-0.001
-219.611	-115.712	-0.187	0.035
-218.596	-63.866	0.222	0.090
-217.582	-6.292	0.189	-0.128
-216.567	800.000	-0.062	-0.171
-215.552	-126.368	0.306	-0.045
-214.538	-200.000	0.028	0.208
-213.523	-66.054	-0.276	0.109
-212.509	800.000	-0.031	-0.113
-211.494	-23.407	0.068	-0.041
-210.479	-63.196	0.155	0.063
-209.465	800.000	0.128	-0.358
-208.450	-110.085	0.148	-0.031
-207.436	-156.913	-0.092	0.006
-206.421	800.000	0.077	-0.237
-205.406	-200.000	-0.034	0.477
-204.392	800.000	-0.072	-0.227
-203.377	184.356	-0.286	-0.419
-202.363	-127.090	-0.068	-0.010
-201.348	-30.209	0.181	-0.102
-200.333	-84.523	0.101	-0.032
-199.319	433.426	0.059	-0.127
-198.304	-0.214	0.056	0.040
-197.290	-200.000	0.017	-0.081
-196.275	-200.000	0.030	0.201
-195.260	377.060	0.126	0.255
-194.246	218.078	-0.130	-0.205
-193.231	146.068	0.110	-0.146
-192.217	209.540	-0.157	-0.242
-191.202	177.574	-0.090	0.129
-190.187	-28.409	0.286	0.163
-189.173	-66.268	0.167	-0.066
-188.158	-174.351	-0.261	0.007
-187.144	-62.598	0.175	0.072
-186.129	-200.000	-0.054	-0.240
-185.114	-15.941	0.312	-0.196
-184.100	27.299	0.085	-0.070
-183.085	-32.474	0.342	-0.188
-182.071	34.048	0.123	0.106
-181.056	-138.478	-0.207	0.023
-180.042	-200.000	-0.003	-0.135
-179.027	117.508	-0.133	-0.162
-178.012	468.880	-0.067	-0.148
-176.998	476.753	0.200	0.447
-175.983	-122.545	-0.095	-0.015
-174.969	-67.227	-0.275	0.107
-173.954	294.021	0.128	0.231
-172.939	496.707	0.075	-0.169
-171.925	-4.126	0.280	0.192
-170.910	-11.350	-0.180	0.117
-169.896	-200.000	0.383	0.002
-168.881	-107.261	-0.386	-0.084
-167.866	-164.417	0.271	0.012
-166.852	-12.572	0.251	0.161
-165.837	63.063	0.108	-0.106
-164.823	231.101	0.071	0.114
-163.808	-200.000	0.010	0.050
-162.793	-200.000	0.003	0.037
-161.779	-148.042	0.181	-0.015
-160.764	472.638	0.094	0.210
-159.750	51.831	0.144	-0.136
-158.735	800.000	-0.031	0.128
-157.720	77.667	0.070	0.074
-156.706	-61.933	0.035	-0.014
-155.691	-200.000	0.022	0.116
-154.677	-69.961	0.075	-0.028
-153.662	-62.309	0.328	0.135
-152.647	-57.239	0.060	-0.026
-151.633	-54.188	0.143	0.064
-150.618	-200.000	-0.034	-0.313
-149.604	70.294	0.216	-0.220
-148.589	-200.000	-0.034	0.208
-147.574	-200.000	-0.006	-0.241
-146.560	-102.752	0.261	0.061
-145.545	-200.000	0.071	-0.313
-144.531	-188.589	0.434	0.005
-143.516	-200.000	-0.000	-0.181
-142.502	287.678	-0.064	0.115
-141.487	-35.496	0.061	0.033
-140.472	-200.000	-0.058	0.252
-139.458	0.640	-0.086	-0.060
-138.443	-95.867	0.141	-0.037
-137.429	-168.237	0.176	0.007
-136.414	124.143	-0.057	0.071
-135.399	266.701	0.125	0.216
-134.385	534.196	-0.142	0.332
-133.370	-70.467	-0.116	0.043
-132.356	-118.854	-0.354	-0.061
-131.341	-123.470	-0.379	-0.059
-130.326	-109.418	-0.177	-0.037
-129.312	184.650	0.109	0.160
-128.297	800.000	-0.142	0.451
-127.283	7.545	-0.021	-0.015
-126.268	-90.468	0.408	0.117
-125.253	688.004	-0.106	-0.272
-124.239	-66.947	0.265	-0.103
-123.224	7.259	-0.197	0.145
-122.210	99.510	-0.194	0.222
-121.195	-92.431	-0.022	0.006
-120.180	598.675	0.136	0.333
-119.166	-151.853	0.359	-0.026
-118.151	-43.229	0.339	-0.169
-117.137	-200.000	0.003	-0.094
-116.122	438.793	0.068	0.146
-115.107	-200.000	-0.058	0.251
-114.093	-123.187	-0.057	0.009
-113.078	-67.527	-0.296	-0.114
-112.064	-130.051	-0.099	-0.013
-111.049	-114.971	0.332	0.062
-110.034	-200.000	0.026	-0.171
-109.020	682.658	-0.110	-0.282
-108.005	-200.000	0.017	0.282
-106.991	-200.000	-0.013	0.099
-105.976	659.986	0.227	-0.574
-104.962	800.000	-0.095	0.291
-103.947	117.530	-0.148	-0.179
-102.932	464.685	0.082	-0.180
-101.918	-50.332	0.284	-0.132
-100.903	-80.556	0.119	-0.039
-99.889	63.454	-0.090	0.089
-98.874	800.000	0.093	-0.362
-97.859	33.078	0.176	0.150
-96.845	120.050	-0.169	0.206
-95.830	34.980	0.126	-0.108
-94.816	-200.000	0.038	0.446
-93.801	332.904	-0.098	0.186
-92.786	353.705	-0.033	0.065
-91.772	74.745	-0.062	-0.064
-90.757	709.398	-0.077	0.200
-89.743	-10.435	-0.214	-0.139
-88.728	-79.713	0.150	0.050
-87.713	-200.000	-0.046	-0.287
-86.699	459.590	-0.052	0.114
-85.684	-107.639	0.102	-0.022
-84.670	34.870	-0.240	-0.206
-83.655	109.526	0.206	0.243
-82.640	-20.272	0.183	-0.111
-81.626	-33.247	-0.138	-0.075
-80.611	316.264	0.064	-0.119
-79.597	123.484	-0.147	-0.181
-78.582	800.000	-0.063	0.270
-77.567	-166.213	0.185	0.008
-76.553	570.180	-0.068	0.162
-75.538	-18.577	-0.097	-0.059
-74.524	-47.429	0.604	-0.289
-73.509	95.126	-0.105	-0.118
-72.494	-139.443	0.123	0.013
-71.480	-200.000	-0.012	0.086
-70.465	-83.903	-0.140	-0.044
-69.451	-43.677	0.139	-0.069
-68.436	-153.397	-0.353	-0.024
-67.422	51.037	-0.367	-0.342
-66.407	-103.443	-0.141	0.033
-65.392	800.000	-0.090	0.272
-64.378	-136.304	0.260	0.030
-63.363	231.613	0.178	0.287
-62.349	800.000	-0.152	0.533
-61.334	52.607	-1.018	-0.955
-60.319	58.777	0.631	0.610
-59.305	-200.000	-0.086	-1.064
-58.290	8.917	1.045	0.775
-57.276	-200.000	0.362	1.595
-56.261	-200.000	95.682	593.515
-55.246	668.298	1366.018	3471.875
-54.232	200.002	2547.482	3842.750
-53.217	114.842	2267.332	2716.812
-52.203	41.756	1896.040	1688.356
-51.188	35.328	1686.743	1453.409
-50.173	32.674	1642.372	1395.502
-49.159	50.416	1687.636	1567.327
-48.144	52.095	1704.562	1595.562
-47.130	34.989	1665.972	1432.741
-46.115	32.330	1651.243	1400.253
-45.100	32.133	1646.541	1394.750
-44.086	32.096	1643.929	1392.210
-43.071	32.128	1640.801	1389.741
-42.057	32.037	1639.269	1387.713
-41.042	32.038	1637.071	1385.803
-40.027	32.075	1635.120	1384.370
-39.013	31.941	1633.730	1382.150
-37.998	31.956	1631.921	1380.679
-36.984	32.012	1630.968	1380.232
-35.969	32.144	1629.150	1379.604
-34.954	32.198	1626.680	1377.853
-33.940	32.041	1625.526	1375.676
-32.925	32.191	1623.694	1375.165
-31.911	32.103	1622.342	1373.326
-30.896	32.087	1620.489	1371.584
-29.881	32.226	1618.104	1370.521
-28.867	32.203	1616.787	1369.189
-27.852	32.187	1615.674	1368.072
-26.838	32.144	1613.778	1366.103
-25.823	32.156	1612.637	1365.168
-24.809	32.133	1610.867	1363.450
-23.794	32.136	1609.890	1362.589
-22.779	32.155	1608.948	1361.875
-21.765	32.080	1607.052	1359.673
-20.750	32.128	1604.802	1358.065
-19.736	32.240	1603.347	1357.588
-18.721	32.181	1602.564	1356.441
-17.706	32.175	1600.951	1354.984
-16.692	32.178	1599.323	1353.574
-15.677	32.152	1597.935	1352.157
-14.663	32.065	1596.911	1350.606
-13.648	32.183	1595.333	1350.069
-12.633	32.174	1593.655	1348.533
-11.619	32.158	1591.822	1346.813
-10.604	32.179	1590.469	1345.767
-9.590	32.227	1589.365	1345.123
-8.575	32.207	1587.991	1343.759
-7.560	32.240	1586.737	1342.879
-6.546	32.223	1585.952	1342.046
-5.531	32.228	1583.964	1340.340
-4.517	32.152	1583.264	1339.158
-3.502	32.243	1582.011	1338.691
-2.487	32.241	1580.288	1337.163
-1.473	31.950	1569.175	1325.654
-0.458	29.258	1549.925	1290.517
0.556	25.281	1550.323	1259.283
1.571	22.936	1573.835	1261.545
2.586	22.452	1585.705	1267.467
3.600	19.834	1532.692	1206.742
4.615	11.972	1425.485	1071.032
5.629	5.714	1362.594	984.482
6.644	4.697	1355.296	972.762
7.659	4.531	1354.558	971.112
8.673	4.543	1353.072	970.035
9.688	4.539	1351.457	968.763
10.702	4.442	1348.622	966.045
11.717	7.399	1353.766	988.086
12.731	14.804	1367.123	1044.178
13.746	19.369	1374.321	1078.190
14.761	19.000	1372.506	1074.366
15.775	17.975	1369.911	1065.849
16.790	16.966	1367.130	1057.300
17.804	16.105	1365.246	1050.388
18.819	15.759	1363.824	1047.047
19.834	15.529	1362.136	1044.233
20.848	15.249	1361.147	1041.640
21.863	15.108	1359.572	1039.471
22.877	14.974	1358.192	1037.490
23.892	14.875	1357.594	1036.331
24.907	14.922	1356.322	1035.557
25.921	14.847	1356.454	1035.098
26.936	14.875	1355.757	1034.654
27.950	14.964	1354.351	1034.037
28.965	15.052	1352.913	1033.392
29.980	15.143	1352.323	1033.410
30.994	15.231	1350.958	1032.816
32.009	15.294	1349.552	1032.041
33.023	15.324	1348.516	1031.340
34.038	15.168	1347.009	1029.137
35.053	15.034	1345.946	1027.414
36.067	15.093	1344.811	1026.819
37.082	15.065	1344.057	1025.978
38.096	15.184	1342.776	1025.639
39.111	15.090	1342.544	1024.796
40.126	15.035	1341.656	1023.689
41.140	14.894	1340.574	1021.914
42.155	14.795	1339.977	1020.761
43.169	14.804	1340.167	1020.872
44.184	14.738	1339.979	1020.237
45.199	14.765	1339.335	1019.817
46.213	15.001	1338.290	1020.374
47.228	14.931	1337.467	1019.231
48.242	14.988	1336.698	1018.901
49.257	14.900	1335.341	1017.241
50.271	14.983	1333.724	1016.422
51.286	15.050	1332.295	1015.650
52.301	14.968	1331.123	1014.168
53.315	15.086	1329.950	1013.900
54.330	14.850	1329.106	1011.741
55.344	14.851	1327.813	1010.673
56.359	14.934	1326.629	1010.180
57.374	14.869	1325.806	1009.073
58.388	14.826	1325.051	1008.153
59.403	14.685	1324.595	1006.865
60.417	14.864	1323.424	1006.961
61.432	14.694	1323.182	1005.666
62.447	14.584	1321.907	1003.947
63.461	14.615	1320.528	1002.999
64.476	14.669	1319.303	1002.300
65.490	14.630	1318.209	1001.150
66.505	14.627	1316.407	999.673
67.520	14.718	1315.432	999.389
68.534	14.688	1314.658	998.532
69.549	14.771	1313.644	998.167
70.563	14.675	1312.680	996.777
71.578	14.617	1311.411	995.376
72.593	14.504	1310.751	994.115
73.607	14.497	1309.987	993.407
74.622	14.588	1308.908	993.042
75.636	14.531	1308.477	992.288
76.651	14.532	1307.740	991.645
77.666	14.521	1307.102	991.010
78.680	14.582	1307.038	991.237
79.695	14.603	1306.280	990.701
80.709	14.715	1305.255	990.498
81.724	14.847	1303.707	990.016
82.739	14.866	1303.485	989.872
83.753	15.005	1302.073	989.535
84.768	15.039	1301.167	988.960
85.782	15.043	1300.771	988.596
86.797	15.032	1299.560	987.521
87.812	14.965	1298.490	986.228
88.826	14.971	1297.186	985.184
89.841	14.969	1296.607	984.645
90.855	14.965	1295.148	983.426
91.870	15.146	1293.994	983.528
92.884	15.070	1293.084	982.301
93.899	15.177	1292.705	982.558
94.914	15.170	1291.948	981.852
95.928	15.182	1291.144	981.225
96.943	15.058	1290.388	979.837
97.957	15.038	1288.933	978.529
98.972	15.065	1288.000	977.894
99.987	14.990	1287.203	976.765
101.001	15.024	1286.726	976.511
102.016	15.080	1285.711	975.984
103.030	15.066	1284.734	975.071
104.045	15.084	1283.060	973.822
105.060	15.080	1281.899	972.829
106.074	14.954	1280.766	971.151
107.089	14.828	1279.269	969.203
108.103	14.735	1278.190	967.759
109.118	14.768	1276.668	966.712
110.133	14.728	1275.693	965.655
111.147	14.883	1273.710	964.968
112.162	14.866	1272.596	963.939
113.176	14.745	1271.564	962.376
114.191	14.867	1271.108	962.648
115.206	14.895	1270.117	961.974
116.220	14.796	1268.391	960.008
117.235	14.923	1267.030	959.626
118.249	14.854	1266.186	958.505
119.264	14.768	1265.275	957.237
120.279	14.838	1263.941	956.543
121.293	14.774	1263.012	955.391
122.308	14.700	1262.144	954.228
123.322	14.828	1260.652	953.745
124.337	14.679	1260.302	952.545
125.352	14.726	1259.164	951.871
126.366	14.672	1257.855	950.489
127.381	14.650	1257.266	949.833
128.395	14.801	1255.596	949.345
129.410	14.723	1254.767	948.191
130.424	14.738	1254.287	947.832
131.439	14.652	1253.862	946.937
132.454	14.867	1252.116	946.753
133.468	14.882	1251.645	946.400
134.483	14.889	1250.905	945.792
135.497	14.843	1250.159	944.886
136.512	14.991	1248.335	944.261
137.527	15.009	1247.026	943.287
138.541	14.940	1246.132	942.142
139.556	14.908	1244.749	940.832
140.570	14.974	1244.036	940.579
141.585	14.993	1242.906	939.750
142.600	15.129	1241.055	939.026
143.614	15.122	1240.799	938.714
144.629	15.166	1239.944	938.231
145.643	15.163	1238.120	936.751
146.658	15.186	1237.106	936.025
147.673	14.960	1235.607	933.547
148.687	14.866	1234.721	932.273
149.702	14.915	1233.180	931.303
150.716	14.980	1232.001	930.691
151.731	14.993	1230.381	929.453
152.746	14.901	1229.674	928.325
153.760	14.919	1228.692	927.605
154.775	15.132	1227.421	927.744
155.789	15.092	1226.693	926.889
156.804	15.169	1225.408	926.260
157.819	15.190	1224.379	925.519
158.833	15.237	1223.752	925.224
159.848	15.218	1223.294	924.691
160.862	15.231	1222.186	923.844
161.877	15.143	1220.808	922.234
162.892	15.103	1219.369	920.845
163.906	15.028	1218.663	919.815
164.921	15.093	1217.454	919.179
165.935	15.050	1217.341	918.777
166.950	15.195	1216.749	919.043
167.964	15.124	1215.912	917.944
168.979	15.070	1215.315	917.112
169.994	15.119	1214.582	916.748
171.008	15.256	1213.402	916.525
172.023	15.215	1212.744	915.726
173.037	15.320	1211.989	915.645
174.052	15.227	1211.383	914.597
175.067	15.190	1210.175	913.404
176.081	15.075	1209.176	911.942
177.096	15.155	1208.039	911.441
178.110	15.104	1207.021	910.317
179.125	15.214	1205.694	909.830
180.140	15.108	1204.803	908.505
181.154	15.285	1203.340	908.278
182.169	15.213	1202.505	907.176
183.183	15.361	1201.258	906.958
184.198	15.374	1200.148	906.109
185.213	15.395	1198.722	905.066
186.227	15.417	1197.836	904.436
187.242	15.442	1196.905	903.788
188.256	15.610	1195.739	903.732
189.271	15.443	1194.972	902.171
190.286	15.285	1193.731	900.310
191.300	15.215	1193.101	899.378
192.315	15.171	1191.855	898.125
193.329	15.234	1191.478	898.099
194.344	15.236	1190.815	897.527
195.359	15.356	1190.377	897.758
196.373	15.328	1190.222	897.416
197.388	15.332	1190.079	897.249
198.402	15.603	1189.364	898.078
199.417	15.559	1188.796	897.335
200.432	15.624	1187.571	896.681
201.446	15.789	1186.282	896.507
202.461	15.744	1185.740	895.775
203.475	15.826	1184.728	895.370
204.490	15.710	1183.455	893.710
205.504	15.666	1182.292	892.520
206.519	15.619	1180.960	891.189
207.534	15.590	1179.816	890.089
208.548	15.639	1178.975	889.635
209.563	15.639	1178.458	889.166
210.577	15.678	1177.463	888.547
211.592	15.617	1176.846	887.679
212.607	15.845	1176.120	888.256
213.621	15.785	1174.783	886.854
214.636	15.685	1174.436	885.982
215.650	15.833	1173.358	885.869
216.665	15.833	1172.464	885.121
217.680	15.812	1171.646	884.314
218.694	15.863	1170.696	883.783
219.709	15.830	1170.544	883.420
220.723	15.938	1169.425	883.060
221.738	15.927	1168.852	882.492
222.753	15.862	1167.826	881.301
223.767	16.081	1167.108	881.828
224.782	15.958	1166.549	880.683
225.796	16.067	1165.832	880.633
226.811	15.949	1165.342	879.570
227.826	15.913	1165.086	879.109
228.840	16.059	1163.496	878.596
229.855	16.011	1162.869	877.793
230.869	15.938	1162.175	876.811
231.884	15.939	1161.270	876.055
232.899	15.890	1160.639	875.246
233.913	15.847	1160.153	874.581
234.928	15.779	1159.301	873.505
235.942	15.830	1158.810	873.325
236.957	15.840	1157.607	872.393
237.972	15.853	1156.930	871.874
238.986	15.821	1156.612	871.391
240.001	15.829	1155.952	870.855
241.015	15.975	1154.698	870.590
242.030	15.880	1154.422	869.815
243.045	15.898	1153.770	869.339
244.059	15.992	1152.458	868.756
245.074	16.056	1151.684	868.425
246.088	16.208	1150.537	868.269
247.103	16.306	1149.960	868.259
248.117	16.171	1149.340	867.022
249.132	16.405	1149.125	867.984
250.147	16.387	1148.290	867.183
251.161	16.477	1147.818	867.212
252.176	16.338	1147.096	865.875
253.190	16.556	1146.283	866.306
254.205	16.599	1145.705	866.010
255.220	16.543	1145.118	865.204
256.234	16.512	1144.431	864.450
257.249	16.557	1143.683	864.040
258.263	16.678	1142.607	863.765
259.278	16.704	1142.094	863.434
260.293	16.609	1141.878	862.709
261.307	16.629	1141.634	862.549
262.322	16.667	1140.456	861.779
263.336	16.727	1139.708	861.443
264.351	16.675	1139.540	860.975
265.366	16.829	1138.838	861.154
266.380	16.711	1138.013	859.850
267.395	16.723	1137.042	859.105
268.409	16.689	1136.288	858.285
269.424	16.787	1135.435	858.063
270.439	16.813	1135.077	857.845
271.453	16.702	1134.748	856.960
272.468	16.598	1133.639	855.521
273.482	16.623	1132.772	854.918
274.497	16.560	1132.144	854.050
275.512	16.575	1131.964	853.912
276.526	16.707	1130.932	853.725
277.541	16.619	1130.367	852.779
278.555	16.770	1129.432	852.759
279.570	16.880	1128.706	852.690
280.585	16.869	1128.107	852.104
281.599	16.874	1127.041	851.250
282.614	16.853	1126.129	850.381
283.628	16.802	1124.882	849.106
284.643	16.826	1123.794	848.330
285.657	16.845	1122.990	847.743
286.672	16.820	1122.119	846.887
287.687	16.793	1121.510	846.217
288.701	16.914	1120.755	846.175
289.716	16.954	1119.852	845.622
290.730	16.965	1119.100	845.032
291.745	16.953	1118.543	844.478
292.760	16.925	1117.798	843.702
293.774	16.934	1117.485	843.435
294.789	17.019	1117.053	843.456
295.803	17.203	1115.867	843.402
296.818	16.921	1115.528	841.670
297.833	17.000	1114.139	840.941
298.847	16.986	1113.857	840.579
299.862	17.039	1112.865	840.022
300.876	17.030	1112.559	839.671
301.891	17.149	1111.706	839.542
302.906	17.125	1111.261	839.014
303.920	17.216	1110.404	838.742
304.935	17.367	1109.419	838.670
305.949	17.310	1109.074	838.053
306.964	17.316	1108.296	837.419
307.979	17.346	1107.785	837.104
308.993	17.287	1106.999	836.148
310.008	17.354	1106.221	835.817
311.022	17.317	1106.016	835.407
312.037	17.277	1104.752	834.177
313.052	17.330	1103.666	833.544
314.066	17.253	1102.735	832.391
315.081	17.147	1102.113	831.331
316.095	17.183	1101.210	830.753
317.110	17.163	1100.300	829.891
318.125	17.320	1099.456	829.952
319.139	17.265	1099.409	829.570
320.154	17.170	1098.473	828.331
321.168	17.127	1098.343	827.947
322.183	17.217	1097.740	827.859
323.197	17.314	1096.928	827.645
324.212	17.206	1096.380	826.634
325.227	17.260	1096.027	826.556
326.241	17.263	1094.790	825.565
327.256	17.389	1094.045	825.545
328.270	17.185	1093.101	823.769
329.285	17.258	1092.371	823.499
330.300	17.297	1091.414	822.894
331.314	17.250	1090.504	821.905
332.329	17.234	1089.681	821.138
333.343	17.324	1088.999	820.984
334.358	17.332	1088.389	820.491
335.373	17.438	1087.360	820.153
336.387	17.571	1086.572	820.125
337.402	17.544	1085.875	819.399
338.416	17.545	1084.989	818.662
339.431	17.619	1084.605	818.656
340.446	17.633	1084.213	818.355
341.460	17.693	1083.611	818.113
342.475	17.808	1082.602	817.832
343.489	17.689	1081.901	816.663
344.504	17.892	1080.431	816.452
345.519	17.816	1079.814	815.546
346.533	17.857	1079.050	815.096
347.548	17.835	1078.497	814.498
348.562	17.960	1077.793	814.494
349.577	17.868	1076.675	813.137
350.592	17.737	1076.324	812.175
351.606	17.697	1075.387	811.207
352.621	17.746	1074.431	810.645
353.635	17.559	1073.995	809.359
354.650	17.639	1073.141	809.023
355.665	17.853	1072.618	809.572
356.679	17.878	1071.840	809.030
357.694	17.864	1071.482	808.625
358.708	17.851	1071.065	808.175
359.723	17.951	1069.959	807.743
360.738	17.884	1069.616	807.096
361.752	17.971	1068.868	806.871
362.767	17.901	1068.518	806.204
363.781	17.931	1067.889	805.798
364.796	17.989	1067.647	805.818
365.810	18.042	1067.056	805.553
366.825	18.127	1066.322	805.325
367.840	18.220	1065.866	805.349
368.854	18.253	1065.528	805.176
369.869	18.213	1064.502	804.142
370.883	18.158	1063.641	803.163
371.898	18.058	1062.590	801.829
372.913	18.174	1062.642	802.341
373.927	18.102	1062.138	801.551
374.942	18.318	1061.347	801.895
375.956	18.276	1061.098	801.443
376.971	18.058	1060.814	800.135
377.986	18.338	1059.662	800.504
379.000	18.333	1059.069	799.964
380.015	18.448	1058.540	800.028
381.029	18.420	1057.880	799.327
382.044	18.354	1057.406	798.590
383.059	18.471	1056.490	798.375
384.073	18.417	1055.984	797.669
385.088	18.510	1054.989	797.279
386.102	18.590	1053.825	796.704
387.117	18.405	1052.967	795.123
388.132	18.299	1051.913	793.766
389.146	18.312	1051.234	793.243
390.161	18.269	1050.514	792.434
391.175	18.402	1049.533	792.238
392.190	18.420	1049.122	791.939
393.205	18.518	1048.351	791.741
394.219	18.473	1047.802	791.048
395.234	18.508	1046.543	790.189
396.248	18.483	1045.495	789.214
397.263	18.458	1044.385	788.189
398.278	18.414	1044.025	787.647
399.292	18.278	1043.447	786.513
400.307	18.257	1042.600	785.711
401.321	18.296	1042.229	785.542
402.336	18.365	1041.767	785.439
403.350	18.330	1040.569	784.307
404.365	18.424	1040.066	784.288
405.380	18.366	1039.516	783.540
406.394	18.355	1038.828	782.899
407.409	18.601	1037.804	783.185
408.423	18.634	1037.186	782.800
409.438	18.805	1036.606	783.072
410.453	18.733	1035.986	782.203
411.467	18.764	1035.354	781.801
412.482	18.904	1034.709	781.880
413.496	18.871	1034.125	781.219
414.511	18.833	1033.399	780.430
415.526	18.898	1033.424	780.675
416.540	18.974	1032.623	780.344
417.555	19.055	1031.505	779.798
418.569	18.944	1031.456	779.188
419.584	18.882	1030.975	778.475
420.599	18.912	1030.530	778.208
421.613	150.895	1401.147	1795.317
422.628	137.675	1455.130	1795.425
