DTS Sentinel unit serial number:	SN413079Multiplexer serial number:	ORYXHardware model number:	OX4-SRSoftware version number:	ORYX F/W v4.00 Oryx Data Collector v3.7.2.0data status	okinstallation	princeton_trtdifferential loss correction	single-endedforward channel	channel 2reverse channel	N/Adate	2019/09/18time	01:51:35forward acquisition time	60.00reverse acquisition time	0.00gamma	496.2192k internal	0.2350k external	0.2350temperature offset calibration	0.9983default loss term (dB/km)	0.3790temperature slope calibration	1.0000multiplexer offset coefficient	1.0000multiplexer slope coefficient	1.0000fibre end	0.00T internal ref (°C)	22.97T ext. ref 1 (°C)	0.16T ext. ref 2 (°C)	16.64length (m)	temperature (°C)	Stokes	anti-Stokes-747.200	404.403	0.130	0.273
-746.185	27.689	0.054	0.045
-745.171	-53.759	0.272	0.124
-744.156	-47.427	-0.101	-0.049
-743.142	35.448	0.088	-0.077
-742.127	800.000	-0.055	0.233
-741.112	-139.402	0.349	-0.037
-740.098	-51.732	-0.389	-0.181
-739.083	-38.000	0.501	0.265
-738.069	-114.284	-0.118	0.023
-737.054	800.000	0.078	-0.238
-736.039	26.162	-0.209	-0.174
-735.025	800.000	0.102	0.342
-734.010	800.000	-0.090	0.316
-732.996	-20.687	0.159	-0.098
-731.981	686.483	-0.044	0.116
-730.966	-200.000	-0.006	-0.259
-729.952	800.000	0.135	-0.425
-728.937	93.120	0.081	-0.091
-727.923	-105.707	-0.136	-0.031
-726.908	-123.808	-0.118	0.019
-725.894	93.985	-0.190	0.215
-724.879	84.225	0.100	-0.109
-723.864	218.804	-0.211	0.336
-722.850	27.418	-0.090	-0.075
-721.835	-81.138	-0.200	-0.066
-720.821	800.000	0.041	-0.129
-719.806	95.776	-0.131	-0.150
-718.791	-159.868	-0.162	0.009
-717.777	-200.000	-0.030	0.161
-716.762	755.494	0.056	0.151
-715.748	-83.411	0.237	-0.076
-714.733	115.892	0.111	0.135
-713.718	290.357	-0.166	0.301
-712.704	-200.000	0.079	0.385
-711.689	-101.632	-0.200	0.048
-710.675	-24.742	-0.045	-0.027
-709.660	385.367	0.170	0.349
-708.645	-9.089	-0.235	0.157
-707.631	-200.000	0.039	-0.253
-706.616	-159.912	-0.220	0.012
-705.602	27.359	-0.142	0.119
-704.587	112.798	-0.219	-0.264
-703.572	288.169	0.108	0.195
-702.558	-149.074	0.063	-0.005
-701.543	-91.615	0.305	-0.087
-700.529	45.333	0.196	0.180
-699.514	-180.147	0.179	-0.004
-698.499	142.866	-0.278	-0.369
-697.485	68.312	0.022	0.022
-696.470	-200.000	0.026	-0.230
-695.456	261.625	-0.191	-0.330
-694.441	716.158	0.048	0.128
-693.426	79.265	-0.277	0.296
-692.412	-200.000	-0.089	0.392
-691.397	-9.686	0.269	0.179
-690.383	-92.674	-0.345	0.096
-689.368	-30.006	0.232	-0.132
-688.354	-115.248	-0.179	-0.034
-687.339	-200.000	-0.055	-0.376
-686.324	-173.484	-0.143	-0.004
-685.310	-70.673	-0.319	-0.120
-684.295	800.000	-0.058	-0.190
-683.281	180.388	-0.157	-0.229
-682.266	5.030	0.246	-0.180
-681.251	-72.455	0.162	0.060
-680.237	178.270	-0.138	-0.201
-679.222	86.693	0.054	-0.059
-678.208	43.379	0.218	-0.198
-677.193	29.990	-0.136	-0.115
-676.178	800.000	0.087	-0.315
-675.164	182.995	-0.061	-0.089
-674.149	1.807	0.198	0.142
-673.135	-14.197	0.323	-0.207
-672.120	-8.014	-0.049	-0.033
-671.105	-200.000	0.011	-0.219
-670.091	-116.842	0.098	0.018
-669.076	6.639	0.235	0.174
-668.062	-109.695	0.176	0.037
-667.047	-29.546	0.177	0.101
-666.032	-7.580	0.247	-0.166
-665.018	-200.000	-0.023	0.214
-664.003	75.926	-0.032	-0.034
-662.989	9.164	-0.099	0.075
-661.974	-200.000	0.000	-0.123
-660.959	-200.000	0.030	0.291
-659.945	-200.000	-0.039	0.270
-658.930	-43.747	0.294	-0.148
-657.916	-20.520	0.231	0.141
-656.901	189.306	0.086	0.127
-655.886	395.820	-0.149	-0.308
-654.872	-71.087	-0.154	0.057
-653.857	-124.305	-0.157	-0.024
-652.843	-26.290	0.553	-0.323
-651.828	300.115	0.152	-0.278
-650.814	-66.138	-0.305	-0.121
-649.799	700.816	-0.092	0.241
-648.784	-200.000	0.055	0.398
-647.770	346.177	-0.096	0.188
-646.755	-200.000	0.001	0.296
-645.741	-70.789	-0.176	0.066
-644.726	114.717	0.130	-0.157
-643.711	-200.000	0.007	-0.168
-642.697	154.388	-0.164	0.224
-641.682	-94.429	0.250	0.068
-640.668	-155.736	-0.398	0.025
-639.653	-114.825	-0.477	0.090
-638.638	274.201	-0.117	0.207
-637.624	56.142	-0.286	0.276
-636.609	17.508	0.134	-0.106
-635.595	-200.000	0.002	0.111
-634.580	-82.561	-0.060	-0.019
-633.565	-19.407	0.266	0.164
-632.551	-200.000	0.047	-0.328
-631.536	-114.673	0.192	0.036
-630.522	80.599	0.085	-0.091
-629.507	-200.000	0.039	-0.233
-628.492	140.781	0.196	0.257
-627.478	246.279	0.023	-0.038
-626.463	634.331	-0.093	-0.234
-625.449	-101.719	-0.187	0.045
-624.434	-166.981	-0.446	-0.018
-623.419	-200.000	0.030	0.164
-622.405	800.000	-0.040	-0.148
-621.390	46.637	-0.070	-0.065
-620.376	20.392	-0.096	0.077
-619.361	36.065	-0.128	0.112
-618.346	-123.048	-0.331	0.053
-617.332	94.071	-0.224	0.253
-616.317	800.000	-0.024	0.065
-615.303	92.925	-0.169	-0.190
-614.288	-57.323	0.131	-0.057
-613.273	-26.594	-0.102	-0.059
-612.259	275.254	0.096	-0.169
-611.244	-119.343	0.274	-0.047
-610.230	-106.962	0.506	-0.111
-609.215	800.000	-0.028	-0.118
-608.201	-152.892	-0.140	-0.010
-607.186	-200.000	-0.031	-0.339
-606.171	465.012	-0.089	0.197
-605.157	800.000	-0.090	0.249
-604.142	41.492	-0.041	-0.037
-603.128	-81.880	-0.212	0.069
-602.113	-200.000	-0.017	-0.092
-601.098	118.082	-0.197	-0.241
-600.084	5.308	0.386	0.282
-599.069	-200.000	0.028	-0.165
-598.055	-74.616	0.207	0.074
-597.040	-24.724	0.108	0.064
-596.025	-48.121	-0.360	-0.173
-595.011	-200.000	0.047	-0.265
-593.996	583.827	-0.104	0.254
-592.982	43.784	0.065	-0.059
-591.967	-10.218	0.195	-0.129
-590.952	50.476	-0.139	-0.131
-589.938	167.888	-0.230	-0.325
-588.923	411.076	-0.082	-0.173
-587.909	-166.696	0.075	0.003
-586.894	251.482	0.093	-0.156
-585.879	800.000	0.052	-0.150
-584.865	800.000	0.077	-0.238
-583.850	145.863	0.052	-0.069
-582.836	-120.339	-0.236	-0.040
-581.821	283.071	-0.047	0.084
-580.806	-200.000	-0.005	0.100
-579.792	-159.625	-0.193	0.011
-578.777	-97.470	-0.127	0.033
-577.763	-200.000	-0.036	-0.453
-576.748	-64.783	0.139	-0.056
-575.733	-200.000	0.008	-0.164
-574.719	5.645	-0.108	0.079
-573.704	-64.606	-0.165	0.066
-572.690	800.000	-0.025	-0.093
-571.675	484.701	-0.153	-0.345
-570.661	-123.328	0.079	0.012
-569.646	-95.609	0.351	0.093
-568.631	-97.620	0.184	0.047
-567.617	800.000	0.059	0.234
-566.602	-158.671	0.380	0.022
-565.588	-200.000	-0.294	-0.000
-564.573	-200.000	0.014	-0.093
-563.558	36.263	-0.084	0.074
-562.544	-96.293	-0.200	0.052
-561.529	22.634	-0.158	-0.128
-560.515	160.729	0.164	-0.227
-559.500	193.388	-0.102	0.152
-558.485	309.047	0.076	0.140
-557.471	-2.036	0.136	0.095
-556.456	-200.000	-0.009	-0.200
-555.442	800.000	0.070	-0.197
-554.427	82.515	0.120	0.130
-553.412	137.441	0.112	0.146
-552.398	-200.000	-0.050	-0.347
-551.383	566.949	-0.123	-0.296
-550.369	273.944	0.032	-0.056
-549.354	800.000	-0.103	0.346
-548.339	63.355	0.213	-0.211
-547.325	-53.436	-0.385	-0.175
-546.310	-78.824	-0.049	-0.016
-545.296	-78.826	0.240	0.081
-544.281	800.000	0.007	-0.022
-543.266	-124.350	-0.261	-0.040
-542.252	-31.594	0.244	-0.136
-541.237	-178.111	-0.230	-0.005
-540.223	25.208	-0.198	0.163
-539.208	358.695	0.083	-0.163
-538.193	-105.574	-0.137	-0.031
-537.179	-86.543	-0.337	-0.102
-536.164	800.000	-0.085	0.320
-535.150	-81.665	0.147	-0.048
-534.135	67.777	0.107	-0.108
-533.121	30.446	-0.148	0.126
-532.106	-42.187	0.227	-0.115
-531.091	42.253	-0.135	-0.121
-530.077	27.515	0.143	-0.119
-529.062	-90.780	0.053	0.015
-528.048	-64.050	0.226	0.091
-527.033	187.750	-0.015	-0.023
-526.018	186.574	-0.214	-0.315
-525.004	227.305	-0.084	0.134
-523.989	-80.493	-0.116	-0.038
-522.975	115.373	-0.081	-0.098
-521.960	-77.803	0.303	-0.104
-520.945	-72.187	0.271	0.100
-519.931	-100.929	-0.614	0.149
-518.916	-200.000	0.017	0.176
-517.902	-200.000	0.011	-0.144
-516.887	15.949	-0.151	-0.118
-515.872	-145.754	-0.309	0.027
-514.858	-200.000	-0.087	-0.527
-513.843	191.978	0.214	-0.319
-512.829	-116.053	-0.094	0.017
-511.814	188.468	0.163	0.241
-510.799	-52.028	-0.119	-0.055
-509.785	-78.644	-0.327	-0.111
-508.770	-200.000	0.044	-0.413
-507.756	154.898	-0.112	-0.153
-506.741	37.098	0.215	-0.188
-505.726	480.331	0.041	0.091
-504.712	-200.000	0.001	-0.085
-503.697	156.715	0.153	-0.210
-502.683	264.431	0.070	0.121
-501.668	525.422	0.163	0.378
-500.653	-200.000	-0.035	0.210
-499.639	-71.581	0.116	0.043
-498.624	-99.623	-0.274	-0.068
-497.610	-104.300	0.105	0.024
-496.595	21.415	0.110	0.088
-495.581	-15.788	-0.219	-0.138
-494.566	-200.000	-0.034	0.266
-493.551	55.608	0.197	-0.188
-492.537	68.228	-0.189	-0.191
-491.522	-200.000	-0.019	-0.207
-490.508	-33.199	-0.378	-0.207
-489.493	-85.369	0.084	0.026
-488.478	800.000	0.079	0.314
-487.464	-27.777	-0.074	-0.043
-486.449	362.624	0.045	-0.090
-485.435	-6.457	0.080	0.054
-484.420	-104.474	0.340	-0.078
-483.405	18.322	-0.167	0.132
-482.391	-200.000	0.020	0.159
-481.376	104.386	0.151	0.175
-480.362	-170.194	-0.266	0.009
-479.347	-97.244	-0.048	0.012
-478.332	131.711	-0.160	0.203
-477.318	-32.086	-0.370	-0.204
-476.303	-32.864	0.279	-0.153
-475.289	-19.421	-0.166	0.102
-474.274	720.857	-0.176	-0.463
-473.259	584.643	-0.156	-0.378
-472.245	-71.718	-0.117	0.043
-471.230	169.666	-0.239	-0.338
-470.216	800.000	-0.056	-0.181
-469.201	8.616	0.116	-0.087
-468.186	-172.127	-0.183	-0.006
-467.172	-200.000	-0.045	-0.236
-466.157	-49.973	0.298	0.140
-465.143	-200.000	0.019	0.227
-464.128	17.626	0.462	-0.363
-463.113	222.999	-0.140	-0.223
-462.099	174.472	-0.089	0.128
-461.084	472.091	0.177	0.394
-460.070	296.672	-0.144	0.260
-459.055	-200.000	-0.043	0.226
-458.040	-37.341	0.134	0.071
-457.026	110.141	-0.099	-0.118
-456.011	11.928	0.317	0.241
-454.997	-27.442	-0.082	-0.047
-453.982	105.316	-0.131	-0.153
-452.968	-200.000	0.008	-0.044
-451.953	268.711	0.081	-0.140
-450.938	-79.621	0.295	-0.098
-449.924	-200.000	0.028	-0.129
-448.909	-53.317	0.222	0.101
-447.895	-19.488	0.066	0.041
-446.880	332.021	-0.111	0.212
-445.865	35.200	0.179	-0.155
-444.851	-200.000	0.038	0.275
-443.836	114.382	-0.116	-0.140
-442.822	112.591	0.091	-0.109
-441.807	-133.298	0.310	-0.039
-440.792	179.089	0.028	0.041
-439.778	-200.000	-0.008	-0.081
-438.763	-86.808	0.258	-0.078
-437.749	-179.718	-0.329	-0.007
-436.734	274.513	-0.013	-0.023
-435.719	-30.066	-0.092	-0.052
-434.705	485.568	0.031	0.071
-433.690	-200.000	-0.031	0.190
-432.676	-135.045	0.140	-0.017
-431.661	69.402	-0.107	-0.109
-430.646	-71.042	-0.260	0.097
-429.632	141.025	-0.055	-0.072
-428.617	-200.000	-0.005	-0.064
-427.603	25.222	0.183	-0.150
-426.588	800.000	-0.045	-0.157
-425.573	-56.703	-0.257	-0.112
-424.559	-62.903	0.028	0.011
-423.544	800.000	-0.071	-0.222
-422.530	-174.074	-0.128	0.004
-421.515	183.522	0.170	-0.248
-420.500	-200.000	-0.076	-0.341
-419.486	280.217	0.101	0.178
-418.471	-117.874	0.240	0.042
-417.457	113.579	0.085	0.102
-416.442	-101.103	-0.160	0.039
-415.428	-162.856	-0.444	0.021
-414.413	-200.000	-0.016	0.138
-413.398	138.848	0.170	0.221
-412.384	110.330	-0.223	-0.264
-411.369	-200.000	0.013	-0.183
-410.355	22.840	0.060	-0.048
-409.340	509.341	0.094	0.215
-408.325	-200.000	-0.048	-0.239
-407.311	-98.132	-0.161	-0.041
-406.296	-200.000	0.081	0.393
-405.282	-37.133	0.224	0.118
-404.267	2.398	-0.138	-0.099
-403.252	88.184	0.348	-0.380
-402.238	-28.077	-0.148	-0.084
-401.223	-9.618	-0.217	-0.143
-400.209	446.602	0.092	-0.198
-399.194	-2.023	-0.029	0.020
-398.179	-200.000	0.022	0.000
-397.165	-200.000	0.049	0.220
-396.150	800.000	0.098	0.266
-395.136	-48.216	-0.156	0.074
-394.121	723.330	0.097	0.253
-393.106	-40.081	-0.027	0.014
-392.092	48.245	-0.058	0.054
-391.077	800.000	-0.122	-0.509
-390.063	382.507	0.138	-0.280
-389.048	-200.000	-0.015	-0.095
-388.033	165.859	-0.115	0.161
-387.019	102.890	-0.143	-0.165
-386.004	146.750	0.136	-0.180
-384.990	-200.000	0.010	0.305
-383.975	111.286	-0.115	-0.136
-382.960	800.000	-0.080	-0.274
-381.946	-65.309	0.271	0.107
-380.931	355.261	0.041	0.080
-379.917	-182.102	0.304	-0.006
-378.902	-127.995	-0.065	0.009
-377.888	-102.478	-0.159	0.037
-376.873	-104.999	0.009	0.002
-375.858	800.000	0.051	0.221
-374.844	310.758	0.239	0.441
-373.829	71.014	0.148	0.151
-372.815	15.168	0.033	0.025
-371.800	-115.526	-0.534	0.099
-370.785	-154.380	-0.488	0.032
-369.771	-138.016	0.382	-0.042
-368.756	800.000	0.070	0.273
-367.742	-101.790	0.133	0.032
-366.727	-108.846	0.405	-0.085
-365.712	-23.967	-0.144	0.085
-364.698	471.593	0.056	0.124
-363.683	-109.805	-0.157	0.032
-362.669	-195.654	-0.055	0.000
-361.654	408.097	0.090	0.186
-360.639	-124.646	0.132	0.020
-359.625	76.319	-0.108	-0.112
-358.610	30.671	-0.132	-0.111
-357.596	124.526	0.169	-0.209
-356.581	-40.863	0.093	-0.047
-355.566	-112.000	0.365	0.072
-354.552	545.862	-0.105	0.247
-353.537	-161.705	0.278	0.014
-352.523	800.000	0.065	-0.233
-351.508	-169.461	0.396	-0.014
-350.493	800.000	-0.069	-0.241
-349.479	131.611	-0.097	0.122
-348.464	317.224	0.126	-0.234
-347.450	-56.904	-0.218	0.095
-346.435	89.036	-0.064	-0.070
-345.420	800.000	0.086	-0.286
-344.406	49.760	0.180	-0.166
-343.391	-42.652	-0.095	-0.048
-342.377	800.000	0.061	-0.217
-341.362	-146.135	0.161	0.014
-340.348	-71.121	-0.085	0.031
-339.333	21.933	-0.126	-0.101
-338.318	-200.000	0.013	0.165
-337.304	347.600	-0.029	0.056
-336.289	-153.651	0.167	-0.011
-335.275	-106.806	-0.551	-0.120
-334.260	-32.789	-0.197	0.108
-333.245	435.924	0.104	0.221
-332.231	-115.209	-0.237	0.044
-331.216	-200.000	0.040	0.191
-330.202	367.356	0.134	-0.266
-329.187	-163.663	0.061	-0.003
-328.172	665.948	-0.131	0.332
-327.158	173.017	-0.185	0.262
-326.143	220.990	-0.004	0.006
-325.129	-96.312	0.271	-0.070
-324.114	-162.398	0.264	0.013
-323.099	800.000	-0.150	0.412
-322.085	207.896	-0.102	-0.156
-321.070	-200.000	0.018	-0.113
-320.056	-84.768	0.266	0.082
-319.041	-71.806	-0.244	0.089
-318.026	63.988	0.226	-0.223
-317.012	-93.371	0.259	0.071
-315.997	530.907	-0.087	0.203
-314.983	-5.420	0.136	0.091
-313.968	264.300	-0.077	0.132
-312.953	-30.080	-0.165	-0.092
-311.939	800.000	0.059	-0.192
-310.924	21.216	0.018	-0.014
-309.910	100.354	0.236	0.268
-308.895	800.000	0.028	-0.096
-307.880	-85.191	-0.231	-0.071
-306.866	-79.451	0.212	0.070
-305.851	800.000	-0.049	-0.205
-304.837	-121.732	0.374	0.061
-303.822	-162.166	-0.113	-0.006
-302.807	65.127	0.166	0.165
-301.793	-200.000	0.008	-0.375
-300.778	178.769	-0.241	-0.345
-299.764	-132.967	0.181	0.023
-298.749	208.340	-0.137	-0.211
-297.735	-60.779	0.283	0.118
-296.720	129.175	0.174	0.218
-295.705	800.000	-0.072	-0.297
-294.691	-200.000	0.059	0.255
-293.676	208.198	0.114	-0.175
-292.662	-200.000	0.038	0.227
-291.647	7.247	-0.197	-0.144
-290.632	-144.644	-0.090	-0.008
-289.618	-200.000	-0.054	-0.249
-288.603	475.926	0.163	0.360
-287.589	-129.546	-0.076	0.010
-286.574	800.000	0.003	-0.008
-285.559	445.573	-0.061	-0.131
-284.545	-158.253	0.417	0.024
-283.530	34.311	0.014	-0.012
-282.516	81.666	0.245	-0.260
-281.501	-47.298	0.247	0.118
-280.486	130.275	-0.385	0.483
-279.472	-150.299	-0.287	0.022
-278.457	100.318	-0.188	0.214
-277.443	281.617	0.040	0.070
-276.428	-50.700	0.074	-0.034
-275.413	800.000	-0.070	-0.197
-274.399	510.748	-0.016	-0.037
-273.384	64.357	0.150	0.148
-272.370	96.717	-0.086	-0.097
-271.355	-97.351	-0.190	0.049
-270.340	-27.852	0.132	0.075
-269.326	-57.366	0.256	-0.110
-268.311	-200.000	0.024	0.111
-267.297	-79.650	-0.196	-0.065
-266.282	92.327	0.367	0.405
-265.267	-47.990	0.185	0.088
-264.253	-0.461	-0.067	-0.047
-263.238	-80.414	0.297	0.097
-262.224	221.205	0.051	-0.080
-261.209	-160.096	0.169	0.009
-260.195	385.134	-0.181	0.366
-259.180	509.783	-0.042	0.095
-258.165	789.223	-0.046	-0.123
-257.151	-47.754	0.182	-0.087
-256.136	-200.000	0.057	-0.248
-255.122	164.566	-0.230	0.318
-254.107	-200.000	0.027	-0.181
-253.092	-122.065	0.154	0.025
-252.078	-120.088	-0.265	-0.044
-251.063	-144.886	-0.117	0.010
-250.049	-200.000	0.029	0.131
-249.034	369.484	0.114	0.225
-248.019	-171.378	0.313	-0.010
-247.005	97.469	0.084	-0.095
-245.990	-159.511	0.384	0.021
-244.976	19.378	-0.263	0.207
-243.961	800.000	0.076	0.220
-242.946	-53.940	0.305	-0.136
-241.932	-63.976	-0.102	0.041
-240.917	135.781	0.115	-0.146
-239.903	94.079	-0.125	-0.139
-238.888	-25.960	0.064	0.037
-237.873	800.000	0.117	-0.369
-236.859	-200.000	-0.034	0.196
-235.844	207.223	-0.081	-0.123
-234.830	69.846	0.114	0.115
-233.815	-170.915	-0.195	-0.007
-232.800	3.004	0.170	0.121
-231.786	90.539	0.148	0.163
-230.771	-29.811	0.130	0.073
-229.757	-4.102	-0.199	-0.135
-228.742	-56.746	-0.185	0.080
-227.727	-200.000	-0.032	0.149
-226.713	-74.955	0.161	0.057
-225.698	-131.346	-0.347	0.045
-224.684	-52.696	0.158	0.071
-223.669	366.919	0.066	-0.130
-222.655	-14.793	-0.082	0.051
-221.640	800.000	0.103	0.328
-220.625	800.000	0.047	-0.141
-219.611	270.422	-0.139	0.238
-218.596	255.529	-0.091	-0.152
-217.582	-62.930	-0.355	0.144
-216.567	-107.414	0.231	0.049
-215.552	121.790	0.175	-0.213
-214.538	-118.583	-0.273	0.047
-213.523	-73.290	-0.251	-0.090
-212.509	64.364	-0.126	0.124
-211.494	-109.141	0.247	-0.051
-210.479	-47.838	0.147	0.070
-209.465	-109.951	-0.370	0.076
-208.450	-63.632	0.094	-0.038
-207.436	129.502	0.147	0.183
-206.421	-102.057	-0.425	0.100
-205.406	125.942	-0.117	0.144
-204.392	-72.632	-0.055	0.020
-203.377	-175.577	0.275	-0.007
-202.363	-200.000	0.009	-0.112
-201.348	-169.400	0.248	0.009
-200.333	-154.141	0.270	0.018
-199.319	-200.000	-0.065	0.000
-198.304	186.792	0.212	0.309
-197.290	800.000	-0.045	0.188
-196.275	-200.000	-0.009	-0.134
-195.260	-200.000	0.011	0.327
-194.246	139.347	-0.282	0.363
-193.231	-55.820	-0.111	0.048
-192.217	208.688	0.221	0.338
-191.202	-103.840	0.190	0.043
-190.187	-200.000	0.021	0.246
-189.173	143.263	-0.156	-0.203
-188.158	-88.848	-0.263	-0.076
-187.144	185.682	0.119	0.172
-186.129	-91.583	-0.122	-0.034
-185.114	-200.000	-0.013	-0.076
-184.100	37.895	-0.083	0.072
-183.085	800.000	-0.165	-0.471
-182.071	-109.047	-0.064	-0.013
-181.056	28.483	0.020	-0.016
-180.042	-130.731	0.154	-0.020
-179.027	-200.000	-0.049	-0.330
-178.012	-200.000	-0.020	0.265
-176.998	800.000	0.065	-0.189
-175.983	-102.443	0.168	-0.039
-174.969	-200.000	-0.091	-0.611
-173.954	27.587	0.259	0.213
-172.939	-85.543	-0.190	0.058
-171.925	289.294	0.161	0.285
-170.910	-71.381	-0.388	0.142
-169.896	800.000	0.079	0.298
-168.881	-200.000	0.041	0.302
-167.866	-200.000	0.004	0.333
-166.852	45.160	0.150	-0.135
-165.837	92.080	0.248	0.273
-164.823	-200.000	-0.018	-0.225
-163.808	800.000	-0.169	0.517
-162.793	-15.527	-0.092	-0.058
-161.779	143.736	-0.085	-0.111
-160.764	290.289	-0.029	0.051
-159.750	-200.000	-0.003	0.095
-158.735	-84.362	0.183	0.056
-157.720	-200.000	0.071	0.355
-156.706	228.348	0.180	0.286
-155.691	-116.199	-0.075	-0.014
-154.677	41.587	-0.054	-0.048
-153.662	213.745	0.177	-0.273
-152.647	-200.000	-0.004	0.195
-151.633	-200.000	0.061	-0.317
-150.618	-149.667	0.118	0.009
-149.604	-200.000	-0.062	0.500
-148.589	-35.144	-0.152	0.081
-147.574	-200.000	-0.020	-0.371
-146.560	-200.000	0.040	0.384
-145.545	-55.295	-0.181	-0.079
-144.531	23.204	0.262	0.210
-143.516	-142.154	0.165	-0.016
-142.502	41.077	-0.157	0.138
-141.487	65.160	0.092	0.091
-140.472	-171.023	0.040	0.001
-139.458	-61.160	-0.260	0.107
-138.443	-136.913	0.176	0.020
-137.429	-86.328	0.182	0.055
-136.414	-73.629	0.087	0.031
-135.399	-21.613	-0.163	-0.097
-134.385	800.000	0.038	0.155
-133.370	-66.387	0.235	0.091
-132.356	40.445	0.220	0.193
-131.341	-142.704	-0.190	0.018
-130.326	-101.222	0.251	0.060
-129.312	-107.356	-0.290	-0.062
-128.297	-7.143	0.257	-0.170
-127.283	-14.132	0.151	0.095
-126.268	-200.000	0.002	-0.048
-125.253	-37.064	0.068	-0.035
-124.239	-125.401	0.258	-0.038
-123.224	-132.209	-0.408	-0.052
-122.210	192.055	0.060	-0.088
-121.195	-138.973	0.186	0.020
-120.180	40.045	-0.037	-0.032
-119.166	-180.134	-0.111	-0.002
-118.151	-159.236	0.249	0.014
-117.137	299.479	-0.155	0.277
-116.122	800.000	0.049	-0.155
-115.107	-200.000	0.012	-0.167
-114.093	402.363	0.105	0.214
-113.078	-200.000	-0.051	-0.266
-112.064	800.000	0.039	0.141
-111.049	-68.172	-0.211	-0.080
-110.034	-66.770	-0.231	-0.089
-109.020	120.015	-0.140	-0.169
-108.005	-200.000	-0.001	0.404
-106.991	800.000	0.043	0.180
-105.976	-8.078	-0.280	0.183
-104.962	-104.975	-0.090	-0.020
-103.947	57.655	-0.148	0.140
-102.932	172.608	0.103	0.145
-101.918	417.575	-0.166	-0.346
-100.903	441.960	-0.079	0.168
-99.889	135.729	0.220	0.279
-98.874	135.443	0.033	0.042
-97.859	-39.087	-0.094	0.048
-96.845	36.347	0.149	0.127
-95.830	-200.000	-0.084	-0.381
-94.816	-24.589	-0.239	0.139
-93.801	-97.838	0.237	-0.060
-92.786	747.396	0.114	-0.298
-91.772	-117.036	-0.070	0.012
-90.757	-109.212	0.079	0.016
-89.743	-124.001	0.165	0.025
-88.728	254.092	0.114	-0.189
-87.713	75.800	0.181	-0.186
-86.699	-44.301	0.371	-0.181
-85.684	-133.597	0.129	0.016
-84.670	71.960	-0.124	0.125
-83.655	469.810	0.050	-0.109
-82.640	179.278	0.102	0.146
-81.626	-140.258	0.090	0.009
-80.611	17.537	-0.112	-0.087
-79.597	-58.744	-0.280	-0.118
-78.582	-63.469	-0.185	-0.074
-77.567	65.758	0.200	0.197
-76.553	-200.000	-0.014	0.096
-75.538	-151.167	-0.281	-0.020
-74.524	1.621	-0.036	0.025
-73.509	-49.215	-0.172	-0.080
-72.494	-200.000	0.042	0.388
-71.480	126.118	-0.154	0.190
-70.465	800.000	0.008	0.022
-69.451	-49.939	-0.216	0.100
-68.436	253.306	0.111	0.184
-67.422	-112.079	0.540	-0.106
-66.407	115.768	-0.066	-0.079
-65.392	93.221	0.092	0.101
-64.378	-5.888	-0.259	0.172
-63.363	57.506	-0.348	-0.330
-62.349	-183.284	0.250	0.004
-61.334	74.288	-1.210	-1.235
-60.319	109.855	0.514	0.599
-59.305	403.545	-0.573	-1.172
-58.290	164.703	0.943	1.293
-57.276	800.000	0.422	1.530
-56.261	-200.000	127.986	674.386
-55.246	416.436	1599.953	3317.689
-54.232	139.569	2762.085	3534.290
-53.217	89.872	2297.573	2493.642
-52.203	32.005	1902.576	1593.369
-51.188	25.947	1698.722	1376.502
-50.173	23.955	1659.788	1330.020
-49.159	45.719	1730.036	1553.647
-48.144	43.035	1741.145	1543.035
-47.130	25.578	1692.125	1368.129
-46.115	23.104	1676.713	1336.940
-45.100	22.841	1671.779	1330.972
-44.086	22.888	1669.168	1329.195
-43.071	22.763	1666.929	1326.417
-42.057	22.791	1664.544	1324.678
-41.042	22.853	1662.272	1323.277
-40.027	22.797	1660.961	1321.763
-39.013	22.850	1658.801	1320.387
-37.998	22.870	1657.449	1319.414
-36.984	22.834	1656.735	1318.524
-35.969	22.958	1654.552	1317.654
-34.954	22.948	1652.963	1316.268
-33.940	22.829	1651.398	1314.082
-32.925	22.922	1649.137	1312.923
-31.911	22.967	1647.812	1312.147
-30.896	23.000	1646.466	1311.271
-29.881	22.934	1645.030	1309.581
-28.867	22.897	1643.306	1307.887
-27.852	22.965	1641.926	1307.236
-26.838	22.949	1640.799	1306.169
-25.823	22.947	1639.555	1305.110
-24.809	23.003	1638.300	1304.478
-23.794	22.928	1636.682	1302.582
-22.779	23.000	1635.137	1301.835
-21.765	23.025	1633.685	1300.808
-20.750	22.996	1632.062	1299.253
-19.736	22.958	1630.857	1297.963
-18.721	23.077	1629.430	1297.646
-17.706	23.052	1627.977	1296.258
-16.692	22.982	1626.456	1294.481
-15.677	22.960	1625.100	1293.187
-14.663	23.076	1623.711	1292.880
-13.648	23.040	1621.931	1291.152
-12.633	22.963	1620.658	1289.524
-11.619	23.020	1618.914	1288.498
-10.604	23.049	1617.769	1287.745
-9.590	23.095	1616.185	1286.769
-8.575	23.001	1615.070	1285.148
-7.560	23.021	1614.070	1284.444
-6.546	23.010	1613.169	1283.600
-5.531	23.043	1611.622	1282.558
-4.517	23.024	1610.790	1281.703
-3.502	23.045	1609.505	1280.787
-2.487	23.079	1607.515	1279.392
-1.473	22.579	1595.405	1266.113
-0.458	19.621	1576.508	1230.040
0.556	14.609	1578.710	1199.730
1.571	12.408	1602.150	1201.360
2.586	12.202	1614.650	1209.109
3.600	11.321	1559.702	1161.583
4.615	6.150	1453.919	1048.299
5.629	1.158	1395.832	974.316
6.644	0.211	1389.360	963.649
7.659	0.163	1388.237	962.480
8.673	0.146	1386.904	961.365
9.688	0.130	1384.416	959.450
10.702	-0.074	1380.893	955.627
11.717	2.483	1384.648	974.432
12.731	9.217	1395.047	1024.724
13.746	15.009	1403.644	1068.017
14.761	16.787	1405.419	1080.623
15.775	16.155	1403.904	1075.332
16.790	15.255	1400.776	1067.116
17.804	14.441	1398.933	1060.443
18.819	14.153	1397.095	1057.124
19.834	13.980	1395.777	1054.935
20.848	13.684	1394.586	1052.062
21.863	13.429	1393.334	1049.412
22.877	13.304	1391.692	1047.286
23.892	13.156	1391.316	1045.974
24.907	13.160	1390.386	1045.209
25.921	13.223	1389.568	1044.903
26.936	13.203	1388.633	1043.980
27.950	13.273	1387.606	1043.559
28.965	13.296	1386.520	1042.791
29.980	13.429	1385.829	1043.017
30.994	13.407	1384.641	1041.892
32.009	13.329	1384.165	1040.954
33.023	13.365	1382.870	1040.116
34.038	13.341	1381.576	1038.899
35.053	13.310	1380.230	1037.598
36.067	13.242	1379.691	1036.677
37.082	13.359	1378.294	1036.264
38.096	13.311	1377.575	1035.333
39.111	13.448	1376.029	1034.935
40.126	13.334	1375.645	1033.846
41.140	13.240	1374.745	1032.487
42.155	13.175	1374.647	1031.920
43.169	13.146	1374.951	1031.871
44.184	13.110	1374.646	1031.331
45.199	13.180	1373.765	1031.011
46.213	13.240	1372.731	1030.522
47.228	13.243	1372.384	1030.186
48.242	13.349	1370.559	1029.385
49.257	13.193	1369.016	1027.165
50.271	13.225	1368.112	1026.593
51.286	13.180	1366.882	1025.302
52.301	13.288	1365.106	1024.548
53.315	13.193	1364.384	1023.328
54.330	13.305	1363.074	1022.949
55.344	13.250	1361.911	1021.647
56.359	13.222	1360.700	1020.470
57.374	13.265	1359.951	1020.084
58.388	13.167	1359.148	1018.788
59.403	13.093	1359.010	1018.142
60.417	13.123	1357.992	1017.468
61.432	13.139	1356.593	1016.433
62.447	13.024	1356.116	1015.278
63.461	13.031	1354.751	1014.205
64.476	13.068	1353.048	1013.068
65.490	13.115	1352.043	1012.516
66.505	13.083	1350.805	1011.307
67.520	13.124	1349.368	1010.392
68.534	13.132	1348.553	1009.739
69.549	13.211	1347.310	1009.201
70.563	13.098	1346.111	1007.522
71.578	13.128	1344.934	1006.735
72.593	12.980	1344.103	1005.123
73.607	12.976	1343.734	1004.736
74.622	12.985	1342.603	1003.857
75.636	13.011	1341.544	1003.133
76.651	13.029	1340.891	1002.665
77.666	13.095	1340.032	1002.334
78.680	13.127	1339.386	1001.956
79.695	13.070	1338.986	1001.225
80.709	13.112	1337.929	1000.599
81.724	13.219	1336.866	1000.361
82.739	13.320	1335.945	1000.198
83.753	13.328	1334.982	999.432
84.768	13.298	1333.839	998.307
85.782	13.341	1332.584	997.543
86.797	13.326	1331.263	996.377
87.812	13.190	1330.695	995.040
88.826	13.116	1329.693	993.761
89.841	13.300	1328.203	993.666
90.855	13.385	1326.429	992.758
91.870	13.294	1326.191	991.947
92.884	13.329	1325.437	991.507
93.899	13.386	1324.321	990.926
94.914	13.300	1323.660	989.826
95.928	13.439	1322.755	989.897
96.943	13.423	1321.379	988.680
97.957	13.363	1320.750	987.762
98.972	13.431	1319.453	987.116
99.987	13.412	1318.810	986.433
101.001	13.346	1317.711	985.129
102.016	13.322	1316.679	984.128
103.030	13.387	1315.616	983.632
104.045	13.319	1315.285	982.891
105.060	13.370	1313.630	981.870
106.074	13.290	1312.471	980.447
107.089	13.180	1311.564	979.030
108.103	13.135	1310.042	977.539
109.118	13.227	1308.691	976.991
110.133	13.150	1307.374	975.465
111.147	13.206	1305.657	974.428
112.162	13.239	1304.353	973.562
113.176	13.260	1303.523	972.980
114.191	13.184	1303.038	972.083
115.206	13.300	1301.649	971.647
116.220	13.402	1299.663	970.673
117.235	13.224	1299.121	969.142
118.249	13.293	1297.754	968.438
119.264	13.338	1296.496	967.680
120.279	13.238	1295.659	966.385
121.293	13.124	1294.985	965.130
122.308	13.195	1293.671	964.479
123.322	13.204	1292.802	963.800
124.337	13.209	1291.707	962.923
125.352	13.194	1290.674	961.984
126.366	13.211	1289.403	961.050
127.381	13.126	1288.400	959.721
128.395	13.214	1287.056	959.149
129.410	13.212	1286.259	958.457
130.424	13.255	1285.392	957.974
131.439	13.223	1284.621	957.130
132.454	13.270	1283.304	956.337
133.468	13.354	1282.031	955.789
134.483	13.221	1281.966	954.887
135.497	13.293	1280.944	954.455
136.512	13.267	1279.370	953.048
137.527	13.229	1278.113	951.808
138.541	13.247	1276.708	950.784
139.556	13.279	1275.188	949.749
140.570	13.295	1274.144	948.979
141.585	13.370	1272.877	948.384
142.600	13.437	1271.471	947.638
143.614	13.432	1270.825	947.041
144.629	13.444	1269.587	946.105
145.643	13.403	1268.506	944.979
146.658	13.423	1267.433	944.213
147.673	13.427	1265.583	942.774
148.687	13.394	1264.998	942.064
149.702	13.338	1263.549	940.588
150.716	13.310	1262.332	939.439
151.731	13.423	1261.038	939.034
152.746	13.345	1260.426	938.050
153.760	13.475	1258.693	937.415
154.775	13.474	1257.638	936.542
155.789	13.483	1256.586	935.722
156.804	13.485	1255.277	934.679
157.819	13.550	1254.357	934.279
158.833	13.629	1253.385	933.918
159.848	13.554	1252.593	932.823
160.862	13.578	1251.586	932.123
161.877	13.625	1249.883	931.034
162.892	13.465	1249.213	929.555
163.906	13.448	1248.570	928.902
164.921	13.553	1247.046	928.271
165.935	13.652	1246.348	928.225
166.950	13.677	1245.997	928.021
167.964	13.652	1245.110	927.141
168.979	13.591	1244.035	925.917
169.994	13.716	1243.475	926.117
171.008	13.572	1243.063	924.923
172.023	13.689	1242.084	924.766
173.037	13.782	1240.608	924.104
174.052	13.668	1240.165	923.056
175.067	13.639	1238.746	921.759
176.081	13.703	1238.337	921.725
177.096	13.629	1237.486	920.603
178.110	13.643	1236.139	919.596
179.125	13.691	1235.054	918.972
180.140	13.677	1234.245	918.214
181.154	13.730	1232.466	917.101
182.169	13.767	1231.495	916.503
183.183	13.811	1230.123	915.644
184.198	13.900	1228.733	915.014
185.213	13.801	1227.740	913.650
186.227	13.916	1226.442	913.235
187.242	13.855	1225.962	912.465
188.256	13.935	1224.687	911.873
189.271	13.891	1223.720	910.833
190.286	13.819	1222.677	909.580
191.300	13.831	1221.837	908.939
192.315	13.704	1221.453	907.880
193.329	13.753	1220.638	907.463
194.344	13.832	1220.014	907.350
195.359	13.817	1219.564	906.852
196.373	13.787	1219.161	906.306
197.388	13.873	1218.173	905.964
198.402	14.017	1217.440	906.124
199.417	14.032	1216.773	905.628
200.432	14.058	1216.273	905.314
201.446	14.011	1215.451	904.368
202.461	14.165	1214.330	904.291
203.475	14.220	1213.087	903.583
204.490	14.149	1211.993	902.305
205.504	14.125	1210.495	900.977
206.519	14.191	1209.377	900.423
207.534	14.032	1208.370	898.735
208.548	14.097	1207.491	898.352
209.563	14.117	1206.648	897.756
210.577	14.060	1206.227	897.057
211.592	14.215	1204.924	896.843
212.607	14.278	1204.138	896.519
213.621	14.175	1203.402	895.332
214.636	14.212	1201.962	894.385
215.650	14.253	1201.251	893.997
216.665	14.210	1200.818	893.364
217.680	14.343	1199.537	893.042
218.694	14.328	1198.723	892.279
219.709	14.347	1197.997	891.759
220.723	14.408	1197.073	891.319
221.738	14.409	1196.577	890.877
222.753	14.316	1195.644	889.610
223.767	14.285	1195.298	889.108
224.782	14.468	1194.426	889.353
225.796	14.471	1194.056	889.018
226.811	14.473	1192.861	888.058
227.826	14.437	1192.235	887.321
228.840	14.493	1191.632	887.094
229.855	14.520	1190.855	886.582
230.869	14.469	1190.003	885.598
231.884	14.435	1189.231	884.764
232.899	14.530	1188.072	884.329
233.913	14.444	1187.423	883.311
234.928	14.421	1186.560	882.470
235.942	14.386	1186.282	881.999
236.957	14.380	1185.770	881.505
237.972	14.384	1185.005	880.883
238.986	14.585	1183.841	880.998
240.001	14.392	1183.283	879.490
241.015	14.537	1182.147	879.331
242.030	14.519	1181.602	878.750
243.045	14.588	1180.494	878.214
244.059	14.516	1180.356	877.656
245.074	14.560	1179.437	877.123
246.088	14.567	1178.719	876.552
247.103	14.728	1177.548	876.447
248.117	14.588	1177.172	875.355
249.132	14.677	1176.407	875.174
250.147	14.796	1175.214	874.833
251.161	14.786	1174.522	874.189
252.176	14.938	1174.134	874.615
253.190	14.798	1173.665	873.461
254.205	14.960	1173.128	873.827
255.220	14.989	1172.238	873.238
256.234	14.854	1171.670	872.031
257.249	15.042	1170.359	871.962
258.263	14.912	1170.308	871.167
259.278	14.948	1169.820	870.917
260.293	14.906	1169.379	870.293
261.307	15.042	1168.443	870.224
262.322	15.089	1167.890	869.981
263.336	15.014	1167.058	868.896
264.351	15.113	1166.447	868.876
265.366	15.130	1165.784	868.395
266.380	15.104	1165.008	867.602
267.395	15.096	1164.087	866.802
268.409	14.998	1164.098	866.224
269.424	15.150	1162.697	865.892
270.439	15.128	1162.753	865.742
271.453	15.195	1161.624	865.169
272.468	15.008	1160.413	863.226
273.482	15.108	1159.894	863.281
274.497	15.130	1159.577	863.082
275.512	15.150	1158.909	862.610
276.526	15.232	1157.831	862.152
277.541	15.054	1157.484	860.906
278.555	15.152	1156.382	860.512
279.570	15.211	1155.481	860.070
280.585	15.318	1154.753	860.001
281.599	15.405	1153.823	859.675
282.614	15.405	1152.395	858.534
283.628	15.283	1151.806	857.400
284.643	15.390	1150.500	856.897
285.657	15.247	1149.970	855.698
286.672	15.395	1148.881	855.566
287.687	15.275	1148.232	854.394
288.701	15.383	1147.258	854.145
289.716	15.271	1146.762	853.128
290.730	15.362	1146.011	852.958
291.745	15.463	1145.235	852.818
292.760	15.368	1145.212	852.241
293.774	15.483	1144.305	852.075
294.789	15.503	1143.541	851.534
295.803	15.549	1142.902	851.212
296.818	15.542	1141.960	850.399
297.833	15.647	1140.989	850.134
298.847	15.550	1140.414	849.138
299.862	15.603	1139.622	848.744
300.876	15.605	1138.923	848.157
301.891	15.569	1138.393	847.506
302.906	15.534	1137.756	846.781
303.920	15.723	1137.032	847.119
304.935	15.645	1136.659	846.372
305.949	15.712	1135.395	845.697
306.964	15.755	1134.791	845.388
307.979	15.680	1134.257	844.536
308.993	15.794	1133.325	844.340
310.008	15.810	1132.503	843.734
311.022	15.772	1132.221	843.258
312.037	15.796	1130.876	842.302
313.052	15.873	1129.685	841.726
314.066	15.760	1128.848	840.462
315.081	15.789	1128.287	840.115
316.095	15.698	1127.584	839.063
317.110	15.796	1127.047	839.078
318.125	15.824	1126.368	838.638
319.139	15.793	1125.139	837.492
320.154	15.776	1124.413	836.796
321.168	15.756	1124.401	836.615
322.183	15.776	1123.790	836.182
323.197	15.886	1123.015	836.078
324.212	15.751	1122.690	835.094
325.227	15.875	1121.413	834.685
326.241	15.807	1121.191	834.109
327.256	15.785	1120.354	833.304
328.270	15.975	1119.033	833.186
329.285	15.871	1118.290	832.045
330.300	15.857	1117.472	831.295
331.314	16.007	1116.462	831.208
332.329	15.886	1115.644	829.930
333.343	15.987	1114.648	829.614
334.358	15.837	1114.170	828.443
335.373	16.100	1112.870	828.697
336.387	16.100	1112.300	828.198
337.402	16.133	1111.701	827.842
338.416	15.998	1111.014	826.598
339.431	16.061	1110.456	826.415
340.446	15.973	1109.911	825.506
341.460	16.239	1108.715	825.849
342.475	16.267	1108.035	825.403
343.489	16.325	1106.974	824.822
344.504	16.318	1106.060	824.034
345.519	16.310	1105.404	823.434
346.533	16.274	1104.682	822.648
347.548	16.391	1103.804	822.493
348.562	16.366	1103.242	821.881
349.577	16.385	1102.417	821.284
350.592	16.302	1101.661	820.243
351.606	16.142	1101.130	819.000
352.621	16.262	1100.503	819.042
353.635	16.251	1099.471	818.148
354.650	16.252	1098.901	817.659
355.665	16.350	1098.013	817.397
356.679	16.398	1097.347	817.061
357.694	16.393	1097.075	816.764
358.708	16.382	1096.608	816.288
359.723	16.387	1096.200	815.939
360.738	16.383	1095.164	815.078
361.752	16.359	1094.752	814.581
362.767	16.354	1093.959	813.898
363.781	16.527	1093.033	813.968
364.796	16.520	1092.726	813.635
365.810	16.476	1092.137	812.913
366.825	16.675	1091.170	813.076
367.840	16.628	1090.870	812.554
368.854	16.700	1090.041	812.210
369.869	16.596	1089.401	811.161
370.883	16.722	1088.546	811.057
371.898	16.672	1087.941	810.297
372.913	16.628	1087.453	809.648
373.927	16.590	1087.174	809.188
374.942	16.653	1086.822	809.155
375.956	16.688	1085.883	808.554
376.971	16.649	1085.367	807.913
377.986	16.776	1084.695	807.946
379.000	16.805	1083.897	807.416
380.015	16.865	1083.606	807.415
381.029	16.907	1082.821	806.958
382.044	16.817	1082.176	805.980
383.059	16.917	1081.581	805.942
384.073	16.891	1080.733	805.115
385.088	16.926	1080.078	804.720
386.102	16.928	1078.959	803.823
387.117	16.916	1077.697	802.757
388.132	16.814	1077.045	801.716
389.146	16.859	1076.119	801.169
390.161	16.882	1075.872	801.025
391.175	16.840	1074.985	800.092
392.190	16.900	1074.076	799.631
393.205	16.983	1073.450	799.482
394.219	17.074	1072.609	799.215
395.234	16.995	1071.874	798.226
396.248	16.953	1070.221	796.728
397.263	16.929	1069.804	796.233
398.278	17.045	1068.861	796.005
399.292	16.919	1068.609	795.156
400.307	16.989	1067.756	794.780
401.321	17.002	1067.215	794.366
402.336	16.993	1066.803	793.946
403.350	17.002	1066.039	793.351
404.365	17.068	1064.768	792.644
405.380	17.120	1064.582	792.677
406.394	17.076	1063.755	791.784
407.409	17.204	1062.618	791.464
408.423	17.179	1062.004	790.823
409.438	17.280	1061.216	790.633
410.453	17.246	1060.723	790.041
411.467	17.224	1060.202	789.479
412.482	17.259	1059.831	789.296
413.496	17.332	1059.007	788.953
414.511	17.425	1057.956	788.527
415.526	17.460	1057.594	788.354
416.540	17.366	1057.442	787.732
417.555	17.376	1056.487	786.999
418.569	17.430	1056.013	786.825
419.584	17.457	1055.350	786.386
420.599	17.500	1055.050	786.291
421.613	107.771	1331.410	1486.947
422.628	99.309	1371.590	1487.020
