DTS Sentinel unit serial number:	SN413079Multiplexer serial number:	ORYXHardware model number:	OX4-SRSoftware version number:	ORYX F/W v4.00 Oryx Data Collector v3.7.2.0data status	okinstallation	princeton_trtdifferential loss correction	single-endedforward channel	channel 2reverse channel	N/Adate	2019/09/18time	07:39:34forward acquisition time	60.00reverse acquisition time	0.00gamma	496.2192k internal	0.2349k external	0.2349temperature offset calibration	0.9982default loss term (dB/km)	0.3790temperature slope calibration	1.0000multiplexer offset coefficient	1.0000multiplexer slope coefficient	1.0000fibre end	0.00T internal ref (°C)	23.25T ext. ref 1 (°C)	0.20T ext. ref 2 (°C)	17.85length (m)	temperature (°C)	Stokes	anti-Stokes-747.200	-71.876	-0.260	-0.097
-746.185	-162.669	-0.160	0.008
-745.171	47.679	-0.228	0.213
-744.156	-200.000	-0.068	0.606
-743.142	-200.000	-0.025	-0.125
-742.127	-26.657	-0.382	-0.223
-741.112	-200.000	-0.083	0.418
-740.098	-64.516	0.427	0.173
-739.083	-43.652	-0.068	0.034
-738.069	-52.431	-0.256	0.118
-737.054	800.000	-0.063	-0.260
-736.039	-71.063	-0.140	-0.053
-735.025	139.929	0.103	0.136
-734.010	-53.926	-0.302	-0.137
-732.996	-99.337	0.239	0.060
-731.981	19.439	-0.178	-0.143
-730.966	-116.351	-0.129	-0.024
-729.952	138.192	0.169	-0.221
-728.937	42.371	-0.357	0.324
-727.923	444.188	0.075	-0.165
-726.908	-147.645	-0.407	-0.034
-725.894	-190.991	-0.168	0.002
-724.879	-1.901	-0.213	-0.150
-723.864	-59.281	0.222	0.095
-722.850	-124.044	-0.068	0.011
-721.835	-149.768	-0.243	-0.019
-720.821	-39.203	-0.102	-0.054
-719.806	-9.208	-0.160	0.107
-718.791	10.098	-0.286	0.217
-717.777	134.690	0.184	0.238
-716.762	237.458	-0.158	-0.261
-715.748	150.964	0.129	0.175
-714.733	270.488	0.083	-0.146
-713.718	-40.716	-0.107	-0.055
-712.704	117.660	0.018	0.022
-711.689	107.342	-0.091	0.107
-710.675	-89.188	0.082	0.024
-709.660	-200.000	0.033	-0.150
-708.645	86.952	-0.227	-0.250
-707.631	142.006	0.082	-0.108
-706.616	800.000	0.054	-0.188
-705.602	21.821	0.131	0.107
-704.587	-152.185	0.215	0.016
-703.572	98.639	-0.114	0.132
-702.558	800.000	0.063	0.201
-701.543	800.000	0.104	-0.292
-700.529	800.000	0.062	-0.250
-699.514	-53.758	0.240	-0.109
-698.499	800.000	-0.041	0.131
-697.485	-113.512	-0.080	-0.016
-696.470	153.172	0.109	0.149
-695.456	-147.345	0.128	0.011
-694.441	127.610	-0.159	0.201
-693.426	-76.026	0.243	0.086
-692.412	300.195	-0.168	0.308
-691.397	-200.000	-0.012	-0.202
-690.383	-56.353	0.176	-0.078
-689.368	-10.410	-0.313	-0.207
-688.354	-167.694	-0.135	0.005
-687.339	5.278	-0.179	0.132
-686.324	-63.390	0.194	-0.079
-685.310	403.088	0.084	-0.176
-684.295	-40.843	-0.224	-0.116
-683.281	290.549	-0.094	-0.170
-682.266	148.723	0.117	-0.157
-681.251	-45.881	0.131	-0.065
-680.237	-8.065	-0.396	0.266
-679.222	144.552	0.057	-0.075
-678.208	-146.962	-0.203	-0.017
-677.193	-200.000	-0.062	0.327
-676.178	-58.986	-0.308	0.132
-675.164	-200.000	0.003	-0.274
-674.149	-136.951	0.193	0.022
-673.135	-200.000	-0.029	0.129
-672.120	-191.238	0.233	-0.002
-671.105	-200.000	-0.027	-0.128
-670.091	-200.000	0.023	-0.198
-669.076	-51.483	-0.070	-0.032
-668.062	800.000	-0.083	0.236
-667.047	-55.923	-0.371	0.165
-666.032	-144.482	0.373	-0.034
-665.018	5.807	-0.109	-0.080
-664.003	-36.755	-0.093	-0.050
-662.989	41.225	-0.376	-0.338
-661.974	79.329	-0.111	0.118
-660.959	-200.000	-0.031	-0.233
-659.945	88.665	-0.095	0.105
-658.930	-98.162	-0.237	-0.061
-657.916	-112.721	-0.274	0.054
-656.901	-113.250	0.346	0.068
-655.886	-78.872	0.589	0.200
-654.872	-200.000	-0.003	-0.141
-653.857	-83.378	0.287	0.091
-652.843	-152.745	-0.243	0.017
-651.828	-12.525	-0.183	-0.119
-650.814	71.700	-0.061	-0.063
-649.799	-124.798	-0.262	0.040
-648.784	-171.784	0.278	-0.009
-647.770	31.455	-0.191	-0.163
-646.755	-200.000	0.036	-0.265
-645.741	-132.827	0.317	-0.040
-644.726	3.515	-0.202	-0.147
-643.711	28.123	0.182	-0.153
-642.697	-79.693	-0.061	0.020
-641.682	-38.163	0.099	-0.052
-640.668	-200.000	-0.023	-0.324
-639.653	-148.034	0.149	0.012
-638.638	533.068	0.053	-0.124
-637.624	800.000	0.041	-0.140
-636.609	-79.743	-0.259	-0.087
-635.595	-10.724	0.159	0.104
-634.580	238.838	-0.192	-0.317
-633.565	-200.000	0.080	0.557
-632.551	-200.000	0.020	0.279
-631.536	800.000	0.143	-0.449
-630.522	800.000	-0.057	-0.211
-629.507	-200.000	-0.011	-0.061
-628.492	62.297	-0.179	0.178
-627.478	232.799	0.055	0.090
-626.463	-162.133	0.217	0.011
-625.449	-22.788	0.125	0.075
-624.434	-39.641	-0.201	0.104
-623.419	149.248	-0.134	-0.180
-622.405	-106.883	0.307	-0.068
-621.390	20.101	-0.221	0.177
-620.376	6.073	0.210	0.155
-619.361	800.000	-0.048	0.164
-618.346	294.096	0.123	-0.223
-617.332	-66.956	0.188	0.074
-616.317	-200.000	0.032	0.372
-615.303	295.694	0.196	0.356
-614.288	-200.000	-0.035	0.310
-613.273	-82.407	0.166	-0.054
-612.259	311.713	0.046	-0.086
-611.244	-200.000	0.134	-0.000
-610.230	-200.000	0.024	-0.133
-609.215	-185.901	-0.130	0.002
-608.201	246.724	-0.103	0.173
-607.186	137.805	0.178	0.231
-606.171	-7.467	0.075	0.050
-605.157	-52.017	0.374	0.173
-604.142	-56.047	-0.215	-0.095
-603.128	-43.242	-0.387	0.194
-602.113	-200.000	0.024	0.147
-601.098	-90.758	0.246	-0.070
-600.084	63.726	0.125	0.125
-599.069	235.789	-0.116	0.190
-598.055	800.000	-0.058	-0.226
-597.040	591.446	-0.031	0.076
-596.025	-142.314	-0.098	0.010
-595.011	-68.705	0.295	0.113
-593.996	-95.743	0.187	0.050
-592.982	800.000	-0.072	-0.286
-591.967	-38.103	0.104	0.055
-590.952	-200.000	-0.021	-0.187
-589.938	88.577	-0.168	-0.186
-588.923	-200.000	0.002	-0.214
-587.909	57.381	0.121	0.117
-586.894	618.150	-0.074	0.184
-585.879	-81.490	-0.201	-0.066
-584.865	-200.000	-0.039	0.215
-583.850	254.381	-0.075	-0.128
-582.836	-200.000	0.013	-0.290
-581.821	423.807	-0.087	0.186
-580.806	172.725	0.045	-0.064
-579.792	645.616	0.090	-0.228
-578.777	266.044	0.132	0.228
-577.763	-138.519	0.184	-0.020
-576.748	-151.213	0.140	-0.010
-575.733	-55.889	0.078	0.035
-574.719	-200.000	-0.031	-0.182
-573.704	-62.453	0.513	0.212
-572.690	367.775	0.017	-0.033
-571.675	200.794	0.068	-0.104
-570.661	224.459	0.019	0.031
-569.646	-200.000	-0.014	-0.098
-568.631	-162.932	-0.163	0.008
-567.617	-115.531	-0.327	-0.061
-566.602	20.543	0.341	-0.273
-565.588	114.954	0.168	-0.204
-564.573	-200.000	-0.077	-0.445
-563.558	-143.067	-0.265	-0.025
-562.544	151.867	0.072	-0.097
-561.529	-65.128	0.399	0.160
-560.515	160.561	-0.076	-0.105
-559.500	20.679	-0.135	0.108
-558.485	-200.000	-0.053	-0.332
-557.471	-167.825	-0.227	0.009
-556.456	-145.665	-0.161	0.014
-555.442	77.414	0.086	0.091
-554.427	-153.736	-0.168	-0.011
-553.412	800.000	0.034	-0.129
-552.398	800.000	-0.063	-0.191
-551.383	156.834	0.092	0.126
-550.369	-61.341	0.198	-0.083
-549.354	-200.000	-0.058	-0.422
-548.339	-147.264	0.262	-0.022
-547.325	-57.286	-0.159	-0.069
-546.310	800.000	-0.020	0.066
-545.296	800.000	-0.020	-0.080
-544.281	-200.000	-0.008	-0.218
-543.266	80.379	0.115	0.123
-542.252	-79.216	-0.093	0.031
-541.237	800.000	-0.183	-0.517
-540.223	-28.214	-0.134	-0.077
-539.208	-109.780	0.228	-0.047
-538.193	28.232	-0.084	0.070
-537.179	462.488	0.120	-0.265
-536.164	-200.000	0.064	0.412
-535.150	52.606	0.247	-0.234
-534.135	37.536	0.315	-0.276
-533.121	53.889	0.211	-0.201
-532.106	-200.000	-0.002	-0.346
-531.091	800.000	-0.017	-0.069
-530.077	-49.034	-0.511	-0.242
-529.062	-101.478	0.212	-0.051
-528.048	800.000	0.005	-0.015
-527.033	-74.495	-0.079	-0.028
-526.018	-95.352	0.262	-0.070
-525.004	652.475	0.050	0.128
-523.989	-25.048	-0.183	-0.108
-522.975	-86.338	-0.242	0.074
-521.960	37.301	0.159	0.139
-520.945	27.555	-0.215	0.179
-519.931	62.036	0.220	-0.217
-518.916	800.000	0.068	-0.224
-517.902	136.825	0.040	-0.052
-516.887	12.756	0.133	0.102
-515.872	800.000	0.006	0.021
-514.858	174.093	-0.071	-0.101
-513.843	-200.000	-0.013	-0.316
-512.829	-159.056	0.241	-0.014
-511.814	-192.869	-0.133	-0.001
-510.799	800.000	-0.044	0.161
-509.785	-169.165	-0.266	0.010
-508.770	-4.307	-0.259	0.177
-507.756	-200.000	0.015	-0.097
-506.741	-83.785	0.298	0.094
-505.726	203.974	0.096	0.148
-504.712	32.133	0.127	-0.108
-503.697	-77.145	0.065	-0.022
-502.683	61.465	-0.164	-0.162
-501.668	682.793	0.069	0.179
-500.653	57.514	0.186	0.180
-499.639	-179.018	-0.214	-0.005
-498.624	33.943	0.204	-0.176
-497.610	-160.146	-0.290	0.016
-496.595	379.598	0.028	0.056
-495.581	-200.000	-0.039	-0.217
-494.566	-70.630	-0.142	0.053
-493.551	-47.694	-0.159	-0.076
-492.537	-139.290	0.465	0.050
-491.522	-21.374	-0.052	0.032
-490.508	-10.582	-0.065	0.042
-489.493	-200.000	0.009	-0.119
-488.478	-138.683	0.325	-0.035
-487.464	-16.305	-0.333	-0.209
-486.449	94.579	0.126	-0.142
-485.435	-200.000	-0.017	0.161
-484.420	172.257	0.062	-0.088
-483.405	237.873	-0.300	0.491
-482.391	-200.000	-0.015	0.179
-481.376	392.419	0.160	0.329
-480.362	53.898	0.218	-0.207
-479.347	-22.797	-0.500	0.298
-478.332	65.875	-0.225	-0.225
-477.318	69.012	0.273	0.277
-476.303	-170.375	-0.074	-0.003
-475.289	2.727	-0.272	0.195
-474.274	-28.305	0.110	-0.063
-473.259	-43.163	-0.199	-0.100
-472.245	634.999	-0.085	-0.214
-471.230	179.851	-0.170	-0.247
-470.216	-6.649	-0.203	-0.136
-469.201	40.922	-0.063	0.056
-468.186	73.956	0.293	0.304
-467.172	36.965	0.124	-0.108
-466.157	-146.144	0.196	-0.017
-465.143	-106.532	-0.151	0.033
-464.128	-200.000	-0.014	-0.338
-463.113	776.889	-0.059	0.158
-462.099	538.774	0.111	0.262
-461.084	196.706	-0.096	0.145
-460.070	16.904	0.026	0.020
-459.055	66.147	-0.134	0.134
-458.040	-64.174	-0.143	0.058
-457.026	28.561	-0.304	-0.254
-456.011	-99.382	0.188	0.047
-454.997	-48.343	0.479	0.228
-453.982	102.146	0.210	-0.242
-452.968	17.242	0.234	-0.184
-451.953	153.441	0.013	0.017
-450.938	228.083	-0.166	-0.267
-449.924	-7.761	-0.107	-0.071
-448.909	155.507	-0.073	-0.100
-447.895	-41.136	-0.096	-0.049
-446.880	-145.960	-0.273	0.024
-445.865	216.434	-0.050	0.079
-444.851	-165.495	0.169	-0.007
-443.836	800.000	-0.015	-0.046
-442.822	202.882	-0.074	0.113
-441.807	483.813	-0.048	0.108
-440.792	-200.000	0.031	-0.183
-439.778	800.000	0.083	0.290
-438.763	-0.214	-0.144	-0.101
-437.749	-200.000	0.016	-0.198
-436.734	-140.505	0.279	0.029
-435.719	-20.677	-0.166	0.101
-434.705	87.844	0.085	0.093
-433.690	364.421	-0.133	0.263
-432.676	169.085	0.220	-0.310
-431.661	-69.421	0.265	-0.100
-430.646	-5.774	-0.052	0.035
-429.632	800.000	0.080	-0.336
-428.617	29.992	0.247	-0.208
-427.603	-80.345	0.611	0.202
-426.588	-200.000	0.073	-0.355
-425.573	-200.000	0.000	-0.107
-424.559	-200.000	-0.001	-0.114
-423.544	-104.296	-0.301	0.069
-422.530	19.608	-0.145	-0.115
-421.515	-45.296	0.470	0.230
-420.500	170.135	-0.130	0.184
-419.486	470.484	-0.097	0.215
-418.471	-65.899	0.308	-0.121
-417.457	244.498	0.152	0.253
-416.442	217.841	0.044	0.069
-415.428	-7.768	-0.173	-0.115
-414.413	165.077	0.135	0.188
-413.398	-98.309	-0.158	0.040
-412.384	81.469	-0.160	0.171
-411.369	6.775	0.307	0.225
-410.355	800.000	0.017	0.061
-409.340	-84.869	0.251	-0.078
-408.325	-200.000	-0.051	0.297
-407.311	-200.000	0.049	-0.215
-406.296	-200.000	-0.052	-0.312
-405.282	345.446	-0.082	0.159
-404.267	226.300	0.150	0.240
-403.252	800.000	0.170	0.534
-402.238	321.848	-0.075	-0.141
-401.223	136.193	0.149	0.192
-400.209	-200.000	0.010	0.120
-399.194	-55.528	-0.110	-0.049
-398.179	127.300	0.078	-0.098
-397.165	-200.000	-0.016	-0.151
-396.150	-200.000	0.008	0.056
-395.136	-144.719	0.176	0.016
-394.121	382.164	-0.022	-0.046
-393.106	-11.886	-0.505	0.326
-392.092	800.000	0.065	-0.205
-391.077	-200.000	-0.007	0.380
-390.063	367.713	0.065	-0.130
-389.048	200.214	-0.059	-0.089
-388.033	-200.000	0.005	0.061
-387.019	-3.875	-0.122	0.083
-386.004	221.409	0.026	0.041
-384.990	361.966	-0.078	-0.154
-383.975	-34.628	0.536	0.289
-382.960	257.021	0.189	0.320
-381.946	-200.000	-0.022	0.235
-380.931	384.434	-0.084	-0.169
-379.917	800.000	-0.082	-0.244
-378.902	91.941	-0.151	0.167
-377.888	301.420	0.063	-0.114
-376.873	73.027	-0.164	0.169
-375.858	210.102	-0.188	0.291
-374.844	-200.000	-0.000	-0.186
-373.829	-38.714	0.148	-0.077
-372.815	-87.907	0.181	-0.054
-371.800	-30.197	0.373	0.208
-370.785	-134.993	-0.499	0.059
-369.771	-42.012	-0.288	0.145
-368.756	-168.984	0.229	0.008
-367.742	800.000	-0.054	0.217
-366.727	-86.621	0.082	0.025
-365.712	-200.000	-0.037	0.219
-364.698	-8.286	0.025	-0.017
-363.683	-153.931	0.245	0.016
-362.669	582.471	0.066	-0.159
-361.654	-2.389	0.195	-0.134
-360.639	237.796	-0.128	0.208
-359.625	95.890	0.103	0.116
-358.610	3.165	-0.231	-0.166
-357.596	150.697	-0.151	-0.202
-356.581	-167.836	-0.225	0.009
-355.566	311.864	0.082	-0.151
-354.552	163.195	0.058	-0.080
-353.537	-52.983	0.349	0.158
-352.523	-200.000	0.044	0.299
-351.508	-200.000	0.032	-0.149
-350.493	-117.220	-0.125	-0.022
-349.479	46.278	-0.195	0.178
-348.464	-82.291	0.240	0.077
-347.450	-59.786	0.209	-0.088
-346.435	800.000	-0.135	-0.376
-345.420	800.000	0.109	0.425
-344.406	95.862	0.186	0.209
-343.391	46.339	-0.214	0.195
-342.377	-109.345	0.201	0.042
-341.362	185.026	-0.138	0.201
-340.348	-146.289	-0.217	-0.019
-339.333	-200.000	0.023	-0.329
-338.318	-200.000	0.001	-0.224
-337.304	-47.604	0.176	-0.084
-336.289	34.236	-0.242	-0.207
-335.275	-97.651	-0.346	-0.088
-334.260	99.253	0.182	-0.207
-333.245	32.597	-0.194	0.165
-332.231	-3.039	-0.027	-0.018
-331.216	184.117	0.041	0.060
-330.202	92.561	-0.073	0.081
-329.187	-200.000	0.070	0.404
-328.172	-15.554	-0.187	0.118
-327.158	-59.594	0.312	0.132
-326.143	-200.000	0.016	-0.292
-325.129	-200.000	0.002	-0.308
-324.114	130.194	0.062	-0.078
-323.099	-134.184	-0.120	0.015
-322.085	-57.141	0.206	-0.089
-321.070	-25.264	-0.247	0.144
-320.056	53.928	-0.226	0.213
-319.041	115.857	0.140	0.168
-318.026	-165.525	0.558	-0.024
-317.012	-145.617	0.245	-0.022
-315.997	-200.000	-0.006	-0.096
-314.983	29.480	-0.151	-0.126
-313.968	73.714	0.101	0.104
-312.953	321.045	0.131	-0.244
-311.939	-44.703	0.078	0.038
-310.924	3.596	0.217	0.155
-309.910	800.000	0.096	0.297
-308.895	800.000	-0.123	0.413
-307.880	16.516	0.213	0.165
-306.866	800.000	-0.103	-0.303
-305.851	-41.110	-0.328	-0.166
-304.837	800.000	0.079	-0.226
-303.822	-65.519	-0.113	-0.044
-302.807	70.606	0.123	-0.124
-301.793	-200.000	-0.009	0.061
-300.778	-32.403	-0.208	-0.114
-299.764	-9.485	-0.128	-0.084
-298.749	301.413	-0.136	-0.246
-297.735	54.235	0.128	-0.121
-296.720	-200.000	0.008	-0.062
-295.705	-200.000	0.008	0.351
-294.691	49.577	0.217	0.201
-293.676	5.001	-0.337	0.243
-292.662	616.832	0.149	0.366
-291.647	-88.191	0.066	-0.019
-290.632	800.000	0.051	-0.179
-289.618	-150.759	0.080	-0.006
-288.603	174.286	-0.240	0.340
-287.589	47.835	-0.132	-0.121
-286.574	87.301	0.143	-0.155
-285.559	-44.253	-0.133	-0.065
-284.545	-200.000	0.002	-0.049
-283.530	-39.159	-0.331	-0.171
-282.516	146.888	-0.098	0.130
-281.501	375.571	0.070	0.141
-280.486	67.458	-0.050	-0.050
-279.472	353.328	-0.149	-0.289
-278.457	235.834	0.043	0.070
-277.443	-200.000	0.020	0.382
-276.428	151.678	-0.125	0.166
-275.413	-120.447	0.280	0.047
-274.399	-11.404	0.158	-0.102
-273.384	-134.914	0.227	0.027
-272.370	-200.000	0.007	-0.043
-271.355	-30.988	0.224	-0.124
-270.340	-200.000	-0.048	0.217
-269.326	65.546	-0.234	-0.233
-268.311	800.000	-0.036	-0.119
-267.297	800.000	0.060	0.212
-266.282	-62.742	-0.268	-0.109
-265.267	800.000	-0.121	-0.337
-264.253	-200.000	0.045	0.234
-263.238	800.000	-0.078	0.266
-262.224	34.937	0.118	-0.101
-261.209	-200.000	0.079	-0.557
-260.195	-2.959	-0.123	-0.084
-259.180	-9.022	-0.049	-0.032
-258.165	1.008	-0.392	0.275
-257.151	-18.843	-0.197	0.120
-256.136	-143.121	-0.408	0.039
-255.122	32.351	-0.177	0.150
-254.107	-69.478	-0.434	0.163
-253.092	800.000	0.033	-0.133
-252.078	-200.000	-0.010	-0.054
-251.063	-141.108	0.237	0.024
-250.049	-6.538	-0.058	-0.039
-249.034	222.669	0.123	-0.194
-248.019	-148.268	-0.259	-0.021
-247.005	-19.412	-0.032	-0.019
-245.990	-200.000	0.050	0.235
-244.976	19.424	-0.250	0.197
-243.961	203.780	-0.152	0.230
-242.946	24.047	-0.166	0.134
-241.932	-184.160	-0.355	0.006
-240.917	430.761	-0.132	-0.280
-239.903	160.110	0.093	0.127
-238.888	357.174	-0.085	0.167
-237.873	23.717	-0.193	-0.156
-236.859	-200.000	0.017	-0.124
-235.844	-84.263	-0.048	-0.015
-234.830	-160.979	0.249	-0.013
-233.815	-200.000	-0.016	0.106
-232.800	38.632	0.254	0.222
-231.786	-131.458	-0.008	-0.001
-230.771	192.576	0.308	0.455
-229.757	-80.404	0.069	-0.022
-228.742	-63.710	-0.070	-0.028
-227.727	-67.420	0.033	-0.013
-226.713	-200.000	-0.038	-0.165
-225.698	-200.000	0.018	-0.117
-224.684	-74.087	-0.190	0.067
-223.669	781.240	0.012	-0.032
-222.655	38.170	0.213	-0.186
-221.640	178.870	-0.105	0.149
-220.625	-25.663	0.155	0.090
-219.611	-122.816	0.108	-0.017
-218.596	137.082	-0.157	0.200
-217.582	192.833	0.268	-0.396
-216.567	-180.604	-0.094	0.002
-215.552	732.189	0.147	0.383
-214.538	-0.300	0.122	-0.085
-213.523	50.819	-0.241	-0.224
-212.509	-23.507	-0.147	-0.086
-211.494	-44.076	0.181	0.089
-210.479	-61.596	-0.144	0.059
-209.465	518.333	0.116	0.266
-208.450	-99.335	-0.437	-0.108
-207.436	-77.087	-0.103	0.035
-206.421	408.701	0.041	-0.085
-205.406	-50.039	0.037	0.017
-204.392	800.000	-0.139	-0.578
-203.377	-200.000	-0.013	-0.108
-202.363	21.800	-0.218	-0.174
-201.348	208.752	-0.244	-0.373
-200.333	109.478	-0.286	-0.335
-199.319	-200.000	0.029	-0.145
-198.304	-200.000	0.066	-0.304
-197.290	24.489	0.232	-0.187
-196.275	237.970	0.154	0.250
-195.260	-27.217	0.051	-0.029
-194.246	-120.947	-0.325	0.053
-193.231	-200.000	0.037	0.253
-192.217	181.595	0.088	0.126
-191.202	-200.000	-0.009	0.069
-190.187	23.466	-0.229	0.184
-189.173	-200.000	-0.030	0.416
-188.158	-72.246	-0.302	0.109
-187.144	-68.991	-0.207	0.078
-186.129	395.182	-0.148	0.302
-185.114	-48.064	0.460	0.217
-184.100	-129.462	-0.432	0.059
-183.085	-173.443	0.371	0.011
-182.071	800.000	-0.082	0.295
-181.056	-200.000	-0.048	-0.327
-180.042	192.771	-0.087	-0.129
-179.027	-152.045	0.315	0.022
-178.012	-125.227	0.150	0.022
-176.998	53.278	-0.161	0.151
-175.983	-23.648	0.033	0.019
-174.969	-116.780	0.169	0.030
-173.954	-41.605	0.180	0.090
-172.939	-200.000	-0.018	-0.287
-171.925	227.478	-0.243	0.386
-170.910	230.269	0.065	-0.104
-169.896	-200.000	-0.030	-0.154
-168.881	800.000	-0.024	0.072
-167.866	-18.827	-0.221	-0.135
-166.852	64.802	-0.299	-0.295
-165.837	-121.541	0.098	0.016
-164.823	800.000	0.029	-0.098
-163.808	51.431	0.184	0.171
-162.793	257.352	0.040	-0.067
-161.779	-200.000	-0.049	0.333
-160.764	800.000	0.033	0.137
-159.750	-200.000	-0.005	0.094
-158.735	-200.000	0.356	-0.000
-157.720	228.738	-0.092	0.147
-156.706	8.726	-0.180	-0.133
-155.691	696.666	0.080	-0.205
-154.677	79.468	-0.216	-0.226
-153.662	-200.000	0.017	0.137
-152.647	-93.358	-0.272	-0.074
-151.633	-187.528	-0.294	0.004
-150.618	-20.081	0.148	0.089
-149.604	229.731	0.164	0.261
-148.589	-140.818	-0.096	0.010
-147.574	305.668	-0.080	0.145
-146.560	-129.367	0.185	-0.025
-145.545	350.146	0.231	0.446
-144.531	266.549	0.118	0.202
-143.516	-136.912	0.191	-0.021
-142.502	-200.000	0.038	-0.253
-141.487	-24.898	0.140	-0.081
-140.472	-25.632	-0.140	-0.080
-139.458	-141.283	-0.297	0.029
-138.443	-200.000	-0.018	0.357
-137.429	564.119	-0.009	-0.020
-136.414	-129.813	0.214	-0.029
-135.399	715.769	-0.014	-0.035
-134.385	-161.796	0.427	0.021
-133.370	-35.078	-0.312	-0.166
-132.356	-155.230	0.087	-0.005
-131.341	-4.927	0.202	-0.136
-130.326	-200.000	-0.007	0.046
-129.312	-82.397	-0.104	-0.033
-128.297	-184.673	0.067	-0.001
-127.283	-200.000	0.026	-0.213
-126.268	-145.355	0.096	0.008
-125.253	-44.405	0.263	-0.128
-124.239	321.792	0.197	0.365
-123.224	-13.180	-0.160	-0.102
-122.210	-148.616	-0.405	-0.032
-121.195	59.700	0.244	0.235
-120.180	104.871	-0.128	-0.147
-119.166	-4.067	-0.201	-0.135
-118.151	204.487	0.149	0.225
-117.137	139.491	-0.299	-0.384
-116.122	231.044	-0.121	-0.193
-115.107	-134.605	-0.050	0.006
-114.093	123.793	-0.132	0.161
-113.078	-24.863	0.151	0.087
-112.064	800.000	0.114	0.333
-111.049	148.128	-0.188	0.248
-110.034	-85.543	0.142	-0.043
-109.020	-34.051	-0.264	-0.142
-108.005	-85.240	0.125	-0.038
-106.991	800.000	0.127	0.383
-105.976	800.000	0.077	0.225
-104.962	-200.000	0.018	0.214
-103.947	-65.999	-0.232	0.090
-102.932	160.005	-0.315	0.428
-101.918	25.355	0.258	0.209
-100.903	-200.000	0.054	0.243
-99.889	274.458	-0.174	0.300
-98.874	140.166	-0.143	0.184
-97.859	151.161	0.191	0.253
-96.845	-9.288	0.085	0.055
-95.830	32.279	0.127	0.106
-94.816	-6.864	-0.099	0.065
-93.801	-19.573	-0.206	-0.124
-92.786	-48.951	0.252	0.118
-91.772	800.000	-0.049	0.168
-90.757	198.451	-0.131	-0.195
-89.743	-200.000	-0.031	0.359
-88.728	-200.000	-0.053	0.522
-87.713	800.000	-0.024	-0.076
-86.699	742.761	-0.067	0.177
-85.684	225.206	0.062	0.097
-84.670	-97.392	0.491	0.124
-83.655	24.336	0.196	0.157
-82.640	800.000	0.154	0.467
-81.626	-200.000	-0.019	0.150
-80.611	56.924	0.112	0.106
-79.597	-33.240	-0.166	0.090
-78.582	-19.500	-0.083	-0.050
-77.567	2.823	0.253	-0.179
-76.553	-138.387	-0.090	0.010
-75.538	-106.380	-0.108	0.024
-74.524	800.000	0.082	0.222
-73.509	-200.000	0.019	0.320
-72.494	127.760	-0.042	-0.052
-71.480	508.009	0.145	0.327
-70.465	-200.000	0.003	0.314
-69.451	-92.798	-0.172	-0.047
-68.436	411.272	0.075	-0.155
-67.422	251.832	0.062	-0.102
-66.407	186.524	0.107	0.155
-65.392	-43.145	-0.269	-0.133
-64.378	15.680	0.057	0.044
-63.363	800.000	-0.058	0.204
-62.349	800.000	-0.076	-0.206
-61.334	89.238	-1.102	-1.193
-60.319	50.817	0.724	0.667
-59.305	323.377	-0.455	-0.844
-58.290	166.711	1.075	1.482
-57.276	800.000	0.612	1.814
-56.261	-200.000	124.210	639.593
-55.246	403.929	1573.213	3220.046
-54.232	141.486	2746.095	3534.388
-53.217	89.017	2312.156	2502.073
-52.203	32.397	1918.271	1610.308
-51.188	26.299	1713.013	1391.167
-50.173	24.180	1674.378	1343.778
-49.159	45.055	1743.395	1560.995
-48.144	43.012	1755.198	1555.745
-47.130	25.773	1706.971	1382.008
-46.115	23.328	1691.011	1350.421
-45.100	23.148	1686.537	1345.422
-44.086	23.118	1683.957	1343.082
-43.071	23.087	1681.834	1341.099
-42.057	23.134	1679.554	1339.585
-41.042	23.159	1677.364	1337.975
-40.027	23.227	1675.161	1336.676
-39.013	23.166	1673.236	1334.631
-37.998	23.144	1671.796	1333.260
-36.984	23.139	1670.653	1332.257
-35.969	23.239	1668.943	1331.598
-34.954	23.315	1667.235	1330.752
-33.940	23.181	1665.656	1328.435
-32.925	23.180	1664.281	1327.273
-31.911	23.227	1662.341	1326.026
-30.896	23.264	1660.782	1325.009
-29.881	23.274	1659.360	1323.896
-28.867	23.226	1657.919	1322.335
-27.852	23.224	1655.919	1320.674
-26.838	23.208	1654.750	1319.567
-25.823	23.288	1653.680	1319.260
-24.809	23.324	1651.915	1318.064
-23.794	23.215	1651.151	1316.597
-22.779	23.259	1649.192	1315.306
-21.765	23.263	1647.341	1313.808
-20.750	23.238	1646.059	1312.549
-19.736	23.282	1644.529	1311.602
-18.721	23.285	1643.015	1310.364
-17.706	23.348	1641.577	1309.635
-16.692	23.267	1640.293	1307.954
-15.677	23.254	1638.613	1306.468
-14.663	23.378	1637.331	1306.313
-13.648	23.298	1636.011	1304.616
-12.633	23.322	1634.398	1303.454
-11.619	23.224	1633.504	1301.968
-10.604	23.349	1631.318	1301.094
-9.590	23.218	1630.254	1299.231
-8.575	23.348	1628.939	1299.086
-7.560	23.287	1627.788	1297.665
-6.546	23.288	1626.729	1296.781
-5.531	23.218	1625.897	1295.549
-4.517	23.316	1624.394	1295.019
-3.502	23.293	1623.286	1293.916
-2.487	23.303	1621.600	1292.598
-1.473	23.059	1609.150	1280.855
-0.458	20.254	1589.459	1245.025
0.556	15.194	1591.659	1214.342
1.571	13.147	1615.280	1217.185
2.586	12.807	1627.198	1223.535
3.600	11.926	1572.690	1176.118
4.615	6.554	1464.302	1058.967
5.629	1.219	1405.577	981.941
6.644	0.261	1398.150	970.500
7.659	0.255	1396.933	969.527
8.673	0.145	1396.429	968.385
9.688	0.129	1394.279	966.704
10.702	0.052	1390.534	963.527
11.717	2.664	1394.024	982.622
12.731	9.399	1404.714	1033.449
13.746	14.995	1412.554	1075.177
14.761	16.635	1414.681	1087.246
15.775	16.145	1412.986	1082.706
16.790	15.210	1410.053	1074.370
17.804	14.462	1408.100	1067.997
18.819	14.000	1406.626	1063.828
19.834	13.846	1405.067	1061.565
20.848	13.607	1403.639	1058.870
21.863	13.321	1402.558	1056.132
22.877	13.158	1401.617	1054.290
23.892	13.169	1400.458	1053.396
24.907	13.130	1399.610	1052.413
25.921	13.129	1398.605	1051.562
26.936	13.228	1397.388	1051.180
27.950	13.260	1396.961	1050.971
28.965	13.253	1395.693	1049.877
29.980	13.324	1394.533	1049.362
30.994	13.393	1393.666	1049.057
32.009	13.396	1392.820	1048.347
33.023	13.366	1391.998	1047.443
34.038	13.304	1390.538	1045.864
35.053	13.272	1389.148	1044.519
36.067	13.314	1387.940	1043.789
37.082	13.281	1387.181	1042.912
38.096	13.335	1386.368	1042.549
39.111	13.240	1384.901	1040.762
40.126	13.250	1384.454	1040.392
41.140	13.255	1383.966	1039.963
42.155	13.241	1383.081	1039.124
43.169	13.152	1383.135	1038.507
44.184	13.205	1382.688	1038.415
45.199	13.177	1382.421	1037.944
46.213	13.116	1381.998	1037.156
47.228	13.200	1380.340	1036.343
48.242	13.142	1379.710	1035.414
49.257	13.279	1377.575	1034.583
50.271	13.268	1376.080	1033.299
51.286	13.283	1374.863	1032.389
52.301	13.283	1373.708	1031.430
53.315	13.146	1373.051	1029.988
54.330	13.230	1372.037	1029.660
55.344	13.213	1370.514	1028.318
56.359	13.218	1368.848	1027.013
57.374	13.133	1368.505	1026.136
58.388	13.143	1367.766	1025.552
59.403	13.100	1367.266	1024.818
60.417	13.029	1366.768	1023.917
61.432	13.162	1365.085	1023.388
62.447	13.072	1364.183	1022.066
63.461	13.029	1363.478	1021.180
64.476	13.032	1362.049	1020.037
65.490	13.073	1360.920	1019.354
66.505	13.170	1359.167	1018.546
67.520	13.029	1357.904	1016.645
68.534	13.093	1356.672	1016.024
69.549	13.105	1356.304	1015.735
70.563	13.122	1354.866	1014.669
71.578	13.065	1353.780	1013.418
72.593	13.071	1352.807	1012.639
73.607	12.985	1352.072	1011.473
74.622	13.001	1351.021	1010.693
75.636	13.000	1350.365	1010.107
76.651	12.983	1349.568	1009.314
77.666	13.001	1349.362	1009.185
78.680	13.087	1348.553	1009.015
79.695	13.074	1347.594	1008.128
80.709	13.049	1346.589	1007.137
81.724	13.134	1345.783	1006.959
82.739	13.063	1345.064	1005.903
83.753	13.162	1343.918	1005.558
84.768	13.221	1343.024	1005.159
85.782	13.252	1341.407	1004.048
86.797	13.273	1340.313	1003.270
87.812	13.192	1339.067	1001.755
88.826	13.267	1337.982	1001.307
89.841	13.252	1336.656	1000.139
90.855	13.228	1335.651	999.150
91.870	13.276	1334.976	998.850
92.884	13.290	1333.883	998.024
93.899	13.327	1333.362	997.772
94.914	13.397	1332.224	997.256
95.928	13.304	1331.416	995.998
96.943	13.342	1330.729	995.629
97.957	13.239	1329.667	994.125
98.972	13.271	1328.969	993.706
99.987	13.287	1327.904	992.918
101.001	13.271	1326.508	991.693
102.016	13.250	1326.341	991.355
103.030	13.372	1324.099	990.320
104.045	13.313	1323.789	989.645
105.060	13.301	1322.357	988.415
106.074	13.289	1321.110	987.326
107.089	13.104	1320.037	985.334
108.103	13.132	1318.436	984.217
109.118	13.216	1317.215	983.720
110.133	13.115	1315.998	982.122
111.147	13.213	1314.109	981.209
112.162	13.132	1313.066	979.863
113.176	13.254	1311.729	979.502
114.191	13.214	1311.098	978.704
115.206	13.256	1309.686	977.814
116.220	13.189	1308.685	976.584
117.235	13.136	1307.747	975.486
118.249	13.303	1306.193	975.224
119.264	13.188	1305.125	973.663
120.279	13.238	1304.110	973.116
121.293	13.183	1303.215	972.036
122.308	13.082	1302.433	970.773
123.322	13.130	1301.065	969.950
124.337	13.142	1299.839	969.023
125.352	13.216	1298.729	968.543
126.366	13.174	1297.630	967.393
127.381	13.111	1296.199	965.867
128.395	13.153	1295.489	965.502
129.410	13.073	1294.542	964.239
130.424	13.141	1293.749	963.963
131.439	13.131	1292.505	962.891
132.454	13.234	1291.585	962.722
133.468	13.312	1290.859	962.550
134.483	13.239	1289.739	961.207
135.497	13.257	1288.661	960.420
136.512	13.270	1287.116	959.258
137.527	13.278	1285.720	958.181
138.541	13.163	1285.001	956.896
139.556	13.181	1283.176	955.552
140.570	13.214	1282.604	955.233
141.585	13.326	1280.740	954.407
142.600	13.310	1279.745	953.491
143.614	13.362	1279.103	953.228
144.629	13.418	1277.702	952.418
145.643	13.344	1277.116	951.471
146.658	13.370	1275.216	950.121
147.673	13.262	1274.204	948.663
148.687	13.264	1272.672	947.452
149.702	13.405	1271.230	947.102
150.716	13.240	1270.441	945.485
151.731	13.386	1269.120	945.254
152.746	13.400	1267.985	944.407
153.760	13.456	1266.612	943.621
154.775	13.425	1265.308	942.390
155.789	13.505	1264.483	942.147
156.804	13.442	1263.670	941.094
157.819	13.499	1262.662	940.587
158.833	13.506	1262.025	940.071
159.848	13.629	1260.637	939.651
160.862	13.574	1259.441	938.365
161.877	13.496	1258.375	937.044
162.892	13.464	1257.621	936.220
163.906	13.533	1256.543	935.725
164.921	13.371	1255.714	934.110
165.935	13.447	1254.870	933.826
166.950	13.506	1253.964	933.404
167.964	13.591	1253.048	933.119
168.979	13.505	1252.504	932.147
169.994	13.513	1251.751	931.548
171.008	13.566	1251.096	931.278
172.023	13.566	1250.042	930.410
173.037	13.579	1249.549	930.032
174.052	13.694	1248.193	929.586
175.067	13.600	1247.134	928.186
176.081	13.622	1245.853	927.279
177.096	13.628	1245.266	926.790
178.110	13.623	1244.330	925.984
179.125	13.599	1243.089	924.844
180.140	13.682	1241.780	924.251
181.154	13.600	1240.552	922.802
182.169	13.644	1239.104	921.884
183.183	13.664	1237.912	921.027
184.198	13.738	1237.221	920.846
185.213	13.765	1235.779	919.839
186.227	13.835	1234.620	919.284
187.242	13.816	1233.767	918.460
188.256	13.869	1232.614	917.813
189.271	13.838	1232.029	917.126
190.286	13.787	1230.590	915.693
191.300	13.747	1229.634	914.681
192.315	13.727	1229.208	914.169
193.329	13.581	1228.781	912.965
194.344	13.739	1227.637	912.905
195.359	13.711	1227.871	912.847
196.373	13.880	1226.966	913.023
197.388	13.906	1226.211	912.520
198.402	13.889	1226.131	912.289
199.417	13.912	1225.087	911.556
200.432	14.065	1224.009	911.516
201.446	13.989	1223.489	910.631
202.461	14.026	1222.382	909.925
203.475	14.096	1221.610	909.657
204.490	14.011	1220.660	908.404
205.504	14.095	1218.412	907.105
206.519	14.001	1217.831	906.084
207.534	14.067	1216.487	905.362
208.548	14.040	1215.692	904.543
209.563	14.077	1214.797	903.999
210.577	14.015	1214.033	903.010
211.592	14.097	1213.073	902.667
212.607	14.249	1211.854	902.501
213.621	14.251	1210.823	901.665
214.636	14.099	1210.080	900.207
215.650	14.124	1209.448	899.795
216.665	14.122	1208.500	898.996
217.680	14.192	1207.503	898.554
218.694	14.260	1206.439	898.051
219.709	14.159	1206.220	897.266
220.723	14.236	1205.154	896.808
221.738	14.242	1204.296	896.123
222.753	14.249	1203.664	895.606
223.767	14.227	1203.048	894.955
224.782	14.376	1202.482	895.250
225.796	14.375	1201.653	894.551
226.811	14.311	1200.955	893.607
227.826	14.350	1200.263	893.225
228.840	14.275	1199.815	892.412
229.855	14.344	1198.486	891.714
230.869	14.370	1197.906	891.338
231.884	14.316	1197.454	890.635
232.899	14.309	1196.197	889.587
233.913	14.398	1195.535	889.490
234.928	14.320	1194.831	888.472
235.942	14.339	1193.952	887.838
236.957	14.371	1193.159	887.344
237.972	14.317	1192.795	886.703
238.986	14.412	1191.703	886.318
240.001	14.335	1191.181	885.443
241.015	14.343	1189.924	884.474
242.030	14.455	1189.351	884.562
243.045	14.503	1188.508	884.114
244.059	14.580	1187.421	883.637
245.074	14.442	1187.293	882.731
246.088	14.556	1186.035	882.321
247.103	14.643	1185.200	882.081
248.117	14.686	1184.662	881.832
249.132	14.635	1183.914	880.923
250.147	14.665	1183.452	880.659
251.161	14.722	1182.358	880.072
252.176	14.799	1181.595	879.831
253.190	14.805	1181.017	879.351
254.205	14.882	1180.494	879.288
255.220	14.826	1180.114	878.636
256.234	14.816	1179.558	878.089
257.249	14.883	1178.572	877.633
258.263	14.854	1177.947	876.938
259.278	14.818	1177.522	876.353
260.293	14.895	1176.704	876.071
261.307	14.931	1176.388	875.948
262.322	14.950	1175.704	875.458
263.336	14.880	1174.906	874.422
264.351	15.016	1174.435	874.701
265.366	14.982	1173.591	873.820
266.380	15.034	1172.426	873.146
267.395	14.936	1171.623	871.963
268.409	14.997	1171.169	871.863
269.424	15.034	1170.800	871.706
270.439	15.029	1170.053	871.044
271.453	15.030	1169.374	870.468
272.468	15.099	1167.722	869.520
273.482	14.945	1167.786	868.690
274.497	15.032	1166.841	868.360
275.512	15.158	1166.134	868.411
276.526	15.010	1165.494	867.091
277.541	15.084	1164.718	866.821
278.555	15.190	1163.902	866.684
279.570	15.205	1162.645	865.752
280.585	15.053	1162.738	864.956
281.599	15.195	1161.729	864.866
282.614	15.228	1160.319	863.907
283.628	15.328	1159.080	863.425
284.643	15.253	1158.284	862.371
285.657	15.346	1157.029	861.833
286.672	15.309	1156.403	861.105
287.687	15.300	1155.810	860.537
288.701	15.242	1155.360	859.830
289.716	15.356	1154.207	859.481
290.730	15.336	1153.550	858.812
291.745	15.386	1152.646	858.320
292.760	15.328	1152.256	857.654
293.774	15.353	1151.721	857.310
294.789	15.452	1150.859	857.096
295.803	15.426	1150.632	856.720
296.818	15.339	1149.747	855.542
297.833	15.426	1148.578	855.039
298.847	15.580	1147.658	855.062
299.862	15.553	1147.042	854.391
300.876	15.511	1146.607	853.777
301.891	15.428	1145.889	852.748
302.906	15.568	1144.832	852.594
303.920	15.676	1144.197	852.593
304.935	15.617	1143.490	851.693
305.949	15.639	1142.675	851.120
306.964	15.626	1142.394	850.770
307.979	15.623	1141.775	850.221
308.993	15.649	1141.126	849.793
310.008	15.641	1140.338	849.089
311.022	15.694	1139.744	848.840
312.037	15.697	1138.817	848.092
313.052	15.656	1137.684	846.964
314.066	15.789	1136.336	846.555
315.081	15.622	1136.059	845.435
316.095	15.566	1135.259	844.484
317.110	15.691	1134.432	844.422
318.125	15.675	1133.817	843.806
319.139	15.624	1133.095	842.938
320.154	15.743	1132.370	842.922
321.168	15.704	1131.777	842.213
322.183	15.731	1130.929	841.640
323.197	15.682	1130.634	841.103
324.212	15.808	1129.793	841.032
325.227	15.728	1129.222	840.132
326.241	15.791	1128.410	839.767
327.256	15.932	1127.238	839.524
328.270	15.763	1126.878	838.342
329.285	15.751	1125.510	837.187
330.300	15.824	1124.850	836.988
331.314	15.796	1123.779	835.977
332.329	15.898	1122.697	835.605
333.343	15.878	1122.073	834.964
334.358	16.019	1121.046	834.828
335.373	15.983	1120.123	833.888
336.387	15.945	1119.652	833.275
337.402	15.902	1119.159	832.622
338.416	16.034	1117.962	832.308
339.431	16.024	1117.557	831.885
340.446	16.042	1117.175	831.615
341.460	16.203	1116.061	831.506
342.475	16.209	1115.219	830.834
343.489	16.146	1114.564	829.963
344.504	16.164	1113.641	829.291
345.519	16.249	1112.623	828.876
346.533	16.278	1111.698	828.255
347.548	16.276	1111.208	827.809
348.562	16.303	1110.214	827.127
349.577	16.275	1109.808	826.617
350.592	16.149	1108.949	825.284
351.606	16.254	1108.444	825.352
352.621	16.289	1107.414	824.683
353.635	16.166	1106.902	823.626
354.650	16.275	1106.406	823.715
355.665	16.252	1105.552	822.896
356.679	16.230	1105.234	822.480
357.694	16.169	1104.917	821.874
358.708	16.351	1103.375	821.540
359.723	16.397	1102.825	821.278
360.738	16.292	1102.508	820.460
361.752	16.365	1101.776	820.196
362.767	16.404	1101.518	820.120
363.781	16.416	1100.616	819.437
364.796	16.464	1100.033	819.162
365.810	16.462	1099.643	818.790
366.825	16.423	1098.808	817.908
367.840	16.505	1098.655	818.120
368.854	16.495	1097.684	817.274
369.869	16.524	1096.734	816.633
370.883	16.566	1096.090	816.287
371.898	16.550	1095.386	815.612
372.913	16.593	1094.623	815.177
373.927	16.657	1093.809	814.806
374.942	16.593	1093.531	814.222
375.956	16.644	1093.113	814.081
376.971	16.664	1092.497	813.646
377.986	16.702	1092.009	813.396
379.000	16.816	1091.404	813.418
380.015	16.795	1090.743	812.753
381.029	16.829	1089.805	812.146
382.044	16.853	1089.169	811.717
383.059	16.751	1088.888	810.947
384.073	16.804	1087.957	810.433
385.088	16.788	1087.155	809.689
386.102	16.848	1085.994	809.041
387.117	16.883	1085.294	808.613
388.132	16.831	1084.200	807.481
389.146	16.870	1083.035	806.724
390.161	16.834	1082.790	806.299
391.175	16.784	1082.167	805.529
392.190	16.899	1081.094	805.202
393.205	16.910	1080.931	805.062
394.219	16.976	1080.087	804.675
395.234	16.907	1079.004	803.469
396.248	16.912	1077.798	802.524
397.263	16.991	1076.722	802.028
398.278	16.999	1076.201	801.606
399.292	16.954	1075.587	800.865
400.307	16.875	1075.179	800.119
401.321	16.915	1074.145	799.466
402.336	17.053	1073.322	799.431
403.350	16.912	1072.925	798.402
404.365	16.815	1072.299	797.411
405.380	16.940	1071.531	797.353
406.394	17.049	1070.606	797.107
407.409	17.082	1069.686	796.510
408.423	17.187	1068.831	796.293
409.438	16.969	1068.704	795.106
410.453	17.133	1067.777	795.115
411.467	17.179	1067.050	794.717
412.482	17.255	1066.491	794.586
413.496	17.200	1065.534	793.546
414.511	17.344	1064.600	793.450
415.526	17.293	1064.634	793.172
416.540	17.367	1063.900	792.896
417.555	17.471	1063.257	792.834
418.569	17.330	1063.063	791.962
419.584	17.381	1062.807	791.936
420.599	17.327	1062.452	791.350
421.613	107.742	1331.270	1487.299
422.628	99.499	1370.374	1487.363
