DTS Sentinel unit serial number:	SN413079Multiplexer serial number:	ORYXHardware model number:	OX4-SRSoftware version number:	ORYX F/W v4.00 Oryx Data Collector v3.7.2.0data status	okinstallation	princeton_trtdifferential loss correction	single-endedforward channel	channel 2reverse channel	N/Adate	2019/09/13time	13:07:35forward acquisition time	60.00reverse acquisition time	0.00gamma	496.2192k internal	0.2314k external	0.2314temperature offset calibration	1.0209default loss term (dB/km)	0.3790temperature slope calibration	1.0000multiplexer offset coefficient	1.0000multiplexer slope coefficient	1.0000fibre end	0.00T internal ref (°C)	34.81T ext. ref 1 (°C)	4.57T ext. ref 2 (°C)	31.44length (m)	temperature (°C)	Stokes	anti-Stokes-747.200	74.922	-0.124	0.132
-746.185	150.239	-0.228	0.314
-745.171	1.426	-0.223	0.162
-744.156	800.000	0.071	0.279
-743.142	-87.924	-0.113	0.034
-742.127	-200.000	-0.070	0.338
-741.112	-52.540	-0.194	-0.091
-740.098	-95.085	0.253	0.069
-739.083	-28.594	-0.295	-0.172
-738.069	787.656	0.107	0.297
-737.054	15.116	0.223	0.177
-736.039	11.957	-0.187	0.145
-735.025	-163.334	0.164	0.008
-734.010	-200.000	-0.019	-0.171
-732.996	-81.499	0.269	-0.090
-731.981	596.789	-0.059	0.147
-730.966	524.128	0.116	0.277
-729.952	800.000	0.076	-0.231
-728.937	-121.813	-0.327	0.055
-727.923	-200.000	0.010	-0.125
-726.908	-200.000	-0.058	0.398
-725.894	183.927	-0.093	-0.139
-724.879	41.751	0.129	-0.119
-723.864	441.555	-0.178	0.395
-722.850	-200.000	0.006	-0.292
-721.835	105.135	0.121	-0.144
-720.821	800.000	0.062	-0.261
-719.806	-200.000	0.010	-0.350
-718.791	-200.000	-0.027	-0.260
-717.777	-98.231	-0.399	-0.104
-716.762	800.000	0.021	-0.081
-715.748	-29.515	-0.157	0.091
-714.733	-40.242	-0.388	0.204
-713.718	141.944	0.100	0.135
-712.704	661.016	-0.103	-0.268
-711.689	-79.746	-0.356	-0.121
-710.675	611.114	0.073	-0.185
-709.660	241.501	-0.081	0.138
-708.645	-200.000	0.033	0.269
-707.631	-200.000	-0.022	0.104
-706.616	298.093	-0.182	0.338
-705.602	-29.495	-0.049	-0.028
-704.587	800.000	-0.059	-0.193
-703.572	-141.952	0.153	0.015
-702.558	-21.250	-0.362	0.224
-701.543	30.679	0.336	0.291
-700.529	263.873	-0.111	-0.196
-699.514	-51.300	0.232	0.110
-698.499	352.514	0.059	0.119
-697.485	-100.581	-0.047	-0.012
-696.470	-106.390	-0.068	0.015
-695.456	-98.689	-0.278	-0.072
-694.441	800.000	-0.080	-0.229
-693.426	-200.000	-0.031	-0.233
-692.412	-200.000	-0.152	0.000
-691.397	116.173	0.438	0.543
-690.383	-146.544	0.181	0.016
-689.368	-160.985	0.073	-0.004
-688.354	-152.782	-0.164	0.012
-687.339	75.813	0.206	-0.220
-686.324	-60.797	0.167	0.071
-685.310	-142.054	0.245	0.025
-684.295	800.000	0.031	-0.089
-683.281	-72.834	-0.122	0.046
-682.266	-14.544	-0.115	-0.075
-681.251	-54.006	0.179	0.082
-680.237	205.992	0.072	-0.113
-679.222	800.000	0.024	-0.086
-678.208	565.425	-0.089	0.218
-677.193	412.035	-0.081	0.175
-676.178	187.325	-0.300	0.452
-675.164	-168.245	-0.285	-0.011
-674.149	174.385	0.110	0.161
-673.135	51.439	0.084	0.081
-672.120	-200.000	-0.006	-0.085
-671.105	-200.000	-0.003	0.075
-670.091	358.981	0.020	-0.040
-669.076	-85.970	-0.058	-0.018
-668.062	-200.000	-0.006	-0.153
-667.047	-200.000	0.017	0.293
-666.032	-95.903	0.210	0.056
-665.018	13.123	-0.062	-0.048
-664.003	-200.000	-0.076	0.557
-662.989	625.177	-0.070	0.178
-661.974	582.074	0.050	-0.124
-660.959	-80.032	-0.139	0.047
-659.945	45.870	-0.221	0.207
-658.930	-200.000	-0.029	0.142
-657.916	-200.000	0.025	-0.123
-656.901	-200.000	-0.008	0.167
-655.886	285.868	-0.129	0.235
-654.872	-71.192	0.042	0.016
-653.857	-200.000	-0.007	-0.087
-652.843	-80.554	-0.261	-0.088
-651.828	157.701	0.134	0.188
-650.814	-73.560	-0.023	0.008
-649.799	-110.561	-0.200	0.042
-648.784	83.631	-0.238	0.262
-647.770	-175.455	-0.429	-0.012
-646.755	-0.774	-0.274	0.196
-645.741	-113.253	-0.027	0.005
-644.726	84.538	0.041	-0.045
-643.711	12.372	-0.267	0.208
-642.697	422.744	-0.103	-0.224
-641.682	219.771	0.135	-0.219
-640.668	665.727	-0.030	-0.078
-639.653	-88.535	-0.075	-0.023
-638.638	403.825	-0.120	0.256
-637.624	-180.575	-0.119	-0.002
-636.609	-200.000	0.012	-0.363
-635.595	333.042	0.083	0.162
-634.580	-139.785	0.287	-0.031
-633.565	222.619	-0.219	-0.356
-632.551	-10.438	-0.211	-0.141
-631.536	-137.029	-0.155	-0.018
-630.522	-0.742	-0.233	-0.167
-629.507	-125.351	-0.039	-0.006
-628.492	155.404	0.209	-0.290
-627.478	-200.000	-0.004	-0.107
-626.463	800.000	0.005	0.015
-625.449	92.324	-0.099	-0.113
-624.434	175.495	-0.083	-0.121
-623.419	-187.223	-0.202	-0.003
-622.405	-35.425	0.256	-0.140
-621.390	-200.000	-0.033	-0.289
-620.376	220.202	-0.035	-0.057
-619.361	-65.079	0.433	-0.176
-618.346	-96.198	-0.375	-0.100
-617.332	-161.885	-0.321	-0.016
-616.317	-134.696	0.138	-0.017
-615.303	176.246	-0.065	-0.095
-614.288	800.000	-0.133	0.501
-613.273	-200.000	0.036	-0.234
-612.259	186.748	-0.051	-0.077
-611.244	-4.021	-0.038	-0.027
-610.230	-200.000	0.035	0.362
-609.215	-114.205	-0.212	-0.041
-608.201	454.888	-0.094	-0.211
-607.186	248.038	0.146	-0.249
-606.171	-87.186	0.345	0.106
-605.157	-200.000	-0.039	0.380
-604.142	27.127	-0.160	-0.135
-603.128	-200.000	0.008	-0.096
-602.113	68.399	-0.146	-0.151
-601.098	-33.604	0.354	-0.197
-600.084	-151.175	-0.122	-0.009
-599.069	-3.515	0.227	-0.159
-598.055	-200.000	-0.004	-0.147
-597.040	526.493	-0.047	0.112
-596.025	66.205	-0.125	-0.128
-595.011	-200.000	-0.028	0.129
-593.996	-27.974	0.310	-0.181
-592.982	799.970	-0.020	0.056
-591.967	800.000	-0.030	-0.111
-590.952	29.552	0.349	-0.299
-589.938	-109.514	0.037	0.008
-588.923	108.158	-0.129	-0.155
-587.909	-148.099	-0.294	-0.025
-586.894	231.494	0.029	-0.048
-585.879	-200.000	-0.010	-0.046
-584.865	800.000	0.041	-0.119
-583.850	160.770	-0.145	0.203
-582.836	510.645	0.045	0.105
-581.821	-54.541	-0.057	0.026
-580.806	274.925	0.152	-0.271
-579.792	-109.315	0.134	0.029
-578.777	-93.975	-0.381	0.105
-577.763	204.597	-0.100	-0.157
-576.748	-128.036	0.130	-0.019
-575.733	-200.000	-0.036	-0.228
-574.719	-180.815	0.082	0.002
-573.704	800.000	-0.018	0.053
-572.690	-200.000	-0.016	0.272
-571.675	33.930	-0.091	-0.080
-570.661	-200.000	-0.034	-0.367
-569.646	800.000	-0.087	-0.325
-568.631	138.356	0.130	0.172
-567.617	-200.000	-0.032	-0.279
-566.602	-155.625	0.146	-0.009
-565.588	0.845	-0.160	0.115
-564.573	12.632	0.197	-0.153
-563.558	800.000	0.078	0.220
-562.544	134.669	-0.249	0.326
-561.529	-68.126	-0.126	0.050
-560.515	-177.184	0.233	0.006
-559.500	-111.534	-0.149	-0.030
-558.485	124.791	0.081	-0.103
-557.471	-146.603	0.136	-0.012
-556.456	-43.558	0.226	0.115
-555.442	-200.000	0.030	-0.217
-554.427	32.036	-0.072	0.063
-553.412	24.807	0.221	-0.184
-552.398	48.929	0.070	-0.066
-551.383	800.000	0.052	-0.208
-550.369	-200.000	-0.010	0.133
-549.354	-200.000	-0.024	0.273
-548.339	38.570	0.270	-0.243
-547.325	150.908	0.169	-0.231
-546.310	-64.559	-0.183	-0.075
-545.296	-200.000	0.003	-0.080
-544.281	296.049	-0.015	-0.028
-543.266	-99.547	-0.147	-0.037
-542.252	-102.360	0.258	0.062
-541.237	-167.188	0.418	0.017
-540.223	-158.643	0.043	-0.002
-539.208	323.886	0.124	-0.238
-538.193	-200.000	-0.010	-0.173
-537.179	-200.000	0.009	0.202
-536.164	230.089	-0.158	-0.259
-535.150	-200.000	0.024	0.185
-534.135	800.000	0.050	-0.205
-533.121	162.322	-0.125	0.176
-532.106	-97.096	-0.145	0.038
-531.091	-71.254	-0.217	0.082
-530.077	-19.973	0.397	0.246
-529.062	-111.209	-0.382	0.079
-528.048	-110.829	-0.410	-0.085
-527.033	18.056	-0.086	0.069
-526.018	191.900	-0.140	-0.213
-525.004	-200.000	-0.457	-0.002
-523.989	800.000	-0.082	0.250
-522.975	117.461	-0.034	0.042
-521.960	-43.347	0.222	-0.113
-520.945	324.179	-0.171	-0.329
-519.931	148.477	0.094	0.128
-518.916	-200.000	0.012	0.207
-517.902	102.716	-0.071	-0.083
-516.887	-13.834	-0.118	0.076
-515.872	800.000	-0.107	-0.311
-514.858	-40.335	-0.123	0.064
-513.843	227.156	0.078	0.128
-512.829	800.000	0.056	-0.184
-511.814	29.370	-0.247	-0.210
-510.799	-200.000	-0.078	-0.397
-509.785	-200.000	-0.015	-0.154
-508.770	-21.781	-0.181	0.111
-507.756	42.091	0.277	0.253
-506.741	-11.812	-0.165	0.109
-505.726	-200.000	-0.009	-0.057
-504.712	51.794	-0.035	-0.033
-503.697	-200.000	-0.033	0.392
-502.683	800.000	0.115	0.382
-501.668	178.589	-0.143	0.210
-500.653	48.007	-0.293	0.275
-499.639	36.683	-0.364	0.323
-498.624	-200.000	0.032	0.148
-497.610	-87.629	0.072	0.022
-496.595	217.973	-0.044	0.071
-495.581	-50.517	-0.262	-0.124
-494.566	-200.000	-0.008	0.080
-493.551	-50.479	0.109	-0.052
-492.537	-85.793	0.261	-0.081
-491.522	-169.679	-0.186	-0.007
-490.508	208.152	-0.034	-0.053
-489.493	152.450	-0.067	-0.092
-488.478	-97.990	-0.404	-0.105
-487.464	239.400	0.029	-0.048
-486.449	-171.691	-0.068	-0.002
-485.435	256.399	0.202	0.348
-484.420	-23.452	0.110	-0.066
-483.405	800.000	0.017	0.055
-482.391	800.000	0.007	-0.025
-481.376	-200.000	-0.016	-0.121
-480.362	-131.763	0.234	0.031
-479.347	235.071	-0.081	-0.134
-478.332	109.060	0.218	-0.262
-477.318	-151.723	-0.145	0.011
-476.303	337.240	-0.097	-0.189
-475.289	800.000	0.062	0.194
-474.274	247.552	0.147	0.249
-473.259	800.000	0.047	0.132
-472.245	-53.409	0.287	-0.132
-471.230	8.281	-0.193	-0.145
-470.216	132.284	-0.106	0.137
-469.201	-86.475	-0.027	-0.008
-468.186	-37.349	-0.153	-0.082
-467.172	800.000	-0.024	-0.074
-466.157	460.177	0.054	-0.121
-465.143	800.000	0.033	-0.140
-464.128	-69.539	-0.266	-0.102
-463.113	-187.336	-0.303	-0.004
-462.099	-85.112	0.326	-0.102
-461.084	1.240	-0.092	-0.066
-460.070	-60.135	0.193	0.083
-459.055	17.158	0.152	-0.120
-458.040	113.038	0.234	0.284
-457.026	248.772	0.040	-0.069
-456.011	191.970	0.115	-0.174
-454.997	800.000	0.024	-0.069
-453.982	23.052	0.116	-0.096
-452.968	-63.715	0.191	-0.078
-451.953	-200.000	-0.018	-0.136
-450.938	137.050	-0.067	0.087
-449.924	-156.234	-0.168	-0.011
-448.909	287.197	-0.097	0.176
-447.895	83.573	-0.264	-0.289
-446.880	408.432	-0.222	0.471
-445.865	-112.199	-0.238	-0.048
-444.851	17.937	-0.389	0.310
-443.836	378.174	0.015	0.032
-442.822	-200.000	-0.069	-0.306
-441.807	16.315	-0.058	-0.046
-440.792	-182.714	-0.332	-0.006
-439.778	-118.200	0.024	-0.004
-438.763	262.822	0.081	-0.141
-437.749	-29.906	-0.196	-0.112
-436.734	147.148	-0.042	0.057
-435.719	490.057	0.018	0.042
-434.705	67.829	-0.152	0.155
-433.690	-85.766	0.180	0.056
-432.676	89.424	0.136	0.151
-431.661	-33.765	-0.311	0.172
-430.646	36.280	-0.101	0.089
-429.632	91.278	-0.010	-0.011
-428.617	-111.937	0.254	-0.051
-427.603	-60.565	0.274	-0.117
-426.588	-200.000	-0.003	-0.047
-425.573	-15.391	0.242	-0.155
-424.559	6.138	-0.115	0.086
-423.544	-200.000	-0.050	-0.413
-422.530	12.072	-0.116	0.089
-421.515	6.497	0.045	0.034
-420.500	550.100	-0.058	-0.139
-419.486	-90.335	0.059	-0.017
-418.471	141.186	-0.283	0.375
-417.457	-24.123	0.127	-0.076
-416.442	-200.000	-0.004	0.077
-415.428	-63.618	-0.239	-0.098
-414.413	-27.126	-0.050	0.029
-413.398	-3.173	0.186	-0.130
-412.384	-37.711	0.192	0.102
-411.369	-200.000	-0.017	0.146
-410.355	-162.398	-0.130	-0.006
-409.340	-200.000	-0.007	0.036
-408.325	-10.732	0.215	-0.142
-407.311	452.120	-0.041	-0.091
-406.296	-68.970	0.125	-0.048
-405.282	800.000	0.101	-0.359
-404.267	-30.096	-0.055	-0.031
-403.252	68.310	-0.236	0.241
-402.238	-200.000	-0.022	-0.394
-401.223	86.408	-0.166	0.183
-400.209	-150.624	-0.269	0.021
-399.194	-154.252	0.220	-0.015
-398.179	-69.806	0.298	-0.114
-397.165	44.185	-0.023	0.021
-396.150	-57.979	-0.113	0.049
-395.136	503.822	0.138	0.319
-394.121	747.257	0.023	-0.063
-393.106	-16.323	-0.320	-0.203
-392.092	800.000	-0.069	0.268
-391.077	106.598	0.258	0.305
-390.063	-150.507	0.505	-0.039
-389.048	-69.688	-0.185	0.071
-388.033	38.372	-0.118	0.105
-387.019	72.122	0.192	0.200
-386.004	286.782	0.171	0.309
-384.990	-70.749	0.249	0.094
-383.975	-22.590	0.175	0.106
-382.960	798.979	0.098	0.269
-381.946	-200.000	-0.061	-0.313
-380.931	-60.559	-0.226	0.096
-379.917	800.000	0.058	-0.241
-378.902	210.117	-0.026	0.041
-377.888	185.061	-0.086	0.127
-376.873	-200.000	0.011	0.195
-375.858	-200.000	0.013	0.154
-374.844	-19.285	-0.108	0.067
-373.829	-81.911	0.290	-0.095
-372.815	385.466	0.077	-0.159
-371.800	-65.806	-0.314	0.125
-370.785	-158.993	0.272	0.015
-369.771	-155.404	-0.187	-0.012
-368.756	-54.312	-0.517	-0.234
-367.742	97.557	-0.236	-0.271
-366.727	158.891	-0.039	0.054
-365.712	-35.325	0.367	0.200
-364.698	260.189	-0.050	-0.087
-363.683	-66.256	-0.181	-0.072
-362.669	-130.263	0.097	0.013
-361.654	88.136	-0.042	-0.047
-360.639	-200.000	0.013	-0.242
-359.625	747.038	-0.087	0.235
-358.610	-116.305	0.160	0.030
-357.596	104.214	-0.053	-0.063
-356.581	-58.270	-0.228	0.099
-355.566	-200.000	0.003	0.103
-354.552	70.547	0.222	0.229
-353.537	43.995	-0.187	-0.171
-352.523	177.423	0.132	-0.192
-351.508	-200.000	0.024	0.363
-350.493	66.274	0.052	-0.053
-349.479	78.412	0.055	0.058
-348.464	-36.406	0.093	0.050
-347.450	-126.218	-0.202	-0.030
-346.435	-200.000	0.007	0.164
-345.420	-37.484	0.152	-0.081
-344.406	21.021	-0.232	-0.188
-343.391	-80.157	-0.216	-0.072
-342.377	-14.961	0.352	-0.225
-341.362	-61.751	0.258	0.108
-340.348	-55.701	-0.116	-0.052
-339.333	-58.441	0.303	-0.131
-338.318	-71.636	0.116	0.043
-337.304	100.510	-0.084	-0.097
-336.289	800.000	0.062	-0.208
-335.275	-10.708	0.303	0.200
-334.260	-157.213	-0.385	0.023
-333.245	-200.000	0.011	0.108
-332.231	-3.698	-0.106	-0.073
-331.216	156.617	0.138	0.190
-330.202	165.603	-0.168	-0.238
-329.187	233.719	0.194	-0.319
-328.172	800.000	0.072	-0.231
-327.158	800.000	0.080	0.246
-326.143	147.825	-0.108	-0.145
-325.129	-156.101	-0.260	0.016
-324.114	-41.578	0.273	0.140
-323.099	118.583	-0.201	-0.247
-322.085	800.000	0.132	0.424
-321.070	-93.590	-0.217	0.060
-320.056	-96.569	0.221	0.058
-319.041	-72.116	0.209	0.077
-318.026	255.916	0.116	0.198
-317.012	101.555	-0.102	-0.118
-315.997	-150.129	-0.303	0.023
-314.983	-47.128	0.159	-0.077
-313.968	226.839	-0.073	0.118
-312.953	-200.000	-0.055	0.242
-311.939	-173.790	-0.215	0.006
-310.924	800.000	-0.039	-0.140
-309.910	14.756	-0.258	0.201
-308.895	320.689	-0.056	-0.106
-307.880	800.000	-0.025	0.080
-306.866	-28.382	0.020	0.012
-305.851	-82.418	-0.191	0.062
-304.837	-200.000	0.018	0.115
-303.822	-56.022	0.316	-0.140
-302.807	800.000	-0.067	0.212
-301.793	168.850	-0.043	-0.060
-300.778	-73.976	0.122	0.044
-299.764	-200.000	0.028	0.310
-298.749	-200.000	-0.021	-0.147
-297.735	-200.000	-0.019	0.085
-296.720	668.095	-0.049	0.125
-295.705	-166.984	0.084	-0.003
-294.691	97.535	-0.041	-0.047
-293.676	-200.000	-0.021	-0.151
-292.662	82.494	-0.137	-0.148
-291.647	-160.582	0.120	0.006
-290.632	-50.400	0.209	-0.098
-289.618	152.324	0.235	0.320
-288.603	300.574	0.058	0.107
-287.589	-52.661	0.147	-0.068
-286.574	-200.000	0.015	0.196
-285.559	179.538	-0.208	-0.303
-284.545	800.000	-0.017	-0.056
-283.530	249.741	-0.160	-0.271
-282.516	-15.944	0.127	0.081
-281.501	6.471	-0.178	-0.132
-280.486	732.927	-0.043	0.116
-279.472	67.580	0.094	0.095
-278.457	253.369	-0.035	0.059
-277.443	-200.000	-0.010	0.098
-276.428	-200.000	0.016	0.330
-275.413	97.028	-0.013	-0.015
-274.399	800.000	0.077	-0.227
-273.384	378.688	-0.088	0.178
-272.370	18.865	0.079	-0.063
-271.355	152.970	0.321	0.437
-270.340	79.449	-0.204	0.218
-269.326	-138.556	-0.079	0.009
-268.311	-32.086	-0.246	-0.137
-267.297	-163.972	0.129	-0.006
-266.282	-59.737	-0.305	-0.130
-265.267	-139.267	-0.287	0.031
-264.253	-133.739	0.234	0.029
-263.238	-200.000	0.017	-0.414
-262.224	800.000	-0.070	-0.280
-261.209	105.211	0.090	-0.106
-260.195	180.336	-0.195	-0.285
-259.180	-44.777	0.129	0.064
-258.165	-85.811	0.334	-0.103
-257.151	-117.171	-0.312	-0.056
-256.136	71.142	-0.199	-0.205
-255.122	367.577	0.130	-0.262
-254.107	-34.561	0.196	-0.107
-253.092	212.505	-0.123	0.192
-252.078	7.251	-0.099	0.074
-251.063	-68.187	-0.158	0.061
-250.049	-121.750	-0.115	0.019
-249.034	109.926	0.177	-0.211
-248.019	-200.000	-0.028	0.241
-247.005	-128.428	0.164	0.023
-245.990	-150.405	0.227	-0.017
-244.976	399.527	0.217	0.452
-243.961	-197.917	-0.291	-0.002
-242.946	-16.217	-0.133	-0.084
-241.932	433.390	-0.057	-0.123
-240.917	287.734	0.088	-0.158
-239.903	-200.000	-0.032	-0.174
-238.888	17.012	0.099	-0.078
-237.873	134.754	0.032	-0.041
-236.859	56.375	-0.151	0.146
-235.844	800.000	0.087	-0.265
-234.830	369.042	0.059	0.118
-233.815	97.789	-0.226	-0.258
-232.800	-132.474	0.203	-0.026
-231.786	-90.995	-0.218	-0.062
-230.771	292.580	0.085	0.155
-229.757	46.460	0.120	0.111
-228.742	-200.000	-0.004	0.220
-227.727	-84.700	0.379	0.119
-226.713	23.257	0.163	0.133
-225.698	-144.231	0.182	-0.017
-224.684	75.167	-0.297	0.311
-223.669	91.211	0.115	0.129
-222.655	800.000	0.121	0.361
-221.640	376.287	-0.113	0.229
-220.625	675.276	0.080	0.206
-219.611	207.346	-0.121	-0.188
-218.596	61.576	-0.093	-0.091
-217.582	-200.000	0.038	0.305
-216.567	-200.000	0.102	0.567
-215.552	-111.662	-0.198	-0.040
-214.538	-42.487	0.280	-0.141
-213.523	140.485	0.085	-0.112
-212.509	-56.252	0.138	0.061
-211.494	-121.832	0.370	-0.061
-210.479	-106.065	-0.161	0.036
-209.465	24.927	-0.213	-0.175
-208.450	-76.873	-0.129	0.045
-207.436	384.392	0.115	-0.235
-206.421	284.365	-0.129	0.229
-205.406	-28.195	-0.005	0.003
-204.392	-200.000	-0.011	0.220
-203.377	100.235	0.290	0.334
-202.363	112.628	0.055	-0.066
-201.348	32.578	0.354	0.303
-200.333	-64.719	-0.177	-0.071
-199.319	102.875	0.052	-0.060
-198.304	-140.615	0.125	0.013
-197.290	208.341	0.111	0.173
-196.275	8.499	-0.016	0.012
-195.260	800.000	-0.055	0.209
-194.246	800.000	-0.080	0.339
-193.231	119.248	0.019	-0.023
-192.217	-79.419	0.385	0.129
-191.202	517.474	0.046	0.106
-190.187	-171.427	0.189	-0.006
-189.173	101.618	0.207	-0.239
-188.158	-122.563	-0.188	-0.030
-187.144	-118.030	0.318	-0.056
-186.129	23.488	0.080	-0.065
-185.114	-154.891	-0.498	0.033
-184.100	800.000	0.011	0.041
-183.085	331.715	0.166	-0.317
-182.071	37.532	-0.258	-0.227
-181.056	-200.000	-0.014	0.131
-180.042	800.000	-0.064	0.276
-179.027	800.000	0.040	0.119
-178.012	-200.000	-0.026	0.160
-176.998	-44.845	0.190	-0.094
-175.983	-13.257	-0.086	-0.055
-174.969	100.088	-0.077	0.088
-173.954	-128.350	0.052	-0.007
-172.939	711.049	-0.065	0.170
-171.925	-176.235	0.316	-0.008
-170.910	274.302	-0.080	0.141
-169.896	-20.837	0.071	0.043
-168.881	-144.162	0.184	-0.017
-167.866	-88.402	0.425	-0.126
-166.852	-25.799	0.288	-0.168
-165.837	-87.159	0.301	0.091
-164.823	139.266	-0.320	0.418
-163.808	-82.627	0.285	-0.091
-162.793	-180.859	0.062	0.001
-161.779	7.490	0.035	0.026
-160.764	-101.716	0.247	-0.059
-159.750	-200.000	-0.081	-0.510
-158.735	-104.724	0.419	0.096
-157.720	-86.187	0.388	0.118
-156.706	-200.000	-0.048	0.352
-155.691	-150.742	-0.284	-0.021
-154.677	403.734	0.029	0.059
-153.662	49.796	0.318	-0.297
-152.647	0.888	0.237	0.168
-151.633	-128.541	0.331	-0.046
-150.618	-200.000	0.006	-0.211
-149.604	-167.152	0.166	0.007
-148.589	-200.000	0.014	-0.123
-147.574	-151.532	-0.238	0.017
-146.560	-105.256	-0.408	0.092
-145.545	-136.762	-0.326	0.037
-144.531	-29.078	0.227	-0.129
-143.516	-163.419	0.009	0.000
-142.502	-3.874	0.391	-0.269
-141.487	800.000	0.055	-0.227
-140.472	30.851	0.169	-0.143
-139.458	64.037	-0.232	0.231
-138.443	-84.724	-0.111	-0.035
-137.429	321.311	-0.076	-0.143
-136.414	-133.579	0.124	0.015
-135.399	-63.472	-0.234	-0.095
-134.385	76.546	-0.152	0.159
-133.370	129.194	0.108	-0.137
-132.356	505.658	0.201	0.462
-131.341	313.986	0.112	-0.208
-130.326	-164.860	-0.168	0.007
-129.312	24.536	0.365	-0.299
-128.297	-75.959	-0.269	-0.094
-127.283	216.352	0.023	0.036
-126.268	-123.551	0.049	0.008
-125.253	660.506	-0.089	-0.226
-124.239	-140.463	-0.315	0.032
-123.224	-98.944	0.231	0.058
-122.210	139.767	0.074	-0.097
-121.195	-200.000	-0.011	0.189
-120.180	27.504	0.110	0.092
-119.166	-126.685	0.226	-0.033
-118.151	28.711	0.115	0.096
-117.137	665.222	-0.101	-0.257
-116.122	-200.000	0.029	0.151
-115.107	1.789	-0.060	-0.043
-114.093	-127.608	0.131	0.019
-113.078	54.263	-0.070	0.067
-112.064	12.452	-0.050	-0.038
-111.049	-80.152	0.185	0.061
-110.034	270.042	0.206	0.358
-109.020	93.632	-0.159	0.178
-108.005	800.000	0.060	0.167
-106.991	5.719	0.138	-0.101
-105.976	174.817	0.078	0.111
-104.962	-200.000	0.036	-0.197
-103.947	-121.682	-0.367	-0.060
-102.932	34.221	0.196	0.169
-101.918	-133.362	-0.091	-0.011
-100.903	391.440	-0.103	0.212
-99.889	93.489	-0.308	-0.345
-98.874	-200.000	-0.008	-0.145
-97.859	38.138	0.104	-0.091
-96.845	-87.627	-0.315	0.094
-95.830	-200.000	0.068	0.361
-94.816	-150.060	0.411	0.032
-93.801	-77.824	0.130	-0.044
-92.786	-200.000	-0.012	0.142
-91.772	-125.490	0.024	0.004
-90.757	6.253	-0.248	0.182
-89.743	-200.000	-0.011	0.102
-88.728	92.188	0.165	0.183
-87.713	-80.102	0.203	0.067
-86.699	553.531	0.078	0.186
-85.684	-89.858	-0.293	0.085
-84.670	-81.771	0.496	0.161
-83.655	-136.845	0.301	-0.034
-82.640	142.750	-0.076	0.100
-81.626	-200.000	-0.020	-0.129
-80.611	-125.357	-0.120	-0.018
-79.597	-200.000	-0.000	0.021
-78.582	-92.011	0.064	-0.018
-77.567	-92.316	-0.030	-0.008
-76.553	225.847	0.107	0.171
-75.538	8.630	-0.299	-0.222
-74.524	128.085	0.143	0.179
-73.509	68.698	-0.232	-0.235
-72.494	800.000	0.089	-0.326
-71.480	453.575	-0.042	-0.092
-70.465	800.000	-0.074	-0.224
-69.451	-115.316	0.457	-0.085
-68.436	51.563	-0.146	0.137
-67.422	282.069	-0.187	0.330
-66.407	427.320	0.056	0.120
-65.392	800.000	0.087	-0.347
-64.378	106.573	-0.152	-0.178
-63.363	79.291	0.180	0.191
-62.349	-160.316	0.371	-0.020
-61.334	168.895	-0.711	-1.000
-60.319	-129.823	0.256	0.035
-59.305	-200.000	-0.121	-1.151
-58.290	258.762	0.546	0.928
-57.276	800.000	0.476	1.710
-56.261	-200.000	94.999	556.992
-55.246	634.918	1384.765	3466.262
-54.232	185.794	2617.209	3837.612
-53.217	115.790	2322.534	2803.188
-52.203	44.656	1933.799	1754.141
-51.188	38.131	1718.816	1508.867
-50.173	35.327	1673.095	1447.544
-49.159	51.533	1721.362	1613.749
-48.144	54.866	1739.127	1655.856
-47.130	37.741	1695.340	1485.047
-46.115	34.892	1680.655	1450.556
-45.100	34.657	1676.027	1444.725
-44.086	34.658	1673.153	1442.201
-43.071	34.682	1670.157	1439.740
-42.057	34.698	1667.688	1437.673
-41.042	34.664	1665.870	1435.798
-40.027	34.722	1663.920	1434.490
-39.013	34.678	1662.134	1432.563
-37.998	34.599	1660.817	1430.785
-36.984	34.680	1659.346	1430.067
-35.969	34.851	1657.403	1429.616
-34.954	34.881	1655.736	1428.340
-33.940	34.872	1653.786	1426.535
-32.925	34.815	1651.930	1424.453
-31.911	34.862	1650.546	1423.557
-30.896	34.825	1648.953	1421.846
-29.881	34.761	1647.167	1419.777
-28.867	34.824	1645.382	1418.650
-27.852	34.818	1644.037	1417.389
-26.838	34.818	1641.998	1415.571
-25.823	34.839	1640.658	1414.520
-24.809	34.932	1639.301	1413.983
-23.794	34.866	1638.494	1412.742
-22.779	34.867	1636.663	1411.115
-21.765	34.796	1635.450	1409.490
-20.750	34.781	1633.371	1407.528
-19.736	34.879	1632.079	1407.082
-18.721	34.862	1630.361	1405.419
-17.706	34.806	1629.150	1403.909
-16.692	34.789	1627.369	1402.192
-15.677	34.795	1625.982	1400.986
-14.663	34.900	1624.264	1400.220
-13.648	34.805	1623.102	1398.469
-12.633	34.804	1621.455	1396.984
-11.619	34.882	1619.921	1396.178
-10.604	34.859	1618.338	1394.589
-9.590	34.857	1617.127	1393.476
-8.575	34.761	1616.130	1391.860
-7.560	34.823	1614.475	1390.835
-6.546	34.821	1613.200	1389.663
-5.531	34.853	1612.501	1389.244
-4.517	34.832	1611.000	1387.740
-3.502	34.827	1610.149	1386.913
-2.487	34.969	1608.624	1386.578
-1.473	34.704	1597.468	1374.995
-0.458	32.030	1577.300	1338.542
0.556	30.443	1576.438	1301.250
1.571	27.580	1600.228	1300.374
2.586	26.358	1612.629	1301.542
3.600	22.941	1557.832	1233.397
4.615	14.015	1446.318	1086.885
5.629	6.078	1380.103	987.329
6.644	4.567	1370.894	971.217
7.659	4.534	1369.657	970.051
8.673	4.522	1368.712	969.220
9.688	4.647	1366.907	968.637
10.702	4.609	1364.406	966.541
11.717	8.293	1372.518	995.204
12.731	17.278	1388.025	1062.776
13.746	22.686	1396.537	1103.119
14.761	22.811	1395.295	1102.823
15.775	22.002	1392.915	1095.796
16.790	20.814	1391.007	1086.792
17.804	20.086	1388.442	1080.154
18.819	19.716	1387.519	1077.038
19.834	19.660	1385.878	1075.320
20.848	19.572	1384.757	1073.803
21.863	19.333	1383.656	1071.373
22.877	19.175	1382.730	1069.580
23.892	19.129	1382.038	1068.665
24.907	19.074	1381.168	1067.553
25.921	19.194	1380.015	1067.312
26.936	19.023	1379.603	1065.840
27.950	19.158	1378.284	1065.562
28.965	19.351	1377.363	1065.949
29.980	19.503	1376.314	1065.981
30.994	19.485	1375.038	1064.791
32.009	19.505	1374.282	1064.232
33.023	19.553	1372.669	1063.187
34.038	19.524	1371.113	1061.708
35.053	19.355	1370.512	1060.109
36.067	19.358	1369.008	1058.873
37.082	19.340	1368.307	1058.122
38.096	19.456	1366.858	1057.619
39.111	19.425	1366.691	1057.206
40.126	19.341	1365.576	1055.736
41.140	18.958	1364.585	1052.531
42.155	18.902	1363.227	1051.048
43.169	18.814	1363.549	1050.669
44.184	18.816	1363.274	1050.378
45.199	18.804	1363.041	1050.033
46.213	18.954	1362.353	1050.320
47.228	19.227	1361.711	1051.399
48.242	19.274	1360.692	1050.810
49.257	19.191	1359.404	1049.216
50.271	19.177	1357.841	1047.828
51.286	19.221	1356.434	1046.917
52.301	19.175	1355.138	1045.549
53.315	19.149	1353.968	1044.393
54.330	19.003	1353.057	1042.715
55.344	18.897	1351.432	1040.728
56.359	18.982	1350.318	1040.295
57.374	18.974	1349.563	1039.573
58.388	18.863	1348.874	1038.279
59.403	18.821	1348.460	1037.615
60.417	18.744	1347.552	1036.357
61.432	18.787	1346.415	1035.653
62.447	18.673	1345.757	1034.368
63.461	18.643	1344.253	1032.940
64.476	18.693	1343.115	1032.271
65.490	18.613	1342.051	1030.883
66.505	18.649	1340.694	1029.964
67.520	18.600	1339.724	1028.838
68.534	18.660	1338.047	1027.814
69.549	18.794	1337.311	1027.962
70.563	18.572	1336.320	1025.779
71.578	18.475	1334.890	1024.015
72.593	18.521	1333.914	1023.452
73.607	18.414	1333.399	1022.323
74.622	18.473	1332.627	1021.992
75.636	18.568	1331.883	1021.897
76.651	18.467	1331.719	1021.081
77.666	18.560	1330.647	1020.723
78.680	18.559	1330.644	1020.625
79.695	18.757	1329.616	1020.922
80.709	18.741	1329.455	1020.612
81.724	18.920	1328.505	1020.858
82.739	19.091	1327.393	1020.926
83.753	19.193	1326.940	1021.094
84.768	19.307	1326.125	1021.048
85.782	19.350	1324.829	1020.214
86.797	19.328	1323.665	1019.100
87.812	19.185	1323.092	1017.725
88.826	19.241	1321.545	1016.771
89.841	19.302	1320.587	1016.308
90.855	19.419	1319.585	1016.133
91.870	19.474	1318.827	1015.783
92.884	19.449	1317.713	1014.691
93.899	19.401	1317.541	1014.184
94.914	19.466	1316.734	1013.855
95.928	19.488	1315.734	1013.128
96.943	19.323	1314.956	1011.470
97.957	19.379	1314.074	1011.026
98.972	19.423	1312.694	1010.137
99.987	19.465	1311.277	1009.204
101.001	19.397	1310.466	1008.089
102.016	19.388	1310.171	1007.723
103.030	19.389	1309.160	1006.862
104.045	19.274	1308.195	1005.356
105.060	19.270	1306.553	1003.987
106.074	19.014	1305.148	1001.325
107.089	18.685	1303.569	998.111
108.103	18.675	1302.016	996.778
109.118	18.625	1300.855	995.511
110.133	18.772	1299.198	995.009
111.147	18.709	1298.381	993.927
112.162	18.754	1296.941	992.996
113.176	18.735	1296.172	992.213
114.191	18.855	1295.090	991.991
115.206	18.778	1294.334	990.879
116.220	18.857	1292.713	990.003
117.235	18.899	1291.520	989.244
118.249	18.826	1290.807	988.188
119.264	18.746	1289.557	986.688
120.279	18.652	1288.442	985.209
121.293	18.597	1287.209	983.863
122.308	18.627	1286.255	983.215
123.322	18.524	1284.961	981.550
124.337	18.460	1284.045	980.399
125.352	18.544	1282.758	979.809
126.366	18.412	1281.819	978.254
127.381	18.410	1280.765	977.349
128.395	18.483	1280.012	977.107
129.410	18.547	1279.217	976.774
130.424	18.520	1278.909	976.301
131.439	18.728	1277.735	976.503
132.454	18.796	1276.782	976.072
133.468	18.827	1276.454	975.910
134.483	18.857	1275.254	975.080
135.497	18.916	1274.123	974.464
136.512	18.762	1273.041	972.678
137.527	19.033	1271.334	972.816
138.541	19.035	1270.066	971.774
139.556	19.055	1268.627	970.696
140.570	19.037	1268.428	970.362
141.585	19.165	1266.948	969.863
142.600	19.344	1265.816	969.918
143.614	19.430	1264.935	969.640
144.629	19.391	1264.451	968.961
145.643	19.299	1263.448	967.593
146.658	19.179	1261.776	965.552
147.673	19.054	1260.097	963.486
148.687	18.843	1259.239	961.560
149.702	18.837	1257.240	959.918
150.716	18.896	1255.771	959.038
151.731	18.859	1254.486	957.767
152.746	18.930	1253.694	957.475
153.760	18.905	1252.749	956.530
154.775	19.067	1251.942	956.725
155.789	19.028	1251.333	955.963
156.804	19.109	1249.843	955.187
157.819	19.150	1248.855	954.574
158.833	19.365	1247.818	954.891
159.848	19.426	1247.136	954.620
160.862	19.351	1246.282	953.469
161.877	19.138	1244.479	950.829
162.892	18.957	1243.703	949.150
163.906	18.937	1242.669	948.169
164.921	18.850	1242.330	947.348
165.935	18.930	1241.535	947.096
166.950	19.115	1240.519	947.255
167.964	19.078	1240.032	946.597
168.979	19.018	1239.155	945.514
169.994	19.022	1237.988	944.562
171.008	19.081	1237.152	944.163
172.023	19.239	1236.803	944.680
173.037	19.293	1236.382	944.569
174.052	19.203	1235.738	943.504
175.067	19.174	1234.031	941.959
176.081	18.979	1232.672	939.771
177.096	18.981	1232.092	939.258
178.110	18.998	1230.838	938.308
179.125	19.006	1229.524	937.271
180.140	19.208	1228.434	937.457
181.154	19.152	1228.034	936.760
182.169	19.393	1226.484	936.808
183.183	19.311	1225.844	935.789
184.198	19.493	1224.398	935.587
185.213	19.475	1223.341	934.599
186.227	19.440	1222.617	933.774
187.242	19.525	1221.527	933.319
188.256	19.587	1220.526	932.809
189.271	19.667	1219.541	932.404
190.286	19.348	1218.765	930.006
191.300	18.986	1217.303	926.858
192.315	18.769	1217.146	925.491
193.329	18.835	1216.040	924.922
194.344	19.139	1215.096	925.758
195.359	19.192	1215.112	925.969
196.373	19.181	1214.628	925.459
197.388	19.328	1214.458	926.042
198.402	19.523	1214.056	926.698
199.417	19.643	1213.621	926.928
200.432	19.871	1212.999	927.595
201.446	19.895	1212.092	926.946
202.461	19.921	1211.688	926.694
203.475	19.915	1210.081	925.349
204.490	19.790	1208.350	923.278
205.504	19.602	1207.275	921.371
206.519	19.388	1206.209	919.337
207.534	19.375	1205.515	918.657
208.548	19.604	1204.125	918.733
209.563	19.587	1203.346	917.971
210.577	19.540	1202.429	916.939
211.592	19.660	1201.709	916.943
212.607	19.754	1201.162	916.947
213.621	19.746	1200.270	916.142
214.636	19.673	1199.432	915.035
215.650	19.633	1198.330	913.899
216.665	19.918	1197.319	914.556
217.680	19.948	1196.782	914.223
218.694	19.993	1196.163	913.908
219.709	19.837	1195.212	912.273
220.723	19.921	1194.233	911.889
221.738	19.793	1193.796	910.805
222.753	19.890	1192.638	910.351
223.767	19.970	1191.733	909.997
224.782	20.074	1191.642	910.392
225.796	20.075	1191.056	909.872
226.811	20.094	1189.945	909.042
227.826	19.828	1189.640	907.334
228.840	19.848	1188.691	906.632
229.855	19.819	1188.026	905.893
230.869	19.911	1186.688	905.273
231.884	19.804	1185.968	904.084
232.899	19.777	1185.229	903.302
233.913	19.532	1184.849	901.654
234.928	19.497	1183.917	900.680
235.942	19.579	1182.928	900.277
236.957	19.614	1182.194	899.820
237.972	19.566	1181.742	899.145
238.986	19.544	1180.849	898.273
240.001	19.598	1180.402	898.136
241.015	19.598	1179.717	897.534
242.030	19.768	1178.702	897.565
243.045	19.790	1177.982	897.053
244.059	19.919	1176.950	896.856
245.074	19.951	1176.013	896.226
246.088	19.978	1175.671	896.027
247.103	20.124	1174.850	896.077
248.117	20.261	1174.320	896.301
249.132	20.351	1173.861	896.337
250.147	20.464	1173.531	896.590
251.161	20.758	1172.445	897.193
252.176	20.670	1172.285	896.540
253.190	20.718	1171.461	896.076
254.205	20.869	1170.772	896.247
255.220	20.910	1169.985	895.777
256.234	20.790	1169.566	894.759
257.249	20.908	1168.590	894.538
258.263	20.765	1167.899	893.200
259.278	20.830	1167.259	892.960
260.293	20.829	1166.829	892.549
261.307	20.860	1166.472	892.356
262.322	20.902	1165.647	891.861
263.336	20.927	1164.661	891.156
264.351	20.969	1164.082	890.848
265.366	20.986	1163.485	890.397
266.380	20.985	1162.985	889.931
267.395	20.881	1161.945	888.527
268.409	20.751	1161.035	887.089
269.424	20.739	1160.349	886.426
270.439	20.722	1160.288	886.215
271.453	20.659	1159.297	885.059
272.468	20.520	1157.977	883.270
273.482	20.536	1157.200	882.677
274.497	20.590	1157.174	882.854
275.512	20.640	1155.887	882.047
276.526	20.645	1155.255	881.515
277.541	20.671	1154.605	881.072
278.555	20.714	1153.997	880.746
279.570	20.871	1153.560	881.131
280.585	20.914	1153.000	880.839
281.599	20.991	1151.687	880.151
282.614	20.868	1150.404	878.470
283.628	20.732	1149.450	876.977
284.643	20.745	1148.407	876.168
285.657	20.716	1147.887	875.552
286.672	20.787	1146.586	874.837
287.687	20.791	1146.185	874.472
288.701	20.752	1145.393	873.595
289.716	20.941	1144.128	873.502
290.730	20.778	1143.834	872.381
291.745	20.917	1142.882	872.277
292.760	20.900	1142.501	871.822
293.774	20.937	1142.480	871.912
294.789	21.038	1141.695	871.743
295.803	21.057	1140.802	871.081
296.818	20.848	1139.782	869.181
297.833	20.880	1138.944	868.622
298.847	20.812	1138.423	867.811
299.862	20.904	1137.150	867.224
300.876	20.901	1136.739	866.817
301.891	20.994	1136.196	866.786
302.906	21.124	1135.812	867.064
303.920	21.336	1134.718	867.204
304.935	21.328	1134.477	866.903
305.949	21.449	1133.758	866.879
306.964	21.498	1133.482	866.833
307.979	21.304	1132.498	865.041
308.993	21.210	1131.710	863.898
310.008	21.305	1130.975	863.734
311.022	21.397	1129.685	863.122
312.037	21.353	1129.414	862.625
313.052	21.352	1127.733	861.257
314.066	21.053	1127.028	859.173
315.081	20.911	1126.127	857.709
316.095	20.924	1125.248	857.030
317.110	21.040	1124.495	856.947
318.125	20.910	1123.732	855.655
319.139	20.911	1122.962	854.996
320.154	20.875	1122.433	854.341
321.168	20.948	1121.889	854.207
322.183	20.936	1121.375	853.682
323.197	21.052	1120.805	853.741
324.212	21.060	1120.302	853.322
325.227	21.074	1119.838	852.963
326.241	21.128	1118.856	852.402
327.256	20.961	1118.194	851.006
328.270	21.062	1117.358	850.787
329.285	21.084	1116.155	849.906
330.300	21.093	1114.948	848.953
331.314	20.986	1114.359	847.909
332.329	21.099	1113.564	847.781
333.343	21.077	1112.901	847.092
334.358	21.301	1111.993	847.413
335.373	21.293	1111.636	847.027
336.387	21.369	1110.545	846.489
337.402	21.394	1110.268	846.323
338.416	21.400	1109.423	845.635
339.431	21.578	1108.883	846.007
340.446	21.555	1108.605	845.609
341.460	21.750	1107.670	845.764
342.475	21.647	1107.166	844.807
343.489	21.682	1105.875	843.913
344.504	21.987	1104.941	844.594
345.519	21.854	1104.065	843.212
346.533	21.962	1103.226	843.013
347.548	22.060	1102.843	843.119
348.562	22.012	1102.077	842.229
349.577	21.785	1100.583	839.927
350.592	21.662	1100.161	838.937
351.606	21.502	1099.604	837.676
352.621	21.436	1098.816	836.685
353.635	21.400	1098.030	835.838
354.650	21.401	1097.436	835.320
355.665	21.399	1096.758	834.718
356.679	21.669	1096.146	835.466
357.694	21.724	1095.564	835.212
358.708	21.675	1095.054	834.517
359.723	21.710	1094.076	833.863
360.738	21.767	1093.610	833.703
361.752	21.755	1093.104	833.186
362.767	21.685	1092.568	832.375
363.781	21.816	1091.564	832.156
364.796	21.898	1091.593	832.494
365.810	22.135	1090.585	832.776
366.825	22.119	1090.172	832.312
367.840	22.284	1090.226	833.059
368.854	22.345	1089.437	832.671
369.869	22.240	1088.471	831.363
370.883	22.229	1087.368	830.397
371.898	22.188	1086.568	829.517
372.913	22.080	1086.284	828.719
373.927	22.005	1086.145	828.185
374.942	22.313	1085.669	829.200
375.956	22.230	1084.544	827.876
376.971	22.147	1084.105	827.079
377.986	22.178	1083.701	826.840
379.000	22.437	1082.973	827.432
380.015	22.470	1082.669	827.280
381.029	22.547	1082.011	827.067
382.044	22.504	1081.517	826.413
383.059	22.424	1080.665	825.313
384.073	22.386	1079.476	824.153
385.088	22.488	1078.807	824.049
386.102	22.405	1078.029	822.995
387.117	22.347	1076.718	821.647
388.132	22.094	1076.077	819.908
389.146	22.093	1075.107	819.089
390.161	22.003	1074.405	818.065
391.175	22.089	1073.562	817.751
392.190	22.264	1073.077	818.120
393.205	22.472	1072.344	818.457
394.219	22.389	1071.817	817.595
395.234	22.252	1070.796	816.109
396.248	22.235	1069.655	815.089
397.263	22.205	1068.671	814.130
398.278	22.174	1067.589	813.089
399.292	21.947	1066.903	811.445
400.307	21.966	1066.103	810.853
401.321	22.003	1065.497	810.491
402.336	22.008	1064.838	809.941
403.350	22.003	1064.017	809.221
404.365	21.993	1063.738	808.890
405.380	22.186	1062.906	809.074
406.394	22.159	1062.235	808.371
407.409	22.353	1061.711	808.793
408.423	22.509	1060.955	808.860
409.438	22.467	1060.837	808.506
410.453	22.604	1059.625	808.139
411.467	22.680	1058.969	807.914
412.482	22.616	1058.871	807.475
413.496	22.887	1058.049	808.017
414.511	22.839	1057.182	807.066
415.526	22.988	1056.935	807.483
416.540	22.999	1056.576	807.189
417.555	22.919	1055.911	806.246
418.569	22.936	1055.030	805.577
419.584	22.791	1055.181	804.960
420.599	22.769	1054.645	804.381
421.613	154.399	1400.586	1789.930
422.628	141.811	1450.993	1790.041
