DTS Sentinel unit serial number:	SN413079Multiplexer serial number:	ORYXHardware model number:	OX4-SRSoftware version number:	ORYX F/W v4.00 Oryx Data Collector v3.7.2.0data status	okinstallation	princeton_trtdifferential loss correction	single-endedforward channel	channel 2reverse channel	N/Adate	2019/09/14time	13:59:34forward acquisition time	60.00reverse acquisition time	0.00gamma	496.2192k internal	0.2305k external	0.2305temperature offset calibration	1.0143default loss term (dB/km)	0.3790temperature slope calibration	1.0000multiplexer offset coefficient	1.0000multiplexer slope coefficient	1.0000fibre end	0.00T internal ref (°C)	37.94T ext. ref 1 (°C)	4.98T ext. ref 2 (°C)	36.53length (m)	temperature (°C)	Stokes	anti-Stokes-747.200	236.239	-0.161	0.272
-746.185	800.000	0.097	0.351
-745.171	800.000	-0.145	0.411
-744.156	-66.907	-0.124	0.050
-743.142	-170.013	0.402	-0.015
-742.127	-1.948	0.074	0.053
-741.112	800.000	0.020	-0.068
-740.098	-165.779	-0.323	-0.014
-739.083	-87.270	0.320	-0.099
-738.069	92.421	-0.095	-0.109
-737.054	60.977	-0.253	-0.255
-736.039	567.267	0.021	0.052
-735.025	-152.997	0.309	-0.022
-734.010	39.277	0.066	0.060
-732.996	11.254	-0.361	0.281
-731.981	708.644	0.075	-0.202
-730.966	70.434	-0.234	-0.247
-729.952	-4.421	-0.266	0.187
-728.937	89.552	0.109	-0.124
-727.923	-61.611	0.054	0.023
-726.908	75.692	0.105	-0.113
-725.894	-80.943	0.243	-0.082
-724.879	15.172	-0.188	0.150
-723.864	-84.529	-0.299	0.096
-722.850	-4.360	-0.439	0.309
-721.835	800.000	0.065	-0.188
-720.821	0.014	0.225	-0.163
-719.806	165.834	-0.126	-0.181
-718.791	-200.000	0.001	-0.083
-717.777	-95.546	-0.114	0.031
-716.762	-65.072	0.158	-0.065
-715.748	-87.252	0.278	-0.086
-714.733	-200.000	-0.059	-0.359
-713.718	789.539	-0.123	0.342
-712.704	246.003	0.202	-0.347
-711.689	-141.370	0.136	-0.014
-710.675	-105.650	-0.105	-0.024
-709.660	-73.571	0.382	0.142
-708.645	-98.025	-0.276	0.072
-707.631	-72.496	0.324	0.122
-706.616	-155.582	0.144	0.009
-705.602	272.158	0.110	0.197
-704.587	-28.234	0.198	0.116
-703.572	-49.101	0.101	-0.049
-702.558	58.078	0.119	0.119
-701.543	800.000	-0.048	-0.146
-700.529	603.436	0.135	0.342
-699.514	-160.740	0.161	0.009
-698.499	477.681	0.115	-0.264
-697.485	800.000	-0.005	-0.019
-696.470	-172.289	-0.336	0.011
-695.456	612.817	0.097	0.246
-694.441	-51.813	0.056	-0.027
-693.426	180.106	-0.021	0.031
-692.412	-55.057	-0.057	0.026
-691.397	11.497	-0.240	-0.187
-690.383	800.000	0.143	-0.504
-689.368	800.000	0.046	-0.150
-688.354	-200.000	0.024	0.264
-687.339	-159.409	-0.338	0.019
-686.324	-200.000	0.015	-0.140
-685.310	-50.517	0.075	0.036
-684.295	249.337	-0.036	0.061
-683.281	103.869	0.071	-0.085
-682.266	-168.173	0.227	-0.009
-681.251	182.463	-0.078	0.117
-680.237	12.794	0.075	-0.059
-679.222	371.295	-0.089	-0.182
-678.208	-200.000	-0.033	-0.167
-677.193	33.190	-0.204	-0.180
-676.178	-200.000	0.040	-0.199
-675.164	-200.000	-0.008	-0.162
-674.149	380.224	-0.137	-0.285
-673.135	-79.734	0.194	-0.066
-672.120	-97.344	0.173	0.046
-671.105	-98.537	-0.343	0.089
-670.091	-200.000	-0.038	-0.750
-669.076	69.445	0.160	0.167
-668.062	21.458	0.243	-0.200
-667.047	800.000	0.116	-0.326
-666.032	75.922	-0.170	0.183
-665.018	286.463	0.188	0.344
-664.003	404.453	-0.070	0.150
-662.989	-200.000	-0.003	-0.120
-661.974	85.731	-0.135	0.150
-660.959	-200.000	-0.007	0.127
-659.945	-89.684	0.072	0.021
-658.930	137.481	-0.203	0.270
-657.916	-107.205	-0.240	-0.054
-656.901	33.097	-0.076	0.066
-655.886	-70.216	-0.265	-0.102
-654.872	107.112	0.156	0.188
-653.857	86.279	-0.090	0.100
-652.843	611.415	-0.093	0.235
-651.828	124.289	-0.074	0.094
-650.814	-102.481	0.191	-0.046
-649.799	-200.000	0.020	-0.179
-648.784	-56.629	0.180	0.081
-647.770	73.255	-0.178	0.189
-646.755	-38.598	0.210	-0.113
-645.741	-200.000	-0.046	-0.368
-644.726	-29.677	-0.151	-0.087
-643.711	-107.497	-0.256	-0.057
-642.697	-3.760	-0.124	-0.087
-641.682	-200.000	-0.034	0.274
-640.668	135.932	-0.099	0.131
-639.653	-96.036	-0.266	-0.072
-638.638	359.200	-0.094	-0.190
-637.624	8.080	0.085	0.064
-636.609	800.000	-0.118	0.403
-635.595	800.000	-0.061	-0.190
-634.580	800.000	-0.039	0.163
-633.565	61.594	0.142	-0.143
-632.551	450.235	-0.205	0.458
-631.536	167.347	-0.035	-0.050
-630.522	249.854	0.145	0.249
-629.507	-200.000	0.002	-0.013
-628.492	-110.692	-0.311	-0.065
-627.478	800.000	-0.051	0.162
-626.463	-200.000	0.016	0.399
-625.449	148.922	0.140	0.191
-624.434	800.000	0.030	-0.106
-623.419	222.714	0.250	-0.408
-622.405	-101.618	0.090	-0.022
-621.390	232.924	0.067	-0.112
-620.376	-70.985	-0.339	-0.129
-619.361	45.437	0.061	-0.057
-618.346	42.094	0.049	-0.045
-617.332	-200.000	-0.035	-0.398
-616.317	264.404	-0.059	-0.104
-615.303	14.421	0.273	0.216
-614.288	-200.000	0.042	-0.190
-613.273	109.444	0.177	0.215
-612.259	-200.000	-0.006	-0.277
-611.244	420.129	-0.083	-0.179
-610.230	800.000	-0.032	-0.135
-609.215	-200.000	-0.003	0.018
-608.201	-176.401	0.143	0.004
-607.186	-200.000	-0.005	0.203
-606.171	734.173	-0.129	0.350
-605.157	-50.189	0.101	-0.048
-604.142	800.000	0.057	0.167
-603.128	-200.000	0.003	0.033
-602.113	122.912	0.051	0.064
-601.098	-200.000	-0.040	0.179
-600.084	7.620	-0.173	-0.131
-599.069	406.132	-0.165	-0.352
-598.055	-200.000	0.034	-0.205
-597.040	-104.517	0.183	0.043
-596.025	57.510	0.179	0.177
-595.011	-106.609	0.458	-0.103
-593.996	-44.804	0.176	-0.089
-592.982	800.000	0.034	0.120
-591.967	-137.543	-0.128	0.015
-590.952	3.842	0.301	-0.222
-589.938	-178.053	-0.183	-0.004
-588.923	-57.966	-0.131	-0.058
-587.909	111.577	0.220	-0.268
-586.894	180.518	-0.043	0.064
-585.879	-200.000	-0.019	0.087
-584.865	138.541	-0.064	0.085
-583.850	71.726	-0.160	0.169
-582.836	800.000	0.065	-0.220
-581.821	124.146	-0.107	-0.136
-580.806	215.888	-0.015	0.025
-579.792	-151.109	0.262	0.020
-578.777	-200.000	-0.024	-0.181
-577.763	-70.732	-0.238	0.091
-576.748	172.547	0.163	-0.237
-575.733	145.269	0.165	0.223
-574.719	-37.811	0.237	-0.128
-573.704	-101.885	-0.090	-0.022
-572.690	-115.306	0.107	0.020
-571.675	-140.587	-0.097	-0.010
-570.661	-132.346	-0.080	0.010
-569.646	-70.226	-0.275	-0.106
-568.631	800.000	-0.094	-0.397
-567.617	-120.274	-0.182	0.031
-566.602	25.508	0.085	0.072
-565.588	359.819	0.062	0.125
-564.573	182.288	-0.060	-0.089
-563.558	800.000	0.058	-0.207
-562.544	-78.950	-0.246	0.085
-561.529	-121.094	0.147	0.025
-560.515	63.263	0.161	-0.163
-559.500	-77.211	0.129	0.045
-558.485	68.187	0.228	0.236
-557.471	50.387	-0.114	-0.108
-556.456	-200.000	0.016	0.075
-555.442	99.043	0.059	0.069
-554.427	120.669	0.285	0.358
-553.412	65.590	-0.112	0.115
-552.398	631.305	0.102	0.260
-551.383	624.541	0.141	-0.359
-550.369	-88.935	-0.209	-0.062
-549.354	103.623	0.287	0.340
-548.339	9.515	0.064	0.049
-547.325	800.000	-0.115	-0.326
-546.310	90.777	-0.082	0.093
-545.296	-200.000	-0.006	0.081
-544.281	-200.000	0.022	0.137
-543.266	-200.000	0.051	-0.280
-542.252	-170.717	0.117	0.004
-541.237	127.397	-0.197	-0.253
-540.223	-200.000	-0.012	-0.162
-539.208	-200.000	0.024	-0.240
-538.193	64.250	-0.186	-0.189
-537.179	-174.625	-0.266	-0.008
-536.164	-28.910	-0.382	-0.221
-535.150	-116.169	-0.175	0.033
-534.135	-99.935	0.368	0.093
-533.121	49.879	0.140	-0.134
-532.106	-182.119	0.309	0.006
-531.091	717.256	0.104	0.278
-530.077	-103.555	-0.280	-0.066
-529.062	800.000	0.083	-0.320
-528.048	516.007	0.067	0.158
-527.033	490.407	0.081	0.188
-526.018	263.349	0.117	-0.206
-525.004	-1.309	0.118	0.084
-523.989	-200.000	0.001	0.266
-522.975	571.733	0.018	-0.043
-521.960	-51.234	-0.156	-0.074
-520.945	-30.311	-0.260	-0.149
-519.931	431.497	0.142	-0.311
-518.916	-200.000	-0.039	-0.264
-517.902	-200.000	0.011	0.176
-516.887	-120.812	-0.231	-0.039
-515.872	142.662	0.119	0.160
-514.858	-200.000	-0.012	0.112
-513.843	589.119	-0.070	0.175
-512.829	171.879	-0.130	-0.188
-511.814	64.754	0.145	0.148
-510.799	800.000	0.082	-0.229
-509.785	8.996	-0.165	0.126
-508.770	-136.009	-0.193	-0.023
-507.756	71.321	-0.277	-0.290
-506.741	-81.764	0.095	-0.031
-505.726	800.000	0.030	-0.090
-504.712	-123.642	0.254	-0.041
-503.697	113.088	0.141	-0.172
-502.683	-172.193	-0.273	-0.009
-501.668	0.937	-0.018	-0.013
-500.653	-64.218	-0.237	0.097
-499.639	234.701	0.351	0.583
-498.624	-200.000	-0.008	0.307
-497.610	-1.241	-0.033	0.024
-496.595	-120.412	0.110	0.019
-495.581	-200.000	-0.061	0.314
-494.566	123.398	-0.225	0.284
-493.551	-103.578	-0.338	0.080
-492.537	35.962	-0.099	0.088
-491.522	709.118	0.039	0.104
-490.508	186.183	0.122	0.183
-489.493	768.014	-0.072	-0.198
-488.478	777.298	-0.085	0.234
-487.464	138.585	-0.161	-0.213
-486.449	-58.418	-0.167	-0.073
-485.435	-200.000	0.042	-0.256
-484.420	-131.566	0.213	0.028
-483.405	-167.281	0.174	0.007
-482.391	179.131	-0.120	-0.177
-481.376	-200.000	0.020	0.263
-480.362	-200.000	0.036	-0.170
-479.347	-173.796	-0.290	-0.009
-478.332	-165.202	-0.185	0.008
-477.318	-200.000	-0.019	0.272
-476.303	-200.000	0.021	0.169
-475.289	48.757	-0.239	0.226
-474.274	-200.000	0.048	0.229
-473.259	458.646	-0.066	0.148
-472.245	-143.763	-0.351	-0.033
-471.230	-102.640	-0.480	-0.115
-470.216	-200.000	0.015	0.186
-469.201	200.720	0.117	0.181
-468.186	192.860	0.058	0.088
-467.172	800.000	0.090	0.337
-466.157	66.951	0.229	-0.235
-465.143	-200.000	-0.037	0.260
-464.128	-200.000	0.173	-0.001
-463.113	-76.374	0.086	0.030
-462.099	-97.175	0.268	0.070
-461.084	-35.397	0.237	-0.130
-460.070	-200.000	-0.015	-0.144
-459.055	-200.000	0.016	-0.220
-458.040	448.696	-0.083	0.184
-457.026	-10.476	0.058	0.038
-456.011	-11.608	0.027	0.018
-454.997	-122.887	0.358	0.058
-453.982	800.000	0.059	-0.257
-452.968	35.943	-0.275	0.243
-451.953	755.843	0.071	0.193
-450.938	800.000	-0.013	0.050
-449.924	800.000	-0.116	0.384
-448.909	81.142	-0.104	0.113
-447.895	-44.612	-0.116	-0.058
-446.880	150.037	0.214	-0.293
-445.865	-200.000	0.076	-0.470
-444.851	-20.957	0.216	0.133
-443.836	101.273	0.081	-0.095
-442.822	-200.000	-0.064	-0.324
-441.807	-118.050	0.387	-0.070
-440.792	-200.000	0.046	0.342
-439.778	-200.000	0.026	-0.161
-438.763	-162.322	-0.315	-0.016
-437.749	800.000	0.024	-0.066
-436.734	284.019	-0.183	0.332
-435.719	-69.146	0.101	0.039
-434.705	161.173	0.083	0.117
-433.690	-125.091	0.192	-0.030
-432.676	85.678	0.285	-0.315
-431.661	28.836	0.152	0.129
-430.646	47.360	0.072	0.067
-429.632	125.720	0.166	-0.211
-428.617	214.292	0.091	-0.144
-427.603	-129.842	-0.134	0.018
-426.588	13.627	0.289	-0.225
-425.573	-70.831	-0.220	0.083
-424.559	-200.000	-0.013	0.199
-423.544	-200.000	0.009	0.200
-422.530	-79.666	0.266	-0.090
-421.515	363.976	-0.124	-0.251
-420.500	-24.358	0.323	0.194
-419.486	-35.848	0.343	-0.187
-418.471	47.739	0.160	-0.150
-417.457	-178.754	0.197	0.005
-416.442	800.000	0.126	0.361
-415.428	432.951	-0.060	-0.130
-414.413	601.340	-0.086	0.215
-413.398	-38.051	0.104	0.055
-412.384	-22.481	-0.282	0.171
-411.369	800.000	0.012	-0.040
-410.355	-80.567	-0.164	-0.055
-409.340	151.638	-0.067	-0.092
-408.325	-200.000	0.062	-0.280
-407.311	329.638	-0.058	-0.111
-406.296	-200.000	-0.028	0.148
-405.282	-1.521	0.093	0.066
-404.267	-42.258	-0.144	0.074
-403.252	800.000	-0.076	-0.277
-402.238	-107.720	0.049	-0.011
-401.223	-169.160	-0.209	0.008
-400.209	-71.621	-0.222	-0.083
-399.194	-100.674	0.077	-0.019
-398.179	184.273	-0.122	-0.181
-397.165	206.612	-0.181	-0.283
-396.150	573.804	-0.037	0.090
-395.136	179.552	-0.228	-0.335
-394.121	-125.999	-0.323	0.049
-393.106	-158.459	-0.585	0.034
-392.092	-143.711	-0.149	0.014
-391.077	182.861	-0.039	-0.058
-390.063	-200.000	0.046	-0.422
-389.048	48.402	0.049	0.046
-388.033	800.000	-0.059	-0.208
-387.019	-35.053	-0.168	-0.092
-386.004	-200.000	-0.007	-0.205
-384.990	73.850	-0.324	0.341
-383.975	-34.623	-0.275	0.151
-382.960	124.050	-0.171	-0.216
-381.946	-145.847	0.204	-0.018
-380.931	369.854	0.062	-0.125
-379.917	-63.548	0.060	0.025
-378.902	86.878	-0.171	-0.190
-377.888	111.433	0.166	0.200
-376.873	113.915	-0.147	0.179
-375.858	-104.888	-0.179	0.041
-374.844	217.619	0.062	0.100
-373.829	-180.287	0.193	-0.004
-372.815	430.366	0.086	0.187
-371.800	-86.450	-0.161	0.049
-370.785	60.757	-0.303	-0.302
-369.771	800.000	-0.079	-0.290
-368.756	-31.541	-0.287	-0.162
-367.742	-54.645	-0.352	0.160
-366.727	138.624	-0.125	0.165
-365.712	470.562	-0.106	0.239
-364.698	-16.553	-0.069	0.044
-363.683	-77.889	0.440	0.152
-362.669	-134.807	0.096	-0.012
-361.654	103.058	0.236	0.277
-360.639	800.000	-0.024	-0.088
-359.625	-200.000	-0.013	0.128
-358.610	-85.682	-0.050	-0.016
-357.596	-200.000	-0.002	0.015
-356.581	-62.890	-0.161	0.067
-355.566	213.944	0.071	-0.112
-354.552	6.490	0.068	0.051
-353.537	180.477	-0.207	0.305
-352.523	50.920	-0.141	0.134
-351.508	-144.675	0.136	-0.013
-350.493	65.401	0.056	0.057
-349.479	614.304	-0.026	0.064
-348.464	800.000	-0.049	-0.180
-347.450	800.000	0.107	0.374
-346.435	-11.600	-0.221	-0.146
-345.420	3.890	-0.175	-0.128
-344.406	408.066	0.075	-0.159
-343.391	-184.050	-0.174	0.003
-342.377	-70.500	0.022	0.008
-341.362	74.142	0.015	0.016
-340.348	-154.250	0.124	-0.008
-339.333	-53.344	-0.187	-0.086
-338.318	-200.000	-0.034	0.187
-337.304	300.909	-0.230	0.426
-336.289	-83.161	0.416	0.134
-335.275	329.793	-0.108	-0.209
-334.260	-39.968	-0.374	0.195
-333.245	-106.926	-0.171	-0.038
-332.231	55.809	-0.146	0.142
-331.216	-72.531	-0.220	0.082
-330.202	-9.369	0.117	0.078
-329.187	-57.848	-0.199	0.087
-328.172	285.991	-0.144	0.260
-327.158	345.015	-0.170	0.335
-326.143	-15.530	-0.156	-0.099
-325.129	145.031	-0.286	-0.383
-324.114	572.472	0.067	-0.162
-323.099	800.000	-0.057	-0.219
-322.085	800.000	0.058	-0.166
-321.070	234.548	0.172	0.285
-320.056	3.589	-0.208	-0.152
-319.041	166.760	-0.207	0.294
-318.026	-103.626	0.259	-0.061
-317.012	63.868	-0.095	0.096
-315.997	-200.000	-0.013	-0.256
-314.983	-200.000	-0.003	0.219
-313.968	-69.782	-0.169	-0.064
-312.953	-102.134	0.366	-0.088
-311.939	-29.817	0.062	0.035
-310.924	309.166	0.134	0.250
-309.910	-200.000	0.001	-0.247
-308.895	-85.436	-0.109	-0.034
-307.880	469.924	0.149	0.334
-306.866	-174.734	-0.422	0.012
-305.851	-200.000	0.043	-0.309
-304.837	-55.150	-0.270	-0.122
-303.822	112.958	0.053	-0.065
-302.807	527.644	-0.031	0.072
-301.793	800.000	0.125	0.387
-300.778	211.206	-0.082	-0.130
-299.764	-70.720	0.343	-0.129
-298.749	-200.000	0.044	-0.248
-297.735	67.915	-0.254	0.260
-296.720	107.208	0.031	-0.037
-295.705	-104.393	0.148	-0.034
-294.691	-200.000	0.015	0.352
-293.676	-148.734	0.209	0.017
-292.662	800.000	0.123	-0.352
-291.647	-41.394	0.234	-0.120
-290.632	-134.502	0.068	-0.008
-289.618	649.096	-0.097	-0.249
-288.603	-45.479	0.363	0.180
-287.589	-200.000	-0.003	-0.186
-286.574	97.317	-0.122	-0.140
-285.559	115.929	0.222	0.271
-284.545	-11.072	-0.149	0.099
-283.530	-34.466	-0.155	0.085
-282.516	-61.585	-0.252	-0.106
-281.501	-131.549	-0.024	-0.003
-280.486	-80.776	0.236	-0.078
-279.472	-140.694	0.483	0.050
-278.457	-54.500	0.161	-0.073
-277.443	-7.477	-0.126	-0.085
-276.428	800.000	0.100	-0.310
-275.413	800.000	0.066	0.249
-274.399	321.023	0.055	-0.104
-273.384	-200.000	0.020	-0.258
-272.370	-103.511	0.288	0.068
-271.355	-47.363	0.120	0.058
-270.340	-123.599	0.143	-0.023
-269.326	133.946	0.258	0.334
-268.311	-70.907	0.274	0.103
-267.297	22.407	0.232	0.189
-266.282	528.241	0.049	-0.115
-265.267	-27.367	0.436	0.253
-264.253	800.000	-0.079	0.224
-263.238	-144.542	0.348	-0.032
-262.224	344.682	0.127	0.249
-261.209	82.108	-0.180	-0.195
-260.195	-37.468	0.098	-0.052
-259.180	606.744	0.018	0.045
-258.165	17.547	-0.384	-0.305
-257.151	-200.000	0.017	-0.237
-256.136	-58.158	-0.205	-0.089
-255.122	141.136	0.047	0.062
-254.107	69.382	-0.095	-0.097
-253.092	-200.000	0.084	0.439
-252.078	-70.621	0.397	-0.150
-251.063	-129.026	-0.224	-0.031
-250.049	-200.000	0.016	0.090
-249.034	-106.952	-0.058	-0.013
-248.019	-71.779	-0.272	-0.101
-247.005	146.536	0.190	0.255
-245.990	-40.409	0.105	-0.054
-244.976	42.539	-0.267	-0.243
-243.961	-64.540	-0.070	-0.029
-242.946	119.849	0.304	0.376
-241.932	54.285	0.102	-0.098
-240.917	-11.790	-0.022	-0.014
-239.903	800.000	-0.048	0.162
-238.888	48.403	0.148	0.139
-237.873	418.392	-0.074	-0.159
-236.859	-49.807	0.166	0.079
-235.844	-79.457	-0.198	0.067
-234.830	800.000	-0.024	0.088
-233.815	-173.107	0.137	-0.004
-232.800	249.139	-0.016	0.026
-231.786	-147.869	0.014	0.001
-230.771	-79.707	0.309	-0.104
-229.757	-67.715	0.067	0.026
-228.742	266.820	0.088	-0.154
-227.727	-176.253	-0.252	-0.007
-226.713	171.950	0.067	0.096
-225.698	-118.819	-0.160	0.028
-224.684	121.369	-0.239	0.297
-223.669	107.193	-0.157	-0.186
-222.655	-119.952	0.392	0.067
-221.640	-42.095	0.021	0.011
-220.625	74.900	0.184	0.194
-219.611	36.581	-0.200	-0.176
-218.596	-50.931	0.237	-0.111
-217.582	150.064	-0.037	-0.050
-216.567	59.883	0.026	0.025
-215.552	543.183	0.030	0.072
-214.538	-117.369	-0.244	0.044
-213.523	-124.677	0.279	0.043
-212.509	-187.678	0.230	0.003
-211.494	663.469	0.094	-0.241
-210.479	-99.653	0.101	-0.025
-209.465	-146.699	0.423	-0.037
-208.450	-68.698	0.242	-0.093
-207.436	40.940	0.167	-0.150
-206.421	-46.644	0.299	-0.146
-205.406	-53.621	0.096	-0.044
-204.392	800.000	-0.064	0.201
-203.377	82.893	-0.200	0.217
-202.363	1.706	-0.091	-0.065
-201.348	-17.448	0.411	-0.258
-200.333	-103.506	0.167	-0.039
-199.319	-79.001	-0.200	-0.068
-198.304	-71.281	-0.233	0.087
-197.290	66.807	0.252	-0.255
-196.275	14.118	0.312	0.242
-195.260	-104.667	-0.018	-0.004
-194.246	-90.973	0.166	0.048
-193.231	-47.971	0.252	-0.121
-192.217	69.125	-0.108	0.110
-191.202	-200.000	-0.019	0.100
-190.187	-2.311	-0.058	0.040
-189.173	-129.437	-0.133	0.018
-188.158	-200.000	0.066	0.296
-187.144	-92.834	-0.320	0.089
-186.129	-61.080	-0.051	-0.021
-185.114	800.000	0.024	0.085
-184.100	-17.042	-0.130	-0.082
-183.085	170.996	-0.057	0.082
-182.071	19.082	0.155	-0.124
-181.056	205.411	-0.006	0.010
-180.042	-50.753	-0.129	-0.060
-179.027	-200.000	0.019	-0.135
-178.012	310.370	-0.172	-0.321
-176.998	-200.000	-0.019	-0.288
-175.983	31.857	0.130	-0.112
-174.969	125.677	-0.220	-0.276
-173.954	141.587	0.107	-0.141
-172.939	-30.838	-0.180	0.102
-171.925	-25.798	-0.013	-0.008
-170.910	-200.000	-0.031	0.365
-169.896	405.326	-0.052	0.109
-168.881	-95.281	-0.082	0.022
-167.866	28.221	-0.147	0.124
-166.852	-200.000	-0.019	-0.172
-165.837	31.976	-0.223	-0.191
-164.823	-200.000	0.002	-0.139
-163.808	398.117	0.175	0.364
-162.793	800.000	0.045	-0.171
-161.779	-22.078	-0.219	-0.132
-160.764	-200.000	-0.001	-0.074
-159.750	231.790	-0.055	-0.090
-158.735	-63.993	0.226	-0.092
-157.720	-124.953	0.093	-0.014
-156.706	468.788	0.013	-0.030
-155.691	-97.783	-0.261	-0.067
-154.677	658.559	0.146	0.374
-153.662	-45.832	-0.212	0.104
-152.647	-200.000	-0.033	-0.217
-151.633	-85.915	-0.089	-0.028
-150.618	166.941	0.099	-0.139
-149.604	263.241	0.084	0.146
-148.589	408.776	-0.115	-0.241
-147.574	62.863	0.139	0.138
-146.560	-50.477	-0.362	0.170
-145.545	-136.148	0.227	0.026
-144.531	-200.000	0.037	-0.163
-143.516	-200.000	0.041	-0.411
-142.502	53.574	-0.304	-0.290
-141.487	120.866	0.260	0.321
-140.472	-75.961	-0.213	0.075
-139.458	800.000	-0.147	-0.421
-138.443	50.374	0.191	0.179
-137.429	-200.000	0.018	-0.100
-136.414	-71.546	0.199	-0.074
-135.399	323.052	0.223	0.423
-134.385	-60.606	0.253	0.107
-133.370	-125.054	-0.123	0.019
-132.356	-93.062	-0.229	-0.063
-131.341	64.792	0.124	0.124
-130.326	-127.784	-0.365	0.052
-129.312	143.416	0.126	-0.167
-128.297	-200.000	-0.041	0.349
-127.283	-200.000	0.012	-0.075
-126.268	49.228	0.251	0.234
-125.253	21.711	0.180	-0.146
-124.239	-200.000	-0.026	-0.170
-123.224	-74.194	0.226	0.081
-122.210	-175.286	0.144	0.004
-121.195	-36.543	0.254	-0.136
-120.180	-85.532	0.144	0.044
-119.166	211.630	0.157	0.245
-118.151	-73.958	-0.257	-0.092
-117.137	-200.000	0.001	-0.087
-116.122	-66.872	-0.277	-0.109
-115.107	95.108	0.127	0.144
-114.093	88.202	0.302	-0.333
-113.078	-200.000	0.045	-0.243
-112.064	-127.250	0.221	0.032
-111.049	-106.579	-0.327	0.072
-110.034	-200.000	0.020	-0.144
-109.020	-137.246	0.169	0.019
-108.005	98.514	0.033	0.038
-106.991	283.970	-0.157	0.280
-105.976	800.000	0.051	0.172
-104.962	-105.017	0.203	-0.046
-103.947	-149.726	0.227	0.018
-102.932	-76.798	0.202	-0.070
-101.918	-200.000	0.043	-0.217
-100.903	-92.325	-0.056	0.016
-99.889	-124.122	-0.156	0.024
-98.874	-200.000	-0.042	-0.238
-97.859	-3.806	0.093	0.064
-96.845	-200.000	-0.036	0.190
-95.830	-200.000	-0.025	-0.128
-94.816	-85.456	0.139	-0.043
-93.801	227.861	-0.102	-0.165
-92.786	741.885	0.092	0.244
-91.772	-200.000	-0.003	0.129
-90.757	235.687	-0.094	0.153
-89.743	48.186	-0.167	0.155
-88.728	-71.366	0.258	0.096
-87.713	800.000	-0.031	-0.088
-86.699	81.818	-0.133	0.143
-85.684	800.000	0.023	-0.064
-84.670	-40.147	0.163	0.084
-83.655	82.706	0.222	0.239
-82.640	-109.073	-0.101	-0.021
-81.626	-200.000	-0.015	0.118
-80.611	-58.728	0.108	-0.047
-79.597	-200.000	-0.036	-0.322
-78.582	15.556	-0.233	0.182
-77.567	113.858	0.132	0.159
-76.553	800.000	-0.052	0.144
-75.538	96.876	0.160	0.182
-74.524	118.092	0.255	0.312
-73.509	-85.149	-0.407	-0.126
-72.494	695.602	-0.099	0.259
-71.480	-200.000	-0.183	0.000
-70.465	-96.381	0.295	0.077
-69.451	-150.454	0.274	0.021
-68.436	-20.902	-0.060	-0.037
-67.422	74.327	-0.131	-0.137
-66.407	-42.179	0.387	-0.196
-65.392	130.090	0.060	-0.076
-64.378	-98.565	0.347	0.088
-63.363	-131.106	0.079	-0.010
-62.349	212.759	0.124	-0.194
-61.334	133.183	-0.642	-0.822
-60.319	273.033	0.281	0.492
-59.305	-200.000	0.069	-0.660
-58.290	270.652	0.455	0.793
-57.276	568.451	0.646	1.555
-56.261	-200.000	84.221	495.827
-55.246	535.835	1382.292	3249.630
-54.232	183.090	2614.885	3825.680
-53.217	113.146	2359.043	2834.319
-52.203	46.717	1967.337	1810.161
-51.188	41.067	1753.517	1568.976
-50.173	38.311	1707.862	1506.863
-49.159	53.039	1748.596	1657.808
-48.144	56.907	1767.750	1706.041
-47.130	41.032	1728.297	1545.889
-46.115	38.022	1713.792	1509.618
-45.100	37.864	1708.808	1503.952
-44.086	37.854	1705.831	1501.191
-43.071	37.807	1703.607	1498.816
-42.057	37.730	1701.205	1496.051
-41.042	37.762	1698.752	1494.082
-40.027	37.742	1697.043	1492.360
-39.013	37.746	1695.204	1490.720
-37.998	37.677	1693.669	1488.783
-36.984	37.836	1691.781	1488.275
-35.969	37.997	1690.463	1488.287
-34.954	37.993	1688.707	1486.650
-33.940	37.991	1686.860	1484.951
-32.925	37.995	1685.058	1483.332
-31.911	37.894	1683.709	1481.324
-30.896	37.950	1681.651	1479.880
-29.881	38.072	1679.924	1479.222
-28.867	37.933	1678.794	1477.113
-27.852	37.940	1677.408	1475.893
-26.838	37.907	1675.828	1474.190
-25.823	37.994	1674.216	1473.377
-24.809	38.025	1672.809	1472.311
-23.794	37.968	1671.390	1470.574
-22.779	37.915	1669.728	1468.653
-21.765	37.956	1668.308	1467.653
-20.750	37.946	1666.296	1465.749
-19.736	37.926	1665.606	1464.938
-18.721	38.028	1663.533	1463.822
-17.706	37.968	1662.232	1462.165
-16.692	37.993	1660.289	1460.586
-15.677	37.983	1659.286	1459.574
-14.663	37.992	1657.927	1458.386
-13.648	37.966	1656.244	1456.656
-12.633	37.967	1655.244	1455.723
-11.619	38.019	1653.021	1454.098
-10.604	38.003	1651.392	1452.488
-9.590	37.933	1650.214	1450.872
-8.575	37.945	1649.550	1450.320
-7.560	37.939	1647.770	1448.657
-6.546	37.828	1647.435	1447.480
-5.531	37.894	1645.908	1446.572
-4.517	37.809	1644.526	1444.668
-3.502	37.911	1643.420	1444.396
-2.487	38.045	1641.388	1443.545
-1.473	38.086	1630.953	1434.612
-0.458	36.049	1611.978	1403.045
0.556	34.050	1612.219	1371.156
1.571	31.492	1636.778	1373.167
2.586	30.425	1650.329	1376.507
3.600	26.149	1593.736	1298.508
4.615	15.345	1475.374	1129.605
5.629	6.466	1404.835	1018.337
6.644	5.026	1395.743	1002.406
7.659	5.031	1394.314	1001.325
8.673	4.894	1393.027	999.432
9.688	4.958	1391.691	998.796
10.702	4.819	1388.994	995.882
11.717	8.771	1396.891	1026.831
12.731	18.093	1414.540	1099.971
13.746	22.692	1420.690	1134.303
14.761	21.231	1416.583	1121.548
15.775	19.958	1413.644	1110.961
16.790	18.882	1411.160	1102.016
17.804	17.984	1408.918	1094.417
18.819	17.692	1406.997	1090.954
19.834	17.424	1405.630	1088.090
20.848	17.213	1404.638	1085.874
21.863	16.968	1402.938	1082.901
22.877	16.905	1401.999	1081.678
23.892	16.901	1401.137	1080.893
24.907	16.804	1400.821	1079.932
25.921	16.805	1399.645	1078.938
26.936	16.862	1398.476	1078.304
27.950	16.902	1397.759	1077.908
28.965	17.028	1396.770	1077.851
29.980	17.027	1395.405	1076.696
30.994	17.102	1394.693	1076.531
32.009	17.196	1393.068	1075.771
33.023	17.200	1391.725	1074.666
34.038	17.058	1390.460	1072.698
35.053	17.055	1389.465	1071.817
36.067	17.056	1387.907	1070.526
37.082	16.950	1387.594	1069.523
38.096	16.856	1386.806	1068.228
39.111	17.080	1386.020	1068.936
40.126	16.999	1384.600	1067.236
41.140	16.836	1383.818	1065.520
42.155	16.721	1383.254	1064.264
43.169	16.725	1383.105	1064.080
44.184	16.676	1382.671	1063.344
45.199	16.717	1381.966	1062.967
46.213	16.735	1381.716	1062.793
47.228	16.890	1380.762	1062.939
48.242	16.879	1379.745	1061.993
49.257	16.966	1378.081	1061.161
50.271	16.915	1376.741	1059.720
51.286	16.942	1375.365	1058.733
52.301	16.956	1374.187	1057.817
53.315	16.937	1372.603	1056.388
54.330	16.782	1371.862	1054.757
55.344	16.800	1370.636	1053.833
56.359	16.844	1369.382	1053.049
57.374	16.716	1368.787	1051.703
58.388	16.664	1367.921	1050.628
59.403	16.620	1367.499	1049.931
60.417	16.787	1366.086	1049.794
61.432	16.545	1365.832	1048.002
62.447	16.477	1364.799	1046.698
63.461	16.543	1363.287	1045.855
64.476	16.477	1362.178	1044.505
65.490	16.484	1361.206	1043.710
66.505	16.581	1359.283	1042.739
67.520	16.630	1357.922	1041.904
68.534	16.516	1357.049	1040.439
69.549	16.569	1356.288	1040.091
70.563	16.515	1354.943	1038.635
71.578	16.443	1354.036	1037.407
72.593	16.411	1353.047	1036.360
73.607	16.497	1351.624	1035.704
74.622	16.397	1351.242	1034.710
75.636	16.350	1350.936	1034.099
76.651	16.459	1350.208	1034.114
77.666	16.374	1350.002	1033.344
78.680	16.518	1349.203	1033.523
79.695	16.434	1348.754	1032.572
80.709	16.629	1347.568	1032.762
81.724	16.658	1346.718	1032.197
82.739	16.747	1345.934	1032.048
83.753	16.825	1345.512	1032.109
84.768	16.969	1344.068	1031.783
85.782	17.072	1342.874	1031.407
86.797	16.960	1341.778	1029.790
87.812	16.879	1340.260	1028.046
88.826	16.766	1339.347	1026.569
89.841	16.892	1338.410	1026.523
90.855	16.965	1337.724	1026.349
91.870	17.042	1336.242	1025.584
92.884	17.032	1335.465	1024.837
93.899	17.102	1334.365	1024.326
94.914	17.138	1334.034	1024.194
95.928	17.055	1333.112	1022.899
96.943	17.063	1331.758	1021.818
97.957	16.948	1331.125	1020.546
98.972	16.927	1329.696	1019.238
99.987	16.973	1328.800	1018.735
101.001	16.950	1327.899	1017.815
102.016	17.073	1327.053	1017.813
103.030	16.981	1326.347	1016.630
104.045	16.989	1325.131	1015.658
105.060	16.902	1324.232	1014.357
106.074	16.805	1322.361	1012.257
107.089	16.568	1321.066	1009.760
108.103	16.594	1319.547	1008.668
109.118	16.632	1318.109	1007.706
110.133	16.613	1317.235	1006.833
111.147	16.593	1315.776	1005.511
112.162	16.699	1314.148	1004.808
113.176	16.713	1313.176	1004.060
114.191	16.780	1312.502	1003.851
115.206	16.768	1311.393	1002.843
116.220	16.668	1310.049	1001.132
117.235	16.746	1308.813	1000.564
118.249	16.806	1307.812	1000.064
119.264	16.715	1306.649	998.550
120.279	16.618	1305.721	997.177
121.293	16.582	1304.663	996.070
122.308	16.444	1303.675	994.415
123.322	16.532	1302.599	994.027
124.337	16.485	1301.348	992.708
125.352	16.555	1300.095	992.073
126.366	16.543	1299.166	991.208
127.381	16.488	1298.364	990.184
128.395	16.662	1296.881	989.987
129.410	16.672	1296.194	989.431
130.424	16.675	1295.315	988.687
131.439	16.627	1294.476	987.680
132.454	16.713	1293.804	987.581
133.468	16.777	1292.991	987.246
134.483	16.789	1292.205	986.628
135.497	16.747	1291.436	985.711
136.512	16.812	1290.054	984.950
137.527	16.725	1288.253	982.979
138.541	16.938	1286.563	982.841
139.556	16.829	1285.648	981.419
140.570	16.896	1284.919	981.163
141.585	17.069	1283.334	980.868
142.600	17.077	1282.426	980.136
143.614	17.073	1281.506	979.321
144.629	17.104	1280.785	978.863
145.643	17.051	1279.388	977.401
146.658	17.082	1277.644	976.161
147.673	16.972	1276.283	974.401
148.687	16.899	1275.072	972.976
149.702	16.741	1273.714	970.944
150.716	16.734	1272.835	970.150
151.731	16.840	1271.499	969.655
152.746	16.848	1270.510	968.858
153.760	16.852	1269.754	968.216
154.775	16.896	1268.552	967.467
155.789	16.937	1266.895	966.350
156.804	16.940	1265.963	965.575
157.819	16.953	1265.413	965.144
158.833	17.086	1264.144	964.844
159.848	17.239	1262.943	964.708
160.862	17.203	1261.734	963.501
161.877	17.074	1260.838	961.997
162.892	16.998	1259.498	960.458
163.906	16.803	1258.729	958.684
164.921	16.867	1258.274	958.616
165.935	16.903	1256.870	957.665
166.950	16.999	1256.062	957.509
167.964	16.939	1255.490	956.648
168.979	16.919	1254.674	955.829
169.994	16.940	1254.129	955.448
171.008	17.028	1253.121	955.091
172.023	17.109	1252.385	954.898
173.037	17.141	1251.765	954.524
174.052	17.131	1250.755	953.612
175.067	17.143	1249.462	952.606
176.081	16.950	1248.708	950.868
177.096	16.957	1247.739	950.085
178.110	16.985	1246.459	949.184
179.125	17.005	1245.279	948.310
180.140	17.075	1244.319	947.890
181.154	17.086	1243.179	946.995
182.169	17.132	1241.857	946.160
183.183	17.189	1241.134	945.848
184.198	17.260	1239.646	945.024
185.213	17.257	1238.269	943.871
186.227	17.314	1237.227	943.311
187.242	17.218	1236.620	942.231
188.256	17.365	1235.329	941.982
189.271	17.351	1234.655	941.304
190.286	17.238	1233.199	939.488
191.300	17.055	1232.034	937.507
192.315	16.878	1231.698	936.189
193.329	16.955	1231.114	936.089
194.344	17.010	1230.610	935.924
195.359	17.124	1229.678	935.763
196.373	17.139	1229.290	935.469
197.388	17.285	1228.956	935.933
198.402	17.316	1228.822	935.918
199.417	17.468	1228.005	936.048
200.432	17.603	1226.963	935.915
201.446	17.583	1226.093	935.058
202.461	17.589	1225.248	934.363
203.475	17.636	1224.408	933.899
204.490	17.492	1222.999	931.954
205.504	17.481	1221.740	930.850
206.519	17.501	1220.089	929.617
207.534	17.411	1219.077	928.278
208.548	17.387	1218.350	927.506
209.563	17.471	1217.444	927.194
210.577	17.489	1216.514	926.501
211.592	17.549	1216.062	926.401
212.607	17.631	1215.054	926.000
213.621	17.698	1213.780	925.307
214.636	17.576	1213.258	924.168
215.650	17.572	1212.167	923.230
216.665	17.602	1211.678	922.940
217.680	17.784	1210.312	922.802
218.694	17.805	1209.884	922.508
219.709	17.690	1209.242	921.319
220.723	17.745	1208.286	920.805
221.738	17.651	1207.569	919.670
222.753	17.729	1206.349	919.077
223.767	17.836	1206.128	919.408
224.782	17.844	1205.131	918.607
225.796	17.904	1204.928	918.692
226.811	17.854	1204.220	917.802
227.826	17.824	1203.146	916.742
228.840	17.776	1202.420	915.848
229.855	17.736	1201.624	914.948
230.869	17.813	1200.686	914.566
231.884	17.812	1199.831	913.828
232.899	17.583	1198.768	911.711
233.913	17.690	1198.090	911.689
234.928	17.668	1197.387	910.954
235.942	17.573	1197.117	910.160
236.957	17.697	1195.547	909.550
237.972	17.666	1195.000	908.890
238.986	17.792	1194.534	909.124
240.001	17.730	1193.569	907.980
241.015	17.769	1192.509	907.298
242.030	17.772	1191.989	906.839
243.045	17.751	1191.499	906.276
244.059	17.816	1190.923	906.104
245.074	17.824	1189.943	905.317
246.088	17.978	1188.716	905.120
247.103	18.078	1187.919	904.963
248.117	18.102	1187.385	904.603
249.132	18.100	1186.849	904.105
250.147	18.240	1186.719	904.666
251.161	18.459	1185.415	904.748
252.176	18.341	1185.021	903.747
253.190	18.342	1184.626	903.368
254.205	18.356	1184.374	903.169
255.220	18.428	1183.296	902.648
256.234	18.420	1182.637	902.024
257.249	18.555	1181.311	901.643
258.263	18.468	1181.443	901.205
259.278	18.500	1180.249	900.382
260.293	18.542	1179.989	900.324
261.307	18.520	1179.236	899.556
262.322	18.495	1179.058	899.211
263.336	18.679	1178.067	899.340
264.351	18.663	1177.238	898.541
265.366	18.608	1176.763	897.812
266.380	18.617	1176.007	897.204
267.395	18.647	1174.853	896.400
268.409	18.556	1174.479	895.562
269.424	18.555	1173.731	894.905
270.439	18.534	1173.274	894.367
271.453	18.545	1172.352	893.642
272.468	18.474	1171.383	892.459
273.482	18.426	1170.962	891.805
274.497	18.557	1169.875	891.581
275.512	18.606	1169.035	891.115
276.526	18.485	1168.663	890.125
277.541	18.390	1167.845	888.931
278.555	18.507	1166.848	888.700
279.570	18.595	1166.239	888.611
280.585	18.845	1165.472	889.247
281.599	18.863	1164.413	888.449
282.614	18.755	1163.324	886.986
283.628	18.654	1162.646	885.868
284.643	18.632	1161.414	884.738
285.657	18.694	1160.686	884.423
286.672	18.683	1159.669	883.511
287.687	18.656	1158.583	882.470
288.701	18.733	1158.083	882.407
289.716	18.686	1157.156	881.379
290.730	18.743	1156.519	881.111
291.745	18.844	1155.503	880.776
292.760	18.773	1155.241	880.132
293.774	18.833	1154.674	879.930
294.789	18.886	1153.964	879.582
295.803	18.895	1153.390	879.113
296.818	18.812	1153.012	878.323
297.833	18.806	1151.681	877.201
298.847	18.878	1150.832	876.847
299.862	18.839	1150.074	875.990
300.876	18.862	1149.418	875.529
301.891	18.973	1148.833	875.572
302.906	18.861	1148.306	874.524
303.920	19.132	1147.959	875.562
304.935	19.160	1147.132	874.994
305.949	19.212	1146.297	874.545
306.964	19.222	1145.693	874.059
307.979	19.223	1144.409	873.007
308.993	19.211	1143.847	872.436
310.008	19.208	1143.007	871.706
311.022	19.347	1142.380	871.853
312.037	19.204	1141.467	870.358
313.052	19.228	1140.348	869.545
314.066	18.955	1139.653	867.561
315.081	18.991	1138.640	866.898
316.095	18.935	1138.150	866.164
317.110	18.948	1137.134	865.381
318.125	19.047	1136.428	865.263
319.139	19.036	1135.747	864.614
320.154	19.075	1134.759	863.981
321.168	19.036	1134.852	863.779
322.183	19.086	1133.666	863.051
323.197	19.124	1133.159	862.782
324.212	19.055	1132.884	862.149
325.227	19.044	1132.451	861.686
326.241	19.173	1131.556	861.576
327.256	19.184	1130.247	860.558
328.270	19.160	1129.775	860.002
329.285	19.067	1129.024	858.892
330.300	19.103	1128.358	858.486
331.314	19.082	1127.046	857.309
332.329	19.170	1126.021	856.890
333.343	19.197	1124.928	856.117
334.358	19.280	1124.360	856.024
335.373	19.432	1123.700	856.199
336.387	19.389	1123.146	855.486
337.402	19.383	1122.266	854.709
338.416	19.468	1121.525	854.492
339.431	19.395	1121.102	853.733
340.446	19.519	1120.371	853.715
341.460	19.555	1119.960	853.502
342.475	19.645	1118.937	853.092
343.489	19.528	1117.845	851.608
344.504	19.619	1116.611	851.041
345.519	19.674	1116.435	851.103
346.533	19.717	1115.220	850.313
347.548	19.803	1114.636	850.214
348.562	19.773	1113.544	849.160
349.577	19.668	1112.990	848.147
350.592	19.552	1112.149	846.860
351.606	19.631	1111.225	846.471
352.621	19.489	1110.491	845.141
353.635	19.378	1110.151	844.263
354.650	19.525	1109.063	844.078
355.665	19.644	1108.489	844.149
356.679	19.606	1108.144	843.626
357.694	19.592	1107.250	842.803
358.708	19.674	1106.774	842.764
359.723	19.726	1106.070	842.411
360.738	19.776	1105.318	842.004
361.752	19.712	1104.619	841.085
362.767	19.651	1104.358	840.516
363.781	19.683	1103.929	840.271
364.796	19.930	1102.892	840.610
365.810	20.037	1102.637	840.860
366.825	19.966	1102.198	840.103
367.840	19.997	1101.437	839.598
368.854	20.115	1101.037	839.793
369.869	20.173	1100.132	839.309
370.883	20.149	1098.767	838.078
371.898	19.983	1098.248	836.806
372.913	19.988	1097.723	836.357
373.927	19.928	1097.514	835.833
374.942	20.165	1096.696	836.279
375.956	20.083	1096.161	835.399
376.971	20.100	1095.486	834.894
377.986	20.122	1095.120	834.650
379.000	20.233	1094.535	834.664
380.015	20.197	1094.036	834.034
381.029	20.360	1092.998	833.954
382.044	20.198	1092.883	833.015
383.059	20.242	1091.509	832.101
384.073	20.249	1091.265	831.878
385.088	20.330	1089.957	831.197
386.102	20.349	1089.062	830.530
387.117	20.325	1087.746	829.338
388.132	20.227	1086.995	828.224
389.146	20.104	1086.191	826.952
390.161	20.106	1085.603	826.439
391.175	20.140	1085.185	826.210
392.190	20.054	1084.646	825.319
393.205	20.300	1083.583	825.604
394.219	20.348	1082.649	825.050
395.234	20.267	1082.012	824.105
396.248	20.206	1080.642	822.701
397.263	20.260	1079.236	821.813
398.278	20.247	1078.872	821.404
399.292	20.177	1078.090	820.404
400.307	20.140	1077.479	819.691
401.321	20.052	1077.183	818.976
402.336	20.188	1076.320	818.888
403.350	20.138	1075.525	817.976
404.365	20.083	1074.913	817.182
405.380	20.291	1073.986	817.381
406.394	20.171	1073.712	816.536
407.409	20.359	1072.805	816.658
408.423	20.410	1072.312	816.450
409.438	20.538	1071.166	816.108
410.453	20.608	1070.597	815.931
411.467	20.573	1069.952	815.203
412.482	20.661	1069.606	815.277
413.496	20.741	1068.693	814.886
414.511	20.810	1067.977	814.588
415.526	20.799	1067.677	814.240
416.540	20.859	1067.065	813.979
417.555	20.845	1066.798	813.637
418.569	20.727	1066.390	812.703
419.584	20.766	1065.511	812.143
420.599	20.717	1065.336	811.711
421.613	148.397	1399.644	1778.325
422.628	136.546	1448.365	1778.467
