DTS Sentinel unit serial number:	SN413079Multiplexer serial number:	ORYXHardware model number:	OX4-SRSoftware version number:	ORYX F/W v4.00 Oryx Data Collector v3.7.2.0data status	okinstallation	princeton_trtdifferential loss correction	single-endedforward channel	channel 2reverse channel	N/Adate	2019/09/17time	22:35:34forward acquisition time	60.00reverse acquisition time	0.00gamma	496.2192k internal	0.2344k external	0.2344temperature offset calibration	0.9980default loss term (dB/km)	0.3790temperature slope calibration	1.0000multiplexer offset coefficient	1.0000multiplexer slope coefficient	1.0000fibre end	0.00T internal ref (°C)	25.23T ext. ref 1 (°C)	0.17T ext. ref 2 (°C)	18.52length (m)	temperature (°C)	Stokes	anti-Stokes-747.200	-66.192	-0.096	0.038
-746.185	695.464	-0.031	0.081
-745.171	399.026	0.039	-0.081
-744.156	-200.000	0.004	0.282
-743.142	143.335	0.071	0.094
-742.127	15.901	-0.277	0.218
-741.112	229.117	-0.140	0.229
-740.098	218.544	0.109	-0.175
-739.083	-138.880	-0.242	-0.026
-738.069	-9.068	0.058	0.039
-737.054	-6.366	-0.103	-0.070
-736.039	43.737	-0.132	-0.121
-735.025	-116.937	0.345	0.063
-734.010	800.000	-0.007	-0.028
-732.996	464.793	-0.136	-0.305
-731.981	-53.136	-0.195	-0.090
-730.966	-37.890	0.117	0.062
-729.952	274.665	-0.187	-0.331
-728.937	-75.501	-0.300	-0.107
-727.923	-200.000	-0.070	0.410
-726.908	-115.008	-0.158	0.030
-725.894	-75.043	0.116	-0.042
-724.879	122.461	-0.241	-0.302
-723.864	-27.043	0.128	-0.074
-722.850	800.000	0.051	0.178
-721.835	-200.000	0.046	0.415
-720.821	18.574	-0.206	-0.164
-719.806	284.695	-0.136	-0.244
-718.791	145.354	-0.144	-0.193
-717.777	-111.106	0.465	-0.095
-716.762	75.142	-0.218	-0.229
-715.748	-61.479	0.138	-0.058
-714.733	-200.000	-0.038	-0.355
-713.718	-9.037	-0.163	0.109
-712.704	-17.939	0.216	-0.135
-711.689	261.707	0.174	0.301
-710.675	39.709	-0.305	0.274
-709.660	227.882	0.163	0.265
-708.645	90.150	-0.193	0.216
-707.631	-65.138	-0.369	0.149
-706.616	-124.739	-0.146	-0.023
-705.602	72.766	-0.130	0.135
-704.587	53.555	0.312	-0.299
-703.572	112.886	0.055	-0.067
-702.558	133.252	0.226	0.292
-701.543	-41.391	-0.258	0.133
-700.529	-200.000	-0.030	-0.207
-699.514	-69.603	0.099	0.038
-698.499	57.565	0.231	0.225
-697.485	800.000	0.040	0.171
-696.470	-151.950	0.159	-0.012
-695.456	-200.000	0.023	-0.127
-694.441	-27.644	-0.218	-0.126
-693.426	-56.339	0.277	0.123
-692.412	-200.000	-0.016	0.106
-691.397	-107.586	-0.190	-0.041
-690.383	-72.412	-0.487	-0.180
-689.368	68.556	0.103	0.106
-688.354	198.094	-0.123	0.187
-687.339	-21.840	-0.188	-0.114
-686.324	-200.000	0.018	-0.128
-685.310	108.821	-0.066	0.079
-684.295	63.254	0.194	-0.194
-683.281	-200.000	-0.005	-0.200
-682.266	-75.425	-0.293	0.104
-681.251	306.155	0.165	0.307
-680.237	122.991	-0.024	0.030
-679.222	-30.521	0.247	-0.140
-678.208	-58.221	-0.156	-0.068
-677.193	325.505	0.059	0.112
-676.178	118.710	-0.221	-0.273
-675.164	-58.732	-0.262	-0.113
-674.149	800.000	-0.015	0.060
-673.135	372.750	-0.055	0.113
-672.120	191.780	-0.150	-0.225
-671.105	-200.000	-0.003	0.047
-670.091	117.162	0.215	0.264
-669.076	-97.832	-0.220	-0.057
-668.062	-200.000	-0.012	0.052
-667.047	327.866	-0.149	-0.286
-666.032	208.252	0.145	0.226
-665.018	-114.268	0.104	-0.020
-664.003	-58.758	-0.448	0.193
-662.989	632.389	-0.033	-0.083
-661.974	81.179	0.056	-0.060
-660.959	490.105	-0.157	-0.358
-659.945	193.819	0.117	0.176
-658.930	-92.643	-0.096	-0.027
-657.916	-200.000	-0.006	-0.125
-656.901	-94.478	0.053	0.014
-655.886	470.373	0.045	0.100
-654.872	310.320	-0.031	0.057
-653.857	-0.398	-0.087	0.062
-652.843	127.769	0.288	0.365
-651.828	800.000	-0.050	0.198
-650.814	144.846	-0.148	0.197
-649.799	-75.074	0.194	-0.069
-648.784	800.000	0.139	-0.417
-647.770	40.041	0.093	-0.083
-646.755	-21.691	-0.290	-0.176
-645.741	-66.806	0.400	-0.158
-644.726	-22.072	0.138	-0.083
-643.711	121.658	0.150	-0.186
-642.697	-200.000	-0.003	-0.072
-641.682	107.319	-0.054	0.065
-640.668	-200.000	-0.021	0.151
-639.653	-83.090	-0.329	-0.106
-638.638	-13.455	-0.095	-0.061
-637.624	-200.000	0.045	-0.240
-636.609	-200.000	0.043	0.197
-635.595	-135.877	-0.167	0.020
-634.580	-74.772	0.111	0.040
-633.565	451.076	0.189	-0.415
-632.551	-75.175	0.029	0.010
-631.536	-15.894	-0.124	-0.079
-630.522	800.000	-0.056	-0.227
-629.507	-200.000	-0.010	0.053
-628.492	800.000	-0.025	-0.103
-627.478	-131.818	-0.131	-0.017
-626.463	148.581	-0.143	0.192
-625.449	234.850	-0.159	-0.262
-624.434	-120.893	0.062	-0.010
-623.419	-75.042	0.151	0.054
-622.405	-91.346	0.150	0.043
-621.390	92.076	0.123	-0.138
-620.376	-30.210	0.168	0.095
-619.361	-1.408	-0.279	-0.196
-618.346	10.847	-0.078	-0.059
-617.332	800.000	-0.104	-0.299
-616.317	126.322	-0.122	-0.154
-615.303	-200.000	-0.027	-0.232
-614.288	7.699	0.243	-0.181
-613.273	-142.884	-0.207	-0.020
-612.259	-91.811	-0.203	0.057
-611.244	-87.770	0.251	-0.075
-610.230	-108.191	-0.198	-0.043
-609.215	227.979	0.174	-0.282
-608.201	-200.000	-0.020	-0.281
-607.186	-44.336	-0.279	-0.139
-606.171	185.372	-0.076	0.113
-605.157	98.653	0.138	0.159
-604.142	-57.275	-0.234	-0.103
-603.128	289.031	0.129	0.232
-602.113	800.000	0.052	-0.159
-601.098	-77.383	-0.244	0.084
-600.084	-152.482	-0.140	-0.010
-599.069	-74.479	-0.261	0.094
-598.055	-0.348	0.185	0.131
-597.040	-45.623	-0.146	0.072
-596.025	232.827	0.128	-0.209
-595.011	-88.204	0.185	-0.055
-593.996	117.642	-0.023	-0.028
-592.982	-127.008	-0.226	0.033
-591.967	129.294	-0.124	-0.157
-590.952	455.225	0.007	0.016
-589.938	71.439	0.395	0.407
-588.923	171.757	0.047	0.067
-587.909	-200.000	-0.056	0.318
-586.894	307.686	0.075	-0.140
-585.879	-46.598	0.187	0.091
-584.865	-148.485	-0.095	0.008
-583.850	-131.647	0.137	0.018
-582.836	-137.101	0.303	-0.034
-581.821	113.738	-0.031	-0.037
-580.806	-200.000	-0.059	0.285
-579.792	-200.000	-0.059	-0.268
-578.777	-39.751	0.255	0.133
-577.763	-18.529	-0.376	-0.233
-576.748	41.648	-0.112	-0.101
-575.733	148.117	0.100	-0.134
-574.719	323.102	0.163	-0.308
-573.704	296.086	0.090	-0.164
-572.690	-107.111	0.051	0.011
-571.675	-21.495	0.170	0.103
-570.661	800.000	-0.085	0.315
-569.646	45.819	0.066	0.061
-568.631	379.364	-0.050	0.101
-567.617	131.991	-0.168	-0.215
-566.602	-200.000	0.019	-0.301
-565.588	181.224	0.118	-0.173
-564.573	353.994	0.135	0.267
-563.558	-57.192	0.393	-0.172
-562.544	-62.858	-0.303	-0.125
-561.529	81.431	-0.270	-0.290
-560.515	-200.000	-0.016	-0.115
-559.500	800.000	-0.088	-0.377
-558.485	-76.439	0.265	-0.093
-557.471	106.621	-0.204	0.240
-556.456	-68.642	-0.512	0.197
-555.442	-64.276	0.158	-0.064
-554.427	-95.259	-0.250	-0.067
-553.412	158.332	-0.144	-0.198
-552.398	-79.374	-0.225	-0.075
-551.383	-200.000	-0.014	0.256
-550.369	-155.023	0.239	-0.016
-549.354	-82.428	-0.149	-0.048
-548.339	-200.000	-0.050	-0.262
-547.325	-17.874	-0.269	-0.168
-546.310	159.516	0.156	0.216
-545.296	800.000	-0.034	-0.127
-544.281	-36.620	0.245	-0.131
-543.266	-200.000	0.098	-0.471
-542.252	40.402	0.405	0.362
-541.237	-5.147	-0.076	0.052
-540.223	215.880	0.089	-0.140
-539.208	223.911	-0.159	0.255
-538.193	-31.960	-0.042	-0.024
-537.179	-40.362	0.317	0.164
-536.164	-200.000	-0.022	0.260
-535.150	-59.729	0.300	-0.128
-534.135	-200.000	0.016	0.097
-533.121	27.737	0.203	0.170
-532.106	108.666	-0.149	0.176
-531.091	-89.077	0.281	-0.082
-530.077	185.472	-0.091	-0.134
-529.062	-74.252	-0.143	-0.051
-528.048	-200.000	-0.002	0.063
-527.033	-200.000	-0.010	-0.127
-526.018	122.645	-0.239	0.297
-525.004	-18.026	-0.151	0.094
-523.989	208.563	-0.096	-0.148
-522.975	-7.526	0.075	-0.050
-521.960	-16.519	0.361	-0.227
-520.945	-200.000	-0.047	-0.230
-519.931	62.074	0.068	0.067
-518.916	-99.067	0.060	-0.015
-517.902	699.344	0.030	0.078
-516.887	800.000	0.075	-0.282
-515.872	-149.260	0.095	-0.008
-514.858	366.062	0.014	0.028
-513.843	-133.460	-0.126	-0.016
-512.829	487.185	0.097	0.220
-511.814	151.671	-0.182	0.246
-510.799	3.785	-0.147	-0.106
-509.785	-56.512	0.108	0.048
-508.770	-56.327	-0.166	0.073
-507.756	-200.000	0.017	-0.158
-506.741	90.841	-0.157	0.174
-505.726	-59.128	0.166	-0.071
-504.712	226.363	-0.120	0.192
-503.697	-153.378	-0.327	-0.023
-502.683	173.086	-0.213	-0.304
-501.668	87.044	0.104	-0.114
-500.653	-200.000	0.022	0.205
-499.639	-200.000	-0.038	0.246
-498.624	-200.000	-0.054	-0.248
-497.610	660.931	-0.010	0.025
-496.595	-101.609	-0.223	0.054
-495.581	-165.714	-0.114	-0.005
-494.566	-10.424	-0.093	-0.061
-493.551	36.264	-0.070	0.061
-492.537	36.331	0.102	-0.089
-491.522	341.934	0.114	-0.222
-490.508	276.858	-0.171	-0.302
-489.493	-200.000	-0.065	-0.303
-488.478	37.990	-0.084	0.074
-487.464	-12.835	0.168	0.109
-486.449	76.850	-0.164	-0.173
-485.435	800.000	-0.028	-0.084
-484.420	-59.054	0.090	0.039
-483.405	800.000	0.062	0.176
-482.391	0.008	0.230	-0.162
-481.376	-185.575	0.306	-0.005
-480.362	253.816	-0.058	-0.098
-479.347	374.377	-0.088	-0.177
-478.332	-101.040	-0.125	-0.030
-477.318	-182.733	0.306	-0.005
-476.303	800.000	0.116	0.447
-475.289	800.000	0.100	0.307
-474.274	-130.800	0.033	0.004
-473.259	-59.748	0.229	0.097
-472.245	-5.299	-0.279	-0.190
-471.230	800.000	0.159	0.443
-470.216	-200.000	0.001	0.159
-469.201	-45.539	-0.306	0.150
-468.186	507.264	0.204	-0.469
-467.172	-143.526	0.239	-0.023
-466.157	-146.326	-0.209	-0.018
-465.143	800.000	-0.145	-0.448
-464.128	125.677	-0.130	0.162
-463.113	228.904	0.114	0.184
-462.099	716.916	-0.089	0.233
-461.084	-7.432	0.276	0.185
-460.070	-200.000	-0.038	0.227
-459.055	408.035	0.117	-0.244
-458.040	70.052	-0.129	0.132
-457.026	-19.058	0.269	0.166
-456.011	75.105	-0.237	0.247
-454.997	-164.225	0.147	0.007
-453.982	583.591	0.105	0.255
-452.968	-0.285	-0.231	-0.163
-451.953	346.700	-0.007	0.013
-450.938	177.569	0.109	-0.157
-449.924	-71.807	0.210	-0.077
-448.909	-67.180	-0.218	-0.085
-447.895	-96.700	0.383	-0.100
-446.880	-200.000	-0.008	-0.049
-445.865	449.980	-0.099	-0.217
-444.851	-200.000	0.081	-0.443
-443.836	-94.786	0.257	0.069
-442.822	493.927	-0.103	-0.234
-441.807	-193.160	0.241	-0.002
-440.792	208.215	0.146	-0.226
-439.778	-142.352	0.219	-0.021
-438.763	-38.270	-0.158	-0.083
-437.749	303.891	-0.044	0.081
-436.734	-200.000	-0.025	-0.276
-435.719	-200.000	-0.011	-0.203
-434.705	-70.755	-0.135	-0.050
-433.690	132.092	0.306	0.390
-432.676	-37.125	-0.160	0.085
-431.661	368.396	0.061	-0.122
-430.646	-135.419	-0.064	-0.008
-429.632	-145.188	-0.417	-0.037
-428.617	-116.280	-0.243	0.044
-427.603	105.112	0.195	0.227
-426.588	-144.809	0.152	0.014
-425.573	-172.990	0.098	-0.003
-424.559	294.013	-0.109	-0.197
-423.544	-102.950	-0.058	0.014
-422.530	-104.313	0.307	-0.070
-421.515	-200.000	-0.075	-0.396
-420.500	-200.000	0.038	-0.277
-419.486	458.414	0.065	0.142
-418.471	800.000	-0.031	-0.117
-417.457	-14.172	-0.250	0.159
-416.442	90.254	0.395	0.437
-415.428	-145.563	-0.120	0.011
-414.413	-200.000	0.058	-0.399
-413.398	310.721	0.063	0.117
-412.384	-73.523	0.141	0.051
-411.369	54.935	0.315	0.300
-410.355	-76.873	0.209	0.072
-409.340	102.869	-0.108	0.125
-408.325	-113.441	0.051	0.010
-407.311	375.864	0.071	0.142
-406.296	132.898	0.118	-0.150
-405.282	-37.495	0.115	0.060
-404.267	10.970	0.367	0.277
-403.252	-200.000	0.071	0.331
-402.238	800.000	0.130	0.375
-401.223	283.582	-0.197	-0.349
-400.209	-64.822	-0.081	0.032
-399.194	-30.318	-0.096	0.054
-398.179	695.646	-0.131	0.340
-397.165	-49.075	0.286	0.135
-396.150	-200.000	0.023	0.230
-395.136	1.977	-0.094	0.067
-394.121	721.140	-0.012	0.032
-393.106	-200.000	0.030	-0.301
-392.092	80.884	-0.075	0.080
-391.077	800.000	-0.081	0.237
-390.063	-100.596	0.150	-0.036
-389.048	-200.000	0.033	0.266
-388.033	-119.247	0.244	0.042
-387.019	-83.432	0.286	-0.090
-386.004	61.861	-0.272	0.268
-384.990	-18.186	-0.364	0.225
-383.975	-145.371	0.267	-0.024
-382.960	166.176	0.226	0.316
-381.946	533.947	-0.077	0.180
-380.931	157.648	0.140	0.192
-379.917	-114.844	-0.290	-0.055
-378.902	-200.000	-0.002	-0.299
-377.888	75.384	-0.134	-0.139
-376.873	162.217	-0.060	0.083
-375.858	717.365	0.100	0.263
-374.844	-87.403	0.121	-0.036
-373.829	97.661	0.175	0.199
-372.815	-32.469	0.166	-0.091
-371.800	-73.620	0.152	0.055
-370.785	-50.347	0.350	0.163
-369.771	28.036	-0.211	0.175
-368.756	-7.456	0.193	0.129
-367.742	800.000	-0.041	-0.142
-366.727	-4.827	0.152	0.103
-365.712	85.841	-0.123	-0.133
-364.698	-1.250	-0.218	-0.152
-363.683	-92.574	0.132	0.036
-362.669	12.637	0.132	-0.100
-361.654	800.000	0.101	0.295
-360.639	-130.384	-0.034	0.005
-359.625	-200.000	0.007	-0.040
-358.610	302.068	-0.089	0.162
-357.596	-77.842	-0.328	-0.112
-356.581	-200.000	0.000	-0.289
-355.566	-131.889	0.361	0.046
-354.552	-200.000	-0.012	-0.201
-353.537	15.394	0.164	0.127
-352.523	-200.000	-0.055	-0.262
-351.508	434.628	0.041	-0.087
-350.493	280.715	-0.030	-0.053
-349.479	-200.000	0.031	-0.162
-348.464	800.000	-0.075	0.230
-347.450	-65.684	-0.314	-0.124
-346.435	-139.483	-0.261	-0.027
-345.420	800.000	0.164	-0.491
-344.406	-69.232	-0.285	0.108
-343.391	665.041	-0.035	-0.090
-342.377	-4.528	-0.238	0.162
-341.362	47.964	-0.062	0.057
-340.348	-24.925	0.034	-0.020
-339.333	320.515	0.072	0.135
-338.318	128.219	0.089	0.111
-337.304	-69.747	-0.322	-0.121
-336.289	657.024	0.154	0.389
-335.275	569.344	0.108	-0.257
-334.260	69.262	0.101	0.102
-333.245	225.605	-0.106	0.170
-332.231	-48.865	0.241	-0.114
-331.216	65.172	-0.096	-0.096
-330.202	-200.000	-0.009	-0.165
-329.187	59.825	-0.128	0.124
-328.172	-23.689	0.208	-0.123
-327.158	225.789	0.122	0.195
-326.143	-200.000	-0.036	-0.160
-325.129	-98.250	-0.203	0.051
-324.114	-200.000	0.015	0.114
-323.099	76.583	-0.078	0.081
-322.085	-24.987	-0.219	0.128
-321.070	-107.240	-0.203	0.044
-320.056	-5.808	0.256	-0.173
-319.041	301.255	-0.069	-0.126
-318.026	153.363	0.212	0.285
-317.012	800.000	0.031	0.125
-315.997	-36.253	-0.191	0.101
-314.983	-74.517	-0.312	0.110
-313.968	195.095	-0.100	0.150
-312.953	800.000	-0.014	-0.040
-311.939	-200.000	-0.032	0.212
-310.924	134.136	0.090	0.114
-309.910	-62.510	0.035	-0.014
-308.895	40.478	0.107	0.094
-307.880	-171.485	-0.293	0.010
-306.866	-55.619	0.097	0.043
-305.851	-92.036	-0.192	-0.053
-304.837	340.808	0.084	-0.162
-303.822	-62.424	0.206	0.084
-302.807	141.933	-0.103	0.134
-301.793	35.929	0.193	0.167
-300.778	-125.652	0.045	0.007
-299.764	108.852	0.464	0.546
-298.749	800.000	0.026	0.105
-297.735	-38.381	-0.045	-0.023
-296.720	-58.424	0.250	-0.107
-295.705	-84.525	0.302	0.094
-294.691	0.935	-0.446	0.314
-293.676	-200.000	-0.014	-0.150
-292.662	421.445	0.067	0.141
-291.647	800.000	-0.063	-0.207
-290.632	-117.600	0.162	0.029
-289.618	51.094	-0.139	0.130
-288.603	47.149	-0.232	0.212
-287.589	18.155	-0.142	0.111
-286.574	-110.669	-0.112	-0.023
-285.559	-200.000	-0.042	0.204
-284.545	-128.720	0.238	0.033
-283.530	800.000	-0.050	-0.187
-282.516	132.486	-0.032	0.041
-281.501	-28.399	-0.166	-0.094
-280.486	140.430	-0.140	0.181
-279.472	-200.000	0.036	0.258
-278.457	800.000	0.056	0.213
-277.443	295.053	-0.135	-0.243
-276.428	86.861	0.169	-0.184
-275.413	-200.000	-0.018	0.093
-274.399	-200.000	0.084	0.537
-273.384	-54.849	0.306	0.136
-272.370	-28.515	-0.284	-0.161
-271.355	-89.240	-0.505	0.146
-270.340	800.000	0.029	-0.121
-269.326	62.401	0.235	0.230
-268.311	-76.761	-0.121	0.042
-267.297	608.480	0.056	0.138
-266.282	505.038	0.055	0.124
-265.267	-200.000	-0.034	0.232
-264.253	623.064	0.121	0.299
-263.238	800.000	-0.082	0.350
-262.224	-200.000	-0.019	0.195
-261.209	-145.203	-0.244	-0.022
-260.195	58.302	-0.136	-0.131
-259.180	24.392	0.305	0.248
-258.165	-200.000	-0.021	0.270
-257.151	-200.000	-0.022	0.155
-256.136	-200.000	0.003	0.105
-255.122	-27.050	0.090	0.052
-254.107	-200.000	0.016	0.122
-253.092	800.000	0.064	-0.187
-252.078	228.281	-0.169	-0.271
-251.063	12.025	0.138	-0.104
-250.049	-200.000	-0.027	-0.246
-249.034	800.000	-0.059	0.235
-248.019	109.475	-0.109	0.128
-247.005	-200.000	-0.028	-0.194
-245.990	-8.928	0.296	-0.194
-244.976	-200.000	-0.001	0.173
-243.961	108.695	0.061	0.072
-242.946	4.477	0.170	-0.123
-241.932	-84.852	0.102	0.032
-240.917	264.644	0.133	0.228
-239.903	109.608	-0.241	0.284
-238.888	800.000	-0.100	0.287
-237.873	-82.988	0.325	-0.103
-236.859	-167.912	-0.542	0.021
-235.844	7.913	-0.174	0.128
-234.830	391.975	-0.201	-0.409
-233.815	-34.054	-0.259	-0.140
-232.800	58.388	0.071	0.068
-231.786	590.071	0.106	-0.256
-230.771	-200.000	0.002	0.045
-229.757	-200.000	-0.065	-0.334
-228.742	-90.532	0.173	-0.049
-227.727	-200.000	0.037	-0.220
-226.713	425.309	-0.096	-0.202
-225.698	-147.221	-0.135	0.011
-224.684	635.881	-0.090	0.223
-223.669	-63.111	0.076	-0.031
-222.655	68.350	0.325	-0.326
-221.640	17.458	-0.148	-0.116
-220.625	-25.148	-0.065	0.037
-219.611	78.733	-0.210	0.221
-218.596	286.616	-0.059	0.105
-217.582	532.142	-0.090	-0.210
-216.567	-35.257	0.230	0.122
-215.552	-83.490	-0.074	-0.023
-214.538	-68.946	-0.207	0.078
-213.523	239.176	-0.183	0.298
-212.509	-180.006	-0.357	-0.007
-211.494	118.959	-0.111	-0.134
-210.479	-9.009	0.128	-0.084
-209.465	800.000	0.115	0.363
-208.450	52.360	0.124	0.115
-207.436	-102.840	0.114	-0.027
-206.421	66.197	0.062	0.062
-205.406	400.417	0.035	-0.072
-204.392	-151.503	0.101	-0.007
-203.377	-135.496	0.199	0.023
-202.363	290.506	0.095	-0.169
-201.348	-169.705	0.050	0.002
-200.333	452.218	-0.084	0.181
-199.319	56.927	-0.140	0.134
-198.304	-200.000	0.013	-0.148
-197.290	54.838	-0.272	0.257
-196.275	789.129	0.115	-0.308
-195.260	-200.000	0.011	-0.046
-194.246	-110.458	-0.162	0.033
-193.231	-200.000	0.013	-0.130
-192.217	-10.477	-0.283	0.184
-191.202	-200.000	0.157	-0.000
-190.187	-78.486	-0.213	-0.071
-189.173	-65.727	-0.122	0.048
-188.158	-32.714	0.090	-0.049
-187.144	22.560	-0.324	-0.259
-186.129	-120.849	-0.098	0.016
-185.114	-2.644	-0.342	-0.234
-184.100	800.000	0.036	0.124
-183.085	-200.000	-0.006	-0.149
-182.071	-155.471	-0.121	0.008
-181.056	-76.704	0.198	0.068
-180.042	-200.000	-0.053	-0.408
-179.027	-8.032	-0.345	-0.228
-178.012	-200.000	0.061	-0.287
-176.998	-155.041	-0.501	0.032
-175.983	-77.596	-0.195	-0.066
-174.969	-200.000	-0.030	-0.235
-173.954	-94.657	0.234	0.062
-172.939	800.000	-0.106	0.294
-171.925	-200.000	-0.041	0.195
-170.910	97.647	0.214	0.241
-169.896	51.570	-0.185	0.172
-168.881	25.837	0.272	-0.222
-167.866	124.704	0.382	-0.470
-166.852	184.342	0.299	-0.433
-165.837	68.631	-0.086	-0.086
-164.823	188.856	-0.109	-0.159
-163.808	-121.971	0.165	-0.027
-162.793	-115.336	0.149	0.028
-161.779	259.716	-0.217	-0.366
-160.764	352.550	-0.137	0.265
-159.750	-149.064	0.182	-0.014
-158.735	191.329	-0.054	0.079
-157.720	-70.114	-0.296	-0.110
-156.706	-122.057	0.377	0.061
-155.691	73.819	0.096	-0.098
-154.677	800.000	0.083	0.283
-153.662	-200.000	-0.006	-0.255
-152.647	-200.000	-0.008	0.118
-151.633	-200.000	-0.013	-0.060
-150.618	-0.358	0.097	0.067
-149.604	-34.387	0.301	0.161
-148.589	14.831	0.292	-0.223
-147.574	-141.340	-0.425	-0.042
-146.560	-127.314	-0.245	-0.035
-145.545	128.894	-0.141	-0.176
-144.531	-98.282	-0.086	-0.022
-143.516	169.801	0.181	0.253
-142.502	-31.929	-0.194	-0.106
-141.487	98.015	-0.135	0.152
-140.472	-41.953	0.111	0.056
-139.458	800.000	0.122	0.415
-138.443	589.752	-0.049	0.119
-137.429	800.000	-0.062	-0.178
-136.414	-200.000	0.054	-0.283
-135.399	800.000	-0.049	-0.186
-134.385	-200.000	-0.007	0.111
-133.370	-200.000	0.052	0.266
-132.356	-200.000	0.022	-0.252
-131.341	198.080	0.106	0.158
-130.326	-97.560	0.173	-0.044
-129.312	765.906	-0.061	-0.162
-128.297	-200.000	-0.038	-0.225
-127.283	36.215	0.123	0.106
-126.268	102.308	0.253	-0.288
-125.253	-80.835	-0.244	0.079
-124.239	161.526	0.232	-0.317
-123.224	-47.631	-0.127	-0.060
-122.210	-144.426	-0.136	0.012
-121.195	-22.697	-0.154	0.091
-120.180	-200.000	0.040	-0.224
-119.166	-172.399	0.409	0.013
-118.151	205.342	-0.110	-0.166
-117.137	-118.338	-0.092	0.016
-116.122	268.728	0.020	-0.034
-115.107	368.434	0.152	-0.301
-114.093	70.650	-0.144	-0.146
-113.078	-72.440	-0.060	-0.022
-112.064	-200.000	-0.022	0.287
-111.049	63.500	0.256	0.251
-110.034	-200.000	0.005	-0.129
-109.020	-55.951	-0.058	0.025
-108.005	32.557	0.411	0.347
-106.991	7.848	-0.305	0.223
-105.976	430.001	-0.094	-0.199
-104.962	593.014	-0.101	0.245
-103.947	-200.000	-0.015	-0.139
-102.932	56.289	0.221	0.210
-101.918	282.646	0.106	-0.186
-100.903	-147.596	-0.168	-0.014
-99.889	-200.000	0.062	-0.279
-98.874	204.625	-0.134	-0.203
-97.859	157.737	-0.078	0.106
-96.845	161.909	0.078	0.107
-95.830	-184.720	0.142	-0.002
-94.816	-200.000	0.014	-0.358
-93.801	634.617	-0.050	0.124
-92.786	4.073	-0.177	-0.126
-91.772	800.000	-0.031	-0.132
-90.757	-75.928	0.165	-0.057
-89.743	46.576	-0.216	0.196
-88.728	-52.679	0.102	0.046
-87.713	777.328	0.126	-0.336
-86.699	-200.000	0.028	-0.341
-85.684	-124.116	-0.141	-0.022
-84.670	800.000	0.030	0.104
-83.655	800.000	-0.027	0.099
-82.640	-176.307	-0.051	0.001
-81.626	-146.292	0.161	0.014
-80.611	800.000	-0.047	0.163
-79.597	5.257	0.113	-0.081
-78.582	-6.241	-0.143	0.095
-77.567	128.801	0.218	0.271
-76.553	-64.166	-0.091	0.036
-75.538	-200.000	-0.054	-0.263
-74.524	551.032	-0.073	-0.172
-73.509	-64.811	-0.397	-0.157
-72.494	800.000	0.039	-0.132
-71.480	533.273	-0.038	-0.088
-70.465	800.000	0.095	0.355
-69.451	-200.000	0.038	0.425
-68.436	230.497	-0.109	-0.173
-67.422	-200.000	0.011	0.152
-66.407	103.986	0.344	0.394
-65.392	-39.463	0.248	0.127
-64.378	-200.000	-0.020	-0.105
-63.363	33.458	0.238	-0.202
-62.349	54.278	-0.140	0.131
-61.334	78.384	-1.010	-1.051
-60.319	27.896	0.642	0.527
-59.305	489.716	-0.553	-1.231
-58.290	215.436	0.877	1.356
-57.276	645.305	0.626	1.557
-56.261	-200.000	118.738	610.407
-55.246	409.835	1530.306	3158.647
-54.232	147.883	2688.577	3531.131
-53.217	91.461	2264.993	2478.763
-52.203	33.724	1879.817	1592.432
-51.188	28.212	1676.711	1378.933
-50.173	26.015	1637.288	1330.269
-49.159	44.679	1702.047	1524.300
-48.144	43.511	1715.054	1527.069
-47.130	27.725	1668.071	1367.954
-46.115	25.388	1652.842	1338.025
-45.100	25.153	1648.117	1332.403
-44.086	25.057	1646.164	1330.055
-43.071	25.096	1643.372	1328.036
-42.057	25.156	1640.828	1326.370
-41.042	25.095	1638.941	1324.346
-40.027	25.144	1637.320	1323.344
-39.013	25.128	1635.247	1321.501
-37.998	25.151	1633.787	1320.434
-36.984	25.057	1632.556	1318.699
-35.969	25.188	1630.984	1318.339
-34.954	25.200	1629.239	1316.960
-33.940	25.224	1627.467	1315.657
-32.925	25.154	1626.429	1314.251
-31.911	25.212	1624.834	1313.330
-30.896	25.182	1623.432	1311.930
-29.881	25.241	1621.360	1310.632
-28.867	25.204	1619.724	1308.986
-27.852	25.220	1618.454	1308.027
-26.838	25.101	1617.332	1306.201
-25.823	25.305	1615.252	1305.953
-24.809	25.315	1614.379	1305.269
-23.794	25.294	1612.882	1303.854
-22.779	25.324	1611.294	1302.738
-21.765	25.275	1609.838	1301.149
-20.750	25.163	1608.595	1299.285
-19.736	25.281	1607.328	1299.062
-18.721	25.268	1605.932	1297.792
-17.706	25.218	1604.689	1296.371
-16.692	25.326	1602.649	1295.456
-15.677	25.271	1601.425	1294.018
-14.663	25.283	1599.708	1292.662
-13.648	25.284	1598.432	1291.588
-12.633	25.244	1597.308	1290.339
-11.619	25.307	1595.097	1288.954
-10.604	25.254	1594.139	1287.749
-9.590	25.407	1592.406	1287.393
-8.575	25.326	1591.573	1286.093
-7.560	25.269	1590.441	1284.720
-6.546	25.242	1589.405	1283.635
-5.531	25.291	1588.528	1283.228
-4.517	25.237	1587.237	1281.744
-3.502	25.263	1586.282	1281.113
-2.487	25.332	1584.045	1279.741
-1.473	24.840	1571.859	1266.369
-0.458	21.731	1552.651	1229.075
0.556	16.386	1552.824	1195.765
1.571	13.975	1575.763	1195.987
2.586	13.625	1587.360	1202.143
3.600	12.569	1533.661	1153.970
4.615	6.926	1429.611	1038.598
5.629	1.358	1370.297	960.284
6.644	0.236	1362.854	947.922
7.659	0.171	1362.074	946.888
8.673	0.166	1360.911	945.966
9.688	0.126	1358.871	944.211
10.702	-0.070	1355.731	940.718
11.717	2.788	1359.456	961.138
12.731	9.923	1370.011	1013.426
13.746	15.494	1378.537	1054.730
14.761	16.932	1379.181	1064.160
15.775	16.137	1377.153	1057.518
16.790	15.138	1374.784	1049.351
17.804	14.400	1372.388	1042.814
18.819	14.062	1371.212	1039.714
19.834	13.792	1369.982	1037.002
20.848	13.518	1369.225	1034.622
21.863	13.358	1367.138	1031.959
22.877	13.194	1365.881	1029.894
23.892	13.135	1365.335	1029.022
24.907	13.099	1364.355	1027.972
25.921	13.170	1363.264	1027.499
26.936	13.198	1362.675	1027.137
27.950	13.254	1361.363	1026.410
28.965	13.266	1360.739	1025.920
29.980	13.336	1359.801	1025.558
30.994	13.343	1358.723	1024.697
32.009	13.372	1357.752	1024.052
33.023	13.529	1356.045	1023.642
34.038	13.444	1355.029	1022.259
35.053	13.356	1354.104	1020.931
36.067	13.291	1353.062	1019.654
37.082	13.390	1352.022	1019.388
38.096	13.337	1351.571	1018.630
39.111	13.355	1350.349	1017.733
40.126	13.269	1349.802	1016.702
41.140	13.158	1348.869	1015.227
42.155	13.183	1347.974	1014.615
43.169	13.122	1348.166	1014.295
44.184	13.228	1347.912	1014.669
45.199	13.211	1347.048	1013.824
46.213	13.147	1346.849	1013.193
47.228	13.273	1345.341	1012.741
48.242	13.274	1344.576	1012.079
49.257	13.191	1343.099	1010.371
50.271	13.218	1341.562	1009.288
51.286	13.304	1340.265	1008.751
52.301	13.258	1338.897	1007.350
53.315	13.188	1338.163	1006.283
54.330	13.227	1337.107	1005.639
55.344	13.165	1336.398	1004.635
56.359	13.172	1334.954	1003.508
57.374	13.163	1333.760	1002.467
58.388	13.158	1333.133	1001.877
59.403	13.121	1332.821	1001.327
60.417	13.113	1331.603	1000.275
61.432	13.105	1331.226	999.853
62.447	13.077	1330.027	998.698
63.461	13.020	1328.809	997.348
64.476	13.143	1327.638	997.123
65.490	12.997	1326.820	995.538
66.505	13.096	1325.009	994.691
67.520	13.006	1324.275	993.511
68.534	13.164	1323.051	993.456
69.549	13.038	1321.777	991.650
70.563	12.937	1321.158	990.493
71.578	13.086	1319.567	990.109
72.593	13.061	1318.258	988.889
73.607	13.008	1318.237	988.467
74.622	12.998	1317.233	987.568
75.636	12.930	1316.165	986.274
76.651	13.030	1315.253	986.101
77.666	12.905	1315.235	985.252
78.680	13.018	1314.920	985.601
79.695	13.081	1313.702	984.977
80.709	13.098	1312.828	984.338
81.724	13.127	1312.275	984.009
82.739	13.136	1311.038	983.050
83.753	13.184	1310.242	982.650
84.768	13.201	1309.345	981.990
85.782	13.346	1307.603	981.458
86.797	13.277	1306.909	980.438
87.812	13.220	1305.424	978.900
88.826	13.182	1304.244	977.705
89.841	13.229	1303.225	977.135
90.855	13.261	1302.547	976.725
91.870	13.285	1301.470	975.976
92.884	13.330	1300.622	975.518
93.899	13.282	1299.930	974.631
94.914	13.459	1298.854	974.782
95.928	13.370	1298.438	973.855
96.943	13.384	1297.306	973.002
97.957	13.353	1295.834	971.629
98.972	13.308	1295.399	970.956
99.987	13.283	1294.587	970.116
101.001	13.337	1293.097	969.227
102.016	13.379	1292.322	968.810
103.030	13.371	1291.364	967.959
104.045	13.371	1290.313	967.085
105.060	13.348	1288.948	965.842
106.074	13.233	1288.021	964.392
107.089	13.132	1286.840	962.833
108.103	13.205	1285.391	962.085
109.118	13.190	1284.413	961.182
110.133	13.202	1282.771	959.941
111.147	13.108	1281.791	958.573
112.162	13.176	1280.484	957.907
113.176	13.241	1279.551	957.498
114.191	13.215	1278.572	956.535
115.206	13.262	1277.561	955.961
116.220	13.190	1276.146	954.404
117.235	13.258	1275.020	953.872
118.249	13.252	1273.890	952.905
119.264	13.169	1273.033	951.701
120.279	13.217	1271.655	950.863
121.293	13.213	1270.730	950.068
122.308	13.125	1270.018	948.945
123.322	13.255	1268.762	948.669
124.337	13.158	1268.137	947.560
125.352	13.142	1266.715	946.320
126.366	13.270	1265.525	946.084
127.381	13.135	1264.589	944.529
128.395	13.118	1263.771	943.736
129.410	13.162	1262.799	943.176
130.424	13.199	1262.153	942.821
131.439	13.221	1261.065	942.049
132.454	13.262	1259.697	941.178
133.468	13.292	1258.723	940.541
134.483	13.218	1258.223	939.659
135.497	13.325	1256.917	939.209
136.512	13.257	1255.637	937.787
137.527	13.197	1254.577	936.572
138.541	13.197	1253.227	935.480
139.556	13.249	1251.636	934.504
140.570	13.329	1250.908	934.330
141.585	13.363	1249.616	933.471
142.600	13.311	1248.349	932.153
143.614	13.419	1247.908	932.348
144.629	13.401	1246.900	931.410
145.643	13.512	1245.669	931.035
146.658	13.418	1244.265	929.373
147.673	13.365	1242.990	928.041
148.687	13.305	1241.976	926.868
149.702	13.330	1240.518	925.835
150.716	13.424	1239.329	925.393
151.731	13.375	1238.160	924.166
152.746	13.453	1236.890	923.569
153.760	13.457	1235.418	922.409
154.775	13.485	1234.352	921.691
155.789	13.446	1233.461	920.728
156.804	13.417	1232.789	919.981
157.819	13.477	1231.414	919.207
158.833	13.518	1230.577	918.729
159.848	13.606	1229.297	918.180
160.862	13.566	1228.597	917.352
161.877	13.479	1227.086	915.664
162.892	13.517	1226.102	915.056
163.906	13.511	1225.159	914.241
164.921	13.464	1224.483	913.396
165.935	13.574	1223.487	913.177
166.950	13.630	1222.469	912.644
167.964	13.546	1221.980	911.735
168.979	13.549	1221.314	911.177
169.994	13.631	1220.380	910.851
171.008	13.538	1219.794	909.818
172.023	13.668	1218.628	909.586
173.037	13.689	1218.375	909.430
174.052	13.734	1216.929	908.518
175.067	13.597	1215.992	906.987
176.081	13.487	1215.248	905.750
177.096	13.688	1213.927	905.785
178.110	13.589	1213.153	904.582
179.125	13.595	1212.031	903.700
180.140	13.648	1210.954	903.108
181.154	13.655	1209.814	902.212
182.169	13.710	1208.431	901.401
183.183	13.703	1207.315	900.451
184.198	13.698	1206.199	899.514
185.213	13.724	1205.038	898.708
186.227	13.841	1204.018	898.501
187.242	13.818	1202.894	897.461
188.256	13.877	1202.201	897.180
189.271	13.909	1200.895	896.299
190.286	13.770	1200.232	894.975
191.300	13.698	1199.324	893.831
192.315	13.692	1198.514	893.115
193.329	13.569	1198.101	892.066
194.344	13.723	1197.474	892.349
195.359	13.726	1196.816	891.796
196.373	13.842	1196.285	891.945
197.388	13.806	1196.117	891.550
198.402	13.851	1195.332	891.128
199.417	13.963	1194.418	890.966
200.432	14.097	1193.338	890.802
201.446	14.093	1192.666	890.197
202.461	14.151	1191.630	889.656
203.475	14.106	1190.732	888.667
204.490	14.124	1189.691	887.910
205.504	14.070	1188.178	886.411
206.519	14.136	1186.826	885.676
207.534	13.954	1186.618	884.473
208.548	14.064	1185.258	883.968
209.563	14.034	1184.502	883.164
210.577	14.063	1183.902	882.794
211.592	14.126	1182.760	882.198
212.607	14.110	1182.166	881.591
213.621	14.144	1181.394	881.119
214.636	14.196	1180.157	880.393
215.650	14.133	1179.507	879.496
216.665	14.285	1178.243	879.280
217.680	14.299	1177.378	878.628
218.694	14.250	1176.925	877.957
219.709	14.361	1176.265	877.970
220.723	14.283	1175.325	876.780
221.738	14.126	1174.996	875.634
222.753	14.153	1173.992	874.947
223.767	14.233	1173.292	874.768
224.782	14.314	1172.679	874.663
225.796	14.444	1171.970	874.739
226.811	14.403	1171.211	873.875
227.826	14.352	1170.594	873.075
228.840	14.393	1169.590	872.461
229.855	14.450	1168.946	872.200
230.869	14.404	1167.923	871.122
231.884	14.314	1167.236	870.060
232.899	14.306	1167.090	869.834
233.913	14.404	1165.851	869.345
234.928	14.376	1164.769	868.314
235.942	14.342	1163.866	867.386
236.957	14.438	1163.152	867.278
237.972	14.363	1162.739	866.504
238.986	14.410	1161.960	866.090
240.001	14.381	1161.613	865.605
241.015	14.333	1160.200	864.226
242.030	14.429	1159.480	864.111
243.045	14.549	1158.941	864.254
244.059	14.536	1157.772	863.242
245.074	14.384	1157.404	862.102
246.088	14.516	1156.053	861.701
247.103	14.487	1155.506	861.069
248.117	14.539	1155.067	860.933
249.132	14.656	1153.950	860.627
250.147	14.740	1153.383	860.559
251.161	14.783	1152.519	860.064
252.176	14.774	1151.778	859.384
253.190	14.744	1151.536	858.978
254.205	14.768	1150.989	858.614
255.220	14.891	1150.271	858.635
256.234	14.855	1149.483	857.787
257.249	14.825	1148.853	857.085
258.263	14.883	1148.298	856.895
259.278	14.875	1147.761	856.377
260.293	15.006	1146.939	856.359
261.307	15.025	1146.316	855.915
262.322	15.027	1145.814	855.472
263.336	14.942	1145.444	854.688
264.351	14.868	1145.032	853.927
265.366	14.964	1144.013	853.583
266.380	15.076	1143.188	853.460
267.395	15.134	1142.039	852.824
268.409	15.002	1141.632	851.770
269.424	15.022	1141.085	851.391
270.439	14.981	1140.778	850.875
271.453	14.904	1140.131	849.925
272.468	14.999	1138.873	849.397
273.482	15.068	1138.263	849.217
274.497	15.078	1137.577	848.683
275.512	15.050	1136.871	847.937
276.526	15.084	1136.059	847.429
277.541	15.044	1135.546	846.769
278.555	15.156	1134.726	846.650
279.570	15.193	1134.118	846.308
280.585	15.298	1132.889	845.845
281.599	15.233	1132.168	844.904
282.614	15.148	1131.588	843.969
283.628	15.171	1130.220	842.988
284.643	15.186	1129.612	842.536
285.657	15.231	1128.810	842.090
286.672	15.210	1127.989	841.295
287.687	15.295	1126.904	840.838
288.701	15.118	1126.671	839.704
289.716	15.118	1125.950	839.090
290.730	15.315	1124.568	838.973
291.745	15.270	1124.329	838.497
292.760	15.268	1123.703	837.944
293.774	15.405	1122.685	837.796
294.789	15.538	1121.968	837.851
295.803	15.454	1121.315	836.870
296.818	15.437	1120.707	836.259
297.833	15.343	1120.399	835.482
298.847	15.383	1119.474	834.922
299.862	15.485	1118.324	834.493
300.876	15.571	1117.317	834.096
301.891	15.543	1117.209	833.802
302.906	15.558	1116.546	833.309
303.920	15.601	1115.927	832.985
304.935	15.646	1115.257	832.638
305.949	15.673	1114.408	832.063
306.964	15.714	1113.983	831.874
307.979	15.683	1112.858	830.809
308.993	15.688	1112.010	830.125
310.008	15.673	1111.344	829.482
311.022	15.637	1111.076	829.028
312.037	15.649	1110.095	828.283
313.052	15.745	1108.859	827.760
314.066	15.725	1108.161	827.070
315.081	15.650	1107.152	825.871
316.095	15.622	1107.220	825.712
317.110	15.537	1106.199	824.460
318.125	15.757	1105.291	824.793
319.139	15.691	1104.791	824.019
320.154	15.690	1103.793	823.198
321.168	15.684	1103.161	822.624
322.183	15.662	1102.507	821.956
323.197	15.749	1102.106	822.010
324.212	15.779	1101.407	821.565
325.227	15.795	1100.797	821.115
326.241	15.885	1100.090	820.951
327.256	15.791	1099.184	819.744
328.270	15.889	1097.785	819.106
329.285	15.759	1097.424	818.131
330.300	15.862	1096.523	817.890
331.314	15.786	1095.683	816.823
332.329	15.782	1095.007	816.226
333.343	15.833	1093.759	815.470
334.358	15.896	1093.019	815.153
335.373	15.967	1092.195	814.807
336.387	15.898	1091.723	814.051
337.402	16.059	1090.347	813.731
338.416	16.071	1090.033	813.481
339.431	16.040	1089.729	813.034
340.446	16.040	1088.990	812.411
341.460	16.086	1088.505	812.196
342.475	16.054	1087.543	811.253
343.489	16.047	1086.655	810.488
344.504	16.168	1085.576	810.192
345.519	16.214	1084.641	809.644
346.533	16.098	1084.258	808.726
347.548	16.165	1083.429	808.361
348.562	16.300	1082.248	808.054
349.577	16.270	1081.728	807.450
350.592	16.102	1081.482	806.390
351.606	16.168	1079.849	805.419
352.621	16.251	1079.283	805.321
353.635	16.144	1078.929	804.474
354.650	16.157	1078.384	804.057
355.665	16.252	1077.526	803.799
356.679	16.253	1077.141	803.445
357.694	16.327	1076.048	802.911
358.708	16.278	1075.831	802.447
359.723	16.301	1075.080	801.922
360.738	16.344	1074.377	801.532
361.752	16.334	1073.923	801.078
362.767	16.365	1073.516	800.849
363.781	16.339	1073.015	800.279
364.796	16.486	1072.278	800.356
365.810	16.411	1072.133	799.822
366.825	16.474	1071.350	799.466
367.840	16.593	1070.646	799.431
368.854	16.533	1069.847	798.481
369.869	16.564	1069.150	798.034
370.883	16.613	1068.154	797.453
371.898	16.549	1067.437	796.547
372.913	16.602	1066.941	796.353
373.927	16.558	1066.655	795.865
374.942	16.580	1065.785	795.246
375.956	16.676	1065.475	795.396
376.971	16.595	1064.969	794.568
377.986	16.760	1064.251	794.737
379.000	16.850	1063.455	794.493
380.015	16.806	1063.123	793.969
381.029	16.761	1062.490	793.216
382.044	16.767	1061.722	792.599
383.059	16.908	1060.929	792.599
384.073	16.794	1060.126	791.394
385.088	16.868	1059.369	791.105
386.102	16.831	1058.426	790.158
387.117	16.822	1057.534	789.381
388.132	16.743	1056.750	788.358
389.146	16.710	1055.866	787.473
390.161	16.743	1055.061	786.959
391.175	16.831	1054.582	786.941
392.190	16.905	1053.993	786.772
393.205	16.842	1053.090	785.736
394.219	16.795	1052.320	784.876
395.234	16.881	1051.339	784.472
396.248	16.864	1050.742	783.878
397.263	16.863	1049.479	782.865
398.278	16.747	1048.881	781.814
399.292	16.859	1048.285	781.814
400.307	16.939	1047.405	781.459
401.321	16.858	1046.831	780.587
402.336	16.915	1045.996	780.159
403.350	16.830	1045.798	779.550
404.365	16.926	1044.818	779.193
405.380	16.971	1044.303	778.948
406.394	17.097	1042.929	778.433
407.409	17.118	1042.219	777.930
408.423	17.078	1041.768	777.341
409.438	17.190	1041.224	777.377
410.453	17.237	1040.364	776.881
411.467	17.175	1039.664	776.007
412.482	17.151	1039.367	775.606
413.496	17.205	1038.603	775.215
414.511	17.294	1037.753	774.917
415.526	17.272	1037.492	774.553
416.540	17.321	1037.162	774.462
417.555	17.219	1036.602	773.513
418.569	17.269	1036.313	773.455
419.584	17.377	1035.600	773.345
420.599	17.390	1034.959	772.858
421.613	107.317	1327.350	1484.022
422.628	98.374	1369.889	1484.112
