DTS Sentinel unit serial number:	SN413079Multiplexer serial number:	ORYXHardware model number:	OX4-SRSoftware version number:	ORYX F/W v4.00 Oryx Data Collector v3.7.2.0data status	okinstallation	princeton_trtdifferential loss correction	single-endedforward channel	channel 2reverse channel	N/Adate	2019/09/18time	15:47:35forward acquisition time	60.00reverse acquisition time	0.00gamma	496.2192k internal	0.2312k external	0.2312temperature offset calibration	1.0005default loss term (dB/km)	0.3790temperature slope calibration	1.0000multiplexer offset coefficient	1.0000multiplexer slope coefficient	1.0000fibre end	0.00T internal ref (°C)	36.55T ext. ref 1 (°C)	0.78T ext. ref 2 (°C)	33.98length (m)	temperature (°C)	Stokes	anti-Stokes-747.200	-56.378	-0.030	0.014
-746.185	94.713	-0.031	-0.035
-745.171	104.627	0.241	-0.288
-744.156	-58.909	-0.038	0.017
-743.142	422.271	0.144	-0.314
-742.127	-36.273	-0.247	0.135
-741.112	800.000	-0.067	0.274
-740.098	-86.664	-0.137	0.042
-739.083	-98.195	-0.106	0.028
-738.069	240.364	0.013	-0.021
-737.054	93.579	-0.179	-0.206
-736.039	-200.000	-0.010	-0.135
-735.025	134.641	-0.204	-0.268
-734.010	-11.194	-0.369	-0.247
-732.996	-41.563	0.232	-0.121
-731.981	-200.000	-0.003	0.054
-730.966	800.000	0.040	-0.114
-729.952	-164.528	0.312	0.014
-728.937	176.430	0.070	-0.104
-727.923	-36.108	-0.162	0.088
-726.908	-152.635	0.186	-0.013
-725.894	503.718	-0.091	-0.213
-724.879	301.333	-0.206	-0.385
-723.864	53.866	0.078	0.076
-722.850	-87.058	0.317	0.098
-721.835	65.780	0.315	-0.323
-720.821	-16.847	0.224	-0.143
-719.806	-51.985	0.218	0.103
-718.791	-185.829	0.489	-0.007
-717.777	-8.821	-0.233	-0.159
-716.762	800.000	0.015	-0.065
-715.748	443.877	0.148	0.329
-714.733	-145.030	-0.312	-0.029
-713.718	-200.000	0.002	-0.348
-712.704	-84.467	-0.171	0.055
-711.689	112.294	-0.196	0.240
-710.675	26.842	-0.192	0.163
-709.660	-200.000	0.023	-0.183
-708.645	81.278	0.134	-0.146
-707.631	800.000	0.025	-0.085
-706.616	-154.326	-0.223	0.015
-705.602	-103.401	-0.132	-0.032
-704.587	436.480	0.079	-0.174
-703.572	800.000	-0.099	0.303
-702.558	-123.718	0.321	-0.052
-701.543	13.189	0.276	-0.216
-700.529	-38.890	0.152	0.081
-699.514	8.285	-0.206	0.157
-698.499	125.431	-0.255	0.326
-697.485	17.604	0.057	-0.046
-696.470	-163.536	0.262	-0.013
-695.456	-200.000	0.040	-0.344
-694.441	800.000	0.024	-0.078
-693.426	-25.770	0.111	-0.066
-692.412	-153.762	-0.339	-0.024
-691.397	-92.006	0.259	-0.074
-690.383	-200.000	0.029	-0.297
-689.368	800.000	0.038	-0.149
-688.354	-105.425	0.136	0.031
-687.339	80.158	-0.095	-0.103
-686.324	22.028	-0.160	0.133
-685.310	20.158	-0.105	0.086
-684.295	383.434	-0.091	-0.189
-683.281	-100.837	0.042	-0.010
-682.266	17.805	-0.105	0.085
-681.251	-200.000	-0.031	0.320
-680.237	-145.413	-0.057	-0.005
-679.222	-110.057	0.026	-0.006
-678.208	70.750	-0.154	-0.161
-677.193	155.156	0.223	0.311
-676.178	-200.000	0.011	-0.130
-675.164	-200.000	-0.011	-0.289
-674.149	-129.256	0.091	-0.013
-673.135	-96.338	0.184	0.049
-672.120	-160.459	-0.014	0.001
-671.105	-43.029	0.119	0.061
-670.091	127.174	0.271	-0.347
-669.076	149.644	-0.056	-0.077
-668.062	12.136	0.210	-0.164
-667.047	800.000	0.067	0.251
-666.032	-56.934	-0.186	-0.083
-665.018	20.431	-0.177	-0.145
-664.003	-16.902	0.189	0.121
-662.989	-200.000	-0.004	-0.303
-661.974	226.213	-0.153	-0.252
-660.959	-167.754	0.153	-0.006
-659.945	30.273	0.297	-0.256
-658.930	-92.089	0.313	0.089
-657.916	-21.995	0.239	0.147
-656.901	-170.362	-0.137	0.005
-655.886	-89.929	0.129	-0.038
-654.872	37.187	0.125	-0.112
-653.857	-170.939	-0.313	-0.011
-652.843	800.000	-0.090	-0.313
-651.828	241.286	0.047	-0.079
-650.814	800.000	0.024	0.080
-649.799	-7.110	-0.129	-0.089
-648.784	-200.000	0.010	-0.234
-647.770	35.356	0.242	-0.215
-646.755	372.647	0.121	0.249
-645.741	-200.000	0.051	-0.290
-644.726	-78.493	0.302	-0.104
-643.711	-116.933	-0.310	-0.057
-642.697	-200.000	-0.021	0.190
-641.682	-200.000	0.004	-0.332
-640.668	-66.336	-0.369	0.148
-639.653	-46.075	-0.171	-0.085
-638.638	-200.000	-0.005	0.404
-637.624	252.482	0.075	0.130
-636.609	169.339	0.114	0.165
-635.595	-18.822	-0.196	0.123
-634.580	240.251	-0.068	-0.114
-633.565	105.457	-0.067	0.080
-632.551	-136.482	-0.282	-0.033
-631.536	15.733	-0.270	-0.214
-630.522	-138.717	0.209	0.023
-629.507	-99.754	0.117	-0.030
-628.492	-133.309	-0.127	0.016
-627.478	-45.276	-0.460	-0.231
-626.463	130.311	0.198	0.257
-625.449	-161.921	-0.398	-0.020
-624.434	-45.968	-0.245	0.122
-623.419	22.688	-0.248	0.205
-622.405	-200.000	-0.072	0.513
-621.390	-200.000	0.013	0.167
-620.376	800.000	0.083	0.236
-619.361	-200.000	-0.048	0.239
-618.346	-134.284	-0.264	-0.033
-617.332	-85.312	0.403	-0.127
-616.317	-185.837	-0.141	-0.002
-615.303	-200.000	-0.022	0.366
-614.288	-114.123	-0.263	-0.051
-613.273	199.672	-0.095	0.147
-612.259	800.000	-0.038	0.125
-611.244	-77.858	0.130	-0.045
-610.230	-200.000	-0.043	-0.364
-609.215	-149.266	0.055	-0.004
-608.201	305.381	-0.082	-0.155
-607.186	57.380	0.110	-0.108
-606.171	167.656	-0.023	-0.033
-605.157	-200.000	-0.016	-0.121
-604.142	74.117	-0.092	-0.097
-603.128	281.969	-0.132	0.239
-602.113	20.440	-0.214	0.175
-601.098	-90.927	0.610	-0.177
-600.084	-42.162	-0.074	0.038
-599.069	-45.002	0.033	-0.016
-598.055	-67.987	0.298	0.117
-597.040	-149.691	-0.375	0.030
-596.025	800.000	0.025	-0.095
-595.011	126.405	0.080	0.102
-593.996	204.306	0.033	0.052
-592.982	475.118	-0.126	-0.288
-591.967	176.101	-0.061	-0.090
-590.952	163.722	0.152	0.216
-589.938	175.073	0.099	0.145
-588.923	800.000	-0.043	0.138
-587.909	-31.600	0.148	-0.084
-586.894	83.999	0.179	-0.198
-585.879	-23.158	0.196	0.119
-584.865	-7.639	0.338	0.231
-583.850	-13.679	-0.231	-0.151
-582.836	-100.930	-0.308	-0.076
-581.821	-26.370	0.470	-0.278
-580.806	556.317	-0.057	0.138
-579.792	257.727	-0.086	-0.149
-578.777	-200.000	-0.005	0.070
-577.763	800.000	-0.067	-0.217
-576.748	-109.823	0.044	-0.009
-575.733	79.144	0.029	0.031
-574.719	68.282	0.113	0.116
-573.704	7.829	0.337	-0.254
-572.690	8.536	0.092	0.070
-571.675	-200.000	-0.011	0.093
-570.661	-200.000	0.006	-0.035
-569.646	800.000	-0.114	-0.329
-568.631	-12.645	-0.254	-0.167
-567.617	258.017	-0.124	0.214
-566.602	800.000	-0.064	0.245
-565.588	-81.786	-0.200	-0.066
-564.573	163.981	0.099	0.140
-563.558	108.505	0.181	0.218
-562.544	-200.000	0.025	-0.186
-561.529	191.757	0.105	-0.160
-560.515	800.000	0.014	0.051
-559.500	573.749	0.055	0.136
-558.485	-72.422	0.472	-0.176
-557.471	800.000	0.039	0.159
-556.456	-50.778	0.227	-0.108
-555.442	-42.325	0.117	-0.060
-554.427	178.147	0.069	-0.101
-553.412	13.270	0.163	-0.127
-552.398	-200.000	-0.014	0.076
-551.383	-125.775	0.197	-0.030
-550.369	-96.081	-0.128	-0.034
-549.354	-199.335	-0.411	0.002
-548.339	-150.075	-0.157	-0.012
-547.325	-200.000	-0.049	0.547
-546.310	95.075	0.126	-0.144
-545.296	-87.617	0.058	-0.018
-544.281	25.787	-0.025	-0.021
-543.266	800.000	0.022	-0.070
-542.252	-200.000	0.034	-0.513
-541.237	-200.000	-0.002	-0.139
-540.223	-200.000	-0.006	0.075
-539.208	800.000	0.052	0.176
-538.193	-140.911	0.254	-0.026
-537.179	5.684	-0.373	-0.278
-536.164	-142.866	-0.059	-0.006
-535.150	-56.619	-0.234	-0.104
-534.135	800.000	0.010	0.030
-533.121	103.097	0.168	0.198
-532.106	255.160	0.164	-0.283
-531.091	140.779	-0.176	0.234
-530.077	92.398	-0.213	0.242
-529.062	-173.154	-0.143	0.004
-528.048	800.000	-0.055	-0.179
-527.033	-200.000	0.033	0.153
-526.018	-72.730	0.072	0.027
-525.004	-172.660	0.050	0.002
-523.989	800.000	-0.104	0.444
-522.975	-92.798	-0.412	0.116
-521.960	-76.778	-0.218	-0.077
-520.945	-148.090	0.216	-0.018
-519.931	369.128	0.081	0.164
-518.916	237.464	0.143	0.239
-517.902	112.885	0.032	0.039
-516.887	-128.884	-0.376	0.053
-515.872	800.000	0.105	0.298
-514.858	-89.523	-0.314	-0.093
-513.843	-112.018	0.245	-0.050
-512.829	800.000	0.107	0.346
-511.814	117.427	-0.242	0.299
-510.799	-200.000	-0.052	-0.258
-509.785	-200.000	-0.029	0.191
-508.770	-200.000	-0.032	-0.171
-507.756	262.523	0.136	0.238
-506.741	401.346	0.049	-0.104
-505.726	359.001	0.011	-0.022
-504.712	-173.229	-0.274	0.008
-503.697	-53.343	-0.410	-0.189
-502.683	-48.601	-0.354	-0.171
-501.668	-26.478	0.233	0.137
-500.653	32.983	-0.086	0.075
-499.639	-200.000	-0.015	-0.440
-498.624	800.000	-0.069	-0.266
-497.610	-83.392	0.221	0.071
-496.595	-200.000	-0.043	0.193
-495.581	114.362	0.131	0.161
-494.566	50.490	0.063	-0.060
-493.551	174.559	0.097	-0.141
-492.537	-161.231	-0.513	-0.027
-491.522	-200.000	0.001	0.289
-490.508	19.840	-0.166	0.134
-489.493	116.685	-0.185	-0.229
-488.478	22.917	-0.072	0.059
-487.464	206.926	-0.056	0.087
-486.449	1.050	0.151	0.109
-485.435	40.758	0.127	0.115
-484.420	11.140	0.285	0.219
-483.405	800.000	0.055	-0.211
-482.391	-192.144	0.211	0.002
-481.376	222.965	-0.093	0.150
-480.362	-198.747	0.258	0.001
-479.347	-7.295	-0.291	-0.198
-478.332	-157.345	-0.209	-0.013
-477.318	424.161	-0.021	-0.046
-476.303	-200.000	0.045	-0.359
-475.289	10.193	-0.162	0.123
-474.274	-200.000	0.449	0.001
-473.259	-89.779	-0.310	-0.091
-472.245	800.000	-0.108	-0.407
-471.230	-200.000	-0.019	0.087
-470.216	-84.232	0.115	-0.037
-469.201	-48.975	0.282	0.136
-468.186	-9.809	-0.117	-0.078
-467.172	-107.131	-0.433	0.096
-466.157	96.430	-0.203	0.233
-465.143	-200.000	-0.041	-0.182
-464.128	35.257	-0.041	-0.036
-463.113	459.598	-0.055	0.124
-462.099	595.682	-0.041	0.102
-461.084	98.694	0.182	0.211
-460.070	-200.000	-0.027	-0.149
-459.055	-88.079	-0.089	-0.027
-458.040	-37.096	-0.087	0.047
-457.026	-34.386	-0.285	-0.157
-456.011	206.555	0.055	-0.087
-454.997	-119.848	-0.075	-0.013
-453.982	-145.805	-0.373	-0.033
-452.968	112.982	0.198	-0.240
-451.953	51.113	-0.193	0.183
-450.938	-200.000	0.051	0.279
-449.924	-200.000	-0.040	-0.192
-448.909	800.000	0.034	-0.120
-447.895	9.082	0.375	0.284
-446.880	233.447	0.247	0.408
-445.865	-200.000	-0.036	0.202
-444.851	46.907	0.065	-0.061
-443.836	55.033	0.141	0.136
-442.822	-131.524	0.195	0.026
-441.807	233.151	-0.031	0.051
-440.792	145.178	0.182	0.244
-439.778	-123.739	0.199	-0.032
-438.763	-75.777	0.096	0.034
-437.749	-1.603	0.010	0.007
-436.734	83.266	0.146	-0.160
-435.719	65.089	-0.146	-0.148
-434.705	-200.000	0.026	0.156
-433.690	-62.034	-0.416	-0.174
-432.676	-128.289	-0.154	0.022
-431.661	99.696	-0.166	0.192
-430.646	-200.000	-0.020	-0.207
-429.632	8.472	0.299	-0.226
-428.617	713.032	0.096	0.255
-427.603	-200.000	0.051	-0.265
-426.588	393.823	0.054	-0.113
-425.573	-65.534	-0.132	0.053
-424.559	43.407	-0.148	0.136
-423.544	277.094	0.050	0.088
-422.530	224.374	0.036	-0.058
-421.515	-200.000	0.038	-0.217
-420.500	294.117	-0.153	-0.281
-419.486	237.364	-0.161	-0.268
-418.471	167.251	0.029	-0.041
-417.457	-200.000	-0.015	0.092
-416.442	61.430	0.236	0.235
-415.428	-27.275	0.139	-0.081
-414.413	359.586	0.140	0.281
-413.398	-188.332	0.145	-0.002
-412.384	197.871	0.073	0.112
-411.369	373.642	0.063	0.129
-410.355	-34.447	-0.027	0.015
-409.340	14.844	0.114	-0.089
-408.325	1.164	0.251	-0.180
-407.311	-200.000	0.004	0.025
-406.296	190.809	0.118	-0.177
-405.282	13.004	0.255	0.197
-404.267	800.000	0.069	-0.205
-403.252	248.458	0.135	-0.228
-402.238	-96.399	-0.205	-0.054
-401.223	-28.324	0.181	0.105
-400.209	397.210	-0.149	-0.313
-399.194	-55.642	0.104	-0.047
-398.179	315.723	0.231	0.437
-397.165	-68.881	0.162	-0.063
-396.150	-3.644	-0.140	0.097
-395.136	192.555	0.124	0.188
-394.121	-167.181	0.360	0.015
-393.106	-200.000	0.021	0.257
-392.092	91.369	-0.219	0.246
-391.077	800.000	-0.028	-0.096
-390.063	-111.188	-0.275	-0.056
-389.048	-200.000	0.024	0.136
-388.033	800.000	-0.068	0.230
-387.019	710.090	-0.100	-0.264
-386.004	21.098	-0.167	0.135
-384.990	-200.000	0.003	-0.203
-383.975	4.234	-0.108	-0.079
-382.960	375.584	-0.156	-0.319
-381.946	-36.891	-0.116	-0.062
-380.931	377.652	-0.129	-0.265
-379.917	-28.802	0.099	0.057
-378.902	-200.000	0.020	0.112
-377.888	72.147	-0.236	0.246
-376.873	-200.000	0.013	-0.165
-375.858	-200.000	-0.006	-0.220
-374.844	-12.977	0.494	-0.321
-373.829	-200.000	0.066	0.302
-372.815	-148.760	0.151	0.012
-371.800	403.107	-0.027	-0.057
-370.785	53.852	0.214	0.205
-369.771	40.737	-0.012	0.011
-368.756	-86.153	0.124	0.038
-367.742	-151.658	0.081	0.006
-366.727	-113.775	0.575	-0.112
-365.712	-4.670	0.102	-0.071
-364.698	800.000	-0.088	0.386
-363.683	-59.537	0.287	0.123
-362.669	6.041	0.300	0.222
-361.654	800.000	-0.067	-0.295
-360.639	-114.517	0.210	0.040
-359.625	-90.726	0.252	0.073
-358.610	800.000	0.031	0.129
-357.596	514.248	0.081	-0.189
-356.581	72.167	0.154	-0.160
-355.566	192.949	-0.143	-0.215
-354.552	146.243	0.208	0.279
-353.537	8.627	0.350	-0.263
-352.523	-63.099	-0.221	0.091
-351.508	800.000	-0.048	-0.158
-350.493	-107.111	0.384	-0.085
-349.479	-112.365	0.208	0.042
-348.464	295.130	-0.236	0.432
-347.450	-92.016	-0.184	-0.052
-346.435	-19.502	-0.219	-0.135
-345.420	-103.933	-0.417	-0.097
-344.406	-20.366	-0.251	-0.154
-343.391	-200.000	0.010	0.067
-342.377	-54.211	-0.328	0.149
-341.362	800.000	0.016	0.053
-340.348	-30.312	0.166	-0.094
-339.333	531.218	-0.080	-0.189
-338.318	-200.000	-0.048	0.241
-337.304	-200.000	-0.036	0.263
-336.289	323.474	0.079	0.151
-335.275	-102.195	0.167	-0.040
-334.260	-200.000	-0.006	-0.031
-333.245	-32.829	-0.161	-0.089
-332.231	-200.000	0.001	-0.047
-331.216	48.249	0.311	-0.290
-330.202	-60.486	0.173	-0.073
-329.187	-200.000	-0.037	-0.197
-328.172	-200.000	0.014	0.124
-327.158	782.002	-0.035	0.094
-326.143	88.138	0.135	-0.150
-325.129	-200.000	0.049	0.275
-324.114	16.943	0.065	-0.052
-323.099	-36.805	-0.135	-0.072
-322.085	-200.000	0.007	-0.114
-321.070	-81.562	-0.347	-0.114
-320.056	-200.000	-0.030	-0.294
-319.041	-145.516	0.185	-0.017
-318.026	-62.497	0.067	-0.028
-317.012	223.240	-0.052	0.084
-315.997	-88.742	0.225	-0.067
-314.983	800.000	0.051	0.172
-313.968	-189.431	0.080	-0.001
-312.953	-200.000	-0.003	0.241
-311.939	64.804	0.132	-0.132
-310.924	156.365	0.095	0.131
-309.910	345.494	0.138	-0.271
-308.895	80.300	-0.028	0.030
-307.880	-100.944	-0.158	-0.039
-306.866	-200.000	-0.034	-0.223
-305.851	-5.852	0.177	0.121
-304.837	-128.860	-0.227	0.032
-303.822	-154.355	0.218	-0.015
-302.807	-16.073	-0.271	-0.172
-301.793	90.503	0.111	-0.124
-300.778	-200.000	0.038	0.203
-299.764	164.480	0.253	-0.355
-298.749	13.541	-0.254	0.197
-297.735	31.679	0.124	0.106
-296.720	155.400	-0.049	0.068
-295.705	-75.210	0.358	0.128
-294.691	-91.222	-0.423	-0.121
-293.676	-27.791	0.117	0.068
-292.662	-82.975	0.408	-0.131
-291.647	121.942	-0.209	-0.260
-290.632	-52.318	0.192	0.089
-289.618	800.000	-0.040	0.161
-288.603	-99.773	-0.224	0.056
-287.589	441.252	-0.024	-0.052
-286.574	-33.074	-0.358	-0.198
-285.559	-34.161	-0.393	0.215
-284.545	-200.000	0.034	-0.398
-283.530	84.628	-0.124	0.136
-282.516	-83.766	-0.385	0.122
-281.501	26.723	-0.166	0.139
-280.486	286.422	0.061	0.110
-279.472	21.601	-0.187	-0.152
-278.457	-196.674	0.274	0.002
-277.443	351.464	0.086	0.169
-276.428	-37.827	-0.189	0.100
-275.413	-200.000	0.055	0.242
-274.399	-76.172	0.164	0.058
-273.384	352.219	-0.183	-0.361
-272.370	57.225	-0.218	0.212
-271.355	27.917	-0.127	-0.107
-270.340	-89.115	0.323	0.095
-269.326	-102.384	0.237	-0.057
-268.311	-31.282	0.134	-0.075
-267.297	1.852	0.042	-0.030
-266.282	124.632	-0.269	-0.337
-265.267	38.352	-0.228	-0.202
-264.253	0.420	-0.208	0.148
-263.238	6.846	-0.167	0.124
-262.224	101.938	0.187	-0.218
-261.209	191.861	-0.065	-0.098
-260.195	-92.684	-0.149	-0.042
-259.180	299.854	0.100	-0.184
-258.165	-99.305	-0.173	-0.043
-257.151	242.752	-0.083	-0.138
-256.136	800.000	0.119	-0.464
-255.122	-200.000	-0.018	-0.126
-254.107	532.823	0.020	-0.048
-253.092	-115.526	-0.208	0.039
-252.078	800.000	-0.063	-0.203
-251.063	531.286	-0.205	0.482
-250.049	-42.941	-0.045	-0.023
-249.034	726.344	-0.025	-0.067
-248.019	328.005	-0.065	0.125
-247.005	34.771	-0.066	0.058
-245.990	800.000	0.074	0.298
-244.976	386.122	0.068	-0.140
-243.961	9.944	0.140	-0.105
-242.946	46.971	0.027	0.025
-241.932	-16.216	0.162	0.102
-240.917	-200.000	-0.007	-0.257
-239.903	-107.616	0.179	0.039
-238.888	-81.825	-0.058	-0.019
-237.873	-25.513	0.248	0.146
-236.859	-116.758	-0.417	-0.076
-235.844	60.209	0.175	0.173
-234.830	-54.685	0.156	0.070
-233.815	-115.563	0.135	0.025
-232.800	-108.540	0.155	-0.033
-231.786	-200.000	-0.008	-0.043
-230.771	-10.380	0.045	-0.030
-229.757	309.169	-0.120	-0.222
-228.742	77.135	0.158	0.167
-227.727	-117.478	0.273	0.049
-226.713	-141.900	-0.129	-0.013
-225.698	-200.000	-0.003	-0.026
-224.684	-200.000	-0.014	-0.160
-223.669	-91.404	0.147	-0.042
-222.655	800.000	0.064	0.249
-221.640	-38.994	-0.051	0.027
-220.625	-172.245	0.193	-0.006
-219.611	16.480	-0.373	0.293
-218.596	-65.561	-0.188	0.075
-217.582	-173.522	0.220	0.007
-216.567	42.308	0.162	0.147
-215.552	-200.000	-0.046	-0.361
-214.538	-200.000	-0.034	-0.204
-213.523	131.189	0.151	0.193
-212.509	-200.000	0.000	0.123
-211.494	113.283	0.084	0.101
-210.479	-180.896	-0.101	0.002
-209.465	-9.321	0.058	0.039
-208.450	43.766	-0.050	-0.045
-207.436	-19.230	0.265	-0.163
-206.421	-200.000	-0.017	-0.274
-205.406	-200.000	0.019	0.145
-204.392	800.000	-0.054	0.215
-203.377	-152.417	-0.142	0.010
-202.363	95.312	-0.144	0.163
-201.348	-200.000	0.001	-0.089
-200.333	-92.331	-0.317	-0.089
-199.319	3.760	0.083	-0.060
-198.304	235.262	0.108	-0.177
-197.290	-200.000	-0.011	0.158
-196.275	-108.193	0.148	-0.032
-195.260	46.227	-0.125	0.115
-194.246	-91.756	0.226	-0.064
-193.231	167.728	0.222	-0.313
-192.217	-59.156	-0.199	-0.085
-191.202	800.000	0.062	-0.182
-190.187	683.694	0.059	0.153
-189.173	-200.000	-0.009	-0.045
-188.158	800.000	-0.072	-0.251
-187.144	113.459	-0.081	-0.098
-186.129	-162.143	-0.271	0.013
-185.114	800.000	-0.021	0.088
-184.100	323.078	-0.032	-0.060
-183.085	-87.396	-0.095	0.029
-182.071	800.000	0.106	0.316
-181.056	232.529	0.138	0.225
-180.042	-110.287	-0.189	-0.039
-179.027	-35.108	-0.346	0.187
-178.012	-15.336	-0.139	-0.088
-176.998	-87.122	-0.236	0.071
-175.983	499.825	-0.071	0.162
-174.969	116.781	-0.237	0.289
-173.954	-200.000	0.028	0.190
-172.939	-63.617	0.286	-0.117
-171.925	15.242	-0.148	0.116
-170.910	-166.394	0.274	-0.011
-169.896	-105.203	0.125	-0.028
-168.881	-137.533	-0.301	0.034
-167.866	118.946	0.081	-0.100
-166.852	391.344	-0.126	-0.260
-165.837	4.376	-0.146	-0.106
-164.823	-49.205	0.014	-0.007
-163.808	-200.000	-0.001	0.306
-162.793	800.000	0.021	0.066
-161.779	-2.521	0.015	0.010
-160.764	800.000	0.070	-0.264
-159.750	-200.000	-0.004	0.146
-158.735	-87.827	0.152	-0.045
-157.720	-200.000	0.031	-0.151
-156.706	-90.804	0.227	-0.065
-155.691	-161.181	0.403	-0.021
-154.677	275.069	-0.103	-0.181
-153.662	800.000	0.143	-0.483
-152.647	41.088	0.098	-0.088
-151.633	800.000	0.086	0.374
-150.618	74.887	0.211	-0.220
-149.604	-57.519	0.381	-0.166
-148.589	800.000	-0.020	-0.072
-147.574	-156.176	0.197	0.012
-146.560	771.317	-0.019	-0.050
-145.545	-117.300	0.141	-0.025
-144.531	-135.504	0.041	-0.005
-143.516	502.337	0.063	-0.145
-142.502	-40.127	-0.433	-0.224
-141.487	-55.189	-0.156	-0.069
-140.472	123.108	-0.031	0.038
-139.458	-165.676	0.361	-0.015
-138.443	376.813	0.175	-0.355
-137.429	66.086	-0.262	-0.264
-136.414	-200.000	0.066	-0.435
-135.399	643.392	-0.145	-0.367
-134.385	207.668	0.072	-0.111
-133.370	800.000	0.007	0.027
-132.356	-36.645	-0.110	-0.058
-131.341	343.626	0.112	-0.218
-130.326	-129.287	0.175	0.024
-129.312	-130.834	-0.183	-0.024
-128.297	-49.727	-0.099	0.047
-127.283	370.792	-0.091	-0.182
-126.268	-41.837	0.094	-0.048
-125.253	-200.000	0.054	-0.296
-124.239	-58.307	0.242	0.104
-123.224	101.410	0.038	0.044
-122.210	-200.000	-0.050	-0.324
-121.195	-9.087	0.189	0.125
-120.180	-200.000	-0.138	0.000
-119.166	696.450	-0.167	-0.435
-118.151	768.290	-0.092	-0.249
-117.137	341.808	0.102	0.197
-116.122	102.254	-0.180	0.208
-115.107	76.935	0.122	-0.128
-114.093	800.000	0.035	-0.110
-113.078	-200.000	-0.017	0.149
-112.064	-200.000	0.024	0.340
-111.049	-86.003	0.285	-0.087
-110.034	-200.000	0.026	0.278
-109.020	47.238	-0.192	-0.177
-108.005	48.923	0.101	0.094
-106.991	398.435	-0.048	-0.099
-105.976	7.842	0.170	-0.126
-104.962	678.966	-0.065	-0.167
-103.947	526.734	-0.022	-0.051
-102.932	29.055	0.190	-0.160
-101.918	-119.726	0.078	0.013
-100.903	800.000	0.102	-0.323
-99.889	800.000	-0.099	0.281
-98.874	800.000	-0.083	-0.249
-97.859	95.366	-0.063	0.071
-96.845	-45.829	-0.241	-0.118
-95.830	-70.514	0.157	-0.059
-94.816	-7.339	-0.180	-0.121
-93.801	-73.032	-0.102	0.037
-92.786	259.338	-0.026	0.044
-91.772	-35.167	0.309	-0.167
-90.757	253.266	0.136	0.229
-89.743	800.000	0.025	-0.098
-88.728	800.000	0.089	-0.372
-87.713	-122.084	0.163	-0.026
-86.699	-200.000	0.011	-0.080
-85.684	428.650	-0.073	-0.156
-84.670	800.000	-0.033	0.121
-83.655	1.524	-0.190	0.135
-82.640	-73.259	0.466	-0.168
-81.626	192.666	0.054	-0.081
-80.611	-75.824	0.342	0.120
-79.597	800.000	0.121	-0.505
-78.582	7.977	-0.133	-0.099
-77.567	-61.398	0.301	0.125
-76.553	-36.994	0.266	-0.141
-75.538	-65.468	0.136	-0.054
-74.524	41.569	-0.027	0.024
-73.509	-186.143	0.157	0.002
-72.494	31.207	0.089	-0.076
-71.480	-200.000	0.098	-0.452
-70.465	23.558	0.181	0.147
-69.451	-177.647	-0.339	-0.008
-68.436	72.838	0.053	0.055
-67.422	-81.690	0.173	0.056
-66.407	-51.883	0.346	-0.159
-65.392	-104.661	-0.172	0.039
-64.378	-179.320	0.283	0.006
-63.363	-200.000	0.002	0.271
-62.349	90.946	0.083	-0.092
-61.334	-7.076	-1.029	-0.690
-60.319	-80.379	0.465	0.154
-59.305	-200.000	0.157	-0.948
-58.290	208.717	0.535	0.827
-57.276	-200.000	0.411	1.794
-56.261	-200.000	89.516	505.346
-55.246	440.621	1427.591	3082.572
-54.232	142.720	2648.333	3475.253
-53.217	104.407	2366.762	2751.473
-52.203	45.507	1970.076	1796.273
-51.188	39.720	1755.039	1554.713
-50.173	36.991	1710.482	1494.188
-49.159	52.248	1754.750	1652.207
-48.144	55.500	1773.517	1695.198
-47.130	39.503	1732.397	1532.722
-46.115	36.575	1717.359	1496.733
-45.100	36.409	1712.079	1490.790
-44.086	36.537	1709.292	1489.292
-43.071	36.454	1707.014	1486.609
-42.057	36.433	1704.377	1484.094
-41.042	36.375	1702.781	1482.199
-40.027	36.481	1700.415	1480.895
-39.013	36.422	1698.477	1478.698
-37.998	36.375	1697.055	1477.039
-36.984	36.514	1695.404	1476.605
-35.969	36.359	1694.805	1474.840
-34.954	36.617	1692.401	1474.661
-33.940	36.566	1690.559	1472.607
-32.925	36.508	1688.717	1470.499
-31.911	36.566	1686.745	1469.164
-30.896	36.534	1685.160	1467.482
-29.881	36.582	1683.506	1466.352
-28.867	36.567	1681.681	1464.590
-27.852	36.544	1680.382	1463.225
-26.838	36.565	1678.830	1461.975
-25.823	36.540	1677.558	1460.620
-24.809	36.559	1676.513	1459.797
-23.794	36.491	1674.836	1457.762
-22.779	36.584	1673.037	1456.845
-21.765	36.667	1671.012	1455.643
-20.750	36.577	1669.435	1453.541
-19.736	36.620	1668.326	1452.835
-18.721	36.586	1666.915	1451.296
-17.706	36.590	1665.228	1449.799
-16.692	36.599	1663.871	1448.626
-15.677	36.595	1662.415	1447.274
-14.663	36.594	1661.167	1446.121
-13.648	36.488	1660.000	1444.257
-12.633	36.570	1658.257	1443.292
-11.619	36.549	1656.825	1441.834
-10.604	36.616	1654.962	1440.654
-9.590	36.622	1653.714	1439.552
-8.575	36.547	1652.383	1437.781
-7.560	36.534	1651.026	1436.444
-6.546	36.625	1649.813	1436.008
-5.531	36.571	1649.067	1434.900
-4.517	36.562	1647.685	1433.578
-3.502	36.553	1646.606	1432.512
-2.487	36.633	1645.189	1431.819
-1.473	36.750	1634.499	1423.321
-0.458	34.717	1615.926	1392.287
0.556	29.682	1615.008	1356.041
1.571	26.221	1636.903	1348.520
2.586	24.757	1648.962	1347.312
3.600	21.573	1594.763	1279.675
4.615	11.988	1477.532	1120.271
5.629	2.876	1406.299	1006.639
6.644	0.927	1396.630	986.934
7.659	0.813	1395.385	985.224
8.673	0.705	1394.420	983.755
9.688	0.675	1392.378	982.029
10.702	0.495	1389.637	978.843
11.717	4.194	1396.031	1007.329
12.731	12.872	1410.046	1074.107
13.746	17.749	1415.575	1110.043
14.761	17.498	1413.820	1106.938
15.775	16.662	1411.746	1099.783
16.790	15.639	1409.380	1091.204
17.804	14.818	1406.758	1083.758
18.819	14.421	1405.239	1079.918
19.834	14.140	1404.100	1077.130
20.848	13.872	1402.667	1074.204
21.863	13.616	1401.511	1071.564
22.877	13.484	1400.129	1069.563
23.892	13.527	1399.083	1068.948
24.907	13.404	1398.422	1067.552
25.921	13.483	1397.670	1067.392
26.936	13.464	1396.322	1066.145
27.950	13.519	1395.222	1065.564
28.965	13.559	1394.468	1065.154
29.980	13.721	1393.386	1065.271
30.994	13.718	1392.339	1064.356
32.009	13.592	1391.850	1063.082
33.023	13.764	1390.008	1062.682
34.038	13.631	1389.798	1061.577
35.053	13.552	1388.405	1059.914
36.067	13.634	1386.937	1059.223
37.082	13.607	1386.082	1058.305
38.096	13.747	1384.741	1058.081
39.111	13.582	1384.345	1056.631
40.126	13.531	1383.729	1055.745
41.140	13.478	1383.035	1054.785
42.155	13.551	1382.052	1054.407
43.169	13.426	1382.225	1053.645
44.184	13.427	1381.861	1053.285
45.199	13.486	1381.509	1053.299
46.213	13.508	1380.832	1052.826
47.228	13.561	1379.645	1052.163
48.242	13.549	1378.484	1051.114
49.257	13.519	1376.982	1049.680
50.271	13.551	1375.656	1048.779
51.286	13.551	1374.875	1048.096
52.301	13.521	1373.464	1046.738
53.315	13.472	1372.229	1045.390
54.330	13.503	1371.153	1044.679
55.344	13.429	1370.251	1043.427
56.359	13.533	1369.081	1043.099
57.374	13.462	1367.843	1041.617
58.388	13.488	1367.237	1041.226
59.403	13.445	1366.877	1040.594
60.417	13.439	1366.141	1039.904
61.432	13.393	1365.098	1038.727
62.447	13.410	1364.172	1038.039
63.461	13.446	1363.156	1037.397
64.476	13.432	1361.885	1036.253
65.490	13.398	1360.781	1035.105
66.505	13.469	1358.779	1033.939
67.520	13.451	1357.884	1033.051
68.534	13.518	1356.799	1032.554
69.549	13.462	1355.784	1031.341
70.563	13.431	1354.731	1030.253
71.578	13.347	1353.806	1028.940
72.593	13.294	1352.654	1027.641
73.607	13.302	1352.153	1027.221
74.622	13.345	1351.096	1026.590
75.636	13.342	1350.314	1025.886
76.651	13.440	1349.039	1025.439
77.666	13.399	1348.942	1025.019
78.680	13.364	1348.279	1024.206
79.695	13.293	1347.687	1023.228
80.709	13.348	1346.706	1022.735
81.724	13.453	1345.529	1022.395
82.739	13.424	1345.038	1021.751
83.753	13.446	1344.067	1021.062
84.768	13.499	1342.936	1020.438
85.782	13.652	1341.158	1019.939
86.797	13.635	1340.083	1018.925
87.812	13.374	1339.447	1016.748
88.826	13.569	1337.690	1016.523
89.841	13.504	1336.901	1015.437
90.855	13.466	1335.976	1014.409
91.870	13.630	1334.893	1014.503
92.884	13.526	1334.425	1013.421
93.899	13.564	1333.586	1012.924
94.914	13.644	1332.639	1012.605
95.928	13.691	1331.615	1012.021
96.943	13.545	1330.876	1010.484
97.957	13.539	1329.823	1009.556
98.972	13.679	1328.371	1009.214
99.987	13.644	1327.131	1007.971
101.001	13.640	1326.631	1007.477
102.016	13.588	1325.451	1006.177
103.030	13.609	1324.578	1005.555
104.045	13.539	1324.277	1004.812
105.060	13.526	1322.815	1003.535
106.074	13.456	1321.710	1002.181
107.089	13.526	1319.706	1000.999
108.103	13.530	1318.150	999.754
109.118	13.503	1317.076	998.686
110.133	13.469	1316.070	997.633
111.147	13.568	1314.295	996.795
112.162	13.483	1313.301	995.443
113.176	13.583	1311.811	994.823
114.191	13.607	1311.293	994.486
115.206	13.595	1310.097	993.419
116.220	13.586	1308.816	992.310
117.235	13.603	1307.477	991.303
118.249	13.491	1306.806	990.041
119.264	13.581	1305.453	989.462
120.279	13.550	1304.414	988.402
121.293	13.544	1303.455	987.556
122.308	13.578	1302.274	986.773
123.322	13.429	1301.414	985.147
124.337	13.490	1300.394	984.654
125.352	13.492	1299.022	983.537
126.366	13.508	1297.756	982.588
127.381	13.527	1296.689	981.808
128.395	13.532	1295.225	980.638
129.410	13.480	1294.703	979.849
130.424	13.527	1293.976	979.488
131.439	13.599	1292.675	978.846
132.454	13.731	1291.663	978.771
133.468	13.580	1291.061	977.336
134.483	13.668	1289.986	976.957
135.497	13.596	1289.659	976.201
136.512	13.512	1288.096	974.433
137.527	13.595	1286.891	973.925
138.541	13.605	1285.225	972.637
139.556	13.539	1283.859	971.131
140.570	13.590	1283.052	970.733
141.585	13.737	1281.830	970.582
142.600	13.738	1280.298	969.343
143.614	13.659	1279.674	968.324
144.629	13.702	1278.779	967.808
145.643	13.700	1277.095	966.440
146.658	13.796	1275.659	965.827
147.673	13.699	1274.388	964.212
148.687	13.759	1273.309	963.661
149.702	13.738	1271.755	962.275
150.716	13.622	1270.481	960.558
151.731	13.615	1269.365	959.585
152.746	13.668	1268.206	958.931
153.760	13.683	1266.735	957.820
154.775	13.752	1265.555	957.244
155.789	13.841	1263.938	956.449
156.804	13.838	1263.576	956.070
157.819	13.839	1262.371	955.083
158.833	13.761	1261.820	954.130
159.848	13.825	1260.661	953.539
160.862	13.828	1259.425	952.534
161.877	13.695	1258.637	951.095
162.892	13.739	1257.265	950.222
163.906	13.731	1256.248	949.328
164.921	13.730	1255.464	948.643
165.935	13.741	1254.472	947.873
166.950	13.816	1253.925	947.803
167.964	13.805	1253.228	947.132
168.979	13.739	1252.444	946.079
169.994	13.813	1251.886	945.998
171.008	13.882	1250.506	945.260
172.023	13.883	1249.524	944.440
173.037	13.943	1248.841	944.182
174.052	13.958	1248.443	943.885
175.067	13.912	1247.203	942.600
176.081	13.907	1245.845	941.461
177.096	13.812	1245.040	940.232
178.110	13.836	1244.528	939.900
179.125	13.808	1243.003	938.506
180.140	13.859	1241.557	937.619
181.154	14.085	1240.355	937.905
182.169	13.919	1239.496	936.233
183.183	14.094	1237.702	935.783
184.198	13.997	1236.663	934.368
185.213	14.044	1235.608	933.751
186.227	14.087	1234.564	933.124
187.242	14.123	1233.613	932.524
188.256	14.094	1232.714	931.599
189.271	14.118	1231.705	930.888
190.286	14.074	1230.532	929.674
191.300	14.020	1229.828	928.758
192.315	13.868	1229.210	927.358
193.329	13.959	1228.236	927.050
194.344	13.942	1227.734	926.493
195.359	14.057	1227.294	926.720
196.373	14.145	1226.584	926.595
197.388	14.093	1226.226	925.950
198.402	14.262	1225.596	926.334
199.417	14.259	1224.962	925.757
200.432	14.238	1224.048	924.865
201.446	14.239	1223.287	924.218
202.461	14.285	1222.493	923.789
203.475	14.246	1221.693	922.889
204.490	14.318	1219.990	921.917
205.504	14.264	1218.766	920.610
206.519	14.376	1217.307	920.045
207.534	14.341	1216.921	919.478
208.548	14.261	1215.848	918.150
209.563	14.231	1215.013	917.272
210.577	14.272	1214.220	916.814
211.592	14.450	1212.728	916.587
212.607	14.397	1212.068	915.715
213.621	14.443	1211.942	915.793
214.636	14.443	1210.272	914.453
215.650	14.448	1209.358	913.705
216.665	14.442	1208.621	913.037
217.680	14.453	1207.776	912.376
218.694	14.484	1207.058	911.921
219.709	14.439	1205.848	910.681
220.723	14.542	1205.143	910.630
221.738	14.491	1204.267	909.612
222.753	14.516	1203.985	909.456
223.767	14.579	1203.403	909.277
224.782	14.652	1202.292	908.754
225.796	14.613	1201.590	907.930
226.811	14.669	1200.448	907.293
227.826	14.633	1200.029	906.702
228.840	14.597	1199.436	905.975
229.855	14.724	1198.690	906.021
230.869	14.689	1197.903	905.160
231.884	14.692	1197.159	904.529
232.899	14.636	1196.372	903.553
233.913	14.570	1195.836	902.713
234.928	14.587	1194.785	901.930
235.942	14.674	1193.784	901.563
236.957	14.622	1193.513	900.998
237.972	14.634	1192.362	900.114
238.986	14.812	1191.654	900.462
240.001	14.625	1191.271	899.082
241.015	14.625	1190.520	898.440
242.030	14.721	1189.151	897.840
243.045	14.755	1188.468	897.431
244.059	14.873	1187.660	897.375
245.074	14.854	1186.825	896.563
246.088	14.764	1186.166	895.502
247.103	14.847	1185.369	895.267
248.117	14.870	1184.611	894.736
249.132	14.918	1183.970	894.432
250.147	14.978	1183.345	894.201
251.161	14.918	1182.794	893.383
252.176	14.989	1181.829	892.954
253.190	15.060	1181.289	892.847
254.205	15.135	1180.645	892.680
255.220	15.174	1180.088	892.388
256.234	15.109	1179.269	891.343
257.249	15.117	1178.738	890.904
258.263	15.115	1177.976	890.239
259.278	15.128	1177.272	889.697
260.293	15.255	1176.435	889.663
261.307	15.228	1175.990	889.100
262.322	15.256	1175.419	888.739
263.336	15.101	1174.676	887.278
264.351	15.304	1173.856	887.656
265.366	15.298	1173.123	886.991
266.380	15.355	1172.220	886.531
267.395	15.344	1171.509	885.859
268.409	15.309	1171.130	885.308
269.424	15.166	1170.901	884.303
270.439	15.240	1169.972	883.910
271.453	15.393	1168.905	883.831
272.468	15.188	1168.411	882.300
273.482	15.296	1167.635	882.206
274.497	15.341	1166.797	881.733
275.512	15.283	1166.336	881.003
276.526	15.237	1165.340	879.929
277.541	15.299	1164.388	879.459
278.555	15.328	1164.037	879.265
279.570	15.400	1163.026	878.803
280.585	15.510	1162.427	878.848
281.599	15.504	1161.431	877.983
282.614	15.494	1159.940	876.727
283.628	15.495	1158.976	875.929
284.643	15.404	1158.189	874.779
285.657	15.558	1157.412	874.919
286.672	15.531	1156.365	873.909
287.687	15.633	1155.589	873.775
288.701	15.586	1154.876	872.914
289.716	15.549	1154.233	872.161
290.730	15.561	1153.287	871.430
291.745	15.586	1152.481	870.876
292.760	15.581	1151.966	870.379
293.774	15.668	1151.300	870.250
294.789	15.604	1150.693	869.383
295.803	15.708	1150.157	869.439
296.818	15.654	1149.166	868.333
297.833	15.641	1148.430	867.637
298.847	15.751	1147.730	867.596
299.862	15.663	1146.873	866.421
300.876	15.837	1145.632	866.299
301.891	15.877	1145.015	865.964
302.906	15.891	1144.598	865.643
303.920	15.779	1144.012	864.547
304.935	15.753	1143.554	863.993
305.949	15.896	1143.030	864.250
306.964	15.892	1141.829	863.247
307.979	15.837	1141.574	862.697
308.993	15.983	1140.185	862.320
310.008	15.873	1139.667	861.289
311.022	15.930	1139.040	861.030
312.037	16.006	1137.795	860.400
313.052	15.855	1137.035	858.978
314.066	15.959	1136.029	858.673
315.081	15.979	1135.204	858.074
316.095	15.783	1134.847	856.729
317.110	15.942	1134.092	856.895
318.125	15.895	1133.208	855.910
319.139	15.894	1132.539	855.325
320.154	16.037	1131.613	855.278
321.168	15.887	1131.266	854.178
322.183	15.994	1130.505	854.069
323.197	16.023	1129.968	853.734
324.212	15.955	1129.336	852.838
325.227	16.093	1128.501	852.832
326.241	16.027	1128.194	852.190
327.256	16.010	1127.142	851.232
328.270	16.098	1125.934	850.690
329.285	16.054	1125.561	850.110
330.300	16.078	1124.514	849.366
331.314	16.042	1123.443	848.301
332.329	16.066	1122.358	847.524
333.343	16.034	1121.781	846.854
334.358	16.274	1120.864	847.290
335.373	16.235	1120.258	846.562
336.387	16.226	1119.121	845.586
337.402	16.297	1118.175	845.150
338.416	16.375	1117.514	844.966
339.431	16.199	1117.322	843.867
340.446	16.302	1116.693	843.833
341.460	16.362	1115.755	843.346
342.475	16.369	1114.869	842.639
343.489	16.334	1113.852	841.617
344.504	16.455	1112.820	841.370
345.519	16.338	1112.463	840.443
346.533	16.504	1111.206	840.241
347.548	16.556	1110.691	840.039
348.562	16.539	1109.683	839.116
349.577	16.498	1108.941	838.280
350.592	16.458	1108.372	837.573
351.606	16.463	1107.711	837.026
352.621	16.325	1107.522	836.127
353.635	16.492	1106.450	836.070
354.650	16.439	1105.693	835.163
355.665	16.515	1104.778	834.773
356.679	16.592	1104.141	834.598
357.694	16.515	1103.908	833.967
358.708	16.523	1103.193	833.390
359.723	16.595	1102.430	833.093
360.738	16.558	1101.692	832.282
361.752	16.581	1101.091	831.868
362.767	16.688	1100.337	831.750
363.781	16.589	1099.851	830.824
364.796	16.692	1099.477	830.975
365.810	16.766	1098.887	830.818
366.825	16.730	1098.075	829.954
367.840	16.730	1097.905	829.749
368.854	16.863	1097.053	829.685
369.869	16.879	1096.119	828.985
370.883	16.792	1095.427	827.962
371.898	16.753	1094.839	827.251
372.913	16.895	1094.077	827.298
373.927	16.903	1093.660	826.947
374.942	16.887	1092.986	826.285
375.956	16.866	1092.342	825.623
376.971	17.023	1091.536	825.708
377.986	16.998	1091.076	825.161
379.000	16.944	1090.838	824.646
380.015	16.993	1090.327	824.425
381.029	17.022	1089.429	823.814
382.044	17.044	1088.582	823.207
383.059	17.043	1088.021	822.708
384.073	17.140	1086.877	822.238
385.088	17.071	1086.106	821.249
386.102	17.059	1085.441	820.616
387.117	16.988	1084.340	819.366
388.132	17.174	1083.103	819.259
389.146	17.033	1082.818	818.292
390.161	17.065	1082.033	817.780
391.175	17.183	1081.221	817.662
392.190	17.065	1080.625	816.568
393.205	17.103	1079.927	816.153
394.219	17.157	1078.968	815.617
395.234	17.108	1077.860	814.469
396.248	17.179	1076.750	813.898
397.263	17.112	1076.343	813.200
398.278	17.081	1075.557	812.386
399.292	17.226	1074.720	812.375
400.307	17.127	1073.984	811.275
401.321	17.155	1073.463	810.942
402.336	17.206	1073.040	810.794
403.350	17.137	1072.346	809.867
404.365	17.238	1071.535	809.663
405.380	17.272	1070.583	809.036
406.394	17.253	1069.859	808.326
407.409	17.204	1069.686	807.890
408.423	17.234	1068.939	807.398
409.438	17.348	1068.046	807.193
410.453	17.448	1066.896	806.726
411.467	17.430	1066.421	806.210
412.482	17.411	1065.927	805.675
413.496	17.573	1064.723	805.459
414.511	17.529	1064.419	804.954
415.526	17.563	1064.029	804.746
416.540	17.654	1063.339	804.582
417.555	17.573	1062.916	803.810
418.569	17.604	1062.615	803.657
419.584	17.595	1062.323	803.322
420.599	17.597	1061.654	802.757
421.613	96.002	1313.773	1427.282
422.628	88.623	1350.504	1427.380
