DTS Sentinel unit serial number:	SN413079Multiplexer serial number:	ORYXHardware model number:	OX4-SRSoftware version number:	ORYX F/W v4.00 Oryx Data Collector v3.7.2.0data status	okinstallation	princeton_trtdifferential loss correction	single-endedforward channel	channel 2reverse channel	N/Adate	2019/09/18time	19:35:34forward acquisition time	60.00reverse acquisition time	0.00gamma	496.2192k internal	0.2331k external	0.2331temperature offset calibration	1.0037default loss term (dB/km)	0.3790temperature slope calibration	1.0000multiplexer offset coefficient	1.0000multiplexer slope coefficient	1.0000fibre end	0.00T internal ref (°C)	32.39T ext. ref 1 (°C)	1.09T ext. ref 2 (°C)	22.48length (m)	temperature (°C)	Stokes	anti-Stokes-747.200	-68.414	-0.179	-0.070
-746.185	-101.479	-0.202	0.049
-745.171	4.440	-0.119	0.087
-744.156	-28.737	-0.120	0.069
-743.142	139.169	-0.067	0.089
-742.127	800.000	0.110	0.458
-741.112	-18.050	-0.107	0.068
-740.098	254.480	-0.098	-0.168
-739.083	-28.246	0.104	0.060
-738.069	98.474	0.233	0.270
-737.054	-200.000	-0.010	0.093
-736.039	27.034	-0.307	-0.259
-735.025	9.451	0.246	0.187
-734.010	185.321	-0.067	0.099
-732.996	41.162	-0.167	-0.151
-731.981	-71.813	-0.156	0.058
-730.966	-12.109	-0.300	0.198
-729.952	188.224	-0.126	-0.189
-728.937	-96.499	-0.353	0.094
-727.923	469.806	0.056	-0.125
-726.908	800.000	0.041	0.147
-725.894	33.884	-0.307	0.268
-724.879	61.486	0.242	-0.242
-723.864	-77.486	0.144	-0.050
-722.850	-200.000	-0.023	-0.161
-721.835	-0.635	-0.057	0.041
-720.821	-200.000	-0.135	-0.000
-719.806	425.501	0.055	-0.119
-718.791	120.067	0.160	0.199
-717.777	-200.000	-0.025	-0.123
-716.762	525.767	0.180	-0.427
-715.748	-200.000	-0.017	-0.088
-714.733	-43.700	-0.185	0.094
-713.718	658.854	-0.147	-0.381
-712.704	-87.443	-0.075	-0.023
-711.689	504.617	-0.015	-0.035
-710.675	165.927	0.073	0.104
-709.660	83.415	-0.116	0.127
-708.645	-145.820	0.257	0.023
-707.631	508.157	0.074	0.174
-706.616	318.096	0.113	-0.215
-705.602	-30.507	-0.144	0.082
-704.587	54.645	0.296	0.286
-703.572	800.000	-0.034	0.108
-702.558	-200.000	0.010	0.079
-701.543	-196.075	-0.170	0.001
-700.529	-200.000	0.023	-0.271
-699.514	-200.000	-0.032	0.280
-698.499	-164.792	0.115	0.005
-697.485	800.000	0.069	-0.203
-696.470	207.825	0.091	-0.142
-695.456	-1.175	-0.268	-0.190
-694.441	-111.242	-0.206	0.042
-693.426	20.133	0.193	-0.156
-692.412	-124.225	0.171	0.027
-691.397	-129.395	-0.219	-0.031
-690.383	-200.000	-0.030	0.339
-689.368	-24.378	0.082	0.049
-688.354	-34.696	0.154	0.085
-687.339	-55.256	0.146	0.066
-686.324	-200.000	0.445	-0.001
-685.310	221.705	-0.108	-0.174
-684.295	-200.000	-0.031	-0.227
-683.281	-131.622	-0.263	-0.035
-682.266	53.659	0.228	0.220
-681.251	191.545	-0.117	0.177
-680.237	800.000	0.008	0.030
-679.222	-200.000	-0.051	-0.551
-678.208	158.988	-0.262	-0.365
-677.193	-200.000	0.017	-0.227
-676.178	407.762	-0.123	0.261
-675.164	318.916	-0.100	0.191
-674.149	274.580	0.072	0.129
-673.135	-200.000	0.025	0.170
-672.120	-59.723	0.330	0.142
-671.105	99.753	-0.259	-0.301
-670.091	206.871	-0.224	0.350
-669.076	89.155	0.228	-0.254
-668.062	-41.517	-0.072	0.037
-667.047	544.148	0.052	0.123
-666.032	10.072	-0.196	-0.149
-665.018	800.000	-0.168	0.529
-664.003	121.872	0.036	-0.045
-662.989	-200.000	-0.020	0.262
-661.974	-61.900	-0.393	0.165
-660.959	-81.043	-0.326	0.108
-659.945	-30.769	0.233	0.132
-658.930	-9.992	-0.317	-0.212
-657.916	7.703	0.127	0.096
-656.901	-110.296	-0.230	-0.048
-655.886	-25.873	-0.094	-0.055
-654.872	-9.971	-0.205	0.137
-653.857	-54.337	-0.324	0.147
-652.843	-120.611	-0.262	0.045
-651.828	323.962	-0.120	0.230
-650.814	-7.672	-0.236	0.160
-649.799	137.517	0.130	0.171
-648.784	-15.087	-0.021	-0.014
-647.770	405.124	-0.051	0.109
-646.755	268.954	0.017	0.030
-645.741	71.423	-0.076	-0.079
-644.726	755.265	0.132	0.359
-643.711	-121.452	-0.087	-0.015
-642.697	-117.872	-0.259	0.047
-641.682	554.644	0.039	-0.094
-640.668	142.306	0.090	-0.119
-639.653	-200.000	-0.007	0.076
-638.638	-78.275	-0.393	-0.135
-637.624	412.413	-0.174	-0.370
-636.609	-200.000	-0.033	-0.427
-635.595	-150.405	0.479	0.037
-634.580	-200.000	0.036	0.162
-633.565	800.000	0.028	0.087
-632.551	47.890	-0.268	0.250
-631.536	-116.186	0.217	0.040
-630.522	-100.887	0.110	0.027
-629.507	-154.617	-0.182	0.012
-628.492	-200.000	-0.062	-0.460
-627.478	47.787	0.242	-0.226
-626.463	-77.910	-0.314	-0.108
-625.449	-94.626	0.149	0.040
-624.434	39.481	0.155	-0.140
-623.419	-7.584	0.070	0.047
-622.405	-68.435	-0.212	-0.083
-621.390	62.477	0.096	-0.096
-620.376	-157.368	0.007	-0.000
-619.361	-90.055	-0.082	-0.024
-618.346	-200.000	0.004	0.136
-617.332	-68.393	0.239	-0.093
-616.317	116.091	0.031	-0.038
-615.303	-151.467	0.040	0.003
-614.288	800.000	0.099	0.281
-613.273	-96.749	-0.037	0.010
-612.259	-25.279	0.014	0.008
-611.244	800.000	0.093	-0.270
-610.230	-200.000	0.028	-0.131
-609.215	-69.789	-0.277	-0.106
-608.201	800.000	0.047	-0.189
-607.186	800.000	-0.057	-0.166
-606.171	-80.575	0.224	-0.075
-605.157	-200.000	0.036	-0.230
-604.142	-146.319	0.076	-0.007
-603.128	78.630	0.136	0.145
-602.113	800.000	-0.051	0.150
-601.098	800.000	-0.087	0.251
-600.084	-20.666	0.154	-0.095
-599.069	-119.870	-0.100	-0.017
-598.055	-200.000	-0.052	0.332
-597.040	239.607	0.060	0.100
-596.025	-26.448	0.134	0.079
-595.011	-30.067	0.102	-0.058
-593.996	-200.000	-0.005	0.144
-592.982	-97.382	0.218	-0.057
-591.967	235.623	0.100	-0.166
-590.952	661.648	-0.126	-0.326
-589.938	800.000	-0.080	0.249
-588.923	-59.175	-0.325	0.140
-587.909	4.225	0.065	0.048
-586.894	201.401	-0.199	-0.307
-585.879	-137.388	0.489	-0.055
-584.865	110.722	0.161	0.194
-583.850	256.015	0.128	-0.220
-582.836	294.755	0.173	-0.316
-581.821	163.886	0.023	0.033
-580.806	-200.000	-0.020	0.089
-579.792	-3.940	0.159	0.110
-578.777	-200.000	0.037	-0.167
-577.763	-29.330	-0.124	0.071
-576.748	-103.953	-0.263	0.061
-575.733	-122.068	0.240	0.039
-574.719	-30.692	-0.263	-0.149
-573.704	-108.601	0.198	-0.043
-572.690	-200.000	-0.016	-0.082
-571.675	-151.107	0.504	0.038
-570.661	102.235	0.089	0.104
-569.646	-90.068	-0.099	-0.029
-568.631	-200.000	-0.038	-0.328
-567.617	566.350	0.197	-0.477
-566.602	-43.090	0.151	-0.077
-565.588	-107.391	-0.324	-0.071
-564.573	593.268	-0.122	-0.302
-563.558	-200.000	-0.062	0.304
-562.544	12.628	-0.173	-0.134
-561.529	70.567	-0.126	0.130
-560.515	-122.874	0.199	0.032
-559.500	-200.000	0.005	-0.400
-558.485	800.000	-0.029	0.098
-557.471	20.059	-0.212	-0.171
-556.456	-81.205	-0.479	0.158
-555.442	165.941	-0.055	-0.078
-554.427	-200.000	-0.097	0.517
-553.412	14.959	-0.176	-0.138
-552.398	520.312	-0.032	-0.075
-551.383	403.736	0.103	-0.217
-550.369	-147.855	-0.183	-0.015
-549.354	544.610	0.142	-0.338
-548.339	-200.000	0.024	0.174
-547.325	-200.000	-0.055	-0.290
-546.310	-151.521	0.379	0.028
-545.296	-106.081	-0.188	0.042
-544.281	-81.655	-0.059	0.019
-543.266	800.000	-0.100	-0.361
-542.252	339.985	0.157	-0.306
-541.237	-140.299	-0.278	0.029
-540.223	-35.990	0.332	-0.179
-539.208	54.083	-0.271	0.260
-538.193	-53.655	-0.218	-0.100
-537.179	-200.000	0.377	0.000
-536.164	-75.845	0.140	-0.049
-535.150	-104.544	-0.413	-0.095
-534.135	-41.073	0.184	-0.095
-533.121	800.000	-0.035	-0.142
-532.106	14.765	-0.045	-0.035
-531.091	-132.187	0.239	-0.031
-530.077	-200.000	-0.046	-0.258
-529.062	112.981	-0.199	-0.241
-528.048	242.287	0.064	0.108
-527.033	-63.538	-0.106	0.043
-526.018	-135.833	-0.124	0.015
-525.004	299.363	-0.085	-0.157
-523.989	29.471	0.120	0.102
-522.975	111.567	0.217	-0.262
-521.960	21.278	0.036	-0.029
-520.945	-93.544	-0.179	-0.049
-519.931	-200.000	0.004	-0.016
-518.916	-200.000	0.005	0.045
-517.902	-200.000	-0.008	-0.146
-516.887	-19.347	0.357	0.221
-515.872	74.464	0.090	-0.094
-514.858	22.557	0.212	-0.173
-513.843	-171.467	-0.344	-0.011
-512.829	-42.063	-0.122	-0.062
-511.814	401.547	0.100	0.209
-510.799	158.210	-0.078	-0.107
-509.785	451.883	0.048	0.105
-508.770	-200.000	0.039	-0.181
-507.756	-7.013	0.039	0.026
-506.741	-107.913	-0.098	-0.021
-505.726	38.044	0.194	0.172
-504.712	54.371	0.337	-0.323
-503.697	-109.912	-0.205	-0.043
-502.683	-200.000	-0.031	-0.276
-501.668	-187.266	0.111	-0.001
-500.653	-135.472	0.092	0.011
-499.639	186.792	-0.027	-0.041
-498.624	800.000	-0.106	-0.378
-497.610	-116.457	-0.089	-0.016
-496.595	800.000	0.077	0.234
-495.581	800.000	-0.085	-0.271
-494.566	46.344	-0.243	0.225
-493.551	173.392	-0.218	0.313
-492.537	274.000	-0.064	0.113
-491.522	522.502	-0.070	0.165
-490.508	800.000	0.048	0.169
-489.493	-200.000	-0.020	0.271
-488.478	-163.684	0.108	0.005
-487.464	71.145	0.180	0.186
-486.449	320.569	0.034	-0.065
-485.435	-124.420	-0.225	-0.035
-484.420	-117.660	0.218	0.039
-483.405	452.093	-0.094	0.207
-482.391	-47.186	-0.080	0.039
-481.376	68.709	-0.146	-0.149
-480.362	71.977	0.092	-0.095
-479.347	-35.055	-0.053	0.029
-478.332	-29.518	0.189	-0.108
-477.318	-130.749	0.205	0.027
-476.303	41.085	0.029	-0.026
-475.289	31.089	0.008	0.007
-474.274	81.024	-0.209	0.224
-473.259	-111.261	-0.179	-0.036
-472.245	777.200	0.067	-0.183
-471.230	21.343	-0.347	-0.281
-470.216	-200.000	-0.026	0.221
-469.201	-200.000	0.012	-0.132
-468.186	482.466	-0.020	-0.046
-467.172	-6.110	-0.162	-0.110
-466.157	35.145	-0.154	-0.134
-465.143	502.898	0.154	0.354
-464.128	-54.997	0.179	0.080
-463.113	-31.328	-0.112	-0.063
-462.099	116.662	-0.082	-0.100
-461.084	138.795	-0.062	0.081
-460.070	11.246	0.631	0.480
-459.055	-200.000	-0.024	-0.208
-458.040	193.784	-0.053	-0.080
-457.026	-9.566	0.102	-0.067
-456.011	130.707	0.045	-0.058
-454.997	134.368	-0.020	-0.026
-453.982	30.121	-0.275	0.234
-452.968	-76.330	-0.380	-0.133
-451.953	-126.651	0.216	-0.032
-450.938	664.029	-0.126	0.324
-449.924	-200.000	-0.005	0.219
-448.909	595.812	-0.095	-0.235
-447.895	189.233	-0.154	0.229
-446.880	-66.787	0.380	0.150
-445.865	-99.675	-0.221	-0.055
-444.851	213.972	0.335	0.526
-443.836	17.961	0.110	-0.087
-442.822	171.674	0.094	0.134
-441.807	48.628	0.191	0.178
-440.792	-200.000	0.027	-0.176
-439.778	-129.207	0.214	-0.030
-438.763	-200.000	-0.019	-0.116
-437.749	-112.735	0.108	-0.021
-436.734	306.308	-0.131	0.242
-435.719	-200.000	0.063	-0.468
-434.705	-107.391	0.086	0.019
-433.690	800.000	-0.101	0.370
-432.676	-108.842	-0.121	-0.026
-431.661	21.702	-0.296	-0.240
-430.646	-79.486	0.224	0.075
-429.632	-200.000	0.003	0.057
-428.617	-200.000	0.082	-0.478
-427.603	2.842	-0.024	0.018
-426.588	-200.000	0.005	-0.167
-425.573	-74.484	-0.234	-0.084
-424.559	-74.529	0.316	0.113
-423.544	60.745	-0.106	0.105
-422.530	-169.337	0.106	-0.004
-421.515	45.839	0.162	-0.149
-420.500	-134.918	0.334	0.040
-419.486	800.000	0.018	0.071
-418.471	61.691	0.066	0.066
-417.457	-168.199	-0.173	-0.007
-416.442	-99.126	-0.231	-0.058
-415.428	-119.063	0.196	-0.034
-414.413	179.648	-0.110	-0.160
-413.398	-163.181	0.115	0.005
-412.384	-200.000	0.016	0.330
-411.369	-200.000	0.006	-0.092
-410.355	-13.954	-0.222	-0.142
-409.340	-8.563	0.357	0.238
-408.325	-40.499	0.229	-0.118
-407.311	218.766	-0.135	0.215
-406.296	259.035	0.223	0.383
-405.282	800.000	-0.059	0.163
-404.267	-101.060	0.356	0.087
-403.252	398.885	0.086	-0.180
-402.238	-116.285	0.189	0.035
-401.223	-97.903	0.223	-0.057
-400.209	172.329	-0.352	-0.503
-399.194	-56.587	-0.216	-0.095
-398.179	-110.978	-0.179	-0.036
-397.165	-200.000	-0.052	0.429
-396.150	-115.145	0.126	-0.024
-395.136	57.698	0.219	0.213
-394.121	-40.903	-0.453	0.233
-393.106	70.696	-0.116	0.119
-392.092	45.935	0.032	0.030
-391.077	-200.000	-0.048	0.302
-390.063	-75.619	-0.116	0.041
-389.048	194.797	0.088	0.132
-388.033	-200.000	0.009	0.175
-387.019	-200.000	-0.014	-0.195
-386.004	414.623	-0.135	0.286
-384.990	-200.000	-0.001	-0.181
-383.975	-82.650	0.203	0.065
-382.960	-190.898	-0.070	-0.001
-381.946	292.037	-0.030	0.055
-380.931	-23.284	0.076	-0.045
-379.917	7.022	-0.291	0.215
-378.902	38.746	0.197	0.175
-377.888	800.000	0.075	-0.207
-376.873	-133.252	-0.209	-0.026
-375.858	-200.000	0.043	0.264
-374.844	60.488	-0.207	-0.203
-373.829	701.348	-0.104	-0.271
-372.815	-200.000	-0.056	0.263
-371.800	37.734	-0.259	0.228
-370.785	726.456	-0.082	0.216
-369.771	3.267	-0.306	-0.221
-368.756	220.035	-0.109	0.173
-367.742	-200.000	-0.008	0.357
-366.727	88.308	-0.099	-0.109
-365.712	-199.384	-0.174	-0.001
-364.698	-200.000	0.049	0.227
-363.683	176.190	0.152	0.219
-362.669	-70.870	-0.242	-0.091
-361.654	-200.000	0.042	-0.256
-360.639	51.053	-0.093	0.088
-359.625	-100.361	0.189	0.046
-358.610	-67.064	0.260	-0.102
-357.596	-93.901	-0.103	-0.028
-356.581	800.000	-0.041	-0.144
-355.566	263.957	0.096	-0.165
-354.552	30.195	0.250	0.211
-353.537	-192.728	0.002	0.000
-352.523	33.512	0.205	0.177
-351.508	209.942	-0.029	0.044
-350.493	-116.908	-0.219	-0.040
-349.479	-200.000	-0.045	0.238
-348.464	6.762	0.088	0.065
-347.450	54.901	-0.111	0.106
-346.435	800.000	0.030	-0.092
-345.420	-95.978	0.126	0.033
-344.406	-121.454	-0.242	-0.040
-343.391	-25.028	-0.223	-0.131
-342.377	-200.000	-0.022	0.221
-341.362	-153.857	0.079	0.005
-340.348	-123.347	-0.197	0.031
-339.333	-36.255	-0.188	-0.100
-338.318	-60.368	-0.189	-0.079
-337.304	-200.000	-0.088	-0.404
-336.289	278.079	0.021	0.037
-335.275	-58.811	0.375	0.161
-334.260	520.788	0.106	-0.246
-333.245	73.322	-0.146	0.151
-332.231	-79.797	0.175	0.058
-331.216	273.640	0.094	0.165
-330.202	126.405	0.182	0.228
-329.187	-200.000	0.001	-0.038
-328.172	-136.662	-0.168	-0.019
-327.158	340.395	0.131	0.252
-326.143	-50.805	-0.207	-0.096
-325.129	-135.418	0.065	-0.008
-324.114	14.619	-0.424	0.328
-323.099	800.000	-0.027	0.094
-322.085	129.181	0.104	-0.131
-321.070	800.000	-0.091	-0.288
-320.056	-200.000	0.065	0.339
-319.041	-116.171	-0.322	-0.059
-318.026	-148.155	0.330	0.027
-317.012	510.753	-0.114	-0.262
-315.997	800.000	-0.084	-0.291
-314.983	-200.000	0.025	-0.113
-313.968	-48.931	-0.273	-0.129
-312.953	96.304	0.179	-0.203
-311.939	-122.519	0.097	-0.016
-310.924	27.585	0.047	0.039
-309.910	71.025	0.167	-0.171
-308.895	-12.145	0.075	0.048
-307.880	279.212	0.079	0.140
-306.866	-74.846	-0.088	0.031
-305.851	-98.817	-0.082	0.021
-304.837	-200.000	0.168	-0.001
-303.822	-7.452	-0.189	-0.127
-302.807	91.824	0.044	0.048
-301.793	-11.978	0.071	0.046
-300.778	-200.000	0.069	0.313
-299.764	256.405	0.185	-0.315
-298.749	-31.916	-0.318	0.176
-297.735	-200.000	0.080	-0.393
-296.720	-200.000	0.061	-0.373
-295.705	800.000	0.075	-0.317
-294.691	800.000	0.077	0.213
-293.676	800.000	0.073	-0.253
-292.662	800.000	-0.042	0.138
-291.647	250.846	0.141	0.237
-290.632	800.000	0.031	-0.105
-289.618	-200.000	0.028	-0.234
-288.603	57.714	0.057	0.055
-287.589	-86.556	-0.154	-0.047
-286.574	322.884	-0.153	-0.288
-285.559	-139.286	-0.152	0.016
-284.545	-200.000	0.016	0.257
-283.530	291.369	0.174	0.313
-282.516	99.597	0.253	0.289
-281.501	-1.253	0.210	-0.147
-280.486	-65.470	0.323	0.128
-279.472	57.148	-0.435	0.419
-278.457	800.000	0.028	-0.101
-277.443	800.000	0.095	-0.294
-276.428	-200.000	0.021	0.104
-275.413	-57.256	-0.183	-0.079
-274.399	-200.000	-0.031	-0.380
-273.384	728.387	-0.031	0.082
-272.370	-53.953	-0.192	0.086
-271.355	-41.903	0.041	-0.021
-270.340	51.346	0.083	0.078
-269.326	800.000	-0.078	0.280
-268.311	69.422	0.142	0.145
-267.297	267.715	-0.102	-0.177
-266.282	-108.941	0.216	0.046
-265.267	310.381	0.139	0.257
-264.253	4.685	0.273	0.198
-263.238	800.000	-0.035	0.145
-262.224	93.784	0.109	-0.122
-261.209	698.257	0.013	-0.034
-260.195	-24.751	0.109	-0.064
-259.180	125.968	0.212	0.264
-258.165	-0.857	0.242	0.169
-257.151	-200.000	-0.039	-0.222
-256.136	-119.078	0.259	0.045
-255.122	-195.324	-0.364	0.003
-254.107	-200.000	-0.024	-0.317
-253.092	-96.635	0.111	-0.029
-252.078	-178.409	0.233	-0.005
-251.063	-86.980	-0.146	-0.044
-250.049	121.402	0.092	0.113
-249.034	-110.044	-0.314	-0.065
-248.019	137.573	-0.308	-0.397
-247.005	-6.338	-0.084	-0.056
-245.990	604.308	-0.050	0.124
-244.976	800.000	0.040	0.124
-243.961	415.811	-0.029	-0.062
-242.946	-65.691	0.197	-0.078
-241.932	800.000	-0.096	-0.299
-240.917	800.000	0.041	-0.149
-239.903	-58.208	0.073	0.031
-238.888	5.223	-0.375	-0.273
-237.873	7.403	-0.253	-0.187
-236.859	-200.000	0.014	0.068
-235.844	278.916	0.035	-0.062
-234.830	42.960	0.036	0.032
-233.815	227.114	-0.186	-0.298
-232.800	-90.317	-0.296	-0.085
-231.786	-117.750	0.181	0.032
-230.771	-200.000	-0.050	0.248
-229.757	320.096	0.138	0.258
-228.742	800.000	0.051	0.163
-227.727	-121.133	-0.095	-0.016
-226.713	-200.000	-0.018	-0.122
-225.698	-175.490	-0.132	0.004
-224.684	105.320	0.021	0.025
-223.669	74.586	0.161	-0.167
-222.655	728.051	0.087	-0.229
-221.640	78.259	-0.210	0.221
-220.625	-79.436	-0.036	-0.012
-219.611	-146.442	0.093	-0.008
-218.596	176.678	-0.175	0.251
-217.582	164.614	0.206	-0.286
-216.567	-200.000	0.019	0.171
-215.552	-136.977	-0.206	0.023
-214.538	48.618	0.329	-0.304
-213.523	-200.000	-0.019	0.200
-212.509	-146.011	0.170	-0.015
-211.494	57.274	0.066	0.063
-210.479	9.455	-0.148	0.110
-209.465	-104.362	-0.229	0.052
-208.450	800.000	0.020	-0.085
-207.436	-88.311	-0.198	-0.058
-206.421	800.000	0.034	0.120
-205.406	800.000	0.041	0.146
-204.392	-200.000	-0.016	0.335
-203.377	-200.000	0.061	-0.394
-202.363	-75.412	0.223	0.078
-201.348	-28.783	-0.189	0.107
-200.333	782.355	-0.009	0.025
-199.319	-4.318	0.335	0.229
-198.304	-21.922	-0.121	0.073
-197.290	800.000	-0.097	0.352
-196.275	-159.195	-0.102	0.006
-195.260	-200.000	-0.040	-0.246
-194.246	-200.000	-0.021	-0.137
-193.231	-200.000	-0.017	0.093
-192.217	-115.968	0.098	0.018
-191.202	800.000	0.140	0.411
-190.187	16.051	0.229	0.178
-189.173	58.885	-0.169	0.164
-188.158	77.828	-0.307	0.322
-187.144	800.000	-0.066	0.182
-186.129	-96.379	0.265	0.069
-185.114	-0.262	-0.112	-0.078
-184.100	20.522	0.183	0.146
-183.085	25.144	0.195	-0.160
-182.071	-22.013	-0.193	0.116
-181.056	800.000	0.153	0.429
-180.042	82.902	0.073	0.078
-179.027	131.050	0.102	0.129
-178.012	-11.026	-0.210	-0.137
-176.998	-73.151	-0.477	-0.172
-175.983	298.576	-0.158	0.285
-174.969	10.423	0.140	-0.105
-173.954	800.000	0.075	-0.224
-172.939	-185.193	0.028	0.000
-171.925	800.000	-0.034	0.097
-170.910	-96.513	0.230	-0.060
-169.896	800.000	0.023	-0.099
-168.881	800.000	-0.101	0.297
-167.866	-200.000	0.059	0.494
-166.852	4.509	-0.082	-0.059
-165.837	211.954	-0.081	-0.126
-164.823	57.767	0.181	0.174
-163.808	-200.000	0.028	0.303
-162.793	33.571	0.046	-0.039
-161.779	-19.109	0.316	-0.193
-160.764	-9.972	-0.115	-0.075
-159.750	40.558	0.133	0.118
-158.735	-145.469	0.119	0.011
-157.720	800.000	0.009	-0.036
-156.706	143.117	-0.189	-0.248
-155.691	-173.599	-0.090	-0.003
-154.677	-200.000	-0.037	-0.196
-153.662	720.206	-0.038	-0.099
-152.647	-146.482	-0.280	-0.024
-151.633	800.000	-0.049	-0.144
-150.618	-200.000	0.007	-0.078
-149.604	516.779	-0.021	0.048
-148.589	80.290	-0.099	0.104
-147.574	-200.000	-0.014	-0.067
-146.560	-200.000	0.034	0.327
-145.545	-62.046	0.174	-0.071
-144.531	-200.000	-0.029	-0.179
-143.516	-31.756	-0.327	0.180
-142.502	-102.983	0.140	-0.033
-141.487	-200.000	-0.072	0.476
-140.472	800.000	0.018	-0.071
-139.458	73.719	-0.213	-0.220
-138.443	-69.442	-0.309	0.117
-137.429	-200.000	0.005	0.070
-136.414	-200.000	-0.051	0.282
-135.399	-200.000	-0.010	0.159
-134.385	-88.566	-0.232	-0.068
-133.370	-72.866	0.235	-0.085
-132.356	90.913	-0.045	0.049
-131.341	-200.000	0.002	-0.336
-130.326	-200.000	0.017	0.157
-129.312	-200.000	0.012	-0.212
-128.297	-114.691	-0.154	-0.029
-127.283	800.000	0.128	0.513
-126.268	83.692	-0.113	0.121
-125.253	-34.074	-0.215	-0.116
-124.239	125.576	0.222	-0.275
-123.224	2.673	0.158	-0.112
-122.210	-200.000	0.002	0.203
-121.195	66.078	0.100	0.099
-120.180	240.422	0.145	-0.237
-119.166	-200.000	-0.030	0.351
-118.151	-60.059	0.321	-0.135
-117.137	-171.657	0.187	-0.006
-116.122	-200.000	0.034	-0.246
-115.107	800.000	0.043	0.162
-114.093	-51.599	0.143	0.066
-113.078	-200.000	-0.001	0.037
-112.064	-68.707	0.092	0.035
-111.049	-93.683	-0.209	-0.057
-110.034	-51.524	0.406	-0.186
-109.020	800.000	-0.049	0.204
-108.005	-200.000	-0.034	0.207
-106.991	-200.000	-0.015	0.084
-105.976	-200.000	-0.057	0.251
-104.962	-200.000	0.065	0.354
-103.947	580.075	0.040	-0.096
-102.932	-64.762	-0.155	0.062
-101.918	46.873	0.275	-0.251
-100.903	165.866	0.146	0.203
-99.889	800.000	-0.071	-0.202
-98.874	115.542	0.227	0.273
-97.859	28.311	0.105	0.087
-96.845	-101.956	-0.177	0.042
-95.830	121.389	0.196	0.239
-94.816	484.033	-0.024	-0.054
-93.801	88.179	-0.090	0.098
-92.786	33.153	0.252	-0.214
-91.772	-111.304	0.320	-0.064
-90.757	-189.309	0.281	-0.003
-89.743	-15.184	0.265	0.166
-88.728	194.468	0.077	-0.115
-87.713	597.700	-0.025	0.061
-86.699	-84.501	0.480	0.149
-85.684	329.281	0.099	0.188
-84.670	-193.230	0.239	-0.002
-83.655	800.000	0.038	-0.113
-82.640	-200.000	-0.031	-0.505
-81.626	180.403	-0.039	0.056
-80.611	-200.000	-0.005	-0.163
-79.597	170.915	-0.188	0.265
-78.582	185.290	0.091	0.133
-77.567	744.733	0.094	0.247
-76.553	93.874	0.201	0.223
-75.538	-200.000	-0.021	0.183
-74.524	26.231	0.065	-0.053
-73.509	294.858	0.169	-0.304
-72.494	-200.000	-0.030	-0.258
-71.480	206.154	0.085	-0.129
-70.465	800.000	0.018	-0.060
-69.451	-134.314	0.213	0.026
-68.436	-91.452	-0.118	0.033
-67.422	170.970	0.079	-0.111
-66.407	-34.726	-0.120	-0.064
-65.392	-200.000	-0.002	-0.014
-64.378	18.835	0.184	-0.144
-63.363	-94.433	0.132	-0.035
-62.349	-13.876	0.082	0.052
-61.334	196.121	-0.613	-0.915
-60.319	115.074	0.638	0.763
-59.305	800.000	-0.364	-1.152
-58.290	347.448	0.628	1.213
-57.276	288.185	0.817	1.449
-56.261	-200.000	99.143	580.480
-55.246	498.803	1422.146	3209.844
-54.232	154.876	2608.285	3512.050
-53.217	105.780	2280.265	2642.042
-52.203	41.783	1903.161	1689.835
-51.188	35.694	1695.241	1459.121
-50.173	32.988	1651.703	1401.542
-49.159	50.693	1700.572	1576.660
-48.144	52.448	1716.849	1604.886
-47.130	35.323	1676.691	1440.138
-46.115	32.576	1662.740	1407.605
-45.100	32.409	1657.916	1402.222
-44.086	32.291	1655.669	1399.390
-43.071	32.373	1652.896	1397.596
-42.057	32.387	1650.621	1395.725
-41.042	32.355	1648.355	1393.512
-40.027	32.309	1647.069	1392.034
-39.013	32.235	1645.140	1389.802
-37.998	32.267	1643.196	1388.336
-36.984	32.291	1642.162	1387.586
-35.969	32.395	1640.474	1386.868
-34.954	32.421	1638.747	1385.548
-33.940	32.437	1637.106	1384.220
-32.925	32.330	1635.767	1382.250
-31.911	32.341	1633.465	1380.329
-30.896	32.418	1631.778	1379.414
-29.881	32.390	1630.129	1377.763
-28.867	32.367	1628.817	1376.431
-27.852	32.317	1627.304	1374.729
-26.838	32.288	1626.180	1373.517
-25.823	32.300	1624.490	1372.118
-24.809	32.382	1623.025	1371.424
-23.794	32.440	1621.563	1370.558
-22.779	32.450	1619.922	1369.188
-21.765	32.447	1618.125	1367.592
-20.750	32.405	1616.774	1366.096
-19.736	32.372	1615.430	1364.665
-18.721	32.430	1614.086	1363.899
-17.706	32.412	1612.491	1362.362
-16.692	32.394	1611.359	1361.221
-15.677	32.321	1610.040	1359.524
-14.663	32.420	1608.645	1359.009
-13.648	32.551	1607.253	1358.722
-12.633	32.493	1605.837	1357.055
-11.619	32.461	1603.802	1355.051
-10.604	32.505	1602.364	1354.099
-9.590	32.486	1601.196	1352.919
-8.575	32.487	1599.948	1351.825
-7.560	32.383	1599.054	1350.264
-6.546	32.475	1597.437	1349.505
-5.531	32.424	1596.479	1348.281
-4.517	32.354	1595.618	1346.999
-3.502	32.510	1593.810	1346.535
-2.487	32.464	1592.470	1345.015
-1.473	31.644	1579.502	1328.195
-0.458	27.444	1556.773	1279.590
0.556	21.417	1553.991	1232.235
1.571	17.997	1574.632	1224.032
2.586	17.141	1586.863	1227.247
3.600	15.692	1535.881	1177.574
4.615	9.433	1429.653	1055.104
5.629	2.658	1365.915	965.422
6.644	1.204	1357.849	950.529
7.659	1.037	1356.864	948.712
8.673	1.030	1355.874	947.894
9.688	1.079	1353.725	946.609
10.702	0.911	1350.528	943.243
11.717	3.969	1355.457	965.706
12.731	11.390	1366.672	1020.156
13.746	16.823	1373.937	1059.548
14.761	17.782	1374.298	1065.728
15.775	17.147	1372.378	1060.181
16.790	16.092	1369.834	1051.549
17.804	15.339	1367.452	1044.940
18.819	15.078	1365.648	1041.842
19.834	14.608	1365.097	1038.409
20.848	14.426	1363.427	1035.913
21.863	14.260	1361.907	1033.633
22.877	14.018	1360.895	1031.277
23.892	13.902	1360.342	1030.044
24.907	14.072	1358.588	1029.677
25.921	13.998	1358.511	1029.073
26.936	14.028	1357.532	1028.420
27.950	14.040	1356.541	1027.657
28.965	14.011	1355.886	1026.889
29.980	14.123	1355.060	1026.868
30.994	14.222	1353.823	1026.450
32.009	14.140	1353.204	1025.379
33.023	14.206	1351.551	1024.443
34.038	14.172	1350.646	1023.461
35.053	14.129	1349.441	1022.190
36.067	14.217	1348.479	1021.912
37.082	14.177	1347.641	1020.939
38.096	14.231	1346.908	1020.627
39.111	14.222	1345.608	1019.496
40.126	14.101	1345.110	1018.288
41.140	13.960	1344.392	1016.793
42.155	13.952	1344.062	1016.402
43.169	13.903	1343.716	1015.752
44.184	13.909	1343.792	1015.757
45.199	13.982	1342.765	1015.336
46.213	14.015	1342.073	1014.927
47.228	14.024	1341.568	1014.506
48.242	13.970	1340.300	1013.128
49.257	13.999	1338.574	1011.910
50.271	14.032	1337.313	1011.069
51.286	14.009	1336.084	1009.912
52.301	13.999	1334.611	1008.647
53.315	14.064	1333.501	1008.112
54.330	13.989	1333.015	1007.204
55.344	13.995	1331.637	1006.107
56.359	14.106	1330.010	1005.464
57.374	13.959	1329.489	1004.088
58.388	13.951	1328.596	1003.280
59.403	13.967	1328.497	1003.211
60.417	14.023	1327.322	1002.573
61.432	13.915	1326.834	1001.465
62.447	13.841	1325.986	1000.291
63.461	13.845	1325.069	999.536
64.476	13.868	1323.742	998.581
65.490	13.949	1322.694	998.189
66.505	13.886	1320.961	996.416
67.520	13.871	1319.561	995.184
68.534	13.936	1318.698	994.835
69.549	13.946	1317.683	994.039
70.563	13.858	1316.924	992.853
71.578	13.801	1315.814	991.586
72.593	13.900	1314.274	990.927
73.607	13.778	1313.886	989.820
74.622	13.791	1313.373	989.428
75.636	13.776	1312.062	988.259
76.651	13.871	1311.246	988.125
77.666	13.833	1311.133	987.725
78.680	13.853	1310.308	987.133
79.695	13.773	1309.855	986.231
80.709	13.970	1308.530	986.314
81.724	14.043	1307.947	986.225
82.739	13.953	1307.097	984.960
83.753	14.003	1305.752	984.155
84.768	14.102	1304.719	983.877
85.782	14.070	1304.006	983.063
86.797	14.093	1302.440	981.930
87.812	14.103	1300.976	980.801
88.826	14.032	1300.258	979.752
89.841	14.035	1299.149	978.851
90.855	13.926	1298.868	977.908
91.870	14.079	1297.386	977.607
92.884	14.110	1296.693	977.178
93.899	14.099	1295.825	976.375
94.914	14.169	1295.059	976.122
95.928	14.012	1294.665	974.817
96.943	14.121	1293.062	974.165
97.957	14.166	1292.357	973.807
98.972	14.109	1291.069	972.420
99.987	14.102	1290.375	971.767
101.001	14.130	1289.474	971.169
102.016	14.079	1288.189	969.813
103.030	14.025	1287.467	968.874
104.045	14.090	1286.027	968.083
105.060	14.181	1284.861	967.644
106.074	14.034	1283.787	965.897
107.089	13.976	1282.857	964.778
108.103	13.864	1281.538	963.052
109.118	13.899	1280.473	962.367
110.133	13.953	1278.595	961.184
111.147	13.953	1277.666	960.399
112.162	14.020	1276.021	959.466
113.176	14.072	1275.487	959.276
114.191	14.051	1274.720	958.493
115.206	13.928	1273.793	957.003
116.220	13.973	1272.157	955.949
117.235	14.045	1270.976	955.394
118.249	14.139	1270.044	955.148
119.264	14.020	1268.914	953.528
120.279	13.962	1267.826	952.294
121.293	14.113	1266.862	952.352
122.308	14.013	1266.091	951.113
123.322	13.992	1265.240	950.270
124.337	13.995	1263.873	949.179
125.352	13.942	1262.767	947.961
126.366	13.948	1261.851	947.225
127.381	13.969	1260.888	946.535
128.395	14.009	1259.381	945.549
129.410	13.989	1258.878	944.974
130.424	14.080	1257.577	944.430
131.439	14.106	1256.805	943.916
132.454	13.983	1256.018	942.544
133.468	14.021	1255.234	942.084
134.483	14.002	1254.438	941.296
135.497	14.053	1253.436	940.754
136.512	14.012	1252.020	939.373
137.527	13.959	1251.089	938.293
138.541	13.996	1249.492	937.218
139.556	13.976	1248.795	936.504
140.570	14.132	1247.161	936.073
141.585	14.186	1245.697	935.195
142.600	14.178	1244.634	934.270
143.614	14.213	1243.911	933.840
144.629	14.164	1242.909	932.731
145.643	14.224	1241.699	932.075
146.658	14.233	1240.389	931.062
147.673	14.183	1238.902	929.581
148.687	14.082	1238.379	928.544
149.702	14.171	1236.386	927.464
150.716	14.114	1235.174	926.155
151.731	14.051	1234.347	925.103
152.746	14.142	1233.195	924.661
153.760	14.265	1231.243	923.799
154.775	14.254	1230.283	922.936
155.789	14.345	1229.541	922.802
156.804	14.300	1228.342	921.573
157.819	14.312	1227.640	921.032
158.833	14.246	1226.958	920.070
159.848	14.252	1225.640	919.034
160.862	14.328	1224.537	918.548
161.877	14.366	1222.931	917.472
162.892	14.185	1222.846	916.327
163.906	14.302	1221.521	915.896
164.921	14.307	1220.739	915.256
165.935	14.235	1220.127	914.321
166.950	14.316	1219.118	913.932
167.964	14.344	1218.406	913.468
168.979	14.409	1217.677	913.199
169.994	14.325	1216.862	912.045
171.008	14.415	1216.227	911.982
172.023	14.399	1215.423	911.212
173.037	14.509	1214.630	911.138
174.052	14.416	1213.739	909.882
175.067	14.362	1212.278	908.409
176.081	14.321	1211.902	907.825
177.096	14.418	1210.596	907.292
178.110	14.479	1209.279	906.558
179.125	14.375	1208.428	905.273
180.140	14.411	1207.180	904.453
181.154	14.495	1206.217	904.108
182.169	14.517	1204.837	903.113
183.183	14.510	1203.410	901.926
184.198	14.680	1202.086	901.772
185.213	14.623	1201.327	900.817
186.227	14.637	1200.077	899.876
187.242	14.564	1199.580	899.029
188.256	14.686	1198.506	898.801
189.271	14.615	1197.216	897.375
190.286	14.553	1196.230	896.220
191.300	14.405	1195.539	894.830
192.315	14.413	1194.742	894.199
193.329	14.531	1193.740	894.002
194.344	14.534	1193.458	893.726
195.359	14.677	1192.223	893.487
196.373	14.582	1192.444	893.063
197.388	14.658	1191.907	892.989
198.402	14.766	1191.156	892.924
199.417	14.805	1190.478	892.547
200.432	14.811	1189.988	892.135
201.446	14.902	1188.597	891.497
202.461	14.887	1188.096	890.961
203.475	14.907	1187.017	890.182
204.490	14.864	1185.648	888.846
205.504	14.837	1184.576	887.819
206.519	14.808	1183.444	886.741
207.534	14.779	1182.599	885.872
208.548	14.821	1181.284	885.035
209.563	14.838	1180.719	884.620
210.577	14.887	1179.587	883.952
211.592	14.957	1178.321	883.296
212.607	14.993	1178.007	883.174
213.621	14.890	1177.762	882.369
214.636	14.941	1176.180	881.371
215.650	14.961	1175.396	880.814
216.665	15.006	1174.161	880.045
217.680	15.038	1173.427	879.587
218.694	14.963	1172.995	878.793
219.709	15.126	1171.808	878.679
220.723	15.155	1171.143	878.255
221.738	15.092	1170.105	877.068
222.753	15.027	1170.111	876.654
223.767	15.226	1169.093	876.858
224.782	15.197	1168.264	876.004
225.796	15.216	1167.805	875.683
226.811	15.159	1167.009	874.710
227.826	15.204	1166.534	874.510
228.840	15.244	1165.696	874.014
229.855	15.217	1164.825	873.147
230.869	15.133	1164.327	872.256
231.884	15.255	1163.306	872.048
232.899	15.176	1162.580	871.016
233.913	15.069	1162.116	870.039
234.928	15.209	1160.921	869.792
235.942	15.196	1160.289	869.173
236.957	15.189	1159.549	868.504
237.972	15.249	1158.496	867.952
238.986	15.219	1158.165	867.472
240.001	15.079	1157.888	866.464
241.015	15.158	1156.627	865.852
242.030	15.350	1155.461	865.892
243.045	15.234	1155.234	865.049
244.059	15.311	1153.982	864.432
245.074	15.352	1153.106	863.909
246.088	15.339	1152.604	863.391
247.103	15.363	1152.092	863.052
248.117	15.343	1151.322	862.294
249.132	15.364	1150.727	861.881
250.147	15.528	1149.927	862.047
251.161	15.497	1149.368	861.392
252.176	15.658	1148.308	861.347
253.190	15.609	1147.651	860.528
254.205	15.648	1147.422	860.479
255.220	15.670	1146.606	859.908
256.234	15.745	1145.958	859.727
257.249	15.708	1145.378	859.028
258.263	15.653	1144.589	858.078
259.278	15.769	1144.188	858.293
260.293	15.806	1143.221	857.680
261.307	15.781	1143.069	857.361
262.322	15.729	1142.408	856.527
263.336	15.783	1141.657	856.163
264.351	15.847	1141.249	856.105
265.366	15.861	1140.187	855.307
266.380	15.795	1139.695	854.525
267.395	15.875	1138.845	854.220
268.409	15.800	1138.181	853.262
269.424	15.895	1137.711	853.319
270.439	15.808	1136.857	852.163
271.453	15.809	1136.257	851.641
272.468	15.818	1135.400	850.971
273.482	15.850	1134.365	850.277
274.497	15.896	1133.879	850.072
275.512	15.855	1133.389	849.423
276.526	15.941	1132.583	849.180
277.541	16.014	1131.388	848.574
278.555	15.861	1131.003	847.440
279.570	16.019	1130.168	847.535
280.585	15.965	1129.522	846.705
281.599	16.096	1128.879	846.806
282.614	16.019	1128.084	845.748
283.628	15.991	1127.022	844.736
284.643	16.088	1126.005	844.385
285.657	16.074	1125.330	843.733
286.672	16.040	1124.344	842.750
287.687	16.127	1122.873	842.005
288.701	16.162	1122.387	841.742
289.716	16.118	1121.786	840.999
290.730	16.234	1120.737	840.717
291.745	16.233	1120.239	840.261
292.760	16.151	1119.725	839.394
293.774	16.300	1119.065	839.563
294.789	16.204	1118.723	838.757
295.803	16.200	1117.898	838.047
296.818	16.108	1117.070	836.895
297.833	16.189	1116.301	836.642
298.847	16.247	1115.580	836.318
299.862	16.289	1114.748	835.825
300.876	16.172	1114.319	834.855
301.891	16.273	1113.726	834.834
302.906	16.311	1112.790	834.245
303.920	16.387	1112.237	834.132
304.935	16.516	1111.593	834.215
305.949	16.428	1110.986	833.251
306.964	16.478	1110.082	832.746
307.979	16.432	1109.440	831.966
308.993	16.484	1108.830	831.689
310.008	16.397	1107.792	830.411
311.022	16.574	1106.969	830.586
312.037	16.433	1106.498	829.467
313.052	16.534	1105.318	829.004
314.066	16.419	1104.531	827.779
315.081	16.494	1103.699	827.448
316.095	16.454	1103.009	826.664
317.110	16.435	1102.469	826.091
318.125	16.539	1101.589	825.869
319.139	16.459	1101.028	824.983
320.154	16.428	1100.388	824.280
321.168	16.565	1099.834	824.457
322.183	16.537	1099.190	823.765
323.197	16.514	1098.650	823.177
324.212	16.454	1097.952	822.288
325.227	16.521	1097.421	822.145
326.241	16.571	1096.759	821.818
327.256	16.715	1095.433	821.451
328.270	16.647	1094.687	820.491
329.285	16.561	1094.434	819.812
330.300	16.518	1093.196	818.602
331.314	16.597	1092.550	818.430
332.329	16.696	1090.957	817.641
333.343	16.616	1090.310	816.699
334.358	16.756	1089.474	816.674
335.373	16.814	1088.553	816.193
336.387	16.772	1087.906	815.431
337.402	16.808	1087.420	815.166
338.416	16.661	1087.063	814.124
339.431	16.804	1086.043	813.970
340.446	16.734	1085.644	813.266
341.460	16.818	1084.897	813.035
342.475	16.843	1083.983	812.402
343.489	16.910	1082.942	811.867
344.504	16.975	1082.027	811.422
345.519	16.904	1081.580	810.675
346.533	16.996	1080.753	810.425
347.548	16.985	1079.978	809.719
348.562	17.065	1079.038	809.321
349.577	17.056	1078.472	808.787
350.592	17.007	1077.750	807.939
351.606	16.966	1076.736	806.911
352.621	16.926	1076.187	806.239
353.635	17.062	1075.494	806.295
354.650	17.016	1075.227	805.805
355.665	16.975	1074.161	804.738
356.679	17.008	1073.626	804.423
357.694	17.054	1073.175	804.231
358.708	17.079	1072.374	803.682
359.723	17.133	1071.643	803.317
360.738	17.147	1070.775	802.662
361.752	17.174	1070.563	802.556
362.767	17.139	1069.904	801.828
363.781	17.271	1069.408	802.007
364.796	17.239	1068.856	801.373
365.810	17.205	1068.280	800.711
366.825	17.401	1067.501	800.975
367.840	17.372	1067.257	800.585
368.854	17.344	1066.779	800.024
369.869	17.409	1065.638	799.405
370.883	17.327	1064.931	798.417
371.898	17.308	1064.025	797.577
372.913	17.302	1063.764	797.285
373.927	17.337	1063.207	796.963
374.942	17.427	1062.284	796.621
375.956	17.406	1062.171	796.369
376.971	17.403	1061.714	795.940
377.986	17.531	1060.901	795.858
379.000	17.535	1060.441	795.462
380.015	17.554	1059.744	794.956
381.029	17.509	1059.186	794.257
382.044	17.673	1058.396	794.359
383.059	17.697	1057.771	793.933
384.073	17.721	1056.805	793.250
385.088	17.667	1055.789	792.166
386.102	17.701	1054.929	791.607
387.117	17.638	1053.980	790.532
388.132	17.555	1053.466	789.691
389.146	17.648	1052.451	789.291
390.161	17.665	1051.805	788.819
391.175	17.689	1050.935	788.206
392.190	17.744	1050.401	787.991
393.205	17.792	1049.713	787.625
394.219	17.827	1048.823	787.050
395.234	17.764	1048.169	786.199
396.248	17.677	1047.126	784.945
397.263	17.619	1046.147	783.875
398.278	17.694	1045.430	783.614
399.292	17.904	1044.775	784.020
400.307	17.726	1044.330	782.797
401.321	17.777	1043.669	782.467
402.336	17.690	1043.341	781.754
403.350	17.806	1042.349	781.472
404.365	17.849	1041.575	781.017
405.380	17.784	1040.951	780.183
406.394	17.815	1040.311	779.777
407.409	17.887	1039.416	779.367
408.423	17.881	1038.954	778.923
409.438	17.919	1038.532	778.712
410.453	17.922	1037.591	777.949
411.467	17.904	1036.549	777.019
412.482	18.027	1035.824	776.965
413.496	18.149	1035.290	777.053
414.511	18.144	1034.872	776.645
415.526	18.209	1034.016	776.228
416.540	18.144	1033.939	775.807
417.555	18.066	1033.549	775.091
418.569	18.199	1032.676	774.970
419.584	18.155	1032.710	774.731
420.599	18.150	1032.104	774.183
421.613	104.839	1320.731	1464.081
422.628	96.076	1362.733	1464.170
