DTS Sentinel unit serial number:	SN413079Multiplexer serial number:	ORYXHardware model number:	OX4-SRSoftware version number:	ORYX F/W v4.00 Oryx Data Collector v3.7.2.0data status	okinstallation	princeton_trtdifferential loss correction	single-endedforward channel	channel 2reverse channel	N/Adate	2019/09/12time	19:23:49forward acquisition time	15.00reverse acquisition time	0.00gamma	496.2192k internal	0.2326k external	0.2326temperature offset calibration	1.0149default loss term (dB/km)	0.3790temperature slope calibration	1.0000multiplexer offset coefficient	1.0000multiplexer slope coefficient	1.0000fibre end	0.00T internal ref (°C)	32.37T ext. ref 1 (°C)	3.21T ext. ref 2 (°C)	26.92length (m)	temperature (°C)	Stokes	anti-Stokes-747.200	57.539	0.554	0.546
-746.185	-14.943	0.444	-0.287
-745.171	51.100	-0.647	-0.619
-744.156	-200.000	-0.093	0.917
-743.142	-4.936	-0.885	-0.615
-742.127	21.984	0.293	-0.241
-741.112	-35.016	-0.428	0.236
-740.098	-9.635	0.866	0.582
-739.083	-67.403	-0.368	-0.146
-738.069	-78.885	-0.632	-0.217
-737.054	123.350	0.464	0.587
-736.039	-29.338	-0.400	-0.231
-735.025	-93.442	0.508	0.142
-734.010	112.844	-0.190	0.232
-732.996	-132.261	-0.703	-0.092
-731.981	92.630	-0.376	-0.428
-730.966	56.249	-0.354	-0.347
-729.952	800.000	-0.046	-0.200
-728.937	110.787	-0.205	0.248
-727.923	758.389	-0.134	-0.367
-726.908	294.679	-0.160	0.294
-725.894	-26.944	0.729	-0.429
-724.879	24.855	0.303	0.253
-723.864	-137.688	-0.502	-0.057
-722.850	87.805	-0.191	0.214
-721.835	321.209	0.370	-0.709
-720.821	-200.000	0.041	0.230
-719.806	-150.726	0.198	0.015
-718.791	258.427	-0.054	0.094
-717.777	421.758	-0.447	-0.967
-716.762	135.673	-0.403	0.528
-715.748	-174.728	-0.492	0.014
-714.733	-200.000	0.058	0.432
-713.718	-29.760	0.657	-0.377
-712.704	-200.000	0.035	-0.734
-711.689	111.109	-0.328	0.398
-710.675	-44.756	0.703	-0.353
-709.660	-62.165	-0.143	0.060
-708.645	156.964	0.274	-0.382
-707.631	-200.000	-0.123	0.937
-706.616	-114.074	0.298	0.058
-705.602	-82.194	0.252	-0.083
-704.587	800.000	0.151	0.473
-703.572	-158.806	-0.191	-0.011
-702.558	-79.354	-0.629	-0.214
-701.543	-200.000	0.059	-1.156
-700.529	237.224	0.384	-0.640
-699.514	-97.874	0.933	0.243
-698.499	-50.094	-0.705	-0.336
-697.485	775.098	-0.116	-0.319
-696.470	-200.000	-0.085	-0.586
-695.456	-200.000	0.109	-0.909
-694.441	42.277	0.414	-0.378
-693.426	-20.277	-1.003	-0.622
-692.412	-135.319	0.223	-0.027
-691.397	-13.732	-0.547	-0.356
-690.383	-105.452	0.253	-0.058
-689.368	4.113	0.240	0.177
-688.354	-200.000	-0.031	-0.239
-687.339	-30.319	0.407	0.232
-686.324	-146.620	-0.198	0.017
-685.310	800.000	-0.051	-0.151
-684.295	28.549	-0.526	0.448
-683.281	120.266	-0.344	0.430
-682.266	22.423	0.854	0.702
-681.251	-19.494	-0.466	0.290
-680.237	800.000	0.114	-0.399
-679.222	-5.390	0.401	0.277
-678.208	-32.942	0.455	-0.254
-677.193	151.583	-0.367	0.503
-676.178	-190.566	0.275	-0.003
-675.164	-200.000	0.006	0.298
-674.149	93.338	0.343	-0.390
-673.135	289.685	-0.197	-0.360
-672.120	294.747	0.148	-0.273
-671.105	161.735	-0.209	0.294
-670.091	19.448	-0.479	0.387
-669.076	33.151	-0.328	-0.286
-668.062	-134.193	0.241	-0.030
-667.047	-126.860	-0.435	0.064
-666.032	-89.108	-0.263	0.078
-665.018	147.122	0.539	-0.729
-664.003	325.598	-0.596	-1.146
-662.989	-25.332	-0.408	-0.242
-661.974	549.875	0.135	0.326
-660.959	-11.571	-0.295	-0.195
-659.945	675.494	0.431	1.126
-658.930	-200.000	-0.102	0.497
-657.916	267.316	0.018	-0.031
-656.901	-141.084	-0.189	0.019
-655.886	-95.713	-0.445	0.119
-654.872	179.309	-0.118	-0.173
-653.857	-8.730	-0.671	0.452
-652.843	51.030	0.524	0.499
-651.828	-200.000	0.006	-0.944
-650.814	-139.314	-0.306	-0.033
-649.799	-97.638	-0.322	-0.084
-648.784	-100.039	0.563	0.141
-647.770	43.314	0.367	0.337
-646.755	-173.205	0.163	0.005
-645.741	800.000	0.105	0.364
-644.726	-121.742	-1.070	0.178
-643.711	-69.604	0.589	0.226
-642.697	-60.305	0.597	0.255
-641.682	800.000	0.276	-0.945
-640.668	800.000	0.093	0.387
-639.653	800.000	0.347	-0.995
-638.638	-200.000	-0.008	-0.219
-637.624	500.962	-0.130	0.302
-636.609	-46.303	-0.470	0.232
-635.595	234.268	0.153	-0.253
-634.580	-200.000	0.071	0.644
-633.565	-63.109	-0.897	-0.372
-632.551	29.525	-0.552	0.472
-631.536	20.150	0.312	0.253
-630.522	48.890	0.216	0.203
-629.507	246.903	0.422	-0.715
-628.492	-69.191	-0.639	-0.247
-627.478	-200.000	-0.100	0.649
-626.463	-200.000	-0.085	-0.623
-625.449	-97.578	-0.852	-0.222
-624.434	-200.000	0.223	1.140
-623.419	-81.870	-1.365	0.449
-622.405	-167.413	1.014	0.041
-621.390	138.862	-0.211	0.279
-620.376	465.675	0.138	0.310
-619.361	-50.556	-0.552	-0.261
-618.346	-178.698	0.721	-0.017
-617.332	8.929	0.196	-0.148
-616.317	25.078	0.382	0.318
-615.303	-44.107	-0.650	0.327
-614.288	-200.000	-0.006	0.078
-613.273	2.260	0.433	-0.314
-612.259	-200.000	0.065	-0.304
-611.244	-57.183	0.749	0.331
-610.230	366.920	-0.250	-0.505
-609.215	-100.045	-0.323	-0.081
-608.201	125.231	-0.673	0.852
-607.186	-62.203	0.508	-0.213
-606.171	505.056	0.154	-0.358
-605.157	47.158	0.500	-0.467
-604.142	33.666	0.829	-0.723
-603.128	60.170	-0.360	0.357
-602.113	713.869	-0.262	-0.697
-601.098	-5.080	0.483	-0.333
-600.084	-155.464	0.301	0.019
-599.069	-200.000	-0.011	0.529
-598.055	-121.778	0.298	0.049
-597.040	-200.000	-0.098	-0.734
-596.025	47.529	-0.649	0.606
-595.011	-200.000	-0.014	0.426
-593.996	-200.000	0.115	-0.001
-592.982	-29.387	0.370	0.212
-591.967	800.000	0.087	-0.264
-590.952	308.409	-0.210	-0.393
-589.938	129.620	0.338	-0.434
-588.923	-83.378	0.532	-0.171
-587.909	-101.294	-0.755	0.185
-586.894	-39.924	0.511	0.267
-585.879	-104.808	-0.253	-0.058
-584.865	80.781	-0.312	0.337
-583.850	-200.000	0.017	0.169
-582.836	-183.576	0.269	-0.005
-581.821	-96.694	-0.441	-0.116
-580.806	-136.307	-0.862	0.101
-579.792	-133.713	-0.718	0.090
-578.777	-81.949	-0.308	0.101
-577.763	-106.542	0.482	0.108
-576.748	312.885	-0.309	0.581
-575.733	800.000	0.099	-0.370
-574.719	-52.377	0.700	-0.325
-573.704	-99.530	0.668	0.168
-572.690	-200.000	0.048	-0.250
-571.675	278.921	0.159	-0.284
-570.661	-127.550	0.200	-0.029
-569.646	-108.310	0.487	0.105
-568.631	39.194	0.505	0.453
-567.617	7.409	0.284	0.212
-566.602	210.141	0.432	-0.679
-565.588	-19.739	0.847	0.525
-564.573	415.368	0.186	0.396
-563.558	-11.372	-0.493	-0.325
-562.544	-108.015	0.659	0.143
-561.529	167.012	-0.305	-0.434
-560.515	-140.421	-0.689	-0.072
-559.500	-200.000	-0.019	-0.239
-558.485	-149.395	-0.939	-0.075
-557.471	54.636	-0.573	-0.553
-556.456	2.379	0.402	0.291
-555.442	187.086	-0.206	-0.307
-554.427	-87.419	0.307	0.093
-553.412	599.891	0.123	-0.306
-552.398	-200.000	-0.049	-0.617
-551.383	-161.542	1.047	-0.054
-550.369	174.895	0.315	0.457
-549.354	244.107	0.176	0.296
-548.339	-200.000	0.054	0.401
-547.325	-38.698	-0.503	-0.266
-546.310	800.000	-0.215	-0.596
-545.296	272.538	0.069	-0.121
-544.281	-128.933	-0.501	-0.070
-543.266	294.931	-0.036	0.066
-542.252	-59.089	-0.646	0.279
-541.237	-200.000	0.124	0.793
-540.223	-200.000	-0.085	0.468
-539.208	800.000	-0.161	0.581
-538.193	95.382	0.077	0.088
-537.179	-87.640	0.379	0.115
-536.164	800.000	-0.094	0.266
-535.150	-76.248	0.089	-0.031
-534.135	-46.851	-0.517	-0.253
-533.121	800.000	-0.211	-0.634
-532.106	460.680	0.205	0.458
-531.091	453.202	-0.107	0.238
-530.077	-1.897	0.472	0.332
-529.062	-200.000	-0.011	0.127
-528.048	-200.000	0.004	-0.030
-527.033	214.227	-0.303	0.480
-526.018	-111.535	-0.207	-0.042
-525.004	-52.774	0.352	-0.162
-523.989	-53.492	0.248	-0.114
-522.975	614.049	-0.244	0.612
-521.960	526.747	0.422	0.993
-520.945	800.000	0.039	-0.168
-519.931	178.239	-0.309	-0.452
-518.916	-27.448	0.268	0.156
-517.902	-27.516	0.776	-0.451
-516.887	97.424	-0.126	0.145
-515.872	-200.000	0.033	-0.342
-514.858	52.428	0.449	0.428
-513.843	184.301	0.424	-0.627
-512.829	-200.000	-0.048	0.297
-511.814	1.440	0.125	-0.090
-510.799	-16.784	0.460	-0.291
-509.785	50.644	-0.575	0.543
-508.770	456.218	-0.206	0.456
-507.756	-200.000	0.034	-0.203
-506.741	14.859	0.454	0.355
-505.726	-6.234	-0.563	0.384
-504.712	-37.406	0.479	0.256
-503.697	163.973	0.299	0.421
-502.683	641.120	0.038	-0.097
-501.668	623.074	0.329	-0.829
-500.653	117.157	-0.243	-0.299
-499.639	-63.822	0.593	0.243
-498.624	-130.170	-0.951	0.129
-497.610	800.000	-0.110	-0.453
-496.595	-40.424	-1.146	-0.595
-495.581	-48.286	0.328	0.158
-494.566	5.330	0.273	-0.201
-493.551	-150.739	1.029	0.078
-492.537	-109.083	0.433	-0.092
-491.522	-50.855	-0.974	-0.457
-490.508	647.821	0.212	-0.541
-489.493	-76.371	-0.472	-0.166
-488.478	356.139	0.188	-0.374
-487.464	4.563	0.419	0.307
-486.449	-200.000	0.093	-0.610
-485.435	-36.370	0.436	0.235
-484.420	-9.229	-0.200	0.133
-483.405	146.028	0.021	0.028
-482.391	800.000	0.036	-0.113
-481.376	-80.459	0.215	0.071
-480.362	-131.698	0.934	0.122
-479.347	-200.000	0.067	-0.771
-478.332	800.000	-0.168	0.672
-477.318	141.956	0.178	0.235
-476.303	-107.914	-0.409	0.089
-475.289	48.389	0.634	0.592
-474.274	521.950	0.336	-0.786
-473.259	-104.666	-0.535	-0.123
-472.245	357.463	-0.181	-0.361
-471.230	-114.576	-0.712	0.136
-470.216	68.942	0.801	-0.821
-469.201	-32.868	-0.933	-0.517
-468.186	-200.000	-0.071	-0.415
-467.172	-148.014	0.446	0.037
-466.157	324.240	-0.605	1.152
-465.143	-62.122	-0.925	0.385
-464.128	17.688	-0.498	0.395
-463.113	56.464	-0.466	0.452
-462.099	76.177	-0.235	-0.249
-461.084	-75.523	0.546	0.194
-460.070	-89.304	-0.475	0.140
-459.055	241.611	-0.466	0.777
-458.040	149.354	-0.268	-0.361
-457.026	728.179	0.080	0.214
-456.011	-37.131	0.514	0.275
-454.997	-32.107	-1.274	0.710
-453.982	-125.412	0.370	0.056
-452.968	-39.738	-0.755	-0.394
-451.953	355.421	0.203	-0.403
-450.938	294.439	-0.133	0.243
-449.924	204.212	0.084	0.129
-448.909	800.000	-0.055	0.174
-447.895	-42.315	0.396	-0.202
-446.880	472.452	0.376	-0.843
-445.865	-3.646	-0.405	0.280
-444.851	800.000	-0.081	0.296
-443.836	-40.097	0.533	0.277
-442.822	-22.892	0.632	0.380
-441.807	-35.494	-0.470	0.254
-440.792	13.149	0.448	0.346
-439.778	24.182	0.434	0.357
-438.763	48.354	-0.713	-0.665
-437.749	26.245	0.467	-0.389
-436.734	-122.887	0.734	-0.118
-435.719	-180.784	-0.296	-0.006
-434.705	11.825	-0.369	-0.282
-433.690	157.675	-0.222	-0.306
-432.676	-200.000	0.097	-0.829
-431.661	-63.040	1.069	0.440
-430.646	-2.687	-0.595	0.414
-429.632	158.497	-0.234	-0.324
-428.617	-58.867	-0.789	-0.340
-427.603	12.526	-0.416	-0.320
-426.588	-200.000	-0.003	0.162
-425.573	14.501	-0.429	-0.334
-424.559	-112.818	-0.700	-0.138
-423.544	285.300	-0.354	-0.636
-422.530	-200.000	0.094	-0.525
-421.515	339.041	-0.248	0.481
-420.500	51.619	0.141	0.133
-419.486	-177.595	-0.386	0.009
-418.471	34.433	-0.744	0.647
-417.457	-200.000	-0.012	-0.217
-416.442	48.018	-0.565	-0.526
-415.428	-200.000	0.098	1.483
-414.413	-28.325	-0.866	-0.498
-413.398	330.212	0.404	-0.775
-412.384	22.631	0.392	0.320
-411.369	36.021	0.092	0.081
-410.355	95.517	0.406	0.461
-409.340	-115.783	0.642	-0.120
-408.325	-200.000	0.011	-0.476
-407.311	-93.755	-0.336	0.092
-406.296	-200.000	-0.010	-0.598
-405.282	119.455	-0.556	0.685
-404.267	138.064	-0.108	-0.141
-403.252	-170.920	0.488	0.017
-402.238	800.000	-0.158	0.493
-401.223	120.114	0.200	0.247
-400.209	-200.000	0.013	-0.113
-399.194	1.185	0.338	-0.241
-398.179	-70.671	0.269	-0.101
-397.165	-41.754	0.273	-0.139
-396.150	800.000	-0.109	0.329
-395.136	-200.000	-0.068	0.520
-394.121	-128.283	0.522	-0.074
-393.106	-30.333	0.214	-0.121
-392.092	-119.402	0.344	-0.060
-391.077	189.042	-0.134	-0.199
-390.063	36.544	0.461	0.405
-389.048	534.309	-0.105	-0.247
-388.033	304.621	0.253	-0.467
-387.019	3.019	0.217	-0.157
-386.004	-77.080	0.222	-0.077
-384.990	-56.513	0.495	0.218
-383.975	-200.000	-0.108	-0.678
-382.960	-131.399	-0.466	0.061
-381.946	-110.280	-0.437	-0.090
-380.931	146.459	-0.180	0.241
-379.917	58.633	0.322	0.314
-378.902	309.434	0.236	-0.439
-377.888	-31.301	-0.780	-0.437
-376.873	-200.000	-0.026	-0.199
-375.858	-90.327	-0.381	-0.110
-374.844	-103.785	0.952	0.221
-373.829	-88.146	-0.531	0.158
-372.815	-99.733	0.885	-0.220
-371.800	-200.000	-0.025	0.181
-370.785	122.420	0.324	0.402
-369.771	22.274	-0.720	-0.585
-368.756	-153.739	-0.621	-0.042
-367.742	73.458	-0.427	-0.444
-366.727	392.576	0.159	-0.328
-365.712	-61.936	-0.310	0.129
-364.698	-6.281	0.596	0.404
-363.683	143.056	-0.039	-0.052
-362.669	-200.000	0.024	0.459
-361.654	-111.178	0.551	-0.112
-360.639	49.721	-0.455	-0.426
-359.625	226.039	0.244	-0.392
-358.610	-141.785	-0.551	-0.055
-357.596	-119.026	0.608	-0.106
-356.581	-200.000	-0.102	0.459
-355.566	259.808	0.228	-0.391
-354.552	-39.809	-0.253	-0.131
-353.537	217.674	0.210	0.332
-352.523	-28.479	0.457	0.262
-351.508	55.146	0.686	-0.659
-350.493	-87.009	-0.639	-0.193
-349.479	-200.000	-0.048	-0.472
-348.464	-47.434	-0.588	0.284
-347.450	-135.246	-0.254	-0.030
-346.435	16.536	0.586	-0.460
-345.420	53.432	0.148	-0.141
-344.406	284.154	-0.662	1.183
-343.391	800.000	-0.126	-0.505
-342.377	205.048	-0.166	-0.256
-341.362	-156.709	-0.527	0.032
-340.348	342.503	0.377	0.732
-339.333	-200.000	-0.028	1.450
-338.318	210.244	-0.388	0.604
-337.304	-106.989	-0.513	-0.113
-336.289	-200.000	-0.112	-0.593
-335.275	800.000	-0.137	-0.502
-334.260	99.251	0.235	0.270
-333.245	20.660	0.237	0.191
-332.231	800.000	-0.039	0.167
-331.216	-45.572	-0.394	0.194
-330.202	216.258	-0.347	-0.547
-329.187	-93.729	0.991	-0.271
-328.172	-100.446	0.240	-0.059
-327.158	-200.000	0.012	-0.119
-326.143	148.294	0.358	-0.479
-325.129	268.905	-0.543	-0.945
-324.114	-142.302	-0.703	0.069
-323.099	-200.000	-0.076	-0.373
-322.085	-90.931	-0.145	-0.042
-321.070	254.120	-0.332	0.562
-320.056	-60.126	-0.811	0.343
-319.041	397.898	-0.345	0.715
-318.026	-177.886	0.848	0.020
-317.012	-200.000	0.141	0.659
-315.997	800.000	-0.208	0.633
-314.983	-66.985	0.256	0.100
-313.968	209.623	0.370	-0.575
-312.953	592.276	-0.274	0.671
-311.939	286.451	-0.212	0.379
-310.924	86.420	-0.260	0.284
-309.910	-87.263	0.625	-0.188
-308.895	313.509	-0.233	0.435
-307.880	-6.776	0.171	-0.116
-306.866	-41.389	-0.073	-0.037
-305.851	71.962	0.521	0.537
-304.837	-200.000	0.012	-0.722
-303.822	800.000	-0.269	0.987
-302.807	354.181	0.241	-0.474
-301.793	200.108	0.296	0.451
-300.778	-94.653	0.447	-0.120
-299.764	-17.767	0.416	-0.259
-298.749	-50.924	-0.243	0.113
-297.735	-119.262	0.250	0.043
-296.720	188.826	-0.173	-0.257
-295.705	67.701	0.196	-0.199
-294.691	-137.418	-0.313	0.035
-293.676	217.300	-0.563	-0.889
-292.662	182.869	-0.184	-0.269
-291.647	-43.482	-0.455	0.228
-290.632	-200.000	0.017	0.489
-289.618	-200.000	-0.152	-0.758
-288.603	694.868	-0.103	0.269
-287.589	345.116	-0.280	0.545
-286.574	523.302	-0.243	0.566
-285.559	-159.309	-0.902	0.050
-284.545	82.737	-0.395	0.425
-283.530	-78.857	-1.047	0.353
-282.516	106.343	0.310	-0.364
-281.501	474.046	0.282	0.629
-280.486	43.064	-0.311	0.281
-279.472	-200.000	1.103	0.002
-278.457	-188.956	0.179	0.002
-277.443	-62.186	-0.106	-0.044
-276.428	-200.000	-0.010	0.642
-275.413	-133.645	0.726	-0.090
-274.399	-128.850	0.661	-0.092
-273.384	-71.480	0.305	0.113
-272.370	23.329	0.268	-0.218
-271.355	-70.773	0.176	0.066
-270.340	800.000	0.209	-0.609
-269.326	349.724	0.103	-0.202
-268.311	-5.031	-0.336	-0.229
-267.297	99.973	0.683	-0.784
-266.282	140.599	-0.415	-0.542
-265.267	-74.140	0.529	-0.190
-264.253	800.000	0.058	0.183
-263.238	19.182	-0.462	-0.367
-262.224	800.000	-0.167	0.587
-261.209	141.922	0.413	-0.542
-260.195	-116.887	0.648	0.117
-259.180	-17.054	0.233	-0.146
-258.165	124.386	-0.518	-0.644
-257.151	-200.000	0.048	-0.477
-256.136	-117.308	0.592	-0.106
-255.122	800.000	-0.075	0.296
-254.107	-200.000	-0.043	0.426
-253.092	80.273	0.114	-0.122
-252.078	17.899	-0.351	-0.276
-251.063	-156.695	0.501	0.031
-250.049	-14.723	0.220	-0.140
-249.034	-148.633	-0.304	-0.024
-248.019	53.964	-0.467	-0.444
-247.005	-69.595	0.827	-0.313
-245.990	800.000	0.113	0.462
-244.976	-87.611	-0.157	0.047
-243.961	-200.000	0.071	0.569
-242.946	61.505	-0.545	0.536
-241.932	-84.025	0.520	0.163
-240.917	387.284	-0.176	-0.360
-239.903	-126.228	0.217	-0.032
-238.888	565.170	0.137	0.329
-237.873	10.269	0.095	-0.072
-236.859	-9.500	0.108	-0.071
-235.844	203.944	0.152	0.233
-234.830	163.590	0.204	-0.283
-233.815	536.208	0.248	-0.583
-232.800	-42.598	0.362	-0.182
-231.786	127.770	0.376	-0.473
-230.771	-132.107	-0.501	0.064
-229.757	-200.000	-0.069	-0.595
-228.742	800.000	-0.290	-0.908
-227.727	70.705	-0.076	0.077
-226.713	-171.348	-0.407	0.013
-225.698	-113.773	0.187	0.036
-224.684	800.000	-0.175	-0.576
-223.669	800.000	-0.194	-0.792
-222.655	128.081	-0.507	-0.638
-221.640	-139.621	0.672	-0.071
-220.625	-200.000	-0.070	0.423
-219.611	-2.676	-0.257	-0.178
-218.596	800.000	-0.098	-0.283
-217.582	-64.919	-0.900	0.359
-216.567	30.809	-0.169	-0.143
-215.552	1.444	0.245	0.174
-214.538	-125.849	-0.638	0.095
-213.523	306.448	0.042	-0.077
-212.509	-78.176	-0.237	-0.080
-211.494	321.872	0.218	0.410
-210.479	-119.136	-0.368	0.064
-209.465	800.000	0.153	-0.428
-208.450	416.716	-0.452	-0.953
-207.436	121.734	-0.064	0.079
-206.421	-200.000	0.019	-0.780
-205.406	-200.000	-0.024	0.233
-204.392	283.701	-0.486	0.863
-203.377	182.758	0.529	0.771
-202.363	15.902	-0.478	-0.371
-201.348	308.631	0.135	-0.248
-200.333	-17.797	0.820	0.508
-199.319	-200.000	0.148	0.758
-198.304	-100.520	0.322	0.079
-197.290	800.000	0.168	0.519
-196.275	-200.000	0.104	0.454
-195.260	22.950	0.539	0.436
-194.246	41.164	-0.404	0.360
-193.231	330.580	-0.129	-0.246
-192.217	-162.397	0.470	-0.023
-191.202	-200.000	-0.020	0.827
-190.187	180.662	-0.104	-0.151
-189.173	-35.286	0.247	0.133
-188.158	64.218	0.279	0.277
-187.144	-14.980	-0.514	-0.325
-186.129	-200.000	-0.016	0.258
-185.114	-164.499	-0.603	0.027
-184.100	-200.000	0.057	0.532
-183.085	800.000	-0.159	0.519
-182.071	109.380	-0.241	-0.284
-181.056	34.442	0.330	0.284
-180.042	-72.181	-1.416	-0.518
-179.027	486.708	-0.170	-0.383
-178.012	-106.709	-0.428	0.094
-176.998	334.272	-0.257	-0.490
-175.983	-65.490	0.705	0.279
-174.969	-76.989	0.577	0.199
-173.954	34.284	-0.440	0.378
-172.939	9.797	0.421	0.315
-171.925	232.609	0.245	-0.397
-170.910	-84.365	0.461	0.144
-169.896	800.000	0.252	-0.832
-168.881	117.900	0.312	-0.379
-167.866	129.794	0.077	0.097
-166.852	-147.388	-0.852	0.071
-165.837	-168.964	-0.531	-0.020
-164.823	-57.626	0.452	-0.195
-163.808	-81.748	0.153	0.049
-162.793	-108.514	1.352	-0.287
-161.779	86.554	-0.281	0.306
-160.764	-128.000	0.236	-0.033
-159.750	275.205	-0.437	-0.765
-158.735	-200.000	-0.021	-0.127
-157.720	-138.436	0.510	0.055
-156.706	-148.005	0.636	-0.052
-155.691	-94.205	-1.139	-0.307
-154.677	-86.380	0.283	-0.086
-153.662	800.000	0.285	1.067
-152.647	-200.000	-0.018	0.929
-151.633	-43.076	-1.082	-0.540
-150.618	2.950	-0.192	0.138
-149.604	-200.000	-0.055	0.370
-148.589	111.286	-0.270	-0.321
-147.574	310.305	-0.185	-0.341
-146.560	800.000	-0.085	-0.236
-145.545	52.795	0.168	-0.158
-144.531	-137.091	-0.949	-0.107
-143.516	-200.000	0.073	-0.720
-142.502	-183.988	0.308	-0.005
-141.487	-26.294	0.900	-0.521
-140.472	-200.000	0.072	0.343
-139.458	381.935	-0.122	-0.247
-138.443	11.317	0.223	-0.168
-137.429	-87.236	0.263	0.079
-136.414	91.457	-0.437	-0.483
-135.399	322.627	0.575	1.079
-134.385	-62.773	-0.600	0.245
-133.370	-17.404	-0.080	-0.049
-132.356	103.690	0.361	-0.418
-131.341	16.923	-0.182	0.142
-130.326	50.096	-0.572	0.532
-129.312	-160.854	0.617	-0.032
-128.297	-104.444	0.809	0.184
-127.283	-200.000	0.421	0.000
-126.268	-200.000	-0.113	0.496
-125.253	141.562	0.379	0.494
-124.239	142.819	-0.066	-0.086
-123.224	77.011	0.631	0.659
-122.210	-40.591	-0.615	-0.314
-121.195	-140.336	-0.811	0.083
-120.180	-111.431	-0.675	-0.135
-119.166	-156.276	-0.661	-0.041
-118.151	800.000	0.160	0.614
-117.137	-111.793	-0.570	0.113
-116.122	49.099	-0.255	-0.236
-115.107	-200.000	0.073	1.010
-114.093	-25.367	-0.531	0.309
-113.078	336.312	-0.113	0.215
-112.064	-125.224	-0.485	-0.073
-111.049	-200.000	-0.074	-0.642
-110.034	-43.996	0.403	-0.199
-109.020	149.354	-0.519	-0.691
-108.005	-72.438	0.574	0.209
-106.991	800.000	0.043	-0.159
-105.976	-97.406	-0.833	0.213
-104.962	-58.524	0.654	0.279
-103.947	-100.969	0.347	0.084
-102.932	19.955	-0.273	0.216
-101.918	146.242	0.107	-0.142
-100.903	-200.000	-0.134	0.870
-99.889	14.611	-0.554	0.426
-98.874	-200.000	-0.072	-0.394
-97.859	103.807	0.390	-0.451
-96.845	330.907	0.192	-0.364
-95.830	-200.000	-0.034	0.151
-94.816	259.345	-0.171	0.290
-93.801	-105.461	0.242	-0.054
-92.786	-11.546	-0.723	-0.467
-91.772	-68.832	-0.251	-0.095
-90.757	-119.469	-0.038	-0.007
-89.743	-0.508	-0.682	-0.476
-88.728	248.106	-0.040	0.067
-87.713	101.841	-0.188	0.215
-86.699	-58.728	0.265	0.113
-85.684	44.529	-0.341	0.308
-84.670	255.736	0.126	0.213
-83.655	-79.176	-0.201	0.067
-82.640	167.123	-0.287	0.401
-81.626	-126.076	-0.456	-0.067
-80.611	-146.024	0.965	0.084
-79.597	-153.584	0.815	0.055
-78.582	75.483	-0.630	-0.654
-77.567	-95.981	0.342	0.089
-76.553	800.000	-0.097	0.265
-75.538	674.721	-0.333	0.850
-74.524	4.112	0.418	-0.301
-73.509	77.211	0.489	-0.511
-72.494	288.157	0.254	-0.452
-71.480	30.570	-0.130	-0.109
-70.465	-200.000	-0.307	-1.595
-69.451	-200.000	0.001	-0.532
-68.436	800.000	0.212	-0.732
-67.422	36.585	-0.306	0.265
-66.407	285.010	0.415	-0.734
-65.392	-200.000	0.015	-0.445
-64.378	800.000	0.095	-0.405
-63.363	-92.948	1.049	0.288
-62.349	325.132	-0.310	0.582
-61.334	174.734	-0.820	-1.165
-60.319	-200.000	0.177	0.868
-59.305	-200.000	0.065	-1.151
-58.290	-200.000	-0.050	0.643
-57.276	55.498	1.191	1.132
-56.261	-200.000	95.830	599.207
-55.246	683.740	1351.385	3461.249
-54.232	204.260	2524.497	3840.795
-53.217	114.542	2246.707	2687.279
-52.203	41.975	1881.060	1675.506
-51.188	35.667	1673.968	1443.795
-50.173	32.925	1631.081	1386.643
-49.159	51.144	1679.653	1564.035
-48.144	52.185	1694.958	1585.974
-47.130	35.002	1656.262	1423.353
-46.115	32.399	1642.868	1392.552
-45.100	32.371	1636.725	1387.080
-44.086	32.416	1633.924	1384.980
-43.071	32.447	1630.834	1382.535
-42.057	32.130	1629.684	1379.182
-41.042	32.404	1627.495	1379.278
-40.027	32.179	1625.925	1376.247
-39.013	32.340	1624.022	1375.760
-37.998	32.041	1623.394	1372.985
-36.984	32.158	1620.937	1371.707
-35.969	32.213	1620.416	1371.616
-34.954	32.465	1617.444	1370.881
-33.940	32.499	1615.320	1369.277
-32.925	32.373	1614.328	1367.459
-31.911	32.403	1612.902	1366.415
-30.896	32.279	1610.344	1363.297
-29.881	32.124	1610.820	1362.522
-28.867	32.412	1607.024	1361.338
-27.852	32.498	1605.336	1360.480
-26.838	32.365	1603.751	1358.121
-25.823	32.123	1604.014	1356.541
-24.809	32.104	1602.497	1355.069
-23.794	32.546	1599.989	1356.079
-22.779	32.312	1598.598	1353.160
-21.765	32.217	1597.699	1351.662
-20.750	32.268	1596.409	1350.883
-19.736	32.495	1594.160	1350.560
-18.721	32.690	1593.601	1351.426
-17.706	32.479	1591.562	1348.137
-16.692	32.512	1590.059	1347.043
-15.677	32.556	1587.877	1345.452
-14.663	32.614	1587.499	1345.497
-13.648	32.219	1586.533	1341.807
-12.633	32.306	1584.739	1340.858
-11.619	32.470	1582.516	1340.086
-10.604	32.378	1581.811	1338.781
-9.590	32.596	1578.908	1337.821
-8.575	32.365	1579.209	1336.382
-7.560	32.382	1578.116	1335.527
-6.546	32.649	1575.151	1334.852
-5.531	32.565	1574.885	1333.984
-4.517	32.437	1573.807	1332.109
-3.502	32.490	1572.449	1331.279
-2.487	32.359	1571.249	1329.289
-1.473	32.000	1558.996	1316.349
-0.458	29.120	1540.087	1280.339
0.556	26.957	1539.710	1248.251
1.571	24.250	1563.635	1248.600
2.586	23.957	1575.362	1255.780
3.600	21.052	1522.046	1193.333
4.615	12.429	1414.507	1053.856
5.629	4.581	1350.652	957.985
6.644	3.148	1342.940	943.648
7.659	3.125	1341.839	942.649
8.673	3.169	1341.947	942.911
9.688	3.397	1338.569	941.847
10.702	3.121	1335.836	938.155
11.717	6.592	1341.361	963.184
12.731	15.910	1359.022	1033.200
13.746	23.300	1372.058	1088.618
14.761	25.071	1371.580	1099.017
15.775	24.735	1371.198	1096.551
16.790	24.558	1371.466	1095.582
17.804	24.506	1368.955	1093.162
18.819	24.746	1368.447	1094.130
19.834	24.378	1368.340	1091.695
20.848	24.451	1368.235	1091.958
21.863	24.406	1367.990	1091.392
22.877	24.575	1365.219	1090.118
23.892	24.334	1365.401	1088.698
24.907	24.443	1365.008	1088.948
25.921	24.692	1363.092	1088.845
26.936	24.366	1362.962	1086.653
27.950	24.600	1360.915	1086.352
28.965	24.667	1360.096	1086.010
29.980	24.597	1358.686	1084.362
30.994	24.514	1358.473	1083.594
32.009	24.779	1356.973	1083.905
33.023	24.554	1356.754	1082.271
34.038	24.335	1356.158	1080.374
35.053	24.623	1353.798	1080.138
36.067	24.541	1353.065	1078.966
37.082	24.334	1352.515	1077.179
38.096	24.419	1351.628	1076.892
39.111	24.624	1351.125	1077.633
40.126	24.490	1350.305	1076.073
41.140	24.479	1348.823	1074.735
42.155	24.159	1348.565	1072.508
43.169	24.062	1348.457	1071.743
44.184	24.018	1348.687	1071.564
45.199	24.206	1347.610	1071.744
46.213	24.195	1348.189	1072.042
47.228	24.795	1346.447	1074.166
48.242	24.674	1345.200	1072.349
49.257	24.661	1344.132	1071.326
50.271	24.605	1343.221	1070.170
51.286	24.440	1341.680	1067.864
52.301	24.536	1340.456	1067.366
53.315	24.519	1339.755	1066.614
54.330	24.472	1339.138	1065.743
55.344	24.392	1337.487	1063.860
56.359	24.145	1336.993	1061.899
57.374	24.323	1335.490	1061.671
58.388	24.369	1333.922	1060.608
59.403	24.306	1335.016	1061.006
60.417	24.253	1334.104	1059.872
61.432	24.150	1332.685	1058.043
62.447	24.176	1332.079	1057.622
63.461	24.036	1330.836	1055.708
64.476	24.066	1330.195	1055.288
65.490	24.102	1327.984	1053.649
66.505	24.126	1327.483	1053.300
67.520	24.286	1326.321	1053.230
68.534	24.115	1326.055	1051.915
69.549	24.138	1324.286	1050.558
70.563	24.136	1322.738	1049.223
71.578	24.060	1322.806	1048.737
72.593	23.898	1322.731	1047.633
73.607	23.947	1320.688	1046.208
74.622	23.932	1320.483	1045.868
75.636	24.263	1318.549	1046.183
76.651	24.134	1319.026	1045.711
77.666	24.139	1318.268	1045.047
78.680	24.064	1318.111	1044.394
79.695	23.981	1318.112	1043.812
80.709	23.955	1317.016	1042.702
81.724	24.185	1316.693	1043.700
82.739	24.407	1314.871	1043.463
83.753	24.579	1315.031	1044.503
84.768	24.561	1314.084	1043.554
85.782	24.757	1312.911	1043.674
86.797	24.471	1312.276	1041.409
87.812	24.729	1310.632	1041.513
88.826	24.670	1309.716	1040.348
89.841	24.587	1308.063	1038.462
90.855	24.765	1307.226	1038.738
91.870	24.888	1306.539	1038.817
92.884	25.120	1305.372	1039.144
93.899	24.814	1303.971	1036.163
94.914	24.968	1304.566	1037.435
95.928	24.664	1304.895	1035.843
96.943	24.881	1302.425	1035.045
97.957	24.864	1301.828	1034.381
98.972	24.897	1301.170	1033.959
99.987	24.471	1301.004	1031.275
101.001	24.621	1299.805	1031.099
102.016	24.983	1298.526	1032.080
103.030	24.609	1298.024	1029.435
104.045	24.793	1296.664	1029.321
105.060	24.422	1294.731	1025.565
106.074	24.314	1294.904	1024.989
107.089	24.268	1292.411	1022.666
108.103	24.134	1291.771	1021.295
109.118	24.142	1290.943	1020.596
110.133	24.012	1289.692	1018.775
111.147	24.060	1288.056	1017.668
112.162	24.210	1286.870	1017.494
113.176	24.122	1286.915	1016.938
114.191	24.241	1285.343	1016.289
115.206	24.108	1285.038	1015.196
116.220	24.514	1282.988	1015.798
117.235	24.444	1281.824	1014.387
118.249	24.019	1281.267	1011.443
119.264	24.096	1279.851	1010.673
120.279	24.279	1279.390	1011.260
121.293	24.082	1278.555	1009.390
122.308	24.038	1278.251	1008.810
123.322	23.841	1276.782	1006.447
124.337	23.821	1276.176	1005.771
125.352	23.808	1274.864	1004.572
126.366	24.070	1274.003	1005.282
127.381	23.944	1273.708	1004.252
128.395	23.834	1271.906	1002.121
129.410	23.824	1271.359	1001.546
130.424	23.313	1272.099	999.161
131.439	23.734	1270.594	1000.260
132.454	23.796	1270.336	1000.317
133.468	24.143	1268.878	1001.029
134.483	24.262	1268.384	1001.220
135.497	24.036	1268.454	999.918
136.512	24.092	1266.298	998.445
137.527	24.045	1265.813	997.710
138.541	23.950	1264.082	995.723
139.556	24.336	1262.599	996.625
140.570	24.576	1262.600	997.882
141.585	24.705	1260.934	997.196
142.600	24.716	1261.271	997.433
143.614	24.817	1260.499	997.300
144.629	24.950	1259.007	996.773
145.643	24.709	1257.589	994.220
146.658	24.371	1256.942	991.743
147.673	24.642	1254.476	991.214
148.687	24.542	1254.446	990.547
149.702	24.489	1251.768	988.050
150.716	24.053	1251.462	985.309
151.731	23.710	1250.438	982.519
152.746	23.879	1250.025	983.039
153.760	24.212	1248.756	983.792
154.775	24.287	1249.042	984.346
155.789	24.513	1247.639	984.399
156.804	24.485	1246.149	982.981
157.819	24.122	1245.708	980.547
158.833	24.538	1244.634	981.908
159.848	24.561	1244.152	981.562
160.862	24.759	1241.939	980.820
161.877	24.336	1241.716	978.238
162.892	24.079	1240.464	975.753
163.906	23.860	1240.735	974.678
164.921	24.069	1239.050	974.414
165.935	24.256	1238.552	974.961
166.950	24.415	1238.139	975.418
167.964	24.336	1238.234	974.973
168.979	24.451	1237.113	974.633
169.994	24.186	1236.950	972.971
171.008	24.140	1235.721	971.667
172.023	24.328	1234.956	972.003
173.037	24.754	1233.086	972.767
174.052	24.470	1233.450	971.423
175.067	24.183	1232.234	968.816
176.081	24.069	1231.154	967.265
177.096	24.184	1230.968	967.656
178.110	24.226	1228.557	965.903
179.125	24.171	1227.099	964.376
180.140	24.446	1227.333	965.958
181.154	24.312	1226.455	964.456
182.169	24.418	1225.078	963.864
183.183	24.517	1224.311	963.708
184.198	24.624	1222.773	962.989
185.213	24.551	1222.982	962.676
186.227	24.400	1221.392	960.525
187.242	24.421	1220.932	960.194
188.256	24.599	1219.781	960.157
189.271	24.755	1217.664	959.244
190.286	24.647	1217.635	958.555
191.300	24.231	1216.774	955.568
192.315	24.381	1215.294	955.124
193.329	24.648	1215.323	956.489
194.344	24.403	1215.427	955.175
195.359	24.158	1214.317	952.908
196.373	23.951	1213.154	950.802
197.388	23.740	1214.057	950.296
198.402	24.499	1214.236	954.413
199.417	24.559	1214.258	954.669
200.432	24.533	1213.621	953.941
201.446	24.550	1212.629	953.171
202.461	24.660	1211.565	952.837
203.475	24.728	1210.176	952.020
204.490	24.380	1208.914	949.096
205.504	24.077	1207.897	946.600
206.519	24.083	1207.811	946.480
207.534	24.255	1204.515	944.725
208.548	24.150	1204.093	943.755
209.563	24.051	1203.785	942.907
210.577	23.919	1202.245	940.920
211.592	24.317	1201.940	942.700
212.607	24.625	1202.418	944.622
213.621	24.448	1201.294	942.718
214.636	24.457	1200.815	942.306
215.650	24.348	1199.579	940.678
216.665	24.551	1199.086	941.281
217.680	24.716	1197.715	940.986
218.694	24.803	1196.717	940.576
219.709	24.943	1195.715	940.443
220.723	24.477	1195.220	937.525
221.738	24.598	1194.109	937.205
222.753	24.553	1193.556	936.452
223.767	24.535	1193.290	936.064
224.782	24.627	1192.739	936.030
225.796	24.867	1192.474	936.999
226.811	24.810	1191.208	935.622
227.826	24.789	1190.710	935.036
228.840	24.504	1190.719	933.471
229.855	24.301	1189.989	931.755
230.869	24.234	1189.694	931.095
231.884	24.431	1186.695	929.690
232.899	24.321	1185.499	928.097
233.913	23.956	1187.476	927.659
234.928	24.064	1185.735	926.782
235.942	24.050	1185.286	926.274
236.957	24.124	1183.885	925.481
237.972	23.919	1182.990	923.638
238.986	23.921	1183.151	923.693
240.001	23.927	1182.207	922.902
241.015	24.130	1180.617	922.631
242.030	23.900	1181.248	921.854
243.045	24.204	1180.368	922.656
244.059	24.388	1180.007	923.249
245.074	24.396	1179.397	922.731
246.088	24.557	1177.495	921.989
247.103	24.642	1176.836	921.829
248.117	24.728	1177.073	922.379
249.132	24.695	1175.987	921.278
250.147	25.130	1177.046	924.266
251.161	25.190	1176.172	923.811
252.176	25.233	1175.141	923.140
253.190	25.502	1174.114	923.632
254.205	25.379	1172.976	922.025
255.220	25.631	1173.567	923.700
256.234	25.497	1172.884	922.392
257.249	25.228	1172.208	920.399
258.263	25.048	1171.427	918.785
259.278	25.171	1170.099	918.292
260.293	25.167	1170.157	918.234
261.307	25.357	1168.970	918.191
262.322	25.655	1168.450	919.225
263.336	25.309	1168.406	917.344
264.351	25.467	1166.822	916.821
265.366	25.140	1167.129	915.317
266.380	25.431	1165.591	915.512
267.395	25.124	1165.986	914.174
268.409	25.325	1164.156	913.681
269.424	25.261	1163.570	912.814
270.439	25.203	1163.237	912.178
271.453	25.176	1162.608	911.469
272.468	25.111	1162.025	910.598
273.482	24.838	1161.171	908.465
274.497	24.770	1161.257	908.108
275.512	24.894	1160.317	907.919
276.526	24.826	1158.917	906.402
277.541	25.076	1157.583	906.540
278.555	24.697	1158.727	905.436
279.570	25.202	1156.859	906.449
280.585	25.505	1156.190	907.376
281.599	25.598	1155.109	906.913
282.614	25.079	1154.760	903.945
283.628	25.240	1151.988	902.504
284.643	24.995	1152.491	901.587
285.657	25.283	1151.579	902.239
286.672	24.958	1150.772	899.894
287.687	24.968	1149.642	898.981
288.701	25.297	1149.147	900.165
289.716	25.188	1148.441	898.985
290.730	25.300	1147.041	898.371
291.745	25.137	1147.553	897.877
292.760	25.185	1147.407	897.926
293.774	25.364	1145.760	897.449
294.789	25.756	1144.580	898.402
295.803	25.008	1146.251	895.895
296.818	25.021	1144.367	894.410
297.833	25.223	1143.165	894.397
298.847	24.984	1143.995	893.774
299.862	24.953	1142.028	892.003
300.876	25.456	1140.261	893.046
301.891	25.026	1141.751	891.994
302.906	25.178	1140.769	891.906
303.920	25.555	1140.014	893.108
304.935	25.330	1139.958	891.867
305.949	25.588	1138.937	892.268
306.964	25.341	1139.082	891.080
307.979	25.460	1137.444	890.308
308.993	25.508	1136.240	889.527
310.008	25.494	1135.787	889.025
311.022	25.690	1134.354	888.790
312.037	25.437	1134.166	887.314
313.052	25.314	1132.870	885.616
314.066	25.406	1131.455	884.883
315.081	25.104	1130.835	882.834
316.095	24.978	1130.483	881.862
317.110	24.886	1130.355	881.233
318.125	24.317	1129.383	877.596
319.139	24.916	1129.041	880.199
320.154	24.909	1127.863	879.167
321.168	24.589	1128.132	877.728
322.183	25.019	1126.792	878.715
323.197	25.120	1125.563	878.177
324.212	25.158	1125.257	878.042
325.227	25.022	1125.096	877.174
326.241	25.077	1125.405	877.608
327.256	25.137	1124.076	876.788
328.270	24.948	1123.754	875.533
329.285	24.827	1122.561	873.936
330.300	24.939	1121.611	873.666
331.314	25.427	1119.413	874.250
332.329	24.958	1118.784	871.404
333.343	24.866	1119.067	871.100
334.358	25.189	1118.522	872.167
335.373	25.396	1117.815	872.545
336.387	25.796	1116.419	873.319
337.402	25.561	1115.648	871.500
338.416	25.761	1115.356	872.163
339.431	25.599	1115.322	871.274
340.446	25.947	1115.047	872.670
341.460	25.959	1114.629	872.319
342.475	26.182	1113.597	872.514
343.489	25.972	1113.130	871.056
344.504	25.895	1112.866	870.399
345.519	26.041	1110.824	869.431
346.533	25.892	1110.769	868.593
347.548	25.997	1109.941	868.372
348.562	26.252	1108.571	868.450
349.577	25.666	1108.078	865.170
350.592	25.596	1107.256	864.114
351.606	25.425	1104.862	861.351
352.621	25.133	1105.191	860.133
353.635	25.221	1104.578	859.998
354.650	25.127	1104.436	859.364
355.665	25.308	1103.734	859.608
356.679	25.207	1103.669	859.000
357.694	25.476	1102.586	859.367
358.708	25.707	1102.005	859.938
359.723	25.754	1100.722	859.086
360.738	25.703	1099.208	857.586
361.752	25.464	1100.086	857.057
362.767	25.606	1099.467	857.175
363.781	25.519	1098.896	856.241
364.796	25.874	1098.316	857.399
365.810	26.214	1097.809	858.547
366.825	25.973	1097.131	856.797
367.840	26.499	1097.490	859.497
368.854	26.521	1096.415	858.685
369.869	26.367	1096.450	857.905
370.883	25.873	1094.990	854.346
371.898	25.808	1094.403	853.504
372.913	25.772	1093.838	852.816
373.927	25.916	1093.355	853.049
374.942	26.152	1092.641	853.530
375.956	25.909	1092.067	851.858
376.971	25.806	1091.661	850.978
377.986	25.879	1091.546	851.157
379.000	26.191	1090.957	852.097
380.015	26.101	1090.748	851.432
381.029	26.214	1089.370	850.816
382.044	26.203	1088.533	850.036
383.059	26.259	1087.690	849.565
384.073	26.286	1086.986	849.065
385.088	26.279	1085.793	848.027
386.102	26.455	1084.785	847.989
387.117	25.718	1084.499	844.236
388.132	25.802	1082.587	843.065
389.146	25.687	1083.121	842.871
390.161	25.563	1081.776	841.166
391.175	25.447	1082.233	840.906
392.190	26.068	1080.444	842.343
393.205	26.226	1079.966	842.631
394.219	26.311	1078.834	842.068
395.234	25.828	1078.406	839.413
396.248	25.806	1076.923	838.080
397.263	25.742	1076.392	837.296
398.278	25.755	1075.749	836.781
399.292	25.807	1075.513	836.764
400.307	25.915	1074.523	836.421
401.321	25.793	1073.989	835.368
402.336	25.406	1073.523	833.136
403.350	25.335	1072.059	831.596
404.365	25.902	1071.899	834.023
405.380	26.181	1070.817	834.397
406.394	25.957	1070.525	833.063
407.409	26.050	1070.101	833.088
408.423	26.245	1068.930	833.000
409.438	26.342	1068.419	832.973
410.453	26.190	1068.241	832.064
411.467	26.434	1067.820	832.785
412.482	26.279	1066.941	831.314
413.496	26.305	1066.040	830.656
414.511	26.539	1065.487	831.226
415.526	26.460	1065.498	830.797
416.540	26.415	1064.886	830.043
417.555	26.645	1065.144	831.223
418.569	26.491	1063.692	829.312
419.584	26.483	1063.515	829.066
420.599	26.628	1061.882	828.380
421.613	154.137	1403.267	1793.835
422.628	141.733	1453.022	1793.891
