DTS Sentinel unit serial number:	SN413079Multiplexer serial number:	ORYXHardware model number:	OX4-SRSoftware version number:	ORYX F/W v4.00 Oryx Data Collector v3.7.2.0data status	okinstallation	princeton_trtdifferential loss correction	single-endedforward channel	channel 2reverse channel	N/Adate	2019/09/11time	13:09:11forward acquisition time	60.00reverse acquisition time	0.00gamma	496.2192k internal	0.2292k external	0.2292temperature offset calibration	0.9999default loss term (dB/km)	0.3790temperature slope calibration	1.0000multiplexer offset coefficient	1.0000multiplexer slope coefficient	1.0000fibre end	0.00T internal ref (°C)	41.83T ext. ref 1 (°C)	0.73T ext. ref 2 (°C)	39.17length (m)	temperature (°C)	Stokes	anti-Stokes-747.200	18.681	-0.043	0.035
-746.185	274.816	0.058	-0.105
-745.171	-200.000	0.064	0.347
-744.156	-50.098	0.032	0.015
-743.142	800.000	-0.102	0.381
-742.127	-94.146	0.318	0.089
-741.112	-59.331	0.279	0.123
-740.098	-22.539	0.253	0.156
-739.083	-198.421	0.260	0.002
-738.069	396.971	0.070	0.150
-737.054	-1.864	0.150	0.108
-736.039	315.907	-0.067	-0.129
-735.025	444.889	0.093	0.209
-734.010	-85.154	0.052	0.017
-732.996	-200.000	-0.018	-0.475
-731.981	2.349	0.061	-0.045
-730.966	-55.453	0.162	0.074
-729.952	-101.066	-0.060	0.015
-728.937	17.807	-0.333	-0.271
-727.923	101.961	-0.295	-0.352
-726.908	-161.668	-0.130	-0.007
-725.894	-44.583	-0.240	0.123
-724.879	58.641	-0.077	-0.078
-723.864	19.243	0.189	0.155
-722.850	91.913	-0.355	-0.409
-721.835	133.492	-0.063	-0.083
-720.821	196.353	-0.087	0.136
-719.806	180.848	0.161	-0.242
-718.791	37.640	-0.276	0.251
-717.777	-84.014	-0.351	0.114
-716.762	-138.163	-0.312	-0.035
-715.748	-63.211	-0.242	-0.102
-714.733	106.505	-0.131	0.158
-713.718	-103.289	0.585	-0.141
-712.704	-145.041	-0.033	-0.003
-711.689	-200.000	-0.009	-0.086
-710.675	-132.158	0.254	-0.034
-709.660	87.730	0.211	-0.239
-708.645	711.982	0.064	0.174
-707.631	55.502	0.018	-0.018
-706.616	283.445	0.146	0.268
-705.602	40.899	-0.278	-0.256
-704.587	-200.000	-0.196	0.001
-703.572	179.972	0.029	0.043
-702.558	-88.176	-0.325	0.099
-701.543	103.127	0.048	0.058
-700.529	-48.383	0.066	0.032
-699.514	-114.645	0.266	-0.052
-698.499	-200.000	-0.006	0.083
-697.485	163.338	0.174	0.250
-696.470	-20.472	-0.160	-0.100
-695.456	44.846	-0.146	-0.137
-694.441	-22.735	-0.129	0.080
-693.426	-4.847	0.169	-0.119
-692.412	5.506	0.339	-0.256
-691.397	-49.482	-0.170	-0.083
-690.383	-98.847	-0.267	-0.069
-689.368	-16.100	-0.209	0.136
-688.354	200.465	-0.096	0.151
-687.339	-190.087	-0.086	0.001
-686.324	-98.874	-0.194	0.050
-685.310	187.771	0.164	0.250
-684.295	372.325	-0.150	-0.311
-683.281	-200.000	-0.020	-0.123
-682.266	-200.000	0.015	-0.103
-681.251	569.994	-0.100	-0.248
-680.237	-67.120	0.372	0.150
-679.222	-167.984	-0.236	0.009
-678.208	-161.910	0.098	0.005
-677.193	-125.276	-0.192	-0.030
-676.178	156.952	-0.074	-0.105
-675.164	-200.000	-0.009	0.293
-674.149	80.937	0.319	-0.351
-673.135	7.738	-0.113	0.086
-672.120	-137.498	-0.130	0.015
-671.105	-53.443	-0.197	0.092
-670.091	-162.529	0.093	-0.005
-669.076	40.919	-0.165	0.152
-668.062	-23.654	-0.216	0.132
-667.047	-67.176	-0.132	0.053
-666.032	143.542	-0.120	0.163
-665.018	-200.000	0.012	-0.090
-664.003	-11.836	0.129	0.087
-662.989	-52.869	-0.345	0.162
-661.974	-90.308	0.056	-0.017
-660.959	61.936	0.187	0.190
-659.945	-200.000	0.058	-0.327
-658.930	-200.000	0.032	-0.435
-657.916	-200.000	0.041	-0.398
-656.901	-173.362	0.342	-0.011
-655.886	423.244	0.027	0.060
-654.872	800.000	-0.024	-0.101
-653.857	-200.000	-0.019	0.198
-652.843	-187.617	-0.411	-0.006
-651.828	-33.215	0.048	0.027
-650.814	65.782	0.417	-0.431
-649.799	-190.079	-0.304	0.003
-648.784	-200.000	0.024	-0.227
-647.770	-91.029	-0.212	-0.062
-646.755	-91.536	-0.215	-0.062
-645.741	-138.785	0.189	0.021
-644.726	-158.856	-0.308	0.018
-643.711	-107.101	0.291	0.065
-642.697	-200.000	-0.007	0.197
-641.682	3.535	0.072	0.053
-640.668	-64.167	-0.187	-0.078
-639.653	-107.002	0.220	0.050
-638.638	-44.361	-0.262	0.134
-637.624	-200.000	0.015	-0.379
-636.609	-133.072	0.202	0.026
-635.595	1.074	-0.312	0.228
-634.580	800.000	-0.106	0.436
-633.565	23.149	-0.138	-0.115
-632.551	-45.360	-0.183	-0.092
-631.536	449.723	-0.063	-0.141
-630.522	-14.142	-0.091	-0.060
-629.507	-30.947	0.129	-0.074
-628.492	523.679	0.042	-0.101
-627.478	-76.217	-0.113	0.041
-626.463	72.403	-0.243	-0.258
-625.449	-31.414	0.253	0.145
-624.434	-200.000	-0.008	-0.174
-623.419	800.000	0.045	-0.136
-622.405	800.000	0.034	0.126
-621.390	65.983	0.107	0.110
-620.376	302.504	0.022	0.041
-619.361	-92.045	-0.340	-0.098
-618.346	-115.073	0.216	0.042
-617.332	0.575	-0.248	0.181
-616.317	104.740	-0.059	0.071
-615.303	-156.107	-0.252	0.016
-614.288	0.113	0.039	-0.028
-613.273	24.252	-0.146	-0.123
-612.259	104.583	0.051	0.062
-611.244	-33.745	0.114	0.064
-610.230	128.239	-0.103	0.133
-609.215	-114.186	-0.053	-0.010
-608.201	382.429	0.093	0.196
-607.186	584.988	0.092	-0.230
-606.171	20.119	0.070	-0.057
-605.157	-122.374	0.343	0.057
-604.142	281.222	0.064	0.117
-603.128	-80.395	0.264	-0.090
-602.113	-200.000	0.029	0.235
-601.098	659.266	-0.117	0.307
-600.084	-155.678	-0.115	-0.007
-599.069	800.000	0.039	0.131
-598.055	-200.000	0.014	0.374
-597.040	5.508	-0.132	0.099
-596.025	-105.016	-0.622	-0.145
-595.011	101.282	-0.196	-0.232
-593.996	81.387	-0.159	-0.175
-592.982	6.449	0.361	-0.273
-591.967	-104.180	-0.168	-0.040
-590.952	42.969	-0.136	0.126
-589.938	800.000	-0.053	0.152
-588.923	800.000	0.099	0.309
-587.909	-200.000	0.029	0.240
-586.894	-23.184	0.139	0.085
-585.879	-109.299	-0.128	0.028
-584.865	-103.367	0.240	-0.058
-583.850	800.000	0.095	-0.359
-582.836	-200.000	0.005	-0.057
-581.821	-200.000	-0.015	0.255
-580.806	-86.728	0.152	-0.047
-579.792	72.046	0.221	0.234
-578.777	-60.586	0.224	0.097
-577.763	-8.182	0.303	-0.208
-576.748	-19.696	-0.138	0.087
-575.733	-60.621	-0.123	-0.053
-574.719	44.865	0.164	0.154
-573.704	-106.911	0.130	0.029
-572.690	-28.352	0.304	0.178
-571.675	281.284	-0.036	0.066
-570.661	-200.000	0.031	-0.175
-569.646	476.346	0.043	0.098
-568.631	-12.494	0.180	0.119
-567.617	415.639	0.176	0.382
-566.602	-39.175	0.246	0.132
-565.588	-200.000	-0.001	-0.217
-564.573	681.120	0.058	-0.153
-563.558	-22.286	0.347	-0.214
-562.544	337.651	0.094	-0.186
-561.529	-74.695	-0.140	0.051
-560.515	-200.000	0.003	0.041
-559.500	-200.000	-0.001	0.207
-558.485	-200.000	0.012	-0.084
-557.471	-40.660	0.034	-0.018
-556.456	-200.000	0.056	0.289
-555.442	456.113	0.074	0.166
-554.427	800.000	0.045	-0.163
-553.412	242.952	0.179	-0.305
-552.398	133.897	-0.030	0.040
-551.383	323.662	0.081	-0.157
-550.369	365.557	0.098	-0.201
-549.354	112.940	0.097	0.119
-548.339	800.000	-0.036	0.103
-547.325	-25.570	-0.316	0.189
-546.310	-64.436	-0.133	0.055
-545.296	-85.975	-0.289	-0.091
-544.281	-87.219	0.156	0.048
-543.266	13.502	0.019	-0.015
-542.252	-101.614	-0.166	0.041
-541.237	659.043	-0.065	-0.170
-540.223	99.852	0.266	-0.313
-539.208	-81.667	0.231	-0.077
-538.193	-197.969	0.189	-0.001
-537.179	130.955	0.015	0.019
-536.164	800.000	-0.035	0.149
-535.150	-160.868	-0.287	0.015
-534.135	800.000	0.113	0.399
-533.121	-200.000	-0.029	0.246
-532.106	-130.742	0.221	0.030
-531.091	800.000	0.096	-0.388
-530.077	62.743	0.107	0.109
-529.062	-99.510	0.083	0.021
-528.048	-104.629	-0.082	0.019
-527.033	-5.138	0.168	-0.117
-526.018	215.382	0.073	-0.117
-525.004	-56.572	-0.105	-0.047
-523.989	-12.990	0.166	0.109
-522.975	436.578	0.083	-0.183
-521.960	36.338	-0.190	-0.170
-520.945	-81.268	0.308	0.103
-519.931	-37.860	0.141	0.076
-518.916	-200.000	0.031	0.487
-517.902	-200.000	0.000	0.102
-516.887	-50.496	-0.116	-0.055
-515.872	234.745	0.084	-0.141
-514.858	-41.089	-0.212	0.111
-513.843	-6.133	-0.096	0.066
-512.829	-200.000	-0.042	-0.426
-511.814	-200.000	0.005	-0.261
-510.799	6.556	0.101	0.076
-509.785	473.954	0.022	0.050
-508.770	-200.000	-0.026	-0.151
-507.756	-200.000	-0.035	-0.304
-506.741	-152.311	-0.307	0.022
-505.726	282.372	0.065	-0.118
-504.712	-200.000	0.011	0.228
-503.697	-43.123	-0.535	-0.275
-502.683	800.000	0.095	-0.365
-501.668	254.456	-0.034	0.059
-500.653	-200.000	0.425	0.000
-499.639	-77.975	-0.472	-0.165
-498.624	-130.508	0.085	0.012
-497.610	32.501	-0.105	0.092
-496.595	-136.626	-0.208	0.024
-495.581	-81.448	-0.100	-0.033
-494.566	-200.000	-0.012	-0.363
-493.551	-200.000	0.018	-0.124
-492.537	-200.000	-0.087	0.493
-491.522	330.862	0.107	-0.209
-490.508	-105.726	0.143	-0.033
-489.493	-153.028	-0.059	0.004
-488.478	200.902	0.211	-0.329
-487.464	800.000	0.068	0.203
-486.449	23.915	-0.138	0.116
-485.435	179.567	0.075	0.112
-484.420	800.000	0.051	-0.214
-483.405	520.816	-0.056	0.133
-482.391	-2.032	-0.147	0.105
-481.376	-170.751	0.041	-0.001
-480.362	-200.000	0.049	-0.372
-479.347	-200.000	-0.018	0.105
-478.332	-200.000	-0.015	0.221
-477.318	-96.282	0.146	-0.039
-476.303	-200.000	-0.008	0.050
-475.289	800.000	-0.024	0.087
-474.274	-159.024	0.289	0.017
-473.259	-200.000	0.007	-0.232
-472.245	-56.472	0.041	-0.018
-471.230	-104.197	-0.132	-0.031
-470.216	650.544	0.024	-0.063
-469.201	82.690	-0.235	-0.258
-468.186	216.514	0.074	-0.119
-467.172	-175.613	-0.191	0.005
-466.157	-200.000	0.033	0.236
-465.143	358.692	0.075	0.152
-464.128	-200.000	-0.086	-0.397
-463.113	-114.899	-0.012	-0.002
-462.099	-31.553	0.153	0.087
-461.084	104.615	0.168	0.200
-460.070	-43.756	-0.261	-0.133
-459.055	95.400	-0.109	-0.126
-458.040	179.147	0.075	0.111
-457.026	65.653	-0.120	-0.123
-456.011	399.194	-0.078	-0.165
-454.997	-200.000	-0.001	0.029
-453.982	-200.000	-0.027	0.188
-452.968	29.287	-0.134	0.115
-451.953	315.312	0.114	0.217
-450.938	-200.000	-0.005	-0.041
-449.924	-200.000	-0.046	-0.231
-448.909	-140.487	-0.270	0.028
-447.895	736.456	-0.039	0.106
-446.880	-59.322	-0.295	-0.128
-445.865	-40.266	0.144	-0.076
-444.851	179.744	-0.125	0.186
-443.836	153.918	0.299	-0.415
-442.822	-200.000	0.059	-0.334
-441.807	97.227	-0.182	-0.211
-440.792	-69.944	0.170	-0.066
-439.778	-43.245	0.157	-0.080
-438.763	-82.979	-0.106	0.035
-437.749	-200.000	-0.005	-0.096
-436.734	29.334	-0.022	-0.019
-435.719	17.140	-0.080	0.064
-434.705	223.125	0.056	0.091
-433.690	-200.000	-0.005	-0.325
-432.676	-143.981	0.314	0.030
-431.661	23.011	0.135	-0.112
-430.646	800.000	-0.023	-0.085
-429.632	48.964	0.204	0.194
-428.617	-73.594	-0.209	-0.077
-427.603	730.390	-0.127	0.342
-426.588	98.375	-0.182	-0.212
-425.573	-2.855	-0.289	0.204
-424.559	-58.412	0.244	-0.107
-423.544	220.002	0.107	-0.173
-422.530	460.503	0.112	-0.252
-421.515	53.244	0.163	0.158
-420.500	-146.169	-0.195	-0.017
-419.486	-82.782	-0.137	0.045
-418.471	42.398	-0.209	0.192
-417.457	800.000	-0.021	0.063
-416.442	102.914	0.281	-0.333
-415.428	-136.328	-0.326	-0.038
-414.413	165.668	0.203	-0.290
-413.398	368.920	0.126	-0.257
-412.384	-200.000	-0.065	-0.324
-411.369	-99.936	-0.050	0.013
-410.355	-126.243	0.175	0.026
-409.340	205.038	0.160	0.250
-408.325	237.765	0.126	-0.211
-407.311	-85.127	-0.164	-0.052
-406.296	-59.865	0.620	0.268
-405.282	800.000	-0.070	0.271
-404.267	44.410	0.113	0.105
-403.252	800.000	-0.110	0.341
-402.238	418.559	-0.114	0.246
-401.223	-160.471	-0.163	0.009
-400.209	504.140	0.072	-0.169
-399.194	-123.293	-0.204	-0.033
-398.179	84.837	-0.062	-0.068
-397.165	-14.329	-0.024	0.015
-396.150	-200.000	-0.003	0.108
-395.136	-134.654	-0.172	-0.021
-394.121	-33.343	-0.285	-0.159
-393.106	-32.377	-0.172	0.097
-392.092	84.787	-0.379	-0.420
-391.077	-101.334	0.239	-0.059
-390.063	72.355	0.173	-0.182
-389.048	731.730	-0.079	0.213
-388.033	107.336	0.110	0.132
-387.019	159.156	0.094	0.132
-386.004	800.000	-0.059	0.194
-384.990	-130.071	-0.243	-0.033
-383.975	11.681	0.068	-0.052
-382.960	-200.000	-0.006	0.211
-381.946	160.013	0.231	-0.324
-380.931	-23.353	-0.070	0.042
-379.917	178.474	0.098	-0.144
-378.902	800.000	-0.103	0.302
-377.888	-50.434	0.143	0.068
-376.873	171.809	-0.083	0.120
-375.858	266.130	-0.135	0.237
-374.844	-200.000	-0.003	0.240
-373.829	-74.931	0.292	-0.106
-372.815	144.724	-0.041	-0.055
-371.800	151.191	-0.133	0.182
-370.785	11.809	-0.208	-0.161
-369.771	-200.000	0.003	0.255
-368.756	-49.138	-0.244	-0.118
-367.742	304.638	0.052	-0.098
-366.727	-100.487	0.326	-0.081
-365.712	37.713	-0.174	-0.156
-364.698	-194.665	-0.307	-0.002
-363.683	76.349	0.130	0.139
-362.669	-55.179	-0.289	-0.131
-361.654	-200.000	0.049	0.256
-360.639	-110.107	0.290	0.061
-359.625	-200.000	0.027	0.164
-358.610	3.673	0.292	-0.215
-357.596	-200.000	-0.016	0.244
-356.581	-9.749	0.126	-0.084
-355.566	6.519	0.243	0.182
-354.552	800.000	0.027	-0.082
-353.537	-54.291	0.248	0.113
-352.523	106.814	0.204	0.244
-351.508	-200.000	-0.047	0.221
-350.493	379.105	-0.201	0.415
-349.479	378.070	-0.108	0.222
-348.464	-200.000	0.001	0.219
-347.450	104.274	-0.193	0.229
-346.435	217.504	0.058	-0.093
-345.420	-7.475	0.208	-0.142
-344.406	-200.000	-0.009	-0.419
-343.391	-2.871	0.346	0.244
-342.377	-81.399	-0.306	-0.102
-341.362	7.420	-0.107	-0.080
-340.348	9.882	0.108	0.082
-339.333	-69.087	-0.190	-0.074
-338.318	303.502	-0.141	0.264
-337.304	800.000	-0.035	-0.124
-336.289	-44.124	0.166	0.084
-335.275	-114.077	-0.248	0.048
-334.260	-200.000	0.048	0.255
-333.245	33.583	0.205	-0.180
-332.231	20.626	0.283	0.231
-331.216	-22.012	-0.268	0.164
-330.202	353.915	-0.094	-0.188
-329.187	670.207	0.026	-0.067
-328.172	800.000	-0.096	0.350
-327.158	-200.000	-0.006	0.137
-326.143	-127.051	-0.315	-0.047
-325.129	387.326	0.082	-0.171
-324.114	-22.885	-0.369	-0.224
-323.099	-62.674	0.138	0.058
-322.085	800.000	-0.077	-0.328
-321.070	800.000	-0.022	-0.097
-320.056	308.360	0.060	0.112
-319.041	276.114	0.043	0.077
-318.026	173.535	0.064	-0.093
-317.012	286.228	0.132	0.240
-315.997	-117.162	0.021	-0.004
-314.983	248.621	0.140	0.238
-313.968	-134.952	0.052	-0.006
-312.953	148.208	0.161	-0.219
-311.939	12.135	0.159	-0.123
-310.924	-200.000	-0.004	-0.059
-309.910	-200.000	-0.058	0.255
-308.895	7.563	0.233	-0.175
-307.880	33.602	-0.171	0.150
-306.866	-37.411	-0.016	0.009
-305.851	800.000	0.123	0.421
-304.837	-200.000	-0.056	0.449
-303.822	516.519	0.112	-0.262
-302.807	-150.900	-0.328	0.025
-301.793	-149.057	0.278	0.022
-300.778	438.502	-0.085	-0.187
-299.764	11.135	0.223	-0.171
-298.749	136.603	-0.076	-0.100
-297.735	-69.777	0.105	0.040
-296.720	-150.013	-0.517	-0.040
-295.705	540.165	0.069	-0.165
-294.691	-66.671	0.119	-0.047
-293.676	-19.659	0.047	-0.029
-292.662	59.468	-0.070	0.069
-291.647	689.509	0.151	0.397
-290.632	-200.000	0.020	0.124
-289.618	-200.000	0.028	0.204
-288.603	160.583	-0.067	0.093
-287.589	-21.038	0.272	0.168
-286.574	156.401	0.179	-0.248
-285.559	-14.335	0.129	-0.084
-284.545	339.430	-0.161	-0.315
-283.530	800.000	0.024	0.095
-282.516	-153.969	0.067	-0.005
-281.501	62.898	0.273	-0.274
-280.486	130.589	-0.101	-0.130
-279.472	22.854	0.194	0.159
-278.457	-5.910	-0.062	-0.042
-277.443	44.849	-0.120	0.111
-276.428	51.560	-0.232	0.222
-275.413	800.000	-0.083	0.301
-274.399	-129.876	0.160	-0.022
-273.384	209.225	-0.091	-0.143
-272.370	394.448	0.063	-0.132
-271.355	-200.000	-0.023	0.206
-270.340	642.764	0.074	0.189
-269.326	800.000	-0.051	-0.150
-268.311	120.349	-0.045	0.056
-267.297	549.907	-0.121	-0.292
-266.282	-6.369	0.220	-0.151
-265.267	665.074	0.089	-0.230
-264.253	248.867	-0.081	0.138
-263.238	-140.448	0.172	-0.018
-262.224	-200.000	-0.010	0.134
-261.209	166.064	0.123	0.175
-260.195	-15.148	-0.056	-0.036
-259.180	800.000	0.050	-0.211
-258.165	800.000	0.105	-0.344
-257.151	800.000	0.096	-0.353
-256.136	233.091	-0.279	0.461
-255.122	359.306	0.044	0.088
-254.107	-152.040	-0.117	-0.009
-253.092	94.313	0.027	-0.031
-252.078	-33.377	-0.191	0.106
-251.063	-200.000	0.004	-0.099
-250.049	-10.726	0.055	0.036
-249.034	-25.242	0.192	0.114
-248.019	-9.968	-0.139	-0.093
-247.005	258.661	-0.015	-0.027
-245.990	-35.059	0.230	0.126
-244.976	-11.756	0.104	0.069
-243.961	-168.864	0.530	-0.020
-242.946	-12.455	0.194	-0.127
-241.932	800.000	-0.039	0.125
-240.917	-200.000	-0.018	-0.087
-239.903	-107.283	-0.182	-0.040
-238.888	98.619	0.297	-0.344
-237.873	-200.000	0.010	-0.238
-236.859	-9.085	-0.139	0.094
-235.844	-130.005	0.085	-0.012
-234.830	79.755	-0.269	-0.290
-233.815	202.423	-0.286	-0.442
-232.800	115.811	0.039	-0.048
-231.786	35.129	0.040	-0.035
-230.771	402.142	-0.045	0.096
-229.757	800.000	0.082	-0.264
-228.742	57.917	-0.096	-0.095
-227.727	-123.402	-0.103	-0.016
-226.713	344.822	-0.119	-0.234
-225.698	-149.148	-0.261	0.021
-224.684	800.000	-0.038	0.140
-223.669	-90.974	0.065	-0.019
-222.655	-105.461	-0.179	-0.041
-221.640	-62.216	-0.153	0.064
-220.625	-45.940	0.049	0.024
-219.611	353.205	-0.060	-0.119
-218.596	-200.000	-0.002	0.043
-217.582	-93.421	-0.197	0.055
-216.567	800.000	-0.038	-0.143
-215.552	511.862	-0.254	0.592
-214.538	800.000	0.077	0.235
-213.523	-200.000	0.032	0.304
-212.509	-32.501	-0.053	0.030
-211.494	-200.000	-0.002	0.075
-210.479	-40.730	0.179	0.093
-209.465	-73.288	0.273	0.100
-208.450	31.485	0.177	-0.152
-207.436	-71.695	-0.243	-0.091
-206.421	70.669	-0.130	0.135
-205.406	305.614	0.115	-0.214
-204.392	-11.103	-0.336	-0.222
-203.377	800.000	-0.057	0.179
-202.363	-117.987	-0.225	-0.040
-201.348	-200.000	0.025	0.428
-200.333	800.000	-0.108	-0.348
-199.319	16.441	-0.269	-0.213
-198.304	724.457	-0.009	0.023
-197.290	-200.000	-0.026	-0.191
-196.275	-200.000	0.047	0.388
-195.260	5.308	0.239	0.177
-194.246	-200.000	-0.045	0.226
-193.231	-200.000	0.047	0.289
-192.217	119.334	0.189	-0.234
-191.202	-168.145	-0.262	-0.010
-190.187	114.784	-0.113	0.138
-189.173	-54.464	-0.138	0.063
-188.158	800.000	0.052	-0.182
-187.144	601.933	0.070	0.175
-186.129	800.000	-0.039	-0.139
-185.114	433.412	-0.074	-0.161
-184.100	-118.405	0.347	0.062
-183.085	60.660	-0.071	-0.071
-182.071	-200.000	-0.021	-0.282
-181.056	153.443	0.216	-0.296
-180.042	-200.000	-0.013	-0.113
-179.027	-34.592	0.121	-0.066
-178.012	-200.000	-0.005	0.156
-176.998	75.087	-0.194	0.205
-175.983	-200.000	-0.064	-0.404
-174.969	-188.600	-0.530	0.007
-173.954	56.009	0.269	-0.261
-172.939	-200.000	-0.015	0.105
-171.925	-200.000	-0.000	-0.024
-170.910	-200.000	0.004	0.313
-169.896	23.283	0.139	0.114
-168.881	-200.000	-0.008	0.099
-167.866	120.561	-0.146	0.182
-166.852	-200.000	-0.031	0.163
-165.837	-200.000	-0.029	0.138
-164.823	40.714	0.129	0.116
-163.808	800.000	-0.080	-0.291
-162.793	-44.255	0.101	0.051
-161.779	144.346	0.231	-0.308
-160.764	-137.474	0.168	0.019
-159.750	264.973	-0.149	0.261
-158.735	728.352	-0.071	-0.188
-157.720	800.000	-0.060	0.210
-156.706	-22.667	-0.081	-0.049
-155.691	-162.311	0.195	0.010
-154.677	347.408	-0.148	-0.292
-153.662	-140.230	0.118	0.012
-152.647	-200.000	0.005	-0.359
-151.633	-20.933	-0.191	-0.117
-150.618	-68.146	-0.227	-0.089
-149.604	-151.166	0.053	0.004
-148.589	-1.004	-0.323	-0.228
-147.574	-81.628	-0.223	0.073
-146.560	67.275	-0.190	-0.194
-145.545	-156.550	-0.316	-0.020
-144.531	800.000	-0.108	-0.409
-143.516	260.136	-0.163	0.281
-142.502	0.048	0.160	-0.114
-141.487	800.000	0.128	0.384
-140.472	209.114	-0.174	0.273
-139.458	-200.000	-0.000	-0.030
-138.443	-200.000	-0.025	0.260
-137.429	232.860	0.132	0.217
-136.414	64.177	-0.212	-0.213
-135.399	130.594	0.178	0.228
-134.385	221.353	0.090	0.144
-133.370	202.632	0.093	0.144
-132.356	-200.000	-0.011	0.102
-131.341	351.896	0.114	-0.225
-130.326	-4.436	0.268	-0.185
-129.312	103.028	0.148	-0.173
-128.297	-200.000	0.025	-0.223
-127.283	-200.000	-0.009	-0.219
-126.268	-55.980	-0.132	-0.059
-125.253	-142.332	0.154	0.015
-124.239	-200.000	-0.005	0.199
-123.224	29.604	0.131	-0.111
-122.210	120.752	-0.180	0.223
-121.195	189.736	-0.026	0.039
-120.180	-155.573	-0.460	0.030
-119.166	312.499	-0.020	0.038
-118.151	-0.763	0.153	-0.108
-117.137	-200.000	-0.050	-0.461
-116.122	95.791	-0.183	-0.208
-115.107	-47.647	-0.074	-0.036
-114.093	-43.328	-0.389	0.197
-113.078	-68.573	-0.373	-0.144
-112.064	-63.662	0.171	-0.070
-111.049	-111.543	-0.338	0.069
-110.034	-51.521	-0.199	0.093
-109.020	-75.304	0.231	-0.082
-108.005	189.836	-0.096	-0.144
-106.991	-25.101	0.263	0.155
-105.976	800.000	0.055	0.167
-104.962	15.977	0.061	-0.048
-103.947	140.999	-0.069	0.091
-102.932	-165.742	0.370	-0.016
-101.918	23.485	0.211	0.174
-100.903	100.663	-0.326	-0.378
-99.889	241.663	-0.172	-0.287
-98.874	800.000	-0.043	-0.175
-97.859	-155.923	-0.208	-0.013
-96.845	54.443	0.081	0.078
-95.830	-30.502	-0.310	0.175
-94.816	5.989	-0.139	0.103
-93.801	59.326	0.239	-0.235
-92.786	179.595	-0.149	0.218
-91.772	-41.458	-0.344	0.176
-90.757	695.991	0.030	0.079
-89.743	-10.618	0.167	-0.110
-88.728	-33.002	0.187	-0.104
-87.713	800.000	0.065	-0.241
-86.699	605.594	0.129	-0.320
-85.684	482.724	0.060	0.135
-84.670	164.619	-0.183	0.257
-83.655	86.047	-0.141	0.155
-82.640	392.666	-0.082	-0.170
-81.626	-200.000	-0.025	0.210
-80.611	-200.000	-0.009	-0.062
-79.597	158.992	-0.169	-0.234
-78.582	-51.806	-0.273	-0.127
-77.567	-200.000	-0.023	0.255
-76.553	800.000	-0.017	0.072
-75.538	800.000	-0.045	-0.127
-74.524	63.945	0.057	0.058
-73.509	-155.755	0.140	0.009
-72.494	-95.251	-0.210	-0.056
-71.480	-200.000	-0.028	-0.324
-70.465	214.486	0.212	0.335
-69.451	-152.994	0.094	-0.007
-68.436	800.000	0.106	0.331
-67.422	-151.293	-0.172	0.013
-66.407	-200.000	-0.024	0.159
-65.392	-200.000	0.019	0.085
-64.378	-94.105	0.068	0.019
-63.363	-37.875	-0.221	-0.117
-62.349	-70.539	-0.025	0.010
-61.334	-51.902	-1.008	-0.467
-60.319	800.000	-0.056	0.208
-59.305	633.290	0.180	-0.454
-58.290	23.978	0.671	0.551
-57.276	435.135	0.800	1.733
-56.261	-200.000	74.534	521.358
-55.246	551.068	1303.316	3115.665
-54.232	144.063	2558.800	3399.782
-53.217	111.370	2368.533	2844.202
-52.203	51.382	1980.514	1873.463
-51.188	45.406	1765.301	1622.597
-50.173	42.380	1717.743	1555.407
-49.159	56.360	1751.424	1695.270
-48.144	62.133	1770.310	1758.492
-47.130	45.123	1733.980	1591.349
-46.115	41.893	1720.121	1553.532
-45.100	41.790	1715.020	1548.065
-44.086	41.680	1712.431	1544.819
-43.071	41.755	1709.822	1542.984
-42.057	41.701	1707.160	1540.100
-41.042	41.724	1705.063	1538.330
-40.027	41.713	1703.360	1536.649
-39.013	41.698	1700.886	1534.241
-37.998	41.731	1699.509	1533.188
-36.984	41.704	1697.851	1531.428
-35.969	41.855	1696.006	1530.857
-34.954	41.926	1694.639	1530.102
-33.940	41.950	1692.202	1528.025
-32.925	41.904	1691.041	1526.563
-31.911	41.884	1689.116	1524.618
-30.896	41.802	1687.324	1522.312
-29.881	41.835	1685.922	1521.239
-28.867	41.811	1684.463	1519.680
-27.852	41.803	1682.639	1517.917
-26.838	41.886	1680.340	1516.407
-25.823	41.879	1679.517	1515.554
-24.809	41.867	1677.501	1513.581
-23.794	41.810	1676.839	1512.494
-22.779	41.847	1675.066	1511.110
-21.765	41.780	1673.329	1508.981
-20.750	41.798	1671.392	1507.313
-19.736	41.843	1670.236	1506.547
-18.721	41.848	1668.810	1505.238
-17.706	41.859	1667.054	1503.681
-16.692	41.899	1665.028	1502.090
-15.677	41.848	1663.718	1500.467
-14.663	41.855	1662.568	1499.425
-13.648	41.811	1661.432	1498.012
-12.633	41.760	1659.842	1496.133
-11.619	41.814	1657.788	1494.631
-10.604	41.854	1656.093	1493.339
-9.590	41.877	1654.785	1492.269
-8.575	41.842	1653.668	1490.943
-7.560	41.893	1652.003	1489.761
-6.546	41.835	1650.996	1488.367
-5.531	41.799	1649.941	1487.088
-4.517	41.857	1648.712	1486.353
-3.502	41.835	1647.656	1485.181
-2.487	41.904	1646.191	1484.312
-1.473	41.913	1635.555	1474.726
-0.458	39.871	1616.744	1442.805
0.556	34.922	1615.576	1407.787
1.571	32.090	1639.216	1407.073
2.586	31.004	1653.858	1411.304
3.600	27.035	1598.274	1334.645
4.615	14.515	1475.892	1146.794
5.629	2.972	1399.683	1011.824
6.644	0.900	1388.986	990.451
7.659	0.696	1387.336	987.855
8.673	0.698	1386.113	986.908
9.688	0.607	1384.700	985.226
10.702	0.464	1381.701	982.072
11.717	4.324	1390.045	1013.159
12.731	15.400	1412.262	1102.394
13.746	23.223	1424.884	1163.798
14.761	24.082	1425.265	1169.647
15.775	24.256	1424.610	1170.151
16.790	24.270	1424.547	1170.087
17.804	24.310	1423.639	1169.502
18.819	24.574	1422.953	1170.561
19.834	24.632	1422.242	1170.258
20.848	24.586	1422.174	1169.797
21.863	24.505	1421.123	1168.296
22.877	24.579	1420.328	1168.024
23.892	24.570	1419.438	1167.130
24.907	24.564	1418.771	1166.436
25.921	24.664	1417.212	1165.707
26.936	24.490	1416.663	1164.016
27.950	24.649	1414.972	1163.556
28.965	24.529	1414.228	1162.064
29.980	24.633	1412.496	1161.211
30.994	24.539	1411.348	1159.560
32.009	24.533	1410.631	1158.823
33.023	24.582	1409.083	1157.768
34.038	24.593	1408.293	1157.088
35.053	24.580	1407.055	1155.887
36.067	24.531	1406.261	1154.816
37.082	24.585	1405.048	1154.067
38.096	24.526	1404.025	1152.741
39.111	24.610	1403.531	1152.776
40.126	24.654	1402.341	1151.983
41.140	24.571	1401.902	1150.981
42.155	24.570	1401.852	1150.836
43.169	24.543	1401.677	1150.411
44.184	24.605	1400.696	1149.909
45.199	24.509	1401.139	1149.548
46.213	24.597	1400.205	1149.246
47.228	24.558	1399.484	1148.305
48.242	24.568	1397.939	1146.996
49.257	24.537	1396.775	1145.741
50.271	24.585	1395.184	1144.645
51.286	24.549	1393.707	1143.103
52.301	24.612	1392.232	1142.190
53.315	24.534	1391.775	1141.221
54.330	24.542	1391.011	1140.543
55.344	24.575	1389.442	1139.367
56.359	24.579	1388.285	1138.341
57.374	24.556	1388.025	1137.878
58.388	24.557	1387.070	1137.004
59.403	24.571	1386.702	1136.689
60.417	24.659	1385.600	1136.243
61.432	24.556	1385.452	1135.366
62.447	24.603	1384.684	1134.941
63.461	24.569	1383.384	1133.557
64.476	24.609	1382.405	1132.905
65.490	24.602	1381.346	1131.898
66.505	24.657	1378.870	1130.112
67.520	24.562	1378.509	1129.119
68.534	24.545	1377.571	1128.142
69.549	24.546	1376.809	1127.422
70.563	24.582	1375.864	1126.775
71.578	24.572	1374.587	1125.571
72.593	24.639	1373.258	1124.802
73.607	24.599	1372.561	1123.880
74.622	24.662	1371.779	1123.538
75.636	24.599	1371.488	1122.805
76.651	24.701	1370.372	1122.429
77.666	24.601	1370.159	1121.532
78.680	24.660	1369.320	1121.116
79.695	24.484	1369.328	1119.916
80.709	24.611	1368.202	1119.694
81.724	24.603	1366.869	1118.456
82.739	24.580	1365.826	1117.355
83.753	24.578	1365.429	1116.919
84.768	24.554	1364.650	1116.035
85.782	24.635	1363.000	1115.092
86.797	24.636	1361.667	1113.906
87.812	24.715	1360.241	1113.134
88.826	24.550	1359.520	1111.423
89.841	24.558	1358.401	1110.456
90.855	24.558	1357.374	1109.522
91.870	24.601	1356.567	1109.027
92.884	24.626	1355.772	1108.437
93.899	24.632	1354.859	1107.628
94.914	24.630	1353.787	1106.643
95.928	24.653	1353.382	1106.357
96.943	24.595	1352.520	1105.190
97.957	24.684	1352.051	1105.263
98.972	24.630	1350.906	1103.895
99.987	24.593	1350.176	1102.975
101.001	24.627	1349.074	1102.182
102.016	24.550	1348.105	1100.821
103.030	24.662	1346.807	1100.352
104.045	24.623	1346.340	1099.631
105.060	24.627	1345.126	1098.568
106.074	24.750	1343.964	1098.280
107.089	24.630	1343.137	1096.769
108.103	24.673	1342.351	1096.296
109.118	24.688	1341.275	1095.413
110.133	24.636	1340.110	1094.043
111.147	24.767	1338.218	1093.204
112.162	24.727	1337.146	1091.985
113.176	24.746	1336.205	1091.235
114.191	24.628	1336.137	1090.367
115.206	24.725	1334.231	1089.306
116.220	24.762	1333.306	1088.676
117.235	24.691	1332.225	1087.269
118.249	24.595	1332.039	1086.434
119.264	24.640	1330.326	1085.216
120.279	24.730	1330.093	1085.479
121.293	24.783	1329.096	1084.890
122.308	24.756	1327.640	1083.439
123.322	24.777	1327.151	1083.070
124.337	24.849	1325.939	1082.423
125.352	24.724	1325.570	1081.270
126.366	24.766	1324.610	1080.648
127.381	24.741	1323.892	1079.810
128.395	24.739	1323.125	1079.077
129.410	24.823	1322.109	1078.662
130.424	24.746	1321.130	1077.300
131.439	24.762	1320.567	1076.846
132.454	24.762	1319.903	1076.211
133.468	24.781	1318.938	1075.441
134.483	24.750	1318.478	1074.787
135.497	24.801	1317.652	1074.323
136.512	24.767	1316.943	1073.443
137.527	24.921	1315.359	1072.981
138.541	24.787	1314.411	1071.309
139.556	24.744	1312.874	1069.705
140.570	24.758	1312.002	1068.984
141.585	24.756	1310.830	1067.927
142.600	24.832	1309.518	1067.214
143.614	24.779	1308.677	1066.119
144.629	24.718	1307.793	1064.940
145.643	24.727	1306.413	1063.773
146.658	24.693	1305.923	1063.080
147.673	24.834	1304.441	1062.616
148.687	24.723	1303.458	1061.063
149.702	24.505	1302.885	1059.211
150.716	24.750	1301.362	1059.331
151.731	24.705	1300.215	1058.035
152.746	24.725	1298.853	1056.951
153.760	24.753	1298.187	1056.484
154.775	24.785	1297.293	1055.852
155.789	24.714	1296.443	1054.644
156.804	24.724	1295.312	1053.690
157.819	24.795	1294.570	1053.416
158.833	24.807	1293.493	1052.517
159.848	24.729	1293.117	1051.654
160.862	24.702	1292.559	1050.950
161.877	24.737	1291.446	1050.157
162.892	24.852	1290.860	1050.264
163.906	24.880	1289.638	1049.340
164.921	24.791	1288.875	1048.109
165.935	24.763	1288.506	1047.546
166.950	24.810	1287.890	1047.228
167.964	24.809	1287.182	1046.558
168.979	24.838	1286.835	1046.348
169.994	24.897	1286.099	1046.004
171.008	24.892	1285.308	1045.238
172.023	24.931	1284.190	1044.464
173.037	24.863	1283.936	1043.772
174.052	24.925	1282.820	1043.132
175.067	24.834	1282.333	1042.115
176.081	24.916	1281.143	1041.529
177.096	24.981	1280.285	1041.121
178.110	24.808	1279.841	1039.662
179.125	24.833	1278.567	1038.682
180.140	24.864	1277.359	1037.784
181.154	24.821	1276.590	1036.820
182.169	24.901	1275.136	1036.011
183.183	24.929	1274.188	1035.311
184.198	24.894	1273.269	1034.270
185.213	24.899	1272.417	1033.515
186.227	24.806	1271.985	1032.536
187.242	25.010	1270.490	1032.405
188.256	24.884	1269.798	1031.027
189.271	24.905	1269.203	1030.571
190.286	24.951	1267.985	1029.759
191.300	24.919	1267.846	1029.371
192.315	24.795	1267.522	1028.300
193.329	24.956	1266.282	1028.133
194.344	25.023	1265.995	1028.190
195.359	25.034	1265.453	1027.725
196.373	24.893	1265.064	1026.506
197.388	24.800	1265.096	1025.908
198.402	24.918	1264.514	1026.025
199.417	25.045	1263.457	1025.802
200.432	24.897	1263.142	1024.610
201.446	24.924	1262.415	1024.081
202.461	24.847	1261.828	1023.077
203.475	24.959	1261.274	1023.176
204.490	24.897	1259.979	1021.683
205.504	25.005	1258.780	1021.231
206.519	25.035	1258.165	1020.814
207.534	25.037	1257.318	1020.050
208.548	24.933	1256.167	1018.436
209.563	24.914	1255.297	1017.529
210.577	25.007	1254.626	1017.424
211.592	25.004	1253.742	1016.599
212.607	25.013	1253.038	1015.989
213.621	25.073	1252.062	1015.450
214.636	25.096	1251.413	1014.965
215.650	25.050	1250.608	1013.960
216.665	25.035	1249.351	1012.769
217.680	25.135	1248.544	1012.590
218.694	25.031	1247.860	1011.356
219.709	25.040	1247.449	1010.987
220.723	25.043	1246.499	1010.144
221.738	25.009	1245.915	1009.386
222.753	24.985	1245.180	1008.567
223.767	25.084	1244.101	1008.164
224.782	25.070	1244.206	1008.078
225.796	25.216	1243.299	1008.077
226.811	25.207	1242.468	1007.262
227.826	25.203	1241.868	1006.664
228.840	25.062	1241.468	1005.458
229.855	25.067	1241.141	1005.131
230.869	25.145	1240.089	1004.631
231.884	25.189	1239.465	1004.285
232.899	25.188	1238.582	1003.471
233.913	25.166	1237.868	1002.680
234.928	25.235	1237.397	1002.595
235.942	25.242	1236.742	1002.015
236.957	25.277	1235.880	1001.427
237.972	25.197	1235.658	1000.709
238.986	25.252	1234.464	999.961
240.001	25.292	1234.251	999.922
241.015	25.271	1233.358	998.992
242.030	25.323	1232.705	998.669
243.045	25.303	1231.889	997.803
244.059	25.402	1230.964	997.518
245.074	25.182	1230.531	995.857
246.088	25.344	1229.368	995.728
247.103	25.345	1228.761	995.151
248.117	25.358	1227.887	994.428
249.132	25.335	1227.286	993.728
250.147	25.425	1226.393	993.411
251.161	25.391	1225.777	992.636
252.176	25.352	1225.138	991.818
253.190	25.390	1224.502	991.423
254.205	25.372	1223.775	990.649
255.220	25.285	1223.622	989.959
256.234	25.340	1222.772	989.485
257.249	25.421	1221.756	989.021
258.263	25.419	1221.090	988.386
259.278	25.428	1220.711	988.039
260.293	25.344	1220.638	987.430
261.307	25.432	1219.868	987.206
262.322	25.438	1219.214	986.622
263.336	25.476	1218.306	986.004
264.351	25.421	1217.764	985.180
265.366	25.479	1216.989	984.786
266.380	25.430	1216.706	984.197
267.395	25.463	1215.697	983.475
268.409	25.544	1215.018	983.284
269.424	25.343	1214.816	981.931
270.439	25.506	1214.380	982.383
271.453	25.528	1213.603	981.792
272.468	25.516	1212.124	980.441
273.482	25.337	1211.842	979.152
274.497	25.553	1211.172	979.697
275.512	25.514	1210.662	978.985
276.526	25.421	1209.969	977.831
277.541	25.592	1209.011	977.902
278.555	25.609	1208.650	977.619
279.570	25.541	1208.229	976.819
280.585	25.595	1207.389	976.345
281.599	25.695	1205.700	975.435
282.614	25.550	1205.218	974.179
283.628	25.613	1204.334	973.714
284.643	25.580	1203.745	972.977
285.657	25.619	1203.046	972.538
286.672	25.636	1201.937	971.644
287.687	25.619	1201.417	971.046
288.701	25.710	1200.485	970.699
289.716	25.680	1199.685	969.801
290.730	25.668	1199.077	969.162
291.745	25.693	1198.592	968.815
292.760	25.683	1197.967	968.173
293.774	25.687	1197.432	967.678
294.789	25.776	1196.959	967.686
295.803	25.748	1196.045	966.713
296.818	25.669	1195.616	965.856
297.833	25.647	1194.767	964.965
298.847	25.819	1193.967	965.156
299.862	25.799	1193.288	964.414
300.876	25.693	1192.985	963.516
301.891	25.868	1192.309	963.822
302.906	25.889	1190.924	962.731
303.920	25.938	1190.479	962.547
304.935	25.867	1190.352	961.980
305.949	25.864	1189.402	961.111
306.964	25.870	1188.788	960.560
307.979	25.972	1187.891	960.298
308.993	25.937	1187.512	959.717
310.008	25.874	1186.675	958.620
311.022	25.976	1185.732	958.319
312.037	25.927	1185.191	957.536
313.052	25.966	1184.097	956.772
314.066	25.970	1183.172	955.961
315.081	25.891	1182.693	955.070
316.095	25.976	1181.957	954.845
317.110	25.856	1181.649	953.875
318.125	25.900	1180.744	953.291
319.139	25.995	1180.310	953.359
320.154	25.977	1179.586	952.595
321.168	25.965	1179.494	952.375
322.183	25.996	1178.653	951.775
323.197	25.943	1178.134	950.992
324.212	25.968	1177.152	950.245
325.227	25.984	1177.137	950.235
326.241	25.952	1176.536	949.497
327.256	26.043	1175.730	949.242
328.270	26.105	1174.224	948.269
329.285	26.091	1173.840	947.796
330.300	26.019	1173.007	946.666
331.314	26.054	1172.311	946.204
332.329	26.079	1171.392	945.508
333.343	26.203	1170.308	945.200
334.358	26.208	1169.710	944.659
335.373	26.224	1169.148	944.205
336.387	26.251	1168.460	943.707
337.402	26.209	1167.590	942.701
338.416	26.199	1167.182	942.235
339.431	26.174	1166.629	941.577
340.446	26.162	1166.261	941.131
341.460	26.248	1165.072	940.537
342.475	26.200	1164.498	939.739
343.489	26.229	1163.732	939.192
344.504	26.147	1162.941	938.043
345.519	26.310	1161.776	937.866
346.533	26.318	1161.055	937.245
347.548	26.352	1160.397	936.806
348.562	26.340	1159.279	935.756
349.577	26.317	1158.949	935.288
350.592	26.142	1158.296	933.774
351.606	26.278	1157.425	933.691
352.621	26.335	1156.987	933.550
353.635	26.217	1156.744	932.665
354.650	26.381	1155.732	932.611
355.665	26.474	1155.084	932.486
356.679	26.487	1154.433	931.942
357.694	26.381	1153.989	930.957
358.708	26.357	1153.364	930.247
359.723	26.348	1152.372	929.317
360.738	26.351	1151.498	928.548
361.752	26.442	1151.378	928.832
362.767	26.415	1150.818	928.162
363.781	26.411	1150.487	927.792
364.796	26.464	1149.498	927.183
365.810	26.523	1148.737	926.792
366.825	26.468	1148.255	926.037
367.840	26.520	1147.953	925.980
368.854	26.620	1147.199	925.801
369.869	26.642	1146.162	924.993
370.883	26.615	1145.170	923.975
371.898	26.544	1144.917	923.325
372.913	26.479	1144.508	922.585
373.927	26.560	1144.047	922.540
374.942	26.588	1143.569	922.220
375.956	26.620	1143.160	921.969
376.971	26.618	1142.631	921.449
377.986	26.637	1142.057	921.003
379.000	26.654	1141.498	920.555
380.015	26.712	1140.354	919.847
381.029	26.652	1139.806	919.019
382.044	26.707	1139.070	918.626
383.059	26.692	1138.529	918.031
384.073	26.760	1137.563	917.513
385.088	26.718	1136.647	916.482
386.102	26.678	1136.192	915.830
387.117	26.686	1135.407	915.156
388.132	26.665	1134.418	914.175
389.146	26.781	1133.779	914.162
390.161	26.819	1133.027	913.667
391.175	26.793	1132.957	913.399
392.190	26.842	1131.672	912.529
393.205	26.720	1131.431	911.639
394.219	26.829	1130.538	911.389
395.234	26.974	1129.488	911.191
396.248	26.944	1128.773	910.381
397.263	26.874	1127.747	909.122
398.278	26.946	1127.198	908.962
399.292	26.999	1126.589	908.656
400.307	26.926	1126.220	907.912
401.321	26.938	1125.195	907.065
402.336	26.932	1124.455	906.356
403.350	26.969	1123.922	906.030
404.365	26.866	1123.864	905.389
405.380	27.003	1122.672	905.035
406.394	27.023	1121.864	904.400
407.409	27.079	1121.112	903.991
408.423	27.050	1120.534	903.305
409.438	27.143	1119.711	903.022
410.453	27.058	1119.124	902.048
411.467	27.134	1118.538	901.870
412.482	27.122	1117.766	901.108
413.496	27.129	1117.350	900.732
414.511	27.007	1116.457	899.325
415.526	27.159	1116.172	899.767
416.540	27.137	1115.697	899.200
417.555	27.059	1114.954	898.135
418.569	27.234	1114.652	898.675
419.584	27.112	1114.199	897.626
420.599	27.337	1113.227	897.878
421.613	83.314	1293.188	1351.694
422.628	78.287	1319.449	1351.835
