DTS Sentinel unit serial number:	SN413079Multiplexer serial number:	ORYXHardware model number:	OX4-SRSoftware version number:	ORYX F/W v4.00 Oryx Data Collector v3.7.2.0data status	okinstallation	princeton_trtdifferential loss correction	single-endedforward channel	channel 2reverse channel	N/Adate	2019/09/19time	08:35:35forward acquisition time	60.00reverse acquisition time	0.00gamma	496.2192k internal	0.2353k external	0.2353temperature offset calibration	1.0002default loss term (dB/km)	0.3790temperature slope calibration	1.0000multiplexer offset coefficient	1.0000multiplexer slope coefficient	1.0000fibre end	0.00T internal ref (°C)	20.80T ext. ref 1 (°C)	0.57T ext. ref 2 (°C)	16.35length (m)	temperature (°C)	Stokes	anti-Stokes-747.200	-0.078	0.062	-0.044
-746.185	80.032	0.105	-0.112
-745.171	-33.656	0.086	-0.047
-744.156	800.000	0.051	0.171
-743.142	346.108	0.112	0.219
-742.127	52.246	0.086	0.081
-741.112	-200.000	-0.015	0.252
-740.098	-57.102	-0.018	-0.008
-739.083	95.997	0.061	0.069
-738.069	356.392	-0.222	0.442
-737.054	-137.686	0.124	-0.014
-736.039	28.275	-0.215	-0.181
-735.025	-147.051	0.123	0.011
-734.010	-111.907	-0.442	0.089
-732.996	-150.810	-0.414	-0.031
-731.981	-200.000	0.023	-0.107
-730.966	106.250	-0.038	-0.044
-729.952	-129.300	0.181	0.025
-728.937	626.135	-0.145	-0.364
-727.923	-70.574	-0.123	-0.047
-726.908	426.602	-0.053	0.113
-725.894	-59.765	-0.292	0.125
-724.879	262.552	0.106	-0.183
-723.864	0.372	0.230	-0.164
-722.850	646.911	-0.066	-0.168
-721.835	800.000	-0.104	-0.306
-720.821	5.083	-0.097	0.071
-719.806	-60.039	0.132	0.056
-718.791	-41.410	-0.276	-0.142
-717.777	-34.947	0.260	0.142
-716.762	-200.000	0.026	0.174
-715.748	-127.654	-0.163	-0.024
-714.733	-26.180	-0.070	0.041
-713.718	3.135	0.298	-0.216
-712.704	45.165	0.047	-0.043
-711.689	800.000	-0.066	0.244
-710.675	57.902	-0.182	-0.177
-709.660	-4.717	-0.169	0.116
-708.645	-122.823	0.050	0.008
-707.631	800.000	-0.069	0.203
-706.616	800.000	0.058	0.243
-705.602	606.508	0.041	0.102
-704.587	-50.173	-0.217	0.102
-703.572	48.611	-0.038	0.035
-702.558	-200.000	-0.012	0.222
-701.543	-142.470	0.088	0.009
-700.529	47.396	-0.062	0.057
-699.514	73.754	0.252	0.263
-698.499	75.957	0.127	0.134
-697.485	41.216	0.148	-0.133
-696.470	93.493	0.178	0.201
-695.456	-121.481	0.192	-0.032
-694.441	800.000	-0.116	-0.465
-693.426	22.838	-0.158	-0.129
-692.412	-126.953	-0.259	-0.038
-691.397	800.000	0.080	-0.269
-690.383	112.917	-0.245	-0.295
-689.368	4.672	-0.238	-0.174
-688.354	-200.000	-0.018	0.199
-687.339	222.288	0.087	0.140
-686.324	-40.775	-0.097	-0.050
-685.310	-86.897	-0.210	0.064
-684.295	549.210	-0.048	-0.115
-683.281	-85.312	-0.501	0.155
-682.266	117.132	0.157	-0.192
-681.251	286.858	0.058	0.104
-680.237	648.598	0.097	-0.247
-679.222	8.745	-0.120	0.090
-678.208	-54.812	0.067	0.030
-677.193	-173.711	0.244	-0.007
-676.178	800.000	-0.083	-0.286
-675.164	800.000	0.019	-0.062
-674.149	-36.672	-0.140	-0.075
-673.135	359.503	-0.075	-0.148
-672.120	34.239	0.093	-0.080
-671.105	66.210	-0.164	-0.165
-670.091	-18.691	-0.153	-0.095
-669.076	257.297	0.103	0.176
-668.062	434.926	-0.299	-0.647
-667.047	-73.568	0.138	0.050
-666.032	-65.301	0.240	-0.096
-665.018	-37.155	0.060	-0.032
-664.003	-147.437	0.295	-0.025
-662.989	150.677	-0.043	0.058
-661.974	-200.000	0.003	-0.030
-660.959	210.298	0.179	0.279
-659.945	-200.000	-0.001	0.041
-658.930	423.616	-0.091	-0.194
-657.916	-200.000	-0.012	-0.281
-656.901	-155.756	0.242	-0.015
-655.886	-119.696	-0.110	-0.019
-654.872	92.314	0.195	0.218
-653.857	34.288	-0.274	0.237
-652.843	-200.000	0.056	-0.343
-651.828	489.102	0.133	0.302
-650.814	-24.479	0.075	-0.044
-649.799	257.917	0.107	-0.183
-648.784	34.115	0.144	0.125
-647.770	-16.909	-0.200	-0.126
-646.755	74.236	0.106	-0.111
-645.741	510.678	-0.236	0.546
-644.726	800.000	-0.070	-0.210
-643.711	26.776	0.145	-0.120
-642.697	-90.809	-0.286	-0.082
-641.682	-200.000	-0.010	0.448
-640.668	118.877	0.157	-0.193
-639.653	404.057	0.074	0.154
-638.638	-145.936	-0.172	0.015
-637.624	-200.000	-0.008	-0.248
-636.609	72.497	-0.103	-0.106
-635.595	-172.545	-0.600	-0.019
-634.580	-49.221	0.565	0.268
-633.565	-93.836	0.328	0.090
-632.551	-77.155	-0.097	0.034
-631.536	-129.447	0.147	-0.020
-630.522	19.590	-0.108	-0.086
-629.507	-34.750	-0.190	0.103
-628.492	-179.068	-0.291	-0.006
-627.478	158.114	-0.032	0.044
-626.463	-52.735	0.048	0.022
-625.449	264.830	-0.126	0.218
-624.434	-46.050	-0.202	0.099
-623.419	-70.604	0.225	0.085
-622.405	-200.000	0.031	-0.154
-621.390	-9.596	0.096	0.063
-620.376	47.252	-0.201	0.186
-619.361	-46.519	-0.186	-0.090
-618.346	-200.000	-0.022	0.152
-617.332	800.000	0.038	-0.140
-616.317	600.696	-0.140	-0.346
-615.303	800.000	-0.091	-0.352
-614.288	-4.234	-0.076	-0.052
-613.273	-200.000	-0.030	-0.226
-612.259	123.004	-0.173	0.215
-611.244	-156.083	-0.274	-0.017
-610.230	132.717	0.156	-0.199
-609.215	-112.173	-0.273	-0.054
-608.201	186.308	-0.010	-0.015
-607.186	800.000	0.041	0.115
-606.171	800.000	0.065	0.279
-605.157	-200.000	-0.014	0.151
-604.142	-133.139	-0.252	-0.032
-603.128	-200.000	0.014	0.078
-602.113	-81.477	0.428	0.140
-601.098	-126.483	-0.180	-0.027
-600.084	416.099	-0.144	-0.304
-599.069	778.758	0.046	0.125
-598.055	10.679	-0.033	0.025
-597.040	-29.362	0.145	0.082
-596.025	-200.000	-0.032	-0.166
-595.011	-200.000	0.024	-0.276
-593.996	295.775	0.278	-0.505
-592.982	30.832	0.078	0.067
-591.967	-200.000	-0.012	-0.246
-590.952	-115.780	-0.098	0.018
-589.938	-24.862	-0.123	0.072
-588.923	343.488	0.061	0.118
-587.909	440.222	-0.086	-0.186
-586.894	-200.000	-0.035	-0.288
-585.879	-200.000	0.040	-0.226
-584.865	-200.000	-0.011	0.141
-583.850	-200.000	0.124	0.000
-582.836	-36.527	0.163	-0.087
-581.821	800.000	0.072	0.278
-580.806	-200.000	-0.005	-0.148
-579.792	191.897	-0.150	-0.223
-578.777	800.000	0.149	-0.411
-577.763	320.794	-0.075	-0.142
-576.748	623.550	0.045	-0.112
-575.733	-170.338	-0.122	-0.004
-574.719	-60.952	0.148	-0.062
-573.704	6.803	0.320	0.236
-572.690	-69.050	0.088	0.034
-571.675	85.316	-0.186	-0.203
-570.661	800.000	-0.085	0.328
-569.646	216.343	-0.065	0.102
-568.631	-200.000	0.034	-0.297
-567.617	-57.628	-0.131	0.057
-566.602	-42.295	-0.078	0.039
-565.588	-108.135	0.161	0.035
-564.573	44.309	-0.241	0.219
-563.558	-3.314	0.336	0.232
-562.544	-200.000	-0.051	0.334
-561.529	-86.426	0.354	-0.108
-560.515	66.283	-0.052	-0.052
-559.500	3.079	0.194	0.139
-558.485	500.828	-0.124	-0.283
-557.471	-200.000	0.031	0.162
-556.456	-200.000	0.009	0.111
-555.442	22.410	-0.115	-0.093
-554.427	-33.487	0.158	0.086
-553.412	-76.706	-0.164	-0.057
-552.398	171.745	-0.186	-0.265
-551.383	42.078	-0.046	-0.041
-550.369	84.014	0.173	-0.187
-549.354	48.515	0.159	-0.147
-548.339	800.000	0.027	-0.082
-547.325	340.051	-0.255	0.492
-546.310	-38.676	0.153	0.080
-545.296	-90.827	0.120	0.034
-544.281	13.056	0.309	-0.237
-543.266	263.521	-0.114	-0.196
-542.252	-89.546	-0.232	-0.067
-541.237	199.844	-0.052	-0.079
-540.223	-52.860	-0.092	-0.042
-539.208	800.000	-0.048	0.192
-538.193	-200.000	0.087	-0.471
-537.179	-128.278	-0.361	0.051
-536.164	800.000	-0.033	-0.116
-535.150	136.717	0.114	-0.147
-534.135	800.000	-0.077	0.255
-533.121	-27.191	-0.168	0.097
-532.106	800.000	-0.132	0.371
-531.091	-49.302	-0.140	0.066
-530.077	150.220	0.118	-0.158
-529.062	22.293	0.315	-0.254
-528.048	280.444	-0.038	-0.068
-527.033	228.502	0.055	0.089
-526.018	-121.232	-0.243	0.040
-525.004	-97.155	0.037	0.010
-523.989	-3.202	0.247	-0.170
-522.975	701.709	0.023	-0.059
-521.960	-93.106	-0.234	0.064
-520.945	27.073	0.085	-0.071
-519.931	800.000	0.013	-0.043
-518.916	240.384	0.107	0.176
-517.902	-51.639	-0.467	-0.215
-516.887	-200.000	-0.034	0.164
-515.872	-40.702	0.269	-0.138
-514.858	-200.000	0.001	0.166
-513.843	-200.000	-0.007	0.214
-512.829	529.739	-0.033	0.078
-511.814	800.000	0.105	0.378
-510.799	-51.133	-0.320	-0.148
-509.785	76.069	0.137	0.144
-508.770	-200.000	0.004	-0.123
-507.756	-53.201	0.261	-0.118
-506.741	43.669	-0.185	0.167
-505.726	-100.125	-0.383	0.094
-504.712	-29.961	-0.181	0.102
-503.697	177.058	-0.183	0.263
-502.683	-200.000	-0.054	0.409
-501.668	105.992	0.128	0.150
-500.653	88.409	0.080	0.088
-499.639	135.683	-0.266	-0.342
-498.624	341.290	-0.189	-0.365
-497.610	200.687	0.130	-0.198
-496.595	-200.000	-0.033	0.262
-495.581	800.000	0.043	-0.172
-494.566	-200.000	0.036	-0.165
-493.551	-200.000	-0.045	0.259
-492.537	-122.567	0.101	0.016
-491.522	-7.232	-0.162	-0.108
-490.508	-122.579	0.216	0.035
-489.493	21.060	-0.057	0.046
-488.478	800.000	0.096	0.270
-487.464	-104.184	-0.457	0.105
-486.449	-17.744	0.373	0.231
-485.435	800.000	-0.077	-0.233
-484.420	-90.759	0.094	0.027
-483.405	34.650	-0.111	0.096
-482.391	-200.000	-0.005	0.056
-481.376	-200.000	0.000	-0.008
-480.362	-92.493	0.138	0.038
-479.347	632.773	0.108	-0.270
-478.332	-200.000	0.031	-0.193
-477.318	77.391	0.051	0.054
-476.303	-164.753	0.219	-0.010
-475.289	19.616	0.328	-0.260
-474.274	175.522	-0.176	-0.252
-473.259	-200.000	-0.134	-0.000
-472.245	800.000	0.044	-0.180
-471.230	-200.000	0.013	0.206
-470.216	60.933	0.161	-0.157
-469.201	-121.145	0.397	0.066
-468.186	-55.146	-0.207	-0.092
-467.172	-45.739	-0.239	0.116
-466.157	-141.885	0.274	0.027
-465.143	-200.000	-0.051	0.222
-464.128	85.328	0.054	-0.058
-463.113	-50.181	0.227	0.106
-462.099	-175.825	-0.052	0.001
-461.084	-89.570	-0.351	0.102
-460.070	-200.000	-0.047	0.210
-459.055	-106.903	0.081	0.018
-458.040	-112.994	-0.269	0.052
-457.026	-43.872	0.169	-0.084
-456.011	-125.787	0.480	0.072
-454.997	-105.684	-0.210	0.047
-453.982	-70.930	-0.113	0.042
-452.968	357.053	0.115	-0.226
-451.953	-137.051	-0.208	-0.023
-450.938	-111.429	0.182	-0.037
-449.924	-36.043	-0.039	0.021
-448.909	-16.005	-0.206	-0.129
-447.895	-126.572	0.220	0.032
-446.880	71.433	-0.096	0.098
-445.865	-155.074	-0.284	-0.018
-444.851	211.034	-0.071	0.111
-443.836	-200.000	0.002	-0.332
-442.822	-200.000	0.009	0.186
-441.807	-19.784	0.053	0.032
-440.792	-29.969	0.204	0.114
-439.778	164.375	0.034	-0.047
-438.763	-72.349	0.203	-0.074
-437.749	274.942	0.039	-0.068
-436.734	502.073	-0.168	-0.381
-435.719	-135.183	-0.361	-0.043
-434.705	110.268	-0.197	0.233
-433.690	800.000	0.057	-0.160
-432.676	-95.186	0.146	0.039
-431.661	99.014	-0.182	0.207
-430.646	260.966	-0.032	-0.055
-429.632	28.974	-0.156	-0.130
-428.617	-56.084	-0.145	-0.064
-427.603	-165.823	-0.253	0.011
-426.588	406.452	0.081	0.168
-425.573	-186.864	0.144	0.002
-424.559	-113.707	0.300	0.058
-423.544	-200.000	0.025	0.159
-422.530	80.624	-0.238	0.252
-421.515	800.000	-0.054	0.173
-420.500	0.543	0.176	-0.124
-419.486	-189.250	-0.136	-0.002
-418.471	-200.000	0.006	0.052
-417.457	-131.846	-0.275	-0.035
-416.442	-69.630	0.174	0.065
-415.428	-200.000	-0.004	0.145
-414.413	-140.431	0.283	-0.029
-413.398	-200.000	-0.007	-0.087
-412.384	-83.659	-0.384	0.121
-411.369	-99.338	0.186	-0.046
-410.355	800.000	-0.016	-0.056
-409.340	-200.000	-0.011	-0.204
-408.325	151.547	0.240	-0.322
-407.311	-200.000	-0.040	0.247
-406.296	-134.470	0.307	-0.037
-405.282	-200.000	-0.018	0.100
-404.267	-164.752	0.295	-0.013
-403.252	37.126	-0.190	-0.166
-402.238	-200.000	0.074	0.319
-401.223	-200.000	-0.004	0.293
-400.209	-77.665	-0.537	-0.183
-399.194	558.862	0.163	0.388
-398.179	-44.782	-0.184	0.090
-397.165	77.513	0.097	0.101
-396.150	243.347	0.183	0.302
-395.136	-10.349	-0.101	0.066
-394.121	-200.000	-0.039	-0.184
-393.106	800.000	-0.072	-0.197
-392.092	66.510	-0.071	-0.071
-391.077	387.957	-0.109	-0.222
-390.063	-200.000	0.226	-0.000
-389.048	-200.000	-0.004	0.073
-388.033	130.723	-0.183	0.231
-387.019	800.000	-0.068	-0.288
-386.004	110.080	-0.273	-0.322
-384.990	-73.701	-0.124	0.044
-383.975	-200.000	0.035	0.188
-382.960	-119.078	-0.142	0.024
-381.946	-43.997	0.198	0.098
-380.931	-29.147	-0.136	0.076
-379.917	-162.353	0.158	0.008
-378.902	-22.609	0.108	0.064
-377.888	800.000	0.165	-0.506
-376.873	-146.118	-0.410	0.035
-375.858	-5.564	0.180	-0.121
-374.844	-200.000	-0.001	-0.071
-373.829	-133.103	-0.044	-0.005
-372.815	5.655	-0.015	-0.011
-371.800	65.839	0.380	0.379
-370.785	-27.539	-0.086	0.049
-369.771	159.095	-0.045	0.061
-368.756	-78.507	-0.141	0.047
-367.742	-95.820	-0.233	0.061
-366.727	-52.612	0.074	0.034
-365.712	-115.009	-0.087	-0.016
-364.698	-148.013	-0.221	-0.018
-363.683	240.049	-0.118	-0.193
-362.669	-200.000	-0.001	0.473
-361.654	-102.220	0.178	0.042
-360.639	-69.708	0.369	0.138
-359.625	-13.262	0.309	-0.197
-358.610	800.000	-0.009	-0.030
-357.596	520.628	0.163	-0.374
-356.581	-200.000	0.001	0.092
-355.566	-139.802	0.075	0.008
-354.552	-50.245	0.251	0.116
-353.537	-119.512	0.112	0.019
-352.523	-200.000	-0.006	0.116
-351.508	-105.376	-0.157	-0.035
-350.493	-200.000	-0.007	-0.048
-349.479	226.962	0.126	-0.201
-348.464	118.289	-0.085	-0.103
-347.450	29.307	0.408	0.340
-346.435	-10.752	-0.188	0.122
-345.420	800.000	0.060	0.235
-344.406	756.709	-0.073	-0.193
-343.391	-200.000	0.003	0.139
-342.377	800.000	0.092	0.251
-341.362	-63.965	0.132	-0.053
-340.348	76.146	0.159	0.165
-339.333	800.000	0.133	-0.397
-338.318	636.842	0.064	-0.160
-337.304	-160.105	0.361	-0.019
-336.289	-33.283	0.152	-0.083
-335.275	-101.486	0.284	-0.068
-334.260	94.606	-0.172	0.192
-333.245	57.817	0.277	0.266
-332.231	321.110	0.100	-0.186
-331.216	243.728	0.085	-0.140
-330.202	204.157	-0.118	-0.179
-329.187	167.397	-0.101	-0.140
-328.172	-113.033	0.188	-0.036
-327.158	-113.086	-0.051	0.010
-326.143	-8.798	0.070	0.046
-325.129	11.155	0.264	0.198
-324.114	61.775	0.086	0.084
-323.099	-74.529	0.264	0.093
-322.085	592.527	0.086	0.209
-321.070	-97.931	-0.167	-0.042
-320.056	65.291	0.188	0.187
-319.041	384.010	-0.121	-0.245
-318.026	-103.400	0.186	0.043
-317.012	-200.000	-0.027	0.155
-315.997	-200.000	0.071	-0.318
-314.983	-173.993	-0.103	0.003
-313.968	-200.000	0.036	-0.347
-312.953	-200.000	-0.050	-0.419
-311.939	128.228	-0.195	0.244
-310.924	352.981	-0.057	-0.110
-309.910	-114.025	-0.191	0.036
-308.895	32.258	0.344	0.291
-307.880	293.995	0.095	-0.170
-306.866	-124.939	-0.350	0.053
-305.851	18.629	0.261	-0.205
-304.837	-200.000	0.037	-0.240
-303.822	112.010	0.026	0.031
-302.807	-152.935	-0.019	0.001
-301.793	164.062	0.147	-0.202
-300.778	-200.000	0.061	-0.278
-299.764	135.619	0.089	-0.114
-298.749	-146.606	-0.148	-0.013
-297.735	66.338	0.227	-0.226
-296.720	197.990	-0.096	-0.143
-295.705	-200.000	-0.040	-0.195
-294.691	121.070	-0.206	0.252
-293.676	800.000	0.036	-0.113
-292.662	563.944	-0.088	0.209
-291.647	375.020	-0.163	0.325
-290.632	-100.603	0.280	-0.068
-289.618	-8.428	0.101	0.066
-288.603	-176.798	-0.107	-0.003
-287.589	9.926	-0.210	0.156
-286.574	127.530	-0.050	-0.063
-285.559	33.413	-0.142	-0.121
-284.545	-92.020	0.246	0.068
-283.530	221.349	-0.071	0.112
-282.516	113.768	0.162	0.192
-281.501	193.054	-0.057	-0.084
-280.486	28.737	0.151	0.125
-279.472	763.866	0.086	-0.229
-278.457	-200.000	-0.002	0.054
-277.443	800.000	0.095	0.302
-276.428	207.389	0.017	-0.026
-275.413	-37.005	0.310	0.163
-274.399	53.894	0.082	-0.077
-273.384	-47.170	0.079	0.038
-272.370	171.848	0.140	0.197
-271.355	-200.000	0.046	0.236
-270.340	-129.213	-0.350	-0.048
-269.326	-74.356	0.326	-0.115
-268.311	-200.000	0.026	-0.232
-267.297	-200.000	0.013	-0.154
-266.282	236.077	0.011	-0.017
-265.267	108.542	0.053	-0.062
-264.253	10.783	-0.131	0.098
-263.238	-141.819	0.177	-0.017
-262.224	-135.469	0.095	0.011
-261.209	-170.278	-0.341	0.012
-260.195	-157.874	-0.151	0.009
-259.180	-200.000	0.034	0.263
-258.165	-183.975	0.108	0.002
-257.151	-126.902	0.215	-0.031
-256.136	374.215	-0.090	-0.180
-255.122	800.000	0.029	0.098
-254.107	31.334	0.072	0.061
-253.092	-20.595	0.267	0.160
-252.078	-87.362	0.234	-0.069
-251.063	518.261	-0.043	0.100
-250.049	45.561	-0.368	-0.332
-249.034	-63.130	0.263	-0.106
-248.019	145.354	-0.089	0.116
-247.005	5.500	-0.140	0.101
-245.990	-128.293	-0.147	-0.020
-244.976	800.000	0.058	0.226
-243.961	80.380	-0.045	-0.047
-242.946	50.963	-0.070	-0.065
-241.932	178.037	-0.163	0.233
-240.917	630.993	0.064	0.159
-239.903	360.212	0.130	-0.254
-238.888	-200.000	0.010	0.240
-237.873	-73.927	-0.112	0.040
-236.859	33.236	-0.029	-0.024
-235.844	35.545	0.029	0.025
-234.830	-101.124	-0.276	-0.066
-233.815	-200.000	0.048	-0.293
-232.800	-145.787	-0.125	0.011
-231.786	-129.413	0.190	0.026
-230.771	-59.604	0.219	0.092
-229.757	53.489	-0.095	-0.089
-228.742	800.000	0.093	-0.298
-227.727	-200.000	-0.028	-0.227
-226.713	130.817	0.058	0.072
-225.698	-99.616	0.141	-0.035
-224.684	-200.000	-0.009	-0.147
-223.669	149.001	0.185	-0.245
-222.655	-13.090	-0.232	-0.148
-221.640	-200.000	-0.019	-0.301
-220.625	60.602	0.189	-0.183
-219.611	164.498	-0.095	-0.131
-218.596	377.774	-0.086	-0.172
-217.582	-189.800	0.254	0.003
-216.567	-87.659	-0.273	0.080
-215.552	747.954	-0.071	0.188
-214.538	-200.000	-0.006	-0.242
-213.523	-106.656	0.033	-0.007
-212.509	-102.780	-0.430	0.100
-211.494	800.000	-0.130	0.424
-210.479	-103.357	0.314	-0.072
-209.465	176.550	-0.116	-0.165
-208.450	108.810	-0.046	-0.053
-207.436	-50.923	-0.427	0.196
-206.421	-110.430	0.229	-0.046
-205.406	-200.000	-0.019	0.215
-204.392	123.886	-0.054	-0.066
-203.377	-107.498	0.019	0.004
-202.363	264.472	0.082	-0.139
-201.348	120.643	0.146	0.177
-200.333	-200.000	0.034	-0.305
-199.319	800.000	-0.034	0.134
-198.304	422.475	-0.060	0.126
-197.290	219.199	-0.132	0.207
-196.275	25.634	0.173	0.140
-195.260	-200.000	0.034	0.359
-194.246	151.109	-0.053	0.070
-193.231	45.925	0.114	0.103
-192.217	-55.141	-0.110	0.048
-191.202	508.999	0.063	0.143
-190.187	92.174	-0.219	-0.241
-189.173	230.527	-0.028	0.045
-188.158	6.316	-0.272	-0.197
-187.144	18.660	-0.080	-0.062
-186.129	91.415	-0.070	-0.077
-185.114	-1.821	-0.177	0.121
-184.100	397.866	-0.089	-0.182
-183.085	-200.000	-0.017	-0.431
-182.071	-200.000	-0.005	0.414
-181.056	56.376	0.065	-0.062
-180.042	-100.478	0.054	0.013
-179.027	8.146	0.181	0.133
-178.012	-69.667	0.282	0.105
-176.998	800.000	0.012	-0.050
-175.983	169.374	0.145	-0.202
-174.969	-36.296	-0.140	-0.074
-173.954	138.158	0.261	0.334
-172.939	-200.000	0.018	0.212
-171.925	310.323	0.029	0.053
-170.910	800.000	-0.077	0.273
-169.896	146.618	0.149	-0.196
-168.881	181.518	-0.065	0.093
-167.866	-150.627	-0.169	-0.013
-166.852	78.067	-0.115	0.120
-165.837	459.058	0.062	-0.134
-164.823	-40.172	-0.243	0.123
-163.808	144.094	0.145	0.189
-162.793	106.454	-0.254	-0.294
-161.779	-200.000	0.031	-0.168
-160.764	800.000	-0.060	0.178
-159.750	-59.447	-0.199	0.083
-158.735	87.589	-0.295	0.318
-157.720	800.000	-0.067	-0.221
-156.706	741.504	-0.086	-0.226
-155.691	-5.291	-0.308	0.206
-154.677	595.357	-0.048	0.116
-153.662	-200.000	-0.023	0.122
-152.647	-55.682	0.245	0.107
-151.633	78.829	0.126	-0.131
-150.618	-53.945	-0.327	0.145
-149.604	-200.000	-0.012	0.205
-148.589	-142.444	0.231	-0.022
-147.574	800.000	0.024	0.087
-146.560	419.944	0.040	0.083
-145.545	-151.975	0.208	-0.015
-144.531	-200.000	-0.033	-0.178
-143.516	39.452	0.276	0.241
-142.502	603.431	0.193	0.468
-141.487	134.469	-0.180	-0.227
-140.472	137.603	0.065	-0.083
-139.458	-148.978	0.476	-0.037
-138.443	-106.257	0.211	0.046
-137.429	-11.276	-0.190	-0.122
-136.414	-51.275	-0.104	-0.047
-135.399	-200.000	-0.046	0.317
-134.385	41.953	0.136	-0.120
-133.370	-114.972	-0.112	0.021
-132.356	120.861	0.165	-0.200
-131.341	-200.000	-0.003	0.142
-130.326	-181.586	-0.228	0.004
-129.312	441.423	0.111	-0.236
-128.297	-61.910	-0.391	0.159
-127.283	-91.916	-0.127	-0.035
-126.268	135.386	-0.259	-0.328
-125.253	293.230	-0.072	0.127
-124.239	-19.831	0.118	0.071
-123.224	398.790	0.094	0.191
-122.210	800.000	0.086	0.266
-121.195	800.000	0.052	0.171
-120.180	493.904	-0.076	-0.171
-119.166	-164.235	-0.448	0.020
-118.151	54.117	0.127	-0.119
-117.137	58.803	-0.194	-0.186
-116.122	-200.000	-0.035	0.195
-115.107	185.995	-0.074	-0.107
-114.093	-200.000	0.001	-0.106
-113.078	800.000	0.048	0.152
-112.064	-134.970	0.348	-0.041
-111.049	-200.000	0.052	0.308
-110.034	-116.535	0.133	-0.024
-109.020	163.439	0.189	0.258
-108.005	65.722	0.060	0.059
-106.991	-200.000	0.013	0.323
-105.976	800.000	0.081	0.333
-104.962	115.252	-0.148	0.176
-103.947	35.654	0.191	0.163
-102.932	139.840	-0.112	-0.144
-101.918	-20.891	0.221	-0.132
-100.903	94.188	-0.167	-0.184
-99.889	312.955	0.121	0.221
-98.874	142.052	-0.150	-0.194
-97.859	178.528	0.123	0.175
-96.845	192.895	0.107	-0.157
-95.830	174.822	0.036	-0.051
-94.816	368.605	-0.038	-0.075
-93.801	-3.746	-0.168	0.114
-92.786	14.193	0.103	-0.078
-91.772	-11.757	-0.385	0.246
-90.757	-200.000	-0.008	0.095
-89.743	-100.823	0.181	-0.043
-88.728	-47.168	-0.438	0.207
-87.713	-64.430	0.205	-0.081
-86.699	-112.610	-0.160	-0.031
-85.684	-172.956	0.158	0.005
-84.670	133.048	-0.057	-0.072
-83.655	423.835	-0.116	0.243
-82.640	649.876	0.064	-0.160
-81.626	-144.938	0.189	-0.017
-80.611	-56.767	-0.158	0.068
-79.597	-200.000	-0.014	0.155
-78.582	-70.197	0.162	0.060
-77.567	800.000	0.124	0.433
-76.553	-75.454	0.181	0.063
-75.538	-200.000	-0.033	-0.304
-74.524	-107.500	0.235	-0.050
-73.509	-81.161	-0.369	0.118
-72.494	16.971	-0.244	0.187
-71.480	800.000	-0.026	-0.071
-70.465	800.000	-0.031	-0.127
-69.451	-200.000	-0.034	-0.187
-68.436	29.439	0.111	-0.092
-67.422	-105.363	-0.058	0.013
-66.407	-200.000	-0.039	-0.238
-65.392	-200.000	0.026	-0.252
-64.378	800.000	-0.080	0.245
-63.363	66.708	-0.050	-0.049
-62.349	-20.163	0.138	-0.082
-61.334	167.796	-1.245	-1.718
-60.319	80.440	0.623	0.651
-59.305	800.000	-0.426	-1.326
-58.290	800.000	0.452	1.462
-57.276	211.064	0.776	1.185
-56.261	-200.000	134.094	669.219
-55.246	327.976	1685.181	3139.126
-54.232	131.596	2834.409	3537.242
-53.217	82.415	2328.672	2452.709
-52.203	29.838	1921.028	1588.111
-51.188	23.904	1712.381	1370.002
-50.173	21.800	1674.528	1323.800
-49.159	43.739	1749.361	1553.730
-48.144	40.824	1758.491	1539.234
-47.130	23.311	1708.127	1361.825
-46.115	20.867	1692.183	1330.417
-45.100	20.676	1687.218	1325.009
-44.086	20.686	1684.876	1323.192
-43.071	20.651	1682.175	1320.755
-42.057	20.606	1679.847	1318.533
-41.042	20.617	1678.168	1317.247
-40.027	20.686	1676.387	1316.317
-39.013	20.704	1673.987	1314.516
-37.998	20.606	1673.068	1313.002
-36.984	20.663	1671.496	1312.148
-35.969	20.796	1670.092	1311.996
-34.954	20.792	1668.855	1310.942
-33.940	20.723	1667.028	1308.932
-32.925	20.702	1665.194	1307.284
-31.911	20.807	1662.887	1306.212
-30.896	20.622	1662.283	1304.298
-29.881	20.818	1659.793	1303.757
-28.867	20.800	1658.872	1302.851
-27.852	20.742	1657.490	1301.278
-26.838	20.758	1656.184	1300.321
-25.823	20.832	1654.525	1299.515
-24.809	20.750	1653.546	1298.085
-23.794	20.834	1651.858	1297.334
-22.779	20.866	1650.563	1296.506
-21.765	20.806	1648.679	1294.531
-20.750	20.851	1646.597	1293.178
-19.736	20.880	1645.442	1292.433
-18.721	20.832	1644.104	1290.972
-17.706	20.844	1642.667	1289.882
-16.692	20.817	1640.806	1288.168
-15.677	20.949	1639.528	1288.090
-14.663	20.951	1638.543	1287.282
-13.648	20.797	1637.490	1285.267
-12.633	20.961	1635.694	1285.015
-11.619	20.778	1634.698	1282.832
-10.604	20.860	1632.725	1281.837
-9.590	20.785	1631.747	1280.470
-8.575	20.888	1629.773	1279.626
-7.560	20.858	1629.133	1278.847
-6.546	20.802	1627.561	1277.158
-5.531	20.846	1626.563	1276.645
-4.517	20.863	1625.274	1275.704
-3.502	20.817	1624.543	1274.741
-2.487	20.861	1622.503	1273.415
-1.473	20.640	1610.751	1262.537
-0.458	18.187	1591.472	1229.764
0.556	13.688	1595.278	1201.822
1.571	11.671	1620.747	1206.036
2.586	11.640	1632.330	1214.320
3.600	10.781	1577.209	1167.038
4.615	6.075	1470.544	1056.441
5.629	1.361	1413.427	984.798
6.644	0.666	1405.868	974.959
7.659	0.555	1405.200	973.698
8.673	0.598	1404.263	973.239
9.688	0.471	1402.243	970.934
10.702	0.326	1398.889	967.598
11.717	2.726	1401.419	984.678
12.731	8.758	1410.545	1029.893
13.746	14.535	1419.602	1073.700
14.761	16.868	1422.603	1090.903
15.775	16.374	1421.261	1086.601
16.790	15.526	1417.960	1078.542
17.804	14.756	1415.859	1071.909
18.819	14.401	1414.048	1068.163
19.834	14.254	1412.790	1066.184
20.848	13.966	1411.573	1063.325
21.863	13.567	1410.772	1060.072
22.877	13.455	1409.374	1058.215
23.892	13.415	1408.282	1057.047
24.907	13.463	1407.286	1056.509
25.921	13.479	1406.433	1055.877
26.936	13.534	1405.465	1055.406
27.950	13.574	1404.435	1054.795
28.965	13.511	1403.744	1053.785
29.980	13.638	1402.717	1053.729
30.994	13.611	1401.358	1052.443
32.009	13.695	1400.353	1052.125
33.023	13.647	1399.659	1051.206
34.038	13.719	1397.892	1050.242
35.053	13.552	1397.411	1048.731
36.067	13.584	1396.121	1047.871
37.082	13.624	1394.823	1047.058
38.096	13.549	1394.215	1046.038
39.111	13.619	1393.889	1046.143
40.126	13.538	1392.846	1044.754
41.140	13.567	1391.664	1043.957
42.155	13.452	1391.231	1042.818
43.169	13.445	1391.539	1042.911
44.184	13.490	1391.190	1042.840
45.199	13.537	1390.460	1042.499
46.213	13.489	1390.046	1041.790
47.228	13.491	1389.647	1041.416
48.242	13.592	1387.458	1040.318
49.257	13.575	1385.631	1038.748
50.271	13.509	1384.740	1037.576
51.286	13.529	1383.351	1036.563
52.301	13.607	1381.925	1035.895
53.315	13.646	1380.701	1035.127
54.330	13.520	1379.634	1033.450
55.344	13.480	1378.974	1032.617
56.359	13.495	1377.334	1031.392
57.374	13.419	1376.589	1030.265
58.388	13.435	1375.891	1029.754
59.403	13.407	1375.439	1029.148
60.417	13.457	1374.852	1028.929
61.432	13.414	1373.826	1027.806
62.447	13.353	1372.752	1026.530
63.461	13.387	1371.462	1025.685
64.476	13.351	1370.837	1024.906
65.490	13.298	1369.345	1023.368
66.505	13.383	1367.856	1022.692
67.520	13.417	1366.641	1021.902
68.534	13.444	1365.116	1020.840
69.549	13.431	1364.658	1020.324
70.563	13.385	1363.195	1018.862
71.578	13.361	1362.564	1018.150
72.593	13.368	1361.542	1017.341
73.607	13.347	1360.356	1016.237
74.622	13.403	1359.489	1015.840
75.636	13.346	1358.859	1014.931
76.651	13.379	1358.218	1014.563
77.666	13.326	1357.844	1013.871
78.680	13.352	1356.988	1013.302
79.695	13.363	1356.610	1012.996
80.709	13.437	1354.861	1012.052
81.724	13.507	1354.331	1011.991
82.739	13.509	1353.138	1011.023
83.753	13.503	1352.571	1010.479
84.768	13.583	1351.350	1009.961
85.782	13.599	1350.008	1008.965
86.797	13.491	1348.985	1007.459
87.812	13.488	1347.562	1006.288
88.826	13.470	1346.408	1005.226
89.841	13.472	1345.522	1004.488
90.855	13.550	1344.296	1003.957
91.870	13.677	1343.584	1004.108
92.884	13.646	1342.582	1003.078
93.899	13.614	1341.839	1002.245
94.914	13.665	1340.801	1001.685
95.928	13.697	1339.733	1000.993
96.943	13.585	1339.421	999.994
97.957	13.695	1338.049	999.544
98.972	13.579	1336.846	997.858
99.987	13.632	1335.981	997.444
101.001	13.612	1335.057	996.549
102.016	13.615	1333.952	995.654
103.030	13.598	1333.126	994.844
104.045	13.603	1332.106	994.025
105.060	13.559	1330.778	992.686
106.074	13.517	1329.541	991.420
107.089	13.490	1328.437	990.351
108.103	13.548	1327.052	989.574
109.118	13.456	1326.013	988.166
110.133	13.522	1324.168	987.097
111.147	13.486	1323.050	985.958
112.162	13.499	1321.912	985.101
113.176	13.489	1321.157	984.392
114.191	13.597	1319.898	984.006
115.206	13.574	1318.205	982.525
116.220	13.599	1317.089	981.756
117.235	13.688	1315.749	981.194
118.249	13.576	1314.857	979.780
119.264	13.562	1313.688	978.739
120.279	13.579	1312.708	978.021
121.293	13.462	1311.846	976.602
122.308	13.576	1310.413	976.122
123.322	13.558	1309.597	975.322
124.337	13.420	1308.798	973.828
125.352	13.549	1306.963	973.137
126.366	13.510	1306.038	972.130
127.381	13.567	1304.724	971.399
128.395	13.530	1303.730	970.361
129.410	13.505	1303.106	969.662
130.424	13.482	1302.183	968.757
131.439	13.635	1300.662	968.433
132.454	13.620	1300.016	967.777
133.468	13.583	1299.336	966.970
134.483	13.576	1298.516	966.232
135.497	13.678	1296.849	965.502
136.512	13.580	1295.934	964.165
137.527	13.525	1294.974	963.045
138.541	13.606	1293.128	962.056
139.556	13.497	1291.999	960.499
140.570	13.631	1290.548	960.111
141.585	13.736	1289.355	959.749
142.600	13.674	1288.120	958.384
143.614	13.789	1287.145	958.238
144.629	13.834	1285.436	957.143
145.643	13.773	1284.783	956.220
146.658	13.749	1283.500	955.043
147.673	13.705	1282.454	953.924
148.687	13.746	1281.432	953.316
149.702	13.751	1279.703	951.973
150.716	13.702	1278.245	950.524
151.731	13.759	1277.276	950.048
152.746	13.623	1276.500	948.605
153.760	13.821	1274.910	948.477
154.775	13.821	1273.853	947.602
155.789	13.851	1272.874	946.965
156.804	13.856	1271.834	946.133
157.819	13.825	1270.649	944.993
158.833	14.003	1269.598	945.139
159.848	13.987	1268.544	944.181
160.862	13.955	1267.564	943.184
161.877	13.862	1266.383	941.695
162.892	13.814	1265.469	940.663
163.906	13.903	1264.258	940.182
164.921	13.919	1263.656	939.739
165.935	13.891	1262.629	938.734
166.950	13.969	1261.603	938.328
167.964	14.005	1260.960	937.971
168.979	13.988	1260.339	937.333
169.994	13.903	1259.495	936.144
171.008	14.002	1258.884	936.161
172.023	14.010	1258.069	935.520
173.037	14.117	1256.729	935.041
174.052	14.104	1255.885	934.260
175.067	13.948	1255.453	932.977
176.081	13.983	1254.143	932.120
177.096	13.980	1253.369	931.441
178.110	13.979	1252.215	930.500
179.125	14.072	1250.731	929.833
180.140	14.076	1249.313	928.720
181.154	14.116	1248.148	927.992
182.169	14.060	1247.143	926.851
183.183	14.142	1245.744	926.189
184.198	14.072	1244.983	925.149
185.213	14.162	1243.467	924.444
186.227	14.156	1242.551	923.643
187.242	14.194	1241.419	922.935
188.256	14.173	1240.500	922.050
189.271	14.190	1239.867	921.591
190.286	14.064	1238.404	919.727
191.300	14.102	1237.802	919.407
192.315	14.207	1236.435	918.890
193.329	14.172	1236.257	918.486
194.344	14.167	1235.522	917.830
195.359	14.175	1235.034	917.431
196.373	14.292	1234.276	917.431
197.388	14.195	1234.157	916.729
198.402	14.147	1233.563	915.938
199.417	14.337	1232.477	916.098
200.432	14.459	1231.168	915.716
201.446	14.404	1230.867	915.109
202.461	14.399	1229.728	914.150
203.475	14.432	1228.979	913.697
204.490	14.489	1227.445	912.786
205.504	14.461	1225.963	911.450
206.519	14.474	1224.862	910.621
207.534	14.455	1224.213	909.957
208.548	14.436	1223.217	909.033
209.563	14.541	1222.211	908.775
210.577	14.522	1221.268	907.889
211.592	14.514	1220.605	907.273
212.607	14.534	1219.558	906.524
213.621	14.598	1218.810	906.233
214.636	14.487	1218.018	904.965
215.650	14.463	1216.947	903.956
216.665	14.570	1215.770	903.581
217.680	14.602	1215.002	903.108
218.694	14.567	1214.029	902.112
219.709	14.597	1213.469	901.782
220.723	14.674	1212.514	901.404
221.738	14.587	1212.228	900.642
222.753	14.702	1211.126	900.363
223.767	14.761	1210.288	899.981
224.782	14.722	1209.729	899.274
225.796	14.817	1208.912	899.101
226.811	14.784	1208.023	898.184
227.826	14.778	1207.790	897.896
228.840	14.686	1207.227	896.903
229.855	14.783	1206.079	896.492
230.869	14.819	1205.235	895.976
231.884	14.742	1204.509	894.946
232.899	14.788	1203.526	894.382
233.913	14.705	1202.913	893.404
234.928	14.772	1202.132	893.106
235.942	14.756	1201.332	892.345
236.957	14.808	1200.493	891.921
237.972	14.862	1199.792	891.610
238.986	14.761	1199.323	890.641
240.001	14.800	1198.229	889.962
241.015	14.815	1197.688	889.562
242.030	14.863	1196.714	889.013
243.045	14.819	1196.090	888.236
244.059	14.878	1195.336	887.910
245.074	15.014	1193.790	887.405
246.088	14.999	1193.609	887.112
247.103	15.110	1192.253	886.615
248.117	15.075	1191.918	886.104
249.132	15.079	1191.241	885.539
250.147	15.183	1190.721	885.625
251.161	15.150	1189.739	884.643
252.176	15.126	1188.791	883.731
253.190	15.253	1188.286	883.950
254.205	15.213	1187.870	883.349
255.220	15.254	1187.188	882.981
256.234	15.175	1186.531	881.998
257.249	15.230	1185.742	881.625
258.263	15.391	1184.842	881.721
259.278	15.211	1184.622	880.533
260.293	15.238	1184.599	880.579
261.307	15.411	1183.239	880.403
262.322	15.314	1182.957	879.602
263.336	15.499	1181.838	879.662
264.351	15.412	1181.336	878.757
265.366	15.417	1180.683	878.218
266.380	15.511	1179.366	877.651
267.395	15.417	1178.856	876.703
268.409	15.373	1178.319	875.996
269.424	15.293	1177.763	875.092
270.439	15.515	1176.634	875.330
271.453	15.534	1176.023	874.896
272.468	15.386	1175.205	873.441
273.482	15.397	1174.931	873.218
274.497	15.403	1174.050	872.515
275.512	15.460	1173.452	872.294
276.526	15.440	1172.738	871.582
277.541	15.498	1171.836	871.134
278.555	15.587	1170.591	870.592
279.570	15.514	1170.246	869.880
280.585	15.615	1169.419	869.713
281.599	15.664	1168.044	868.864
282.614	15.714	1166.934	868.219
283.628	15.642	1165.830	866.951
284.643	15.652	1165.304	866.536
285.657	15.664	1164.587	865.985
286.672	15.621	1163.482	864.865
287.687	15.701	1162.623	864.562
288.701	15.686	1161.877	863.855
289.716	15.687	1161.435	863.454
290.730	15.661	1160.693	862.692
291.745	15.803	1160.037	862.856
292.760	15.678	1159.426	861.684
293.774	15.806	1158.995	861.944
294.789	15.968	1157.804	861.814
295.803	15.794	1157.680	860.754
296.818	15.818	1156.710	860.077
297.833	15.982	1155.783	860.149
298.847	15.794	1155.129	858.629
299.862	15.880	1154.228	858.320
300.876	15.855	1153.688	857.716
301.891	15.954	1153.298	857.855
302.906	15.987	1151.917	856.920
303.920	15.963	1151.661	856.531
304.935	15.966	1150.923	855.923
305.949	16.148	1150.107	856.165
306.964	16.220	1149.553	856.041
307.979	16.052	1148.611	854.410
308.993	16.041	1148.291	854.042
310.008	16.110	1146.942	853.314
311.022	16.162	1146.021	852.815
312.037	16.115	1145.495	852.109
313.052	16.171	1144.403	851.504
314.066	16.129	1143.302	850.396
315.081	16.115	1142.468	849.633
316.095	16.102	1142.339	849.397
317.110	16.057	1141.345	848.353
318.125	16.039	1140.532	847.584
319.139	16.049	1140.121	847.255
320.154	16.105	1139.390	846.917
321.168	16.089	1138.765	846.298
322.183	16.077	1137.967	845.569
323.197	16.028	1137.797	845.122
324.212	16.077	1136.942	844.661
325.227	16.187	1135.961	844.408
326.241	16.160	1135.751	844.038
327.256	16.109	1135.211	843.309
328.270	16.298	1133.378	842.816
329.285	16.225	1132.659	841.844
330.300	16.306	1131.709	841.467
331.314	16.260	1130.976	840.617
332.329	16.321	1129.974	840.103
333.343	16.214	1129.029	838.793
334.358	16.183	1128.381	838.085
335.373	16.275	1127.483	837.799
336.387	16.369	1126.479	837.446
337.402	16.407	1125.786	837.046
338.416	16.309	1125.540	836.301
339.431	16.416	1124.683	836.122
340.446	16.395	1124.358	835.703
341.460	16.446	1123.587	835.306
342.475	16.530	1122.254	834.654
343.489	16.667	1121.276	834.531
344.504	16.637	1120.347	833.618
345.519	16.656	1119.638	833.108
346.533	16.581	1119.173	832.321
347.548	16.639	1118.030	831.681
348.562	16.722	1117.337	831.501
349.577	16.737	1116.186	830.645
350.592	16.579	1116.008	829.665
351.606	16.647	1114.956	829.141
352.621	16.629	1114.383	828.554
353.635	16.611	1113.976	828.088
354.650	16.619	1113.094	827.399
355.665	16.601	1112.470	826.776
356.679	16.648	1112.185	826.718
357.694	16.664	1111.350	826.105
358.708	16.710	1110.587	825.685
359.723	16.822	1109.357	825.244
360.738	16.781	1109.135	824.808
361.752	16.691	1108.376	823.732
362.767	16.878	1107.798	824.141
363.781	16.790	1107.600	823.492
364.796	16.854	1106.904	823.210
365.810	16.868	1105.977	822.518
366.825	16.897	1105.438	822.182
367.840	16.965	1104.901	822.040
368.854	17.014	1104.297	821.756
369.869	16.922	1103.662	820.765
370.883	16.978	1102.657	820.215
371.898	17.037	1101.840	819.822
372.913	17.141	1101.114	819.711
373.927	17.141	1100.511	819.191
374.942	16.984	1100.483	818.339
375.956	17.004	1099.957	817.975
376.971	17.051	1099.532	817.809
377.986	17.046	1098.915	817.256
379.000	17.126	1097.681	816.648
380.015	17.138	1097.559	816.542
381.029	17.158	1096.810	816.009
382.044	17.235	1095.874	815.610
383.059	17.148	1095.471	814.822
384.073	17.219	1094.406	814.297
385.088	17.256	1093.836	813.978
386.102	17.335	1092.504	813.292
387.117	17.231	1091.717	812.137
388.132	17.257	1090.674	811.415
389.146	17.263	1089.855	810.764
390.161	17.257	1089.264	810.221
391.175	17.407	1088.284	810.135
392.190	17.321	1087.906	809.374
393.205	17.343	1087.205	808.885
394.219	17.353	1086.610	808.421
395.234	17.449	1085.464	807.950
396.248	17.494	1084.224	807.172
397.263	17.301	1083.674	805.776
398.278	17.408	1083.208	805.862
399.292	17.351	1082.286	804.837
400.307	17.343	1081.361	804.041
401.321	17.331	1080.909	803.577
402.336	17.424	1080.283	803.477
403.350	17.426	1079.172	802.590
404.365	17.468	1078.840	802.471
405.380	17.557	1077.838	802.072
406.394	17.567	1077.033	801.449
407.409	17.475	1076.689	800.693
408.423	17.492	1075.940	800.141
409.438	17.476	1075.373	799.576
410.453	17.567	1074.548	799.319
411.467	17.616	1073.575	798.754
412.482	17.638	1072.790	798.203
413.496	17.628	1072.241	797.676
414.511	17.632	1071.752	797.262
415.526	17.624	1071.512	796.975
416.540	17.743	1070.940	797.034
417.555	17.751	1070.213	796.462
418.569	17.754	1069.677	796.002
419.584	17.791	1069.163	795.723
420.599	17.856	1068.658	795.580
421.613	109.064	1333.233	1490.839
422.628	100.905	1371.718	1490.916
