DTS Sentinel unit serial number:	SN413079Multiplexer serial number:	ORYXHardware model number:	OX4-SRSoftware version number:	ORYX F/W v4.00 Oryx Data Collector v3.7.2.0data status	okinstallation	princeton_trtdifferential loss correction	single-endedforward channel	channel 2reverse channel	N/Adate	2019/09/12time	14:57:11forward acquisition time	60.00reverse acquisition time	0.00gamma	496.2192k internal	0.2300k external	0.2300temperature offset calibration	1.0087default loss term (dB/km)	0.3790temperature slope calibration	1.0000multiplexer offset coefficient	1.0000multiplexer slope coefficient	1.0000fibre end	0.00T internal ref (°C)	40.37T ext. ref 1 (°C)	2.32T ext. ref 2 (°C)	37.44length (m)	temperature (°C)	Stokes	anti-Stokes-747.200	42.093	0.131	0.121
-746.185	-200.000	-0.005	0.351
-745.171	581.441	0.067	-0.167
-744.156	455.032	0.076	0.172
-743.142	-69.358	-0.117	-0.046
-742.127	-73.536	0.326	0.121
-741.112	-30.862	0.238	0.137
-740.098	-90.657	-0.109	0.032
-739.083	361.168	0.117	-0.239
-738.069	87.923	-0.217	0.246
-737.054	-129.107	-0.435	0.062
-736.039	105.492	0.239	-0.288
-735.025	-53.805	-0.118	0.055
-734.010	11.664	0.280	-0.219
-732.996	23.425	0.120	-0.100
-731.981	-57.537	-0.185	0.083
-730.966	81.967	0.045	-0.050
-729.952	-148.290	-0.046	-0.004
-728.937	-14.352	-0.321	0.211
-727.923	-66.157	-0.188	-0.076
-726.908	-134.396	0.236	-0.030
-725.894	-200.000	0.026	-0.118
-724.879	225.445	-0.121	-0.200
-723.864	-41.791	0.263	0.138
-722.850	202.180	-0.119	0.187
-721.835	-200.000	-0.018	0.148
-720.821	-169.068	0.351	-0.013
-719.806	-200.000	0.044	-0.362
-718.791	421.683	0.116	0.254
-717.777	-200.000	-0.015	-0.175
-716.762	216.483	-0.108	0.175
-715.748	-135.495	-0.479	-0.058
-714.733	-21.198	-0.170	0.106
-713.718	154.967	0.147	-0.205
-712.704	-36.142	-0.293	-0.161
-711.689	800.000	0.053	0.233
-710.675	225.898	0.040	-0.066
-709.660	-188.045	0.308	0.004
-708.645	-200.000	0.014	0.141
-707.631	-27.305	0.162	0.096
-706.616	-50.192	-0.143	0.069
-705.602	-200.000	0.010	-0.160
-704.587	255.528	0.187	-0.327
-703.572	118.860	-0.235	0.296
-702.558	-120.753	0.219	-0.038
-701.543	-200.000	0.005	0.214
-700.529	86.868	0.118	-0.132
-699.514	-68.156	-0.126	-0.050
-698.499	67.668	0.055	0.057
-697.485	-77.838	0.299	0.105
-696.470	531.931	0.111	-0.266
-695.456	127.570	-0.119	0.154
-694.441	303.762	0.064	0.120
-693.426	-63.807	-0.194	-0.081
-692.412	-200.000	-0.074	-0.442
-691.397	-23.999	-0.096	-0.058
-690.383	-200.000	0.010	0.139
-689.368	-165.894	-0.055	0.002
-688.354	659.250	0.097	-0.254
-687.339	800.000	0.091	-0.309
-686.324	340.219	0.068	-0.134
-685.310	114.061	0.076	-0.094
-684.295	-22.194	0.420	0.259
-683.281	552.549	0.104	-0.253
-682.266	388.643	-0.083	0.174
-681.251	-27.595	0.221	0.131
-680.237	-200.000	-0.034	0.183
-679.222	-75.695	-0.266	0.096
-678.208	-55.636	0.185	-0.084
-677.193	175.957	-0.163	0.240
-676.178	-17.420	0.069	-0.044
-675.164	74.309	0.122	-0.131
-674.149	95.200	-0.360	-0.417
-673.135	84.329	-0.131	0.146
-672.120	720.311	0.069	0.187
-671.105	55.854	0.091	-0.089
-670.091	-46.272	-0.168	0.084
-669.076	598.267	-0.014	-0.036
-668.062	42.990	0.175	-0.162
-667.047	-200.000	0.005	-0.027
-666.032	172.652	-0.178	0.260
-665.018	439.973	-0.127	0.282
-664.003	-105.702	0.225	-0.052
-662.989	578.572	0.070	0.173
-661.974	17.052	-0.148	0.119
-660.959	129.747	-0.055	-0.072
-659.945	-39.914	-0.059	0.031
-658.930	78.707	-0.112	-0.122
-657.916	-127.400	-0.220	0.033
-656.901	92.397	-0.156	-0.179
-655.886	-104.994	-0.103	0.024
-654.872	-200.000	0.012	-0.121
-653.857	-102.804	0.186	-0.045
-652.843	-36.165	-0.306	-0.168
-651.828	114.521	0.329	-0.408
-650.814	93.350	0.280	0.322
-649.799	800.000	-0.054	0.177
-648.784	-200.000	-0.003	-0.035
-647.770	-28.004	0.320	0.188
-646.755	-7.619	0.254	-0.175
-645.741	395.231	0.067	-0.141
-644.726	344.780	0.067	-0.133
-643.711	-45.534	0.071	0.036
-642.697	-135.728	0.290	-0.035
-641.682	83.388	-0.225	0.250
-640.668	34.238	0.154	-0.137
-639.653	-108.402	0.229	0.050
-638.638	95.648	-0.065	0.075
-637.624	-105.506	-0.177	0.041
-636.609	162.787	-0.201	0.286
-635.595	152.928	0.136	0.189
-634.580	36.753	0.277	-0.249
-633.565	413.357	-0.176	-0.381
-632.551	-62.759	-0.404	-0.170
-631.536	139.184	-0.210	0.281
-630.522	-0.757	0.076	-0.055
-629.507	800.000	0.019	0.073
-628.492	-67.969	0.059	-0.023
-627.478	-82.598	-0.155	-0.051
-626.463	141.981	-0.203	0.273
-625.449	-116.645	0.233	-0.043
-624.434	-49.035	-0.214	0.104
-623.419	-116.605	0.056	-0.011
-622.405	-166.353	-0.241	0.010
-621.390	357.041	-0.058	0.118
-620.376	83.311	-0.305	-0.337
-619.361	-2.868	0.202	-0.144
-618.346	38.968	0.136	0.123
-617.332	641.862	-0.159	0.412
-616.317	-129.343	0.380	0.054
-615.303	252.705	-0.043	-0.075
-614.288	800.000	0.038	-0.156
-613.273	-136.778	0.330	-0.039
-612.259	-151.413	0.103	0.008
-611.244	38.714	0.284	-0.257
-610.230	800.000	0.052	-0.159
-609.215	-200.000	-0.027	-0.274
-608.201	-75.447	0.142	-0.051
-607.186	619.906	-0.112	0.285
-606.171	-200.000	0.048	0.253
-605.157	-4.572	-0.232	0.163
-604.142	-70.460	-0.154	0.059
-603.128	-147.156	-0.067	-0.006
-602.113	800.000	-0.060	0.247
-601.098	499.271	-0.114	-0.267
-600.084	-6.699	-0.697	-0.481
-599.069	53.504	0.104	0.101
-598.055	800.000	0.091	-0.354
-597.040	43.029	-0.124	0.115
-596.025	740.913	-0.113	-0.308
-595.011	62.313	0.024	0.024
-593.996	115.193	0.146	-0.181
-592.982	-37.188	0.116	-0.063
-591.967	182.093	0.095	0.142
-590.952	-42.822	-0.179	-0.092
-589.938	154.255	-0.085	0.119
-588.923	-124.859	0.037	0.006
-587.909	486.064	-0.186	-0.430
-586.894	-33.443	-0.144	0.081
-585.879	-124.346	0.204	-0.032
-584.865	-200.000	-0.031	-0.182
-583.850	-168.767	-0.127	-0.005
-582.836	-125.392	-0.224	-0.035
-581.821	72.049	0.222	0.234
-580.806	-200.000	0.010	-0.142
-579.792	-58.327	-0.251	-0.111
-578.777	96.513	0.258	-0.300
-577.763	-151.547	0.255	-0.019
-576.748	-95.472	-0.054	0.015
-575.733	392.841	0.042	-0.089
-574.719	38.834	-0.281	-0.254
-573.704	-137.406	-0.199	-0.023
-572.690	-200.000	-0.015	-0.191
-571.675	224.594	0.088	-0.144
-570.661	-50.735	0.288	0.137
-569.646	-29.487	-0.230	-0.133
-568.631	-138.144	0.135	0.015
-567.617	800.000	-0.062	-0.183
-566.602	5.433	0.092	0.069
-565.588	-200.000	0.031	0.211
-564.573	-180.397	-0.226	0.005
-563.558	81.614	0.099	-0.108
-562.544	-135.817	-0.302	0.036
-561.529	-98.673	0.234	0.060
-560.515	-200.000	-0.011	-0.071
-559.500	-121.755	-0.161	0.027
-558.485	-91.572	0.182	0.053
-557.471	-43.350	0.076	-0.039
-556.456	-150.450	0.042	-0.003
-555.442	-107.668	-0.267	0.059
-554.427	-200.000	-0.052	0.314
-553.412	-200.000	-0.050	-0.225
-552.398	139.105	-0.090	-0.120
-551.383	-14.554	0.091	0.059
-550.369	168.748	-0.167	0.241
-549.354	467.516	-0.021	-0.047
-548.339	569.799	0.176	-0.433
-547.325	-200.000	0.003	-0.357
-546.310	-3.498	0.128	-0.090
-545.296	-200.000	-0.010	0.104
-544.281	-52.976	-0.306	0.143
-543.266	278.013	0.344	0.620
-542.252	205.940	-0.071	0.112
-541.237	-97.764	-0.204	-0.053
-540.223	-79.180	-0.097	-0.033
-539.208	-128.056	0.179	0.026
-538.193	433.327	0.035	0.076
-537.179	137.668	0.133	0.177
-536.164	31.108	-0.127	-0.110
-535.150	-144.031	0.236	0.022
-534.135	41.131	-0.089	0.082
-533.121	-200.000	0.048	-0.234
-532.106	50.949	0.261	-0.250
-531.091	-15.814	-0.005	-0.004
-530.077	800.000	-0.060	0.213
-529.062	-11.065	-0.115	-0.077
-528.048	650.061	-0.043	-0.111
-527.033	-200.000	0.002	-0.079
-526.018	138.063	-0.071	-0.094
-525.004	168.438	0.049	0.070
-523.989	62.406	-0.094	0.095
-522.975	-170.671	0.243	0.008
-521.960	92.851	0.166	0.190
-520.945	234.509	0.071	-0.118
-519.931	-44.424	0.425	0.215
-518.916	-200.000	0.011	-0.115
-517.902	638.223	0.033	0.086
-516.887	-128.256	-0.545	-0.079
-515.872	-9.866	-0.097	-0.065
-514.858	-200.000	-0.018	-0.186
-513.843	505.294	-0.046	-0.108
-512.829	-100.976	0.102	0.025
-511.814	-47.610	0.023	0.011
-510.799	138.255	-0.349	-0.463
-509.785	105.796	0.131	0.156
-508.770	-200.000	-0.002	-0.150
-507.756	166.010	0.147	0.210
-506.741	44.072	-0.096	0.089
-505.726	800.000	-0.023	-0.073
-504.712	-200.000	0.023	0.220
-503.697	-49.275	-0.422	-0.204
-502.683	-200.000	0.023	0.102
-501.668	-98.851	0.342	0.088
-500.653	800.000	-0.039	0.134
-499.639	752.174	0.049	0.133
-498.624	27.821	0.267	0.228
-497.610	-200.000	0.001	0.012
-496.595	212.309	0.127	-0.203
-495.581	-200.000	0.025	-0.243
-494.566	92.891	0.152	0.173
-493.551	72.327	-0.139	-0.146
-492.537	-67.969	0.102	0.040
-491.522	800.000	0.130	-0.414
-490.508	-200.000	-0.029	-0.128
-489.493	-72.519	0.158	0.059
-488.478	-200.000	-0.011	-0.324
-487.464	8.933	-0.226	-0.172
-486.449	454.025	-0.171	0.381
-485.435	-111.547	-0.346	-0.071
-484.420	-45.968	0.288	0.143
-483.405	-75.136	0.292	-0.106
-482.391	-112.313	-0.201	0.041
-481.376	-200.000	-0.071	0.442
-480.362	-107.050	-0.111	0.025
-479.347	-200.000	-0.057	-0.258
-478.332	171.361	0.033	-0.048
-477.318	-200.000	0.007	0.153
-476.303	-200.000	0.038	-0.267
-475.289	457.971	0.041	-0.091
-474.274	92.119	0.301	-0.342
-473.259	145.815	-0.020	0.027
-472.245	800.000	-0.079	-0.271
-471.230	-99.801	-0.137	-0.035
-470.216	-77.088	-0.396	0.139
-469.201	245.810	-0.053	-0.091
-468.186	-200.000	0.013	-0.147
-467.172	-200.000	0.015	-0.097
-466.157	-200.000	0.035	-0.286
-465.143	357.528	0.098	-0.198
-464.128	-42.625	-0.183	0.094
-463.113	6.529	-0.380	0.285
-462.099	108.491	0.313	-0.377
-461.084	-200.000	-0.026	-0.223
-460.070	366.450	-0.092	0.187
-459.055	83.496	0.406	0.446
-458.040	297.692	-0.040	0.074
-457.026	-134.135	-0.145	-0.018
-456.011	-153.829	0.080	0.006
-454.997	323.921	0.141	-0.272
-453.982	-200.000	0.003	0.158
-452.968	800.000	0.067	-0.239
-451.953	-5.934	0.079	-0.054
-450.938	239.373	-0.110	0.184
-449.924	-200.000	0.056	-0.370
-448.909	800.000	-0.019	-0.063
-447.895	-175.513	-0.107	-0.003
-446.880	560.277	0.115	0.280
-445.865	800.000	0.044	-0.130
-444.851	-107.157	-0.288	-0.064
-443.836	327.576	-0.002	-0.004
-442.822	-30.900	-0.187	0.107
-441.807	354.800	0.124	-0.248
-440.792	-157.102	0.116	0.007
-439.778	-40.173	0.239	0.126
-438.763	574.603	0.109	-0.267
-437.749	665.210	-0.160	0.416
-436.734	81.660	0.063	-0.069
-435.719	800.000	-0.030	-0.105
-434.705	-63.175	-0.091	-0.038
-433.690	-149.623	-0.319	-0.025
-432.676	-76.707	-0.212	-0.075
-431.661	191.169	-0.144	-0.218
-430.646	800.000	-0.050	0.183
-429.632	-56.743	-0.384	-0.171
-428.617	-200.000	-0.005	-0.123
-427.603	-80.756	-0.117	-0.039
-426.588	-200.000	0.063	0.292
-425.573	91.920	0.130	0.147
-424.559	78.831	-0.242	-0.261
-423.544	-9.362	0.028	0.019
-422.530	-200.000	-0.005	0.052
-421.515	85.080	0.178	0.196
-420.500	-200.000	0.011	0.062
-419.486	706.082	0.079	-0.211
-418.471	59.773	0.051	0.050
-417.457	183.274	0.152	-0.226
-416.442	559.163	0.064	0.156
-415.428	-200.000	-0.001	0.108
-414.413	-2.888	-0.150	0.106
-413.398	-185.477	0.369	0.006
-412.384	-200.000	-0.013	0.173
-411.369	-200.000	-0.017	0.093
-410.355	723.267	0.035	0.093
-409.340	41.092	-0.240	-0.218
-408.325	12.051	0.271	-0.210
-407.311	-146.350	-0.151	-0.013
-406.296	569.201	0.030	-0.073
-405.282	-106.447	0.314	-0.070
-404.267	-40.023	-0.043	0.023
-403.252	-36.844	-0.205	0.110
-402.238	560.904	-0.035	0.086
-401.223	800.000	0.021	-0.085
-400.209	-156.083	0.059	0.004
-399.194	93.669	0.115	0.131
-398.179	376.957	-0.084	0.173
-397.165	683.568	-0.132	0.346
-396.150	-3.457	-0.090	-0.063
-395.136	-58.562	0.349	-0.153
-394.121	16.532	-0.209	-0.166
-393.106	-74.030	0.321	-0.117
-392.092	800.000	-0.007	0.022
-391.077	-11.048	-0.060	-0.040
-390.063	-12.845	-0.173	-0.113
-389.048	-166.319	0.055	-0.002
-388.033	-200.000	0.104	0.545
-387.019	224.428	-0.078	-0.126
-386.004	-16.550	0.283	-0.180
-384.990	138.872	0.171	-0.225
-383.975	-118.081	0.203	0.037
-382.960	-200.000	-0.016	0.315
-381.946	-32.007	0.146	-0.082
-380.931	102.556	-0.207	0.244
-379.917	598.651	0.129	0.321
-378.902	-200.000	0.011	0.092
-377.888	58.348	0.057	-0.056
-376.873	777.096	0.016	-0.043
-375.858	-200.000	-0.077	0.389
-374.844	-58.259	-0.184	-0.080
-373.829	9.028	0.132	0.100
-372.815	560.263	-0.112	0.273
-371.800	800.000	0.070	0.211
-370.785	-27.244	0.253	0.148
-369.771	200.860	0.196	0.303
-368.756	-64.841	-0.011	0.004
-367.742	242.820	0.102	-0.172
-366.727	72.483	0.107	-0.112
-365.712	-96.171	0.025	-0.007
-364.698	-107.426	-0.315	0.069
-363.683	438.555	0.149	0.327
-362.669	472.626	-0.114	0.258
-361.654	-200.000	-0.011	-0.124
-360.639	-53.864	0.425	0.195
-359.625	-49.859	-0.107	-0.051
-358.610	381.884	0.054	-0.112
-357.596	-200.000	-0.031	-0.298
-356.581	-99.358	-0.247	0.063
-355.566	227.250	-0.161	-0.263
-354.552	-200.000	-0.019	-0.089
-353.537	85.465	-0.132	-0.146
-352.523	64.789	-0.064	-0.065
-351.508	382.046	0.085	-0.175
-350.493	277.171	0.124	0.222
-349.479	-178.657	-0.121	-0.003
-348.464	-120.520	0.067	0.011
-347.450	-200.000	-0.045	0.220
-346.435	549.165	-0.265	0.638
-345.420	-3.696	0.078	0.054
-344.406	-76.262	-0.112	0.040
-343.391	383.502	0.109	0.225
-342.377	53.814	-0.170	0.164
-341.362	-3.070	0.267	-0.187
-340.348	-70.819	-0.088	-0.033
-339.333	8.762	0.116	0.088
-338.318	-115.918	0.139	0.026
-337.304	-200.000	-0.057	-0.353
-336.289	144.833	0.216	-0.289
-335.275	70.472	-0.149	-0.155
-334.260	-16.685	0.193	-0.122
-333.245	126.951	0.227	0.289
-332.231	10.740	0.228	0.175
-331.216	510.166	-0.033	0.076
-330.202	98.094	0.219	0.253
-329.187	-200.000	-0.020	0.307
-328.172	244.284	-0.035	0.059
-327.158	332.171	-0.167	-0.324
-326.143	25.888	0.183	-0.153
-325.129	12.336	-0.328	0.254
-324.114	775.997	0.081	-0.223
-323.099	-200.000	0.008	0.109
-322.085	-49.113	-0.138	0.066
-321.070	-105.561	-0.143	0.033
-320.056	800.000	0.066	0.219
-319.041	5.314	-0.208	0.154
-318.026	-49.176	-0.165	-0.079
-317.012	800.000	0.133	-0.402
-315.997	-127.815	0.136	-0.020
-314.983	679.476	-0.093	-0.243
-313.968	-81.647	0.166	0.055
-312.953	-73.537	-0.267	0.098
-311.939	800.000	0.158	0.471
-310.924	439.032	-0.040	0.088
-309.910	800.000	-0.131	-0.380
-308.895	671.089	-0.092	0.240
-307.880	800.000	-0.007	-0.021
-306.866	180.497	-0.284	-0.418
-305.851	800.000	-0.073	-0.220
-304.837	-109.913	-0.322	-0.068
-303.822	-26.672	-0.220	0.129
-302.807	-58.919	0.225	0.097
-301.793	-27.730	0.015	0.009
-300.778	-183.510	0.027	0.000
-299.764	-124.051	-0.337	0.053
-298.749	-66.224	-0.392	0.157
-297.735	250.768	0.036	-0.061
-296.720	157.025	-0.285	-0.395
-295.705	180.734	0.144	0.213
-294.691	24.816	-0.290	0.241
-293.676	-85.303	0.162	-0.051
-292.662	-24.208	0.101	0.060
-291.647	-70.053	-0.301	0.115
-290.632	-78.885	0.254	0.087
-289.618	98.056	-0.087	-0.100
-288.603	351.264	0.100	0.198
-287.589	-200.000	0.002	-0.100
-286.574	21.017	-0.287	0.234
-285.559	21.074	0.213	-0.173
-284.545	265.961	-0.038	0.066
-283.530	-26.451	-0.210	-0.124
-282.516	7.770	0.189	-0.142
-281.501	87.881	-0.233	0.259
-280.486	277.737	0.163	-0.290
-279.472	-68.755	0.320	0.124
-278.457	-3.679	0.233	-0.162
-277.443	-200.000	0.021	0.133
-276.428	114.554	0.152	0.185
-275.413	-67.732	0.129	0.051
-274.399	-200.000	-0.030	-0.418
-273.384	75.724	-0.089	-0.094
-272.370	-200.000	0.061	0.313
-271.355	-20.811	-0.197	-0.121
-270.340	800.000	-0.104	0.289
-269.326	-150.051	-0.211	-0.016
-268.311	-16.779	-0.141	-0.089
-267.297	-53.042	-0.089	-0.041
-266.282	46.110	-0.036	0.033
-265.267	-200.000	-0.031	0.348
-264.253	108.606	0.148	-0.177
-263.238	151.413	0.055	-0.074
-262.224	-78.461	0.152	-0.052
-261.209	-190.363	-0.390	-0.004
-260.195	800.000	0.090	0.341
-259.180	-190.227	-0.077	-0.001
-258.165	691.793	-0.037	0.097
-257.151	-99.580	0.179	0.045
-256.136	-59.065	-0.165	-0.071
-255.122	-10.930	0.391	-0.259
-254.107	-200.000	-0.003	-0.277
-253.092	-200.000	0.005	0.319
-252.078	-158.390	-0.182	0.011
-251.063	-122.197	-0.157	-0.026
-250.049	-43.304	0.219	0.111
-249.034	294.665	0.044	0.081
-248.019	132.184	0.158	0.203
-247.005	800.000	-0.087	0.378
-245.990	447.769	0.025	0.055
-244.976	70.953	0.176	0.182
-243.961	-116.634	-0.213	-0.039
-242.946	-120.066	-0.343	0.059
-241.932	-200.000	-0.048	-0.436
-240.917	31.388	-0.117	-0.101
-239.903	90.277	0.051	0.057
-238.888	191.457	-0.109	0.164
-237.873	-103.138	-0.165	-0.039
-236.859	209.798	0.121	-0.190
-235.844	774.144	0.077	-0.209
-234.830	241.025	-0.047	0.079
-233.815	-28.528	-0.147	0.085
-232.800	-130.220	-0.351	0.048
-231.786	-22.369	0.274	0.166
-230.771	800.000	0.024	-0.082
-229.757	-200.000	0.035	-0.301
-228.742	-72.001	-0.187	0.070
-227.727	15.163	-0.247	0.194
-226.713	111.310	-0.055	0.066
-225.698	-200.000	0.007	-0.148
-224.684	-146.366	0.127	-0.011
-223.669	-109.071	0.313	-0.067
-222.655	-88.682	-0.137	0.041
-221.640	473.512	0.038	0.086
-220.625	16.037	0.195	0.154
-219.611	-10.100	-0.269	-0.179
-218.596	453.557	-0.104	-0.231
-217.582	-11.015	0.157	-0.103
-216.567	-84.935	-0.251	0.079
-215.552	-4.041	0.298	0.206
-214.538	-200.000	0.014	-0.066
-213.523	338.454	0.074	-0.144
-212.509	-110.631	0.233	0.048
-211.494	-4.374	-0.100	-0.069
-210.479	-6.727	0.296	-0.201
-209.465	125.781	0.208	0.262
-208.450	247.173	-0.195	0.329
-207.436	181.551	0.180	-0.265
-206.421	-5.295	0.189	0.130
-205.406	-200.000	-0.011	-0.121
-204.392	-83.400	-0.376	0.120
-203.377	-200.000	-0.059	0.360
-202.363	43.343	0.206	0.188
-201.348	-2.493	0.211	-0.148
-200.333	204.521	0.043	-0.067
-199.319	90.496	-0.197	-0.220
-198.304	1.026	0.140	0.100
-197.290	632.472	0.063	-0.159
-196.275	-147.006	0.351	0.030
-195.260	-101.815	0.269	0.065
-194.246	85.827	0.093	-0.103
-193.231	153.899	-0.044	0.060
-192.217	224.507	-0.053	-0.086
-191.202	-200.000	0.046	-0.243
-190.187	-194.341	0.088	-0.001
-189.173	104.308	0.198	0.233
-188.158	70.486	0.135	0.139
-187.144	39.994	-0.272	0.244
-186.129	-162.530	-0.129	-0.006
-185.114	-200.000	-0.010	0.190
-184.100	-200.000	-0.002	0.459
-183.085	230.381	0.080	-0.131
-182.071	95.566	-0.206	-0.234
-181.056	-119.315	0.088	-0.015
-180.042	252.691	-0.080	0.136
-179.027	-63.847	-0.114	0.046
-178.012	154.699	0.106	-0.145
-176.998	-148.838	-0.088	-0.007
-175.983	684.685	0.134	0.349
-174.969	740.966	-0.034	-0.090
-173.954	320.443	0.080	-0.151
-172.939	-168.920	0.231	0.009
-171.925	274.134	-0.233	0.411
-170.910	-200.000	-0.034	0.169
-169.896	150.123	0.281	-0.380
-168.881	800.000	0.092	-0.328
-167.866	800.000	0.052	-0.188
-166.852	452.288	0.106	-0.234
-165.837	800.000	0.037	-0.130
-164.823	74.775	0.012	0.012
-163.808	449.351	0.044	0.097
-162.793	285.093	0.048	-0.086
-161.779	-90.586	0.187	0.054
-160.764	128.908	0.104	0.133
-159.750	-72.468	0.185	0.068
-158.735	-111.587	-0.171	-0.035
-157.720	329.792	0.109	0.209
-156.706	-29.590	0.170	0.097
-155.691	-118.306	-0.285	0.051
-154.677	-18.331	-0.233	-0.145
-153.662	14.645	-0.127	-0.099
-152.647	-143.032	0.344	0.033
-151.633	-156.877	-0.283	-0.017
-150.618	-122.202	0.084	-0.014
-149.604	798.429	0.073	0.200
-148.589	-200.000	-0.017	-0.227
-147.574	383.155	0.120	-0.246
-146.560	200.251	-0.210	0.321
-145.545	371.783	-0.166	0.336
-144.531	-200.000	0.022	0.175
-143.516	-134.692	0.104	0.013
-142.502	-147.425	0.452	-0.038
-141.487	800.000	0.085	-0.290
-140.472	-97.524	-0.100	-0.026
-139.458	800.000	0.123	0.347
-138.443	800.000	-0.080	0.340
-137.429	-126.535	0.368	-0.054
-136.414	-200.000	0.050	0.222
-135.399	800.000	-0.016	-0.071
-134.385	-33.270	-0.165	0.091
-133.370	-144.910	-0.203	-0.019
-132.356	800.000	0.110	0.384
-131.341	-200.000	0.026	0.224
-130.326	93.670	-0.376	-0.424
-129.312	-200.000	0.014	-0.133
-128.297	800.000	-0.087	-0.331
-127.283	518.747	-0.067	0.157
-126.268	-200.000	0.037	-0.303
-125.253	-29.558	0.337	0.192
-124.239	-173.202	0.102	-0.003
-123.224	-200.000	0.010	0.076
-122.210	605.967	0.062	-0.153
-121.195	-111.410	0.407	-0.083
-120.180	5.038	-0.153	0.112
-119.166	279.574	-0.186	0.331
-118.151	-38.064	-0.180	-0.095
-117.137	-48.407	0.107	-0.051
-116.122	363.901	0.062	-0.124
-115.107	-38.759	0.111	0.058
-114.093	115.481	0.086	-0.105
-113.078	-200.000	0.001	0.154
-112.064	-21.678	-0.249	0.151
-111.049	28.185	0.073	-0.061
-110.034	5.467	-0.098	0.072
-109.020	-87.095	-0.332	-0.100
-108.005	231.927	-0.090	-0.147
-106.991	-92.423	0.346	-0.097
-105.976	-90.860	-0.434	0.124
-104.962	179.338	-0.133	0.194
-103.947	3.554	-0.214	0.155
-102.932	-68.807	0.124	-0.048
-101.918	157.537	0.183	-0.252
-100.903	-1.353	0.331	0.232
-99.889	226.131	0.197	0.317
-98.874	800.000	0.070	0.228
-97.859	440.939	-0.247	0.537
-96.845	95.604	-0.043	-0.049
-95.830	91.004	0.302	0.337
-94.816	-29.230	0.050	0.029
-93.801	23.063	-0.270	0.220
-92.786	495.109	-0.149	0.340
-91.772	-200.000	-0.008	0.282
-90.757	-177.662	-0.174	0.004
-89.743	-200.000	0.012	0.258
-88.728	-200.000	-0.017	-0.089
-87.713	-118.531	-0.307	0.054
-86.699	-24.303	-0.281	-0.166
-85.684	-91.416	-0.201	-0.057
-84.670	-200.000	0.020	0.092
-83.655	431.663	-0.081	0.175
-82.640	21.620	0.078	0.063
-81.626	207.194	0.052	0.080
-80.611	-200.000	-0.025	-0.238
-79.597	124.616	0.175	0.219
-78.582	-104.435	0.143	0.033
-77.567	181.129	-0.093	0.136
-76.553	96.707	-0.275	0.313
-75.538	-200.000	-0.021	-0.307
-74.524	-16.299	-0.189	-0.119
-73.509	-90.614	0.424	0.122
-72.494	-200.000	-0.019	-0.137
-71.480	800.000	-0.029	-0.081
-70.465	-53.737	-0.351	0.159
-69.451	-200.000	0.039	-0.277
-68.436	532.548	0.181	0.426
-67.422	-200.000	0.053	0.272
-66.407	-154.801	0.178	-0.012
-65.392	48.378	0.066	0.061
-64.378	258.253	0.254	0.435
-63.363	164.077	0.167	-0.234
-62.349	344.752	0.191	0.372
-61.334	59.580	-0.765	-0.749
-60.319	-200.000	0.013	0.110
-59.305	800.000	-0.208	-0.625
-58.290	340.330	0.497	0.963
-57.276	466.447	0.742	1.651
-56.261	-200.000	76.854	513.248
-55.246	517.815	1330.320	3090.707
-54.232	147.239	2566.203	3429.264
-53.217	110.337	2341.506	2792.924
-52.203	49.579	1955.067	1827.728
-51.188	43.563	1743.946	1583.363
-50.173	40.839	1698.086	1520.855
-49.159	55.384	1733.582	1665.103
-48.144	60.793	1752.011	1724.411
-47.130	43.556	1715.908	1557.610
-46.115	40.532	1701.704	1521.499
-45.100	40.256	1697.586	1515.643
-44.086	40.287	1694.813	1513.340
-43.071	40.252	1692.384	1510.847
-42.057	40.233	1689.791	1508.324
-41.042	40.237	1687.728	1506.454
-40.027	40.237	1686.107	1504.951
-39.013	40.268	1683.920	1503.170
-37.998	40.189	1682.885	1501.594
-36.984	40.269	1681.438	1500.847
-35.969	40.403	1680.067	1500.577
-34.954	40.490	1677.728	1499.086
-33.940	40.363	1676.368	1496.850
-32.925	40.277	1674.464	1494.444
-31.911	40.423	1672.302	1493.555
-30.896	40.497	1669.646	1491.683
-29.881	40.274	1669.175	1489.527
-28.867	40.367	1667.088	1488.300
-27.852	40.409	1665.676	1487.296
-26.838	40.428	1664.121	1485.989
-25.823	40.434	1662.602	1484.624
-24.809	40.387	1661.310	1483.057
-23.794	40.419	1660.202	1482.248
-22.779	40.491	1658.341	1481.063
-21.765	40.430	1656.957	1479.315
-20.750	40.362	1655.406	1477.368
-19.736	40.401	1653.778	1476.145
-18.721	40.564	1652.115	1475.813
-17.706	40.423	1650.710	1473.454
-16.692	40.381	1649.469	1471.971
-15.677	40.408	1647.729	1470.560
-14.663	40.472	1646.537	1469.916
-13.648	40.338	1645.572	1468.002
-12.633	40.340	1643.971	1466.533
-11.619	40.414	1642.206	1465.446
-10.604	40.285	1641.226	1463.555
-9.590	40.383	1639.416	1462.612
-8.575	40.398	1638.059	1461.454
-7.560	40.431	1636.696	1460.422
-6.546	40.300	1635.851	1458.642
-5.531	40.296	1634.491	1457.347
-4.517	40.316	1633.588	1456.625
-3.502	40.391	1632.144	1455.838
-2.487	40.530	1630.133	1455.007
-1.473	40.312	1619.449	1443.818
-0.458	37.969	1599.851	1409.389
0.556	34.674	1598.521	1374.566
1.571	32.030	1622.973	1376.114
2.586	31.105	1637.349	1381.332
3.600	26.963	1581.501	1304.403
4.615	14.983	1461.591	1125.316
5.629	4.455	1387.346	1000.526
6.644	2.418	1377.914	980.596
7.659	2.349	1376.341	978.947
8.673	2.263	1375.387	977.631
9.688	2.261	1373.459	976.161
10.702	1.934	1371.073	972.297
11.717	5.780	1378.934	1002.409
12.731	16.966	1400.173	1090.019
13.746	25.472	1414.708	1156.220
14.761	26.932	1416.091	1166.641
15.775	27.210	1415.604	1167.919
16.790	27.261	1415.065	1167.704
17.804	27.339	1414.329	1167.494
18.819	27.540	1414.309	1168.658
19.834	27.569	1413.652	1168.198
20.848	27.594	1413.168	1167.856
21.863	27.619	1411.851	1166.827
22.877	27.587	1411.384	1166.132
23.892	27.570	1410.293	1165.019
24.907	27.580	1409.403	1164.246
25.921	27.679	1407.864	1163.499
26.936	27.628	1407.185	1162.515
27.950	27.580	1406.199	1161.288
28.965	27.644	1405.057	1160.652
29.980	27.554	1403.783	1158.926
30.994	27.600	1402.584	1158.124
32.009	27.562	1401.363	1156.772
33.023	27.529	1400.595	1155.825
34.038	27.586	1398.995	1154.764
35.053	27.612	1398.066	1154.058
36.067	27.701	1396.993	1153.633
37.082	27.569	1396.345	1152.162
38.096	27.499	1395.525	1150.940
39.111	27.588	1394.479	1150.542
40.126	27.526	1394.467	1150.040
41.140	27.580	1393.380	1149.378
42.155	27.547	1393.267	1148.977
43.169	27.573	1392.716	1148.581
44.184	27.487	1393.078	1148.241
45.199	27.546	1392.391	1147.945
46.213	27.579	1391.781	1147.545
47.228	27.611	1390.653	1146.717
48.242	27.621	1389.804	1145.979
49.257	27.550	1388.494	1144.347
50.271	27.500	1386.659	1142.420
51.286	27.541	1385.460	1141.591
52.301	27.619	1383.675	1140.505
53.315	27.648	1383.031	1140.055
54.330	27.531	1382.336	1138.650
55.344	27.527	1381.284	1137.661
56.359	27.506	1380.428	1136.722
57.374	27.581	1379.631	1136.436
58.388	27.571	1378.864	1135.636
59.403	27.556	1378.477	1135.125
60.417	27.570	1377.826	1134.573
61.432	27.570	1377.042	1133.828
62.447	27.654	1375.652	1133.109
63.461	27.523	1374.978	1131.638
64.476	27.582	1373.689	1130.841
65.490	27.656	1372.687	1130.380
66.505	27.532	1371.273	1128.344
67.520	27.582	1370.072	1127.567
68.534	27.659	1368.593	1126.728
69.549	27.613	1367.971	1125.829
70.563	27.673	1366.811	1125.147
71.578	27.561	1366.268	1123.906
72.593	27.668	1364.969	1123.399
73.607	27.573	1364.751	1122.537
74.622	27.557	1364.395	1122.046
75.636	27.671	1363.108	1121.586
76.651	27.554	1362.470	1120.247
77.666	27.626	1361.829	1120.059
78.680	27.496	1361.810	1119.150
79.695	27.658	1360.686	1119.121
80.709	27.621	1360.095	1118.307
81.724	27.623	1358.942	1117.275
82.739	27.624	1357.994	1116.397
83.753	27.563	1357.046	1115.148
84.768	27.594	1355.957	1114.347
85.782	27.519	1354.966	1112.974
86.797	27.584	1353.741	1112.264
87.812	27.630	1352.775	1111.657
88.826	27.595	1351.627	1110.398
89.841	27.663	1350.512	1109.800
90.855	27.698	1349.518	1109.095
91.870	27.613	1349.165	1108.192
92.884	27.646	1347.867	1107.229
93.899	27.569	1347.152	1106.077
94.914	27.579	1346.712	1105.678
95.928	27.585	1345.867	1104.923
96.943	27.727	1344.747	1104.765
97.957	27.646	1344.152	1103.689
98.972	27.696	1343.259	1103.156
99.987	27.669	1342.027	1101.885
101.001	27.670	1341.421	1101.300
102.016	27.561	1340.494	1099.782
103.030	27.639	1339.784	1099.569
104.045	27.613	1338.786	1098.498
105.060	27.682	1337.835	1098.036
106.074	27.632	1336.755	1096.755
107.089	27.522	1336.075	1095.436
108.103	27.697	1334.609	1095.185
109.118	27.691	1333.210	1093.905
110.133	27.693	1332.251	1093.036
111.147	27.699	1330.730	1091.726
112.162	27.730	1330.201	1091.382
113.176	27.599	1329.495	1089.921
114.191	27.684	1327.970	1089.081
115.206	27.744	1327.155	1088.679
116.220	27.680	1326.313	1087.508
117.235	27.737	1325.344	1086.956
118.249	27.599	1324.586	1085.414
119.264	27.714	1323.531	1085.143
120.279	27.679	1322.732	1084.180
121.293	27.711	1322.065	1083.731
122.308	27.700	1321.340	1082.976
123.322	27.689	1320.367	1082.012
124.337	27.762	1319.605	1081.729
125.352	27.784	1318.634	1080.969
126.366	27.700	1317.951	1079.813
127.381	27.661	1317.098	1078.786
128.395	27.794	1316.028	1078.605
129.410	27.798	1315.315	1077.947
130.424	27.722	1314.889	1077.055
131.439	27.736	1313.673	1076.042
132.454	27.700	1312.984	1075.175
133.468	27.818	1312.092	1075.044
134.483	27.797	1311.523	1074.354
135.497	27.793	1310.999	1073.809
136.512	27.768	1309.614	1072.431
137.527	27.797	1308.629	1071.703
138.541	27.786	1307.590	1070.695
139.556	27.793	1306.329	1069.608
140.570	27.694	1305.286	1068.076
141.585	27.836	1303.927	1067.701
142.600	27.815	1303.133	1066.832
143.614	27.776	1302.649	1066.117
144.629	27.756	1301.458	1064.929
145.643	27.623	1300.467	1063.247
146.658	27.739	1299.210	1062.800
147.673	27.754	1298.215	1061.981
148.687	27.625	1297.564	1060.608
149.702	27.629	1296.341	1059.536
150.716	27.766	1294.777	1058.956
151.731	27.649	1294.216	1057.724
152.746	27.682	1293.441	1057.192
153.760	27.715	1292.459	1056.485
154.775	27.762	1291.132	1055.582
155.789	27.730	1290.106	1054.463
156.804	27.795	1289.086	1053.909
157.819	27.742	1288.141	1052.736
158.833	27.657	1287.897	1051.954
159.848	27.783	1286.861	1051.743
160.862	27.752	1286.339	1051.043
161.877	27.781	1285.334	1050.299
162.892	27.847	1284.645	1050.022
163.906	27.813	1284.438	1049.566
164.921	27.775	1283.098	1048.160
165.935	27.980	1282.057	1048.390
166.950	27.846	1281.679	1047.218
167.964	27.807	1281.397	1046.671
168.979	27.762	1281.019	1046.012
169.994	27.806	1280.318	1045.601
171.008	27.871	1279.491	1045.204
172.023	27.881	1278.510	1044.369
173.037	27.841	1277.818	1043.480
174.052	27.893	1277.197	1043.181
175.067	27.900	1276.179	1042.296
176.081	27.754	1275.649	1040.941
177.096	27.825	1274.810	1040.565
178.110	27.796	1273.977	1039.629
179.125	27.933	1272.448	1039.070
180.140	27.978	1271.522	1038.478
181.154	27.875	1270.406	1036.891
182.169	27.896	1269.294	1036.008
183.183	27.898	1268.205	1035.038
184.198	27.846	1267.291	1033.910
185.213	27.856	1266.688	1033.381
186.227	27.915	1265.669	1032.792
187.242	27.970	1263.990	1031.640
188.256	27.982	1263.599	1031.298
189.271	27.898	1262.907	1030.167
190.286	27.933	1262.443	1029.895
191.300	27.992	1262.003	1029.780
192.315	27.974	1261.424	1029.112
193.329	27.989	1260.904	1028.679
194.344	28.017	1260.588	1028.492
195.359	28.119	1259.605	1028.172
196.373	27.866	1259.541	1026.605
197.388	27.953	1259.244	1026.762
198.402	27.890	1259.194	1026.276
199.417	27.901	1258.724	1025.864
200.432	28.087	1257.226	1025.597
201.446	27.994	1256.868	1024.690
202.461	27.976	1256.785	1024.429
203.475	27.936	1255.455	1023.031
204.490	27.903	1254.287	1021.809
205.504	27.885	1253.624	1021.072
206.519	27.969	1252.674	1020.681
207.534	27.986	1251.562	1019.781
208.548	28.022	1250.860	1019.315
209.563	27.997	1249.878	1018.287
210.577	28.050	1248.929	1017.717
211.592	27.892	1248.623	1016.501
212.607	28.038	1247.417	1016.241
213.621	28.022	1246.544	1015.351
214.636	28.063	1246.267	1015.260
215.650	28.092	1244.849	1014.176
216.665	28.033	1244.116	1013.165
217.680	28.065	1243.350	1012.628
218.694	28.190	1242.237	1012.323
219.709	28.151	1241.435	1011.362
220.723	28.051	1240.913	1010.298
221.738	27.949	1240.860	1009.600
222.753	28.117	1239.382	1009.239
223.767	28.021	1239.317	1008.564
224.782	28.110	1238.757	1008.508
225.796	28.135	1238.221	1008.125
226.811	28.266	1237.283	1007.989
227.826	28.152	1236.781	1006.865
228.840	28.124	1236.385	1006.299
229.855	28.268	1235.373	1006.179
230.869	28.093	1235.197	1004.985
231.884	28.104	1234.154	1004.107
232.899	28.104	1233.394	1003.401
233.913	28.259	1232.363	1003.324
234.928	28.244	1232.314	1003.109
235.942	28.328	1231.289	1002.651
236.957	28.225	1230.754	1001.558
237.972	28.268	1230.150	1001.218
238.986	28.268	1229.480	1000.579
240.001	28.331	1228.931	1000.388
241.015	28.370	1227.828	999.618
242.030	28.363	1227.108	998.906
243.045	28.200	1226.908	997.762
244.059	28.434	1225.655	997.933
245.074	28.348	1224.988	996.833
246.088	28.409	1224.121	996.373
247.103	28.350	1223.337	995.325
248.117	28.320	1222.582	994.460
249.132	28.310	1222.192	993.996
250.147	28.426	1221.356	993.861
251.161	28.449	1220.704	993.366
252.176	28.494	1219.639	992.656
253.190	28.486	1218.749	991.799
254.205	28.353	1218.925	991.134
255.220	28.352	1218.494	990.694
256.234	28.362	1217.945	990.211
257.249	28.393	1217.078	989.586
258.263	28.406	1216.098	988.772
259.278	28.466	1215.643	988.636
260.293	28.514	1215.074	988.349
261.307	28.520	1214.707	987.990
262.322	28.444	1214.108	987.008
263.336	28.458	1212.968	986.071
264.351	28.495	1212.302	985.640
265.366	28.456	1211.984	985.082
266.380	28.367	1211.252	983.925
267.395	28.418	1210.778	983.726
268.409	28.430	1210.262	983.284
269.424	28.440	1209.799	982.873
270.439	28.488	1209.360	982.687
271.453	28.449	1208.264	981.502
272.468	28.451	1207.422	980.740
273.482	28.505	1206.684	980.346
274.497	28.460	1206.470	979.846
275.512	28.491	1205.937	979.490
276.526	28.552	1205.285	979.200
277.541	28.558	1204.341	978.376
278.555	28.635	1203.608	978.109
279.570	28.632	1202.431	977.049
280.585	28.678	1201.728	976.635
281.599	28.638	1201.055	975.791
282.614	28.518	1200.570	974.670
283.628	28.660	1199.176	974.203
284.643	28.628	1198.651	973.524
285.657	28.561	1197.756	972.358
286.672	28.681	1197.132	972.396
287.687	28.731	1195.635	971.362
288.701	28.767	1195.424	971.293
289.716	28.739	1194.530	970.335
290.730	28.677	1193.928	969.432
291.745	28.775	1193.527	969.538
292.760	28.531	1193.645	968.261
293.774	28.610	1192.972	968.043
294.789	28.717	1191.885	967.640
295.803	28.770	1191.085	967.186
296.818	28.767	1190.437	966.554
297.833	28.806	1189.676	966.058
298.847	28.786	1189.268	965.538
299.862	28.772	1188.647	964.875
300.876	28.787	1187.734	964.125
301.891	28.851	1187.217	963.954
302.906	28.828	1186.500	963.170
303.920	28.845	1185.903	962.685
304.935	28.910	1185.307	962.460
305.949	28.812	1184.819	961.465
306.964	28.877	1183.776	960.872
307.979	28.924	1183.062	960.455
308.993	29.002	1182.669	960.455
310.008	28.928	1181.913	959.373
311.022	28.970	1181.166	958.897
312.037	28.947	1180.516	958.169
313.052	28.931	1179.428	957.115
314.066	28.912	1178.571	956.235
315.081	28.922	1177.916	955.676
316.095	28.885	1177.181	954.797
317.110	28.952	1176.724	954.693
318.125	28.878	1176.489	954.032
319.139	29.001	1175.374	953.682
320.154	28.908	1174.972	952.788
321.168	29.043	1174.520	953.040
322.183	29.104	1173.995	952.843
323.197	28.897	1173.343	951.157
324.212	28.877	1172.805	950.535
325.227	29.003	1172.239	950.643
326.241	29.021	1171.149	949.770
327.256	29.139	1170.719	949.943
328.270	29.046	1170.092	948.872
329.285	28.990	1169.056	947.662
330.300	29.110	1168.120	947.434
331.314	29.087	1167.374	946.626
332.329	29.063	1166.668	945.848
333.343	29.186	1165.796	945.688
334.358	29.254	1165.045	945.346
335.373	29.150	1164.698	944.448
336.387	29.326	1163.660	944.423
337.402	29.248	1163.218	943.582
338.416	29.284	1162.364	942.987
339.431	29.241	1161.810	942.238
340.446	29.207	1161.538	941.759
341.460	29.260	1160.420	941.038
342.475	29.297	1159.900	940.722
343.489	29.288	1158.963	939.836
344.504	29.308	1158.112	939.161
345.519	29.331	1157.063	938.345
346.533	29.282	1156.754	937.763
347.548	29.337	1155.541	936.977
348.562	29.251	1154.868	935.910
349.577	29.279	1154.484	935.658
350.592	29.307	1153.255	934.721
351.606	29.246	1153.084	934.192
352.621	29.360	1152.406	934.137
353.635	29.382	1152.028	933.861
354.650	29.364	1150.842	932.724
355.665	29.439	1150.433	932.688
356.679	29.501	1149.785	932.395
357.694	29.463	1149.296	931.722
358.708	29.415	1148.538	930.783
359.723	29.328	1148.247	930.029
360.738	29.311	1147.224	929.031
361.752	29.395	1146.592	928.860
362.767	29.370	1146.717	928.752
363.781	29.431	1145.808	928.242
364.796	29.567	1145.016	928.199
365.810	29.513	1144.251	927.230
366.825	29.494	1143.771	926.660
367.840	29.582	1143.327	926.663
368.854	29.643	1142.536	926.244
369.869	29.612	1141.915	925.505
370.883	29.619	1141.377	925.021
371.898	29.610	1140.793	924.418
372.913	29.563	1139.996	923.456
373.927	29.623	1139.506	923.277
374.942	29.730	1139.142	923.435
375.956	29.615	1138.517	922.274
376.971	29.675	1137.735	921.860
377.986	29.739	1136.935	921.445
379.000	29.818	1136.668	921.543
380.015	29.703	1136.494	920.748
381.029	29.740	1135.794	920.286
382.044	29.675	1135.010	919.246
383.059	29.729	1134.576	919.082
384.073	29.780	1133.790	918.616
385.088	29.865	1132.253	917.708
386.102	29.775	1131.886	916.886
387.117	29.728	1130.747	915.651
388.132	29.691	1130.070	914.835
389.146	29.760	1129.432	914.580
390.161	29.807	1128.704	914.141
391.175	29.896	1128.415	914.269
392.190	29.834	1127.419	913.074
393.205	29.785	1126.881	912.317
394.219	29.841	1126.098	911.875
395.234	29.957	1125.096	911.555
396.248	29.926	1124.334	910.704
397.263	29.979	1123.459	910.175
398.278	30.059	1122.934	910.065
399.292	29.922	1122.461	908.925
400.307	30.137	1121.981	909.511
401.321	29.917	1121.656	908.088
402.336	29.825	1121.170	907.165
403.350	29.903	1120.136	906.629
404.365	29.860	1119.758	906.032
405.380	29.944	1119.083	905.818
406.394	29.908	1117.999	904.683
407.409	30.048	1117.298	904.718
408.423	30.119	1116.251	904.139
409.438	30.087	1115.789	903.526
410.453	30.154	1115.455	903.502
411.467	30.039	1114.369	901.984
412.482	30.169	1113.614	901.925
413.496	30.182	1113.227	901.597
414.511	30.120	1112.495	900.621
415.526	30.245	1112.086	900.817
416.540	30.060	1111.911	899.700
417.555	30.160	1111.680	899.916
418.569	30.112	1110.955	899.021
419.584	30.198	1110.327	898.849
420.599	30.238	1109.962	898.665
421.613	90.035	1303.332	1381.213
422.628	84.481	1331.518	1381.332
