DTS Sentinel unit serial number:	SN413079Multiplexer serial number:	ORYXHardware model number:	OX4-SRSoftware version number:	ORYX F/W v4.00 Oryx Data Collector v3.7.2.0data status	okinstallation	princeton_trtdifferential loss correction	single-endedforward channel	channel 2reverse channel	N/Adate	2019/09/18time	00:47:35forward acquisition time	60.00reverse acquisition time	0.00gamma	496.2192k internal	0.2349k external	0.2349temperature offset calibration	0.9991default loss term (dB/km)	0.3790temperature slope calibration	1.0000multiplexer offset coefficient	1.0000multiplexer slope coefficient	1.0000fibre end	0.00T internal ref (°C)	23.37T ext. ref 1 (°C)	0.17T ext. ref 2 (°C)	17.02length (m)	temperature (°C)	Stokes	anti-Stokes-747.200	-81.060	-0.332	0.110
-746.185	179.946	0.083	-0.122
-745.171	303.546	-0.214	0.397
-744.156	-124.447	-0.339	0.053
-743.142	-200.000	0.053	0.353
-742.127	-200.000	0.010	0.270
-741.112	206.675	0.116	0.181
-740.098	-79.047	-0.217	0.074
-739.083	11.285	-0.133	-0.101
-738.069	34.733	-0.207	0.181
-737.054	800.000	-0.142	-0.416
-736.039	-127.337	-0.376	0.055
-735.025	24.823	0.335	0.277
-734.010	-32.786	-0.115	0.064
-732.996	-49.999	0.203	0.096
-731.981	211.425	-0.053	0.084
-730.966	-39.164	-0.376	-0.197
-729.952	800.000	0.059	-0.240
-728.937	-200.000	0.040	-0.210
-727.923	-97.155	-0.253	0.066
-726.908	-64.650	0.187	0.076
-725.894	508.201	-0.103	0.239
-724.879	82.247	-0.190	-0.206
-723.864	-183.550	-0.225	-0.004
-722.850	546.238	-0.141	-0.336
-721.835	-57.183	0.042	-0.019
-720.821	800.000	0.048	0.181
-719.806	800.000	-0.061	0.189
-718.791	-86.924	-0.114	-0.035
-717.777	-200.000	0.072	-0.329
-716.762	-104.563	-0.316	0.073
-715.748	-200.000	-0.028	-0.237
-714.733	800.000	0.093	-0.369
-713.718	-17.312	-0.130	0.082
-712.704	-48.460	0.335	-0.161
-711.689	134.218	0.054	0.070
-710.675	451.965	-0.188	-0.415
-709.660	223.559	-0.068	-0.110
-708.645	-104.932	0.258	-0.059
-707.631	-23.244	0.068	0.041
-706.616	-111.188	0.297	-0.061
-705.602	-112.272	-0.178	0.036
-704.587	-200.000	0.021	0.254
-703.572	414.052	-0.120	-0.254
-702.558	-46.440	0.097	-0.048
-701.543	-92.725	0.420	-0.117
-700.529	-30.583	-0.103	-0.058
-699.514	-17.854	0.281	-0.176
-698.499	-115.990	-0.234	-0.043
-697.485	14.690	-0.071	0.056
-696.470	800.000	-0.059	-0.166
-695.456	-200.000	-0.027	0.140
-694.441	354.556	0.147	0.290
-693.426	-122.569	-0.461	0.075
-692.412	800.000	-0.044	0.134
-691.397	21.927	-0.245	0.199
-690.383	800.000	-0.154	-0.451
-689.368	2.189	0.081	0.058
-688.354	99.642	-0.089	-0.103
-687.339	-200.000	0.017	-0.119
-686.324	-128.374	-0.064	-0.009
-685.310	310.672	-0.151	0.282
-684.295	-56.379	-0.136	0.060
-683.281	260.104	-0.163	0.281
-682.266	-117.966	0.215	-0.038
-681.251	800.000	-0.092	0.386
-680.237	-9.377	-0.049	0.033
-679.222	-114.330	0.049	-0.009
-678.208	296.945	-0.156	0.284
-677.193	-7.801	0.150	-0.101
-676.178	-200.000	-0.042	-0.291
-675.164	-60.862	-0.237	0.100
-674.149	710.727	0.093	-0.246
-673.135	-200.000	-0.002	-0.118
-672.120	-91.587	-0.346	0.098
-671.105	-40.793	-0.194	-0.100
-670.091	-17.121	-0.123	-0.078
-669.076	60.149	0.101	-0.099
-668.062	15.088	0.230	-0.180
-667.047	-91.196	-0.271	-0.077
-666.032	-200.000	-0.001	-0.036
-665.018	7.815	-0.256	-0.191
-664.003	-200.000	0.017	0.237
-662.989	776.095	-0.135	0.367
-661.974	-134.464	0.119	0.015
-660.959	-134.542	0.093	0.011
-659.945	-141.154	-0.233	-0.024
-658.930	23.239	0.161	0.132
-657.916	-200.000	-0.009	-0.125
-656.901	-67.313	-0.077	-0.030
-655.886	-122.503	-0.184	-0.030
-654.872	73.778	0.325	0.339
-653.857	-29.625	0.194	-0.110
-652.843	493.508	0.063	-0.145
-651.828	91.791	-0.078	-0.087
-650.814	-85.398	-0.230	0.071
-649.799	-197.257	0.256	-0.002
-648.784	-120.987	-0.257	-0.043
-647.770	-88.383	0.026	-0.008
-646.755	172.929	0.147	0.211
-645.741	800.000	-0.089	-0.275
-644.726	-200.000	0.034	-0.216
-643.711	43.594	-0.202	-0.183
-642.697	-85.714	-0.158	0.049
-641.682	-88.952	0.123	0.036
-640.668	180.970	0.091	-0.134
-639.653	540.420	-0.102	-0.243
-638.638	658.731	-0.095	-0.242
-637.624	-200.000	-0.001	-0.132
-636.609	100.440	-0.136	-0.157
-635.595	-177.596	0.036	-0.001
-634.580	-30.239	-0.405	-0.229
-633.565	26.685	-0.180	-0.150
-632.551	-41.662	-0.123	-0.063
-631.536	-53.763	0.019	-0.009
-630.522	336.167	-0.031	-0.059
-629.507	-91.078	-0.196	0.056
-628.492	-130.613	-0.136	-0.018
-627.478	-175.188	-0.125	0.003
-626.463	-32.131	0.470	-0.261
-625.449	63.066	0.022	-0.022
-624.434	-169.064	-0.369	-0.014
-623.419	-200.000	0.011	-0.154
-622.405	-69.672	0.336	-0.128
-621.390	-200.000	-0.032	0.142
-620.376	65.016	-0.226	-0.227
-619.361	-200.000	0.040	-0.176
-618.346	-29.956	0.093	-0.053
-617.332	627.939	0.015	-0.037
-616.317	15.885	-0.166	0.130
-615.303	206.827	-0.106	0.164
-614.288	-7.234	0.089	0.060
-613.273	-129.655	-0.159	-0.022
-612.259	-200.000	-0.000	-0.222
-611.244	-200.000	0.028	0.252
-610.230	23.782	0.101	-0.083
-609.215	322.981	0.187	-0.353
-608.201	-5.671	-0.060	0.041
-607.186	800.000	0.016	0.062
-606.171	-49.186	0.134	0.064
-605.157	-182.778	0.123	-0.002
-604.142	179.170	0.053	-0.077
-603.128	4.106	-0.224	-0.163
-602.113	-78.287	-0.251	0.085
-601.098	-45.415	0.270	-0.133
-600.084	36.637	-0.094	0.083
-599.069	-200.000	0.002	-0.019
-598.055	-20.442	-0.151	0.092
-597.040	-200.000	-0.037	-0.163
-596.025	199.433	0.066	0.101
-595.011	40.945	-0.124	-0.111
-593.996	-78.657	0.300	-0.102
-592.982	8.698	-0.189	0.141
-591.967	471.430	0.167	0.374
-590.952	607.840	-0.105	-0.259
-589.938	138.941	0.212	-0.276
-588.923	41.725	0.233	-0.209
-587.909	-57.931	0.194	-0.084
-586.894	-144.989	-0.218	0.020
-585.879	8.616	-0.371	0.277
-584.865	144.236	0.229	0.303
-583.850	-60.104	0.161	0.068
-582.836	-98.258	-0.331	-0.084
-581.821	800.000	-0.076	-0.223
-580.806	-200.000	0.011	-0.233
-579.792	254.286	-0.231	-0.391
-578.777	-135.383	0.203	0.024
-577.763	-78.705	-0.318	-0.108
-576.748	693.848	-0.145	0.377
-575.733	10.668	-0.265	0.200
-574.719	-200.000	0.012	0.250
-573.704	-105.987	0.182	0.041
-572.690	-200.000	-0.238	0.000
-571.675	-200.000	-0.019	-0.090
-570.661	75.412	0.055	-0.058
-569.646	-113.684	0.127	0.025
-568.631	-69.445	-0.213	-0.081
-567.617	800.000	0.097	-0.332
-566.602	-46.489	0.060	-0.029
-565.588	-110.779	-0.282	-0.058
-564.573	-26.944	-0.172	0.099
-563.558	-200.000	-0.024	0.134
-562.544	118.019	-0.123	-0.151
-561.529	-200.000	0.063	-0.310
-560.515	-7.491	-0.170	-0.114
-559.500	-200.000	-0.048	-0.276
-558.485	136.843	0.056	-0.073
-557.471	-26.394	-0.087	-0.051
-556.456	205.024	-0.100	0.153
-555.442	197.025	0.063	0.095
-554.427	-200.000	-0.001	-0.019
-553.412	-137.195	0.221	0.025
-552.398	-157.549	-0.205	0.012
-551.383	-128.333	0.175	-0.025
-550.369	-200.000	-0.051	0.302
-549.354	217.702	-0.230	0.363
-548.339	-71.563	0.063	-0.023
-547.325	178.708	0.099	-0.144
-546.310	-47.480	-0.331	0.160
-545.296	1.978	-0.405	-0.290
-544.281	178.740	0.322	0.466
-543.266	800.000	-0.023	-0.072
-542.252	88.528	-0.126	0.139
-541.237	-123.144	-0.186	-0.030
-540.223	-200.000	-0.002	-0.146
-539.208	-56.985	-0.053	-0.023
-538.193	-90.425	-0.177	0.051
-537.179	-88.865	0.039	-0.012
-536.164	-90.180	-0.156	-0.045
-535.150	-85.390	-0.097	-0.030
-534.135	-56.565	0.147	0.065
-533.121	-200.000	0.018	-0.139
-532.106	-83.727	-0.162	-0.051
-531.091	800.000	-0.075	-0.259
-530.077	-101.211	-0.225	0.054
-529.062	-29.108	-0.089	0.051
-528.048	-80.482	-0.192	0.063
-527.033	-15.966	0.140	0.088
-526.018	36.445	0.173	-0.151
-525.004	261.172	0.068	0.116
-523.989	-22.527	0.141	0.084
-522.975	437.223	0.084	0.180
-521.960	387.384	-0.051	-0.105
-520.945	14.156	0.105	0.081
-519.931	800.000	0.121	0.341
-518.916	-48.413	0.101	-0.048
-517.902	217.069	0.074	0.116
-516.887	96.854	0.147	0.167
-515.872	-109.684	0.231	0.048
-514.858	-172.305	0.211	0.007
-513.843	-200.000	0.007	-0.191
-512.829	800.000	-0.037	-0.105
-511.814	-143.227	-0.568	0.054
-510.799	89.823	-0.079	-0.087
-509.785	-91.047	0.139	-0.039
-508.770	-200.000	-0.047	0.310
-507.756	-200.000	0.017	0.143
-506.741	800.000	-0.070	-0.207
-505.726	-200.000	-0.048	0.346
-504.712	-74.400	0.095	-0.034
-503.697	103.277	-0.157	-0.182
-502.683	51.820	0.204	0.192
-501.668	-26.592	-0.104	0.060
-500.653	153.181	-0.066	0.089
-499.639	-30.242	0.063	-0.035
-498.624	153.327	-0.348	0.472
-497.610	-200.000	0.014	-0.154
-496.595	-38.736	-0.200	-0.105
-495.581	-94.758	-0.145	0.039
-494.566	-137.119	-0.181	-0.020
-493.551	-178.369	-0.219	0.005
-492.537	-158.392	0.272	-0.016
-491.522	100.514	-0.228	-0.262
-490.508	-70.974	0.162	-0.060
-489.493	800.000	-0.019	0.055
-488.478	-11.003	0.372	0.243
-487.464	800.000	-0.093	0.382
-486.449	35.792	-0.043	-0.038
-485.435	800.000	0.103	-0.365
-484.420	448.184	-0.081	0.176
-483.405	13.687	0.095	0.073
-482.391	-95.924	-0.199	-0.053
-481.376	69.499	-0.165	0.168
-480.362	-86.219	-0.220	-0.067
-479.347	-59.472	0.275	0.117
-478.332	87.329	-0.054	-0.059
-477.318	-61.114	0.191	0.080
-476.303	-113.217	-0.044	-0.008
-475.289	273.477	0.058	0.101
-474.274	179.925	0.151	-0.219
-473.259	-200.000	0.042	0.206
-472.245	-29.255	0.291	0.165
-471.230	-200.000	-0.010	-0.102
-470.216	800.000	-0.140	-0.406
-469.201	169.575	-0.134	0.190
-468.186	-65.909	0.070	-0.027
-467.172	-63.658	0.163	-0.066
-466.157	-16.805	-0.238	-0.149
-465.143	-24.849	0.063	-0.037
-464.128	-96.875	0.287	-0.074
-463.113	-85.537	-0.279	-0.086
-462.099	800.000	0.074	0.269
-461.084	-200.000	0.030	0.153
-460.070	-156.485	0.419	0.026
-459.055	-57.285	0.343	0.149
-458.040	67.795	0.195	-0.197
-457.026	-46.910	0.255	-0.123
-456.011	77.080	0.064	0.067
-454.997	115.480	0.220	-0.265
-453.982	44.577	0.057	-0.052
-452.968	-200.000	0.055	0.249
-451.953	-36.505	0.076	0.040
-450.938	-31.415	-0.163	-0.090
-449.924	293.330	-0.078	-0.141
-448.909	54.134	0.346	-0.329
-447.895	-170.205	-0.102	0.004
-446.880	94.429	0.135	0.152
-445.865	267.524	0.086	-0.148
-444.851	-164.568	-0.047	0.002
-443.836	-73.318	0.106	-0.038
-442.822	-49.777	0.175	0.082
-441.807	-35.888	-0.300	-0.160
-440.792	-59.153	-0.177	0.075
-439.778	533.173	-0.024	0.056
-438.763	7.241	0.327	0.241
-437.749	800.000	0.127	-0.372
-436.734	7.035	0.193	-0.142
-435.719	397.077	-0.150	0.309
-434.705	22.074	0.186	-0.150
-433.690	-158.862	0.229	0.013
-432.676	73.589	-0.204	0.211
-431.661	-72.284	-0.135	0.049
-430.646	-90.582	0.147	-0.042
-429.632	14.448	0.171	0.131
-428.617	536.327	-0.111	-0.260
-427.603	-31.295	0.255	0.142
-426.588	163.689	-0.122	0.169
-425.573	-63.923	0.403	0.163
-424.559	-137.796	-0.017	-0.002
-423.544	-200.000	0.015	0.279
-422.530	71.835	-0.385	0.394
-421.515	-200.000	-0.040	0.215
-420.500	28.877	-0.088	-0.074
-419.486	-200.000	-0.009	-0.048
-418.471	1.764	-0.148	0.105
-417.457	58.912	-0.137	0.133
-416.442	800.000	0.039	-0.135
-415.428	-126.840	0.058	0.008
-414.413	-78.126	-0.206	-0.070
-413.398	-200.000	0.022	-0.282
-412.384	-200.000	-0.006	0.310
-411.369	-200.000	0.160	0.000
-410.355	-107.644	-0.185	0.040
-409.340	-34.805	-0.071	0.038
-408.325	-200.000	-0.016	0.244
-407.311	-107.569	-0.347	0.075
-406.296	43.154	0.111	0.100
-405.282	-58.439	0.431	0.185
-404.267	235.489	0.200	0.326
-403.252	61.417	-0.280	0.275
-402.238	-87.139	0.131	-0.039
-401.223	-72.200	-0.196	-0.072
-400.209	-45.434	-0.161	0.079
-399.194	-200.000	0.009	0.132
-398.179	-21.282	-0.222	-0.133
-397.165	117.920	-0.061	0.074
-396.150	-63.618	0.285	-0.115
-395.136	800.000	0.077	0.241
-394.121	-58.996	-0.022	-0.009
-393.106	-200.000	-0.076	0.360
-392.092	-33.957	-0.045	-0.024
-391.077	-22.268	-0.138	-0.082
-390.063	-2.526	-0.450	0.310
-389.048	131.953	-0.098	-0.124
-388.033	368.940	0.137	-0.273
-387.019	-49.921	-0.443	0.207
-386.004	-92.023	-0.202	-0.056
-384.990	-77.376	-0.237	-0.081
-383.975	718.553	0.132	0.345
-382.960	98.741	0.189	-0.215
-381.946	-200.000	-0.010	0.405
-380.931	-200.000	-0.052	-0.236
-379.917	-119.698	0.570	-0.097
-378.902	22.836	-0.093	-0.075
-377.888	-25.538	0.028	-0.016
-376.873	62.089	-0.309	0.303
-375.858	8.048	0.207	0.153
-374.844	132.893	0.118	0.150
-373.829	-171.854	0.165	-0.005
-372.815	800.000	-0.130	-0.381
-371.800	-200.000	0.015	-0.070
-370.785	-109.019	-0.256	-0.054
-369.771	-64.968	-0.169	-0.067
-368.756	-54.704	0.277	0.123
-367.742	-77.463	0.376	0.128
-366.727	-102.526	0.182	-0.043
-365.712	-200.000	-0.036	0.207
-364.698	32.968	-0.218	0.186
-363.683	-148.450	-0.421	-0.034
-362.669	-25.140	0.153	0.089
-361.654	424.672	0.057	0.121
-360.639	-200.000	0.022	-0.295
-359.625	473.882	0.094	-0.208
-358.610	800.000	0.025	-0.085
-357.596	236.375	-0.242	-0.395
-356.581	51.683	0.071	0.066
-355.566	-33.140	0.164	0.089
-354.552	349.597	-0.125	0.244
-353.537	-18.355	0.346	0.213
-352.523	27.841	-0.207	-0.172
-351.508	-200.000	0.046	-0.208
-350.493	-94.559	0.392	0.105
-349.479	-76.175	-0.190	-0.066
-348.464	80.130	0.176	-0.187
-347.450	-63.731	0.169	0.068
-346.435	-86.631	0.141	0.043
-345.420	-13.707	-0.217	0.138
-344.406	3.162	0.568	-0.406
-343.391	226.876	0.142	-0.227
-342.377	800.000	-0.104	-0.291
-341.362	-200.000	-0.019	-0.347
-340.348	218.049	-0.247	0.387
-339.333	281.411	0.032	0.057
-338.318	-109.241	0.252	0.053
-337.304	172.025	-0.136	0.192
-336.289	800.000	-0.091	0.374
-335.275	289.943	0.102	-0.181
-334.260	57.717	0.303	-0.291
-333.245	-36.603	-0.382	-0.202
-332.231	-19.651	0.107	0.065
-331.216	-200.000	-0.026	0.135
-330.202	-78.814	-0.411	-0.138
-329.187	-200.000	0.006	0.101
-328.172	252.624	-0.146	0.245
-327.158	-32.909	0.354	0.193
-326.143	-119.064	0.159	-0.027
-325.129	-200.000	0.053	0.283
-324.114	-200.000	-0.013	0.363
-323.099	133.318	0.121	-0.153
-322.085	-63.926	0.164	-0.066
-321.070	-114.414	0.117	0.022
-320.056	195.326	0.111	-0.166
-319.041	-169.903	-0.514	-0.018
-318.026	-200.000	-0.010	-0.072
-317.012	44.565	-0.281	-0.253
-315.997	-200.000	-0.004	-0.290
-314.983	-200.000	0.008	0.075
-313.968	362.349	-0.194	-0.383
-312.953	-200.000	-0.033	0.474
-311.939	194.373	0.242	-0.360
-310.924	296.887	-0.140	-0.252
-309.910	-200.000	0.012	-0.421
-308.895	-62.570	0.134	-0.055
-307.880	164.951	0.036	-0.050
-306.866	265.851	0.059	0.102
-305.851	-164.889	0.037	-0.002
-304.837	57.329	0.016	0.015
-303.822	-109.513	0.157	-0.033
-302.807	800.000	0.082	-0.342
-301.793	-200.000	0.022	-0.126
-300.778	-200.000	-0.026	-0.218
-299.764	423.449	-0.223	0.471
-298.749	81.583	0.117	-0.124
-297.735	-63.062	-0.096	-0.039
-296.720	10.653	-0.040	-0.030
-295.705	-200.000	-0.015	0.239
-294.691	-41.651	-0.244	-0.123
-293.676	632.288	0.142	0.352
-292.662	-78.036	0.248	-0.084
-291.647	131.280	-0.228	0.288
-290.632	125.945	0.163	-0.202
-289.618	-200.000	-0.019	0.291
-288.603	321.404	-0.137	-0.255
-287.589	39.921	0.327	0.288
-286.574	258.906	0.119	-0.201
-285.559	-140.386	-0.236	0.024
-284.545	-200.000	-0.016	-0.239
-283.530	-106.857	0.071	-0.015
-282.516	257.020	0.071	-0.120
-281.501	-179.264	-0.062	-0.001
-280.486	-90.972	-0.089	-0.025
-279.472	71.075	0.266	-0.271
-278.457	-106.804	-0.262	-0.057
-277.443	-153.840	0.186	0.012
-276.428	-137.246	-0.069	0.008
-275.413	-84.841	0.130	-0.040
-274.399	-65.278	0.449	-0.177
-273.384	-31.287	0.226	-0.125
-272.370	79.860	0.035	0.037
-271.355	52.387	-0.242	-0.226
-270.340	286.377	0.130	-0.230
-269.326	-43.738	0.114	-0.057
-268.311	-200.000	-0.015	0.119
-267.297	364.098	0.162	0.319
-266.282	174.450	0.153	-0.217
-265.267	-4.682	0.187	0.126
-264.253	-200.000	-0.038	-0.216
-263.238	106.232	0.039	0.045
-262.224	-2.089	0.280	0.192
-261.209	76.999	0.173	-0.180
-260.195	-121.091	-0.099	0.016
-259.180	-33.732	0.468	-0.253
-258.165	-200.000	0.026	-0.136
-257.151	28.097	-0.179	0.148
-256.136	-109.624	0.251	-0.052
-255.122	-200.000	-0.007	-0.130
-254.107	-56.673	-0.073	-0.032
-253.092	64.249	-0.217	-0.214
-252.078	-200.000	0.047	-0.283
-251.063	22.570	-0.231	0.185
-250.049	97.629	0.064	0.073
-249.034	285.522	-0.160	0.282
-248.019	26.159	0.187	-0.153
-247.005	107.989	0.128	-0.150
-245.990	-53.240	0.374	0.168
-244.976	391.518	0.108	0.220
-243.961	-200.000	0.017	-0.137
-242.946	78.734	0.023	0.024
-241.932	-138.525	-0.164	0.018
-240.917	-34.239	0.196	0.105
-239.903	49.964	0.071	0.065
-238.888	-64.715	-0.276	-0.109
-237.873	-200.000	0.045	-0.235
-236.859	760.400	-0.044	-0.117
-235.844	-149.097	0.264	-0.021
-234.830	-33.334	0.269	0.146
-233.815	-35.253	0.214	-0.114
-232.800	800.000	0.018	0.067
-231.786	-121.506	0.069	-0.011
-230.771	278.237	0.144	0.252
-229.757	-57.995	0.322	0.138
-228.742	205.606	0.049	0.075
-227.727	-17.643	0.287	0.177
-226.713	800.000	-0.027	-0.072
-225.698	318.523	-0.045	0.084
-224.684	229.706	-0.111	0.177
-223.669	233.224	0.030	0.049
-222.655	86.958	0.089	-0.096
-221.640	800.000	-0.018	0.073
-220.625	-49.858	-0.151	0.070
-219.611	-87.087	0.046	-0.014
-218.596	-10.444	-0.337	-0.219
-217.582	14.625	-0.068	-0.052
-216.567	-200.000	0.019	-0.127
-215.552	327.911	0.097	0.181
-214.538	-200.000	-0.008	0.101
-213.523	267.713	0.056	0.096
-212.509	-11.748	-0.074	0.047
-211.494	-95.533	-0.170	-0.045
-210.479	4.818	-0.018	-0.013
-209.465	-33.766	-0.204	0.110
-208.450	124.030	0.111	0.136
-207.436	121.433	-0.187	-0.227
-206.421	424.357	-0.025	0.052
-205.406	800.000	0.061	0.228
-204.392	9.816	0.196	-0.146
-203.377	-150.782	-0.050	0.004
-202.363	95.581	0.149	-0.166
-201.348	44.023	0.175	0.157
-200.333	524.119	-0.073	-0.167
-199.319	104.931	-0.201	-0.232
-198.304	748.015	-0.070	-0.184
-197.290	648.973	-0.085	-0.213
-196.275	-167.332	-0.158	0.006
-195.260	-172.947	0.112	-0.003
-194.246	800.000	0.109	0.298
-193.231	123.233	0.144	0.177
-192.217	579.192	-0.133	0.319
-191.202	-200.000	-0.025	-0.106
-190.187	124.412	-0.201	-0.247
-189.173	37.261	0.197	0.170
-188.158	-66.664	-0.367	0.142
-187.144	78.931	0.138	0.144
-186.129	2.906	0.348	-0.247
-185.114	800.000	-0.109	0.348
-184.100	-47.335	-0.406	-0.193
-183.085	800.000	-0.021	0.074
-182.071	-17.322	-0.309	-0.190
-181.056	17.423	0.152	0.118
-180.042	-133.466	-0.391	-0.048
-179.027	-126.890	-0.013	-0.002
-178.012	-45.065	-0.102	0.050
-176.998	-132.950	-0.303	-0.038
-175.983	-93.191	0.106	-0.029
-174.969	-64.053	-0.296	-0.118
-173.954	760.465	0.063	0.167
-172.939	-200.000	-0.074	0.369
-171.925	-200.000	0.029	0.274
-170.910	-68.176	-0.279	0.106
-169.896	800.000	0.124	0.421
-168.881	-200.000	-0.030	-0.195
-167.866	100.718	0.040	0.045
-166.852	800.000	0.037	0.141
-165.837	800.000	-0.044	0.119
-164.823	800.000	0.036	-0.150
-163.808	-200.000	0.016	-0.135
-162.793	50.787	-0.097	0.089
-161.779	269.098	0.114	0.196
-160.764	73.692	-0.225	-0.230
-159.750	-200.000	-0.036	0.239
-158.735	800.000	0.054	0.170
-157.720	-67.777	0.254	0.097
-156.706	107.392	-0.178	-0.206
-155.691	800.000	-0.030	0.105
-154.677	800.000	0.083	-0.265
-153.662	66.391	-0.250	0.248
-152.647	-2.526	0.307	0.209
-151.633	-200.000	0.037	-0.211
-150.618	323.724	-0.053	0.099
-149.604	800.000	-0.023	-0.083
-148.589	-141.578	-0.177	0.017
-147.574	5.603	0.268	0.193
-146.560	437.079	-0.136	0.290
-145.545	-87.186	-0.224	-0.066
-144.531	-33.598	0.175	0.094
-143.516	126.840	-0.183	0.226
-142.502	-200.000	0.014	0.130
-141.487	-27.672	0.143	0.081
-140.472	-106.901	0.087	0.019
-139.458	13.330	0.223	0.169
-138.443	-18.607	-0.422	0.257
-137.429	-200.000	0.041	-0.267
-136.414	189.892	0.044	-0.064
-135.399	800.000	-0.023	0.073
-134.385	79.449	-0.124	-0.130
-133.370	800.000	-0.019	0.063
-132.356	-200.000	-0.027	-0.324
-131.341	210.724	-0.152	-0.232
-130.326	-200.000	0.005	-0.306
-129.312	454.387	-0.068	-0.147
-128.297	-75.497	-0.167	0.058
-127.283	767.593	-0.118	0.314
-126.268	-23.934	0.148	0.086
-125.253	-200.000	-0.026	0.261
-124.239	161.541	0.131	0.178
-123.224	-22.560	-0.343	-0.202
-122.210	103.619	0.148	0.169
-121.195	800.000	0.032	0.130
-120.180	-146.887	0.161	0.014
-119.166	-200.000	0.067	0.404
-118.151	-92.676	0.117	-0.032
-117.137	32.426	0.204	0.172
-116.122	800.000	-0.036	0.102
-115.107	-53.150	-0.187	0.084
-114.093	800.000	-0.061	-0.210
-113.078	-12.432	0.111	-0.071
-112.064	432.996	0.189	0.399
-111.049	-47.964	-0.220	0.104
-110.034	-200.000	0.014	-0.311
-109.020	-200.000	-0.035	-0.335
-108.005	-200.000	0.054	0.409
-106.991	12.976	0.180	-0.135
-105.976	-77.496	0.144	-0.048
-104.962	-29.421	-0.115	-0.064
-103.947	-27.962	0.248	-0.140
-102.932	-200.000	-0.011	0.114
-101.918	-186.663	-0.196	0.003
-100.903	800.000	-0.077	0.227
-99.889	-177.272	-0.344	-0.008
-98.874	98.643	-0.129	0.144
-97.859	-1.359	0.073	0.050
-96.845	753.645	0.228	0.601
-95.830	9.050	0.142	0.104
-94.816	-29.454	0.168	0.093
-93.801	-59.225	-0.339	0.142
-92.786	-200.000	0.037	-0.228
-91.772	-200.000	-0.033	0.159
-90.757	14.536	0.136	0.104
-89.743	-67.833	-0.204	-0.078
-88.728	-200.000	-0.008	0.194
-87.713	33.049	0.289	0.244
-86.699	-70.624	-0.467	-0.172
-85.684	-60.144	-0.347	0.144
-84.670	-113.408	-0.210	0.040
-83.655	-200.000	-0.009	0.191
-82.640	-116.814	0.226	0.040
-81.626	242.651	0.095	-0.155
-80.611	-51.976	-0.112	0.051
-79.597	-72.912	-0.348	-0.124
-78.582	-106.967	-0.081	0.017
-77.567	167.540	0.062	-0.085
-76.553	-200.000	-0.004	0.160
-75.538	-160.746	-0.317	0.016
-74.524	50.721	0.180	0.165
-73.509	348.266	-0.283	0.543
-72.494	-200.000	0.033	0.388
-71.480	-31.409	-0.269	-0.147
-70.465	800.000	0.020	0.081
-69.451	371.695	0.104	-0.205
-68.436	-47.438	0.144	-0.068
-67.422	-68.330	-0.204	-0.077
-66.407	44.329	-0.039	-0.035
-65.392	-200.000	0.081	-0.453
-64.378	178.305	-0.140	0.199
-63.363	21.978	0.091	-0.073
-62.349	-200.000	0.080	0.413
-61.334	150.104	-1.025	-1.351
-60.319	227.635	0.578	0.914
-59.305	471.942	-0.564	-1.235
-58.290	482.945	0.666	1.472
-57.276	167.484	0.862	1.190
-56.261	-200.000	124.971	674.161
-55.246	440.709	1561.310	3318.199
-54.232	144.883	2720.922	3535.715
-53.217	91.790	2284.734	2497.926
-52.203	32.584	1896.828	1593.672
-51.188	26.333	1694.840	1376.476
-50.173	24.306	1655.910	1329.709
-49.159	46.310	1725.401	1554.156
-48.144	43.685	1736.809	1544.372
-47.130	25.965	1688.570	1368.377
-46.115	23.508	1672.810	1337.054
-45.100	23.245	1668.076	1331.243
-44.086	23.261	1665.727	1329.431
-43.071	23.293	1663.341	1327.718
-42.057	23.290	1660.431	1325.319
-41.042	23.310	1659.381	1324.575
-40.027	23.269	1657.307	1322.565
-39.013	23.160	1655.902	1320.571
-37.998	23.249	1654.118	1319.763
-36.984	23.307	1652.714	1319.022
-35.969	23.431	1650.805	1318.369
-34.954	23.456	1649.188	1317.212
-33.940	23.353	1648.055	1315.493
-32.925	23.343	1646.078	1313.782
-31.911	23.419	1644.236	1312.825
-30.896	23.332	1642.988	1311.131
-29.881	23.333	1641.600	1309.978
-28.867	23.278	1640.142	1308.362
-27.852	23.344	1638.436	1307.436
-26.838	23.415	1636.925	1306.703
-25.823	23.375	1635.623	1305.312
-24.809	23.435	1634.393	1304.721
-23.794	23.396	1633.324	1303.529
-22.779	23.430	1631.749	1302.468
-21.765	23.385	1629.752	1300.494
-20.750	23.383	1628.081	1299.092
-19.736	23.420	1626.897	1298.369
-18.721	23.451	1625.765	1297.638
-17.706	23.455	1624.127	1296.311
-16.692	23.455	1622.226	1294.742
-15.677	23.427	1621.128	1293.615
-14.663	23.447	1619.815	1292.655
-13.648	23.328	1618.941	1291.041
-12.633	23.357	1617.238	1289.842
-11.619	23.437	1615.899	1289.307
-10.604	23.385	1614.146	1287.476
-9.590	23.469	1613.160	1287.249
-8.575	23.398	1611.680	1285.504
-7.560	23.359	1610.993	1284.622
-6.546	23.348	1609.482	1283.289
-5.531	23.432	1608.230	1282.849
-4.517	23.493	1607.210	1282.419
-3.502	23.412	1606.129	1280.927
-2.487	23.485	1603.976	1279.684
-1.473	23.157	1591.443	1267.286
-0.458	20.079	1572.068	1229.993
0.556	15.159	1573.779	1199.187
1.571	12.914	1597.446	1200.789
2.586	12.702	1609.731	1208.355
3.600	11.677	1554.902	1159.830
4.615	6.439	1449.370	1046.300
5.629	1.280	1391.093	971.193
6.644	0.217	1384.653	959.834
7.659	0.155	1383.184	958.338
8.673	0.156	1382.106	957.511
9.688	0.133	1379.705	955.618
10.702	-0.022	1376.483	952.324
11.717	2.702	1379.749	971.777
12.731	9.495	1390.325	1022.397
13.746	15.225	1398.811	1065.062
14.761	16.835	1400.427	1076.429
15.775	16.321	1398.368	1071.495
16.790	15.261	1396.057	1062.907
17.804	14.644	1393.337	1056.838
18.819	14.174	1392.367	1053.033
19.834	14.008	1391.183	1050.998
20.848	13.758	1389.658	1048.171
21.863	13.511	1388.423	1045.589
22.877	13.286	1386.981	1042.993
23.892	13.323	1385.974	1042.374
24.907	13.198	1385.604	1041.218
25.921	13.376	1384.365	1041.312
26.936	13.427	1383.282	1040.729
27.950	13.407	1382.373	1039.825
28.965	13.389	1381.743	1039.148
29.980	13.515	1380.494	1038.904
30.994	13.388	1380.171	1037.777
32.009	13.468	1378.944	1037.260
33.023	13.553	1377.487	1036.607
34.038	13.518	1376.301	1035.402
35.053	13.555	1374.911	1034.493
36.067	13.437	1374.081	1033.044
37.082	13.479	1373.296	1032.622
38.096	13.462	1372.632	1031.926
39.111	13.493	1371.725	1031.349
40.126	13.413	1370.589	1029.906
41.140	13.212	1370.452	1028.458
42.155	13.277	1369.770	1028.264
43.169	13.285	1369.173	1027.774
44.184	13.346	1368.718	1027.715
45.199	13.253	1368.816	1027.120
46.213	13.280	1367.996	1026.585
47.228	13.400	1366.839	1026.371
48.242	13.371	1365.878	1025.377
49.257	13.353	1364.529	1024.163
50.271	13.377	1362.645	1022.806
51.286	13.484	1361.572	1022.573
52.301	13.372	1360.478	1020.965
53.315	13.398	1359.042	1019.960
54.330	13.343	1357.962	1018.720
55.344	13.381	1356.868	1018.045
56.359	13.216	1356.277	1016.494
57.374	13.228	1354.912	1015.456
58.388	13.230	1354.283	1014.909
59.403	13.164	1353.996	1014.199
60.417	13.195	1352.852	1013.442
61.432	13.111	1351.994	1012.196
62.447	13.230	1350.668	1011.841
63.461	13.059	1349.327	1009.699
64.476	13.127	1348.216	1009.194
65.490	13.147	1347.664	1008.811
66.505	13.173	1345.539	1007.292
67.520	13.256	1344.132	1006.659
68.534	13.317	1343.346	1006.352
69.549	13.305	1341.688	1004.947
70.563	13.163	1341.213	1003.641
71.578	13.212	1339.974	1002.918
72.593	13.227	1338.731	1001.989
73.607	13.174	1338.079	1001.093
74.622	13.131	1337.535	1000.334
75.636	13.128	1336.885	999.742
76.651	13.139	1336.033	999.087
77.666	13.163	1335.291	998.588
78.680	13.086	1335.443	998.146
79.695	13.289	1333.400	997.758
80.709	13.207	1333.209	997.032
81.724	13.299	1332.208	996.751
82.739	13.345	1330.945	995.994
83.753	13.196	1330.393	994.593
84.768	13.351	1329.441	994.728
85.782	13.435	1327.966	994.041
86.797	13.336	1326.768	992.464
87.812	13.303	1325.712	991.383
88.826	13.257	1324.653	990.228
89.841	13.292	1323.536	989.517
90.855	13.422	1322.177	989.192
91.870	13.393	1321.726	988.595
92.884	13.455	1320.401	987.887
93.899	13.461	1319.830	987.405
94.914	13.425	1318.903	986.410
95.928	13.520	1318.328	986.457
96.943	13.453	1317.621	985.443
97.957	13.493	1316.463	984.731
98.972	13.460	1315.446	983.682
99.987	13.589	1313.537	982.934
101.001	13.413	1313.031	981.424
102.016	13.479	1312.146	981.071
103.030	13.468	1311.527	980.456
104.045	13.378	1310.632	979.168
105.060	13.396	1309.452	978.302
106.074	13.334	1307.988	976.754
107.089	13.273	1306.891	975.489
108.103	13.304	1305.601	974.626
109.118	13.354	1303.960	973.607
110.133	13.315	1302.506	972.207
111.147	13.324	1301.469	971.401
112.162	13.318	1299.843	970.067
113.176	13.365	1299.033	969.653
114.191	13.338	1298.504	969.011
115.206	13.407	1297.210	968.366
116.220	13.321	1296.016	966.883
117.235	13.370	1294.391	965.874
118.249	13.410	1293.752	965.545
119.264	13.257	1292.633	963.729
120.279	13.319	1291.530	963.185
121.293	13.260	1290.576	962.046
122.308	13.361	1289.010	961.377
123.322	13.226	1288.366	960.032
124.337	13.275	1287.752	959.773
125.352	13.340	1285.888	958.672
126.366	13.319	1284.224	957.230
127.381	13.264	1283.850	956.545
128.395	13.251	1282.805	955.608
129.410	13.279	1281.628	954.809
130.424	13.376	1280.843	954.695
131.439	13.371	1279.576	953.642
132.454	13.349	1278.371	952.534
133.468	13.357	1277.750	952.028
134.483	13.327	1277.221	951.378
135.497	13.283	1276.044	950.166
136.512	13.374	1274.404	949.385
137.527	13.306	1273.448	948.198
138.541	13.374	1271.781	947.263
139.556	13.365	1270.422	946.114
140.570	13.386	1269.890	945.752
141.585	13.383	1268.293	944.466
142.600	13.512	1266.893	944.076
143.614	13.450	1265.986	942.962
144.629	13.533	1264.891	942.534
145.643	13.589	1263.617	941.822
146.658	13.486	1262.756	940.507
147.673	13.352	1261.556	938.769
148.687	13.451	1259.959	938.059
149.702	13.547	1258.651	937.545
150.716	13.520	1257.257	936.272
151.731	13.536	1255.996	935.343
152.746	13.454	1255.493	934.421
153.760	13.522	1254.229	933.782
154.775	13.542	1252.690	932.669
155.789	13.605	1251.747	932.237
156.804	13.658	1250.541	931.552
157.819	13.608	1249.842	930.669
158.833	13.617	1249.049	930.047
159.848	13.729	1247.683	929.573
160.862	13.707	1246.762	928.682
161.877	13.602	1245.709	927.233
162.892	13.577	1244.712	926.267
163.906	13.716	1243.532	926.082
164.921	13.625	1242.631	924.824
165.935	13.617	1242.001	924.224
166.950	13.698	1241.373	924.129
167.964	13.686	1240.664	923.452
168.979	13.647	1239.664	922.408
169.994	13.646	1239.186	921.968
171.008	13.777	1237.743	921.541
172.023	13.711	1237.355	920.800
173.037	13.896	1236.114	920.822
174.052	13.748	1235.603	919.541
175.067	13.774	1234.308	918.639
176.081	13.756	1233.357	917.753
177.096	13.626	1232.993	916.681
178.110	13.618	1231.720	915.608
179.125	13.908	1229.505	915.480
180.140	13.716	1229.138	914.067
181.154	13.788	1228.048	913.574
182.169	13.784	1226.750	912.505
183.183	13.800	1225.407	911.512
184.198	13.869	1224.325	911.004
185.213	13.934	1223.231	910.468
186.227	13.909	1222.296	909.552
187.242	13.961	1221.154	908.907
188.256	14.097	1219.949	908.676
189.271	14.063	1219.167	907.824
190.286	13.966	1218.132	906.443
191.300	13.799	1217.328	904.857
192.315	13.744	1217.186	904.369
193.329	13.790	1216.208	903.813
194.344	13.913	1215.439	903.833
195.359	13.947	1214.958	903.580
196.373	13.918	1214.228	902.801
197.388	13.947	1213.867	902.610
198.402	14.078	1213.262	902.791
199.417	14.145	1212.453	902.474
200.432	14.063	1211.821	901.479
201.446	14.238	1210.691	901.502
202.461	14.231	1210.306	901.097
203.475	14.306	1209.044	900.488
204.490	14.199	1207.469	898.657
205.504	14.125	1206.566	897.504
206.519	14.198	1205.328	896.897
207.534	14.158	1204.178	895.745
208.548	14.225	1203.234	895.328
209.563	14.280	1202.119	894.713
210.577	14.176	1201.649	893.726
211.592	14.319	1199.850	893.076
212.607	14.287	1199.535	892.588
213.621	14.331	1198.897	892.270
214.636	14.212	1198.199	891.039
215.650	14.406	1196.922	891.046
216.665	14.418	1195.758	890.166
217.680	14.329	1195.789	889.634
218.694	14.355	1194.533	888.759
219.709	14.363	1193.821	888.195
220.723	14.422	1192.957	887.788
221.738	14.313	1192.198	886.560
222.753	14.537	1191.224	886.952
223.767	14.478	1190.583	886.083
224.782	14.515	1190.113	885.851
225.796	14.476	1189.438	885.061
226.811	14.479	1188.855	884.566
227.826	14.490	1187.711	883.695
228.840	14.524	1187.613	883.721
229.855	14.529	1186.393	882.764
230.869	14.587	1185.563	882.377
231.884	14.519	1184.766	881.345
232.899	14.499	1183.728	880.390
233.913	14.536	1183.384	880.250
234.928	14.459	1182.784	879.323
235.942	14.419	1182.186	878.586
236.957	14.414	1181.362	877.872
237.972	14.424	1180.612	877.289
238.986	14.543	1179.907	877.312
240.001	14.546	1179.261	876.773
241.015	14.676	1177.787	876.282
242.030	14.620	1177.018	875.334
243.045	14.528	1176.944	874.722
244.059	14.572	1176.036	874.202
245.074	14.657	1175.146	873.904
246.088	14.711	1174.339	873.509
247.103	14.775	1173.642	873.249
248.117	14.877	1172.314	872.716
249.132	14.875	1171.607	872.102
250.147	14.818	1171.028	871.295
251.161	14.847	1170.542	871.011
252.176	14.970	1169.787	871.013
253.190	14.919	1169.392	870.373
254.205	14.943	1168.833	870.007
255.220	15.071	1167.994	869.969
256.234	14.911	1167.307	868.552
257.249	15.134	1166.489	869.022
258.263	15.039	1166.006	868.092
259.278	15.145	1165.329	868.061
260.293	15.155	1164.873	867.696
261.307	15.118	1164.403	867.078
262.322	15.057	1163.762	866.207
263.336	15.055	1163.045	865.590
264.351	15.196	1162.456	865.801
265.366	15.256	1161.643	865.429
266.380	15.161	1161.074	864.438
267.395	15.201	1160.174	863.900
268.409	15.260	1159.296	863.469
269.424	15.056	1158.773	861.957
270.439	15.006	1158.433	861.367
271.453	15.161	1156.874	860.931
272.468	15.252	1155.886	860.586
273.482	15.203	1155.503	859.971
274.497	15.112	1155.275	859.259
275.512	15.263	1154.323	859.251
276.526	15.184	1153.528	858.180
277.541	15.220	1152.498	857.520
278.555	15.199	1152.238	857.140
279.570	15.344	1151.551	857.299
280.585	15.296	1150.607	856.271
281.599	15.357	1149.282	855.521
282.614	15.490	1148.304	855.397
283.628	15.421	1147.191	854.143
284.643	15.442	1146.503	853.660
285.657	15.331	1146.172	852.772
286.672	15.346	1145.134	852.000
287.687	15.388	1143.863	851.196
288.701	15.529	1142.947	851.154
289.716	15.497	1142.591	850.647
290.730	15.543	1141.628	850.090
291.745	15.371	1141.394	848.971
292.760	15.535	1140.365	848.957
293.774	15.664	1139.456	848.857
294.789	15.568	1139.106	848.038
295.803	15.596	1138.660	847.774
296.818	15.561	1137.994	847.024
297.833	15.527	1137.478	846.392
298.847	15.720	1136.147	846.299
299.862	15.525	1135.580	844.821
300.876	15.562	1135.042	844.533
301.891	15.672	1134.341	844.490
302.906	15.644	1133.580	843.709
303.920	15.715	1132.493	843.180
304.935	15.695	1132.568	843.059
305.949	15.785	1131.622	842.731
306.964	15.922	1130.627	842.601
307.979	15.889	1130.000	841.899
308.993	15.840	1129.424	841.148
310.008	15.838	1128.917	840.685
311.022	15.842	1128.098	840.022
312.037	15.928	1126.900	839.482
313.052	15.831	1126.228	838.426
314.066	15.774	1125.487	837.514
315.081	15.717	1124.461	836.395
316.095	15.764	1123.769	836.041
317.110	15.806	1122.889	835.518
318.125	15.801	1122.157	834.879
319.139	15.801	1121.602	834.392
320.154	15.800	1121.123	833.952
321.168	15.835	1120.131	833.317
322.183	15.883	1119.673	833.137
323.197	15.829	1119.203	832.449
324.212	15.878	1118.555	832.136
325.227	15.823	1118.110	831.458
326.241	15.897	1117.420	831.238
327.256	15.984	1116.072	830.589
328.270	15.886	1115.455	829.573
329.285	15.883	1114.612	828.858
330.300	15.925	1113.306	828.020
331.314	15.953	1112.520	827.500
332.329	16.001	1111.537	826.930
333.343	16.036	1110.479	826.243
334.358	16.075	1109.500	825.632
335.373	16.069	1109.086	825.225
336.387	16.040	1108.873	824.849
337.402	16.121	1107.875	824.431
338.416	16.116	1107.086	823.743
339.431	16.261	1106.516	823.955
340.446	16.223	1105.818	823.180
341.460	16.299	1104.834	822.744
342.475	16.201	1104.224	821.738
343.489	16.316	1103.011	821.323
344.504	16.327	1102.188	820.691
345.519	16.238	1101.469	819.652
346.533	16.384	1100.742	819.745
347.548	16.343	1099.869	818.826
348.562	16.317	1099.506	818.358
349.577	16.354	1098.616	817.801
350.592	16.396	1097.540	817.131
351.606	16.338	1097.054	816.415
352.621	16.301	1096.276	815.587
353.635	16.438	1095.698	815.745
354.650	16.359	1095.275	814.977
355.665	16.292	1094.635	814.106
356.679	16.408	1093.829	813.992
357.694	16.417	1093.375	813.625
358.708	16.459	1092.370	813.009
359.723	16.481	1091.793	812.610
360.738	16.378	1091.397	811.749
361.752	16.494	1090.545	811.601
362.767	16.546	1090.025	811.391
363.781	16.385	1089.766	810.355
364.796	16.573	1088.702	810.396
365.810	16.626	1088.259	810.246
366.825	16.579	1087.625	809.478
367.840	16.706	1087.286	809.762
368.854	16.756	1086.331	809.218
369.869	16.686	1085.923	808.509
370.883	16.759	1084.864	807.995
371.898	16.831	1083.843	807.509
372.913	16.705	1083.695	806.723
373.927	16.867	1082.870	806.809
374.942	16.813	1082.649	806.317
375.956	16.925	1081.933	806.246
376.971	16.797	1081.624	805.334
377.986	16.817	1080.806	804.750
379.000	16.928	1080.067	804.654
380.015	16.733	1079.965	803.582
381.029	16.972	1079.175	804.057
382.044	17.009	1078.287	803.500
383.059	16.867	1077.741	802.347
384.073	16.865	1076.898	801.639
385.088	17.108	1075.753	801.867
386.102	17.000	1074.940	800.678
387.117	17.057	1073.777	800.013
388.132	16.971	1073.063	799.000
389.146	16.950	1072.498	798.414
390.161	16.974	1071.795	797.933
391.175	16.991	1070.862	797.248
392.190	17.148	1070.319	797.507
393.205	17.061	1069.589	796.485
394.219	16.997	1069.375	795.954
395.234	17.124	1067.719	795.249
396.248	17.126	1066.733	794.451
397.263	17.096	1065.711	793.479
398.278	17.038	1065.490	792.975
399.292	16.953	1065.173	792.273
400.307	16.992	1064.269	791.709
401.321	17.144	1063.281	791.614
402.336	17.125	1062.465	790.848
403.350	17.093	1061.933	790.235
404.365	17.089	1061.438	789.778
405.380	17.161	1060.738	789.523
406.394	17.249	1059.777	789.144
407.409	17.180	1058.939	788.133
408.423	17.160	1058.571	787.696
409.438	17.301	1057.572	787.534
410.453	17.331	1056.944	787.135
411.467	17.303	1056.219	786.397
412.482	17.464	1055.668	786.660
413.496	17.336	1054.916	785.438
414.511	17.341	1054.498	785.084
415.526	17.430	1053.969	785.030
416.540	17.412	1053.858	784.794
417.555	17.535	1052.729	784.449
418.569	17.483	1052.281	783.807
419.584	17.529	1051.945	783.700
420.599	17.531	1051.563	783.356
421.613	108.471	1330.229	1488.270
422.628	99.899	1370.781	1488.366
