DTS Sentinel unit serial number:	SN413079Multiplexer serial number:	ORYXHardware model number:	OX4-SRSoftware version number:	ORYX F/W v4.00 Oryx Data Collector v3.7.2.0data status	okinstallation	princeton_trtdifferential loss correction	single-endedforward channel	channel 2reverse channel	N/Adate	2019/09/12time	19:29:48forward acquisition time	15.00reverse acquisition time	0.00gamma	496.2192k internal	0.2326k external	0.2326temperature offset calibration	1.0155default loss term (dB/km)	0.3790temperature slope calibration	1.0000multiplexer offset coefficient	1.0000multiplexer slope coefficient	1.0000fibre end	0.00T internal ref (°C)	32.25T ext. ref 1 (°C)	3.31T ext. ref 2 (°C)	26.77length (m)	temperature (°C)	Stokes	anti-Stokes-747.200	3.822	-0.485	-0.357
-746.185	1.865	-1.298	-0.944
-745.171	-57.265	0.443	-0.196
-744.156	-128.455	-0.308	-0.044
-743.142	-2.879	0.359	0.253
-742.127	-200.000	0.071	0.868
-741.112	800.000	0.146	0.560
-740.098	42.941	0.079	-0.073
-739.083	-167.465	-1.088	-0.044
-738.069	-64.825	0.622	0.254
-737.054	509.824	0.123	0.288
-736.039	-200.000	-0.048	0.413
-735.025	526.454	0.283	0.672
-734.010	-66.127	-0.201	-0.081
-732.996	-11.338	0.665	0.441
-731.981	31.673	0.296	0.257
-730.966	-85.007	-0.665	0.210
-729.952	-200.000	0.005	-0.272
-728.937	800.000	-0.066	0.229
-727.923	-155.571	-0.672	0.044
-726.908	7.570	0.833	0.628
-725.894	459.308	0.173	-0.389
-724.879	-119.988	-1.249	-0.216
-723.864	136.110	0.047	0.062
-722.850	-102.294	-0.152	-0.037
-721.835	-42.916	0.736	-0.377
-720.821	-18.394	-0.047	0.029
-719.806	-142.146	0.186	-0.019
-718.791	156.303	-0.239	0.333
-717.777	201.676	0.122	-0.189
-716.762	162.557	-0.435	-0.615
-715.748	800.000	-0.183	0.539
-714.733	273.392	0.276	-0.491
-713.718	-200.000	-0.011	-0.743
-712.704	-24.672	0.292	0.175
-711.689	105.335	-0.473	0.563
-710.675	-128.058	0.092	0.013
-709.660	66.955	0.298	-0.306
-708.645	710.289	0.021	0.055
-707.631	-32.125	0.264	0.149
-706.616	-200.000	0.032	0.260
-705.602	24.820	-0.366	0.306
-704.587	187.255	0.407	-0.611
-703.572	-194.772	-0.494	-0.004
-702.558	2.465	-0.426	-0.311
-701.543	-109.509	-0.862	-0.183
-700.529	-115.290	-0.210	0.040
-699.514	190.699	0.375	-0.567
-698.499	-89.910	-0.316	0.093
-697.485	216.353	-0.180	-0.288
-696.470	-20.815	-0.259	-0.160
-695.456	-156.085	-0.728	0.046
-694.441	29.336	0.197	-0.169
-693.426	-200.000	0.028	0.264
-692.412	-13.406	0.495	-0.323
-691.397	-200.000	-0.193	-1.028
-690.383	-84.527	0.432	0.137
-689.368	-42.661	0.250	0.128
-688.354	-158.811	0.699	0.040
-687.339	0.908	-0.183	-0.132
-686.324	-104.954	-0.435	0.100
-685.310	800.000	0.220	-0.659
-684.295	-145.125	0.473	-0.043
-683.281	155.646	-0.224	0.310
-682.266	163.607	-0.445	-0.629
-681.251	-92.580	0.851	-0.240
-680.237	54.196	-0.256	-0.248
-679.222	-120.620	-0.661	0.113
-678.208	-200.000	0.069	-0.418
-677.193	-200.000	0.066	-0.645
-676.178	-136.227	-0.282	-0.033
-675.164	-99.037	0.833	0.213
-674.149	-61.448	0.611	0.258
-673.135	-37.953	0.924	-0.494
-672.120	-200.000	-0.046	0.271
-671.105	-42.621	-0.620	-0.318
-670.091	21.394	-0.614	-0.502
-669.076	52.159	0.428	0.411
-668.062	-177.140	0.183	0.005
-667.047	-19.437	-0.477	-0.297
-666.032	253.645	0.479	-0.823
-665.018	800.000	0.061	0.229
-664.003	-116.680	0.080	0.015
-662.989	80.417	0.372	-0.403
-661.974	20.618	-0.267	0.217
-660.959	-12.683	0.647	-0.424
-659.945	-200.000	-0.070	0.666
-658.930	157.505	0.085	-0.119
-657.916	145.273	-0.214	0.288
-656.901	-58.492	1.222	0.533
-655.886	2.169	-0.389	-0.282
-654.872	-54.309	-0.491	-0.224
-653.857	243.492	0.559	0.943
-652.843	50.213	-0.516	0.490
-651.828	-11.486	0.562	0.372
-650.814	-140.785	0.468	0.049
-649.799	17.344	0.454	0.363
-648.784	-159.930	0.472	0.026
-647.770	-57.262	0.371	0.164
-646.755	134.080	-0.209	0.273
-645.741	-1.543	0.319	-0.226
-644.726	-72.612	-0.792	0.294
-643.711	-33.969	0.471	0.261
-642.697	-177.494	1.291	0.032
-641.682	713.298	0.143	-0.381
-640.668	-200.000	-0.135	-0.832
-639.653	-160.446	0.445	0.024
-638.638	-200.000	0.043	0.347
-637.624	-200.000	-0.014	0.210
-636.609	-200.000	0.165	-0.897
-635.595	726.987	-0.350	-0.939
-634.580	-96.290	0.604	-0.161
-633.565	640.810	0.157	-0.402
-632.551	-136.090	-0.559	0.066
-631.536	800.000	0.130	-0.505
-630.522	-105.400	0.188	0.043
-629.507	12.918	-0.328	-0.255
-628.492	124.987	-0.491	-0.621
-627.478	104.966	-0.569	-0.674
-626.463	-96.523	0.367	0.097
-625.449	135.549	0.180	0.235
-624.434	-200.000	-0.065	0.473
-623.419	-200.000	-0.006	-0.423
-622.405	-190.535	0.543	-0.006
-621.390	-51.550	0.165	-0.077
-620.376	-200.000	-0.011	0.826
-619.361	149.109	0.115	-0.157
-618.346	-152.884	0.399	-0.028
-617.332	-67.861	0.810	-0.318
-616.317	-66.768	0.326	0.129
-615.303	-200.000	-0.068	-0.348
-614.288	800.000	-0.137	0.425
-613.273	402.860	0.292	0.616
-612.259	800.000	-0.045	0.180
-611.244	-47.597	-0.575	0.280
-610.230	409.224	0.117	-0.248
-609.215	-117.008	0.123	0.023
-608.201	716.148	-0.167	-0.445
-607.186	-200.000	-0.017	0.506
-606.171	-200.000	-0.056	-0.402
-605.157	54.802	0.304	0.294
-604.142	48.111	0.604	-0.567
-603.128	-89.571	-0.512	0.151
-602.113	-60.663	-0.666	-0.283
-601.098	157.868	-0.589	-0.819
-600.084	17.403	-0.441	0.351
-599.069	27.180	0.780	-0.657
-598.055	143.794	-0.435	-0.581
-597.040	-93.506	0.089	-0.025
-596.025	-200.000	-0.003	-0.499
-595.011	254.237	-0.107	-0.183
-593.996	6.303	0.066	0.049
-592.982	-86.139	0.468	0.145
-591.967	-19.815	0.426	-0.264
-590.952	155.282	-0.256	0.354
-589.938	64.736	0.230	-0.232
-588.923	177.498	0.540	0.789
-587.909	45.035	-0.463	-0.428
-586.894	80.376	0.416	-0.449
-585.879	-90.622	0.465	0.135
-584.865	800.000	0.038	0.150
-583.850	-116.103	0.461	0.086
-582.836	41.425	0.481	-0.436
-581.821	143.473	-0.063	0.084
-580.806	80.533	-0.170	0.183
-579.792	-62.793	0.676	0.281
-578.777	245.759	-0.174	0.294
-577.763	-200.000	-0.056	-0.251
-576.748	-154.927	0.321	-0.021
-575.733	-11.811	-0.129	0.085
-574.719	30.050	-0.200	-0.171
-573.704	-46.767	-0.708	0.347
-572.690	-104.308	-0.476	-0.111
-571.675	-0.003	-0.264	-0.188
-570.661	-200.000	-0.097	0.669
-569.646	-113.807	-0.126	0.025
-568.631	193.110	0.467	0.708
-567.617	-150.857	0.987	-0.075
-566.602	-116.417	-0.655	0.121
-565.588	-139.506	0.465	0.050
-564.573	194.356	-0.284	0.432
-563.558	-200.000	-0.050	-0.495
-562.544	90.163	-0.633	-0.709
-561.529	58.308	0.535	-0.525
-560.515	60.701	-0.469	-0.466
-559.500	-156.629	-0.590	-0.037
-558.485	800.000	-0.137	-0.403
-557.471	95.891	0.225	-0.257
-556.456	800.000	-0.063	-0.254
-555.442	-76.958	0.561	0.196
-554.427	48.710	0.578	0.542
-553.412	734.188	0.234	-0.628
-552.398	49.013	-0.333	-0.314
-551.383	-200.000	-0.113	1.103
-550.369	-74.819	0.691	0.248
-549.354	-114.916	-0.960	0.183
-548.339	223.115	-0.238	0.385
-547.325	-97.383	-0.809	-0.211
-546.310	-161.965	-0.681	0.034
-545.296	412.940	-0.155	-0.330
-544.281	-110.244	-0.671	-0.140
-543.266	-200.000	0.023	0.216
-542.252	128.051	-0.710	0.903
-541.237	15.197	0.234	-0.183
-540.223	210.361	0.514	0.807
-539.208	508.083	0.181	-0.421
-538.193	-200.000	0.150	-0.909
-537.179	-144.704	0.504	-0.046
-536.164	33.167	-0.212	-0.184
-535.150	-141.969	-1.554	-0.155
-534.135	-200.000	-0.004	0.383
-533.121	-89.820	0.466	0.136
-532.106	-69.109	-0.226	0.087
-531.091	-124.849	-0.895	-0.138
-530.077	-179.762	0.602	-0.013
-529.062	-29.049	0.282	0.162
-528.048	800.000	-0.154	0.628
-527.033	34.569	0.592	-0.517
-526.018	-148.254	0.176	0.015
-525.004	-151.619	-0.312	-0.023
-523.989	69.330	0.069	0.071
-522.975	-110.981	0.977	0.201
-521.960	-61.139	-0.325	0.137
-520.945	31.413	0.355	0.305
-519.931	800.000	-0.176	0.662
-518.916	-7.819	0.589	0.398
-517.902	-72.156	0.443	-0.164
-516.887	-200.000	-0.116	-0.588
-515.872	-127.333	0.180	0.026
-514.858	-16.599	-0.615	0.390
-513.843	55.077	-0.361	0.348
-512.829	-61.288	0.877	-0.369
-511.814	-200.000	0.049	-0.425
-510.799	706.608	0.019	0.050
-509.785	89.355	0.566	-0.631
-508.770	107.912	-0.087	-0.103
-507.756	-107.357	-0.190	0.042
-506.741	-3.751	-0.347	-0.241
-505.726	514.492	0.313	0.731
-504.712	-88.951	0.898	0.266
-503.697	-200.000	-0.058	0.470
-502.683	-72.500	0.698	0.258
-501.668	31.724	-0.456	-0.392
-500.653	137.081	0.456	0.596
-499.639	800.000	0.145	0.419
-498.624	-104.567	-0.406	0.094
-497.610	800.000	0.148	0.623
-496.595	348.106	0.240	-0.474
-495.581	-200.000	0.006	-0.557
-494.566	144.228	-0.304	-0.405
-493.551	159.240	-0.537	0.746
-492.537	-191.297	0.250	-0.003
-491.522	-159.709	0.303	0.017
-490.508	172.979	-0.135	-0.194
-489.493	800.000	-0.063	0.260
-488.478	54.457	-0.594	0.572
-487.464	36.570	0.368	0.325
-486.449	131.288	0.493	0.633
-485.435	33.708	-0.465	0.404
-484.420	-73.947	0.390	-0.141
-483.405	800.000	0.186	-0.773
-482.391	-98.726	-0.252	0.064
-481.376	429.639	0.111	-0.239
-480.362	-40.062	0.678	0.353
-479.347	-144.235	0.508	0.047
-478.332	173.017	0.293	0.421
-477.318	117.753	-0.226	-0.278
-476.303	-6.189	-0.082	0.056
-475.289	352.905	0.260	0.515
-474.274	-200.000	-0.051	0.313
-473.259	-200.000	-0.031	-0.399
-472.245	-21.244	-0.171	0.104
-471.230	-52.225	-0.351	0.162
-470.216	26.199	-0.208	0.173
-469.201	800.000	0.022	0.071
-468.186	294.122	-0.312	0.568
-467.172	-200.000	0.029	-0.436
-466.157	183.880	0.192	0.283
-465.143	800.000	-0.076	0.278
-464.128	-56.218	-0.500	0.222
-463.113	-200.000	-0.001	-0.113
-462.099	-170.407	-0.653	-0.023
-461.084	113.235	0.157	-0.190
-460.070	276.201	0.195	-0.345
-459.055	800.000	-0.273	-0.876
-458.040	96.379	0.355	0.405
-457.026	-79.976	0.605	-0.203
-456.011	-174.900	-0.584	-0.016
-454.997	388.104	0.044	-0.091
-453.982	449.397	-0.214	0.471
-452.968	800.000	-0.162	0.545
-451.953	-73.160	-0.518	-0.189
-450.938	800.000	0.081	-0.278
-449.924	83.295	0.260	-0.282
-448.909	-59.798	0.686	-0.293
-447.895	39.210	-0.322	-0.288
-446.880	-68.902	-0.343	0.132
-445.865	123.101	0.386	0.482
-444.851	800.000	-0.088	-0.368
-443.836	-25.455	-0.240	0.142
-442.822	-74.554	-0.303	-0.109
-441.807	-200.000	0.007	-0.431
-440.792	104.781	0.236	0.277
-439.778	-53.595	0.127	-0.058
-438.763	178.519	-0.221	-0.322
-437.749	-200.000	0.094	-0.544
-436.734	-164.336	0.928	-0.042
-435.719	-200.000	-0.050	-0.233
-434.705	271.768	-0.459	-0.807
-433.690	-77.318	0.758	-0.263
-432.676	71.703	0.298	-0.309
-431.661	-16.494	-0.961	-0.607
-430.646	-9.916	0.178	-0.118
-429.632	-200.000	0.004	-0.107
-428.617	245.521	-0.413	-0.692
-427.603	90.249	-0.695	0.775
-426.588	-200.000	-0.083	-0.472
-425.573	-124.712	0.686	0.106
-424.559	18.229	-0.473	0.376
-423.544	-143.086	0.707	-0.068
-422.530	-21.297	-0.215	0.131
-421.515	-89.355	-0.401	0.118
-420.500	-200.000	-0.016	-0.291
-419.486	250.836	0.121	0.204
-418.471	-42.186	-0.474	-0.241
-417.457	-76.957	-0.394	0.137
-416.442	800.000	0.185	0.720
-415.428	-115.760	-0.588	-0.110
-414.413	-116.485	-1.158	0.213
-413.398	-200.000	0.059	-0.367
-412.384	-103.512	0.428	-0.100
-411.369	-200.000	-0.042	0.639
-410.355	-200.000	0.126	1.106
-409.340	15.843	-1.118	-0.876
-408.325	517.559	-0.224	-0.523
-407.311	-53.142	0.466	0.213
-406.296	800.000	-0.129	0.544
-405.282	-42.421	-0.236	-0.120
-404.267	-58.261	0.338	-0.146
-403.252	-87.425	-0.542	-0.164
-402.238	-59.995	0.120	0.051
-401.223	-169.823	-0.087	0.003
-400.209	-200.000	-0.036	0.445
-399.194	11.126	0.563	-0.428
-398.179	79.015	0.338	0.360
-397.165	-109.075	0.130	0.028
-396.150	506.451	-0.271	0.626
-395.136	-13.539	-0.062	0.040
-394.121	66.591	-0.326	-0.330
-393.106	-48.924	0.437	-0.209
-392.092	-105.604	0.688	-0.155
-391.077	3.107	-0.068	0.049
-390.063	14.795	0.231	0.180
-389.048	-200.000	0.000	-0.368
-388.033	-200.000	0.003	0.074
-387.019	326.020	-0.273	-0.519
-386.004	-96.541	0.158	0.042
-384.990	-140.742	-0.313	-0.032
-383.975	76.947	-0.891	0.941
-382.960	-31.697	0.778	-0.434
-381.946	-49.345	-0.658	0.312
-380.931	25.126	-0.528	-0.436
-379.917	407.089	0.259	-0.545
-378.902	-9.260	-0.336	0.224
-377.888	-200.000	-0.080	0.421
-376.873	-30.018	-0.606	0.343
-375.858	-78.249	0.948	0.324
-374.844	95.751	0.188	-0.213
-373.829	225.817	-0.189	0.304
-372.815	-163.814	0.162	-0.008
-371.800	-200.000	-0.044	-0.448
-370.785	-15.026	0.225	-0.143
-369.771	206.358	0.341	-0.527
-368.756	-200.000	-0.270	-1.297
-367.742	-200.000	0.046	0.368
-366.727	537.298	-0.078	0.185
-365.712	-5.148	-0.487	-0.333
-364.698	22.124	-0.029	-0.023
-363.683	-97.661	-0.889	0.229
-362.669	-130.714	0.492	0.066
-361.654	524.287	0.121	0.284
-360.639	-0.082	0.112	-0.079
-359.625	67.128	0.113	0.114
-358.610	-20.205	-0.472	0.289
-357.596	-106.290	0.150	0.033
-356.581	40.221	-0.298	-0.266
-355.566	493.222	-0.273	0.623
-354.552	800.000	0.186	-0.639
-353.537	-114.110	0.393	-0.076
-352.523	-0.359	-0.392	0.277
-351.508	-107.214	-0.656	-0.144
-350.493	-200.000	-0.155	0.989
-349.479	113.367	-0.415	0.500
-348.464	142.205	-0.641	-0.845
-347.450	70.976	0.201	-0.207
-346.435	-130.736	-1.248	0.167
-345.420	7.316	0.120	0.089
-344.406	-70.789	-0.622	-0.233
-343.391	208.123	-0.412	0.639
-342.377	-85.380	-0.150	0.046
-341.362	-110.177	-0.521	0.108
-340.348	-200.000	-0.082	-0.655
-339.333	-200.000	0.017	-0.477
-338.318	-101.434	-0.697	0.169
-337.304	232.865	0.711	1.160
-336.289	83.424	0.129	-0.140
-335.275	-53.780	0.491	-0.222
-334.260	-73.898	-0.709	-0.256
-333.245	48.715	0.393	0.366
-332.231	-54.903	0.281	-0.126
-331.216	800.000	-0.164	-0.641
-330.202	-167.233	-0.485	0.019
-329.187	-35.206	0.192	0.104
-328.172	-10.680	-0.564	-0.370
-327.158	-71.977	0.246	-0.091
-326.143	-73.803	0.336	-0.121
-325.129	-119.184	0.330	0.057
-324.114	704.994	0.019	0.050
-323.099	12.168	0.347	0.265
-322.085	237.116	-0.529	0.869
-321.070	-200.000	0.052	0.890
-320.056	-90.765	-0.855	-0.245
-319.041	-200.000	-0.133	-0.600
-318.026	105.301	0.544	0.637
-317.012	24.021	-0.120	-0.098
-315.997	-120.041	0.520	-0.088
-314.983	419.405	0.250	0.530
-313.968	-1.212	0.957	-0.671
-312.953	-17.043	-0.576	0.360
-311.939	261.209	0.413	0.710
-310.924	151.940	0.037	0.050
-309.910	271.552	-0.070	0.122
-308.895	270.773	-0.281	-0.491
-307.880	275.077	-0.134	0.236
-306.866	-200.000	-0.025	-0.184
-305.851	-18.578	0.618	-0.382
-304.837	-60.855	0.988	-0.415
-303.822	84.747	0.687	0.746
-302.807	167.849	-0.453	0.639
-301.793	142.689	-0.250	0.330
-300.778	74.046	0.523	-0.544
-299.764	800.000	0.049	0.153
-298.749	-200.000	0.088	0.429
-297.735	-112.220	1.056	-0.210
-296.720	-200.000	0.401	0.001
-295.705	-34.622	0.387	0.210
-294.691	800.000	-0.423	-1.502
-293.676	135.482	-0.545	0.703
-292.662	-200.000	-0.084	-0.651
-291.647	624.305	-0.163	0.406
-290.632	128.439	-0.416	0.525
-289.618	-68.880	-0.239	0.092
-288.603	205.339	0.203	0.312
-287.589	-45.829	-0.263	-0.129
-286.574	-11.924	0.515	0.335
-285.559	-140.384	0.165	0.017
-284.545	-63.656	-0.178	0.072
-283.530	491.916	-0.126	0.285
-282.516	62.180	-0.669	-0.661
-281.501	-200.000	-0.057	0.381
-280.486	-49.101	0.451	0.214
-279.472	-200.000	-0.020	0.399
-278.457	-200.000	0.078	-1.123
-277.443	404.135	-0.121	0.252
-276.428	-20.151	0.314	0.192
-275.413	-200.000	-0.079	0.434
-274.399	510.768	0.224	-0.516
-273.384	-67.381	-0.595	0.232
-272.370	127.215	-0.495	-0.622
-271.355	45.591	-0.471	0.431
-270.340	-58.719	-0.183	0.079
-269.326	-82.822	-0.860	-0.275
-268.311	49.042	-0.312	0.290
-267.297	-137.377	-0.190	-0.021
-266.282	-49.269	0.842	-0.398
-265.267	82.847	0.516	-0.556
-264.253	-26.412	-0.738	0.429
-263.238	-144.817	0.402	-0.036
-262.224	-200.000	-0.225	-0.995
-261.209	154.340	0.276	0.375
-260.195	-85.699	-0.497	-0.153
-259.180	762.243	-0.153	-0.410
-258.165	33.299	-0.281	0.241
-257.151	30.482	0.255	-0.215
-256.136	-67.133	0.176	0.069
-255.122	800.000	0.369	1.117
-254.107	321.427	0.312	0.587
-253.092	104.991	0.015	0.018
-252.078	-71.181	-0.352	-0.131
-251.063	-129.918	-0.069	0.009
-250.049	-7.369	-0.885	-0.593
-249.034	-40.712	0.181	0.093
-248.019	-200.000	-0.017	-0.146
-247.005	-100.309	-0.659	0.162
-245.990	-200.000	-0.002	-0.182
-244.976	-156.346	-0.462	-0.029
-243.961	-99.320	0.469	-0.117
-242.946	-200.000	0.095	-0.512
-241.932	-25.991	-0.587	0.342
-240.917	800.000	0.158	-0.593
-239.903	-32.642	0.162	0.089
-238.888	679.356	-0.201	-0.518
-237.873	164.845	0.569	-0.795
-236.859	-75.355	0.951	-0.335
-235.844	-200.000	0.064	0.329
-234.830	101.160	-0.248	0.285
-233.815	4.541	-0.577	-0.419
-232.800	-142.542	-0.610	0.059
-231.786	-53.347	-0.520	0.235
-230.771	-130.094	0.395	-0.053
-229.757	30.955	0.186	-0.158
-228.742	-191.547	0.876	-0.009
-227.727	-200.000	-0.063	0.421
-226.713	-5.032	0.533	0.363
-225.698	15.904	-0.752	-0.585
-224.684	-91.476	0.660	-0.186
-223.669	-40.982	-0.122	0.062
-222.655	-200.000	0.100	0.582
-221.640	255.083	-0.333	-0.564
-220.625	-42.476	-0.622	-0.314
-219.611	541.348	-0.229	0.540
-218.596	-200.000	0.056	0.246
-217.582	83.697	0.350	-0.377
-216.567	800.000	-0.123	-0.430
-215.552	-200.000	0.005	0.209
-214.538	-200.000	0.036	0.323
-213.523	-160.673	0.468	-0.025
-212.509	800.000	-0.116	0.336
-211.494	13.059	-0.396	0.303
-210.479	138.216	0.381	-0.494
-209.465	268.976	-0.262	-0.454
-208.450	-200.000	-0.160	0.769
-207.436	475.215	-0.327	0.730
-206.421	556.308	-0.364	0.867
-205.406	800.000	0.073	0.230
-204.392	66.225	0.470	0.471
-203.377	-99.917	0.782	0.193
-202.363	117.734	-0.377	0.458
-201.348	36.666	0.341	0.298
-200.333	36.874	-0.181	0.158
-199.319	709.415	0.222	-0.581
-198.304	406.323	-0.099	-0.206
-197.290	-33.978	-0.539	0.293
-196.275	-10.160	0.716	0.469
-195.260	800.000	-0.056	-0.197
-194.246	58.132	-0.307	-0.297
-193.231	-200.000	0.136	0.620
-192.217	-200.000	0.044	-0.725
-191.202	122.864	-0.403	-0.498
-190.187	-185.926	0.305	0.004
-189.173	56.254	0.242	-0.232
-188.158	-24.676	-0.406	0.238
-187.144	131.899	0.349	-0.443
-186.129	-124.391	-0.542	-0.083
-185.114	272.922	-0.312	-0.544
-184.100	-114.420	-0.173	-0.033
-183.085	267.330	-0.226	0.390
-182.071	-175.810	0.253	0.007
-181.056	-86.993	0.633	-0.190
-180.042	-162.637	1.031	0.050
-179.027	800.000	-0.054	0.183
-178.012	-82.287	-0.393	-0.126
-176.998	-148.509	0.476	-0.038
-175.983	-16.968	-0.370	0.231
-174.969	-200.000	-0.018	0.284
-173.954	473.094	-0.425	-0.945
-172.939	-10.622	0.197	-0.129
-171.925	800.000	-0.086	-0.309
-170.910	800.000	-0.153	0.507
-169.896	-200.000	0.051	0.378
-168.881	-200.000	0.131	0.664
-167.866	57.085	0.761	0.732
-166.852	-75.592	0.460	0.161
-165.837	-200.000	0.665	0.001
-164.823	-200.000	0.025	-0.590
-163.808	-75.914	0.640	-0.223
-162.793	296.710	0.165	-0.298
-161.779	-200.000	0.116	-0.647
-160.764	800.000	0.115	-0.410
-159.750	800.000	0.124	0.494
-158.735	12.019	-0.571	-0.433
-157.720	76.843	0.257	0.269
-156.706	-200.000	-0.041	0.754
-155.691	114.392	0.227	0.272
-154.677	86.478	0.567	-0.617
-153.662	-114.827	-0.183	0.034
-152.647	219.035	0.146	0.230
-151.633	60.544	-0.449	-0.438
-150.618	-112.273	0.885	0.175
-149.604	-64.470	-0.684	-0.274
-148.589	274.829	-0.373	-0.651
-147.574	-120.551	0.697	-0.117
-146.560	123.233	0.407	0.503
-145.545	342.864	-0.403	-0.778
-144.531	-24.673	0.455	-0.267
-143.516	66.754	0.601	-0.603
-142.502	40.924	0.334	-0.297
-141.487	-138.062	-0.347	-0.038
-140.472	467.974	-0.365	-0.808
-139.458	-200.000	0.081	-1.040
-138.443	800.000	0.227	0.655
-137.429	-200.000	-0.070	-1.704
-136.414	-37.914	0.539	-0.282
-135.399	12.763	-0.742	-0.564
-134.385	-200.000	-0.045	0.887
-133.370	61.063	0.240	0.234
-132.356	-200.000	-0.026	-0.354
-131.341	-92.616	0.178	-0.049
-130.326	8.407	-0.758	0.561
-129.312	-50.814	-0.544	0.252
-128.297	-86.801	-0.676	0.203
-127.283	-42.489	0.599	-0.300
-126.268	-33.862	0.768	-0.417
-125.253	-200.000	-0.124	0.544
-124.239	-117.895	-0.174	-0.031
-123.224	126.596	-0.130	0.163
-122.210	478.964	0.303	0.675
-121.195	-56.844	0.540	0.235
-120.180	775.529	-0.262	0.705
-119.166	12.565	-0.145	0.110
-118.151	164.518	-0.363	0.504
-117.137	-28.717	0.669	0.379
-116.122	47.977	-0.513	-0.472
-115.107	582.330	0.232	0.559
-114.093	800.000	-0.172	0.670
-113.078	-126.284	0.285	-0.042
-112.064	43.396	0.162	0.146
-111.049	-36.691	0.627	0.331
-110.034	-124.274	-0.894	0.138
-109.020	278.087	-0.148	-0.259
-108.005	102.917	0.518	-0.597
-106.991	-40.308	0.772	-0.395
-105.976	-74.930	0.798	-0.281
-104.962	64.451	-0.848	-0.840
-103.947	88.267	-0.285	-0.311
-102.932	5.375	-0.230	0.167
-101.918	-144.389	-0.426	0.039
-100.903	-200.000	0.049	-0.329
-99.889	-105.939	-0.965	-0.214
-98.874	260.450	0.311	0.530
-97.859	231.816	-0.298	-0.480
-96.845	800.000	0.303	0.853
-95.830	7.018	-0.396	-0.290
-94.816	-200.000	0.160	-0.852
-93.801	-30.466	0.214	-0.119
-92.786	194.615	-0.357	-0.532
-91.772	433.523	0.319	-0.680
-90.757	-116.603	-0.661	0.120
-89.743	637.307	0.328	0.818
-88.728	-132.548	0.775	0.098
-87.713	-200.000	0.110	0.657
-86.699	-200.000	0.048	-0.366
-85.684	174.196	0.559	-0.795
-84.670	-200.000	-0.025	-0.439
-83.655	282.672	-0.426	-0.751
-82.640	-99.966	-0.770	-0.189
-81.626	-107.077	0.514	-0.112
-80.611	273.143	0.151	0.262
-79.597	247.584	0.143	0.238
-78.582	-200.000	-0.019	-0.749
-77.567	-4.390	-0.375	0.255
-76.553	-47.124	1.047	-0.502
-75.538	-40.184	0.240	0.123
-74.524	-18.059	0.657	0.405
-73.509	135.659	0.559	0.714
-72.494	-57.796	0.762	0.328
-71.480	800.000	0.146	-0.553
-70.465	-173.652	0.761	-0.022
-69.451	-200.000	0.046	-0.223
-68.436	-200.000	0.007	-0.525
-67.422	118.465	-0.348	0.422
-66.407	117.003	0.287	-0.346
-65.392	21.295	-0.410	-0.327
-64.378	-200.000	0.030	-0.631
-63.363	669.096	0.247	-0.627
-62.349	-112.448	0.508	0.100
-61.334	-25.970	-0.987	-0.571
-60.319	159.758	0.094	-0.128
-59.305	800.000	-0.221	-0.783
-58.290	778.070	0.296	0.795
-57.276	85.014	1.109	1.194
-56.261	-200.000	94.989	590.255
-55.246	679.940	1350.009	3450.934
-54.232	203.734	2526.439	3839.728
-53.217	113.810	2246.826	2681.196
-52.203	41.670	1881.831	1673.810
-51.188	35.354	1674.140	1441.734
-50.173	33.042	1629.461	1386.265
-49.159	50.681	1679.816	1560.928
-48.144	51.908	1694.267	1583.428
-47.130	35.089	1655.425	1423.422
-46.115	32.575	1640.661	1392.122
-45.100	32.365	1636.477	1386.966
-44.086	32.174	1633.970	1383.381
-43.071	32.283	1630.378	1381.089
-42.057	32.106	1629.685	1379.140
-41.042	32.184	1626.408	1376.891
-40.027	32.309	1624.614	1376.226
-39.013	32.339	1622.655	1374.732
-37.998	32.021	1620.803	1370.786
-36.984	32.187	1620.400	1371.605
-35.969	32.273	1619.529	1371.440
-34.954	32.087	1617.584	1368.381
-33.940	32.137	1615.699	1367.097
-32.925	32.225	1613.193	1365.561
-31.911	32.379	1611.434	1365.140
-30.896	32.029	1611.244	1362.385
-29.881	31.997	1608.878	1360.096
-28.867	32.398	1606.865	1361.239
-27.852	32.175	1605.145	1358.117
-26.838	32.220	1604.684	1358.001
-25.823	32.180	1602.308	1355.648
-24.809	32.394	1600.524	1355.624
-23.794	32.228	1599.908	1353.857
-22.779	32.317	1598.318	1353.097
-21.765	32.248	1597.225	1351.619
-20.750	32.362	1595.030	1350.526
-19.736	32.291	1594.374	1349.411
-18.721	32.387	1592.441	1348.406
-17.706	32.108	1591.699	1345.725
-16.692	32.330	1589.579	1345.474
-15.677	32.204	1589.113	1344.124
-14.663	32.522	1585.576	1343.343
-13.648	32.327	1586.076	1342.322
-12.633	32.374	1583.155	1340.136
-11.619	32.255	1583.266	1339.327
-10.604	32.187	1581.196	1337.037
-9.590	32.504	1579.082	1337.453
-8.575	32.260	1578.828	1335.448
-7.560	32.258	1577.465	1334.229
-6.546	32.304	1575.982	1333.248
-5.531	32.255	1575.280	1332.257
-4.517	32.385	1573.096	1331.274
-3.502	32.303	1572.563	1330.188
-2.487	32.562	1569.358	1329.252
-1.473	32.087	1558.239	1316.455
-0.458	29.101	1539.233	1279.627
0.556	26.760	1540.054	1246.528
1.571	24.278	1563.228	1247.827
2.586	23.670	1575.603	1253.306
3.600	21.131	1521.880	1193.132
4.615	12.590	1414.308	1054.199
5.629	4.848	1350.350	958.920
6.644	3.388	1342.554	944.360
7.659	3.193	1342.312	942.912
8.673	3.263	1339.933	941.587
9.688	3.396	1337.637	940.697
10.702	2.932	1335.393	936.208
11.717	6.636	1340.464	962.311
12.731	16.077	1358.933	1033.623
13.746	23.349	1370.293	1086.962
14.761	25.242	1372.240	1100.025
15.775	25.008	1370.484	1097.090
16.790	24.592	1370.494	1094.450
17.804	24.627	1368.933	1093.322
18.819	24.211	1369.487	1091.120
19.834	24.345	1367.325	1090.123
20.848	24.481	1367.241	1090.790
21.863	24.672	1366.016	1090.883
22.877	24.536	1365.715	1089.712
23.892	24.479	1364.660	1088.429
24.907	24.582	1363.628	1088.139
25.921	24.540	1361.726	1086.270
26.936	24.343	1361.789	1085.024
27.950	24.375	1361.067	1084.546
28.965	24.408	1360.193	1083.952
29.980	24.547	1359.315	1084.004
30.994	24.722	1358.190	1084.073
32.009	24.628	1356.491	1082.051
33.023	24.668	1356.119	1081.897
34.038	24.686	1353.897	1080.142
35.053	24.431	1354.207	1078.749
36.067	24.342	1353.121	1077.251
37.082	24.479	1351.695	1076.850
38.096	24.366	1351.097	1075.592
39.111	24.597	1350.313	1076.268
40.126	24.544	1349.385	1075.110
41.140	24.486	1349.156	1074.488
42.155	24.297	1347.795	1072.173
43.169	24.064	1348.349	1071.113
44.184	24.317	1347.160	1071.594
45.199	24.034	1347.632	1070.172
46.213	24.103	1347.016	1070.009
47.228	24.676	1346.165	1072.677
48.242	24.252	1346.481	1070.286
49.257	24.556	1343.836	1069.911
50.271	24.415	1342.071	1067.570
51.286	24.346	1341.337	1066.477
52.301	24.579	1339.416	1066.248
53.315	24.315	1339.739	1064.832
54.330	24.468	1338.579	1064.729
55.344	24.274	1337.925	1062.957
56.359	24.212	1336.110	1061.052
57.374	24.129	1335.535	1060.006
58.388	24.201	1334.701	1059.681
59.403	24.290	1334.238	1059.747
60.417	23.979	1334.121	1057.711
61.432	24.226	1331.681	1057.148
62.447	24.111	1331.575	1056.290
63.461	24.152	1329.865	1055.086
64.476	24.061	1329.544	1054.199
65.490	24.013	1327.932	1052.544
66.505	23.855	1327.768	1051.386
67.520	24.004	1326.554	1051.212
68.534	24.055	1325.054	1050.231
69.549	24.101	1323.224	1048.954
70.563	24.251	1322.412	1049.103
71.578	24.050	1320.745	1046.503
72.593	23.876	1320.061	1044.846
73.607	23.908	1320.771	1045.505
74.622	23.877	1319.912	1044.551
75.636	23.975	1318.861	1044.201
76.651	24.075	1317.611	1043.706
77.666	23.669	1318.955	1042.297
78.680	24.032	1318.207	1043.743
79.695	23.928	1316.715	1041.857
80.709	23.990	1316.689	1042.108
81.724	24.365	1314.949	1042.834
82.739	24.321	1314.861	1042.417
83.753	24.464	1315.196	1043.421
84.768	24.532	1313.697	1042.540
85.782	24.545	1313.519	1042.381
86.797	24.743	1311.243	1041.634
87.812	24.590	1309.648	1039.386
88.826	24.571	1309.058	1038.718
89.841	24.486	1307.278	1036.718
90.855	24.769	1306.670	1037.785
91.870	24.701	1306.248	1036.963
92.884	24.796	1305.581	1036.897
93.899	24.435	1305.983	1035.029
94.914	25.038	1303.413	1036.389
95.928	24.859	1303.835	1035.596
96.943	24.870	1301.652	1033.833
97.957	24.612	1302.701	1033.086
98.972	24.755	1301.540	1032.900
99.987	24.382	1300.071	1029.492
101.001	24.852	1298.259	1030.675
102.016	24.501	1298.636	1028.860
103.030	24.897	1297.153	1029.870
104.045	24.546	1296.911	1027.571
105.060	24.417	1294.986	1025.211
106.074	24.461	1293.267	1024.013
107.089	24.188	1291.998	1021.351
108.103	23.781	1292.338	1019.195
109.118	23.954	1290.488	1018.636
110.133	23.842	1288.513	1016.347
111.147	23.899	1287.569	1015.837
112.162	24.154	1287.391	1017.067
113.176	24.062	1287.476	1016.515
114.191	24.164	1284.509	1014.664
115.206	24.215	1283.116	1013.765
116.220	24.190	1283.116	1013.533
117.235	23.930	1283.234	1012.059
118.249	23.954	1281.086	1010.410
119.264	23.979	1279.021	1008.835
120.279	24.000	1278.882	1008.755
121.293	23.981	1277.149	1007.193
122.308	24.034	1276.681	1007.035
123.322	23.706	1276.299	1004.787
124.337	23.781	1275.061	1004.145
125.352	23.832	1274.935	1004.248
126.366	23.862	1273.363	1003.088
127.381	23.871	1272.056	1002.022
128.395	23.842	1270.861	1000.829
129.410	23.692	1269.740	999.014
130.424	23.525	1270.421	998.518
131.439	23.669	1269.440	998.469
132.454	23.842	1268.877	998.912
133.468	23.954	1268.506	999.162
134.483	24.116	1267.501	999.190
135.497	23.985	1267.064	998.025
136.512	23.826	1266.028	996.225
137.527	24.094	1264.726	996.612
138.541	24.078	1262.869	994.972
139.556	24.349	1261.218	995.099
140.570	24.273	1261.878	995.105
141.585	24.330	1260.743	994.443
142.600	24.521	1260.214	994.999
143.614	24.754	1259.901	995.962
144.629	24.490	1259.698	994.245
145.643	24.517	1257.597	992.647
146.658	24.300	1256.667	990.618
147.673	24.473	1255.494	990.565
148.687	24.030	1254.615	987.331
149.702	24.120	1252.470	986.054
150.716	23.854	1251.510	983.736
151.731	23.775	1249.750	981.831
152.746	23.757	1249.116	981.145
153.760	24.199	1247.871	982.519
154.775	24.362	1247.481	983.023
155.789	24.286	1247.916	982.861
156.804	24.344	1245.450	981.149
157.819	24.265	1245.060	980.321
158.833	24.332	1244.409	980.090
159.848	24.422	1243.676	979.921
160.862	24.306	1242.936	978.616
161.877	24.243	1241.567	977.103
162.892	23.910	1239.961	973.931
163.906	24.184	1238.860	974.478
164.921	24.121	1237.866	973.265
165.935	24.348	1237.547	974.168
166.950	24.272	1236.682	972.986
167.964	24.005	1237.671	972.222
168.979	24.534	1234.425	972.466
169.994	23.968	1235.812	970.387
171.008	24.184	1234.605	970.528
172.023	24.262	1233.764	970.209
173.037	24.484	1233.377	971.024
174.052	24.634	1232.529	971.086
175.067	24.487	1230.440	968.559
176.081	24.130	1230.845	966.851
177.096	24.283	1229.560	966.587
178.110	24.311	1228.106	965.512
179.125	24.055	1227.578	963.623
180.140	24.223	1226.717	963.774
181.154	24.327	1226.285	963.910
182.169	24.035	1225.323	961.493
183.183	24.473	1223.802	962.574
184.198	24.649	1222.951	962.767
185.213	24.487	1222.402	961.381
186.227	24.532	1220.572	960.096
187.242	24.662	1219.111	959.561
188.256	24.624	1218.761	958.996
189.271	24.667	1218.515	958.947
190.286	24.559	1216.602	956.779
191.300	24.049	1216.905	954.202
192.315	24.125	1216.088	953.885
193.329	24.331	1215.450	954.403
194.344	24.058	1215.369	952.788
195.359	23.946	1213.624	950.742
196.373	23.804	1213.313	949.653
197.388	23.792	1213.078	949.324
198.402	24.175	1213.879	951.911
199.417	24.549	1213.434	953.475
200.432	24.607	1212.540	952.998
201.446	24.596	1212.066	952.484
202.461	24.568	1211.128	951.511
203.475	24.414	1210.318	949.973
204.490	24.137	1209.100	947.457
205.504	24.192	1207.175	946.156
206.519	24.213	1205.375	944.773
207.534	23.891	1204.959	942.656
208.548	24.137	1203.572	942.791
209.563	24.035	1203.131	941.824
210.577	24.045	1201.774	940.731
211.592	24.318	1201.721	942.047
212.607	24.637	1201.153	943.203
213.621	24.774	1200.517	943.342
214.636	24.379	1199.505	940.381
215.650	24.364	1199.389	940.130
216.665	24.281	1199.261	939.506
217.680	24.639	1198.391	940.628
218.694	24.685	1196.234	939.092
219.709	24.516	1196.113	938.030
220.723	24.666	1194.148	937.191
221.738	24.283	1195.197	935.920
222.753	24.329	1193.590	934.821
223.767	24.152	1193.000	933.351
224.782	24.462	1193.397	935.200
225.796	24.967	1192.588	937.126
226.811	24.614	1191.975	934.715
227.826	24.459	1190.859	932.948
228.840	24.435	1189.834	931.937
229.855	24.156	1189.163	929.877
230.869	24.202	1188.941	929.858
231.884	24.112	1187.383	928.091
232.899	23.946	1185.982	926.046
233.913	23.910	1185.572	925.458
234.928	24.155	1185.323	926.457
235.942	24.190	1184.310	925.761
236.957	23.958	1182.655	923.185
237.972	23.870	1182.615	922.617
238.986	23.935	1181.581	922.063
240.001	23.790	1182.208	921.718
241.015	23.910	1179.754	920.345
242.030	23.724	1180.923	920.211
243.045	24.267	1179.858	922.110
244.059	24.348	1178.539	921.415
245.074	24.570	1177.736	921.854
246.088	24.660	1177.740	922.239
247.103	24.735	1176.601	921.654
248.117	24.769	1175.899	921.197
249.132	25.092	1174.934	922.022
250.147	25.013	1175.709	922.142
251.161	25.475	1174.472	923.462
252.176	25.086	1174.469	921.380
253.190	25.160	1173.945	921.268
254.205	25.268	1172.236	920.399
255.220	25.262	1172.704	920.653
256.234	25.205	1171.478	919.318
257.249	25.287	1171.539	919.704
258.263	25.091	1171.794	918.818
259.278	25.102	1170.717	917.952
260.293	25.253	1168.624	916.999
261.307	25.203	1169.496	917.343
262.322	25.130	1168.949	916.465
263.336	25.261	1167.653	916.034
264.351	25.496	1165.936	915.802
265.366	25.514	1167.019	916.667
266.380	25.578	1165.178	915.465
267.395	25.202	1164.503	912.940
268.409	25.005	1164.601	911.932
269.424	24.997	1163.347	910.828
270.439	25.052	1163.471	911.127
271.453	25.378	1160.637	910.477
272.468	25.031	1161.315	909.169
273.482	24.840	1160.121	907.187
274.497	24.761	1159.849	906.492
275.512	24.875	1158.860	906.218
276.526	24.694	1158.160	904.673
277.541	25.210	1156.753	906.102
278.555	24.864	1157.602	904.937
279.570	24.845	1157.950	905.031
280.585	25.312	1155.819	905.645
281.599	25.153	1154.940	904.073
282.614	25.126	1153.687	902.875
283.628	24.858	1152.600	900.596
284.643	24.796	1152.498	900.128
285.657	24.896	1150.878	899.286
286.672	25.075	1150.015	899.430
287.687	24.808	1149.886	897.907
288.701	25.050	1148.905	898.275
289.716	24.723	1148.819	896.488
290.730	25.157	1147.704	897.715
291.745	24.973	1146.361	895.665
292.760	25.026	1145.527	895.197
293.774	25.364	1145.105	896.477
294.789	25.329	1145.442	896.485
295.803	25.171	1145.843	895.931
296.818	24.962	1144.790	893.983
297.833	24.886	1143.358	892.408
298.847	25.137	1141.955	892.484
299.862	25.075	1141.004	891.352
300.876	24.829	1141.523	890.456
301.891	25.218	1139.899	891.041
302.906	25.488	1140.115	892.476
303.920	25.503	1139.421	891.927
304.935	25.743	1138.975	892.687
305.949	25.689	1138.567	892.023
306.964	25.721	1137.528	891.288
307.979	25.353	1136.766	888.792
308.993	25.235	1136.268	887.740
310.008	25.628	1134.535	888.245
311.022	25.538	1135.002	888.090
312.037	25.529	1133.825	887.046
313.052	25.232	1132.120	884.169
314.066	25.271	1131.046	883.443
315.081	25.122	1130.433	882.155
316.095	24.678	1130.402	879.866
317.110	24.820	1129.199	879.552
318.125	25.263	1127.068	879.987
319.139	24.613	1128.124	877.541
320.154	24.958	1126.586	877.958
321.168	24.913	1126.125	877.303
322.183	24.968	1125.468	876.984
323.197	24.775	1126.476	876.743
324.212	25.111	1124.676	876.910
325.227	25.055	1125.183	876.952
326.241	25.182	1123.837	876.446
327.256	25.001	1123.915	875.547
328.270	24.861	1122.366	873.579
329.285	25.090	1121.644	874.057
330.300	25.070	1121.629	873.871
331.314	25.065	1119.286	871.945
332.329	24.917	1118.714	870.701
333.343	24.807	1117.910	869.461
334.358	25.328	1117.634	871.702
335.373	25.449	1117.197	871.871
336.387	25.074	1117.665	870.337
337.402	25.387	1116.271	870.692
338.416	25.648	1114.873	870.791
339.431	25.722	1114.365	870.674
340.446	25.631	1114.259	870.071
341.460	25.590	1114.855	870.263
342.475	26.047	1113.010	870.954
343.489	26.144	1111.819	870.414
344.504	25.903	1111.329	868.790
345.519	26.007	1109.662	867.912
346.533	26.088	1109.119	867.798
347.548	26.324	1109.173	868.897
348.562	26.185	1108.394	867.541
349.577	25.832	1107.637	865.180
350.592	25.268	1107.627	862.383
351.606	24.955	1105.973	859.520
352.621	25.202	1104.629	859.583
353.635	25.267	1103.028	858.571
354.650	25.278	1103.123	858.624
355.665	25.476	1102.409	858.937
356.679	25.543	1101.779	858.688
357.694	25.262	1102.880	858.128
358.708	25.743	1101.408	859.206
359.723	25.430	1101.533	857.729
360.738	25.462	1099.428	856.170
361.752	25.321	1100.311	856.106
362.767	25.219	1099.517	854.928
363.781	25.528	1098.327	855.400
364.796	25.963	1096.979	856.339
365.810	26.004	1097.121	856.569
366.825	26.156	1096.896	857.037
367.840	26.182	1096.849	857.052
368.854	26.431	1095.526	857.122
369.869	26.292	1094.715	855.754
370.883	26.036	1094.570	854.351
371.898	25.903	1093.571	852.868
372.913	25.672	1092.715	851.029
373.927	26.002	1091.939	851.911
374.942	26.430	1092.217	854.074
375.956	26.056	1091.990	852.052
376.971	26.140	1090.810	851.456
377.986	26.115	1090.401	850.942
379.000	26.138	1090.138	850.770
380.015	26.303	1089.745	851.164
381.029	26.447	1089.230	851.363
382.044	26.162	1089.187	849.913
383.059	26.181	1087.758	848.815
384.073	26.090	1086.619	847.423
385.088	26.517	1085.517	848.490
386.102	25.998	1085.619	846.059
387.117	26.100	1084.010	845.209
388.132	25.848	1082.361	842.669
389.146	26.095	1081.537	843.108
390.161	25.641	1081.775	841.098
391.175	25.541	1080.810	839.808
392.190	25.659	1081.073	840.489
393.205	26.222	1079.899	842.125
394.219	26.345	1078.747	841.726
395.234	25.916	1077.898	838.991
396.248	25.794	1076.581	837.325
397.263	25.731	1076.274	836.719
398.278	25.807	1075.561	836.445
399.292	25.680	1075.102	835.425
400.307	25.666	1075.250	835.401
401.321	25.865	1073.159	834.624
402.336	25.288	1072.734	831.547
403.350	25.531	1072.043	832.064
404.365	25.716	1071.351	832.308
405.380	25.956	1071.026	833.091
406.394	25.904	1069.615	831.681
407.409	25.828	1070.274	831.767
408.423	26.030	1070.067	832.467
409.438	26.440	1068.235	832.853
410.453	26.418	1067.357	831.994
411.467	26.515	1066.632	831.804
412.482	26.371	1066.640	831.075
413.496	26.453	1066.049	830.918
414.511	26.567	1064.333	830.029
415.526	26.542	1065.145	830.475
416.540	26.767	1065.315	831.566
417.555	26.854	1063.352	830.358
418.569	26.491	1063.462	828.708
419.584	26.421	1063.038	827.982
420.599	26.157	1062.743	826.472
421.613	153.695	1405.037	1793.015
422.628	141.285	1454.931	1793.004
