DTS Sentinel unit serial number:	SN413079Multiplexer serial number:	ORYXHardware model number:	OX4-SRSoftware version number:	ORYX F/W v4.00 Oryx Data Collector v3.7.2.0data status	okinstallation	princeton_trtdifferential loss correction	single-endedforward channel	channel 2reverse channel	N/Adate	2019/09/18time	19:23:35forward acquisition time	60.00reverse acquisition time	0.00gamma	496.2192k internal	0.2326k external	0.2326temperature offset calibration	1.0034default loss term (dB/km)	0.3790temperature slope calibration	1.0000multiplexer offset coefficient	1.0000multiplexer slope coefficient	1.0000fibre end	0.00T internal ref (°C)	33.56T ext. ref 1 (°C)	1.10T ext. ref 2 (°C)	22.90length (m)	temperature (°C)	Stokes	anti-Stokes-747.200	228.491	-0.185	0.304
-746.185	12.970	-0.081	-0.063
-745.171	-200.000	0.041	-0.205
-744.156	800.000	-0.044	-0.148
-743.142	308.259	0.063	-0.118
-742.127	-35.105	0.140	-0.077
-741.112	128.805	-0.209	-0.269
-740.098	-110.031	0.290	-0.061
-739.083	800.000	0.028	-0.083
-738.069	292.496	-0.213	-0.392
-737.054	171.423	-0.136	-0.197
-736.039	596.314	-0.108	-0.269
-735.025	-200.000	0.033	0.297
-734.010	-1.156	0.369	-0.263
-732.996	386.129	-0.109	-0.226
-731.981	-200.000	0.008	-0.633
-730.966	-4.891	-0.270	-0.188
-729.952	-200.000	0.006	0.187
-728.937	-68.579	-0.447	-0.175
-727.923	-118.012	0.098	0.018
-726.908	-22.789	-0.243	-0.148
-725.894	-61.777	0.284	-0.120
-724.879	-46.193	-0.223	-0.111
-723.864	-79.634	-0.135	-0.046
-722.850	-200.000	-0.193	-0.001
-721.835	377.502	-0.015	0.032
-720.821	-12.583	-0.154	0.101
-719.806	-154.525	0.377	-0.025
-718.791	800.000	-0.121	0.341
-717.777	-139.218	0.184	0.020
-716.762	251.255	0.024	0.042
-715.748	310.195	0.116	0.219
-714.733	-78.039	-0.137	0.048
-713.718	63.084	-0.176	-0.177
-712.704	256.813	0.083	0.144
-711.689	-11.494	-0.225	-0.149
-710.675	55.933	-0.170	-0.166
-709.660	800.000	-0.053	0.229
-708.645	-99.971	-0.143	-0.036
-707.631	-5.027	0.351	-0.244
-706.616	0.796	-0.260	-0.187
-705.602	-31.166	-0.288	0.164
-704.587	-74.720	0.118	0.043
-703.572	104.355	0.191	0.227
-702.558	45.661	-0.165	-0.153
-701.543	43.162	-0.092	-0.085
-700.529	-183.750	-0.570	0.010
-699.514	22.425	0.023	0.019
-698.499	-25.137	0.309	0.185
-697.485	-142.547	0.118	-0.012
-696.470	-139.544	-0.269	0.029
-695.456	-200.000	0.001	-0.209
-694.441	176.174	0.091	-0.133
-693.426	126.708	0.209	0.267
-692.412	52.023	-0.172	0.165
-691.397	-9.713	0.067	0.045
-690.383	137.324	-0.089	-0.118
-689.368	-53.271	-0.084	0.039
-688.354	-28.522	0.143	0.083
-687.339	-200.000	-0.299	0.000
-686.324	83.974	0.267	-0.294
-685.310	-25.700	-0.140	0.083
-684.295	748.260	0.090	-0.245
-683.281	164.231	0.033	0.046
-682.266	-140.330	-0.299	0.031
-681.251	-200.000	0.048	-0.266
-680.237	-200.000	-0.012	-0.096
-679.222	166.790	0.069	0.099
-678.208	-52.269	0.553	0.258
-677.193	65.283	-0.028	0.028
-676.178	-143.033	-0.247	0.024
-675.164	-24.783	0.307	0.183
-674.149	143.357	0.023	0.031
-673.135	86.362	0.208	-0.231
-672.120	86.193	0.120	-0.133
-671.105	330.746	-0.129	-0.251
-670.091	789.289	0.117	-0.324
-669.076	64.820	-0.332	0.337
-668.062	697.027	0.024	0.064
-667.047	547.204	0.145	0.350
-666.032	10.096	-0.112	0.086
-665.018	-116.523	-0.342	0.063
-664.003	-177.295	0.151	-0.004
-662.989	-163.179	0.185	0.009
-661.974	207.695	-0.134	0.210
-660.959	-13.929	0.304	0.198
-659.945	-200.000	0.079	-0.396
-658.930	12.495	-0.087	-0.068
-657.916	199.894	-0.187	-0.289
-656.901	-85.769	0.355	0.111
-655.886	58.437	-0.153	-0.151
-654.872	800.000	-0.064	-0.242
-653.857	111.770	-0.173	-0.210
-652.843	76.710	-0.151	0.161
-651.828	-80.656	-0.137	0.046
-650.814	548.815	0.147	0.355
-649.799	4.736	0.210	-0.155
-648.784	173.489	-0.071	0.104
-647.770	-8.603	-0.219	0.148
-646.755	-61.142	0.084	-0.036
-645.741	-35.519	-0.237	-0.129
-644.726	296.976	0.037	-0.068
-643.711	-75.925	-0.362	0.129
-642.697	40.205	0.133	0.120
-641.682	-37.376	0.074	0.039
-640.668	-48.374	0.135	0.066
-639.653	571.135	-0.077	0.189
-638.638	80.905	-0.102	-0.111
-637.624	33.374	0.210	-0.183
-636.609	-72.336	-0.297	-0.110
-635.595	772.329	0.050	0.136
-634.580	-60.460	0.113	0.048
-633.565	-64.708	-0.230	-0.094
-632.551	800.000	0.098	0.390
-631.536	-110.848	-0.446	-0.092
-630.522	-44.349	0.291	-0.146
-629.507	-96.394	-0.305	0.081
-628.492	111.442	0.124	0.150
-627.478	-9.066	0.035	-0.024
-626.463	-200.000	-0.030	-0.172
-625.449	-10.584	0.360	-0.239
-624.434	766.347	-0.111	-0.303
-623.419	465.722	-0.150	-0.337
-622.405	741.106	0.083	-0.224
-621.390	-200.000	-0.046	-0.304
-620.376	-101.288	0.422	-0.103
-619.361	800.000	0.094	0.325
-618.346	-165.881	-0.102	-0.004
-617.332	307.614	0.062	-0.116
-616.317	406.680	0.128	0.271
-615.303	-120.790	0.241	-0.041
-614.288	64.287	-0.095	-0.096
-613.273	21.462	-0.135	0.110
-612.259	639.940	-0.081	-0.207
-611.244	163.326	-0.225	-0.317
-610.230	800.000	0.070	0.225
-609.215	-61.248	0.241	0.102
-608.201	-150.512	0.161	0.012
-607.186	-200.000	-0.002	0.197
-606.171	62.851	0.260	0.261
-605.157	-22.682	-0.206	0.125
-604.142	-91.314	0.147	0.042
-603.128	-88.845	0.424	0.126
-602.113	-100.881	-0.311	0.077
-601.098	-129.691	-0.457	-0.063
-600.084	-101.519	0.297	0.072
-599.069	122.685	0.178	0.224
-598.055	-19.351	-0.095	0.059
-597.040	183.347	-0.062	-0.091
-596.025	730.841	0.187	0.501
-595.011	-200.000	0.045	0.232
-593.996	388.928	0.081	0.168
-592.982	14.382	0.064	-0.050
-591.967	51.545	-0.127	-0.121
-590.952	800.000	0.036	-0.139
-589.938	800.000	-0.063	-0.212
-588.923	-200.000	-0.005	0.474
-587.909	800.000	0.038	-0.162
-586.894	-200.000	-0.088	0.395
-585.879	-200.000	0.003	-0.067
-584.865	-99.876	-0.222	-0.056
-583.850	800.000	-0.053	-0.176
-582.836	-200.000	0.012	-0.278
-581.821	593.252	-0.029	-0.071
-580.806	-0.133	-0.197	-0.141
-579.792	-200.000	0.030	-0.249
-578.777	112.172	-0.105	0.127
-577.763	192.928	0.227	-0.344
-576.748	-23.503	0.131	0.079
-575.733	214.407	0.112	0.177
-574.719	25.022	0.188	0.156
-573.704	-200.000	-0.039	0.266
-572.690	512.911	0.110	0.258
-571.675	361.374	0.054	-0.108
-570.661	-200.000	-0.002	-0.202
-569.646	-151.337	-0.210	-0.016
-568.631	-200.000	0.038	0.198
-567.617	-57.984	0.045	0.020
-566.602	-113.027	0.218	0.043
-565.588	155.246	0.016	-0.022
-564.573	76.057	0.140	0.149
-563.558	419.938	-0.063	0.135
-562.544	-200.000	0.007	0.138
-561.529	-44.500	-0.110	-0.055
-560.515	-200.000	-0.037	0.253
-559.500	-24.186	-0.146	0.087
-558.485	13.514	0.265	-0.206
-557.471	553.977	-0.059	0.143
-556.456	-10.515	0.254	-0.168
-555.442	700.825	-0.106	0.279
-554.427	81.156	-0.091	-0.098
-553.412	-200.000	-0.021	-0.370
-552.398	-146.194	0.233	0.020
-551.383	-76.370	0.092	0.032
-550.369	170.510	0.047	-0.067
-549.354	-200.000	-0.011	-0.099
-548.339	-200.000	-0.027	-0.176
-547.325	14.115	-0.303	-0.236
-546.310	-200.000	-0.020	0.132
-545.296	-105.212	-0.350	-0.080
-544.281	215.077	-0.075	0.119
-543.266	148.171	-0.087	0.117
-542.252	-15.518	-0.302	0.193
-541.237	15.448	-0.029	-0.023
-540.223	-11.597	-0.062	-0.041
-539.208	-67.207	-0.355	0.140
-538.193	800.000	0.093	0.367
-537.179	435.825	-0.186	-0.405
-536.164	360.498	0.065	-0.130
-535.150	-62.718	0.113	0.047
-534.135	-200.000	-0.013	0.148
-533.121	-93.243	-0.134	-0.037
-532.106	275.695	-0.074	-0.132
-531.091	509.805	-0.131	-0.305
-530.077	115.653	-0.158	-0.193
-529.062	-124.247	0.167	-0.026
-528.048	184.614	-0.133	0.197
-527.033	-90.968	-0.168	-0.048
-526.018	191.322	-0.069	0.103
-525.004	-19.993	0.080	-0.049
-523.989	-196.798	0.500	-0.003
-522.975	180.396	-0.143	0.210
-521.960	258.048	-0.021	-0.036
-520.945	-143.202	-0.093	0.009
-519.931	312.147	-0.074	-0.139
-518.916	800.000	0.064	-0.188
-517.902	-200.000	-0.053	-0.347
-516.887	10.160	-0.125	-0.095
-515.872	-200.000	0.006	0.124
-514.858	140.388	-0.222	0.292
-513.843	5.687	-0.287	0.212
-512.829	141.523	-0.082	-0.108
-511.814	-153.605	0.105	0.007
-510.799	-53.423	-0.185	0.085
-509.785	800.000	0.071	0.199
-508.770	526.435	0.134	0.315
-507.756	800.000	0.134	0.492
-506.741	202.413	-0.038	0.058
-505.726	-132.612	0.238	0.031
-504.712	-164.047	0.312	0.014
-503.697	-200.000	-0.003	0.136
-502.683	-140.163	0.246	-0.026
-501.668	217.996	0.145	-0.231
-500.653	-14.477	0.080	0.052
-499.639	800.000	-0.094	0.289
-498.624	800.000	0.087	-0.251
-497.610	-107.112	0.235	-0.052
-496.595	800.000	-0.010	0.033
-495.581	532.821	0.059	0.141
-494.566	545.990	-0.148	-0.353
-493.551	800.000	0.021	0.087
-492.537	115.176	-0.062	0.075
-491.522	94.344	-0.083	0.095
-490.508	46.205	0.215	0.199
-489.493	-200.000	-0.038	0.298
-488.478	-22.042	-0.048	0.029
-487.464	800.000	-0.057	-0.229
-486.449	-126.608	-0.079	0.012
-485.435	45.759	-0.141	-0.130
-484.420	169.409	-0.077	-0.109
-483.405	285.068	0.065	-0.116
-482.391	-84.313	0.447	-0.141
-481.376	-200.000	0.035	-0.160
-480.362	-142.371	0.279	-0.027
-479.347	98.301	-0.106	0.122
-478.332	-131.468	0.313	0.041
-477.318	0.945	-0.130	0.093
-476.303	-200.000	0.005	0.255
-475.289	800.000	0.025	-0.087
-474.274	800.000	-0.097	0.326
-473.259	-41.457	0.224	-0.115
-472.245	-49.976	-0.268	-0.127
-471.230	290.863	-0.138	-0.250
-470.216	-40.756	-0.148	0.077
-469.201	53.307	-0.128	0.122
-468.186	-23.773	0.217	0.130
-467.172	68.402	0.216	-0.221
-466.157	-32.280	-0.160	-0.089
-465.143	326.121	-0.157	0.299
-464.128	800.000	0.089	-0.321
-463.113	800.000	0.059	0.175
-462.099	-110.728	0.193	-0.040
-461.084	-200.000	-0.036	-0.221
-460.070	173.794	-0.065	-0.094
-459.055	-67.736	-0.202	0.079
-458.040	-17.346	0.250	0.157
-457.026	-15.854	0.195	-0.124
-456.011	686.685	0.112	0.292
-454.997	-200.000	0.002	-0.339
-453.982	800.000	0.085	-0.336
-452.968	-110.889	0.327	0.067
-451.953	-159.495	-0.112	-0.006
-450.938	800.000	0.033	0.108
-449.924	-42.717	0.206	0.105
-448.909	-200.000	-0.009	0.213
-447.895	800.000	-0.076	0.306
-446.880	-79.620	-0.215	0.072
-445.865	-91.217	-0.144	0.041
-444.851	-200.000	0.023	-0.321
-443.836	800.000	-0.136	-0.434
-442.822	668.257	-0.131	-0.338
-441.807	71.251	0.140	-0.144
-440.792	-43.078	-0.399	0.202
-439.778	-45.452	-0.354	-0.175
-438.763	-6.899	-0.049	-0.033
-437.749	-93.149	-0.246	0.068
-436.734	-42.733	0.197	-0.100
-435.719	-200.000	0.013	0.233
-434.705	365.087	0.091	0.183
-433.690	-77.396	-0.190	-0.066
-432.676	36.702	0.089	0.078
-431.661	-3.389	0.272	-0.189
-430.646	-43.666	0.431	-0.216
-429.632	-200.000	0.014	0.136
-428.617	-100.978	-0.104	0.025
-427.603	247.046	-0.055	0.093
-426.588	800.000	0.030	-0.083
-425.573	-113.037	0.205	0.040
-424.559	-200.000	0.010	-0.193
-423.544	-94.276	-0.094	-0.026
-422.530	-200.000	-0.018	-0.108
-421.515	-93.866	0.153	-0.042
-420.500	510.545	-0.096	0.221
-419.486	-32.083	-0.201	0.112
-418.471	138.696	-0.090	-0.118
-417.457	800.000	-0.086	-0.309
-416.442	101.913	0.082	-0.096
-415.428	800.000	-0.080	0.239
-414.413	308.669	0.113	0.210
-413.398	182.876	-0.184	-0.270
-412.384	-200.000	0.020	-0.247
-411.369	613.944	-0.116	0.289
-410.355	-136.190	-0.342	0.040
-409.340	602.551	0.114	0.283
-408.325	16.964	0.239	-0.188
-407.311	-123.552	-0.343	-0.054
-406.296	-127.663	-0.488	-0.070
-405.282	-149.538	0.145	-0.011
-404.267	18.942	0.178	0.142
-403.252	-143.819	-0.171	0.016
-402.238	-37.583	0.159	0.084
-401.223	0.921	-0.266	0.190
-400.209	-200.000	-0.069	0.519
-399.194	-132.740	0.162	-0.021
-398.179	-36.681	-0.336	-0.180
-397.165	53.027	-0.172	-0.164
-396.150	-133.430	0.149	-0.019
-395.136	-64.230	0.126	0.051
-394.121	-61.013	-0.339	-0.142
-393.106	143.206	0.044	-0.058
-392.092	-200.000	-0.002	-0.116
-391.077	280.755	0.113	0.201
-390.063	-200.000	0.032	-0.162
-389.048	70.195	-0.045	0.046
-388.033	-200.000	0.079	-0.345
-387.019	800.000	-0.038	-0.141
-386.004	-10.048	0.071	-0.047
-384.990	800.000	-0.033	-0.099
-383.975	-200.000	0.021	-0.196
-382.960	397.362	-0.027	-0.057
-381.946	355.760	-0.099	-0.197
-380.931	21.181	0.166	0.134
-379.917	-200.000	-0.015	0.169
-378.902	128.050	0.183	-0.232
-377.888	331.565	-0.093	-0.179
-376.873	36.033	-0.124	-0.109
-375.858	88.476	0.203	0.224
-374.844	-50.804	0.045	-0.021
-373.829	-66.018	-0.160	-0.063
-372.815	354.495	0.115	-0.228
-371.800	-200.000	0.014	0.134
-370.785	-70.689	0.120	0.045
-369.771	800.000	0.075	-0.228
-368.756	-169.004	0.151	-0.006
-367.742	187.425	0.063	0.093
-366.727	800.000	-0.058	0.209
-365.712	411.848	0.113	-0.237
-364.698	-83.440	-0.182	0.058
-363.683	-118.620	0.061	-0.011
-362.669	521.589	-0.083	0.193
-361.654	-200.000	-0.025	0.174
-360.639	-100.602	0.182	0.045
-359.625	113.237	-0.212	0.255
-358.610	-48.067	-0.051	-0.025
-357.596	-200.000	0.003	-0.061
-356.581	0.256	-0.140	0.099
-355.566	310.973	-0.087	-0.161
-354.552	179.100	0.146	0.212
-353.537	-30.926	0.144	-0.081
-352.523	107.795	-0.113	-0.134
-351.508	-2.446	-0.174	-0.121
-350.493	32.272	-0.181	0.155
-349.479	-111.579	-0.281	-0.057
-348.464	-143.295	0.462	0.044
-347.450	-151.709	-0.142	0.010
-346.435	-99.941	0.138	0.034
-345.420	720.421	-0.058	0.154
-344.406	51.419	-0.082	-0.077
-343.391	-91.450	-0.165	-0.047
-342.377	-10.888	0.131	0.086
-341.362	-25.303	-0.243	-0.143
-340.348	-124.715	-0.229	-0.035
-339.333	304.791	-0.121	0.222
-338.318	9.967	-0.108	0.082
-337.304	-200.000	0.009	-0.332
-336.289	-76.518	0.233	0.081
-335.275	-58.706	-0.350	-0.150
-334.260	-41.905	-0.131	-0.067
-333.245	-69.005	0.207	-0.079
-332.231	266.217	-0.095	-0.165
-331.216	-142.290	0.072	-0.007
-330.202	145.104	0.081	-0.108
-329.187	415.199	0.037	-0.078
-328.172	-12.731	0.166	0.107
-327.158	-52.486	0.220	-0.101
-326.143	34.197	-0.131	0.113
-325.129	-107.985	0.078	0.017
-324.114	768.288	-0.020	-0.054
-323.099	353.958	0.035	0.070
-322.085	-200.000	-0.031	-0.171
-321.070	-14.316	-0.347	0.222
-320.056	-62.450	0.088	-0.036
-319.041	6.064	-0.223	0.164
-318.026	-83.591	-0.229	0.073
-317.012	-200.000	-0.007	-0.150
-315.997	-200.000	-0.024	-0.122
-314.983	-200.000	0.014	0.121
-313.968	-84.590	0.168	-0.052
-312.953	-163.701	0.162	0.008
-311.939	-2.674	0.061	-0.042
-310.924	-200.000	-0.031	0.155
-309.910	530.003	0.021	0.048
-308.895	126.881	0.194	-0.244
-307.880	33.032	0.047	-0.040
-306.866	-57.732	0.173	0.075
-305.851	-131.181	-0.195	0.026
-304.837	-134.929	-0.068	-0.008
-303.822	-200.000	0.093	0.489
-302.807	-200.000	-0.018	0.245
-301.793	41.875	-0.150	-0.135
-300.778	-161.789	0.362	0.018
-299.764	-200.000	-0.025	0.152
-298.749	-46.539	0.198	-0.096
-297.735	23.707	0.204	0.167
-296.720	-33.313	0.094	0.051
-295.705	-50.259	0.209	0.098
-294.691	13.750	0.140	-0.108
-293.676	-104.859	0.171	-0.039
-292.662	-44.319	0.063	-0.032
-291.647	-6.654	-0.132	-0.089
-290.632	-200.000	0.084	0.439
-289.618	98.165	0.185	0.211
-288.603	-200.000	0.198	-0.000
-287.589	-200.000	0.027	-0.348
-286.574	32.000	0.113	-0.096
-285.559	5.581	0.225	0.164
-284.545	17.911	0.100	0.079
-283.530	-20.428	-0.197	-0.120
-282.516	104.829	0.249	-0.290
-281.501	-25.408	0.093	-0.055
-280.486	-200.000	0.011	0.189
-279.472	7.796	-0.248	0.184
-278.457	-200.000	0.276	-0.001
-277.443	24.959	0.177	-0.146
-276.428	-172.486	0.226	0.007
-275.413	-125.825	-0.126	0.019
-274.399	800.000	0.034	0.097
-273.384	37.152	0.254	0.222
-272.370	-134.263	-0.268	0.033
-271.355	164.029	-0.088	0.123
-270.340	96.022	0.038	-0.043
-269.326	-71.261	-0.112	-0.042
-268.311	250.411	-0.162	0.273
-267.297	-200.000	0.003	0.150
-266.282	-75.946	-0.283	0.099
-265.267	-105.210	0.332	-0.075
-264.253	586.512	-0.088	0.214
-263.238	267.930	-0.087	0.151
-262.224	105.879	-0.191	-0.223
-261.209	-170.855	-0.251	0.009
-260.195	-37.271	0.167	0.088
-259.180	-57.542	0.500	0.217
-258.165	-97.705	0.264	0.068
-257.151	208.889	-0.148	-0.229
-256.136	-200.000	-0.037	-0.174
-255.122	36.350	-0.150	0.131
-254.107	-87.996	-0.270	0.080
-253.092	-152.923	-0.254	-0.018
-252.078	155.021	-0.195	-0.266
-251.063	-52.047	0.312	-0.144
-250.049	50.472	0.098	0.092
-249.034	37.920	-0.243	-0.214
-248.019	-195.291	0.438	0.003
-247.005	97.054	0.182	0.206
-245.990	-200.000	0.038	0.202
-244.976	-73.399	-0.155	-0.056
-243.961	234.266	0.158	-0.257
-242.946	80.468	-0.113	-0.121
-241.932	125.380	-0.176	-0.219
-240.917	-23.544	0.224	-0.133
-239.903	-110.126	-0.398	-0.082
-238.888	453.585	-0.117	0.257
-237.873	61.855	-0.116	0.114
-236.859	105.925	0.109	-0.128
-235.844	-200.000	0.020	-0.494
-234.830	-59.182	-0.255	0.108
-233.815	12.629	0.028	0.021
-232.800	95.691	0.080	0.091
-231.786	-88.143	0.175	0.052
-230.771	214.995	0.070	-0.110
-229.757	238.971	-0.191	0.314
-228.742	10.652	0.120	-0.091
-227.727	104.001	0.347	-0.403
-226.713	-200.000	-0.002	-0.286
-225.698	-73.858	-0.213	0.077
-224.684	-200.000	-0.020	-0.108
-223.669	-200.000	0.022	-0.267
-222.655	-82.323	0.279	0.090
-221.640	94.765	-0.114	-0.128
-220.625	249.452	0.260	-0.436
-219.611	-200.000	-0.014	0.066
-218.596	-200.000	0.041	-0.278
-217.582	-116.862	-0.102	-0.018
-216.567	-92.952	-0.448	-0.123
-215.552	-101.512	0.228	-0.055
-214.538	-200.000	0.001	0.394
-213.523	-134.376	-0.222	-0.027
-212.509	26.326	-0.208	0.172
-211.494	-200.000	0.043	0.234
-210.479	-200.000	-0.052	-0.369
-209.465	41.817	-0.162	0.145
-208.450	107.078	0.165	0.193
-207.436	21.957	0.131	0.105
-206.421	-47.039	0.006	-0.003
-205.406	369.214	0.062	-0.125
-204.392	23.092	0.307	0.249
-203.377	362.671	0.085	0.169
-202.363	800.000	-0.060	-0.182
-201.348	742.789	0.125	-0.332
-200.333	-200.000	-0.011	-0.296
-199.319	113.868	0.088	-0.106
-198.304	25.499	-0.246	0.202
-197.290	216.147	-0.237	-0.372
-196.275	84.441	-0.086	0.093
-195.260	3.966	0.050	0.036
-194.246	-82.336	-0.069	-0.022
-193.231	-14.078	-0.041	0.026
-192.217	370.605	-0.105	-0.211
-191.202	-200.000	-0.046	0.450
-190.187	-16.858	-0.231	0.144
-189.173	-86.375	0.116	-0.035
-188.158	-200.000	0.059	-0.318
-187.144	-200.000	-0.027	-0.163
-186.129	800.000	-0.072	0.270
-185.114	46.370	-0.086	-0.079
-184.100	-200.000	-0.007	0.032
-183.085	66.502	-0.261	0.261
-182.071	48.677	0.110	0.102
-181.056	-200.000	0.030	-0.203
-180.042	-98.432	-0.186	-0.047
-179.027	406.939	0.077	-0.160
-178.012	-24.677	0.306	-0.179
-176.998	-12.434	0.175	-0.113
-175.983	-119.140	0.074	0.013
-174.969	444.568	-0.102	0.220
-173.954	44.879	-0.122	0.111
-172.939	-200.000	0.011	-0.359
-171.925	-181.932	0.291	-0.005
-170.910	401.592	0.077	0.160
-169.896	423.397	-0.039	-0.083
-168.881	800.000	-0.098	-0.332
-167.866	-81.878	-0.168	-0.054
-166.852	-200.000	0.045	0.225
-165.837	197.469	-0.208	0.313
-164.823	-200.000	-0.064	0.323
-163.808	-200.000	-0.009	-0.330
-162.793	-200.000	0.010	0.107
-161.779	-112.262	-0.147	0.029
-160.764	14.641	0.258	0.198
-159.750	-160.007	-0.230	0.012
-158.735	292.187	0.124	0.223
-157.720	82.336	-0.098	-0.104
-156.706	97.537	-0.149	-0.169
-155.691	-137.365	0.499	0.056
-154.677	330.033	0.114	0.216
-153.662	14.156	0.148	0.114
-152.647	-200.000	0.001	-0.220
-151.633	-16.732	-0.299	0.187
-150.618	252.262	0.073	-0.123
-149.604	-76.483	0.383	0.133
-148.589	84.391	0.042	-0.045
-147.574	-79.135	-0.162	0.054
-146.560	800.000	-0.098	0.306
-145.545	-7.668	0.178	0.118
-144.531	-139.049	-0.148	-0.016
-143.516	-81.682	0.201	-0.065
-142.502	-100.377	0.190	-0.046
-141.487	105.175	-0.090	-0.105
-140.472	-183.181	0.275	-0.005
-139.458	60.547	-0.112	-0.109
-138.443	127.641	-0.126	-0.158
-137.429	-9.513	-0.247	-0.162
-136.414	800.000	-0.052	0.213
-135.399	-200.000	-0.038	0.247
-134.385	-170.526	-0.064	0.002
-133.370	800.000	0.046	0.145
-132.356	-1.135	-0.228	0.158
-131.341	33.801	-0.154	0.132
-130.326	-200.000	0.034	0.329
-129.312	-7.786	-0.259	0.172
-128.297	103.454	-0.104	-0.120
-127.283	-200.000	-0.009	0.077
-126.268	-105.725	-0.151	0.034
-125.253	-200.000	-0.042	-0.251
-124.239	43.832	-0.244	0.220
-123.224	-50.972	-0.113	-0.052
-122.210	387.863	-0.171	-0.348
-121.195	283.055	0.102	0.180
-120.180	-58.478	0.123	0.052
-119.166	-116.734	0.207	-0.037
-118.151	800.000	0.037	0.138
-117.137	-63.320	-0.180	-0.073
-116.122	341.605	-0.079	-0.153
-115.107	-123.761	0.067	0.010
-114.093	684.342	0.037	0.094
-113.078	-55.033	-0.133	-0.059
-112.064	800.000	0.107	-0.341
-111.049	-24.001	-0.070	0.041
-110.034	-65.306	-0.089	-0.035
-109.020	201.453	-0.095	0.144
-108.005	-58.152	-0.306	-0.131
-106.991	-200.000	0.010	0.294
-105.976	-67.220	-0.096	-0.037
-104.962	-200.000	0.039	0.366
-103.947	-200.000	0.006	0.042
-102.932	-57.722	0.274	-0.118
-101.918	-200.000	-0.013	0.222
-100.903	-35.079	0.517	0.277
-99.889	152.147	0.112	-0.150
-98.874	80.175	0.059	-0.062
-97.859	800.000	-0.064	0.239
-96.845	-78.375	0.347	0.117
-95.830	231.473	-0.133	-0.214
-94.816	800.000	-0.053	-0.195
-93.801	-61.897	0.264	-0.108
-92.786	-117.961	0.442	0.078
-91.772	-200.000	-0.001	-0.169
-90.757	-200.000	-0.030	-0.134
-89.743	-166.017	-0.281	-0.012
-88.728	631.718	-0.109	-0.270
-87.713	-200.000	-0.033	0.184
-86.699	-36.503	0.313	-0.166
-85.684	-200.000	0.000	-0.056
-84.670	-200.000	0.004	0.130
-83.655	-200.000	0.007	0.053
-82.640	800.000	0.044	-0.177
-81.626	14.726	0.115	-0.089
-80.611	-10.037	-0.216	-0.141
-79.597	36.204	-0.239	-0.207
-78.582	121.213	-0.119	-0.146
-77.567	-200.000	-0.008	-0.056
-76.553	56.127	0.181	-0.173
-75.538	-6.036	-0.072	0.048
-74.524	93.350	0.345	-0.383
-73.509	-63.196	0.361	0.146
-72.494	492.740	-0.017	-0.038
-71.480	-66.148	-0.275	0.108
-70.465	96.143	-0.081	-0.090
-69.451	6.215	0.012	0.009
-68.436	250.293	0.072	-0.119
-67.422	136.266	-0.251	0.321
-66.407	268.774	-0.079	0.135
-65.392	-31.232	0.103	0.057
-64.378	21.950	-0.122	-0.098
-63.363	-149.255	0.138	0.011
-62.349	326.241	-0.094	-0.176
-61.334	60.018	-0.955	-0.926
-60.319	692.225	0.301	0.774
-59.305	488.823	-0.379	-0.850
-58.290	152.574	0.700	0.938
-57.276	800.000	0.529	1.487
-56.261	-200.000	94.072	573.109
-55.246	549.210	1375.159	3235.233
-54.232	161.096	2556.147	3506.745
-53.217	106.890	2276.235	2652.975
-52.203	42.871	1906.892	1705.887
-51.188	36.968	1696.879	1473.253
-50.173	34.196	1653.562	1415.023
-49.159	51.807	1698.878	1586.672
-48.144	53.374	1715.061	1613.505
-47.130	36.428	1677.152	1451.838
-46.115	33.678	1662.921	1418.931
-45.100	33.562	1657.402	1413.302
-44.086	33.487	1655.139	1410.754
-43.071	33.523	1652.170	1408.434
-42.057	33.479	1650.049	1406.245
-41.042	33.482	1648.130	1404.578
-40.027	33.495	1646.150	1402.930
-39.013	33.368	1644.860	1400.834
-37.998	33.398	1643.110	1399.513
-36.984	33.473	1641.854	1398.937
-35.969	33.467	1640.185	1397.417
-34.954	33.527	1638.469	1396.340
-33.940	33.639	1636.130	1395.115
-32.925	33.543	1634.910	1393.319
-31.911	33.448	1633.699	1391.530
-30.896	33.539	1631.820	1390.543
-29.881	33.475	1630.449	1388.851
-28.867	33.538	1628.493	1387.589
-27.852	33.603	1626.816	1386.586
-26.838	33.594	1625.584	1385.415
-25.823	33.484	1624.111	1383.302
-24.809	33.686	1622.042	1382.951
-23.794	33.593	1620.825	1381.186
-22.779	33.557	1619.899	1380.079
-21.765	33.594	1618.102	1378.764
-20.750	33.609	1616.387	1377.352
-19.736	33.507	1614.836	1375.234
-18.721	33.660	1613.514	1375.165
-17.706	33.686	1611.962	1373.978
-16.692	33.567	1610.875	1372.136
-15.677	33.622	1609.330	1371.161
-14.663	33.701	1607.606	1370.208
-13.648	33.579	1606.655	1368.465
-12.633	33.623	1605.088	1367.395
-11.619	33.722	1603.082	1366.344
-10.604	33.638	1601.809	1364.602
-9.590	33.541	1600.731	1362.928
-8.575	33.567	1599.376	1361.906
-7.560	33.638	1597.731	1360.959
-6.546	33.586	1596.983	1359.900
-5.531	33.606	1596.034	1359.182
-4.517	33.591	1594.877	1358.030
-3.502	33.558	1593.964	1356.966
-2.487	33.669	1592.072	1356.091
-1.473	32.748	1579.249	1338.586
-0.458	28.354	1555.866	1287.904
0.556	22.117	1551.362	1237.999
1.571	18.464	1572.887	1228.919
2.586	17.457	1584.592	1230.676
3.600	15.814	1533.493	1179.378
4.615	9.349	1426.916	1055.028
5.629	2.646	1363.415	965.861
6.644	1.140	1355.078	950.432
7.659	1.141	1353.832	949.483
8.673	1.063	1353.199	948.465
9.688	1.056	1350.920	946.741
10.702	0.923	1347.814	943.653
11.717	3.862	1352.532	965.232
12.731	11.163	1363.628	1018.873
13.746	16.799	1371.127	1059.737
14.761	17.685	1371.661	1065.596
15.775	17.059	1369.730	1060.095
16.790	16.081	1366.960	1051.754
17.804	15.305	1364.517	1044.952
18.819	14.844	1363.356	1041.097
19.834	14.626	1361.500	1038.232
20.848	14.383	1361.029	1036.270
21.863	14.216	1358.993	1033.591
22.877	13.991	1358.149	1031.462
23.892	13.924	1357.007	1030.087
24.907	13.930	1356.107	1029.347
25.921	13.901	1355.990	1028.992
26.936	13.985	1354.651	1028.402
27.950	13.967	1353.574	1027.385
28.965	13.920	1353.061	1026.615
29.980	14.101	1351.788	1026.672
30.994	14.104	1351.079	1026.060
32.009	14.177	1350.435	1025.931
33.023	14.155	1349.025	1024.637
34.038	14.115	1347.603	1023.221
35.053	14.078	1346.962	1022.415
36.067	14.162	1345.077	1021.409
37.082	14.141	1344.767	1020.957
38.096	14.174	1343.651	1020.219
39.111	14.164	1343.024	1019.593
40.126	14.018	1341.811	1017.684
41.140	14.007	1341.313	1017.150
42.155	14.020	1340.808	1016.754
43.169	13.938	1340.945	1016.267
44.184	13.987	1340.348	1016.024
45.199	13.924	1340.043	1015.321
46.213	13.943	1339.856	1015.202
47.228	13.987	1338.503	1014.359
48.242	14.045	1336.876	1013.390
49.257	14.029	1335.732	1012.333
50.271	14.024	1334.371	1011.182
51.286	13.987	1333.368	1010.107
52.301	14.033	1331.861	1009.159
53.315	13.978	1331.304	1008.312
54.330	13.952	1330.050	1007.113
55.344	13.951	1328.734	1006.026
56.359	13.931	1327.889	1005.173
57.374	13.908	1326.757	1004.089
58.388	13.855	1326.316	1003.344
59.403	13.838	1325.640	1002.645
60.417	13.921	1324.846	1002.456
61.432	13.853	1324.248	1001.503
62.447	13.831	1323.106	1000.419
63.461	13.831	1322.360	999.766
64.476	13.823	1321.071	998.654
65.490	13.815	1319.878	997.618
66.505	13.772	1318.302	996.079
67.520	13.889	1316.401	995.257
68.534	13.905	1316.027	994.984
69.549	13.825	1315.291	993.859
70.563	13.754	1313.793	992.212
71.578	13.829	1312.853	991.866
72.593	13.796	1312.020	990.947
73.607	13.791	1311.120	990.154
74.622	13.864	1309.768	989.481
75.636	13.716	1309.836	988.561
76.651	13.770	1308.750	987.974
77.666	13.745	1308.359	987.445
78.680	13.733	1308.067	987.067
79.695	13.869	1306.430	986.549
80.709	13.845	1305.572	985.672
81.724	13.856	1305.183	985.358
82.739	13.839	1304.071	984.331
83.753	13.967	1302.881	984.101
84.768	14.001	1302.019	983.564
85.782	13.988	1301.168	982.758
86.797	13.919	1299.553	981.045
87.812	13.886	1298.544	979.999
88.826	13.871	1296.997	978.661
89.841	13.928	1296.285	978.372
90.855	13.993	1295.566	978.126
91.870	14.010	1294.300	977.184
92.884	13.969	1294.069	976.679
93.899	14.097	1292.858	976.428
94.914	14.048	1291.924	975.350
95.928	13.988	1291.534	974.620
96.943	14.068	1290.352	974.107
97.957	14.001	1289.532	973.010
98.972	14.100	1288.190	972.494
99.987	14.025	1287.498	971.447
101.001	14.038	1286.173	970.433
102.016	14.016	1285.710	969.870
103.030	14.105	1284.151	969.129
104.045	14.127	1283.436	968.634
105.060	14.020	1282.094	966.911
106.074	13.906	1281.185	965.477
107.089	13.851	1280.046	964.216
108.103	13.967	1278.970	963.990
109.118	13.893	1277.248	962.180
110.133	13.960	1276.227	961.712
111.147	13.979	1274.550	960.471
112.162	13.849	1273.922	959.165
113.176	13.915	1272.711	958.551
114.191	13.997	1271.783	958.238
115.206	14.022	1270.434	957.280
116.220	14.019	1269.370	956.380
117.235	14.014	1267.929	955.178
118.249	13.984	1267.540	954.625
119.264	13.976	1265.486	952.953
120.279	13.893	1265.112	952.108
121.293	14.012	1263.960	951.840
122.308	13.929	1263.044	950.589
123.322	13.886	1262.317	949.710
124.337	13.831	1261.286	948.539
125.352	14.003	1259.680	948.229
126.366	13.855	1258.711	946.570
127.381	13.886	1258.171	946.257
128.395	13.878	1257.074	945.302
129.410	13.934	1255.579	944.416
130.424	13.881	1255.480	943.953
131.439	14.001	1253.855	943.331
132.454	14.037	1252.712	942.590
133.468	14.017	1252.382	942.149
134.483	13.984	1251.738	941.393
135.497	13.945	1250.437	940.109
136.512	14.087	1249.078	939.806
137.527	13.872	1248.454	938.038
138.541	13.883	1247.268	937.129
139.556	14.026	1245.479	936.508
140.570	14.075	1244.240	935.770
141.585	14.117	1242.858	934.883
142.600	14.164	1241.888	934.332
143.614	14.194	1240.873	933.656
144.629	14.207	1239.750	932.801
145.643	14.223	1238.430	931.813
146.658	14.093	1237.730	930.481
147.673	14.103	1236.236	929.329
148.687	14.103	1234.847	928.202
149.702	14.088	1233.397	926.947
150.716	14.123	1231.800	925.863
151.731	14.026	1231.228	924.809
152.746	14.039	1230.090	923.944
153.760	14.090	1229.023	923.344
154.775	14.065	1227.789	922.197
155.789	14.175	1226.560	921.803
156.804	14.179	1225.682	921.082
157.819	14.166	1224.761	920.237
158.833	14.301	1223.968	920.303
159.848	14.258	1222.362	918.782
160.862	14.212	1221.752	917.985
161.877	14.326	1220.294	917.435
162.892	14.210	1219.582	916.184
163.906	14.088	1219.145	915.103
164.921	14.340	1217.055	914.834
165.935	14.253	1216.784	914.071
166.950	14.253	1216.206	913.560
167.964	14.403	1215.065	913.445
168.979	14.175	1215.025	912.080
169.994	14.235	1214.090	911.627
171.008	14.345	1212.841	911.214
172.023	14.364	1212.348	910.866
173.037	14.387	1211.327	910.143
174.052	14.499	1209.952	909.640
175.067	14.371	1209.348	908.409
176.081	14.368	1208.466	907.649
177.096	14.342	1207.836	906.952
178.110	14.370	1206.561	906.066
179.125	14.290	1205.607	904.839
180.140	14.420	1204.228	904.425
181.154	14.488	1202.712	903.576
182.169	14.464	1201.804	902.683
183.183	14.508	1200.630	901.964
184.198	14.488	1199.497	900.923
185.213	14.469	1198.561	900.035
186.227	14.557	1197.437	899.586
187.242	14.521	1196.595	898.680
188.256	14.601	1195.448	898.169
189.271	14.503	1194.660	896.975
190.286	14.547	1193.408	896.190
191.300	14.467	1192.796	895.219
192.315	14.496	1192.035	894.728
193.329	14.464	1191.466	894.050
194.344	14.489	1190.739	893.560
195.359	14.431	1190.264	892.813
196.373	14.496	1189.790	892.727
197.388	14.698	1189.039	893.162
198.402	14.612	1188.600	892.294
199.417	14.836	1187.268	892.414
200.432	14.829	1186.582	891.782
201.446	14.662	1186.333	890.625
202.461	14.774	1185.233	890.314
203.475	14.845	1184.079	889.751
204.490	14.729	1183.044	888.272
205.504	14.809	1181.485	887.448
206.519	14.696	1180.469	886.010
207.534	14.761	1179.459	885.515
208.548	14.732	1178.408	884.497
209.563	14.748	1177.406	883.753
210.577	14.759	1176.826	883.293
211.592	14.864	1176.200	883.300
212.607	14.847	1175.119	882.323
213.621	14.787	1174.579	881.522
214.636	14.850	1173.612	881.052
215.650	14.877	1172.550	880.318
216.665	14.883	1171.899	879.783
217.680	14.853	1170.884	878.787
218.694	14.989	1170.145	878.867
219.709	14.990	1169.223	878.100
220.723	14.879	1168.519	876.914
221.738	15.017	1167.833	877.044
222.753	14.961	1167.187	876.190
223.767	15.061	1166.168	875.869
224.782	15.030	1165.435	875.081
225.796	15.100	1165.170	875.167
226.811	15.059	1164.645	874.484
227.826	15.076	1163.924	873.954
228.840	15.097	1163.283	873.501
229.855	15.109	1162.491	872.895
230.869	15.119	1161.373	872.027
231.884	15.162	1160.597	871.594
232.899	15.001	1159.904	870.160
233.913	15.124	1159.170	870.170
234.928	15.138	1158.483	869.652
235.942	15.078	1157.741	868.704
236.957	15.086	1157.003	868.115
237.972	15.090	1156.343	867.566
238.986	15.136	1155.682	867.227
240.001	15.119	1154.889	866.470
241.015	15.228	1153.722	866.084
242.030	15.182	1153.412	865.536
243.045	15.151	1152.685	864.752
244.059	15.253	1151.416	864.247
245.074	15.377	1150.672	864.252
246.088	15.232	1150.300	863.152
247.103	15.230	1149.668	862.591
248.117	15.258	1148.718	861.944
249.132	15.372	1148.396	862.213
250.147	15.462	1147.262	861.747
251.161	15.431	1146.631	861.039
252.176	15.534	1145.927	860.961
253.190	15.612	1144.926	860.534
254.205	15.410	1145.203	859.627
255.220	15.572	1143.797	859.327
256.234	15.644	1143.273	859.225
257.249	15.541	1142.715	858.201
258.263	15.457	1142.457	857.506
259.278	15.530	1141.714	857.243
260.293	15.464	1140.995	856.292
261.307	15.672	1140.268	856.732
262.322	15.687	1139.509	856.163
263.336	15.624	1138.896	855.303
264.351	15.682	1138.646	855.336
265.366	15.734	1137.489	854.655
266.380	15.857	1136.783	854.674
267.395	15.802	1136.103	853.805
268.409	15.692	1135.673	852.852
269.424	15.657	1134.803	851.946
270.439	15.775	1134.445	852.200
271.453	15.759	1133.556	851.372
272.468	15.713	1132.434	850.221
273.482	15.673	1132.436	849.949
274.497	15.674	1131.492	849.167
275.512	15.767	1131.229	849.365
276.526	15.845	1129.935	848.712
277.541	15.762	1129.383	847.803
278.555	15.787	1128.653	847.304
279.570	15.875	1127.858	847.078
280.585	15.920	1126.740	846.390
281.599	15.980	1125.876	845.965
282.614	16.003	1125.061	845.397
283.628	15.894	1124.180	844.113
284.643	15.981	1123.124	843.678
285.657	15.970	1122.432	843.029
286.672	15.977	1121.523	842.309
287.687	16.041	1120.683	841.922
288.701	15.983	1120.188	841.185
289.716	15.973	1119.120	840.259
290.730	16.018	1118.732	840.117
291.745	16.046	1117.800	839.482
292.760	16.078	1117.196	839.115
293.774	16.117	1116.516	838.724
294.789	16.222	1116.122	838.877
295.803	16.096	1115.558	837.751
296.818	16.210	1114.522	837.467
297.833	16.097	1114.012	836.448
298.847	16.084	1113.440	835.878
299.862	16.235	1112.200	835.621
300.876	16.261	1111.574	835.207
301.891	16.177	1111.274	834.493
302.906	16.435	1109.868	834.635
303.920	16.394	1109.506	834.090
304.935	16.296	1108.811	833.009
305.949	16.449	1108.157	833.198
306.964	16.408	1107.944	832.762
307.979	16.419	1107.042	832.067
308.993	16.428	1105.974	831.234
310.008	16.341	1105.272	830.205
311.022	16.418	1104.913	830.239
312.037	16.380	1103.980	829.279
313.052	16.358	1103.074	828.417
314.066	16.325	1102.190	827.516
315.081	16.465	1101.018	827.248
316.095	16.385	1100.715	826.556
317.110	16.408	1099.853	825.947
318.125	16.437	1099.113	825.461
319.139	16.475	1098.098	824.812
320.154	16.426	1097.814	824.289
321.168	16.467	1097.219	823.968
322.183	16.457	1096.672	823.434
323.197	16.474	1096.275	823.147
324.212	16.442	1095.627	822.431
325.227	16.552	1094.911	822.355
326.241	16.518	1094.341	821.689
327.256	16.499	1093.708	821.052
328.270	16.495	1092.543	820.083
329.285	16.458	1091.485	819.039
330.300	16.584	1090.333	818.712
331.314	16.668	1089.645	818.527
332.329	16.586	1088.712	817.359
333.343	16.605	1087.943	816.798
334.358	16.601	1087.251	816.188
335.373	16.622	1086.769	815.854
336.387	16.669	1085.728	815.228
337.402	16.663	1085.086	814.646
338.416	16.605	1084.467	813.829
339.431	16.660	1083.861	813.565
340.446	16.751	1083.292	813.506
341.460	16.751	1082.708	812.996
342.475	16.874	1081.396	812.528
343.489	16.715	1080.986	811.383
344.504	16.923	1079.634	811.296
345.519	16.870	1078.866	810.392
346.533	16.918	1078.206	810.054
347.548	16.788	1077.730	809.005
348.562	16.990	1076.751	809.161
349.577	16.946	1076.120	808.407
350.592	16.881	1075.076	807.241
351.606	16.856	1074.610	806.698
352.621	16.945	1073.925	806.537
353.635	17.014	1072.828	805.970
354.650	16.867	1072.710	805.110
355.665	16.933	1071.601	804.519
356.679	16.967	1070.964	804.133
357.694	17.011	1070.351	803.811
358.708	17.092	1069.939	803.813
359.723	17.059	1069.276	803.087
360.738	16.997	1068.975	802.498
361.752	17.006	1068.294	801.956
362.767	17.016	1067.813	801.575
363.781	17.108	1066.891	801.243
364.796	17.145	1066.198	800.829
365.810	17.222	1065.748	800.780
366.825	17.300	1065.043	800.550
367.840	17.284	1064.586	800.057
368.854	17.262	1063.911	799.377
369.869	17.291	1063.479	799.117
370.883	17.222	1062.750	798.175
371.898	17.371	1061.535	797.892
372.913	17.235	1061.426	797.099
373.927	17.276	1060.949	796.865
374.942	17.244	1060.719	796.470
375.956	17.263	1059.768	795.775
376.971	17.410	1058.489	795.431
377.986	17.385	1058.393	795.171
379.000	17.434	1057.848	794.922
380.015	17.422	1057.298	794.383
381.029	17.530	1056.663	794.337
382.044	17.488	1056.375	793.856
383.059	17.549	1055.551	793.449
384.073	17.546	1054.710	792.734
385.088	17.623	1053.651	792.228
386.102	17.633	1052.579	791.396
387.117	17.623	1051.978	790.830
388.132	17.593	1051.210	790.040
389.146	17.521	1050.358	788.998
390.161	17.517	1049.605	788.341
391.175	17.565	1048.719	787.832
392.190	17.480	1048.189	786.969
393.205	17.598	1047.574	786.982
394.219	17.703	1046.368	786.493
395.234	17.684	1045.711	785.843
396.248	17.580	1044.951	784.719
397.263	17.630	1043.778	784.002
398.278	17.565	1043.459	783.393
399.292	17.595	1042.636	782.845
400.307	17.591	1041.719	782.067
401.321	17.747	1040.698	781.948
402.336	17.596	1040.631	781.135
403.350	17.775	1039.488	781.027
404.365	17.852	1038.894	780.867
405.380	17.630	1038.618	779.572
406.394	17.803	1037.589	779.523
407.409	17.683	1037.071	778.516
408.423	17.871	1036.251	778.691
409.438	17.849	1035.667	778.082
410.453	17.934	1034.959	777.866
411.467	17.825	1034.263	776.782
412.482	17.770	1034.154	776.379
413.496	17.947	1032.905	776.176
414.511	17.983	1032.235	775.768
415.526	18.101	1031.898	775.983
416.540	17.956	1031.588	775.023
417.555	18.056	1030.854	774.856
418.569	18.094	1030.530	774.717
419.584	18.105	1029.887	774.215
420.599	17.983	1029.961	773.648
421.613	103.556	1318.699	1458.751
422.628	94.829	1360.753	1458.844
