DTS Sentinel unit serial number:	SN413079Multiplexer serial number:	ORYXHardware model number:	OX4-SRSoftware version number:	ORYX F/W v4.00 Oryx Data Collector v3.7.2.0data status	okinstallation	princeton_trtdifferential loss correction	single-endedforward channel	channel 2reverse channel	N/Adate	2019/09/15time	09:47:34forward acquisition time	60.00reverse acquisition time	0.00gamma	496.2192k internal	0.2315k external	0.2315temperature offset calibration	1.0018default loss term (dB/km)	0.3790temperature slope calibration	1.0000multiplexer offset coefficient	1.0000multiplexer slope coefficient	1.0000fibre end	0.00T internal ref (°C)	34.00T ext. ref 1 (°C)	4.97T ext. ref 2 (°C)	29.69length (m)	temperature (°C)	Stokes	anti-Stokes-747.200	-44.296	-0.227	-0.115
-746.185	800.000	0.107	0.394
-745.171	-110.704	-0.488	0.102
-744.156	-43.878	-0.114	-0.058
-743.142	-82.808	0.244	0.080
-742.127	-177.061	-0.189	-0.005
-741.112	724.882	0.020	0.053
-740.098	16.312	-0.243	0.194
-739.083	-131.514	-0.177	-0.024
-738.069	-15.470	-0.100	0.065
-737.054	-60.519	0.335	0.144
-736.039	21.183	-0.082	-0.067
-735.025	159.236	0.127	0.178
-734.010	56.091	-0.090	-0.088
-732.996	529.488	0.148	0.354
-731.981	-88.085	-0.217	0.066
-730.966	-136.338	-0.216	0.026
-729.952	-78.222	-0.130	-0.045
-728.937	307.187	-0.082	0.154
-727.923	56.946	-0.148	-0.146
-726.908	207.431	-0.230	-0.363
-725.894	-88.740	0.182	-0.055
-724.879	33.466	-0.215	-0.189
-723.864	343.593	-0.021	0.041
-722.850	-28.093	-0.146	-0.085
-721.835	800.000	-0.128	-0.377
-720.821	246.994	0.234	-0.399
-719.806	-64.748	0.125	-0.051
-718.791	171.771	0.048	-0.069
-717.777	-105.161	0.199	0.046
-716.762	56.090	0.079	0.077
-715.748	218.243	-0.087	-0.141
-714.733	88.058	0.037	-0.041
-713.718	39.915	-0.149	0.136
-712.704	-9.037	0.072	0.049
-711.689	86.723	0.072	-0.080
-710.675	-28.401	0.052	0.030
-709.660	61.717	0.213	-0.214
-708.645	-92.063	0.296	-0.085
-707.631	-200.000	0.013	-0.302
-706.616	416.054	0.083	0.179
-705.602	-200.000	-0.046	-0.245
-704.587	800.000	0.153	0.453
-703.572	-200.000	-0.038	-0.259
-702.558	-132.527	0.153	0.020
-701.543	324.813	0.086	-0.166
-700.529	-135.248	-0.205	-0.025
-699.514	-119.390	0.114	-0.020
-698.499	0.395	-0.206	0.149
-697.485	-104.157	0.344	0.081
-696.470	-128.049	-0.409	-0.059
-695.456	-60.534	-0.173	0.074
-694.441	-200.000	-0.020	0.480
-693.426	800.000	-0.068	-0.265
-692.412	-30.679	-0.352	-0.202
-691.397	-163.405	-0.229	-0.011
-690.383	-200.000	0.062	0.285
-689.368	-58.620	-0.206	-0.090
-688.354	-100.723	0.239	-0.060
-687.339	-91.550	-0.171	-0.049
-686.324	-185.229	0.011	0.000
-685.310	-200.000	-0.022	-0.130
-684.295	-27.854	-0.111	-0.065
-683.281	36.735	-0.136	0.121
-682.266	-200.000	-0.025	-0.168
-681.251	-158.332	-0.214	0.013
-680.237	518.796	0.066	0.156
-679.222	-76.062	-0.404	0.144
-678.208	-200.000	0.009	-0.146
-677.193	-200.000	-0.003	-0.499
-676.178	64.455	0.117	-0.119
-675.164	75.124	-0.063	-0.068
-674.149	-101.893	-0.225	0.055
-673.135	51.899	0.200	-0.193
-672.120	-81.080	-0.250	-0.084
-671.105	-118.994	-0.308	0.055
-670.091	64.739	0.136	0.139
-669.076	-110.173	-0.149	0.031
-668.062	-200.000	-0.009	-0.237
-667.047	-134.617	-0.382	-0.047
-666.032	-63.744	-0.110	0.045
-665.018	-116.616	-0.217	0.040
-664.003	-79.866	0.267	-0.091
-662.989	800.000	-0.079	-0.242
-661.974	-29.272	-0.237	-0.137
-660.959	7.921	-0.038	0.029
-659.945	58.319	0.034	0.034
-658.930	-200.000	0.010	-0.162
-657.916	76.679	-0.244	-0.261
-656.901	-105.088	-0.182	-0.042
-655.886	351.618	-0.149	-0.297
-654.872	-96.059	-0.220	-0.059
-653.857	52.890	0.258	-0.249
-652.843	203.387	-0.089	0.139
-651.828	448.347	0.127	-0.281
-650.814	-107.019	0.366	-0.082
-649.799	-150.135	-0.174	-0.014
-648.784	-145.193	-0.193	-0.018
-647.770	765.556	0.113	0.311
-646.755	164.668	-0.236	-0.336
-645.741	-158.060	-0.120	-0.007
-644.726	68.199	0.133	0.137
-643.711	0.041	0.139	-0.100
-642.697	33.265	-0.065	-0.057
-641.682	-200.000	0.064	-0.335
-640.668	-111.772	0.041	0.008
-639.653	376.193	0.023	0.048
-638.638	-200.000	0.037	0.299
-637.624	57.980	-0.117	0.116
-636.609	-80.363	-0.181	0.061
-635.595	-58.313	-0.457	0.201
-634.580	521.514	0.052	-0.122
-633.565	800.000	0.052	-0.157
-632.551	-105.666	-0.494	0.113
-631.536	175.328	-0.081	0.119
-630.522	269.845	0.053	-0.095
-629.507	71.073	-0.132	0.138
-628.492	-99.234	0.094	0.024
-627.478	72.619	-0.097	-0.102
-626.463	112.565	0.103	-0.125
-625.449	-200.000	-0.019	-0.098
-624.434	800.000	0.031	-0.116
-623.419	353.000	-0.157	-0.314
-622.405	-181.753	-0.079	-0.002
-621.390	303.744	-0.268	0.502
-620.376	-112.341	-0.312	-0.063
-619.361	669.807	0.116	0.302
-618.346	98.282	0.183	0.212
-617.332	-81.450	-0.108	-0.036
-616.317	332.879	-0.150	-0.292
-615.303	48.271	0.198	-0.187
-614.288	-102.819	0.167	0.040
-613.273	800.000	-0.148	-0.468
-612.259	-33.270	0.120	-0.067
-611.244	-200.000	0.037	-0.285
-610.230	-96.430	0.229	-0.061
-609.215	-166.955	-0.450	0.019
-608.201	34.769	-0.304	0.268
-607.186	800.000	-0.037	0.141
-606.171	-0.970	-0.090	0.064
-605.157	191.632	0.143	0.217
-604.142	-163.503	-0.358	-0.017
-603.128	18.848	-0.327	-0.264
-602.113	-64.297	-0.054	-0.022
-601.098	259.969	-0.091	-0.159
-600.084	-200.000	-0.012	-0.184
-599.069	-200.000	0.007	-0.061
-598.055	253.057	-0.164	-0.282
-597.040	-200.000	0.001	-0.029
-596.025	-75.079	-0.034	0.012
-595.011	-120.817	-0.134	-0.023
-593.996	-125.675	0.218	0.033
-592.982	-33.445	-0.065	0.036
-591.967	-200.000	0.003	0.077
-590.952	84.528	0.123	0.136
-589.938	-200.000	0.026	0.180
-588.923	120.125	-0.045	0.057
-587.909	-75.612	0.166	0.059
-586.894	214.320	0.061	0.097
-585.879	431.105	-0.084	-0.183
-584.865	123.478	-0.247	-0.312
-583.850	165.077	0.323	0.460
-582.836	-36.080	-0.448	0.244
-581.821	321.822	-0.013	0.024
-580.806	-200.000	-0.026	0.136
-579.792	127.567	0.165	0.211
-578.777	130.865	0.126	-0.163
-577.763	-60.790	-0.259	0.110
-576.748	800.000	-0.095	0.334
-575.733	-116.826	0.216	0.040
-574.719	-69.669	-0.029	0.011
-573.704	-24.221	0.100	0.060
-572.690	67.134	-0.100	0.102
-571.675	-200.000	-0.014	-0.187
-570.661	-200.000	-0.051	-0.249
-569.646	-81.199	-0.249	-0.083
-568.631	-1.434	-0.125	0.088
-567.617	360.864	-0.129	0.260
-566.602	623.430	0.090	-0.229
-565.588	800.000	-0.046	0.174
-564.573	207.495	0.057	-0.089
-563.558	-107.625	0.496	0.109
-562.544	-70.529	-0.234	0.089
-561.529	239.237	-0.243	-0.407
-560.515	-200.000	-0.009	0.175
-559.500	52.497	0.164	0.158
-558.485	68.090	-0.186	-0.192
-557.471	17.848	0.036	0.029
-556.456	-139.152	-0.218	-0.024
-555.442	-200.000	0.005	0.040
-554.427	-156.294	-0.141	-0.009
-553.412	-200.000	0.048	0.321
-552.398	800.000	0.068	0.197
-551.383	-26.717	0.384	0.226
-550.369	7.415	-0.153	-0.115
-549.354	-55.030	-0.251	0.114
-548.339	64.355	-0.076	0.077
-547.325	800.000	-0.088	-0.251
-546.310	800.000	-0.097	-0.308
-545.296	-200.000	-0.037	0.180
-544.281	-200.000	-0.042	-0.211
-543.266	30.011	0.145	-0.124
-542.252	-2.229	0.135	0.095
-541.237	-200.000	-0.033	0.383
-540.223	800.000	0.042	-0.152
-539.208	-200.000	0.045	0.272
-538.193	117.657	0.048	-0.059
-537.179	195.615	0.061	-0.093
-536.164	3.971	-0.108	0.080
-535.150	7.212	0.022	0.016
-534.135	-200.000	0.010	-0.200
-533.121	17.850	0.147	0.118
-532.106	166.688	-0.155	-0.221
-531.091	-172.131	0.182	0.006
-530.077	-76.765	-0.400	0.141
-529.062	-44.267	0.221	-0.111
-528.048	-92.763	0.506	0.142
-527.033	240.017	0.090	0.151
-526.018	706.471	-0.083	0.221
-525.004	3.032	-0.338	-0.247
-523.989	-87.180	0.341	0.104
-522.975	76.783	-0.182	-0.194
-521.960	50.999	0.268	0.255
-520.945	41.978	-0.239	0.218
-519.931	-54.264	0.335	-0.153
-518.916	186.366	0.143	-0.213
-517.902	-61.834	-0.062	-0.026
-516.887	281.152	-0.058	-0.105
-515.872	-62.209	-0.261	-0.109
-514.858	-138.587	-0.115	-0.013
-513.843	327.668	0.064	-0.124
-512.829	227.563	-0.076	-0.124
-511.814	-3.874	-0.037	-0.025
-510.799	90.126	0.094	-0.106
-509.785	-100.224	-0.186	-0.047
-508.770	-200.000	-0.014	-0.085
-507.756	-200.000	-0.033	-0.191
-506.741	572.927	-0.181	-0.444
-505.726	-83.002	-0.309	-0.100
-504.712	-77.999	0.080	0.028
-503.697	-51.400	-0.133	-0.062
-502.683	9.216	0.209	0.159
-501.668	81.804	-0.032	0.034
-500.653	227.689	0.007	-0.012
-499.639	-97.299	-0.114	-0.030
-498.624	-54.206	-0.458	0.209
-497.610	-58.138	-0.103	0.045
-496.595	-110.009	-0.312	0.066
-495.581	-200.000	0.018	0.088
-494.566	-43.215	-0.195	-0.099
-493.551	-200.000	-0.074	-0.326
-492.537	-41.977	0.260	0.134
-491.522	-200.000	0.025	-0.301
-490.508	652.956	0.127	-0.328
-489.493	86.937	0.133	0.147
-488.478	106.333	-0.136	-0.162
-487.464	-70.619	-0.329	-0.125
-486.449	326.105	-0.046	-0.088
-485.435	-200.000	-0.016	0.214
-484.420	-148.405	-0.273	-0.022
-483.405	11.697	-0.093	0.072
-482.391	68.503	0.187	-0.192
-481.376	-107.584	0.107	-0.023
-480.362	800.000	-0.036	-0.117
-479.347	-200.000	0.034	0.357
-478.332	-200.000	-0.001	0.050
-477.318	-125.701	0.250	-0.038
-476.303	370.116	-0.049	-0.100
-475.289	154.680	-0.106	0.146
-474.274	127.420	-0.119	0.152
-473.259	-71.101	0.160	0.060
-472.245	68.338	-0.040	0.041
-471.230	250.007	-0.241	0.410
-470.216	-162.160	0.290	-0.015
-469.201	-123.943	-0.151	0.024
-468.186	800.000	0.020	-0.074
-467.172	-118.831	0.074	-0.013
-466.157	-133.265	0.147	-0.019
-465.143	-200.000	-0.021	0.117
-464.128	-37.883	-0.126	0.067
-463.113	-71.757	-0.311	0.116
-462.099	800.000	-0.035	0.114
-461.084	578.220	0.117	-0.286
-460.070	73.255	0.190	-0.199
-459.055	-185.490	0.273	0.004
-458.040	11.421	0.128	0.098
-457.026	580.591	-0.035	-0.087
-456.011	139.362	0.161	-0.212
-454.997	-162.378	0.272	0.014
-453.982	-69.561	-0.131	-0.050
-452.968	-81.685	0.161	0.053
-451.953	-47.846	0.200	-0.097
-450.938	75.581	0.111	-0.118
-449.924	-200.000	0.012	-0.177
-448.909	14.504	0.091	-0.071
-447.895	-99.377	0.100	-0.025
-446.880	-200.000	-0.018	-0.277
-445.865	-105.930	-0.228	0.052
-444.851	273.973	0.196	-0.346
-443.836	-88.437	-0.157	0.047
-442.822	-76.785	0.107	-0.037
-441.807	-28.092	0.163	-0.094
-440.792	5.744	-0.072	-0.053
-439.778	197.304	0.047	-0.072
-438.763	800.000	-0.023	0.071
-437.749	-90.272	-0.306	0.089
-436.734	800.000	0.050	-0.163
-435.719	-94.904	-0.169	0.046
-434.705	800.000	-0.027	0.080
-433.690	129.799	0.147	0.188
-432.676	-115.755	0.282	-0.053
-431.661	154.874	-0.140	-0.192
-430.646	308.759	0.133	-0.248
-429.632	-44.817	-0.345	0.172
-428.617	406.381	-0.115	0.244
-427.603	800.000	0.062	0.248
-426.588	35.244	-0.092	0.081
-425.573	62.989	0.132	-0.132
-424.559	333.820	-0.023	0.045
-423.544	22.525	0.232	-0.190
-422.530	-37.117	-0.099	0.053
-421.515	800.000	-0.023	-0.077
-420.500	-16.741	0.218	-0.138
-419.486	42.672	0.210	0.191
-418.471	-200.000	-0.007	-0.265
-417.457	148.472	0.144	0.195
-416.442	-19.133	0.408	0.254
-415.428	-200.000	-0.017	-0.244
-414.413	14.481	0.164	-0.128
-413.398	-73.963	-0.376	-0.137
-412.384	-200.000	-0.133	0.000
-411.369	626.331	-0.040	0.102
-410.355	800.000	-0.037	-0.139
-409.340	-82.596	-0.283	-0.092
-408.325	540.356	0.129	0.308
-407.311	-200.000	0.005	0.141
-406.296	800.000	-0.063	0.234
-405.282	-72.733	0.288	-0.106
-404.267	97.574	0.192	0.221
-403.252	800.000	-0.006	0.023
-402.238	-140.586	-0.341	-0.035
-401.223	-46.397	0.249	-0.122
-400.209	-104.676	-0.319	0.073
-399.194	-200.000	0.034	0.430
-398.179	63.734	-0.115	-0.116
-397.165	-86.731	0.251	-0.077
-396.150	800.000	0.021	0.060
-395.136	-200.000	-0.040	-0.198
-394.121	-53.152	0.124	-0.057
-393.106	-37.807	-0.418	-0.222
-392.092	4.368	-0.281	0.206
-391.077	178.256	-0.228	-0.332
-390.063	-200.000	-0.007	0.037
-389.048	157.289	0.138	0.191
-388.033	-90.987	-0.378	0.109
-387.019	-200.000	0.058	-0.385
-386.004	-47.655	-0.332	-0.161
-384.990	-41.662	0.262	0.135
-383.975	-50.423	0.073	-0.034
-382.960	-110.886	0.115	0.024
-381.946	800.000	-0.014	-0.043
-380.931	127.075	0.152	-0.193
-379.917	-43.733	0.245	0.123
-378.902	-3.077	-0.025	0.017
-377.888	99.974	0.156	0.180
-376.873	-1.631	-0.047	0.033
-375.858	-80.702	0.450	0.150
-374.844	-21.883	-0.365	0.222
-373.829	-35.648	-0.243	0.132
-372.815	31.754	0.022	0.019
-371.800	800.000	-0.051	0.162
-370.785	-127.466	-0.369	-0.054
-369.771	114.354	0.193	-0.234
-368.756	-197.507	-0.223	-0.001
-367.742	-200.000	0.067	-0.305
-366.727	-133.695	-0.101	-0.013
-365.712	-8.394	0.196	0.132
-364.698	-66.176	-0.308	0.122
-363.683	-200.000	-0.001	0.248
-362.669	510.344	0.043	-0.101
-361.654	800.000	0.138	-0.394
-360.639	547.753	-0.060	-0.142
-359.625	577.340	-0.110	0.269
-358.610	-127.051	0.355	-0.052
-357.596	47.007	0.147	0.137
-356.581	-53.355	0.225	0.103
-355.566	-59.244	0.047	-0.020
-354.552	316.720	0.092	0.174
-353.537	-200.000	0.003	0.203
-352.523	-57.293	0.286	-0.126
-351.508	78.792	0.159	-0.170
-350.493	-200.000	-0.040	-0.183
-349.479	88.336	0.295	-0.327
-348.464	107.064	-0.087	0.104
-347.450	138.111	-0.043	0.056
-346.435	-111.165	0.187	-0.038
-345.420	-19.530	0.046	0.028
-344.406	-163.236	-0.236	-0.011
-343.391	607.561	0.072	0.180
-342.377	800.000	0.045	-0.145
-341.362	7.339	-0.153	0.114
-340.348	501.564	-0.059	0.136
-339.333	800.000	-0.072	0.291
-338.318	-7.905	0.234	0.158
-337.304	-29.858	0.068	-0.038
-336.289	160.326	-0.168	0.233
-335.275	371.301	0.118	0.238
-334.260	505.836	0.136	0.314
-333.245	150.459	0.028	0.038
-332.231	208.854	-0.071	-0.111
-331.216	-95.445	0.203	-0.054
-330.202	51.583	0.136	0.129
-329.187	-200.000	-0.003	0.317
-328.172	-59.733	0.224	-0.096
-327.158	-38.655	0.091	-0.048
-326.143	415.269	-0.083	0.177
-325.129	197.475	0.108	-0.164
-324.114	-200.000	0.270	0.000
-323.099	-200.000	0.003	-0.147
-322.085	-37.237	0.168	0.090
-321.070	-200.000	0.001	-0.160
-320.056	492.937	0.101	-0.231
-319.041	177.698	-0.237	-0.344
-318.026	-63.279	-0.271	-0.111
-317.012	800.000	-0.130	0.402
-315.997	75.603	-0.106	0.111
-314.983	247.193	0.040	0.066
-313.968	-40.192	-0.166	-0.086
-312.953	-79.776	0.193	-0.065
-311.939	68.183	-0.105	0.107
-310.924	126.436	0.223	0.281
-309.910	800.000	0.103	-0.319
-308.895	10.738	-0.237	-0.180
-307.880	800.000	-0.024	-0.072
-306.866	0.403	0.074	0.052
-305.851	52.226	-0.064	0.061
-304.837	361.887	-0.142	0.283
-303.822	-111.606	0.291	-0.059
-302.807	417.096	-0.095	0.202
-301.793	-200.000	-0.065	0.286
-300.778	140.413	0.031	-0.041
-299.764	-53.783	-0.311	0.141
-298.749	-45.491	-0.179	-0.088
-297.735	800.000	0.095	0.264
-296.720	32.001	0.446	-0.383
-295.705	285.015	0.052	-0.092
-294.691	800.000	0.123	0.344
-293.676	98.147	0.107	-0.123
-292.662	-200.000	0.078	-0.600
-291.647	228.637	0.054	-0.087
-290.632	81.631	0.055	0.060
-289.618	34.669	0.114	0.099
-288.603	-76.311	0.427	0.150
-287.589	-87.446	-0.103	0.031
-286.574	800.000	0.042	0.179
-285.559	27.543	-0.143	0.120
-284.545	-51.133	-0.092	0.043
-283.530	-0.969	-0.328	0.231
-282.516	-53.705	0.218	-0.099
-281.501	-41.993	0.047	-0.024
-280.486	800.000	0.050	0.167
-279.472	800.000	0.061	0.197
-278.457	42.762	0.040	0.036
-277.443	45.023	0.197	0.180
-276.428	238.347	0.036	0.060
-275.413	-200.000	-0.016	0.146
-274.399	31.955	-0.211	-0.180
-273.384	-119.422	0.156	0.027
-272.370	-77.625	0.111	0.038
-271.355	-200.000	-0.013	-0.275
-270.340	283.215	-0.020	-0.036
-269.326	34.215	-0.122	0.105
-268.311	-0.535	0.112	0.079
-267.297	-200.000	-0.023	0.107
-266.282	88.360	-0.147	-0.162
-265.267	297.011	0.137	0.250
-264.253	133.575	-0.203	-0.261
-263.238	85.960	-0.066	-0.072
-262.224	583.496	-0.047	-0.115
-261.209	-141.348	0.351	0.035
-260.195	-200.000	0.047	0.213
-259.180	221.100	-0.032	-0.051
-258.165	125.502	-0.168	-0.211
-257.151	-200.000	0.031	0.159
-256.136	-90.448	0.234	0.067
-255.122	-136.604	-0.153	-0.018
-254.107	42.555	0.046	-0.042
-253.092	105.436	0.117	0.137
-252.078	487.467	0.018	-0.042
-251.063	800.000	-0.101	-0.399
-250.049	-57.234	0.319	0.139
-249.034	-57.095	0.223	-0.097
-248.019	-200.000	-0.014	0.172
-247.005	-23.418	0.409	-0.244
-245.990	442.569	-0.105	-0.229
-244.976	193.466	0.329	0.495
-243.961	-200.000	0.020	-0.330
-242.946	445.587	-0.096	0.209
-241.932	-27.648	0.235	0.135
-240.917	114.686	-0.142	-0.172
-239.903	-53.528	0.293	-0.133
-238.888	354.295	-0.049	-0.096
-237.873	9.688	-0.139	-0.105
-236.859	-200.000	0.008	-0.034
-235.844	746.033	0.064	-0.171
-234.830	125.583	0.186	-0.233
-233.815	139.880	0.144	0.189
-232.800	183.278	-0.072	-0.106
-231.786	-200.000	-0.006	-0.049
-230.771	169.478	-0.083	-0.118
-229.757	800.000	0.057	-0.206
-228.742	-53.485	-0.311	0.142
-227.727	223.415	0.094	0.151
-226.713	-200.000	-0.007	0.254
-225.698	-43.504	0.325	0.163
-224.684	800.000	-0.133	0.438
-223.669	74.675	-0.061	-0.063
-222.655	358.086	-0.059	0.117
-221.640	-30.815	0.085	-0.048
-220.625	-46.600	-0.334	0.162
-219.611	84.149	0.074	-0.081
-218.596	318.384	-0.201	0.379
-217.582	800.000	0.096	0.412
-216.567	28.302	0.192	0.161
-215.552	-98.621	-0.192	0.049
-214.538	199.145	0.064	-0.097
-213.523	3.266	0.080	0.058
-212.509	-84.100	0.072	-0.023
-211.494	535.399	-0.103	0.244
-210.479	215.446	-0.107	-0.169
-209.465	800.000	-0.138	0.440
-208.450	800.000	-0.059	0.241
-207.436	-72.331	-0.087	0.032
-206.421	533.014	-0.059	-0.138
-205.406	80.581	-0.117	-0.125
-204.392	-151.576	0.356	-0.026
-203.377	-200.000	0.010	-0.097
-202.363	244.498	0.156	-0.260
-201.348	-54.289	0.042	0.019
-200.333	43.456	-0.259	-0.235
-199.319	136.516	0.224	0.289
-198.304	211.318	-0.116	0.182
-197.290	-137.696	0.286	0.032
-196.275	228.442	-0.123	0.199
-195.260	-200.000	-0.008	-0.104
-194.246	352.744	0.106	-0.208
-193.231	-123.059	-0.069	-0.011
-192.217	-135.439	0.292	0.035
-191.202	283.706	-0.160	-0.285
-190.187	800.000	0.172	-0.510
-189.173	-127.280	-0.152	0.022
-188.158	-150.274	-0.376	-0.029
-187.144	39.186	-0.182	0.161
-186.129	-6.674	-0.122	-0.082
-185.114	400.928	-0.032	-0.067
-184.100	363.666	0.119	-0.237
-183.085	464.055	0.045	-0.101
-182.071	-41.509	-0.458	-0.234
-181.056	-45.609	-0.322	-0.158
-180.042	14.792	-0.236	-0.183
-179.027	125.623	0.131	-0.164
-178.012	437.118	0.043	-0.093
-176.998	-9.751	-0.214	-0.141
-175.983	0.236	0.175	0.124
-174.969	800.000	-0.023	0.096
-173.954	-65.304	0.281	0.112
-172.939	800.000	-0.119	0.472
-171.925	-200.000	0.002	0.115
-170.910	-200.000	0.005	0.045
-169.896	-87.526	0.120	-0.036
-168.881	287.991	-0.160	-0.287
-167.866	330.877	0.208	-0.398
-166.852	-48.223	0.409	0.195
-165.837	100.242	-0.092	-0.106
-164.823	-200.000	-0.010	-0.079
-163.808	6.836	0.358	0.264
-162.793	173.409	0.207	-0.296
-161.779	47.552	0.084	-0.078
-160.764	-120.073	0.497	-0.084
-159.750	149.746	-0.100	-0.134
-158.735	-200.000	0.045	-0.246
-157.720	30.130	-0.150	-0.127
-156.706	178.780	0.032	0.046
-155.691	-39.344	0.264	0.137
-154.677	217.294	-0.071	0.112
-153.662	777.476	0.046	-0.126
-152.647	-136.860	-0.117	-0.013
-151.633	798.118	0.056	0.153
-150.618	-200.000	0.028	-0.233
-149.604	-122.267	0.251	0.041
-148.589	-200.000	0.010	0.151
-147.574	-117.279	0.302	0.054
-146.560	588.849	-0.104	0.254
-145.545	-65.547	0.328	-0.130
-144.531	-107.545	0.136	0.029
-143.516	800.000	-0.055	-0.218
-142.502	-200.000	-0.015	-0.193
-141.487	800.000	-0.037	0.130
-140.472	249.637	0.121	-0.203
-139.458	352.925	-0.232	0.456
-138.443	-101.099	-0.546	0.132
-137.429	-50.406	0.240	-0.112
-136.414	-200.000	-0.038	0.321
-135.399	155.283	-0.069	0.094
-134.385	800.000	0.052	-0.176
-133.370	311.704	-0.085	-0.158
-132.356	800.000	0.039	-0.140
-131.341	-36.795	-0.248	0.132
-130.326	-200.000	0.031	0.143
-129.312	333.577	0.136	-0.261
-128.297	-176.502	0.115	-0.003
-127.283	610.702	0.059	-0.146
-126.268	-74.439	-0.458	0.163
-125.253	-58.691	-0.104	-0.044
-124.239	-129.962	0.070	-0.009
-123.224	800.000	0.072	0.290
-122.210	-95.040	0.349	-0.093
-121.195	392.127	-0.090	-0.185
-120.180	-3.864	-0.122	-0.084
-119.166	354.474	0.084	-0.166
-118.151	49.234	0.013	0.012
-117.137	66.723	-0.055	0.055
-116.122	675.996	0.040	0.101
-115.107	37.048	0.226	0.198
-114.093	147.029	0.084	0.112
-113.078	-153.511	0.344	0.024
-112.064	-80.219	0.136	-0.045
-111.049	180.125	-0.089	0.129
-110.034	129.326	-0.218	-0.276
-109.020	-109.816	0.207	-0.043
-108.005	-73.975	-0.074	0.027
-106.991	800.000	0.080	0.234
-105.976	-192.449	-0.195	0.002
-104.962	-40.828	-0.142	-0.073
-103.947	800.000	0.082	-0.236
-102.932	342.133	-0.031	0.061
-101.918	192.129	0.011	-0.016
-100.903	-200.000	-0.010	-0.090
-99.889	-200.000	-0.006	-0.038
-98.874	-152.245	-0.466	-0.033
-97.859	125.292	0.126	-0.157
-96.845	-17.339	-0.217	0.135
-95.830	358.013	0.083	0.163
-94.816	-200.000	-0.021	0.152
-93.801	153.331	-0.200	-0.271
-92.786	-87.295	0.227	0.068
-91.772	-124.935	0.092	-0.014
-90.757	-114.851	0.175	0.033
-89.743	-200.000	-0.015	-0.256
-88.728	-22.997	-0.315	-0.188
-87.713	424.150	-0.172	-0.365
-86.699	470.847	-0.032	0.071
-85.684	102.741	0.246	-0.284
-84.670	-145.569	-0.299	-0.026
-83.655	92.062	0.238	0.265
-82.640	32.851	0.030	-0.026
-81.626	748.516	0.047	0.125
-80.611	800.000	-0.043	-0.126
-79.597	800.000	-0.096	0.408
-78.582	-167.716	0.301	-0.012
-77.567	-200.000	0.001	-0.226
-76.553	800.000	-0.077	-0.330
-75.538	-68.034	0.155	0.060
-74.524	-38.309	-0.108	-0.056
-73.509	-107.811	-0.232	-0.050
-72.494	426.507	-0.033	0.071
-71.480	-162.717	0.223	-0.011
-70.465	271.306	0.120	0.209
-69.451	-127.538	0.036	-0.005
-68.436	-20.451	-0.287	-0.174
-67.422	-64.641	-0.183	0.073
-66.407	95.638	0.217	0.244
-65.392	-71.874	0.183	0.067
-64.378	800.000	-0.082	0.277
-63.363	800.000	-0.062	-0.223
-62.349	542.821	-0.079	0.187
-61.334	114.233	-0.666	-0.799
-60.319	134.242	0.291	0.372
-59.305	-200.000	-0.087	-1.033
-58.290	238.906	0.443	0.727
-57.276	800.000	0.392	1.442
-56.261	-200.000	97.643	573.960
-55.246	624.407	1408.801	3502.819
-54.232	184.786	2625.676	3839.657
-53.217	113.909	2314.594	2775.450
-52.203	43.459	1924.917	1735.253
-51.188	37.120	1711.974	1494.603
-50.173	34.480	1666.596	1435.091
-49.159	51.699	1715.377	1608.881
-48.144	54.759	1732.520	1648.229
-47.130	36.935	1689.087	1472.979
-46.115	34.041	1673.806	1437.753
-45.100	33.914	1668.307	1432.020
-44.086	33.914	1666.421	1430.340
-43.071	33.897	1663.588	1427.725
-42.057	33.886	1661.048	1425.409
-41.042	33.799	1659.404	1423.284
-40.027	33.846	1656.969	1421.496
-39.013	33.754	1655.516	1419.500
-37.998	33.886	1653.366	1418.586
-36.984	33.925	1652.194	1417.821
-35.969	33.979	1650.719	1416.899
-34.954	34.016	1649.092	1415.722
-33.940	34.116	1646.708	1414.364
-32.925	34.058	1645.315	1412.676
-31.911	33.986	1643.419	1410.457
-30.896	33.905	1642.166	1408.728
-29.881	33.986	1639.986	1407.401
-28.867	33.917	1638.748	1405.774
-27.852	34.003	1636.804	1404.688
-26.838	34.034	1635.679	1403.892
-25.823	34.026	1633.944	1402.293
-24.809	34.039	1632.968	1401.490
-23.794	34.068	1631.391	1400.298
-22.779	34.048	1629.677	1398.620
-21.765	33.998	1628.401	1397.102
-20.750	33.997	1626.257	1395.202
-19.736	33.990	1625.005	1394.022
-18.721	34.047	1623.488	1393.081
-17.706	34.040	1622.121	1391.801
-16.692	33.988	1620.779	1390.219
-15.677	33.975	1619.004	1388.546
-14.663	34.077	1617.507	1387.952
-13.648	34.045	1616.172	1386.512
-12.633	34.079	1614.911	1385.626
-11.619	34.058	1613.134	1383.892
-10.604	34.141	1611.779	1383.280
-9.590	34.034	1610.760	1381.571
-8.575	34.003	1609.403	1380.127
-7.560	34.065	1607.715	1379.079
-6.546	34.033	1606.959	1378.141
-5.531	33.942	1606.109	1376.696
-4.517	33.955	1604.555	1375.407
-3.502	33.959	1603.395	1374.388
-2.487	34.072	1601.695	1373.686
-1.473	33.932	1590.291	1362.852
-0.458	31.182	1571.058	1326.800
0.556	26.477	1570.398	1292.364
1.571	24.052	1594.727	1294.658
2.586	23.421	1607.984	1300.673
3.600	20.747	1555.550	1239.140
4.615	12.945	1446.027	1099.965
5.629	6.214	1381.778	1007.979
6.644	5.106	1373.790	995.001
7.659	5.056	1372.039	993.326
8.673	4.856	1371.806	991.797
9.688	4.863	1370.055	990.487
10.702	4.879	1366.745	988.111
11.717	8.059	1373.281	1012.985
12.731	15.543	1387.105	1070.980
13.746	19.405	1392.096	1099.404
14.761	18.699	1389.782	1092.986
15.775	17.475	1387.276	1083.134
16.790	16.373	1384.353	1073.755
17.804	15.707	1381.642	1067.334
18.819	15.225	1380.730	1063.474
19.834	14.985	1379.122	1060.621
20.848	14.692	1377.982	1057.797
21.863	14.503	1376.436	1055.320
22.877	14.509	1374.744	1053.965
23.892	14.292	1374.728	1052.491
24.907	14.327	1373.926	1052.003
25.921	14.259	1373.101	1050.851
26.936	14.349	1371.859	1050.373
27.950	14.404	1370.975	1049.953
28.965	14.432	1370.237	1049.469
29.980	14.596	1368.698	1049.225
30.994	14.644	1367.631	1048.621
32.009	14.689	1366.386	1047.856
33.023	14.568	1364.921	1045.879
34.038	14.477	1364.190	1044.656
35.053	14.507	1362.501	1043.455
36.067	14.482	1361.321	1042.304
37.082	14.500	1360.458	1041.666
38.096	14.590	1359.952	1041.750
39.111	14.474	1358.911	1040.136
40.126	14.471	1357.412	1038.875
41.140	14.398	1356.615	1037.722
42.155	14.271	1356.502	1036.748
43.169	14.286	1356.250	1036.562
44.184	14.109	1356.270	1035.380
45.199	14.183	1355.339	1035.037
46.213	14.399	1354.244	1035.453
47.228	14.495	1353.742	1035.574
48.242	14.473	1352.590	1034.467
49.257	14.452	1350.879	1032.935
50.271	14.371	1350.193	1031.819
51.286	14.433	1348.558	1030.863
52.301	14.348	1347.406	1029.362
53.315	14.322	1345.931	1027.988
54.330	14.237	1345.012	1026.666
55.344	14.317	1343.709	1026.077
56.359	14.198	1342.653	1024.447
57.374	14.352	1341.743	1024.606
58.388	14.211	1341.178	1023.220
59.403	14.152	1340.803	1022.478
60.417	14.193	1339.823	1021.896
61.432	14.198	1338.974	1021.184
62.447	14.172	1338.112	1020.280
63.461	14.105	1337.025	1018.948
64.476	14.095	1335.879	1017.926
65.490	14.098	1334.581	1016.862
66.505	14.163	1332.633	1015.690
67.520	14.044	1332.422	1014.712
68.534	14.116	1331.175	1014.111
69.549	14.121	1329.873	1013.061
70.563	14.131	1328.547	1012.021
71.578	14.012	1327.744	1010.593
72.593	14.040	1326.504	1009.734
73.607	14.044	1326.089	1009.350
74.622	13.972	1325.270	1008.200
75.636	14.017	1324.787	1008.017
76.651	14.043	1323.858	1007.377
77.666	14.116	1323.105	1007.158
78.680	14.050	1323.007	1006.595
79.695	14.005	1322.397	1005.771
80.709	14.170	1321.452	1005.961
81.724	14.151	1320.337	1004.910
82.739	14.139	1319.449	1004.073
83.753	14.340	1318.340	1004.350
84.768	14.428	1317.406	1004.077
85.782	14.441	1316.673	1003.513
86.797	14.513	1314.982	1002.562
87.812	14.353	1314.435	1001.095
88.826	14.380	1312.951	1000.042
89.841	14.367	1312.105	999.229
90.855	14.415	1310.883	998.499
91.870	14.477	1309.861	998.005
92.884	14.430	1309.344	997.237
93.899	14.530	1308.225	996.896
94.914	14.483	1308.014	996.366
95.928	14.623	1306.877	996.249
96.943	14.549	1305.998	995.048
97.957	14.600	1304.774	994.333
98.972	14.583	1303.598	993.249
99.987	14.430	1302.986	991.785
101.001	14.402	1302.134	990.880
102.016	14.449	1301.049	990.245
103.030	14.478	1299.994	989.528
104.045	14.440	1299.244	988.643
105.060	14.484	1297.802	987.718
106.074	14.290	1296.593	985.562
107.089	14.244	1295.086	984.058
108.103	14.228	1293.886	982.964
109.118	14.214	1292.685	981.883
110.133	14.142	1290.881	980.000
111.147	14.248	1289.664	979.617
112.162	14.238	1288.428	978.534
113.176	14.313	1287.046	977.837
114.191	14.271	1286.728	977.258
115.206	14.317	1285.201	976.284
116.220	14.317	1283.577	974.966
117.235	14.267	1282.941	974.105
118.249	14.238	1282.123	973.225
119.264	14.185	1281.050	972.015
120.279	14.203	1279.547	970.892
121.293	14.260	1278.517	970.357
122.308	14.246	1277.158	969.161
123.322	14.170	1276.300	967.981
124.337	14.098	1275.771	967.077
125.352	14.116	1274.395	966.053
126.366	14.156	1273.400	965.443
127.381	14.114	1272.729	964.607
128.395	14.226	1271.234	964.037
129.410	14.233	1270.344	963.318
130.424	14.223	1269.590	962.603
131.439	14.150	1268.770	961.474
132.454	14.230	1267.801	961.113
133.468	14.330	1266.558	960.663
134.483	14.325	1265.697	959.900
135.497	14.373	1264.965	959.535
136.512	14.343	1263.516	958.180
137.527	14.378	1262.648	957.636
138.541	14.311	1260.948	955.878
139.556	14.486	1259.765	955.898
140.570	14.423	1258.692	954.638
141.585	14.471	1257.456	953.895
142.600	14.456	1256.682	953.137
143.614	14.482	1255.948	952.640
144.629	14.526	1254.551	951.752
145.643	14.499	1253.573	950.769
146.658	14.457	1252.212	949.413
147.673	14.435	1250.430	947.854
148.687	14.362	1249.796	946.876
149.702	14.447	1247.896	945.832
150.716	14.384	1246.897	944.636
151.731	14.320	1245.662	943.253
152.746	14.342	1244.668	942.542
153.760	14.381	1243.343	941.675
154.775	14.408	1242.620	941.199
155.789	14.486	1241.403	940.632
156.804	14.548	1240.060	939.883
157.819	14.610	1238.959	939.311
158.833	14.642	1238.254	938.876
159.848	14.639	1237.728	938.377
160.862	14.680	1236.589	937.660
161.877	14.559	1235.236	935.875
162.892	14.318	1234.383	933.794
163.906	14.536	1233.355	934.155
164.921	14.520	1232.683	933.473
165.935	14.482	1231.736	932.461
166.950	14.428	1231.370	931.797
167.964	14.601	1230.368	931.926
168.979	14.583	1229.512	931.095
169.994	14.528	1228.951	930.277
171.008	14.626	1228.111	930.108
172.023	14.763	1226.953	929.908
173.037	14.729	1226.386	929.211
174.052	14.747	1225.715	928.719
175.067	14.604	1224.366	926.822
176.081	14.509	1223.665	925.678
177.096	14.506	1223.068	925.130
178.110	14.549	1221.399	924.025
179.125	14.545	1220.039	922.893
180.140	14.638	1218.838	922.415
181.154	14.714	1217.703	921.895
182.169	14.675	1216.963	921.036
183.183	14.711	1215.314	919.905
184.198	14.850	1213.969	919.572
185.213	14.851	1213.103	918.840
186.227	14.790	1212.297	917.811
187.242	14.874	1211.165	917.338
188.256	14.963	1209.977	916.841
189.271	14.869	1209.326	915.754
190.286	14.755	1208.027	914.063
191.300	14.680	1206.877	912.705
192.315	14.494	1206.735	911.496
193.329	14.619	1205.681	911.307
194.344	14.713	1204.889	911.138
195.359	14.692	1204.703	910.804
196.373	14.774	1203.819	910.502
197.388	14.847	1203.741	910.759
198.402	15.029	1203.250	911.300
199.417	15.018	1202.287	910.425
200.432	15.061	1201.617	910.071
201.446	15.093	1200.882	909.613
202.461	15.238	1199.746	909.457
203.475	15.155	1199.191	908.504
204.490	15.056	1197.560	906.653
205.504	14.962	1196.146	904.992
206.519	15.026	1194.860	904.284
207.534	15.105	1193.285	903.440
208.548	15.069	1193.008	902.955
209.563	14.978	1192.605	902.079
210.577	15.075	1191.072	901.363
211.592	15.084	1190.846	901.161
212.607	15.202	1189.494	900.695
213.621	15.232	1188.633	900.124
214.636	15.226	1188.031	899.553
215.650	15.202	1186.980	898.549
216.665	15.257	1185.967	898.000
217.680	15.240	1185.383	897.389
218.694	15.322	1184.246	896.885
219.709	15.283	1183.618	896.123
220.723	15.316	1182.808	895.604
221.738	15.271	1182.342	894.933
222.753	15.371	1181.624	894.844
223.767	15.306	1180.782	893.780
224.782	15.524	1179.868	894.169
225.796	15.467	1179.423	893.451
226.811	15.443	1178.730	892.720
227.826	15.338	1178.226	891.702
228.840	15.253	1177.373	890.521
229.855	15.384	1176.512	890.491
230.869	15.418	1175.383	889.734
231.884	15.304	1175.268	888.964
232.899	15.405	1173.689	888.229
233.913	15.331	1173.155	887.352
234.928	15.237	1172.832	886.533
235.942	15.259	1171.587	885.628
236.957	15.221	1171.144	885.018
237.972	15.254	1170.149	884.360
238.986	15.276	1169.513	883.919
240.001	15.392	1168.679	883.819
241.015	15.434	1167.274	882.900
242.030	15.435	1167.174	882.754
243.045	15.503	1166.430	882.468
244.059	15.376	1165.977	881.380
245.074	15.514	1164.887	881.204
246.088	15.625	1163.701	880.809
247.103	15.634	1163.474	880.604
248.117	15.626	1162.749	879.938
249.132	15.608	1161.902	879.127
250.147	15.864	1161.389	879.996
251.161	15.979	1160.565	879.894
252.176	15.873	1160.184	878.977
253.190	15.982	1158.848	878.456
254.205	15.894	1158.772	877.862
255.220	15.860	1158.324	877.265
256.234	15.959	1157.231	876.876
257.249	15.992	1156.810	876.653
258.263	15.914	1156.397	875.853
259.278	16.013	1155.551	875.652
260.293	16.047	1154.770	875.157
261.307	16.018	1154.567	874.777
262.322	16.101	1153.477	874.304
263.336	16.104	1153.350	874.145
264.351	16.060	1152.596	873.267
265.366	16.199	1151.373	872.986
266.380	16.104	1151.130	872.232
267.395	16.097	1150.149	871.376
268.409	16.025	1149.369	870.334
269.424	16.094	1148.623	870.051
270.439	16.130	1148.136	869.786
271.453	16.124	1147.355	869.089
272.468	16.036	1146.495	867.910
273.482	16.097	1145.439	867.347
274.497	16.029	1145.169	866.713
275.512	16.003	1144.598	866.072
276.526	16.065	1143.560	865.526
277.541	16.131	1142.973	865.348
278.555	16.163	1142.188	864.838
279.570	16.192	1141.576	864.450
280.585	16.238	1141.204	864.326
281.599	16.222	1139.984	863.242
282.614	16.317	1138.437	862.482
283.628	16.234	1137.829	861.522
284.643	16.161	1136.823	860.310
285.657	16.273	1135.811	860.039
286.672	16.177	1135.367	859.138
287.687	16.239	1134.318	858.582
288.701	16.256	1133.646	858.086
289.716	16.365	1132.539	857.722
290.730	16.274	1131.939	856.732
291.745	16.336	1131.275	856.470
292.760	16.320	1130.871	856.006
293.774	16.484	1129.680	855.858
294.789	16.529	1128.973	855.477
295.803	16.518	1128.498	854.983
296.818	16.441	1127.961	854.109
297.833	16.359	1127.121	852.985
298.847	16.407	1126.333	852.554
299.862	16.408	1125.770	852.060
300.876	16.324	1125.218	851.143
301.891	16.488	1124.420	851.289
302.906	16.585	1123.499	851.004
303.920	16.682	1122.976	851.019
304.935	16.674	1122.482	850.529
305.949	16.786	1121.796	850.497
306.964	16.601	1121.355	849.162
307.979	16.744	1120.381	849.064
308.993	16.647	1120.037	848.244
310.008	16.653	1118.804	847.266
311.022	16.735	1117.938	846.946
312.037	16.802	1117.358	846.762
313.052	16.705	1116.220	845.341
314.066	16.637	1115.361	844.279
315.081	16.501	1114.994	843.249
316.095	16.577	1114.090	842.866
317.110	16.564	1113.221	842.070
318.125	16.622	1112.353	841.628
319.139	16.578	1111.699	840.839
320.154	16.587	1111.292	840.504
321.168	16.537	1110.809	839.816
322.183	16.583	1109.628	839.077
323.197	16.726	1109.176	839.371
324.212	16.733	1108.743	839.001
325.227	16.777	1108.255	838.777
326.241	16.766	1107.192	837.844
327.256	16.767	1106.371	837.153
328.270	16.712	1105.795	836.371
329.285	16.627	1104.664	835.020
330.300	16.781	1103.795	835.049
331.314	16.751	1102.447	833.811
332.329	16.697	1102.361	833.406
333.343	16.771	1101.046	832.703
334.358	16.851	1099.934	832.180
335.373	16.936	1099.584	832.256
336.387	16.894	1098.840	831.416
337.402	16.906	1098.176	830.899
338.416	16.924	1097.797	830.627
339.431	16.986	1096.933	830.201
340.446	17.090	1096.057	829.974
341.460	17.183	1095.356	829.825
342.475	17.159	1094.667	829.109
343.489	17.136	1093.999	828.418
344.504	17.196	1093.104	827.962
345.519	17.188	1092.241	827.194
346.533	17.215	1091.223	826.483
347.548	17.258	1090.749	826.260
348.562	17.463	1089.303	826.085
349.577	17.202	1089.328	824.767
350.592	17.198	1088.317	823.904
351.606	17.156	1087.509	823.018
352.621	17.101	1086.919	822.235
353.635	17.133	1086.046	821.657
354.650	17.132	1085.382	821.077
355.665	17.186	1084.999	820.976
356.679	17.138	1084.411	820.225
357.694	17.188	1083.441	819.661
358.708	17.231	1083.165	819.584
359.723	17.262	1082.856	819.427
360.738	17.332	1081.839	818.925
361.752	17.298	1080.800	817.901
362.767	17.251	1080.577	817.433
363.781	17.349	1079.643	817.124
364.796	17.400	1079.275	817.022
365.810	17.343	1079.064	816.516
366.825	17.578	1078.093	816.833
367.840	17.528	1077.758	816.268
368.854	17.516	1077.095	815.639
369.869	17.642	1076.203	815.494
370.883	17.579	1075.499	814.585
371.898	17.473	1074.779	813.461
372.913	17.503	1074.173	813.072
373.927	17.536	1073.980	813.012
374.942	17.637	1073.394	812.977
375.956	17.643	1072.423	812.202
376.971	17.737	1071.779	812.088
377.986	17.753	1071.210	811.660
379.000	17.645	1071.111	811.000
380.015	17.716	1070.155	810.541
381.029	17.811	1069.453	810.393
382.044	17.880	1068.701	810.076
383.059	17.794	1068.267	809.271
384.073	17.692	1067.621	808.222
385.088	17.898	1066.322	808.145
386.102	17.852	1065.565	807.279
387.117	17.694	1064.428	805.601
388.132	17.635	1063.809	804.783
389.146	17.768	1062.695	804.498
390.161	17.673	1062.537	803.859
391.175	17.707	1061.769	803.367
392.190	17.809	1060.884	803.107
393.205	17.881	1060.001	802.704
394.219	17.828	1059.690	802.151
395.234	17.847	1058.293	801.109
396.248	17.834	1057.276	800.207
397.263	17.857	1056.122	799.372
398.278	17.706	1055.891	798.420
399.292	17.824	1055.092	798.295
400.307	17.721	1054.090	796.985
401.321	17.792	1053.333	796.674
402.336	17.815	1052.989	796.453
403.350	17.770	1051.869	795.323
404.365	17.828	1051.429	795.193
405.380	18.015	1050.577	795.347
406.394	17.863	1050.048	794.170
407.409	18.007	1049.663	794.478
408.423	18.056	1048.983	794.118
409.438	18.051	1048.212	793.442
410.453	18.233	1047.486	793.667
411.467	18.213	1046.981	793.121
412.482	18.141	1046.275	792.185
413.496	18.198	1045.747	791.980
414.511	18.249	1044.996	791.576
415.526	18.280	1044.283	791.107
416.540	18.381	1044.172	791.420
417.555	18.329	1043.415	790.539
418.569	18.430	1042.866	790.515
419.584	18.322	1042.664	789.794
420.599	18.307	1042.466	789.507
421.613	148.009	1400.916	1792.168
422.628	135.371	1453.144	1792.284
