DTS Sentinel unit serial number:	SN413079Multiplexer serial number:	ORYXHardware model number:	OX4-SRSoftware version number:	ORYX F/W v4.00 Oryx Data Collector v3.7.2.0data status	okinstallation	princeton_trtdifferential loss correction	single-endedforward channel	channel 2reverse channel	N/Adate	2019/09/12time	19:58:49forward acquisition time	15.00reverse acquisition time	0.00gamma	496.2192k internal	0.2328k external	0.2328temperature offset calibration	1.0157default loss term (dB/km)	0.3790temperature slope calibration	1.0000multiplexer offset coefficient	1.0000multiplexer slope coefficient	1.0000fibre end	0.00T internal ref (°C)	31.81T ext. ref 1 (°C)	3.51T ext. ref 2 (°C)	26.39length (m)	temperature (°C)	Stokes	anti-Stokes-747.200	296.897	-0.035	-0.065
-746.185	388.433	0.224	-0.467
-745.171	-200.000	0.099	0.461
-744.156	-19.228	-0.409	0.256
-743.142	-88.898	0.746	0.223
-742.127	-52.718	-0.453	0.211
-741.112	636.684	0.265	-0.678
-740.098	-70.606	0.227	-0.086
-739.083	299.079	0.074	-0.137
-738.069	-117.781	0.861	0.156
-737.054	8.289	-0.813	-0.615
-736.039	-159.618	0.413	0.023
-735.025	-200.000	-0.059	0.957
-734.010	-18.449	-0.089	0.056
-732.996	-124.571	0.284	0.044
-731.981	627.598	-0.212	-0.539
-730.966	-36.164	-0.386	-0.210
-729.952	-102.217	-0.322	-0.078
-728.937	107.916	-0.615	0.738
-727.923	-200.000	0.072	0.325
-726.908	-21.387	0.140	0.086
-725.894	-92.585	0.642	-0.181
-724.879	92.329	0.473	-0.537
-723.864	-109.813	0.428	0.091
-722.850	166.016	0.215	0.306
-721.835	169.589	0.080	0.115
-720.821	771.267	0.084	-0.230
-719.806	229.679	-0.262	0.431
-718.791	19.511	0.549	-0.445
-717.777	-14.018	0.336	-0.219
-716.762	11.926	-0.429	-0.332
-715.748	-57.289	-0.191	-0.085
-714.733	-200.000	-0.059	0.993
-713.718	-159.082	0.690	-0.039
-712.704	-68.507	0.159	-0.062
-711.689	800.000	0.150	-0.497
-710.675	-114.659	0.346	-0.067
-709.660	117.518	-0.432	0.535
-708.645	7.712	0.392	0.295
-707.631	206.243	-0.365	0.571
-706.616	-121.057	-0.852	0.144
-705.602	-120.596	0.658	0.112
-704.587	238.617	-0.703	1.176
-703.572	-71.837	-0.785	0.294
-702.558	546.364	0.336	-0.807
-701.543	800.000	0.097	-0.278
-700.529	414.323	0.166	-0.355
-699.514	800.000	-0.079	0.327
-698.499	-200.000	0.052	-0.680
-697.485	-200.000	-0.041	0.318
-696.470	-3.136	-0.921	-0.646
-695.456	-67.679	-0.967	-0.381
-694.441	382.783	-0.191	-0.395
-693.426	132.198	-0.254	0.329
-692.412	437.344	-0.243	-0.533
-691.397	147.988	-0.342	-0.464
-690.383	800.000	0.145	0.417
-689.368	110.808	-0.473	-0.573
-688.354	-167.577	1.129	0.045
-687.339	-127.892	-0.906	-0.131
-686.324	-86.219	-0.693	0.215
-685.310	-106.321	0.311	-0.070
-684.295	-6.869	0.205	-0.140
-683.281	-113.179	-0.363	-0.072
-682.266	-75.911	0.172	0.061
-681.251	-200.000	0.063	-0.464
-680.237	77.640	0.313	0.336
-679.222	-200.000	0.068	-1.178
-678.208	-119.704	-0.151	0.026
-677.193	87.527	-0.236	-0.262
-676.178	-181.972	-1.052	-0.020
-675.164	236.312	-0.316	0.526
-674.149	111.716	0.454	-0.551
-673.135	-200.000	0.011	-0.252
-672.120	112.911	-0.342	0.416
-671.105	86.582	0.269	-0.298
-670.091	-13.311	-0.432	-0.282
-669.076	-122.282	0.503	-0.083
-668.062	549.545	0.097	-0.234
-667.047	-200.000	0.058	-0.262
-666.032	-140.604	-0.707	-0.074
-665.018	-59.005	-0.599	0.260
-664.003	684.134	0.293	-0.767
-662.989	92.294	0.433	-0.491
-661.974	-19.016	0.466	0.291
-660.959	201.064	-0.224	0.347
-659.945	-200.000	-0.074	-0.364
-658.930	-92.025	-0.528	0.150
-657.916	33.821	-0.077	-0.067
-656.901	800.000	0.168	-0.641
-655.886	800.000	-0.138	-0.448
-654.872	-8.151	-0.430	0.291
-653.857	-200.000	-0.010	0.458
-652.843	-49.874	0.290	-0.138
-651.828	-50.711	-1.019	-0.482
-650.814	800.000	-0.111	0.316
-649.799	-103.054	-0.721	-0.172
-648.784	800.000	0.047	0.144
-647.770	60.818	-0.236	0.235
-646.755	-200.000	0.074	-0.587
-645.741	-142.114	-0.798	0.080
-644.726	-114.105	0.235	-0.046
-643.711	-25.585	0.439	-0.260
-642.697	103.460	-0.281	-0.331
-641.682	-159.393	0.238	-0.013
-640.668	-200.000	-0.166	0.793
-639.653	88.867	-0.086	0.096
-638.638	752.139	0.119	0.321
-637.624	-80.381	-0.920	0.308
-636.609	-200.000	-0.042	0.299
-635.595	-77.728	-0.814	-0.282
-634.580	-35.433	0.419	-0.229
-633.565	-200.000	0.049	-1.037
-632.551	-121.627	-1.054	-0.175
-631.536	-72.933	0.442	-0.163
-630.522	195.238	-0.212	0.324
-629.507	-200.000	-0.001	0.602
-628.492	-95.968	0.197	0.053
-627.478	21.494	-0.073	-0.060
-626.463	-155.414	-0.153	0.010
-625.449	-63.925	-0.819	-0.336
-624.434	800.000	0.087	-0.316
-623.419	16.253	-0.732	0.580
-622.405	388.534	0.108	-0.225
-621.390	-77.359	-0.801	-0.279
-620.376	-156.841	-0.182	-0.011
-619.361	-200.000	0.090	-1.050
-618.346	51.489	-0.320	0.305
-617.332	279.376	-0.169	0.302
-616.317	-83.163	-0.032	-0.010
-615.303	800.000	0.034	-0.119
-614.288	86.796	0.491	0.543
-613.273	-27.087	-0.420	0.246
-612.259	371.077	-0.186	-0.378
-611.244	42.059	0.768	-0.699
-610.230	800.000	-0.161	-0.668
-609.215	800.000	-0.158	0.481
-608.201	-133.168	-0.232	0.029
-607.186	289.029	-0.093	-0.168
-606.171	-200.000	0.036	-0.508
-605.157	80.484	-0.433	0.467
-604.142	-200.000	-0.107	0.588
-603.128	-28.667	-0.616	0.355
-602.113	-161.113	0.236	-0.012
-601.098	-80.347	-0.748	-0.251
-600.084	800.000	-0.047	0.154
-599.069	-200.000	-0.014	0.386
-598.055	-200.000	-0.009	-0.040
-597.040	-3.563	-0.247	0.172
-596.025	98.878	0.666	0.771
-595.011	47.806	-0.405	-0.378
-593.996	-2.695	-0.682	-0.478
-592.982	-200.000	0.008	0.072
-591.967	-200.000	0.004	0.140
-590.952	257.964	0.235	-0.406
-589.938	-51.265	-0.090	-0.042
-588.923	-200.000	-0.119	0.562
-587.909	-200.000	0.039	-0.259
-586.894	116.100	-0.554	0.679
-585.879	96.024	-0.048	-0.055
-584.865	243.418	0.470	-0.790
-583.850	-138.521	0.738	0.081
-582.836	800.000	-0.145	0.445
-581.821	-200.000	-0.046	0.656
-580.806	-200.000	-0.040	-0.399
-579.792	404.076	0.415	-0.875
-578.777	96.038	-0.479	-0.548
-577.763	-96.487	0.364	0.096
-576.748	-200.000	0.000	-0.271
-575.733	-107.764	-0.951	-0.208
-574.719	-89.624	0.503	0.148
-573.704	-72.237	-0.876	0.325
-572.690	157.199	-0.386	-0.534
-571.675	800.000	0.337	1.029
-570.661	-25.560	-0.672	0.397
-569.646	-163.887	-0.543	0.025
-568.631	-98.101	-0.110	-0.028
-567.617	24.777	0.753	0.625
-566.602	800.000	0.223	-0.619
-565.588	-200.000	0.014	0.120
-564.573	-6.709	-0.191	-0.130
-563.558	-73.074	0.411	-0.151
-562.544	-90.663	0.386	-0.111
-561.529	-200.000	-0.122	0.600
-560.515	316.812	-0.032	-0.061
-559.500	-39.739	-0.524	0.274
-558.485	-150.933	0.536	-0.040
-557.471	800.000	-0.332	-0.995
-556.456	110.670	-0.334	-0.402
-555.442	32.009	-0.440	-0.379
-554.427	-200.000	-0.096	-0.993
-553.412	-10.315	0.287	0.190
-552.398	-51.949	-0.511	-0.238
-551.383	-190.117	-0.348	-0.004
-550.369	182.035	0.700	-1.031
-549.354	-49.176	0.446	-0.213
-548.339	-73.204	0.325	0.119
-547.325	-154.788	0.283	-0.019
-546.310	-200.000	0.037	0.360
-545.296	22.950	-0.104	0.085
-544.281	75.912	0.384	-0.406
-543.266	-200.000	-0.012	0.495
-542.252	-6.467	0.295	-0.201
-541.237	236.335	0.316	0.522
-540.223	219.548	-0.105	-0.168
-539.208	-200.000	-0.078	-0.416
-538.193	25.162	-0.496	0.412
-537.179	-200.000	-0.134	-0.731
-536.164	94.975	0.384	-0.437
-535.150	-165.758	-0.399	0.017
-534.135	10.836	0.412	0.315
-533.121	-200.000	0.167	0.857
-532.106	-200.000	0.096	-0.737
-531.091	-3.564	0.659	-0.458
-530.077	-135.301	-0.960	-0.115
-529.062	354.152	0.131	-0.260
-528.048	800.000	-0.166	0.644
-527.033	800.000	0.196	-0.557
-526.018	242.409	-0.081	0.136
-525.004	91.957	-0.613	0.690
-523.989	-85.899	1.376	0.426
-522.975	492.932	0.375	0.859
-521.960	-200.000	0.034	0.651
-520.945	77.451	-0.596	-0.634
-519.931	800.000	-0.150	-0.471
-518.916	-128.392	-0.610	0.087
-517.902	479.444	0.344	-0.778
-516.887	-123.721	-0.903	0.143
-515.872	-200.000	0.017	0.102
-514.858	-22.506	0.066	0.040
-513.843	37.095	0.635	0.561
-512.829	-58.376	0.374	-0.162
-511.814	-9.338	0.661	0.441
-510.799	60.529	0.684	0.677
-509.785	299.791	0.262	0.483
-508.770	31.857	0.653	0.561
-507.756	-115.039	0.554	-0.105
-506.741	261.363	-0.455	0.786
-505.726	800.000	0.129	-0.505
-504.712	-128.055	0.571	-0.082
-503.697	-120.099	0.328	-0.056
-502.683	-92.834	0.515	0.144
-501.668	-18.978	0.687	0.426
-500.653	79.588	-0.498	0.534
-499.639	-200.000	-0.022	-0.192
-498.624	629.818	0.104	-0.262
-497.610	-80.262	0.744	-0.248
-496.595	-129.850	-0.457	-0.063
-495.581	-97.585	0.298	-0.077
-494.566	-200.000	-0.051	-0.595
-493.551	18.379	-0.411	0.328
-492.537	160.774	0.287	-0.399
-491.522	-200.000	-0.051	0.493
-490.508	360.694	-0.066	-0.132
-489.493	-8.855	-0.303	-0.203
-488.478	296.347	0.549	-1.004
-487.464	120.276	-0.411	0.509
-486.449	-84.617	-0.384	0.121
-485.435	800.000	-0.272	0.902
-484.420	50.434	0.329	-0.311
-483.405	800.000	-0.049	0.144
-482.391	-200.000	-0.102	-0.499
-481.376	-200.000	0.196	0.938
-480.362	81.185	0.913	0.984
-479.347	108.839	-0.436	0.520
-478.332	-148.388	-0.407	-0.033
-477.318	214.150	0.323	0.510
-476.303	-97.206	0.411	0.107
-475.289	112.144	0.529	0.637
-474.274	-200.000	0.123	-0.742
-473.259	800.000	0.038	0.148
-472.245	-83.126	-0.165	0.053
-471.230	-200.000	0.052	-0.329
-470.216	800.000	-0.164	-0.519
-469.201	34.986	0.872	0.761
-468.186	-200.000	0.025	-0.179
-467.172	-88.285	-0.840	-0.251
-466.157	800.000	0.280	0.856
-465.143	232.292	-0.468	-0.767
-464.128	78.708	-0.384	-0.409
-463.113	-200.000	-0.104	-0.461
-462.099	800.000	0.062	0.184
-461.084	-63.168	-0.942	-0.387
-460.070	98.863	-0.351	0.403
-459.055	-134.376	0.139	0.017
-458.040	234.819	0.148	-0.243
-457.026	-116.189	-0.303	-0.056
-456.011	-173.917	0.286	0.008
-454.997	252.811	-0.116	-0.197
-453.982	-108.300	0.693	0.149
-452.968	74.009	-0.499	-0.521
-451.953	-81.930	0.155	0.050
-450.938	766.397	-0.155	0.421
-449.924	-98.315	0.809	0.207
-448.909	454.736	0.090	-0.198
-447.895	800.000	0.425	1.177
-446.880	59.761	0.548	-0.539
-445.865	80.582	-0.934	-1.003
-444.851	-35.843	-0.446	0.240
-443.836	187.188	-0.108	-0.160
-442.822	350.808	0.244	0.480
-441.807	-106.297	-0.769	-0.172
-440.792	66.282	-0.563	-0.569
-439.778	-200.000	0.047	-0.557
-438.763	800.000	0.155	-0.492
-437.749	-118.147	0.809	-0.144
-436.734	800.000	0.281	0.783
-435.719	-52.296	0.427	-0.197
-434.705	800.000	-0.086	-0.276
-433.690	56.846	-0.663	-0.643
-432.676	208.733	-0.379	-0.591
-431.661	24.309	0.299	0.246
-430.646	46.958	-0.199	-0.184
-429.632	-26.265	-0.512	0.299
-428.617	-200.000	-0.048	0.248
-427.603	123.512	-0.353	0.440
-426.588	330.748	-0.517	0.991
-425.573	37.939	-0.194	-0.171
-424.559	185.356	-0.214	-0.316
-423.544	70.088	-0.521	0.535
-422.530	-200.000	0.032	-0.411
-421.515	-4.605	-0.220	0.151
-420.500	-92.945	0.616	-0.171
-419.486	329.457	0.054	-0.104
-418.471	-103.439	-0.707	-0.166
-417.457	270.772	-0.578	-1.013
-416.442	80.114	-0.200	0.214
-415.428	-174.360	-0.884	0.025
-414.413	-97.727	-0.736	-0.190
-413.398	19.220	-1.015	-0.810
-412.384	-200.000	-0.004	-0.246
-411.369	800.000	0.200	-0.602
-410.355	-107.368	0.309	-0.068
-409.340	-71.163	0.399	0.149
-408.325	-112.798	-0.332	0.066
-407.311	-121.196	0.256	-0.043
-406.296	190.796	-0.178	-0.267
-405.282	207.705	-0.354	-0.550
-404.267	22.803	-0.349	0.284
-403.252	-16.899	0.551	-0.346
-402.238	-5.796	0.348	-0.237
-401.223	-200.000	-0.083	0.406
-400.209	-200.000	0.009	-0.110
-399.194	239.292	0.205	-0.339
-398.179	-17.402	0.123	0.077
-397.165	231.526	0.402	0.655
-396.150	46.287	0.595	-0.548
-395.136	388.275	-0.302	-0.621
-394.121	-200.000	-0.010	-0.110
-393.106	-200.000	-0.160	-0.869
-392.092	-120.661	0.543	-0.091
-391.077	2.656	-0.514	0.370
-390.063	800.000	-0.193	-0.650
-389.048	-146.399	-0.358	-0.031
-388.033	12.809	-0.851	0.654
-387.019	800.000	-0.071	0.277
-386.004	33.182	0.313	0.269
-384.990	800.000	0.054	0.218
-383.975	183.957	0.386	0.567
-382.960	-200.000	-0.018	-0.465
-381.946	187.336	-0.145	0.215
-380.931	-168.145	-0.334	0.013
-379.917	-62.199	-0.493	0.204
-378.902	-152.329	-0.845	-0.061
-377.888	-200.000	-0.023	-0.805
-376.873	800.000	0.184	-0.790
-375.858	68.517	0.666	-0.679
-374.844	-97.813	-0.517	0.133
-373.829	-200.000	-0.057	0.822
-372.815	652.289	-0.099	0.251
-371.800	130.731	-0.166	-0.211
-370.785	746.497	0.191	-0.511
-369.771	-130.530	-0.546	-0.073
-368.756	-200.000	0.050	-0.793
-367.742	-1.959	0.717	0.501
-366.727	-2.929	-0.241	-0.167
-365.712	-200.000	0.007	-0.488
-364.698	800.000	-0.191	0.748
-363.683	-200.000	0.014	-0.280
-362.669	800.000	0.165	-0.619
-361.654	-200.000	-0.086	-0.393
-360.639	-70.581	0.605	-0.227
-359.625	106.772	-0.147	0.173
-358.610	-84.086	0.590	-0.186
-357.596	-141.771	-0.402	-0.040
-356.581	800.000	-0.177	-0.691
-355.566	69.038	-0.213	-0.218
-354.552	-200.000	0.087	0.786
-353.537	-43.433	0.384	0.193
-352.523	-23.119	-0.304	0.181
-351.508	108.029	0.065	0.077
-350.493	800.000	0.100	-0.376
-349.479	1.993	-0.555	0.398
-348.464	339.820	0.180	-0.348
-347.450	-124.902	0.571	0.087
-346.435	78.420	0.182	-0.193
-345.420	800.000	0.073	0.307
-344.406	179.262	0.389	-0.564
-343.391	155.126	-0.253	-0.345
-342.377	-64.942	0.631	-0.253
-341.362	-200.000	-0.009	-0.200
-340.348	800.000	0.164	0.481
-339.333	-8.846	0.764	0.508
-338.318	-200.000	0.019	-0.102
-337.304	158.083	-0.745	1.025
-336.289	-19.334	0.565	-0.347
-335.275	-104.746	0.109	0.025
-334.260	163.569	-0.541	0.754
-333.245	800.000	-0.305	0.976
-332.231	-105.965	-0.380	-0.085
-331.216	-109.794	0.561	0.117
-330.202	-126.984	-0.209	0.031
-329.187	-48.912	-0.964	0.458
-328.172	-80.600	0.462	-0.153
-327.158	-200.000	0.011	-0.795
-326.143	-24.184	-0.312	0.185
-325.129	-76.249	0.493	-0.172
-324.114	53.325	0.138	0.131
-323.099	800.000	0.052	-0.196
-322.085	474.857	0.290	0.648
-321.070	37.805	0.060	0.053
-320.056	-105.951	-0.531	-0.119
-319.041	800.000	0.095	-0.395
-318.026	58.452	0.286	-0.278
-317.012	-124.771	0.582	0.089
-315.997	-200.000	0.053	-0.277
-314.983	-170.128	-0.585	0.021
-313.968	-200.000	-0.117	0.510
-312.953	-26.784	1.041	-0.603
-311.939	-200.000	0.030	0.309
-310.924	128.984	-0.303	0.383
-309.910	-83.730	0.780	0.247
-308.895	-200.000	-0.006	-0.233
-307.880	-116.573	-0.672	0.123
-306.866	40.120	-0.716	0.637
-305.851	-108.835	-0.906	-0.192
-304.837	-40.105	0.290	0.150
-303.822	28.433	-0.499	-0.418
-302.807	0.896	-0.084	-0.060
-301.793	-200.000	0.013	0.188
-300.778	77.435	-0.649	0.684
-299.764	-200.000	-0.085	0.437
-298.749	800.000	0.129	-0.534
-297.735	800.000	0.187	-0.672
-296.720	99.754	0.705	0.809
-295.705	-85.654	0.701	0.216
-294.691	46.284	-0.440	-0.403
-293.676	-64.283	-0.434	0.175
-292.662	-139.196	0.889	-0.095
-291.647	800.000	-0.057	-0.175
-290.632	-57.576	0.346	-0.150
-289.618	39.644	0.449	-0.399
-288.603	-73.338	0.811	0.294
-287.589	800.000	-0.288	-0.817
-286.574	-20.512	0.957	-0.583
-285.559	800.000	0.135	0.538
-284.545	800.000	0.249	0.685
-283.530	172.942	0.231	0.329
-282.516	800.000	-0.146	-0.497
-281.501	180.392	0.102	-0.148
-280.486	-31.808	-0.612	0.339
-279.472	-127.088	0.836	-0.121
-278.457	-200.000	0.082	-0.614
-277.443	122.579	-0.433	-0.536
-276.428	-11.978	0.805	0.522
-275.413	-28.000	0.554	0.317
-274.399	-47.794	-0.732	-0.351
-273.384	-57.578	0.090	0.039
-272.370	282.156	-0.171	0.303
-271.355	-83.230	0.550	-0.175
-270.340	-200.000	-0.098	-1.251
-269.326	127.359	0.270	0.339
-268.311	-5.417	0.223	-0.152
-267.297	132.506	-0.551	-0.703
-266.282	-44.978	0.490	-0.241
-265.267	-55.393	-0.217	0.096
-264.253	-60.056	0.613	-0.259
-263.238	351.478	-0.222	0.436
-262.224	800.000	0.416	1.269
-261.209	-36.900	-0.498	-0.264
-260.195	75.850	0.349	0.365
-259.180	-27.153	0.461	0.266
-258.165	69.896	0.178	-0.182
-257.151	212.562	0.423	0.660
-256.136	-200.000	0.119	-0.698
-255.122	544.390	-0.176	-0.416
-254.107	108.042	-0.387	0.456
-253.092	215.345	-0.562	0.882
-252.078	285.038	-0.315	-0.560
-251.063	-45.377	0.829	-0.406
-250.049	-27.949	-0.190	-0.109
-249.034	72.811	-0.540	-0.557
-248.019	-57.364	-0.431	-0.187
-247.005	-34.192	0.353	-0.191
-245.990	-80.702	-0.213	0.070
-244.976	116.015	-0.617	0.746
-243.961	800.000	0.261	-0.737
-242.946	-82.864	0.462	-0.147
-241.932	-200.000	-0.007	-0.047
-240.917	339.535	0.368	-0.709
-239.903	-173.186	0.433	0.013
-238.888	-22.070	0.811	0.486
-237.873	57.920	0.588	0.569
-236.859	-200.000	-0.745	0.003
-235.844	-200.000	0.102	0.464
-234.830	-44.166	-0.482	0.239
-233.815	479.975	0.132	-0.296
-232.800	-82.665	0.418	-0.134
-231.786	306.498	-0.124	-0.229
-230.771	-70.336	0.383	-0.143
-229.757	144.269	-0.137	0.181
-228.742	30.088	0.274	0.231
-227.727	-43.072	0.551	0.276
-226.713	121.997	-0.467	-0.575
-225.698	192.131	0.167	-0.249
-224.684	-200.000	0.013	0.606
-223.669	-66.332	-0.697	-0.274
-222.655	-134.776	0.847	0.102
-221.640	331.052	0.252	-0.479
-220.625	224.863	0.326	-0.521
-219.611	-85.375	-1.025	0.316
-218.596	-41.001	-0.712	0.363
-217.582	-28.818	0.383	0.217
-216.567	44.946	0.347	-0.315
-215.552	800.000	0.297	-0.952
-214.538	-118.607	-0.865	0.151
-213.523	60.444	-0.253	-0.247
-212.509	-200.000	0.033	-0.458
-211.494	-200.000	0.169	1.275
-210.479	-14.209	0.660	0.420
-209.465	173.227	0.033	-0.047
-208.450	-43.892	0.637	-0.317
-207.436	-178.965	0.555	-0.012
-206.421	-200.000	0.040	0.254
-205.406	-200.000	0.019	0.147
-204.392	-175.399	-1.065	-0.029
-203.377	-124.916	0.992	0.151
-202.363	91.604	0.795	0.882
-201.348	3.816	-0.575	0.414
-200.333	424.713	0.338	-0.717
-199.319	-42.047	-0.470	0.237
-198.304	14.003	0.282	-0.217
-197.290	-65.111	-0.172	0.069
-196.275	47.337	-0.416	0.382
-195.260	-11.464	-0.195	0.126
-194.246	54.506	-0.352	-0.334
-193.231	-12.187	0.405	-0.261
-192.217	10.859	-0.561	0.422
-191.202	800.000	-0.063	0.215
-190.187	245.371	-0.043	0.071
-189.173	86.080	0.394	0.427
-188.158	139.692	0.615	0.799
-187.144	-59.512	0.214	-0.091
-186.129	-105.732	0.406	0.091
-185.114	-110.700	-0.235	0.048
-184.100	113.240	0.517	0.618
-183.085	72.986	0.127	0.131
-182.071	162.394	-0.161	0.222
-181.056	800.000	-0.043	-0.163
-180.042	338.752	-0.139	-0.267
-179.027	-77.621	0.490	-0.167
-178.012	-190.157	-0.487	-0.005
-176.998	-73.275	0.257	-0.093
-175.983	-200.000	0.045	0.340
-174.969	5.938	-0.144	-0.105
-173.954	-87.043	-0.259	0.078
-172.939	126.807	-0.402	0.502
-171.925	-94.518	-0.209	-0.056
-170.910	-200.000	0.025	-0.521
-169.896	-200.000	-0.078	0.433
-168.881	9.500	0.152	0.113
-167.866	-158.722	-0.319	0.018
-166.852	-200.000	-0.005	0.220
-165.837	800.000	-0.224	0.664
-164.823	-38.041	0.243	0.127
-163.808	722.834	0.145	0.381
-162.793	-117.141	0.342	0.061
-161.779	-200.000	0.150	0.936
-160.764	-200.000	-0.071	1.032
-159.750	-200.000	0.019	-0.551
-158.735	-28.252	0.406	-0.231
-157.720	-64.712	-0.217	0.087
-156.706	52.157	0.356	0.334
-155.691	-62.863	-0.325	-0.132
-154.677	-5.748	-0.610	0.411
-153.662	-52.051	0.643	0.294
-152.647	-153.244	0.615	0.042
-151.633	-113.400	0.697	-0.135
-150.618	45.653	-0.857	0.780
-149.604	-94.099	0.144	0.039
-148.589	-80.773	0.794	0.260
-147.574	-200.000	-0.079	0.853
-146.560	-157.853	-0.333	0.019
-145.545	-93.147	-0.134	0.037
-144.531	-72.944	0.326	0.118
-143.516	-200.000	-0.101	0.463
-142.502	98.833	-0.423	0.481
-141.487	-149.723	-0.685	0.053
-140.472	296.233	-0.252	-0.456
-139.458	113.516	-0.318	-0.380
-138.443	-19.422	0.752	-0.459
-137.429	481.301	-0.323	-0.721
-136.414	292.378	-0.185	-0.331
-135.399	-57.104	-0.252	0.109
-134.385	-200.000	-0.020	1.060
-133.370	-64.064	-0.492	0.198
-132.356	418.532	-0.159	-0.334
-131.341	-5.301	0.255	0.172
-130.326	21.034	-0.676	0.539
-129.312	114.054	0.594	-0.711
-128.297	598.100	-0.223	-0.545
-127.283	30.643	-0.506	-0.426
-126.268	-91.610	-0.382	0.107
-125.253	32.391	-0.657	-0.558
-124.239	-37.717	0.843	-0.442
-123.224	-66.824	-0.559	0.218
-122.210	-200.000	-0.112	-0.587
-121.195	132.759	0.453	0.575
-120.180	-81.658	-0.976	-0.315
-119.166	-200.000	-0.003	0.131
-118.151	-200.000	-0.088	-0.527
-117.137	27.989	-0.706	-0.586
-116.122	86.376	0.563	-0.610
-115.107	-27.276	-0.763	-0.437
-114.093	-116.926	0.210	-0.038
-113.078	285.066	0.317	-0.562
-112.064	44.735	0.575	-0.520
-111.049	240.156	0.373	-0.611
-110.034	-63.857	0.060	-0.024
-109.020	800.000	0.345	-0.942
-108.005	206.212	-0.186	-0.285
-106.991	32.783	0.136	-0.116
-105.976	-181.288	1.039	-0.020
-104.962	-44.717	-0.269	-0.132
-103.947	-200.000	0.004	-0.198
-102.932	160.664	0.154	0.211
-101.918	-200.000	0.013	-0.281
-100.903	274.395	0.211	0.367
-99.889	-200.000	0.028	0.481
-98.874	77.208	0.286	0.299
-97.859	-200.000	-0.035	-0.217
-96.845	-92.181	-0.520	-0.144
-95.830	-79.355	0.138	-0.046
-94.816	-70.896	0.542	0.201
-93.801	-49.872	-0.645	-0.301
-92.786	25.433	0.561	-0.458
-91.772	51.139	0.509	0.474
-90.757	-200.000	0.016	0.196
-89.743	530.733	-0.339	-0.787
-88.728	375.419	-0.192	0.384
-87.713	-164.925	0.725	0.032
-86.699	67.147	0.199	0.199
-85.684	-200.000	-0.141	0.840
-84.670	-138.621	-0.978	-0.105
-83.655	800.000	-0.246	0.679
-82.640	-145.168	0.119	0.011
-81.626	-35.063	0.202	-0.108
-80.611	231.084	-0.436	-0.701
-79.597	800.000	-0.136	-0.464
-78.582	-32.282	0.646	-0.354
-77.567	355.986	-0.449	0.879
-76.553	-200.000	0.002	-0.146
-75.538	800.000	0.111	0.362
-74.524	800.000	0.076	0.276
-73.509	45.016	0.288	-0.261
-72.494	-2.432	0.582	0.401
-71.480	-77.212	-0.749	0.256
-70.465	-114.872	0.649	-0.122
-69.451	124.086	-0.774	0.954
-68.436	318.838	-0.626	1.164
-67.422	-175.372	0.219	-0.006
-66.407	-87.968	-0.602	0.178
-65.392	-200.000	-0.135	0.939
-64.378	15.692	-0.446	-0.344
-63.363	800.000	-0.140	0.428
-62.349	142.314	0.563	0.733
-61.334	39.734	-0.947	-0.834
-60.319	356.869	-0.397	0.776
-59.305	-110.071	-0.761	-0.156
-58.290	591.254	0.545	1.320
-57.276	-200.000	0.052	1.416
-56.261	-200.000	97.920	603.771
-55.246	632.867	1370.719	3407.643
-54.232	200.345	2547.325	3839.683
-53.217	111.744	2248.645	2662.833
-52.203	41.152	1881.773	1668.086
-51.188	34.993	1673.687	1437.487
-50.173	32.433	1629.884	1381.050
-49.159	51.970	1680.269	1569.614
-48.144	52.196	1697.546	1587.371
-47.130	34.649	1656.535	1419.969
-46.115	32.012	1640.705	1386.892
-45.100	31.742	1637.243	1381.918
-44.086	31.782	1634.537	1379.868
-43.071	31.702	1632.571	1377.566
-42.057	31.813	1630.055	1376.208
-41.042	31.639	1628.080	1373.206
-40.027	31.626	1626.414	1371.651
-39.013	31.557	1624.394	1369.388
-37.998	31.571	1623.056	1368.312
-36.984	31.820	1620.243	1367.705
-35.969	31.881	1618.424	1366.554
-34.954	31.896	1618.597	1366.761
-33.940	31.799	1615.864	1363.692
-32.925	31.680	1614.578	1361.685
-31.911	31.826	1612.868	1361.249
-30.896	31.855	1612.058	1360.722
-29.881	31.709	1609.703	1357.623
-28.867	31.533	1608.288	1355.099
-27.852	32.032	1605.466	1356.276
-26.838	31.705	1605.054	1353.514
-25.823	31.911	1603.593	1353.715
-24.809	31.792	1603.176	1352.446
-23.794	31.658	1601.620	1350.114
-22.779	32.110	1598.385	1350.586
-21.765	31.648	1599.149	1347.850
-20.750	31.913	1594.772	1346.014
-19.736	31.721	1595.695	1345.363
-18.721	32.038	1592.989	1345.300
-17.706	31.946	1591.546	1343.367
-16.692	31.885	1589.366	1341.040
-15.677	31.843	1589.152	1340.505
-14.663	31.737	1587.794	1338.544
-13.648	31.870	1585.873	1337.822
-12.633	32.062	1583.862	1337.441
-11.619	31.873	1582.908	1335.236
-10.604	31.795	1581.716	1333.627
-9.590	31.819	1581.441	1333.511
-8.575	32.010	1578.877	1332.649
-7.560	31.825	1577.885	1330.446
-6.546	31.780	1577.045	1329.364
-5.531	31.766	1575.528	1327.935
-4.517	31.816	1574.778	1327.607
-3.502	31.807	1573.710	1326.588
-2.487	31.780	1571.593	1324.560
-1.473	31.562	1559.941	1313.161
-0.458	28.697	1541.573	1277.744
0.556	26.526	1541.770	1245.090
1.571	24.059	1564.404	1246.016
2.586	23.520	1576.760	1251.943
3.600	21.102	1524.418	1193.752
4.615	12.383	1416.962	1053.818
5.629	4.763	1352.974	959.323
6.644	3.616	1344.022	945.866
7.659	3.282	1343.400	943.299
8.673	3.637	1342.083	944.460
9.688	3.506	1339.667	941.879
10.702	3.347	1337.623	939.391
11.717	6.941	1343.647	965.514
12.731	16.122	1360.547	1034.115
13.746	22.868	1373.252	1085.289
14.761	24.883	1374.843	1098.833
15.775	24.775	1372.477	1096.181
16.790	24.082	1372.317	1091.713
17.804	23.876	1370.766	1089.120
18.819	24.057	1369.155	1088.847
19.834	23.961	1369.498	1088.439
20.848	23.635	1368.458	1085.525
21.863	23.750	1368.570	1086.219
22.877	23.790	1365.216	1083.707
23.892	23.958	1364.161	1083.797
24.907	23.809	1364.450	1083.024
25.921	23.751	1363.108	1081.507
26.936	23.632	1363.623	1081.095
27.950	23.661	1362.708	1080.453
28.965	23.901	1360.423	1080.000
29.980	23.942	1358.444	1078.582
30.994	24.072	1359.419	1080.051
32.009	23.973	1358.105	1078.312
33.023	24.170	1356.683	1078.280
34.038	24.055	1355.778	1076.766
35.053	24.060	1354.030	1075.313
36.067	23.857	1353.733	1073.756
37.082	23.880	1353.082	1073.286
38.096	23.655	1352.672	1071.510
39.111	23.894	1351.666	1072.054
40.126	23.954	1350.146	1071.115
41.140	23.604	1349.605	1068.489
42.155	23.453	1348.645	1066.724
43.169	23.325	1348.858	1066.030
44.184	23.263	1348.497	1065.278
45.199	23.511	1348.392	1066.589
46.213	23.598	1348.826	1067.365
47.228	23.950	1348.061	1068.779
48.242	23.895	1346.843	1067.389
49.257	23.697	1345.164	1064.775
50.271	23.735	1343.894	1063.906
51.286	23.863	1342.917	1063.799
52.301	23.680	1341.355	1061.376
53.315	23.748	1340.533	1061.039
54.330	23.640	1338.328	1058.555
55.344	23.449	1337.538	1056.700
56.359	23.452	1336.902	1056.122
57.374	23.337	1335.665	1054.367
58.388	23.501	1334.954	1054.687
59.403	23.279	1335.096	1053.386
60.417	23.307	1333.683	1052.342
61.432	23.222	1332.791	1051.042
62.447	23.185	1332.467	1050.470
63.461	23.137	1331.019	1048.952
64.476	23.148	1330.598	1048.591
65.490	23.146	1330.040	1048.051
66.505	23.232	1327.338	1046.336
67.520	23.105	1327.042	1045.259
68.534	23.244	1325.848	1045.046
69.549	23.329	1323.711	1043.772
70.563	23.200	1322.910	1042.285
71.578	22.879	1322.962	1040.348
72.593	22.986	1321.623	1039.828
73.607	23.256	1320.011	1040.059
74.622	23.094	1320.169	1039.138
75.636	23.205	1318.672	1038.518
76.651	22.933	1318.852	1036.972
77.666	23.212	1318.700	1038.400
78.680	23.145	1317.932	1037.310
79.695	23.411	1317.591	1038.505
80.709	23.426	1316.392	1037.555
81.724	23.495	1316.585	1038.023
82.739	23.301	1316.600	1036.808
83.753	23.641	1316.162	1038.359
84.768	23.968	1314.809	1039.108
85.782	23.975	1313.600	1038.104
86.797	24.044	1311.852	1037.031
87.812	24.083	1310.034	1035.730
88.826	23.884	1309.952	1034.418
89.841	24.027	1308.147	1033.732
90.855	23.961	1308.493	1033.529
91.870	24.073	1306.795	1032.746
92.884	24.142	1306.644	1032.933
93.899	24.121	1306.436	1032.556
94.914	24.082	1304.698	1030.863
95.928	23.979	1304.490	1030.016
96.943	24.192	1303.446	1030.332
97.957	24.154	1302.278	1029.096
98.972	24.215	1301.538	1028.773
99.987	23.820	1299.812	1025.039
101.001	23.957	1299.196	1025.254
102.016	23.775	1299.015	1023.974
103.030	24.140	1297.010	1024.399
104.045	23.921	1297.381	1023.341
105.060	23.791	1295.710	1021.189
106.074	23.557	1294.294	1018.635
107.089	23.654	1292.107	1017.384
108.103	23.247	1291.141	1014.197
109.118	23.143	1291.098	1013.483
110.133	23.067	1288.828	1011.172
111.147	23.221	1287.808	1011.163
112.162	23.234	1286.445	1010.081
113.176	23.255	1285.850	1009.644
114.191	23.518	1285.215	1010.555
115.206	23.465	1284.052	1009.246
116.220	23.709	1282.322	1009.186
117.235	23.217	1282.499	1006.436
118.249	23.355	1280.003	1005.175
119.264	23.166	1280.344	1004.279
120.279	23.124	1279.109	1002.985
121.293	23.305	1277.762	1002.867
122.308	22.920	1276.556	999.651
123.322	22.975	1275.724	999.221
124.337	22.964	1275.305	998.743
125.352	23.233	1273.110	998.451
126.366	23.023	1272.948	997.054
127.381	22.996	1271.980	996.055
128.395	22.840	1271.530	994.735
129.410	22.794	1270.331	993.453
130.424	22.901	1269.713	993.484
131.439	22.995	1269.277	993.581
132.454	23.218	1267.836	993.619
133.468	23.463	1268.468	995.400
134.483	23.206	1268.181	993.642
135.497	23.334	1266.834	993.220
136.512	23.285	1265.770	992.024
137.527	23.174	1264.222	990.103
138.541	23.178	1262.984	989.067
139.556	23.730	1260.833	990.373
140.570	23.607	1261.975	990.496
141.585	23.599	1260.866	989.491
142.600	23.830	1260.049	990.052
143.614	24.031	1259.170	990.392
144.629	23.943	1258.890	989.593
145.643	23.681	1257.607	987.044
146.658	23.754	1256.657	986.611
147.673	23.993	1254.273	985.981
148.687	23.651	1252.887	982.911
149.702	23.435	1251.236	980.334
150.716	23.097	1251.056	978.235
151.731	23.222	1249.303	977.469
152.746	23.169	1248.116	976.162
153.760	23.525	1246.335	976.641
154.775	23.656	1246.396	977.323
155.789	23.691	1245.336	976.599
156.804	23.495	1245.736	975.748
157.819	23.624	1243.742	974.812
158.833	24.059	1242.300	975.977
159.848	23.789	1241.677	973.923
160.862	23.911	1241.313	974.218
161.877	23.420	1240.531	970.833
162.892	23.237	1239.401	968.859
163.906	23.242	1237.049	966.961
164.921	23.078	1237.118	966.038
165.935	23.210	1237.113	966.667
166.950	23.552	1236.798	968.202
167.964	23.586	1234.761	966.706
168.979	23.434	1234.378	965.495
169.994	23.515	1233.233	964.953
171.008	23.346	1233.220	963.937
172.023	23.383	1233.482	964.260
173.037	23.757	1232.766	965.645
174.052	23.654	1232.416	964.731
175.067	23.497	1231.108	962.765
176.081	23.162	1228.877	959.121
177.096	23.194	1229.042	959.340
178.110	23.361	1226.781	958.390
179.125	23.572	1225.508	958.452
180.140	23.581	1224.749	957.825
181.154	23.832	1224.328	958.762
182.169	23.852	1223.040	957.777
183.183	23.835	1221.689	956.541
184.198	23.780	1221.744	956.208
185.213	23.828	1220.967	955.771
186.227	24.062	1219.522	955.811
187.242	24.053	1218.894	955.189
188.256	23.907	1218.255	953.821
189.271	24.230	1216.452	954.050
190.286	23.940	1216.110	952.148
191.300	23.524	1214.789	948.803
192.315	23.171	1214.978	946.980
193.329	23.512	1213.928	947.902
194.344	23.283	1213.391	946.174
195.359	23.297	1212.841	945.737
196.373	23.023	1211.625	943.244
197.388	23.216	1211.317	943.947
198.402	23.735	1211.834	947.033
199.417	23.971	1211.438	947.902
200.432	24.327	1210.506	948.979
201.446	23.938	1210.396	946.740
202.461	24.214	1208.860	946.921
203.475	24.124	1207.656	945.419
204.490	23.731	1206.386	942.258
205.504	23.506	1205.638	940.393
206.519	23.565	1204.973	940.107
207.534	23.430	1202.824	937.634
208.548	23.153	1201.961	935.410
209.563	23.357	1201.549	936.083
210.577	23.140	1200.720	934.214
211.592	23.512	1200.463	935.894
212.607	24.034	1199.697	937.964
213.621	24.027	1198.669	937.042
214.636	23.749	1197.883	934.880
215.650	23.718	1197.214	934.111
216.665	24.100	1195.691	934.847
217.680	24.073	1195.566	934.524
218.694	24.226	1194.626	934.512
219.709	24.074	1192.846	932.241
220.723	23.889	1193.576	931.758
221.738	23.938	1193.221	931.654
222.753	23.805	1192.030	929.949
223.767	23.443	1191.067	927.219
224.782	23.869	1191.665	929.833
225.796	24.318	1190.196	930.951
226.811	24.232	1189.571	929.927
227.826	24.202	1187.899	928.381
228.840	23.783	1187.881	926.105
229.855	23.638	1186.851	924.462
230.869	23.261	1188.153	923.428
231.884	23.773	1185.557	923.994
232.899	23.505	1183.783	921.139
233.913	23.583	1183.658	921.363
234.928	23.306	1183.533	919.747
235.942	23.414	1182.682	919.566
236.957	23.004	1181.755	916.639
237.972	22.911	1180.969	915.464
238.986	23.129	1180.331	916.019
240.001	23.424	1179.199	916.582
241.015	23.497	1179.012	916.733
242.030	23.512	1178.416	916.266
243.045	23.575	1178.520	916.595
244.059	23.436	1178.355	915.664
245.074	23.738	1176.792	915.925
246.088	23.576	1176.891	915.089
247.103	23.999	1175.095	915.787
248.117	24.144	1175.261	916.582
249.132	24.349	1174.167	916.699
250.147	24.482	1174.055	917.218
251.161	24.993	1173.713	919.494
252.176	24.911	1171.943	917.606
253.190	24.703	1172.073	916.559
254.205	24.906	1171.208	916.843
255.220	24.942	1171.048	916.816
256.234	24.837	1170.375	915.673
257.249	25.002	1170.073	916.198
258.263	24.515	1170.154	913.688
259.278	24.774	1168.508	913.649
260.293	24.651	1167.926	912.485
261.307	24.829	1167.875	913.274
262.322	24.732	1167.071	912.066
263.336	24.849	1166.541	912.171
264.351	24.817	1165.943	911.456
265.366	24.790	1164.926	910.447
266.380	24.891	1164.164	910.281
267.395	24.884	1163.528	909.667
268.409	24.683	1162.195	907.526
269.424	24.838	1160.650	907.025
270.439	24.988	1160.366	907.482
271.453	24.715	1159.880	905.642
272.468	24.777	1158.860	905.079
273.482	24.496	1158.455	903.259
274.497	24.133	1158.747	901.570
275.512	24.148	1158.802	901.609
276.526	24.550	1155.781	901.205
277.541	24.292	1155.958	899.962
278.555	24.314	1155.866	899.923
279.570	24.647	1155.471	901.218
280.585	24.664	1155.275	901.069
281.599	24.768	1153.824	900.379
282.614	24.764	1152.777	899.464
283.628	24.290	1151.411	895.938
284.643	24.430	1150.214	895.630
285.657	24.515	1148.810	894.885
286.672	24.360	1148.731	893.964
287.687	24.401	1148.075	893.583
288.701	24.331	1147.706	892.863
289.716	24.543	1147.061	893.342
290.730	24.296	1145.307	890.664
291.745	24.718	1143.828	891.542
292.760	24.521	1143.612	890.309
293.774	24.794	1144.915	892.610
294.789	24.866	1143.532	891.812
295.803	24.807	1142.626	890.731
296.818	24.463	1142.608	888.928
297.833	24.507	1141.452	888.165
298.847	24.275	1140.750	886.389
299.862	24.228	1140.207	885.653
300.876	24.187	1140.535	885.626
301.891	24.789	1139.030	887.369
302.906	24.898	1138.000	887.029
303.920	24.799	1137.833	886.331
304.935	25.168	1137.412	887.746
305.949	25.153	1137.008	887.282
306.964	25.267	1135.248	886.392
307.979	24.946	1135.847	885.194
308.993	24.833	1134.564	883.558
310.008	24.980	1133.903	883.688
311.022	24.915	1134.308	883.606
312.037	25.099	1133.012	883.426
313.052	24.706	1130.675	879.592
314.066	24.592	1130.262	878.635
315.081	24.473	1128.474	876.582
316.095	23.972	1128.354	873.951
317.110	24.257	1127.898	874.918
318.125	24.075	1127.290	873.477
319.139	24.445	1125.963	874.183
320.154	24.359	1125.298	873.170
321.168	24.311	1124.613	872.326
322.183	24.379	1124.029	872.129
323.197	24.552	1123.632	872.589
324.212	24.482	1123.017	871.692
325.227	24.301	1122.994	870.715
326.241	24.527	1122.407	871.281
327.256	24.740	1121.138	871.260
328.270	24.536	1120.140	869.412
329.285	24.518	1119.132	868.464
330.300	24.635	1118.621	868.560
331.314	24.662	1117.676	867.881
332.329	24.713	1115.446	866.320
333.343	24.369	1116.575	865.451
334.358	24.546	1115.406	865.327
335.373	24.982	1115.377	867.340
336.387	24.848	1115.050	866.359
337.402	24.999	1113.590	865.881
338.416	24.898	1112.859	864.746
339.431	25.039	1112.969	865.436
340.446	25.184	1112.237	865.488
341.460	25.685	1111.971	867.625
342.475	25.441	1111.181	865.753
343.489	25.432	1110.960	865.463
344.504	25.488	1109.668	864.646
345.519	25.943	1108.762	866.051
346.533	25.578	1108.382	863.927
347.548	25.545	1108.939	864.127
348.562	25.580	1107.290	862.929
349.577	25.377	1105.357	860.376
350.592	25.064	1103.992	857.738
351.606	25.020	1103.181	856.821
352.621	24.813	1101.901	854.767
353.635	24.731	1101.816	854.234
354.650	24.870	1100.836	854.059
355.665	24.813	1100.114	853.154
356.679	25.008	1100.986	854.684
357.694	24.806	1100.124	852.977
358.708	25.146	1099.523	854.055
359.723	24.930	1099.317	852.787
360.738	25.065	1098.236	852.517
361.752	25.021	1096.639	850.994
362.767	25.102	1097.157	851.706
363.781	25.022	1096.205	850.509
364.796	25.360	1096.204	852.040
365.810	25.791	1095.399	853.382
366.825	25.975	1095.200	854.020
367.840	25.793	1095.628	853.416
368.854	25.767	1095.575	853.177
369.869	25.380	1094.864	850.715
370.883	25.637	1092.557	850.063
371.898	25.508	1091.824	848.806
372.913	25.505	1090.583	847.755
373.927	25.326	1090.872	847.057
374.942	25.703	1089.770	847.906
375.956	25.859	1088.523	847.593
376.971	25.545	1088.889	846.326
377.986	25.682	1087.286	845.650
379.000	25.876	1088.143	847.153
380.015	25.755	1087.546	846.044
381.029	25.942	1087.600	846.889
382.044	25.844	1086.939	845.838
383.059	25.972	1086.056	845.678
384.073	25.686	1085.678	843.968
385.088	25.451	1084.890	842.179
386.102	25.936	1083.152	843.023
387.117	25.531	1081.357	839.664
388.132	25.223	1080.965	837.847
389.146	25.298	1080.603	837.841
390.161	25.286	1079.122	836.561
391.175	25.481	1078.255	836.725
392.190	25.564	1078.310	837.081
393.205	25.853	1078.124	838.207
394.219	25.818	1076.950	837.054
395.234	25.303	1076.343	834.119
396.248	25.347	1074.192	832.581
397.263	25.449	1072.803	831.904
398.278	25.493	1073.009	832.192
399.292	25.510	1073.115	832.282
400.307	25.364	1071.638	830.388
401.321	25.296	1071.035	829.530
402.336	25.068	1069.345	827.096
403.350	24.987	1069.538	826.801
404.365	25.402	1068.599	827.914
405.380	25.527	1068.530	828.362
406.394	25.370	1067.848	827.037
407.409	25.732	1067.382	828.270
408.423	25.940	1067.084	828.922
409.438	26.040	1066.236	828.646
410.453	25.970	1066.113	828.159
411.467	25.828	1065.703	827.112
412.482	25.913	1064.179	826.247
413.496	26.119	1064.595	827.443
414.511	26.047	1063.850	826.458
415.526	26.156	1062.692	825.986
416.540	26.191	1062.849	826.195
417.555	26.151	1061.660	825.014
418.569	26.251	1060.472	824.476
419.584	26.186	1061.067	824.569
420.599	25.946	1059.700	822.338
421.613	154.192	1404.511	1793.014
422.628	141.678	1454.744	1793.059
