DTS Sentinel unit serial number:	SN413079Multiplexer serial number:	ORYXHardware model number:	OX4-SRSoftware version number:	ORYX F/W v4.00 Oryx Data Collector v3.7.2.0data status	okinstallation	princeton_trtdifferential loss correction	single-endedforward channel	channel 2reverse channel	N/Adate	2019/09/13time	11:11:35forward acquisition time	60.00reverse acquisition time	0.00gamma	496.2192k internal	0.2321k external	0.2321temperature offset calibration	1.0203default loss term (dB/km)	0.3790temperature slope calibration	1.0000multiplexer offset coefficient	1.0000multiplexer slope coefficient	1.0000fibre end	0.00T internal ref (°C)	32.12T ext. ref 1 (°C)	4.69T ext. ref 2 (°C)	29.73length (m)	temperature (°C)	Stokes	anti-Stokes-747.200	-178.378	-0.300	0.007
-746.185	-200.000	0.016	0.084
-745.171	29.437	-0.118	-0.101
-744.156	-162.228	-0.297	-0.015
-743.142	-134.928	-0.036	0.004
-742.127	-200.000	-0.010	-0.246
-741.112	-73.229	-0.145	-0.054
-740.098	-151.620	0.261	-0.019
-739.083	-112.478	0.077	-0.016
-738.069	-69.036	0.361	-0.141
-737.054	-63.655	-0.295	0.122
-736.039	-64.550	0.266	-0.109
-735.025	566.410	0.081	-0.197
-734.010	250.709	-0.171	-0.294
-732.996	-200.000	-0.045	-0.272
-731.981	130.149	-0.302	-0.391
-730.966	-200.000	0.082	-0.395
-729.952	-152.725	-0.096	-0.007
-728.937	-25.152	-0.099	0.059
-727.923	240.482	-0.017	-0.028
-726.908	-200.000	0.002	0.190
-725.894	-70.002	-0.121	-0.047
-724.879	-12.620	0.333	0.219
-723.864	-110.005	0.232	0.049
-722.850	2.071	0.157	-0.114
-721.835	675.957	0.025	0.065
-720.821	-95.491	-0.067	-0.018
-719.806	800.000	0.119	-0.463
-718.791	636.929	-0.067	0.171
-717.777	-200.000	-0.019	0.109
-716.762	293.271	0.136	-0.251
-715.748	25.813	0.182	0.154
-714.733	458.400	-0.173	-0.387
-713.718	249.346	-0.150	-0.257
-712.704	800.000	0.041	0.158
-711.689	-78.389	0.085	-0.029
-710.675	28.791	0.134	0.114
-709.660	800.000	0.070	-0.250
-708.645	-200.000	-0.048	-0.271
-707.631	663.734	0.048	-0.126
-706.616	-200.000	0.044	-0.234
-705.602	580.350	-0.089	-0.220
-704.587	800.000	0.036	0.149
-703.572	-39.757	-0.193	-0.102
-702.558	-98.613	-0.186	-0.048
-701.543	215.775	-0.050	0.080
-700.529	-149.439	-0.222	0.018
-699.514	427.265	-0.127	0.277
-698.499	-72.803	-0.164	0.061
-697.485	548.424	-0.155	0.375
-696.470	-200.000	0.035	0.321
-695.456	800.000	0.077	0.289
-694.441	20.130	-0.063	0.051
-693.426	-157.987	-0.446	0.027
-692.412	166.997	-0.169	0.242
-691.397	-200.000	0.019	0.141
-690.383	5.116	0.087	-0.065
-689.368	800.000	0.046	-0.131
-688.354	-50.935	0.178	-0.084
-687.339	375.776	-0.090	-0.185
-686.324	-200.000	0.011	-0.109
-685.310	148.617	0.189	-0.257
-684.295	800.000	-0.067	0.228
-683.281	41.603	-0.309	0.283
-682.266	-200.000	-0.021	-0.168
-681.251	-33.030	0.119	0.067
-680.237	-200.000	-0.012	-0.169
-679.222	-164.112	0.091	0.004
-678.208	-181.292	-0.069	-0.001
-677.193	-66.519	0.208	0.083
-676.178	-200.000	-0.018	0.111
-675.164	-69.637	0.467	0.180
-674.149	-118.470	-0.206	0.037
-673.135	296.460	-0.013	0.024
-672.120	800.000	-0.065	-0.219
-671.105	-61.658	-0.259	-0.110
-670.091	-159.451	-0.303	0.017
-669.076	-118.778	0.043	-0.008
-668.062	-56.355	-0.273	0.122
-667.047	-200.000	-0.034	-0.279
-666.032	3.855	0.078	0.057
-665.018	-38.770	0.150	0.080
-664.003	-148.664	0.288	-0.024
-662.989	-15.702	0.254	0.163
-661.974	430.478	-0.051	-0.110
-660.959	550.666	-0.073	0.175
-659.945	-200.000	0.017	-0.137
-658.930	186.677	0.312	-0.467
-657.916	20.727	-0.134	-0.109
-656.901	-78.078	-0.081	-0.028
-655.886	418.675	0.047	-0.102
-654.872	-120.794	-0.332	-0.056
-653.857	800.000	-0.031	0.098
-652.843	-54.464	-0.428	0.195
-651.828	-133.582	-0.202	0.025
-650.814	-143.533	0.217	-0.021
-649.799	-200.000	-0.025	-0.118
-648.784	-66.491	0.481	-0.192
-647.770	-101.565	-0.660	0.162
-646.755	-200.000	-0.001	0.205
-645.741	144.099	-0.020	0.027
-644.726	-126.073	-0.198	0.030
-643.711	-57.016	-0.114	0.051
-642.697	-19.644	0.140	-0.087
-641.682	-37.579	0.145	-0.078
-640.668	-144.472	0.132	0.012
-639.653	-162.683	-0.213	0.010
-638.638	774.781	0.015	0.041
-637.624	20.565	0.067	0.055
-636.609	186.624	-0.132	0.198
-635.595	-26.081	0.185	0.109
-634.580	-200.000	0.015	0.094
-633.565	800.000	0.032	-0.097
-632.551	-200.000	0.014	-0.263
-631.536	-181.766	-0.121	0.002
-630.522	-89.081	-0.235	-0.070
-629.507	44.735	0.045	-0.041
-628.492	233.792	-0.148	0.245
-627.478	-19.737	-0.225	-0.140
-626.463	301.807	0.230	-0.428
-625.449	-95.431	0.251	0.068
-624.434	800.000	-0.075	-0.260
-623.419	-119.334	-0.228	0.040
-622.405	-36.280	0.338	0.183
-621.390	-122.935	0.520	-0.084
-620.376	39.870	0.176	0.159
-619.361	102.054	-0.217	0.254
-618.346	-200.000	-0.035	0.188
-617.332	-103.058	-0.109	0.026
-616.317	-56.427	-0.445	0.198
-615.303	-21.858	-0.091	-0.055
-614.288	556.512	0.054	0.132
-613.273	-31.185	0.250	0.142
-612.259	40.139	-0.209	-0.189
-611.244	219.420	0.052	0.084
-610.230	800.000	0.054	-0.170
-609.215	111.903	0.230	0.279
-608.201	-24.923	0.114	-0.068
-607.186	7.307	0.093	0.070
-606.171	-5.000	0.149	-0.103
-605.157	131.793	0.159	-0.206
-604.142	-200.000	0.040	0.275
-603.128	800.000	0.026	-0.079
-602.113	-200.000	-0.003	0.220
-601.098	386.132	-0.113	-0.234
-600.084	-56.718	0.340	-0.151
-599.069	800.000	-0.053	-0.177
-598.055	141.721	-0.129	-0.172
-597.040	575.002	0.063	-0.153
-596.025	-196.768	0.195	0.001
-595.011	127.945	0.053	-0.068
-593.996	28.067	-0.154	0.131
-592.982	-82.604	-0.195	-0.064
-591.967	800.000	0.084	-0.256
-590.952	-46.506	-0.166	-0.082
-589.938	351.161	0.171	-0.340
-588.923	256.561	-0.102	0.177
-587.909	-51.737	0.203	0.095
-586.894	96.945	0.072	-0.083
-585.879	-107.029	-0.344	-0.076
-584.865	800.000	0.125	0.393
-583.850	58.847	0.165	0.163
-582.836	-200.000	-0.011	-0.154
-581.821	-34.923	-0.082	0.045
-580.806	-1.849	0.129	0.091
-579.792	-200.000	-0.041	0.251
-578.777	-20.501	0.137	0.085
-577.763	312.051	-0.108	0.204
-576.748	-200.000	-0.022	-0.222
-575.733	-200.000	-0.008	0.059
-574.719	-200.000	0.009	0.126
-573.704	187.303	-0.066	-0.098
-572.690	-200.000	0.034	-0.204
-571.675	-141.849	-0.138	0.014
-570.661	9.909	-0.473	0.361
-569.646	-200.000	0.017	0.185
-568.631	-200.000	0.009	0.234
-567.617	170.220	0.073	-0.104
-566.602	-200.000	0.033	-0.331
-565.588	-55.055	0.181	0.082
-564.573	800.000	0.065	-0.215
-563.558	-17.117	-0.205	-0.130
-562.544	-43.896	-0.141	0.071
-561.529	602.267	0.100	-0.249
-560.515	-119.914	-0.073	-0.013
-559.500	-200.000	-0.047	0.261
-558.485	-62.475	0.227	0.095
-557.471	800.000	-0.026	-0.084
-556.456	-131.736	0.264	0.035
-555.442	-65.556	0.096	0.039
-554.427	28.001	0.128	0.108
-553.412	363.958	-0.093	0.188
-552.398	548.600	0.043	-0.104
-551.383	376.325	-0.024	0.050
-550.369	-200.000	-0.027	0.156
-549.354	-132.455	0.200	-0.026
-548.339	785.925	0.037	-0.103
-547.325	-148.058	0.212	0.018
-546.310	-44.976	0.136	0.068
-545.296	163.465	-0.232	0.328
-544.281	128.413	-0.206	-0.263
-543.266	352.225	-0.054	-0.107
-542.252	-160.261	0.421	0.023
-541.237	-47.321	-0.190	0.093
-540.223	-200.000	-0.023	0.139
-539.208	800.000	-0.053	-0.164
-538.193	800.000	-0.018	0.059
-537.179	-200.000	-0.001	0.057
-536.164	-200.000	0.014	0.454
-535.150	481.799	-0.150	0.341
-534.135	-23.134	0.229	-0.138
-533.121	165.012	0.151	-0.214
-532.106	-200.000	0.012	-0.234
-531.091	12.856	-0.171	0.133
-530.077	-200.000	0.002	0.085
-529.062	157.332	0.135	0.187
-528.048	-106.779	-0.554	-0.123
-527.033	545.300	-0.078	0.186
-526.018	-70.082	0.255	0.097
-525.004	-48.630	0.235	-0.113
-523.989	-81.800	0.234	-0.077
-522.975	-90.282	0.059	0.017
-521.960	200.161	0.053	0.081
-520.945	-200.000	-0.027	0.276
-519.931	800.000	-0.041	0.171
-518.916	-58.896	-0.282	-0.122
-517.902	-67.700	0.299	-0.117
-516.887	800.000	-0.043	0.158
-515.872	161.413	-0.158	0.221
-514.858	800.000	-0.065	-0.230
-513.843	2.139	-0.097	0.070
-512.829	-172.514	0.390	-0.012
-511.814	-115.610	-0.268	0.050
-510.799	156.255	-0.159	0.220
-509.785	60.622	-0.191	-0.189
-508.770	-4.220	0.100	-0.069
-507.756	-71.782	0.023	0.009
-506.741	-200.000	-0.020	0.164
-505.726	-12.995	-0.179	0.117
-504.712	800.000	-0.050	-0.166
-503.697	642.377	0.055	-0.141
-502.683	-90.789	0.316	-0.091
-501.668	-200.000	0.002	-0.211
-500.653	-200.000	-0.003	-0.437
-499.639	-200.000	0.030	0.317
-498.624	-56.904	0.220	-0.097
-497.610	39.331	-0.036	-0.032
-496.595	153.493	0.152	-0.209
-495.581	26.998	0.101	-0.085
-494.566	-200.000	-0.007	-0.180
-493.551	-200.000	-0.048	0.286
-492.537	217.505	-0.100	0.160
-491.522	465.416	-0.205	0.459
-490.508	800.000	0.098	0.287
-489.493	63.323	-0.244	0.245
-488.478	175.335	-0.055	-0.080
-487.464	0.848	0.152	-0.109
-486.449	88.015	0.181	0.201
-485.435	160.455	0.150	0.209
-484.420	-200.000	0.007	0.235
-483.405	-200.000	0.037	0.196
-482.391	115.392	-0.084	0.103
-481.376	-200.000	-0.426	0.001
-480.362	-119.950	0.301	-0.052
-479.347	800.000	-0.177	-0.555
-478.332	79.131	-0.170	0.182
-477.318	-200.000	0.052	-0.464
-476.303	-103.703	-0.209	0.049
-475.289	249.060	0.187	-0.317
-474.274	-184.364	-0.093	-0.002
-473.259	800.000	0.043	-0.175
-472.245	-200.000	0.029	0.159
-471.230	94.418	-0.179	-0.203
-470.216	-14.360	-0.171	0.110
-469.201	218.392	0.067	-0.106
-468.186	402.636	0.115	-0.242
-467.172	589.171	-0.148	-0.365
-466.157	800.000	-0.093	-0.394
-465.143	50.675	-0.177	-0.167
-464.128	759.877	0.092	-0.250
-463.113	-118.258	0.083	0.015
-462.099	259.434	-0.107	-0.184
-461.084	40.772	0.109	-0.098
-460.070	160.862	0.159	-0.222
-459.055	-200.000	0.020	-0.114
-458.040	-66.973	-0.342	-0.135
-457.026	251.558	-0.037	0.063
-456.011	-200.000	0.068	-0.311
-454.997	-156.596	-0.193	0.012
-453.982	91.347	-0.096	-0.108
-452.968	-200.000	-0.011	0.139
-451.953	-29.088	-0.110	-0.063
-450.938	800.000	0.064	-0.247
-449.924	309.847	-0.060	0.113
-448.909	-200.000	-0.180	-0.000
-447.895	98.927	0.180	0.207
-446.880	70.342	0.115	0.119
-445.865	-73.702	0.149	0.054
-444.851	-67.966	0.444	0.173
-443.836	-200.000	-0.060	-0.285
-442.822	-113.905	0.163	0.032
-441.807	-44.457	0.151	-0.076
-440.792	43.299	-0.100	-0.091
-439.778	63.133	-0.222	0.222
-438.763	-15.049	-0.193	0.123
-437.749	25.931	-0.204	0.170
-436.734	248.971	0.045	0.077
-435.719	295.678	0.037	0.067
-434.705	-40.850	0.163	0.084
-433.690	-69.795	-0.022	-0.008
-432.676	-82.981	0.257	0.083
-431.661	85.403	0.214	0.235
-430.646	710.686	-0.087	0.231
-429.632	22.342	-0.084	-0.068
-428.617	544.639	-0.048	-0.115
-427.603	-149.360	0.354	-0.028
-426.588	143.260	-0.030	0.040
-425.573	-200.000	0.004	0.255
-424.559	697.653	-0.078	0.204
-423.544	800.000	0.070	-0.277
-422.530	135.135	-0.116	-0.151
-421.515	-95.375	-0.348	-0.093
-420.500	800.000	0.057	-0.164
-419.486	-101.829	0.074	0.018
-418.471	70.309	-0.251	0.259
-417.457	-103.671	-0.210	0.049
-416.442	800.000	0.079	0.268
-415.428	98.820	0.094	-0.108
-414.413	-3.921	0.213	0.148
-413.398	245.004	-0.072	-0.120
-412.384	-200.000	-0.011	0.083
-411.369	18.492	-0.028	-0.023
-410.355	345.850	-0.181	0.355
-409.340	-10.265	-0.187	-0.124
-408.325	769.466	-0.039	0.106
-407.311	-30.895	-0.377	-0.212
-406.296	-58.585	-0.126	0.055
-405.282	38.451	0.119	0.106
-404.267	-163.553	0.161	-0.008
-403.252	-44.906	-0.296	-0.147
-402.238	71.509	0.111	-0.115
-401.223	-200.000	-0.010	-0.326
-400.209	87.448	-0.112	-0.123
-399.194	-99.859	-0.554	0.138
-398.179	800.000	0.044	-0.143
-397.165	-68.792	0.140	0.054
-396.150	-147.573	0.363	0.031
-395.136	-99.995	0.261	-0.065
-394.121	-94.842	0.469	-0.127
-393.106	227.596	-0.102	-0.165
-392.092	334.788	-0.171	-0.329
-391.077	800.000	-0.039	-0.157
-390.063	-124.614	0.369	-0.057
-389.048	-10.097	0.156	-0.103
-388.033	-54.270	-0.273	-0.123
-387.019	800.000	-0.085	0.328
-386.004	-110.732	-0.147	0.030
-384.990	-200.000	0.378	-0.002
-383.975	389.359	0.071	-0.147
-382.960	10.379	-0.125	0.095
-381.946	56.541	-0.104	0.101
-380.931	800.000	-0.128	-0.435
-379.917	-179.758	-0.253	0.005
-378.902	-114.961	0.157	0.030
-377.888	38.769	-0.177	-0.158
-376.873	-121.946	-0.094	-0.015
-375.858	800.000	-0.101	-0.327
-374.844	24.468	0.033	-0.027
-373.829	-104.570	0.265	-0.061
-372.815	800.000	0.026	0.079
-371.800	-32.287	-0.161	-0.090
-370.785	31.923	0.148	0.127
-369.771	-20.013	0.275	0.169
-368.756	-200.000	0.005	0.430
-367.742	173.348	0.091	0.131
-366.727	-159.396	-0.119	0.007
-365.712	67.103	-0.123	0.125
-364.698	-200.000	-0.055	0.259
-363.683	5.137	0.132	0.097
-362.669	42.982	0.038	-0.035
-361.654	-83.403	-0.175	0.056
-360.639	-200.000	0.015	0.274
-359.625	-67.904	-0.210	-0.082
-358.610	-52.062	0.109	-0.050
-357.596	800.000	-0.016	-0.052
-356.581	240.108	-0.056	-0.094
-355.566	525.761	-0.111	0.259
-354.552	-124.864	-0.309	0.047
-353.537	-52.027	-0.155	-0.072
-352.523	-25.050	0.029	-0.017
-351.508	-20.514	0.102	-0.062
-350.493	-36.781	-0.289	-0.154
-349.479	-93.750	0.211	0.058
-348.464	464.779	0.179	0.399
-347.450	800.000	-0.030	0.103
-346.435	800.000	0.065	0.197
-345.420	-105.605	0.365	0.082
-344.406	800.000	-0.064	0.236
-343.391	99.949	-0.068	0.079
-342.377	29.299	0.119	-0.101
-341.362	229.163	0.040	0.065
-340.348	-172.494	0.340	-0.011
-339.333	-74.313	0.097	-0.035
-338.318	-200.000	0.038	-0.210
-337.304	347.639	-0.115	-0.226
-336.289	15.350	-0.061	0.048
-335.275	800.000	-0.035	0.103
-334.260	-200.000	0.003	-0.084
-333.245	-5.196	-0.205	0.140
-332.231	133.551	-0.150	0.193
-331.216	-200.000	-0.028	0.342
-330.202	800.000	-0.101	0.282
-329.187	800.000	0.093	-0.328
-328.172	-200.000	0.049	0.218
-327.158	-151.181	0.475	0.035
-326.143	-44.338	-0.174	0.086
-325.129	115.179	-0.065	-0.079
-324.114	800.000	0.054	-0.181
-323.099	-47.722	-0.169	0.081
-322.085	10.833	-0.096	0.073
-321.070	-200.000	-0.008	0.061
-320.056	20.978	0.194	-0.156
-319.041	-200.000	0.040	-0.238
-318.026	-85.958	0.070	0.022
-317.012	52.657	-0.472	0.449
-315.997	-105.014	0.264	0.060
-314.983	-1.190	0.229	0.161
-313.968	-69.237	-0.313	-0.119
-312.953	176.945	-0.151	0.219
-311.939	54.030	0.121	0.116
-310.924	2.531	-0.088	0.063
-309.910	800.000	0.087	0.280
-308.895	800.000	-0.051	0.203
-307.880	3.307	-0.090	0.065
-306.866	75.825	-0.078	0.082
-305.851	-105.504	-0.311	-0.070
-304.837	-5.859	-0.160	-0.109
-303.822	-139.270	0.321	-0.034
-302.807	42.039	0.231	-0.208
-301.793	132.798	0.151	-0.194
-300.778	154.368	-0.090	0.123
-299.764	175.057	0.127	-0.183
-298.749	800.000	-0.094	-0.351
-297.735	19.704	-0.064	0.051
-296.720	-138.957	-0.029	0.003
-295.705	800.000	-0.042	-0.176
-294.691	629.039	-0.042	0.106
-293.676	23.263	0.121	-0.099
-292.662	-71.764	0.515	-0.191
-291.647	-115.441	0.102	0.019
-290.632	149.288	-0.086	-0.116
-289.618	-200.000	-0.008	-0.184
-288.603	42.400	-0.307	-0.277
-287.589	-107.875	0.055	0.012
-286.574	72.121	-0.153	0.158
-285.559	-135.112	-0.123	-0.015
-284.545	178.168	-0.260	-0.377
-283.530	-129.720	-0.343	0.047
-282.516	-20.361	0.200	0.122
-281.501	-54.293	-0.176	-0.079
-280.486	-188.262	-0.534	-0.007
-279.472	-200.000	0.039	0.307
-278.457	-77.149	0.255	-0.088
-277.443	80.556	-0.054	-0.058
-276.428	-67.584	-0.423	0.164
-275.413	124.121	0.094	-0.117
-274.399	-72.381	0.147	0.054
-273.384	58.674	-0.016	-0.015
-272.370	-18.550	0.270	0.167
-271.355	-103.615	0.201	0.047
-270.340	736.403	-0.069	-0.185
-269.326	112.841	-0.088	-0.106
-268.311	-200.000	-0.018	-0.119
-267.297	185.881	-0.257	-0.380
-266.282	-200.000	0.048	-0.266
-265.267	-200.000	-0.024	-0.236
-264.253	571.913	0.051	-0.123
-263.238	-200.000	-0.017	0.166
-262.224	800.000	-0.027	0.085
-261.209	-200.000	0.001	-0.120
-260.195	-200.000	0.038	0.255
-259.180	283.204	0.190	0.339
-258.165	189.190	-0.161	0.239
-257.151	-73.993	-0.192	0.069
-256.136	-29.666	-0.380	-0.215
-255.122	-200.000	-0.022	-0.264
-254.107	-164.342	0.113	0.005
-253.092	54.990	0.195	-0.186
-252.078	-60.390	0.160	-0.068
-251.063	-113.043	-0.251	0.049
-250.049	225.413	0.095	0.152
-249.034	-85.217	0.276	-0.085
-248.019	-30.968	0.120	0.067
-247.005	-200.000	0.020	-0.114
-245.990	-70.825	-0.200	0.075
-244.976	-128.867	-0.079	-0.011
-243.961	487.662	-0.100	-0.226
-242.946	-200.000	0.040	-0.239
-241.932	85.262	0.134	0.146
-240.917	1.016	0.331	0.235
-239.903	-37.467	-0.145	-0.077
-238.888	451.255	-0.037	-0.081
-237.873	310.277	0.092	-0.171
-236.859	800.000	0.069	-0.198
-235.844	4.682	0.196	0.143
-234.830	21.028	-0.132	0.106
-233.815	-113.213	0.116	-0.023
-232.800	11.510	0.130	-0.099
-231.786	-113.637	0.227	-0.044
-230.771	21.964	0.344	0.278
-229.757	48.365	-0.267	-0.248
-228.742	47.882	0.188	-0.174
-227.727	-200.000	0.074	-0.328
-226.713	-200.000	0.008	0.055
-225.698	-43.498	-0.250	-0.125
-224.684	138.520	-0.078	0.101
-223.669	301.041	-0.105	-0.192
-222.655	-23.314	-0.335	0.199
-221.640	-200.000	0.065	0.297
-220.625	-14.339	-0.030	0.019
-219.611	-165.341	0.281	-0.012
-218.596	-89.874	-0.550	-0.159
-217.582	231.369	0.117	0.190
-216.567	-111.347	0.197	-0.040
-215.552	631.854	-0.009	0.024
-214.538	800.000	0.063	0.207
-213.523	-74.614	-0.216	0.077
-212.509	-200.000	0.007	-0.087
-211.494	-71.309	0.205	0.076
-210.479	-39.005	0.016	-0.008
-209.465	-58.588	-0.173	-0.074
-208.450	554.672	-0.158	0.377
-207.436	-38.515	0.067	0.035
-206.421	57.239	0.124	-0.120
-205.406	-200.000	-0.060	0.428
-204.392	9.148	-0.185	0.139
-203.377	-141.152	0.010	0.001
-202.363	-138.977	0.205	-0.022
-201.348	258.011	0.198	0.338
-200.333	-139.455	0.308	0.033
-199.319	602.623	0.068	-0.167
-198.304	-103.518	-0.132	-0.031
-197.290	-87.469	0.018	0.005
-196.275	-129.002	0.207	-0.029
-195.260	-178.161	0.392	0.009
-194.246	-164.102	0.208	-0.010
-193.231	-168.910	0.091	0.003
-192.217	800.000	-0.054	0.147
-191.202	-200.000	-0.005	0.025
-190.187	-200.000	-0.002	-0.258
-189.173	-63.389	0.188	0.077
-188.158	-75.319	-0.176	-0.062
-187.144	-79.524	0.224	-0.075
-186.129	-200.000	-0.007	0.101
-185.114	111.980	0.132	-0.158
-184.100	197.537	-0.151	0.228
-183.085	-79.695	0.189	0.063
-182.071	223.506	-0.104	-0.166
-181.056	112.773	0.101	-0.121
-180.042	-100.662	0.293	-0.071
-179.027	136.181	-0.114	-0.146
-178.012	533.477	-0.056	-0.132
-176.998	232.319	-0.066	-0.107
-175.983	58.058	0.066	0.064
-174.969	-151.887	0.232	-0.017
-173.954	-75.798	-0.125	0.044
-172.939	800.000	-0.036	-0.131
-171.925	800.000	0.048	-0.188
-170.910	209.275	-0.212	0.329
-169.896	284.047	-0.049	0.088
-168.881	-200.000	0.013	-0.167
-167.866	-147.199	0.547	-0.046
-166.852	-116.975	-0.391	0.071
-165.837	-200.000	-0.026	-0.126
-164.823	-36.805	-0.052	-0.027
-163.808	800.000	-0.059	0.209
-162.793	-35.287	0.152	-0.082
-161.779	-86.137	-0.471	-0.144
-160.764	-55.228	-0.384	0.171
-159.750	161.084	0.169	0.233
-158.735	463.777	-0.077	-0.170
-157.720	-200.000	-0.007	-0.061
-156.706	-49.515	0.217	-0.102
-155.691	-200.000	0.013	0.075
-154.677	-103.319	0.195	-0.045
-153.662	-103.533	-0.325	-0.075
-152.647	33.445	-0.090	-0.077
-151.633	-2.559	-0.132	-0.091
-150.618	-87.166	-0.265	-0.080
-149.604	105.124	-0.180	-0.210
-148.589	-159.028	0.343	-0.019
-147.574	171.304	-0.147	0.208
-146.560	800.000	0.092	-0.275
-145.545	-19.566	0.104	0.064
-144.531	-200.000	0.024	-0.376
-143.516	168.095	0.099	-0.140
-142.502	-182.279	0.131	-0.002
-141.487	26.137	-0.128	-0.105
-140.472	81.972	-0.157	0.168
-139.458	-200.000	-0.064	0.380
-138.443	-171.819	0.176	-0.006
-137.429	187.439	0.071	-0.105
-136.414	588.039	-0.020	0.050
-135.399	30.858	-0.057	0.048
-134.385	74.038	0.134	0.139
-133.370	14.605	-0.012	0.010
-132.356	-200.000	-0.019	-0.198
-131.341	800.000	0.075	0.246
-130.326	21.718	-0.225	-0.181
-129.312	-200.000	0.011	0.098
-128.297	-83.788	0.402	0.126
-127.283	-200.000	-0.026	0.401
-126.268	-52.253	0.153	-0.070
-125.253	800.000	-0.093	0.301
-124.239	800.000	0.070	-0.200
-123.224	-95.366	0.184	-0.049
-122.210	-59.829	0.174	-0.074
-121.195	-143.223	0.261	0.025
-120.180	2.647	0.096	0.069
-119.166	-92.843	0.141	0.039
-118.151	800.000	0.084	-0.311
-117.137	15.691	0.124	0.096
-116.122	-200.000	-0.041	0.233
-115.107	-50.167	0.093	0.043
-114.093	-200.000	-0.034	0.179
-113.078	-200.000	-0.006	0.094
-112.064	-200.000	-0.226	0.001
-111.049	24.701	0.152	-0.124
-110.034	-113.179	-0.313	-0.061
-109.020	-97.813	0.280	0.071
-108.005	-200.000	-0.060	-0.293
-106.991	800.000	0.027	0.089
-105.976	276.321	-0.169	0.297
-104.962	275.859	-0.042	0.074
-103.947	-89.930	-0.142	-0.041
-102.932	276.868	-0.176	-0.308
-101.918	-200.000	-0.006	0.050
-100.903	479.551	-0.067	-0.149
-99.889	-117.185	-0.306	0.055
-98.874	542.576	0.044	0.104
-97.859	-38.489	0.207	-0.108
-96.845	68.326	0.035	-0.035
-95.830	192.589	0.129	-0.192
-94.816	223.143	0.305	-0.484
-93.801	479.574	0.129	-0.287
-92.786	-200.000	-0.024	0.170
-91.772	800.000	-0.049	0.152
-90.757	430.080	0.211	-0.450
-89.743	18.552	0.159	0.125
-88.728	-92.029	0.172	-0.048
-87.713	800.000	-0.123	-0.348
-86.699	-165.780	0.317	0.013
-85.684	312.177	0.105	0.193
-84.670	800.000	-0.070	0.219
-83.655	19.383	0.226	-0.179
-82.640	107.589	-0.076	-0.089
-81.626	800.000	-0.042	-0.154
-80.611	-200.000	0.035	-0.400
-79.597	197.796	0.197	-0.297
-78.582	43.265	-0.062	0.056
-77.567	182.694	-0.153	0.222
-76.553	132.828	0.091	0.115
-75.538	-80.700	-0.146	-0.048
-74.524	800.000	-0.052	0.157
-73.509	800.000	0.021	-0.082
-72.494	580.465	-0.025	0.060
-71.480	70.257	0.353	0.359
-70.465	-24.358	0.362	-0.213
-69.451	-67.962	-0.075	-0.029
-68.436	386.541	-0.106	-0.215
-67.422	189.757	-0.262	0.386
-66.407	-117.926	-0.177	0.031
-65.392	800.000	0.057	0.227
-64.378	10.038	-0.263	-0.197
-63.363	110.257	0.179	0.212
-62.349	-200.000	0.000	-0.143
-61.334	-11.043	-1.128	-0.732
-60.319	157.338	0.257	0.350
-59.305	536.676	-0.573	-1.339
-58.290	245.093	0.536	0.888
-57.276	405.002	0.609	1.264
-56.261	-200.000	96.401	585.272
-55.246	629.005	1410.756	3508.332
-54.232	188.286	2612.231	3841.402
-53.217	113.385	2304.890	2751.769
-52.203	41.842	1921.764	1714.017
-51.188	35.429	1709.800	1475.785
-50.173	32.664	1665.780	1416.986
-49.159	50.645	1711.824	1593.391
-48.144	52.109	1727.943	1619.458
-47.130	35.070	1689.187	1455.039
-46.115	32.249	1674.578	1421.107
-45.100	32.095	1669.580	1415.644
-44.086	32.014	1666.819	1412.637
-43.071	32.046	1664.140	1410.551
-42.057	32.046	1661.742	1408.460
-41.042	32.154	1659.425	1407.252
-40.027	31.982	1658.017	1404.714
-39.013	31.988	1655.747	1402.785
-37.998	31.923	1655.029	1401.631
-36.984	31.986	1653.454	1400.709
-35.969	32.174	1651.460	1400.371
-34.954	32.203	1650.038	1399.320
-33.940	32.146	1648.135	1397.233
-32.925	32.217	1646.239	1396.092
-31.911	32.075	1645.336	1394.217
-30.896	32.088	1642.976	1392.257
-29.881	32.077	1641.448	1390.831
-28.867	32.034	1640.326	1389.508
-27.852	32.047	1638.509	1388.004
-26.838	32.130	1636.609	1386.955
-25.823	32.184	1635.074	1385.995
-24.809	32.279	1633.340	1385.172
-23.794	32.126	1632.752	1383.491
-22.779	32.161	1631.067	1382.265
-21.765	32.103	1629.416	1380.388
-20.750	32.143	1627.479	1378.982
-19.736	32.084	1626.592	1377.748
-18.721	32.167	1624.673	1376.675
-17.706	32.179	1623.424	1375.649
-16.692	32.105	1622.124	1373.953
-15.677	32.166	1620.304	1372.798
-14.663	32.222	1618.929	1371.994
-13.648	32.195	1617.757	1370.748
-12.633	32.101	1616.340	1368.806
-11.619	32.089	1614.740	1367.311
-10.604	32.186	1612.822	1366.336
-9.590	32.173	1612.137	1365.609
-8.575	32.147	1610.860	1364.284
-7.560	32.217	1609.223	1363.349
-6.546	32.214	1608.301	1362.490
-5.531	32.177	1607.039	1361.100
-4.517	32.202	1605.712	1360.101
-3.502	32.154	1604.595	1358.755
-2.487	32.145	1603.100	1357.370
-1.473	32.045	1592.114	1347.300
-0.458	29.665	1573.063	1314.222
0.556	28.541	1573.180	1282.256
1.571	26.219	1597.083	1285.123
2.586	25.275	1609.508	1288.232
3.600	22.133	1554.991	1222.662
4.615	13.671	1443.448	1079.969
5.629	6.081	1379.191	984.399
6.644	4.706	1370.694	969.684
7.659	4.659	1369.814	968.681
8.673	4.645	1369.079	967.989
9.688	4.760	1366.667	966.913
10.702	4.611	1364.158	964.127
11.717	8.113	1370.770	990.508
12.731	16.664	1386.112	1055.017
13.746	22.253	1394.617	1096.343
14.761	22.667	1394.292	1098.566
15.775	21.886	1392.378	1092.104
16.790	20.917	1389.514	1083.737
17.804	20.153	1387.135	1077.041
18.819	19.784	1386.201	1073.933
19.834	19.643	1385.246	1072.222
20.848	19.560	1384.094	1070.721
21.863	19.373	1382.587	1068.302
22.877	19.283	1381.401	1066.732
23.892	19.186	1380.328	1065.211
24.907	19.075	1379.992	1064.170
25.921	19.186	1378.648	1063.727
26.936	19.162	1378.099	1063.057
27.950	19.287	1377.108	1062.972
28.965	19.319	1376.581	1062.668
29.980	19.448	1375.295	1062.377
30.994	19.564	1374.189	1062.142
32.009	19.635	1373.129	1061.665
33.023	19.536	1371.901	1060.013
34.038	19.501	1370.798	1058.852
35.053	19.409	1369.308	1057.042
36.067	19.471	1368.262	1056.520
37.082	19.467	1367.291	1055.651
38.096	19.460	1366.654	1055.026
39.111	19.486	1365.716	1054.367
40.126	19.394	1364.458	1052.743
41.140	19.116	1363.420	1050.151
42.155	18.947	1362.834	1048.576
43.169	18.859	1362.486	1047.680
44.184	18.889	1362.323	1047.646
45.199	18.915	1361.968	1047.438
46.213	19.087	1362.146	1048.532
47.228	19.339	1360.904	1049.016
48.242	19.368	1360.062	1048.449
49.257	19.316	1358.111	1046.536
50.271	19.369	1356.501	1045.527
51.286	19.182	1356.157	1044.032
52.301	19.364	1354.034	1043.406
53.315	19.127	1353.502	1041.473
54.330	19.051	1351.940	1039.719
55.344	19.040	1351.139	1038.945
56.359	19.056	1349.901	1037.995
57.374	19.028	1349.502	1037.431
58.388	18.820	1348.272	1035.138
59.403	18.727	1348.250	1034.471
60.417	18.816	1347.338	1034.216
61.432	18.801	1346.190	1033.149
62.447	18.752	1344.781	1031.688
63.461	18.697	1343.902	1030.589
64.476	18.671	1342.935	1029.603
65.490	18.639	1342.052	1028.638
66.505	18.674	1340.297	1027.416
67.520	18.821	1338.723	1026.995
68.534	18.671	1338.295	1025.677
69.549	18.719	1337.007	1024.887
70.563	18.730	1335.654	1023.825
71.578	18.473	1335.082	1021.763
72.593	18.448	1334.340	1020.957
73.607	18.487	1333.192	1020.223
74.622	18.462	1332.393	1019.371
75.636	18.590	1331.663	1019.481
76.651	18.652	1331.021	1019.271
77.666	18.604	1330.785	1018.713
78.680	18.738	1329.933	1018.769
79.695	18.771	1330.240	1019.106
80.709	18.954	1329.064	1019.202
81.724	18.984	1328.540	1018.889
82.739	19.080	1327.711	1018.728
83.753	19.218	1326.761	1018.727
84.768	19.330	1326.098	1018.789
85.782	19.441	1325.333	1018.765
86.797	19.516	1323.527	1017.729
87.812	19.362	1322.525	1015.965
88.826	19.400	1321.269	1015.132
89.841	19.353	1320.550	1014.216
90.855	19.446	1319.438	1013.814
91.870	19.587	1318.661	1013.956
92.884	19.542	1317.779	1012.926
93.899	19.490	1317.605	1012.395
94.914	19.602	1316.504	1012.117
95.928	19.666	1315.443	1011.588
96.943	19.583	1314.143	1010.014
97.957	19.453	1313.960	1009.023
98.972	19.363	1312.624	1007.382
99.987	19.455	1311.588	1007.037
101.001	19.479	1310.213	1006.026
102.016	19.505	1309.445	1005.503
103.030	19.594	1308.492	1005.198
104.045	19.360	1308.226	1003.545
105.060	19.242	1307.198	1001.981
106.074	19.033	1304.958	998.959
107.089	18.786	1303.423	996.267
108.103	18.749	1302.143	994.985
109.118	18.701	1301.041	993.774
110.133	18.695	1299.742	992.659
111.147	18.715	1298.071	991.411
112.162	18.811	1297.121	991.153
113.176	18.902	1296.438	991.067
114.191	18.910	1295.292	990.150
115.206	19.031	1294.285	989.988
116.220	19.050	1292.668	988.775
117.235	18.813	1292.025	986.836
118.249	18.879	1290.903	986.269
119.264	18.768	1289.467	984.446
120.279	18.799	1288.209	983.580
121.293	18.674	1287.392	982.153
122.308	18.585	1286.724	981.045
123.322	18.460	1285.734	979.491
124.337	18.524	1284.328	978.695
125.352	18.514	1283.199	977.694
126.366	18.417	1282.216	976.305
127.381	18.574	1280.886	976.099
128.395	18.590	1280.427	975.757
129.410	18.586	1279.186	974.699
130.424	18.662	1278.267	974.343
131.439	18.859	1277.741	974.976
132.454	18.828	1276.937	974.100
133.468	18.814	1276.522	973.616
134.483	18.908	1275.684	973.425
135.497	18.943	1274.611	972.719
136.512	19.017	1273.104	971.902
137.527	19.064	1271.687	971.000
138.541	18.908	1270.894	969.426
139.556	19.134	1269.251	969.360
140.570	19.091	1268.958	968.809
141.585	19.297	1267.189	968.528
142.600	19.401	1266.285	968.339
143.614	19.414	1265.477	967.706
144.629	19.509	1264.301	967.253
145.643	19.502	1263.310	966.371
146.658	19.346	1261.666	964.158
147.673	19.138	1260.770	962.222
148.687	19.027	1259.396	960.471
149.702	18.988	1257.586	958.788
150.716	18.977	1256.871	958.097
151.731	18.936	1255.758	956.935
152.746	18.982	1254.532	956.173
153.760	19.057	1253.351	955.604
154.775	19.184	1252.784	955.790
155.789	19.228	1251.583	955.037
156.804	19.232	1250.516	954.158
157.819	19.216	1249.716	953.375
158.833	19.447	1248.861	953.914
159.848	19.451	1248.504	953.579
160.862	19.474	1246.794	952.319
161.877	19.145	1245.229	949.226
162.892	19.026	1243.928	947.495
163.906	18.923	1243.115	946.226
164.921	18.917	1242.475	945.619
165.935	19.187	1240.950	945.858
166.950	19.145	1240.770	945.406
167.964	19.143	1240.164	944.849
168.979	19.060	1239.304	943.654
169.994	19.093	1238.012	942.769
171.008	19.155	1237.843	942.899
172.023	19.301	1237.049	943.008
173.037	19.370	1236.601	942.959
174.052	19.347	1235.235	941.708
175.067	19.223	1233.770	939.836
176.081	19.034	1232.848	938.015
177.096	18.896	1232.230	936.711
178.110	19.084	1230.731	936.514
179.125	19.066	1229.787	935.613
180.140	19.075	1228.778	934.814
181.154	19.275	1227.655	934.960
182.169	19.457	1226.479	934.967
183.183	19.485	1225.643	934.403
184.198	19.514	1224.265	933.422
185.213	19.544	1223.262	932.739
186.227	19.511	1222.854	932.164
187.242	19.583	1221.307	931.294
188.256	19.709	1220.532	931.300
189.271	19.629	1219.688	930.143
190.286	19.494	1218.239	928.229
191.300	19.028	1217.286	924.915
192.315	18.889	1216.514	923.501
193.329	18.978	1216.172	923.637
194.344	19.099	1215.663	923.817
195.359	19.185	1214.849	923.578
196.373	19.341	1214.362	923.963
197.388	19.330	1214.353	923.818
198.402	19.543	1214.107	924.686
199.417	19.734	1213.787	925.385
200.432	19.878	1212.566	925.141
201.446	19.962	1212.356	925.347
202.461	20.018	1211.304	924.761
203.475	19.952	1210.511	923.725
204.490	19.792	1208.824	921.501
205.504	19.598	1207.688	919.522
206.519	19.690	1205.897	918.566
207.534	19.500	1205.009	916.801
208.548	19.656	1204.238	916.960
209.563	19.533	1203.586	915.730
210.577	19.647	1202.488	915.416
211.592	19.685	1201.971	915.145
212.607	19.794	1201.136	915.005
213.621	19.892	1199.791	914.415
214.636	19.835	1198.861	913.326
215.650	19.904	1198.235	913.131
216.665	19.994	1197.081	912.648
217.680	20.014	1197.056	912.653
218.694	20.092	1195.784	912.009
219.709	19.992	1195.329	911.056
220.723	20.045	1194.214	910.407
221.738	20.096	1193.590	910.119
222.753	19.968	1192.904	908.843
223.767	19.893	1192.445	908.020
224.782	20.012	1191.878	908.133
225.796	20.159	1191.170	908.282
226.811	20.201	1190.256	907.722
227.826	19.928	1189.689	905.781
228.840	19.813	1188.769	904.402
229.855	19.849	1188.146	904.033
230.869	19.859	1187.463	903.486
231.884	19.893	1186.301	902.697
232.899	19.652	1185.364	900.652
233.913	19.670	1185.156	900.508
234.928	19.527	1184.365	899.079
235.942	19.589	1183.394	898.589
236.957	19.648	1182.282	897.969
237.972	19.683	1181.599	897.553
238.986	19.609	1181.425	896.956
240.001	19.741	1180.120	896.574
241.015	19.764	1179.096	895.835
242.030	19.801	1178.415	895.429
243.045	19.963	1177.686	895.633
244.059	19.970	1177.296	895.294
245.074	20.053	1176.478	895.021
246.088	20.121	1175.204	894.323
247.103	20.209	1174.708	894.322
248.117	20.258	1174.319	894.200
249.132	20.476	1173.728	894.794
250.147	20.675	1173.365	895.461
251.161	20.731	1172.808	895.243
252.176	20.783	1172.335	895.073
253.190	20.831	1171.516	894.612
254.205	20.906	1170.873	894.428
255.220	20.967	1170.544	894.411
256.234	20.842	1169.880	893.182
257.249	20.880	1168.556	892.290
258.263	20.796	1168.487	891.728
259.278	20.868	1167.722	891.433
260.293	20.932	1166.886	891.042
261.307	21.053	1166.456	891.253
262.322	21.096	1165.504	890.665
263.336	21.071	1165.303	890.309
264.351	21.039	1164.544	889.483
265.366	20.974	1164.277	888.870
266.380	21.035	1163.248	888.315
267.395	20.920	1162.183	886.842
268.409	20.743	1161.605	885.418
269.424	20.763	1160.747	884.787
270.439	20.826	1160.159	884.584
271.453	20.907	1158.857	883.924
272.468	20.674	1158.219	882.175
273.482	20.588	1157.648	881.229
274.497	20.569	1157.294	880.785
275.512	20.696	1156.273	880.571
276.526	20.641	1155.594	879.700
277.541	20.653	1154.553	878.889
278.555	20.762	1154.258	879.139
279.570	20.824	1153.685	878.939
280.585	21.001	1153.193	879.379
281.599	21.039	1151.833	878.452
282.614	20.921	1150.981	877.132
283.628	20.812	1149.510	875.387
284.643	20.746	1148.812	874.446
285.657	20.830	1147.945	874.127
286.672	20.836	1146.776	873.189
287.687	20.855	1145.987	872.609
288.701	20.817	1145.357	871.863
289.716	20.866	1144.496	871.375
290.730	20.817	1143.996	870.669
291.745	20.956	1143.294	870.753
292.760	20.974	1142.958	870.513
293.774	21.023	1142.176	870.084
294.789	21.088	1142.253	870.391
295.803	20.996	1141.458	869.248
296.818	21.039	1140.182	868.411
297.833	20.980	1139.118	867.234
298.847	20.960	1138.451	866.547
299.862	20.905	1137.868	865.754
300.876	21.000	1137.239	865.673
301.891	21.117	1136.595	865.685
302.906	21.244	1136.125	865.879
303.920	21.260	1135.686	865.546
304.935	21.493	1134.906	866.030
305.949	21.485	1134.689	865.749
306.964	21.403	1134.034	864.768
307.979	21.320	1132.875	863.395
308.993	21.209	1132.401	862.408
310.008	21.426	1131.036	862.367
311.022	21.361	1131.302	862.171
312.037	21.482	1129.462	861.285
313.052	21.362	1128.683	860.025
314.066	21.147	1127.658	858.112
315.081	21.061	1126.610	856.818
316.095	20.958	1126.096	855.847
317.110	20.880	1125.232	854.729
318.125	20.887	1124.353	854.021
319.139	21.019	1123.432	853.891
320.154	21.032	1123.138	853.658
321.168	21.012	1122.585	853.065
322.183	20.969	1122.252	852.526
323.197	21.002	1121.755	852.231
324.212	21.141	1120.913	852.195
325.227	21.099	1120.552	851.642
326.241	21.110	1119.769	851.026
327.256	21.047	1119.219	850.222
328.270	21.075	1117.715	849.144
329.285	21.053	1116.993	848.412
330.300	21.070	1115.856	847.556
331.314	21.013	1115.154	846.672
332.329	21.014	1114.204	845.878
333.343	21.113	1113.235	845.549
334.358	21.313	1112.316	845.745
335.373	21.344	1111.589	845.269
336.387	21.472	1111.011	845.373
337.402	21.329	1110.682	844.357
338.416	21.468	1110.008	844.438
339.431	21.486	1109.470	844.044
340.446	21.730	1108.714	844.567
341.460	21.785	1108.101	844.291
342.475	21.899	1107.359	844.202
343.489	21.879	1106.741	843.556
344.504	21.973	1105.846	843.254
345.519	22.132	1104.942	843.253
346.533	22.102	1104.195	842.464
347.548	21.969	1104.204	841.759
348.562	22.043	1102.737	840.920
349.577	21.885	1101.820	839.389
350.592	21.623	1100.930	837.385
351.606	21.484	1099.961	835.911
352.621	21.383	1099.401	834.927
353.635	21.441	1098.601	834.522
354.650	21.481	1097.901	834.109
355.665	21.422	1097.669	833.577
356.679	21.590	1096.634	833.516
357.694	21.740	1095.808	833.530
358.708	21.693	1095.592	833.067
359.723	21.784	1095.312	833.211
360.738	21.751	1094.431	832.312
361.752	21.726	1093.824	831.661
362.767	21.769	1093.253	831.355
363.781	21.859	1092.418	831.073
364.796	22.008	1092.077	831.446
365.810	22.171	1091.836	831.962
366.825	22.163	1091.568	831.646
367.840	22.292	1090.936	831.697
368.854	22.384	1090.510	831.734
369.869	22.356	1089.397	830.682
370.883	22.278	1088.430	829.503
371.898	22.203	1087.261	828.186
372.913	22.141	1086.941	827.575
373.927	22.193	1086.592	827.481
374.942	22.308	1085.962	827.469
375.956	22.243	1085.834	826.991
376.971	22.158	1084.640	825.613
377.986	22.272	1084.511	825.976
379.000	22.419	1084.003	826.203
380.015	22.542	1083.205	826.102
381.029	22.552	1083.050	825.957
382.044	22.574	1081.867	825.084
383.059	22.567	1081.189	824.460
384.073	22.446	1080.372	823.201
385.088	22.424	1079.664	822.486
386.102	22.379	1078.899	821.618
387.117	22.472	1077.357	820.806
388.132	22.117	1076.626	818.523
389.146	22.113	1075.612	817.658
390.161	22.077	1074.906	816.886
391.175	22.150	1074.683	816.983
392.190	22.256	1074.042	816.915
393.205	22.409	1073.053	816.798
394.219	22.344	1072.445	815.962
395.234	22.217	1071.417	814.519
396.248	22.227	1070.138	813.523
397.263	22.240	1068.826	812.516
398.278	22.079	1068.179	811.205
399.292	22.156	1067.329	810.845
400.307	21.988	1066.886	809.662
401.321	22.012	1066.174	809.159
402.336	21.972	1065.858	808.663
403.350	21.959	1064.887	807.795
404.365	22.137	1063.990	807.864
405.380	22.198	1063.745	807.886
406.394	22.148	1063.190	807.161
407.409	22.456	1062.331	807.853
408.423	22.563	1061.839	807.895
409.438	22.665	1061.207	807.814
410.453	22.641	1060.810	807.329
411.467	22.726	1059.992	807.023
412.482	22.801	1059.280	806.754
413.496	22.877	1058.344	806.315
414.511	22.843	1058.174	805.959
415.526	23.034	1057.700	806.400
416.540	22.972	1057.562	805.940
417.555	22.956	1056.834	805.240
418.569	22.890	1056.240	804.415
419.584	22.860	1055.924	803.970
420.599	22.914	1055.122	803.529
421.613	156.078	1400.757	1794.110
422.628	143.402	1451.134	1794.222
