DTS Sentinel unit serial number:	SN413079Multiplexer serial number:	ORYXHardware model number:	OX4-SRSoftware version number:	ORYX F/W v4.00 Oryx Data Collector v3.7.2.0data status	okinstallation	princeton_trtdifferential loss correction	single-endedforward channel	channel 2reverse channel	N/Adate	2019/09/13time	19:47:35forward acquisition time	60.00reverse acquisition time	0.00gamma	496.2192k internal	0.2331k external	0.2331temperature offset calibration	1.0142default loss term (dB/km)	0.3790temperature slope calibration	1.0000multiplexer offset coefficient	1.0000multiplexer slope coefficient	1.0000fibre end	0.00T internal ref (°C)	30.16T ext. ref 1 (°C)	3.36T ext. ref 2 (°C)	24.31length (m)	temperature (°C)	Stokes	anti-Stokes-747.200	108.673	0.231	0.278
-746.185	-146.157	-0.392	0.035
-745.171	716.488	0.120	-0.322
-744.156	193.618	-0.202	0.308
-743.142	324.222	-0.054	-0.104
-742.127	-103.933	0.232	0.054
-741.112	-14.526	-0.221	-0.143
-740.098	-124.362	-0.155	0.024
-739.083	245.462	0.084	0.142
-738.069	117.285	0.219	-0.271
-737.054	316.515	0.187	-0.355
-736.039	84.601	-0.179	-0.197
-735.025	-12.081	0.347	0.228
-734.010	800.000	-0.032	0.134
-732.996	-55.002	-0.206	-0.093
-731.981	-200.000	0.024	0.199
-730.966	-68.447	-0.094	0.037
-729.952	46.995	-0.142	0.133
-728.937	638.238	-0.196	-0.501
-727.923	-117.422	-0.270	-0.049
-726.908	800.000	-0.050	-0.166
-725.894	800.000	0.054	-0.192
-724.879	4.005	-0.248	-0.182
-723.864	-200.000	-0.016	-0.125
-722.850	243.646	-0.094	-0.158
-721.835	400.803	-0.215	-0.454
-720.821	186.485	0.018	-0.027
-719.806	-122.519	-0.226	-0.037
-718.791	-200.000	0.022	0.230
-717.777	-44.479	0.052	0.026
-716.762	-109.987	-0.161	0.034
-715.748	800.000	-0.052	-0.193
-714.733	800.000	-0.045	-0.157
-713.718	482.136	0.021	-0.049
-712.704	11.991	0.119	0.092
-711.689	800.000	-0.020	-0.087
-710.675	-86.378	0.111	-0.034
-709.660	-200.000	-0.000	-0.015
-708.645	240.419	0.070	-0.117
-707.631	-12.766	-0.155	0.102
-706.616	81.114	-0.272	-0.295
-705.602	-200.000	-0.031	-0.235
-704.587	-125.420	-0.392	-0.060
-703.572	-103.199	-0.138	-0.033
-702.558	-40.451	-0.296	-0.155
-701.543	121.490	0.086	-0.108
-700.529	-147.081	-0.232	-0.020
-699.514	17.369	-0.167	0.133
-698.499	-200.000	-0.040	0.198
-697.485	19.770	-0.248	-0.201
-696.470	-200.000	0.074	0.445
-695.456	-200.000	-0.014	-0.401
-694.441	800.000	0.093	0.353
-693.426	-75.552	0.238	0.085
-692.412	-83.311	-0.155	0.050
-691.397	476.368	-0.099	-0.225
-690.383	77.282	0.261	0.278
-689.368	-56.303	-0.196	-0.088
-688.354	360.631	0.089	0.180
-687.339	143.799	0.186	0.249
-686.324	266.200	-0.083	-0.145
-685.310	-65.949	0.046	0.018
-684.295	-76.266	-0.187	0.066
-683.281	297.892	-0.012	-0.023
-682.266	-200.000	0.024	-0.194
-681.251	251.911	-0.100	-0.171
-680.237	-57.257	0.259	-0.115
-679.222	-133.062	-0.334	0.043
-678.208	-72.611	0.130	-0.048
-677.193	-200.000	-0.027	0.159
-676.178	191.201	-0.306	-0.462
-675.164	100.637	0.150	-0.175
-674.149	76.304	-0.180	0.191
-673.135	140.904	0.319	0.424
-672.120	-200.000	-0.003	-0.045
-671.105	48.169	-0.201	-0.189
-670.091	49.200	-0.154	-0.146
-669.076	-110.906	0.235	-0.049
-668.062	43.044	-0.254	0.232
-667.047	238.584	0.160	-0.266
-666.032	-140.112	-0.181	0.019
-665.018	-200.000	0.015	-0.250
-664.003	154.386	-0.069	-0.095
-662.989	-71.723	0.221	0.083
-661.974	-28.205	0.135	0.078
-660.959	800.000	-0.076	-0.264
-659.945	-166.369	0.383	0.016
-658.930	255.843	0.257	-0.442
-657.916	263.636	-0.184	0.320
-656.901	31.105	0.249	0.214
-655.886	240.988	-0.058	0.098
-654.872	-146.509	-0.152	-0.013
-653.857	263.984	0.184	-0.322
-652.843	19.422	0.169	0.136
-651.828	342.600	-0.231	0.454
-650.814	101.916	0.097	-0.113
-649.799	-102.966	0.062	0.015
-648.784	107.497	-0.156	-0.186
-647.770	-3.627	-0.298	-0.208
-646.755	723.146	-0.086	-0.230
-645.741	-200.000	0.011	0.098
-644.726	-116.551	-0.280	0.052
-643.711	-200.000	-0.011	-0.155
-642.697	80.305	0.146	0.157
-641.682	305.291	-0.227	-0.423
-640.668	751.979	-0.085	0.229
-639.653	-200.000	-0.364	0.000
-638.638	83.356	0.130	0.142
-637.624	-200.000	0.020	0.393
-636.609	800.000	-0.073	-0.233
-635.595	8.979	0.082	-0.062
-634.580	239.535	-0.035	0.059
-633.565	255.982	-0.113	-0.194
-632.551	-89.431	-0.226	0.067
-631.536	424.408	-0.073	0.158
-630.522	-200.000	0.001	0.236
-629.507	343.127	0.054	-0.105
-628.492	174.584	0.240	-0.347
-627.478	800.000	-0.040	0.172
-626.463	-84.634	-0.352	-0.111
-625.449	-47.035	0.167	-0.082
-624.434	-81.269	-0.084	-0.028
-623.419	-71.942	-0.152	-0.057
-622.405	-68.243	-0.085	-0.033
-621.390	334.800	-0.058	-0.113
-620.376	800.000	-0.049	-0.163
-619.361	-71.084	0.205	-0.077
-618.346	128.114	0.151	-0.192
-617.332	226.913	-0.214	0.348
-616.317	-200.000	-0.006	0.144
-615.303	-143.987	0.081	0.008
-614.288	232.969	-0.060	-0.099
-613.273	800.000	-0.027	0.116
-612.259	-34.813	0.215	0.118
-611.244	800.000	0.142	0.473
-610.230	-200.000	-0.022	-0.127
-609.215	-189.053	0.193	0.002
-608.201	-200.000	0.006	0.110
-607.186	295.571	-0.051	-0.094
-606.171	432.663	0.057	0.124
-605.157	800.000	-0.032	0.139
-604.142	122.387	0.127	-0.159
-603.128	62.967	-0.149	-0.149
-602.113	142.244	0.103	0.137
-601.098	-49.810	0.034	0.016
-600.084	-92.941	-0.153	0.043
-599.069	48.403	0.143	0.134
-598.055	58.296	-0.062	0.061
-597.040	-126.404	0.116	0.017
-596.025	14.943	0.098	0.077
-595.011	-35.900	-0.112	-0.060
-593.996	-136.198	0.178	0.021
-592.982	180.386	0.200	-0.293
-591.967	-111.330	-0.275	0.056
-590.952	-59.711	0.325	-0.139
-589.938	800.000	0.019	-0.056
-588.923	562.031	0.070	-0.169
-587.909	800.000	-0.027	-0.081
-586.894	56.940	-0.305	-0.297
-585.879	800.000	-0.057	0.179
-584.865	-45.236	-0.164	0.081
-583.850	-119.683	0.113	0.020
-582.836	-23.912	0.099	0.059
-581.821	482.397	0.150	0.341
-580.806	-29.348	0.191	0.109
-579.792	-89.539	-0.308	0.090
-578.777	-107.193	0.277	0.061
-577.763	128.555	0.036	0.046
-576.748	-200.000	-0.004	0.447
-575.733	-83.735	0.284	0.091
-574.719	800.000	0.027	-0.106
-573.704	190.642	0.098	0.147
-572.690	-31.651	0.166	-0.093
-571.675	-42.889	-0.302	-0.153
-570.661	23.792	0.079	-0.065
-569.646	-105.082	0.140	0.032
-568.631	-26.191	0.110	0.064
-567.617	590.732	0.070	0.172
-566.602	-200.000	0.060	-0.345
-565.588	800.000	-0.104	-0.290
-564.573	-26.380	0.323	0.189
-563.558	108.662	0.181	-0.216
-562.544	-200.000	-0.011	-0.065
-561.529	-78.836	0.222	-0.076
-560.515	113.267	-0.173	-0.210
-559.500	-75.295	-0.206	-0.073
-558.485	-186.673	-0.333	0.005
-557.471	-40.196	-0.143	0.074
-556.456	-176.978	-0.258	0.006
-555.442	-200.000	0.002	-0.087
-554.427	37.383	0.167	-0.148
-553.412	-200.000	-0.053	0.279
-552.398	96.689	0.216	-0.248
-551.383	-200.000	-0.021	-0.152
-550.369	36.062	0.175	0.153
-549.354	-101.166	0.113	-0.028
-548.339	-42.360	-0.071	-0.036
-547.325	-96.907	0.198	-0.052
-546.310	-81.868	-0.110	-0.036
-545.296	-47.373	-0.194	-0.094
-544.281	-159.955	0.102	-0.006
-543.266	800.000	0.057	0.196
-542.252	-162.233	0.061	0.003
-541.237	-26.622	-0.150	0.088
-540.223	-200.000	0.279	0.001
-539.208	354.259	-0.050	0.099
-538.193	15.004	-0.112	-0.087
-537.179	-186.424	-0.432	0.006
-536.164	-200.000	-0.048	-0.353
-535.150	-200.000	0.005	-0.173
-534.135	-67.143	0.509	-0.200
-533.121	-200.000	0.015	0.134
-532.106	-161.078	-0.371	-0.019
-531.091	122.483	-0.164	-0.205
-530.077	777.338	0.040	-0.108
-529.062	800.000	0.112	-0.442
-528.048	-132.927	0.115	-0.015
-527.033	152.493	-0.031	-0.042
-526.018	50.096	-0.113	-0.106
-525.004	-119.089	-0.048	-0.008
-523.989	67.752	0.270	-0.275
-522.975	-75.182	-0.317	-0.113
-521.960	16.604	0.068	-0.054
-520.945	-200.000	0.106	0.498
-519.931	-109.930	0.300	-0.063
-518.916	-54.814	0.303	0.137
-517.902	65.719	0.296	0.299
-516.887	485.270	0.061	0.138
-515.872	253.505	-0.076	0.130
-514.858	-4.564	0.043	0.030
-513.843	229.176	-0.165	0.268
-512.829	7.601	0.129	0.096
-511.814	96.707	0.020	-0.022
-510.799	-22.516	-0.182	-0.110
-509.785	-200.000	-0.050	-0.236
-508.770	-51.763	-0.224	0.104
-507.756	206.826	0.041	0.064
-506.741	-124.611	-0.089	-0.014
-505.726	-200.000	0.007	-0.481
-504.712	240.062	-0.037	0.061
-503.697	-179.800	-0.053	0.001
-502.683	-71.915	-0.173	0.064
-501.668	192.711	-0.162	0.243
-500.653	6.650	0.130	0.096
-499.639	-200.000	0.005	0.242
-498.624	19.951	0.148	0.119
-497.610	93.538	0.104	-0.117
-496.595	50.502	-0.156	-0.147
-495.581	-63.043	-0.589	-0.242
-494.566	565.345	0.070	0.170
-493.551	-96.251	-0.128	0.034
-492.537	446.905	0.031	-0.067
-491.522	124.203	0.124	0.156
-490.508	-15.088	0.195	-0.124
-489.493	-38.815	-0.197	-0.104
-488.478	-200.000	0.058	0.354
-487.464	155.354	0.047	0.064
-486.449	-1.547	-0.118	0.083
-485.435	-49.966	-0.119	0.056
-484.420	-147.540	0.111	0.009
-483.405	800.000	-0.087	-0.241
-482.391	-200.000	-0.012	0.242
-481.376	-158.220	0.317	-0.018
-480.362	130.965	-0.169	-0.217
-479.347	-200.000	0.002	-0.422
-478.332	-87.539	-0.283	-0.085
-477.318	5.736	-0.253	0.187
-476.303	739.334	-0.175	0.468
-475.289	-149.748	-0.197	0.015
-474.274	62.368	0.120	0.119
-473.259	-124.798	0.175	0.027
-472.245	-200.000	-0.001	0.309
-471.230	275.617	-0.101	-0.179
-470.216	185.890	-0.201	-0.298
-469.201	267.973	0.262	-0.457
-468.186	-22.691	0.185	-0.111
-467.172	579.137	-0.061	-0.148
-466.157	166.439	-0.101	-0.142
-465.143	-200.000	-0.019	0.122
-464.128	98.593	0.223	0.256
-463.113	685.170	-0.027	-0.071
-462.099	461.102	-0.092	-0.203
-461.084	-45.829	-0.077	-0.038
-460.070	-200.000	0.060	0.440
-459.055	26.107	0.285	-0.237
-458.040	-101.068	0.165	-0.040
-457.026	767.655	-0.103	0.278
-456.011	-200.000	0.008	-0.405
-454.997	358.033	0.180	-0.357
-453.982	-42.635	-0.275	-0.139
-452.968	123.921	-0.113	-0.141
-451.953	176.583	0.034	0.049
-450.938	-34.710	-0.045	0.025
-449.924	199.659	-0.149	0.228
-448.909	206.971	0.042	0.065
-447.895	69.727	-0.192	-0.197
-446.880	-25.249	0.164	0.096
-445.865	-200.000	-0.073	0.342
-444.851	-58.684	-0.214	-0.092
-443.836	-200.000	-0.004	-0.100
-442.822	800.000	0.075	0.234
-441.807	321.731	0.112	-0.212
-440.792	156.475	-0.129	-0.178
-439.778	-200.000	0.011	-0.282
-438.763	-200.000	0.012	-0.111
-437.749	65.367	-0.354	0.356
-436.734	-65.088	-0.005	0.002
-435.719	114.790	0.162	-0.197
-434.705	93.182	-0.349	0.393
-433.690	44.780	-0.110	0.100
-432.676	99.666	-0.112	0.129
-431.661	-31.339	-0.060	-0.033
-430.646	800.000	0.038	0.165
-429.632	3.700	-0.207	-0.150
-428.617	-200.000	-0.002	-0.207
-427.603	110.781	0.256	0.307
-426.588	-200.000	0.026	-0.417
-425.573	-54.318	0.095	0.043
-424.559	-2.691	0.383	-0.266
-423.544	-96.881	0.140	-0.037
-422.530	-112.206	-0.133	0.027
-421.515	-97.863	-0.084	0.021
-420.500	-200.000	0.009	-0.212
-419.486	-59.263	0.175	-0.075
-418.471	401.748	-0.049	0.102
-417.457	-200.000	0.008	-0.152
-416.442	-133.280	0.029	0.004
-415.428	149.042	0.154	0.207
-414.413	11.391	-0.179	0.136
-413.398	-200.000	-0.032	-0.282
-412.384	800.000	0.050	-0.162
-411.369	655.322	0.153	-0.390
-410.355	387.004	0.069	-0.142
-409.340	61.130	-0.231	-0.228
-408.325	366.698	-0.065	0.130
-407.311	-119.539	-0.234	-0.040
-406.296	-9.360	-0.204	0.135
-405.282	315.094	-0.199	0.372
-404.267	85.767	-0.144	0.157
-403.252	-34.216	0.406	0.222
-402.238	261.738	0.042	-0.072
-401.223	42.191	0.157	-0.142
-400.209	-154.404	0.290	-0.019
-399.194	-200.000	0.019	-0.129
-398.179	-200.000	-0.002	0.221
-397.165	-23.336	0.208	-0.124
-396.150	-136.976	-0.207	-0.024
-395.136	446.522	0.107	0.234
-394.121	-73.761	-0.069	0.025
-393.106	70.871	0.039	0.040
-392.092	325.379	0.094	0.178
-391.077	-132.827	0.182	0.023
-390.063	154.130	-0.148	0.201
-389.048	-200.000	0.006	0.342
-388.033	227.320	-0.123	-0.198
-387.019	24.361	-0.154	-0.126
-386.004	72.774	0.111	-0.115
-384.990	-89.108	-0.122	0.036
-383.975	800.000	0.071	0.247
-382.960	800.000	-0.143	0.502
-381.946	-200.000	-0.020	-0.309
-380.931	32.570	0.224	-0.192
-379.917	800.000	-0.069	-0.242
-378.902	165.532	0.093	0.131
-377.888	40.310	0.141	0.126
-376.873	71.825	-0.166	0.171
-375.858	-200.000	0.035	-0.275
-374.844	-200.000	-0.003	-0.389
-373.829	-200.000	-0.001	0.189
-372.815	-148.278	-0.345	0.028
-371.800	-99.516	0.062	0.016
-370.785	-200.000	-0.079	-0.363
-369.771	-150.762	0.306	-0.023
-368.756	-200.000	-0.000	-0.149
-367.742	-200.000	0.028	0.179
-366.727	43.026	0.104	0.094
-365.712	188.304	0.077	0.114
-364.698	-200.000	-0.011	0.160
-363.683	63.103	0.155	-0.154
-362.669	419.155	-0.082	0.175
-361.654	-200.000	0.023	-0.172
-360.639	-200.000	-0.041	-0.182
-359.625	-162.609	0.111	-0.005
-358.610	-2.030	-0.127	0.089
-357.596	800.000	0.037	-0.108
-356.581	86.003	0.244	0.266
-355.566	284.034	-0.110	-0.196
-354.552	23.343	-0.190	-0.155
-353.537	-200.000	0.086	-0.423
-352.523	6.252	0.171	0.126
-351.508	190.472	-0.045	-0.067
-350.493	53.529	-0.168	0.160
-349.479	455.378	0.027	0.059
-348.464	116.960	0.069	0.084
-347.450	334.284	0.123	-0.235
-346.435	-99.848	0.086	-0.021
-345.420	726.500	0.109	0.289
-344.406	-200.000	-0.037	-0.487
-343.391	-170.550	0.171	0.006
-342.377	142.058	0.180	0.237
-341.362	64.598	-0.103	0.103
-340.348	-162.513	-0.256	-0.013
-339.333	-37.345	-0.069	-0.037
-338.318	800.000	-0.039	-0.134
-337.304	65.758	-0.291	0.292
-336.289	565.707	0.101	-0.244
-335.275	31.737	0.173	-0.147
-334.260	-200.000	-0.011	-0.079
-333.245	-42.089	0.214	-0.109
-332.231	-200.000	0.045	-0.258
-331.216	45.440	0.161	-0.147
-330.202	-200.000	0.009	-0.226
-329.187	-112.975	-0.173	0.034
-328.172	-25.533	0.301	-0.176
-327.158	800.000	-0.061	-0.221
-326.143	-60.671	-0.246	0.103
-325.129	-78.493	0.302	0.102
-324.114	78.717	0.238	-0.252
-323.099	91.844	-0.200	0.223
-322.085	-25.740	-0.121	-0.070
-321.070	199.389	0.077	-0.117
-320.056	-200.000	-0.010	-0.144
-319.041	-46.425	0.256	0.124
-318.026	597.030	-0.053	-0.131
-317.012	633.439	0.028	-0.069
-315.997	-80.460	0.410	-0.135
-314.983	-122.367	-0.335	0.054
-313.968	9.490	0.131	-0.098
-312.953	-121.144	0.172	0.028
-311.939	-96.142	0.209	-0.055
-310.924	-200.000	0.041	-0.324
-309.910	-73.822	0.071	-0.025
-308.895	65.445	0.266	0.267
-307.880	-69.604	-0.054	-0.020
-306.866	800.000	-0.076	-0.270
-305.851	311.785	0.112	0.208
-304.837	178.369	0.191	0.275
-303.822	-127.347	-0.347	0.050
-302.807	534.741	0.061	0.143
-301.793	406.867	0.170	0.355
-300.778	-63.214	0.171	0.070
-299.764	-109.437	0.413	-0.086
-298.749	-33.395	0.045	-0.024
-297.735	-181.820	0.214	-0.004
-296.720	214.719	-0.150	0.234
-295.705	264.014	0.169	0.290
-294.691	-79.014	-0.244	0.082
-293.676	-156.613	0.190	-0.012
-292.662	356.424	-0.101	-0.199
-291.647	-120.387	0.148	-0.025
-290.632	-33.029	-0.292	0.160
-289.618	-64.892	-0.274	-0.110
-288.603	416.108	0.054	-0.113
-287.589	-132.233	-0.306	0.039
-286.574	-128.493	-0.120	-0.017
-285.559	-12.851	0.350	-0.226
-284.545	1.226	-0.217	0.154
-283.530	200.735	0.151	0.230
-282.516	270.780	0.236	0.410
-281.501	-70.086	0.326	0.123
-280.486	-200.000	-0.033	0.185
-279.472	11.866	0.184	0.140
-278.457	218.024	0.285	0.449
-277.443	-113.613	-0.171	-0.033
-276.428	369.190	-0.103	0.205
-275.413	-200.000	0.028	-0.190
-274.399	-70.910	0.264	0.098
-273.384	325.557	-0.206	-0.390
-272.370	263.042	0.126	-0.216
-271.355	-39.143	-0.299	0.155
-270.340	-23.748	0.072	-0.043
-269.326	-134.519	-0.152	0.018
-268.311	800.000	-0.069	-0.227
-267.297	114.204	0.122	-0.147
-266.282	-200.000	-0.045	0.206
-265.267	-124.286	0.029	0.004
-264.253	-76.221	0.082	-0.028
-263.238	-200.000	-0.014	-0.264
-262.224	-48.643	0.338	-0.160
-261.209	800.000	-0.098	-0.270
-260.195	-200.000	-0.031	0.203
-259.180	800.000	-0.083	0.283
-258.165	701.379	0.084	-0.218
-257.151	287.941	0.055	-0.097
-256.136	-34.063	-0.337	0.183
-255.122	800.000	-0.096	0.336
-254.107	64.443	-0.052	0.051
-253.092	-99.602	-0.156	0.039
-252.078	-57.309	-0.278	-0.121
-251.063	23.739	0.244	0.198
-250.049	-200.000	-0.010	0.047
-249.034	-97.412	0.194	-0.050
-248.019	497.005	0.128	0.291
-247.005	800.000	-0.067	-0.280
-245.990	-128.106	-0.256	-0.036
-244.976	172.196	0.059	0.084
-243.961	93.973	-0.189	-0.212
-242.946	-200.000	0.003	-0.120
-241.932	-194.784	-0.123	-0.001
-240.917	175.697	-0.226	-0.323
-239.903	800.000	0.017	0.071
-238.888	86.487	-0.185	-0.202
-237.873	-143.666	-0.171	0.016
-236.859	800.000	0.077	0.256
-235.844	-23.208	0.078	-0.046
-234.830	-71.751	-0.162	-0.060
-233.815	273.049	0.201	0.350
-232.800	-11.773	-0.124	-0.081
-231.786	-75.726	-0.197	0.069
-230.771	-37.549	-0.242	0.127
-229.757	483.185	-0.130	0.291
-228.742	800.000	0.097	0.408
-227.727	-57.162	-0.092	-0.040
-226.713	-200.000	-0.014	-0.147
-225.698	-69.264	-0.125	0.047
-224.684	-3.474	0.219	0.150
-223.669	95.634	0.259	0.291
-222.655	-44.520	0.190	-0.094
-221.640	800.000	-0.028	-0.108
-220.625	478.405	0.069	-0.154
-219.611	-200.000	-0.053	0.653
-218.596	800.000	-0.037	0.144
-217.582	-121.036	-0.067	-0.011
-216.567	800.000	-0.066	-0.180
-215.552	-200.000	-0.036	0.188
-214.538	106.221	-0.033	-0.039
-213.523	-200.000	-0.006	-0.272
-212.509	55.864	0.154	-0.148
-211.494	-79.477	-0.135	0.045
-210.479	-26.401	-0.024	0.014
-209.465	-200.000	-0.054	0.241
-208.450	-71.993	0.245	-0.090
-207.436	-26.711	0.107	0.061
-206.421	100.144	-0.035	0.040
-205.406	5.363	-0.220	-0.160
-204.392	167.108	-0.262	0.366
-203.377	-28.406	0.292	0.166
-202.363	196.180	-0.115	0.173
-201.348	299.451	0.074	0.134
-200.333	600.222	-0.060	0.146
-199.319	-200.000	-0.014	0.256
-198.304	-200.000	0.020	-0.128
-197.290	70.290	0.136	0.138
-196.275	-110.816	0.356	0.072
-195.260	55.530	-0.183	-0.174
-194.246	-169.036	-0.330	0.012
-193.231	-113.775	-0.393	-0.075
-192.217	-43.505	-0.135	-0.067
-191.202	293.402	0.062	-0.111
-190.187	-62.697	0.512	0.209
-189.173	335.909	-0.032	-0.062
-188.158	-130.357	-0.383	0.051
-187.144	71.639	-0.040	0.041
-186.129	-200.000	-0.008	0.096
-185.114	800.000	-0.027	0.086
-184.100	-105.504	0.162	-0.036
-183.085	-200.000	0.023	-0.185
-182.071	522.640	-0.097	0.224
-181.056	19.450	-0.266	0.210
-180.042	-102.744	-0.347	0.081
-179.027	39.421	0.040	0.035
-178.012	800.000	-0.025	0.091
-176.998	63.396	-0.218	0.215
-175.983	-200.000	-0.033	0.210
-174.969	135.224	0.157	-0.200
-173.954	-78.820	-0.236	0.079
-172.939	-10.498	-0.060	-0.039
-171.925	-45.242	0.400	-0.196
-170.910	-52.693	0.067	-0.031
-169.896	13.666	0.149	-0.114
-168.881	33.334	-0.176	-0.150
-167.866	-2.563	0.147	-0.102
-166.852	231.858	-0.109	0.176
-165.837	800.000	0.043	-0.130
-164.823	-155.561	0.123	-0.008
-163.808	-200.000	0.039	-0.356
-162.793	144.237	-0.041	0.054
-161.779	-200.000	-0.008	-0.058
-160.764	-200.000	-0.009	0.049
-159.750	258.146	0.112	-0.190
-158.735	-106.197	0.048	-0.011
-157.720	129.540	-0.135	0.170
-156.706	-200.000	-0.010	0.187
-155.691	-34.126	0.384	-0.207
-154.677	180.126	0.032	0.047
-153.662	121.961	0.072	-0.089
-152.647	60.259	-0.097	0.094
-151.633	107.928	-0.168	0.197
-150.618	-165.170	-0.291	-0.013
-149.604	-200.000	0.047	-0.314
-148.589	379.669	0.117	-0.236
-147.574	49.558	0.111	0.103
-146.560	17.809	0.253	0.198
-145.545	-82.244	0.155	-0.050
-144.531	-9.685	0.004	-0.003
-143.516	-200.000	-0.005	-0.325
-142.502	800.000	-0.043	-0.177
-141.487	-98.027	-0.121	-0.031
-140.472	-200.000	-0.037	0.239
-139.458	800.000	-0.056	-0.227
-138.443	277.535	-0.057	0.100
-137.429	-200.000	0.016	0.125
-136.414	176.071	0.161	-0.229
-135.399	-200.000	0.018	0.138
-134.385	19.988	0.149	0.118
-133.370	55.748	0.237	-0.225
-132.356	-200.000	-0.030	-0.173
-131.341	-85.605	0.217	0.066
-130.326	367.735	-0.122	-0.241
-129.312	-200.000	-0.041	-0.275
-128.297	32.896	0.100	0.085
-127.283	285.027	0.120	0.212
-126.268	-27.232	-0.263	0.150
-125.253	800.000	0.115	-0.358
-124.239	108.026	-0.114	-0.133
-123.224	76.358	0.104	0.108
-122.210	-200.000	0.031	0.258
-121.195	8.773	-0.168	0.124
-120.180	-200.000	-0.018	0.091
-119.166	-200.000	-0.035	-0.175
-118.151	-3.854	-0.100	0.068
-117.137	625.899	-0.023	0.056
-116.122	463.757	0.124	0.271
-115.107	61.624	0.206	0.201
-114.093	-0.689	-0.176	-0.123
-113.078	58.773	-0.426	-0.411
-112.064	800.000	-0.021	-0.059
-111.049	-200.000	0.017	-0.196
-110.034	-167.307	0.239	0.009
-109.020	-200.000	0.076	-0.403
-108.005	-75.897	0.162	-0.056
-106.991	-200.000	-0.020	0.369
-105.976	22.681	-0.098	-0.078
-104.962	-14.798	0.058	-0.036
-103.947	24.907	-0.184	-0.150
-102.932	18.386	0.249	0.195
-101.918	-200.000	-0.056	0.260
-100.903	-66.525	0.187	0.073
-99.889	-200.000	-0.017	0.269
-98.874	15.684	0.086	0.066
-97.859	14.974	0.262	-0.201
-96.845	-134.960	0.092	-0.011
-95.830	-18.979	-0.318	-0.194
-94.816	-71.402	-0.025	0.009
-93.801	243.457	0.152	0.251
-92.786	-200.000	-0.021	0.289
-91.772	570.296	0.069	0.165
-90.757	-121.070	0.133	-0.022
-89.743	124.292	0.064	-0.079
-88.728	800.000	-0.039	-0.153
-87.713	164.696	0.084	0.117
-86.699	482.240	0.030	-0.068
-85.684	-69.991	0.113	0.042
-84.670	35.075	0.043	0.037
-83.655	466.738	0.093	0.204
-82.640	433.512	-0.148	0.315
-81.626	800.000	-0.006	0.016
-80.611	284.271	-0.175	-0.308
-79.597	-200.000	-0.031	-0.178
-78.582	-148.133	0.107	0.009
-77.567	-107.595	0.079	0.017
-76.553	172.760	-0.122	-0.172
-75.538	800.000	-0.092	0.284
-74.524	800.000	0.026	0.094
-73.509	-184.255	-0.208	0.003
-72.494	-200.000	-0.010	-0.091
-71.480	-95.767	-0.238	0.062
-70.465	-98.044	-0.437	0.110
-69.451	39.552	0.050	0.044
-68.436	-82.490	0.167	-0.053
-67.422	-15.770	-0.223	0.139
-66.407	297.808	0.170	-0.306
-65.392	393.773	0.238	0.485
-64.378	-84.365	-0.038	-0.012
-63.363	33.871	-0.135	-0.115
-62.349	-200.000	0.038	-0.328
-61.334	152.036	-1.003	-1.341
-60.319	-32.956	0.745	0.405
-59.305	800.000	-0.295	-0.868
-58.290	356.973	0.601	1.173
-57.276	800.000	0.408	1.559
-56.261	-200.000	107.276	607.106
-55.246	534.024	1475.364	3424.353
-54.232	181.381	2668.714	3844.367
-53.217	107.346	2278.361	2653.840
-52.203	39.340	1895.223	1662.018
-51.188	33.437	1686.001	1433.968
-50.173	30.782	1643.416	1378.066
-49.159	49.544	1696.998	1564.631
-48.144	50.088	1712.700	1583.144
-47.130	32.966	1670.031	1416.621
-46.115	30.220	1655.619	1383.891
-45.100	30.112	1651.025	1379.186
-44.086	30.221	1647.765	1377.220
-43.071	30.001	1645.729	1373.831
-42.057	30.035	1642.717	1371.519
-41.042	30.166	1640.548	1370.616
-40.027	30.136	1638.678	1368.782
-39.013	30.099	1637.450	1367.429
-37.998	29.982	1635.677	1365.033
-36.984	30.092	1634.059	1364.438
-35.969	30.246	1632.838	1364.492
-34.954	30.253	1631.236	1363.157
-33.940	30.157	1629.761	1361.159
-32.925	30.145	1628.386	1359.871
-31.911	30.157	1626.102	1358.001
-30.896	30.099	1624.535	1356.209
-29.881	30.175	1622.510	1355.024
-28.867	30.171	1621.122	1353.781
-27.852	30.081	1619.869	1352.023
-26.838	30.086	1618.236	1350.640
-25.823	30.117	1617.503	1350.207
-24.809	30.227	1615.424	1349.213
-23.794	30.213	1614.013	1347.884
-22.779	30.177	1612.718	1346.487
-21.765	30.066	1611.256	1344.402
-20.750	30.227	1609.410	1343.979
-19.736	30.193	1608.590	1342.992
-18.721	30.197	1606.937	1341.587
-17.706	30.183	1605.265	1340.042
-16.692	30.223	1603.834	1339.078
-15.677	30.176	1602.322	1337.429
-14.663	30.237	1601.060	1336.757
-13.648	30.210	1599.433	1335.155
-12.633	30.129	1598.247	1333.527
-11.619	30.132	1597.134	1332.566
-10.604	30.108	1595.349	1330.853
-9.590	30.189	1593.834	1330.120
-8.575	30.261	1592.671	1329.608
-7.560	30.183	1591.745	1328.223
-6.546	30.153	1591.066	1327.390
-5.531	30.208	1589.177	1326.158
-4.517	30.099	1588.212	1324.522
-3.502	30.115	1587.460	1323.955
-2.487	30.246	1585.410	1323.126
-1.473	29.796	1572.825	1309.389
-0.458	26.489	1553.149	1269.792
0.556	23.652	1553.050	1234.115
1.571	20.954	1576.497	1233.574
2.586	20.446	1588.771	1239.442
3.600	17.883	1534.489	1179.305
4.615	10.481	1427.943	1049.565
5.629	4.387	1367.042	966.851
6.644	3.363	1359.352	954.984
7.659	3.321	1358.215	953.835
8.673	3.360	1357.143	953.242
9.688	3.406	1355.383	952.207
10.702	3.337	1352.732	949.836
11.717	6.004	1358.017	969.953
12.731	13.722	1371.046	1027.132
13.746	19.827	1381.733	1073.036
14.761	20.990	1382.279	1080.577
15.775	20.325	1380.106	1074.670
16.790	19.163	1377.933	1065.697
17.804	18.388	1375.834	1059.187
18.819	18.020	1374.541	1055.821
19.834	18.012	1373.113	1054.586
20.848	17.811	1371.947	1052.356
21.863	17.563	1370.748	1049.817
22.877	17.459	1369.838	1048.385
23.892	17.461	1368.834	1047.535
24.907	17.369	1368.070	1046.289
25.921	17.445	1367.008	1045.854
26.936	17.415	1366.369	1045.090
27.950	17.472	1365.337	1044.555
28.965	17.592	1364.238	1044.359
29.980	17.715	1362.991	1044.066
30.994	17.852	1361.922	1043.991
32.009	17.796	1360.753	1042.661
33.023	17.779	1359.344	1041.389
34.038	17.752	1358.247	1040.291
35.053	17.594	1357.302	1038.510
36.067	17.642	1356.126	1037.809
37.082	17.627	1355.107	1036.846
38.096	17.751	1353.936	1036.613
39.111	17.784	1353.252	1036.199
40.126	17.619	1352.438	1034.480
41.140	17.493	1351.147	1032.637
42.155	17.285	1350.931	1031.123
43.169	17.196	1351.092	1030.614
44.184	17.259	1350.459	1030.420
45.199	17.252	1349.768	1029.757
46.213	17.394	1349.584	1030.389
47.228	17.512	1348.799	1030.414
48.242	17.634	1347.714	1030.228
49.257	17.574	1346.071	1028.519
50.271	17.518	1344.545	1026.925
51.286	17.576	1343.812	1026.627
52.301	17.597	1342.098	1025.349
53.315	17.381	1341.084	1023.188
54.330	17.358	1339.967	1022.105
55.344	17.353	1338.329	1020.738
56.359	17.314	1337.468	1019.752
57.374	17.278	1336.351	1018.599
58.388	17.214	1335.801	1017.703
59.403	17.091	1335.472	1016.627
60.417	17.146	1334.646	1016.238
61.432	17.067	1333.797	1015.029
62.447	17.022	1333.005	1014.067
63.461	16.976	1331.512	1012.567
64.476	16.970	1330.760	1011.866
65.490	17.030	1329.444	1011.139
66.505	16.971	1328.070	1009.650
67.520	17.008	1326.952	1008.930
68.534	17.165	1325.364	1008.565
69.549	17.074	1324.940	1007.616
70.563	16.999	1323.956	1006.335
71.578	16.966	1322.203	1004.713
72.593	16.854	1321.555	1003.469
73.607	16.780	1320.688	1002.286
74.622	16.876	1320.299	1002.471
75.636	16.970	1319.528	1002.349
76.651	16.980	1318.695	1001.692
77.666	16.952	1318.015	1000.918
78.680	16.984	1318.234	1001.189
79.695	17.004	1317.107	1000.362
80.709	17.081	1316.627	1000.360
81.724	17.193	1315.733	1000.252
82.739	17.321	1314.893	1000.277
83.753	17.343	1314.347	999.903
84.768	17.551	1313.467	1000.367
85.782	17.686	1312.144	1000.064
86.797	17.564	1310.980	998.374
87.812	17.469	1309.911	996.915
88.826	17.454	1308.661	995.785
89.841	17.653	1307.534	996.006
90.855	17.681	1306.698	995.443
91.870	17.665	1306.207	994.888
92.884	17.693	1305.146	994.154
93.899	17.747	1303.939	993.462
94.914	17.852	1303.313	993.509
95.928	17.729	1303.152	992.580
96.943	17.739	1301.414	991.227
97.957	17.734	1300.829	990.663
98.972	17.734	1299.451	989.530
99.987	17.701	1298.850	988.791
101.001	17.759	1297.520	988.026
102.016	17.725	1296.871	987.248
103.030	17.707	1296.028	986.417
104.045	17.650	1295.612	985.680
105.060	17.511	1294.226	983.740
106.074	17.326	1292.613	981.358
107.089	17.237	1290.409	979.082
108.103	17.030	1289.636	977.220
109.118	17.193	1287.906	976.762
110.133	17.049	1286.861	975.050
111.147	17.095	1286.006	974.580
112.162	17.203	1284.501	973.974
113.176	17.152	1284.000	973.214
114.191	17.223	1282.538	972.431
115.206	17.239	1281.319	971.513
116.220	17.211	1280.301	970.490
117.235	17.161	1279.539	969.546
118.249	17.221	1278.031	968.655
119.264	17.145	1277.205	967.512
120.279	17.052	1276.108	966.066
121.293	17.072	1274.883	965.170
122.308	17.074	1273.674	964.178
123.322	16.895	1272.809	962.420
124.337	17.012	1271.632	962.111
125.352	16.976	1270.295	960.811
126.366	16.958	1269.606	960.100
127.381	16.880	1268.922	959.056
128.395	16.914	1267.395	958.010
129.410	17.044	1266.282	957.822
130.424	17.039	1265.785	957.331
131.439	17.089	1265.151	957.048
132.454	17.257	1263.868	956.939
133.468	17.242	1263.339	956.370
134.483	17.319	1261.906	955.631
135.497	17.171	1261.752	954.600
136.512	17.227	1260.499	953.882
137.527	17.354	1258.877	953.282
138.541	17.457	1257.189	952.498
139.556	17.435	1255.914	951.324
140.570	17.397	1255.753	950.906
141.585	17.642	1254.240	951.040
142.600	17.589	1253.296	949.944
143.614	17.674	1252.794	949.958
144.629	17.653	1252.024	949.170
145.643	17.720	1249.869	947.827
146.658	17.583	1249.032	946.346
147.673	17.447	1247.748	944.532
148.687	17.199	1246.580	942.193
149.702	17.321	1244.668	941.339
150.716	17.269	1243.861	940.356
151.731	17.307	1242.189	939.220
152.746	17.339	1241.223	938.583
153.760	17.358	1240.325	937.927
154.775	17.472	1239.120	937.560
155.789	17.600	1238.117	937.424
156.804	17.572	1236.899	936.263
157.819	17.435	1236.504	935.129
158.833	17.681	1235.137	935.362
159.848	17.818	1234.443	935.505
160.862	17.759	1233.246	934.193
161.877	17.531	1232.016	931.927
162.892	17.342	1230.705	929.822
163.906	17.482	1230.092	930.039
164.921	17.335	1229.398	928.635
165.935	17.522	1228.080	928.572
166.950	17.632	1227.418	928.591
167.964	17.541	1227.113	927.779
168.979	17.512	1226.146	926.809
169.994	17.415	1225.697	925.860
171.008	17.515	1224.890	925.713
172.023	17.694	1224.207	926.089
173.037	17.739	1223.549	925.756
174.052	17.761	1222.089	924.686
175.067	17.606	1221.119	923.030
176.081	17.404	1220.012	921.017
177.096	17.437	1219.434	920.677
178.110	17.518	1218.025	919.973
179.125	17.500	1216.724	918.812
180.140	17.618	1215.563	918.489
181.154	17.569	1214.708	917.497
182.169	17.734	1213.557	917.437
183.183	17.820	1212.552	917.058
184.198	17.884	1211.387	916.437
185.213	17.834	1210.548	915.455
186.227	17.893	1209.462	914.869
187.242	17.912	1208.781	914.374
188.256	17.922	1207.929	913.699
189.271	18.148	1206.495	913.745
190.286	17.886	1205.288	911.349
191.300	17.460	1204.695	908.548
192.315	17.314	1203.441	906.745
193.329	17.392	1203.212	906.903
194.344	17.559	1202.451	907.140
195.359	17.607	1201.808	906.830
196.373	17.522	1201.674	906.197
197.388	17.806	1201.227	907.289
198.402	17.957	1201.212	908.003
199.417	18.088	1200.362	907.978
200.432	18.122	1199.750	907.611
201.446	18.275	1198.870	907.678
202.461	18.381	1197.790	907.344
203.475	18.271	1196.812	905.937
204.490	18.174	1195.514	904.361
205.504	18.026	1194.049	902.394
206.519	17.892	1193.404	901.118
207.534	17.851	1192.089	899.829
208.548	17.952	1190.870	899.364
209.563	17.871	1190.341	898.454
210.577	18.016	1189.778	898.717
211.592	18.069	1188.640	898.055
212.607	18.250	1187.671	898.195
213.621	18.129	1187.008	896.978
214.636	18.018	1186.412	895.865
215.650	18.107	1185.194	895.331
216.665	18.152	1184.241	894.771
217.680	18.422	1183.536	895.570
218.694	18.515	1182.311	895.049
219.709	18.337	1181.774	893.632
220.723	18.362	1180.919	893.039
221.738	18.322	1180.748	892.620
222.753	18.288	1179.783	891.635
223.767	18.365	1179.049	891.401
224.782	18.398	1178.372	890.984
225.796	18.490	1177.937	891.055
226.811	18.483	1177.080	890.293
227.826	18.355	1176.119	888.822
228.840	18.376	1175.347	888.268
229.855	18.282	1174.668	887.191
230.869	18.200	1174.052	886.219
231.884	18.202	1172.954	885.321
232.899	18.217	1172.052	884.643
233.913	18.140	1171.309	883.605
234.928	18.078	1170.821	882.840
235.942	18.164	1169.986	882.572
236.957	18.082	1169.081	881.390
237.972	18.039	1168.559	880.696
238.986	18.131	1167.857	880.562
240.001	18.184	1167.242	880.297
241.015	18.254	1166.204	879.793
242.030	18.228	1165.773	879.258
243.045	18.443	1164.826	879.569
244.059	18.278	1164.226	878.194
245.074	18.394	1163.587	878.226
246.088	18.482	1162.582	877.844
247.103	18.536	1162.106	877.681
248.117	18.598	1161.480	877.447
249.132	18.741	1160.869	877.638
250.147	18.989	1159.977	878.155
251.161	18.981	1159.848	877.937
252.176	19.073	1158.997	877.685
253.190	19.140	1158.486	877.563
254.205	19.103	1157.893	876.848
255.220	19.136	1157.392	876.561
256.234	19.116	1156.255	875.519
257.249	19.128	1155.672	875.060
258.263	19.142	1155.136	874.649
259.278	19.109	1154.557	873.964
260.293	19.095	1154.187	873.535
261.307	19.286	1153.441	873.861
262.322	19.227	1152.702	872.928
263.336	19.226	1152.071	872.364
264.351	19.341	1151.442	872.396
265.366	19.374	1150.350	871.658
266.380	19.384	1149.829	871.238
267.395	19.361	1148.932	870.362
268.409	19.255	1148.266	869.248
269.424	19.106	1147.993	868.210
270.439	19.168	1147.343	867.955
271.453	19.197	1145.638	866.736
272.468	19.076	1145.018	865.578
273.482	19.058	1144.467	864.996
274.497	19.052	1143.780	864.371
275.512	19.239	1142.886	864.556
276.526	19.147	1142.437	863.678
277.541	19.061	1142.247	863.027
278.555	19.101	1141.390	862.506
279.570	19.315	1140.385	862.738
280.585	19.383	1140.086	862.780
281.599	19.419	1139.037	862.088
282.614	19.195	1137.608	859.809
283.628	19.193	1137.030	859.291
284.643	19.225	1135.824	858.459
285.657	19.223	1134.774	857.581
286.672	19.140	1134.291	856.726
287.687	19.248	1133.177	856.348
288.701	19.228	1132.988	856.027
289.716	19.270	1131.785	855.253
290.730	19.150	1131.160	854.108
291.745	19.271	1130.627	854.231
292.760	19.441	1129.640	854.251
293.774	19.479	1129.284	854.093
294.789	19.460	1129.076	853.768
295.803	19.499	1128.175	853.205
296.818	19.374	1127.453	851.966
297.833	19.397	1126.316	851.145
298.847	19.322	1125.569	850.135
299.862	19.297	1124.851	849.395
300.876	19.311	1124.548	849.160
301.891	19.525	1123.681	849.483
302.906	19.614	1122.928	849.274
303.920	19.716	1122.560	849.422
304.935	19.660	1122.055	848.693
305.949	19.853	1121.283	848.980
306.964	19.819	1120.891	848.439
307.979	19.621	1119.946	846.678
308.993	19.741	1119.042	846.508
310.008	19.829	1118.099	846.153
311.022	19.822	1117.773	845.797
312.037	19.749	1116.812	844.637
313.052	19.674	1115.589	843.271
314.066	19.421	1114.945	841.474
315.081	19.386	1113.655	840.255
316.095	19.361	1113.002	839.566
317.110	19.396	1112.452	839.252
318.125	19.561	1111.480	839.245
319.139	19.399	1111.023	838.036
320.154	19.536	1110.153	837.974
321.168	19.592	1109.429	837.621
322.183	19.451	1109.201	836.692
323.197	19.417	1108.807	836.156
324.212	19.614	1108.040	836.457
325.227	19.621	1107.649	836.123
326.241	19.653	1106.802	835.565
327.256	19.543	1106.284	834.566
328.270	19.607	1104.871	833.739
329.285	19.543	1104.163	832.820
330.300	19.548	1103.313	832.131
331.314	19.539	1102.043	831.054
332.329	19.517	1101.511	830.476
333.343	19.622	1100.690	830.289
334.358	19.807	1099.942	830.537
335.373	19.755	1099.670	830.007
336.387	19.879	1098.476	829.629
337.402	19.833	1097.938	828.931
338.416	19.896	1097.384	828.738
339.431	19.889	1096.561	828.009
340.446	19.989	1095.974	827.974
341.460	20.110	1095.579	828.180
342.475	20.153	1094.894	827.793
343.489	20.272	1093.650	827.344
344.504	20.313	1092.613	826.686
345.519	20.405	1092.192	826.730
346.533	20.539	1091.247	826.579
347.548	20.396	1090.532	825.285
348.562	20.435	1089.675	824.750
349.577	20.173	1089.150	823.037
350.592	19.963	1088.455	821.440
351.606	20.012	1087.472	820.859
352.621	20.015	1086.436	820.019
353.635	19.925	1086.200	819.339
354.650	19.930	1085.200	818.536
355.665	19.970	1084.674	818.258
356.679	20.092	1083.755	818.070
357.694	20.032	1083.680	817.653
358.708	20.265	1082.794	818.013
359.723	20.126	1082.499	817.062
360.738	20.241	1081.349	816.664
361.752	20.212	1080.981	816.179
362.767	20.179	1080.518	815.599
363.781	20.248	1079.813	815.323
364.796	20.397	1079.343	815.592
365.810	20.378	1078.820	815.035
366.825	20.611	1078.305	815.668
367.840	20.670	1078.016	815.653
368.854	20.703	1077.421	815.285
369.869	20.601	1077.028	814.439
370.883	20.658	1075.594	813.550
371.898	20.522	1074.748	812.200
372.913	20.499	1074.333	811.711
373.927	20.685	1073.664	812.002
374.942	20.711	1073.468	811.904
375.956	20.535	1072.839	810.535
376.971	20.616	1072.000	810.206
377.986	20.760	1071.462	810.395
379.000	20.808	1070.747	810.006
380.015	20.853	1070.682	810.095
381.029	20.777	1070.037	809.184
382.044	20.885	1068.979	808.813
383.059	20.830	1068.419	808.066
384.073	20.801	1067.932	807.487
385.088	20.863	1066.982	806.985
386.102	20.885	1066.001	806.272
387.117	20.735	1065.033	804.776
388.132	20.606	1063.750	803.141
389.146	20.660	1062.861	802.646
390.161	20.521	1062.674	801.795
391.175	20.620	1061.711	801.453
392.190	20.734	1060.948	801.331
393.205	20.763	1060.690	801.197
394.219	20.851	1059.650	800.745
395.234	20.812	1058.756	799.822
396.248	20.753	1057.733	798.708
397.263	20.734	1056.521	797.634
398.278	20.616	1056.047	796.666
399.292	20.586	1054.933	795.615
400.307	20.548	1054.385	794.962
401.321	20.618	1053.617	794.629
402.336	20.443	1053.162	793.419
403.350	20.527	1052.378	793.142
404.365	20.702	1051.969	793.558
405.380	20.677	1051.285	792.858
406.394	20.829	1050.321	792.757
407.409	20.902	1049.867	792.674
408.423	20.943	1049.357	792.406
409.438	20.996	1048.712	792.090
410.453	21.074	1048.275	792.040
411.467	21.156	1047.363	791.655
412.482	21.127	1046.949	791.139
413.496	21.247	1046.175	791.028
414.511	21.243	1045.963	790.779
415.526	21.311	1045.426	790.613
416.540	21.434	1044.668	790.524
417.555	21.468	1044.126	790.200
418.569	21.338	1043.779	789.280
419.584	21.297	1043.333	788.689
420.599	21.374	1042.555	788.376
421.613	155.656	1402.689	1797.604
422.628	142.515	1455.139	1797.674
