DTS Sentinel unit serial number:	SN413079Multiplexer serial number:	ORYXHardware model number:	OX4-SRSoftware version number:	ORYX F/W v4.00 Oryx Data Collector v3.7.2.0data status	okinstallation	princeton_trtdifferential loss correction	single-endedforward channel	channel 2reverse channel	N/Adate	2019/09/16time	04:47:34forward acquisition time	60.00reverse acquisition time	0.00gamma	496.2192k internal	0.2336k external	0.2336temperature offset calibration	0.9975default loss term (dB/km)	0.3790temperature slope calibration	1.0000multiplexer offset coefficient	1.0000multiplexer slope coefficient	1.0000fibre end	0.00T internal ref (°C)	27.19T ext. ref 1 (°C)	10.92T ext. ref 2 (°C)	21.51length (m)	temperature (°C)	Stokes	anti-Stokes-747.200	-88.668	0.199	0.059
-746.185	-200.000	0.011	0.140
-745.171	-58.718	-0.076	0.033
-744.156	-40.173	-0.272	-0.142
-743.142	88.190	-0.074	0.082
-742.127	-17.798	-0.252	-0.159
-741.112	-39.061	0.121	0.064
-740.098	115.252	-0.213	0.261
-739.083	-31.932	0.208	-0.117
-738.069	-75.253	-0.193	-0.069
-737.054	132.237	0.110	0.142
-736.039	-153.697	-0.443	-0.031
-735.025	270.210	0.086	0.152
-734.010	-156.423	-0.387	0.024
-732.996	-58.206	0.015	0.007
-731.981	800.000	0.068	0.292
-730.966	96.990	-0.278	0.320
-729.952	-200.000	-0.004	-0.295
-728.937	-63.019	0.048	-0.020
-727.923	190.411	-0.210	0.317
-726.908	145.701	-0.198	-0.266
-725.894	800.000	-0.080	-0.244
-724.879	-24.970	-0.051	0.030
-723.864	601.609	0.016	0.040
-722.850	-83.526	-0.317	-0.102
-721.835	800.000	-0.085	-0.281
-720.821	-200.000	-0.011	-0.122
-719.806	800.000	-0.054	-0.180
-718.791	-71.802	0.148	-0.055
-717.777	588.854	0.113	0.280
-716.762	718.501	-0.064	0.171
-715.748	228.046	-0.040	-0.066
-714.733	-75.870	0.426	-0.151
-713.718	-174.071	-0.270	0.008
-712.704	344.931	0.180	-0.355
-711.689	27.964	0.423	-0.358
-710.675	-119.479	-0.060	-0.010
-709.660	44.906	0.132	-0.122
-708.645	136.711	0.114	0.150
-707.631	-200.000	0.005	0.120
-706.616	307.841	-0.105	-0.197
-705.602	156.664	-0.108	0.150
-704.587	516.853	0.144	0.337
-703.572	800.000	0.033	-0.143
-702.558	157.813	0.123	-0.170
-701.543	12.565	0.092	-0.071
-700.529	-200.000	0.017	0.171
-699.514	-64.071	0.056	0.023
-698.499	-165.017	-0.143	-0.006
-697.485	-143.985	0.133	-0.013
-696.470	-160.700	0.128	-0.007
-695.456	800.000	0.058	-0.231
-694.441	335.598	0.148	-0.289
-693.426	800.000	0.043	0.177
-692.412	56.365	-0.196	-0.191
-691.397	800.000	-0.098	-0.402
-690.383	274.387	0.091	0.162
-689.368	0.289	0.086	-0.061
-688.354	336.596	-0.165	-0.321
-687.339	-200.000	-0.060	-0.278
-686.324	52.135	-0.115	0.110
-685.310	-200.000	-0.005	-0.139
-684.295	-200.000	-0.005	-0.434
-683.281	-191.160	0.108	0.001
-682.266	800.000	-0.058	-0.241
-681.251	114.213	0.212	0.259
-680.237	-182.158	-0.370	-0.007
-679.222	-150.319	0.308	0.024
-678.208	162.799	-0.192	-0.269
-677.193	487.305	0.133	-0.303
-676.178	169.768	0.086	-0.123
-675.164	25.413	-0.081	0.067
-674.149	102.723	-0.047	0.055
-673.135	-200.000	-0.026	0.134
-672.120	-200.000	-0.049	0.371
-671.105	-53.858	0.285	0.130
-670.091	-23.276	-0.125	-0.075
-669.076	-54.407	0.330	-0.150
-668.062	-48.828	-0.264	0.127
-667.047	-200.000	-0.063	-0.282
-666.032	77.556	0.189	-0.201
-665.018	-132.341	-0.412	-0.053
-664.003	-174.976	-0.254	-0.007
-662.989	703.821	0.034	0.089
-661.974	135.851	0.065	0.085
-660.959	800.000	-0.066	-0.289
-659.945	-200.000	0.044	0.480
-658.930	-200.000	-0.002	-0.021
-657.916	-130.261	-0.416	0.057
-656.901	360.628	0.275	-0.551
-655.886	316.753	-0.154	-0.291
-654.872	-164.989	0.281	-0.013
-653.857	147.205	-0.149	-0.201
-652.843	-30.329	-0.167	0.095
-651.828	-12.046	0.155	0.102
-650.814	769.565	0.119	-0.325
-649.799	-150.952	-0.292	-0.022
-648.784	98.974	-0.155	0.180
-647.770	-200.000	-0.023	0.170
-646.755	719.752	-0.098	0.261
-645.741	-86.425	-0.494	-0.152
-644.726	-200.000	0.027	0.219
-643.711	73.958	0.183	-0.192
-642.697	90.185	-0.154	-0.172
-641.682	286.531	0.205	-0.370
-640.668	46.129	0.238	0.220
-639.653	-120.638	0.114	0.019
-638.638	-154.567	0.514	0.034
-637.624	-123.088	0.519	-0.083
-636.609	-113.792	-0.191	-0.037
-635.595	143.433	-0.176	-0.234
-634.580	-89.638	-0.132	0.039
-633.565	36.464	-0.164	0.144
-632.551	800.000	-0.022	-0.071
-631.536	-85.683	-0.084	0.026
-630.522	494.080	0.028	-0.064
-629.507	639.178	-0.137	-0.349
-628.492	-200.000	0.022	-0.117
-627.478	-76.136	0.184	-0.065
-626.463	-137.405	-0.357	-0.040
-625.449	-200.000	0.014	0.413
-624.434	-200.000	-0.001	0.026
-623.419	-171.731	-0.109	0.004
-622.405	-200.000	-0.056	-0.382
-621.390	-58.702	0.115	0.050
-620.376	5.421	-0.241	-0.178
-619.361	-65.882	0.241	0.096
-618.346	68.371	-0.202	-0.207
-617.332	-10.221	0.123	-0.082
-616.317	-154.712	-0.122	0.008
-615.303	-49.960	-0.200	-0.095
-614.288	71.305	-0.149	-0.154
-613.273	123.750	0.027	0.034
-612.259	-188.651	0.355	-0.004
-611.244	255.369	-0.023	0.040
-610.230	406.972	0.116	-0.245
-609.215	26.034	0.121	0.101
-608.201	-76.045	0.278	0.098
-607.186	-50.562	0.264	-0.124
-606.171	-106.040	0.124	0.028
-605.157	800.000	0.044	0.132
-604.142	-121.667	0.399	-0.066
-603.128	800.000	0.016	-0.057
-602.113	121.140	0.255	0.318
-601.098	-200.000	0.030	0.152
-600.084	-200.000	0.029	0.201
-599.069	-82.360	0.333	0.108
-598.055	4.508	0.236	-0.173
-597.040	-108.603	-0.284	0.061
-596.025	-200.000	-0.029	0.137
-595.011	-47.967	-0.088	-0.042
-593.996	-14.648	-0.278	0.178
-592.982	-7.120	-0.155	-0.105
-591.967	-109.467	-0.279	-0.059
-590.952	409.508	0.150	0.317
-589.938	27.019	-0.223	0.186
-588.923	-116.785	0.110	0.020
-587.909	5.718	-0.126	-0.093
-586.894	177.718	-0.117	-0.171
-585.879	-3.143	-0.331	-0.230
-584.865	25.868	0.090	0.075
-583.850	562.587	-0.156	0.377
-582.836	23.398	-0.396	-0.325
-581.821	-200.000	0.029	0.287
-580.806	62.950	0.011	-0.011
-579.792	-27.252	-0.081	-0.047
-578.777	-127.925	0.113	0.016
-577.763	12.848	-0.142	-0.110
-576.748	7.655	-0.144	-0.107
-575.733	-67.663	-0.124	0.048
-574.719	64.233	0.135	0.136
-573.704	663.678	0.090	0.231
-572.690	-96.840	-0.396	0.104
-571.675	-99.302	-0.241	0.061
-570.661	59.396	-0.105	-0.103
-569.646	344.392	0.164	-0.321
-568.631	800.000	-0.070	-0.247
-567.617	110.852	-0.165	0.198
-566.602	800.000	-0.053	-0.187
-565.588	-54.690	0.179	-0.081
-564.573	-200.000	0.049	0.499
-563.558	331.712	-0.087	0.167
-562.544	-13.508	0.132	-0.085
-561.529	283.209	0.085	0.152
-560.515	-132.183	0.273	-0.035
-559.500	-200.000	0.013	-0.167
-558.485	-147.384	-0.079	-0.007
-557.471	147.772	-0.155	-0.209
-556.456	-132.356	0.271	-0.035
-555.442	-157.354	-0.223	0.013
-554.427	150.499	0.147	-0.200
-553.412	-92.358	0.172	0.048
-552.398	800.000	0.108	0.440
-551.383	800.000	-0.080	0.249
-550.369	-150.441	0.116	-0.009
-549.354	657.850	0.043	0.110
-548.339	-111.070	0.125	-0.025
-547.325	-200.000	0.025	-0.232
-546.310	663.955	-0.163	0.418
-545.296	432.460	-0.061	-0.132
-544.281	-137.342	0.165	-0.019
-543.266	89.451	0.108	-0.120
-542.252	27.085	-0.229	-0.192
-541.237	-27.278	0.341	-0.198
-540.223	-200.000	-0.023	-0.134
-539.208	-104.530	0.421	0.097
-538.193	-99.100	-0.232	0.059
-537.179	200.383	0.112	0.172
-536.164	-117.536	-0.176	0.032
-535.150	23.596	0.205	0.168
-534.135	-200.000	0.008	0.171
-533.121	53.821	-0.275	-0.263
-532.106	22.549	0.133	0.108
-531.091	64.937	-0.102	0.103
-530.077	216.292	0.122	-0.194
-529.062	-200.000	0.001	-0.053
-528.048	-32.394	0.208	-0.116
-527.033	-200.000	-0.026	0.278
-526.018	-3.989	-0.170	-0.117
-525.004	-126.621	0.103	0.015
-523.989	-168.309	-0.313	0.012
-522.975	-34.933	0.049	-0.026
-521.960	90.209	0.184	-0.205
-520.945	-199.677	0.248	-0.001
-519.931	-27.819	0.098	-0.056
-518.916	-200.000	0.007	0.370
-517.902	-200.000	0.009	0.145
-516.887	800.000	0.053	0.184
-515.872	800.000	-0.027	0.107
-514.858	-144.924	-0.175	0.016
-513.843	32.677	-0.178	-0.153
-512.829	-125.950	-0.234	0.035
-511.814	156.094	0.145	0.199
-510.799	800.000	-0.051	-0.203
-509.785	-174.994	-0.053	-0.001
-508.770	312.232	0.035	-0.066
-507.756	800.000	0.062	-0.226
-506.741	-40.728	0.045	-0.023
-505.726	-200.000	-0.091	0.399
-504.712	-131.896	0.177	-0.023
-503.697	50.325	0.142	-0.133
-502.683	-45.431	-0.259	0.128
-501.668	800.000	-0.079	0.271
-500.653	-200.000	0.042	-0.398
-499.639	-200.000	0.022	-0.284
-498.624	-145.422	-0.241	0.022
-497.610	-73.593	-0.307	-0.111
-496.595	519.094	-0.087	-0.202
-495.581	231.789	-0.058	0.095
-494.566	375.510	-0.198	-0.402
-493.551	-167.886	-0.186	0.007
-492.537	-200.000	0.014	-0.146
-491.522	-127.066	0.025	-0.004
-490.508	49.133	-0.199	0.186
-489.493	-73.637	0.247	-0.090
-488.478	156.573	0.119	0.163
-487.464	81.483	-0.270	-0.290
-486.449	-42.408	0.221	-0.112
-485.435	-200.000	0.015	0.199
-484.420	800.000	0.050	0.162
-483.405	607.128	0.093	-0.231
-482.391	-200.000	0.011	-0.147
-481.376	800.000	-0.046	0.147
-480.362	-18.169	0.319	-0.198
-479.347	-174.726	-0.164	0.005
-478.332	67.798	-0.092	0.093
-477.318	-55.516	-0.489	-0.218
-476.303	-121.252	-0.062	-0.010
-475.289	774.299	-0.082	0.222
-474.274	-87.102	-0.179	-0.054
-473.259	-200.000	0.008	0.238
-472.245	-200.000	-0.008	-0.217
-471.230	260.632	0.084	0.144
-470.216	-200.000	-0.063	0.282
-469.201	137.068	-0.074	0.096
-468.186	185.544	-0.109	-0.161
-467.172	29.282	0.092	0.078
-466.157	194.936	0.161	0.243
-465.143	-200.000	-0.003	-0.043
-464.128	175.778	-0.167	-0.241
-463.113	-16.116	0.320	0.202
-462.099	800.000	0.067	-0.248
-461.084	304.230	0.075	0.139
-460.070	57.436	0.422	0.409
-459.055	700.319	-0.131	-0.342
-458.040	33.285	0.211	0.182
-457.026	-71.929	-0.311	0.115
-456.011	-100.118	-0.184	0.045
-454.997	-200.000	0.035	0.324
-453.982	453.700	0.189	0.415
-452.968	-141.285	0.230	-0.023
-451.953	93.813	0.124	0.140
-450.938	222.839	-0.083	0.133
-449.924	-114.901	-0.134	-0.025
-448.909	-19.763	-0.111	-0.068
-447.895	-200.000	0.042	0.221
-446.880	-30.796	0.097	0.054
-445.865	71.989	0.135	-0.140
-444.851	-60.105	-0.066	0.028
-443.836	-200.000	0.005	-0.187
-442.822	72.360	0.219	-0.227
-441.807	-200.000	-0.009	-0.241
-440.792	15.615	0.195	0.152
-439.778	800.000	-0.015	0.055
-438.763	-78.440	-0.051	-0.017
-437.749	280.319	-0.145	-0.258
-436.734	421.113	-0.082	-0.175
-435.719	-200.000	0.009	0.122
-434.705	-181.558	0.162	0.003
-433.690	110.136	0.086	0.103
-432.676	-200.000	0.035	0.154
-431.661	69.304	-0.107	0.109
-430.646	58.237	0.125	-0.121
-429.632	-80.055	0.260	-0.087
-428.617	38.021	0.237	-0.209
-427.603	-125.124	-0.207	-0.032
-426.588	-200.000	-0.032	0.454
-425.573	-168.729	0.283	0.011
-424.559	15.641	-0.158	0.123
-423.544	-200.000	0.043	-0.256
-422.530	-94.791	-0.337	0.091
-421.515	-200.000	-0.049	-0.000
-420.500	195.390	0.022	0.033
-419.486	-114.828	0.109	0.021
-418.471	-68.466	-0.167	-0.064
-417.457	-91.637	-0.053	-0.015
-416.442	-200.000	0.002	-0.223
-415.428	522.201	-0.124	-0.290
-414.413	-158.004	0.267	0.016
-413.398	82.694	0.373	-0.401
-412.384	274.827	-0.127	-0.222
-411.369	-200.000	-0.024	0.307
-410.355	-200.000	-0.022	0.139
-409.340	-200.000	0.004	-0.308
-408.325	568.709	0.126	-0.303
-407.311	97.620	-0.164	0.187
-406.296	-135.229	-0.261	-0.031
-405.282	-97.063	-0.176	-0.046
-404.267	-123.480	-0.184	0.029
-403.252	114.131	-0.194	0.235
-402.238	110.132	-0.035	-0.042
-401.223	-67.547	-0.195	-0.076
-400.209	47.524	-0.351	-0.324
-399.194	-165.408	-0.173	-0.007
-398.179	64.242	-0.062	-0.061
-397.165	800.000	0.050	0.197
-396.150	-162.712	-0.113	-0.005
-395.136	67.866	0.113	-0.115
-394.121	-131.924	0.402	-0.052
-393.106	-10.107	0.239	0.158
-392.092	712.034	0.050	0.131
-391.077	-200.000	-0.009	0.298
-390.063	-66.817	-0.158	0.062
-389.048	16.452	-0.277	0.217
-388.033	184.107	-0.120	0.176
-387.019	-101.216	-0.243	0.059
-386.004	-81.695	0.149	-0.048
-384.990	61.842	-0.210	-0.207
-383.975	800.000	0.049	0.143
-382.960	-25.241	-0.210	-0.123
-381.946	361.799	0.021	0.042
-380.931	718.033	-0.086	-0.226
-379.917	154.932	0.151	0.205
-378.902	-85.878	-0.279	-0.086
-377.888	-86.889	0.224	-0.068
-376.873	251.942	-0.089	-0.149
-375.858	-200.000	0.009	0.069
-374.844	-182.671	0.235	-0.004
-373.829	800.000	0.108	-0.308
-372.815	-200.000	-0.056	-0.273
-371.800	-200.000	0.014	-0.200
-370.785	277.687	0.109	0.191
-369.771	141.356	-0.311	0.407
-368.756	-54.870	-0.128	0.057
-367.742	-84.973	-0.151	0.047
-366.727	-90.664	0.320	-0.091
-365.712	-200.000	0.040	0.221
-364.698	19.570	0.127	-0.101
-363.683	42.954	-0.058	-0.052
-362.669	-200.000	0.052	-0.248
-361.654	-72.836	0.130	-0.047
-360.639	35.577	0.120	0.104
-359.625	-174.784	-0.164	-0.005
-358.610	-200.000	-0.030	-0.206
-357.596	-200.000	0.019	0.100
-356.581	383.792	-0.103	-0.210
-355.566	27.399	0.166	0.138
-354.552	32.706	-0.099	-0.084
-353.537	-200.000	-0.012	-0.191
-352.523	189.281	0.237	-0.352
-351.508	-71.450	0.048	-0.018
-350.493	-3.238	0.080	-0.055
-349.479	-34.892	0.167	0.090
-348.464	-200.000	-0.002	-0.278
-347.450	-200.000	-0.003	0.193
-346.435	205.929	-0.095	0.145
-345.420	416.269	-0.142	-0.300
-344.406	606.597	-0.113	-0.279
-343.391	-128.256	-0.240	-0.034
-342.377	14.912	0.318	-0.246
-341.362	-200.000	-0.021	-0.242
-340.348	411.379	-0.127	0.267
-339.333	-39.641	-0.167	0.087
-338.318	-200.000	-0.012	0.306
-337.304	-200.000	0.002	-0.034
-336.289	-104.697	-0.177	-0.040
-335.275	-20.725	-0.226	-0.137
-334.260	-86.499	-0.269	-0.082
-333.245	239.465	-0.080	-0.131
-332.231	-78.670	-0.196	0.066
-331.216	-88.830	0.021	-0.006
-330.202	-200.000	-0.067	-0.444
-329.187	-115.012	0.302	-0.057
-328.172	-72.698	-0.189	-0.069
-327.158	800.000	-0.059	-0.194
-326.143	800.000	0.044	0.144
-325.129	-72.677	-0.305	0.111
-324.114	-13.495	0.326	0.209
-323.099	417.413	-0.156	-0.330
-322.085	-122.179	0.119	-0.019
-321.070	-200.000	0.051	0.366
-320.056	420.011	0.071	-0.151
-319.041	108.788	0.051	-0.060
-318.026	-133.539	-0.131	-0.016
-317.012	-200.000	-0.041	-0.288
-315.997	-60.955	-0.094	0.039
-314.983	800.000	-0.111	0.336
-313.968	-18.528	0.167	0.103
-312.953	-200.000	-0.003	0.027
-311.939	214.420	0.232	0.362
-310.924	-200.000	0.042	0.245
-309.910	7.536	-0.196	-0.145
-308.895	-45.974	-0.211	-0.103
-307.880	431.857	-0.098	0.209
-306.866	119.439	-0.144	0.176
-305.851	-32.058	-0.258	0.143
-304.837	314.123	0.133	-0.247
-303.822	-47.304	-0.152	-0.073
-302.807	134.140	0.229	0.293
-301.793	-124.190	-0.122	-0.019
-300.778	-200.000	-0.053	0.246
-299.764	-141.257	-0.266	0.027
-298.749	-200.000	-0.013	-0.144
-297.735	-89.482	0.314	0.091
-296.720	609.171	-0.089	0.219
-295.705	31.533	-0.024	-0.020
-294.691	-200.000	0.017	-0.137
-293.676	-2.581	-0.050	-0.034
-292.662	185.532	0.117	0.171
-291.647	-29.137	0.164	0.093
-290.632	169.035	-0.184	-0.259
-289.618	-126.090	0.135	-0.020
-288.603	-196.136	-0.236	-0.002
-287.589	47.339	-0.114	0.104
-286.574	668.101	-0.062	-0.158
-285.559	98.610	0.081	-0.092
-284.545	-2.877	0.197	-0.136
-283.530	41.889	0.239	0.214
-282.516	545.702	-0.095	0.225
-281.501	135.182	-0.338	0.433
-280.486	402.157	0.122	0.254
-279.472	371.534	-0.139	0.279
-278.457	341.658	-0.165	-0.318
-277.443	-200.000	0.036	0.398
-276.428	695.880	0.065	0.167
-275.413	-128.026	0.255	0.036
-274.399	-155.135	-0.396	0.026
-273.384	-78.560	0.347	0.117
-272.370	9.978	0.070	-0.053
-271.355	24.007	-0.152	-0.123
-270.340	-32.807	0.074	-0.040
-269.326	-32.300	0.237	0.131
-268.311	45.994	0.017	-0.016
-267.297	800.000	-0.088	-0.245
-266.282	268.172	-0.147	-0.254
-265.267	-135.110	0.296	0.035
-264.253	120.418	-0.207	0.254
-263.238	740.515	0.006	-0.015
-262.224	-32.763	0.150	0.082
-261.209	200.307	-0.118	-0.178
-260.195	-200.000	-0.060	-0.359
-259.180	800.000	-0.026	-0.074
-258.165	-200.000	0.036	-0.183
-257.151	-11.356	-0.374	0.243
-256.136	800.000	0.080	0.304
-255.122	-3.138	0.174	0.120
-254.107	-168.616	-0.316	-0.012
-253.092	-191.931	0.162	-0.002
-252.078	59.558	0.120	-0.117
-251.063	-50.032	-0.223	-0.104
-250.049	-200.000	0.001	0.067
-249.034	273.020	0.076	-0.131
-248.019	-200.000	0.011	0.058
-247.005	-7.143	0.265	-0.177
-245.990	-51.119	0.266	0.123
-244.976	-91.850	0.237	0.066
-243.961	477.195	0.080	-0.178
-242.946	-56.403	-0.236	-0.103
-241.932	470.918	-0.064	0.142
-240.917	-83.091	-0.140	-0.044
-239.903	228.266	-0.212	-0.340
-238.888	737.852	0.218	-0.575
-237.873	-200.000	-0.026	0.213
-236.859	-95.147	0.274	-0.073
-235.844	-22.293	-0.090	0.054
-234.830	-102.870	0.164	-0.038
-233.815	372.384	0.012	0.025
-232.800	87.585	-0.184	0.201
-231.786	281.721	0.057	0.100
-230.771	800.000	-0.043	-0.148
-229.757	-114.610	-0.037	-0.007
-228.742	-109.816	0.181	-0.037
-227.727	-117.142	-0.314	0.056
-226.713	800.000	-0.105	0.323
-225.698	800.000	0.080	0.219
-224.684	41.130	-0.224	0.199
-223.669	140.843	0.201	-0.262
-222.655	-99.586	-0.244	0.060
-221.640	159.158	0.077	0.105
-220.625	-122.146	-0.349	0.056
-219.611	-114.103	0.172	0.033
-218.596	-18.818	0.019	-0.011
-217.582	47.524	-0.082	0.076
-216.567	102.566	0.106	0.122
-215.552	800.000	0.063	-0.258
-214.538	-167.877	-0.063	-0.002
-213.523	58.813	0.129	0.125
-212.509	105.440	-0.169	0.197
-211.494	118.588	0.162	-0.196
-210.479	-200.000	-0.031	0.168
-209.465	190.265	0.159	-0.235
-208.450	76.293	0.082	-0.085
-207.436	-52.401	-0.208	0.095
-206.421	579.260	0.073	0.177
-205.406	-200.000	-0.002	-0.094
-204.392	329.518	0.140	-0.265
-203.377	-200.000	0.023	-0.472
-202.363	302.918	0.112	-0.204
-201.348	-150.879	-0.217	0.016
-200.333	-51.224	-0.161	0.074
-199.319	168.812	0.119	0.167
-198.304	-200.000	0.010	0.047
-197.290	101.875	0.215	0.246
-196.275	236.559	0.059	0.095
-195.260	-18.050	-0.281	0.173
-194.246	800.000	-0.072	0.227
-193.231	-52.317	0.131	0.060
-192.217	800.000	-0.082	-0.272
-191.202	-138.320	0.677	0.074
-190.187	-157.200	-0.257	0.015
-189.173	-94.301	0.147	-0.039
-188.158	422.997	0.099	-0.210
-187.144	-16.291	-0.264	0.165
-186.129	-47.179	0.341	0.163
-185.114	-149.280	0.189	-0.015
-184.100	-9.485	-0.277	-0.181
-183.085	-200.000	-0.035	-0.204
-182.071	-87.990	0.171	-0.050
-181.056	-151.208	-0.236	0.017
-180.042	-200.000	-0.016	-0.323
-179.027	66.506	0.127	-0.127
-178.012	-36.639	0.175	-0.093
-176.998	338.858	0.193	-0.370
-175.983	-153.185	0.122	0.008
-174.969	-122.754	0.257	-0.041
-173.954	421.362	0.094	0.198
-172.939	-121.360	0.165	0.027
-171.925	130.577	-0.228	-0.287
-170.910	-122.473	0.296	-0.047
-169.896	66.885	0.177	0.177
-168.881	800.000	0.063	0.244
-167.866	-53.351	-0.238	0.107
-166.852	-200.000	-0.024	0.378
-165.837	34.538	0.357	0.306
-164.823	30.371	-0.147	-0.124
-163.808	-24.169	0.156	-0.091
-162.793	-133.318	0.420	0.052
-161.779	90.964	-0.019	0.021
-160.764	72.118	-0.135	-0.137
-159.750	-200.000	0.010	0.203
-158.735	-38.266	0.417	0.217
-157.720	230.253	0.240	-0.386
-156.706	99.647	-0.181	-0.205
-155.691	84.539	0.276	0.297
-154.677	800.000	-0.054	-0.165
-153.662	413.163	-0.079	0.165
-152.647	17.739	0.274	0.214
-151.633	-40.799	0.123	-0.063
-150.618	800.000	-0.077	0.281
-149.604	693.850	-0.107	0.275
-148.589	222.898	-0.182	0.288
-147.574	-14.716	0.136	0.086
-146.560	800.000	-0.015	-0.062
-145.545	203.916	0.114	-0.173
-144.531	800.000	0.119	0.388
-143.516	157.968	0.085	0.116
-142.502	2.064	-0.182	0.129
-141.487	-200.000	-0.006	0.046
-140.472	177.226	-0.131	0.187
-139.458	584.595	-0.110	-0.265
-138.443	800.000	0.023	0.098
-137.429	-7.383	-0.177	0.117
-136.414	281.630	-0.112	-0.196
-135.399	-98.397	0.079	0.020
-134.385	47.998	0.126	0.116
-133.370	-200.000	-0.218	0.001
-132.356	-64.709	-0.163	-0.065
-131.341	800.000	0.111	0.338
-130.326	-127.273	-0.336	-0.048
-129.312	57.953	-0.229	-0.220
-128.297	764.016	-0.079	0.212
-127.283	-200.000	0.027	-0.121
-126.268	-80.432	-0.095	0.031
-125.253	669.086	0.023	0.059
-124.239	-41.529	-0.247	-0.125
-123.224	-139.792	0.303	0.032
-122.210	90.053	-0.061	-0.066
-121.195	-114.621	0.138	-0.026
-120.180	-200.000	-0.008	-0.203
-119.166	84.382	-0.130	-0.139
-118.151	-200.000	0.025	-0.181
-117.137	-177.598	0.308	0.007
-116.122	534.058	0.015	-0.034
-115.107	188.133	-0.141	0.206
-114.093	-200.000	-0.041	-0.297
-113.078	-98.032	-0.158	0.040
-112.064	176.596	-0.083	0.118
-111.049	-43.031	0.300	0.149
-110.034	-89.486	0.280	0.081
-109.020	-111.384	-0.139	-0.028
-108.005	800.000	0.021	-0.070
-106.991	800.000	0.047	-0.158
-105.976	-200.000	0.008	-0.144
-104.962	-114.208	0.200	-0.038
-103.947	84.395	0.353	-0.378
-102.932	-35.529	0.116	-0.061
-101.918	445.381	0.073	-0.158
-100.903	222.683	-0.079	-0.124
-99.889	-200.000	0.055	-0.251
-98.874	4.563	0.347	-0.249
-97.859	-200.000	-0.042	0.189
-96.845	-200.000	0.003	0.059
-95.830	244.918	0.125	0.205
-94.816	-166.291	0.235	-0.010
-93.801	-132.172	0.077	0.010
-92.786	4.823	-0.185	0.133
-91.772	-23.326	0.317	0.187
-90.757	-200.000	0.005	0.131
-89.743	192.935	-0.190	-0.281
-88.728	-200.000	-0.000	-0.077
-87.713	364.436	-0.068	-0.135
-86.699	8.630	-0.314	0.231
-85.684	742.549	0.038	-0.101
-84.670	235.839	0.290	0.470
-83.655	-7.242	0.267	0.177
-82.640	-55.476	0.147	-0.065
-81.626	-200.000	0.054	0.329
-80.611	12.617	-0.184	-0.139
-79.597	-172.585	0.182	-0.006
-78.582	132.771	0.161	0.204
-77.567	-64.619	0.199	-0.079
-76.553	-172.417	0.331	0.010
-75.538	516.837	-0.053	0.120
-74.524	-62.236	-0.365	0.149
-73.509	-66.858	0.060	0.023
-72.494	-101.882	-0.133	0.032
-71.480	-200.000	0.037	0.257
-70.465	-68.445	0.059	0.022
-69.451	-48.740	-0.188	-0.088
-68.436	77.091	0.053	-0.055
-67.422	39.515	-0.103	-0.091
-66.407	100.728	-0.224	-0.254
-65.392	238.407	-0.260	0.423
-64.378	-35.644	-0.196	-0.104
-63.363	395.569	-0.099	-0.202
-62.349	0.122	0.207	0.144
-61.334	13.829	-1.114	-0.847
-60.319	-59.290	0.680	0.286
-59.305	-200.000	-0.031	-1.050
-58.290	486.901	0.536	1.196
-57.276	474.929	0.641	1.414
-56.261	-200.000	114.630	644.578
-55.246	469.965	1510.308	3318.162
-54.232	145.823	2688.805	3523.798
-53.217	96.430	2291.315	2563.162
-52.203	36.085	1903.398	1638.381
-51.188	30.289	1695.471	1415.294
-50.173	27.853	1653.592	1362.130
-49.159	49.283	1708.927	1570.661
-48.144	47.924	1722.783	1573.052
-47.130	29.973	1681.412	1400.943
-46.115	27.282	1667.018	1368.680
-45.100	27.088	1662.317	1363.309
-44.086	27.066	1659.712	1360.957
-43.071	27.058	1657.409	1358.952
-42.057	27.031	1654.823	1356.579
-41.042	26.978	1652.650	1354.348
-40.027	27.085	1650.461	1353.299
-39.013	27.049	1648.639	1351.482
-37.998	27.045	1647.200	1350.213
-36.984	27.008	1646.306	1349.156
-35.969	27.239	1644.341	1349.209
-34.954	27.324	1642.656	1348.398
-33.940	27.147	1641.111	1345.770
-32.925	27.136	1639.108	1343.992
-31.911	27.046	1637.933	1342.307
-30.896	27.157	1635.215	1340.844
-29.881	27.221	1633.669	1339.999
-28.867	27.162	1632.596	1338.633
-27.852	27.213	1631.632	1338.165
-26.838	27.199	1629.859	1336.548
-25.823	27.170	1628.483	1335.160
-24.809	27.190	1627.016	1334.049
-23.794	27.216	1625.691	1333.095
-22.779	27.155	1624.230	1331.399
-21.765	27.320	1622.154	1330.853
-20.750	27.051	1621.382	1328.201
-19.736	27.202	1620.108	1328.208
-18.721	27.171	1618.377	1326.513
-17.706	27.188	1616.985	1325.439
-16.692	27.237	1614.622	1323.808
-15.677	27.245	1613.842	1323.173
-14.663	27.247	1612.544	1322.070
-13.648	27.192	1611.414	1320.690
-12.633	27.262	1609.632	1319.691
-11.619	27.242	1607.798	1317.987
-10.604	27.315	1606.346	1317.274
-9.590	27.217	1605.214	1315.579
-8.575	27.265	1603.936	1314.833
-7.560	27.301	1602.514	1313.874
-6.546	27.257	1601.437	1312.620
-5.531	27.217	1600.350	1311.385
-4.517	27.117	1599.721	1310.101
-3.502	27.205	1598.120	1309.368
-2.487	27.341	1596.517	1308.981
-1.473	26.927	1585.189	1296.690
-0.458	24.141	1565.716	1261.010
0.556	19.032	1567.974	1231.373
1.571	16.905	1592.181	1234.795
2.586	16.515	1605.194	1241.915
3.600	16.226	1554.896	1200.840
4.615	13.902	1457.141	1109.725
5.629	11.498	1402.095	1052.238
6.644	11.045	1395.155	1044.029
7.659	10.882	1394.146	1042.137
8.673	10.914	1393.145	1041.503
9.688	10.840	1391.189	1039.477
10.702	10.810	1387.967	1036.788
11.717	11.975	1389.089	1044.966
12.731	14.654	1394.765	1066.278
13.746	17.021	1398.081	1083.852
14.761	17.636	1396.977	1086.829
15.775	16.616	1394.880	1078.603
16.790	15.566	1391.937	1069.545
17.804	14.819	1389.269	1062.654
18.819	14.259	1387.846	1057.913
19.834	14.026	1386.851	1055.581
20.848	13.819	1385.118	1052.857
21.863	13.595	1384.036	1050.522
22.877	13.330	1382.933	1047.911
23.892	13.343	1382.150	1047.306
24.907	13.435	1380.810	1046.786
25.921	13.422	1380.388	1046.287
26.936	13.406	1379.243	1045.225
27.950	13.471	1378.282	1044.815
28.965	13.549	1376.924	1044.188
29.980	13.633	1375.729	1043.716
30.994	13.698	1374.960	1043.448
32.009	13.595	1373.703	1041.758
33.023	13.560	1372.494	1040.525
34.038	13.665	1370.838	1039.839
35.053	13.517	1370.038	1038.212
36.067	13.606	1368.454	1037.478
37.082	13.601	1367.525	1036.650
38.096	13.541	1366.668	1035.536
39.111	13.518	1366.342	1035.054
40.126	13.499	1365.202	1033.977
41.140	13.372	1364.273	1032.390
42.155	13.275	1364.116	1031.576
43.169	13.420	1363.401	1031.844
44.184	13.320	1363.163	1030.953
45.199	13.314	1362.666	1030.448
46.213	13.318	1362.253	1030.070
47.228	13.527	1360.937	1030.281
48.242	13.475	1359.683	1028.918
49.257	13.471	1358.465	1027.884
50.271	13.530	1356.833	1026.924
51.286	13.411	1356.005	1025.463
52.301	13.530	1354.312	1024.832
53.315	13.469	1353.539	1023.780
54.330	13.359	1352.577	1022.280
55.344	13.376	1351.137	1021.205
56.359	13.337	1350.267	1020.218
57.374	13.267	1349.640	1019.223
58.388	13.346	1348.223	1018.552
59.403	13.314	1348.045	1018.129
60.417	13.321	1347.282	1017.506
61.432	13.362	1345.790	1016.539
62.447	13.315	1345.184	1015.703
63.461	13.228	1344.198	1014.333
64.476	13.199	1343.095	1013.237
65.490	13.153	1341.567	1011.709
66.505	13.317	1339.922	1011.382
67.520	13.221	1339.058	1010.057
68.534	13.236	1337.790	1009.103
69.549	13.302	1336.875	1008.724
70.563	13.274	1336.005	1007.806
71.578	13.208	1335.148	1006.670
72.593	13.147	1334.146	1005.456
73.607	13.160	1333.130	1004.677
74.622	13.124	1332.476	1003.875
75.636	13.143	1331.712	1003.326
76.651	13.140	1330.828	1002.556
77.666	13.188	1330.688	1002.651
78.680	13.114	1330.526	1001.996
79.695	13.266	1329.086	1001.744
80.709	13.190	1328.675	1000.881
81.724	13.374	1327.543	1001.055
82.739	13.316	1326.501	999.830
83.753	13.398	1326.255	1000.050
84.768	13.471	1325.181	999.594
85.782	13.485	1323.802	998.552
86.797	13.520	1322.596	997.765
87.812	13.440	1321.515	996.381
88.826	13.364	1320.303	994.920
89.841	13.480	1318.943	994.505
90.855	13.518	1317.663	993.680
91.870	13.569	1317.093	993.466
92.884	13.592	1316.613	993.152
93.899	13.521	1315.769	992.004
94.914	13.609	1315.109	991.945
95.928	13.640	1313.725	991.001
96.943	13.557	1312.823	989.736
97.957	13.504	1312.245	988.896
98.972	13.503	1310.933	987.814
99.987	13.537	1310.108	987.307
101.001	13.533	1309.345	986.621
102.016	13.436	1308.226	985.112
103.030	13.555	1307.122	984.901
104.045	13.589	1306.089	984.241
105.060	13.440	1305.120	982.539
106.074	13.463	1303.173	981.121
107.089	13.325	1302.257	979.525
108.103	13.291	1301.085	978.355
109.118	13.303	1299.594	977.219
110.133	13.312	1298.327	976.235
111.147	13.295	1297.146	975.161
112.162	13.285	1295.491	973.768
113.176	13.409	1294.059	973.334
114.191	13.477	1293.345	973.113
115.206	13.389	1292.648	971.985
116.220	13.466	1291.213	971.274
117.235	13.458	1290.221	970.392
118.249	13.402	1289.114	969.148
119.264	13.333	1287.954	967.788
120.279	13.312	1287.141	966.969
121.293	13.306	1286.232	966.161
122.308	13.243	1285.271	964.989
123.322	13.317	1283.816	964.244
124.337	13.269	1282.606	962.968
125.352	13.356	1281.634	962.661
126.366	13.316	1280.388	961.407
127.381	13.408	1278.945	960.773
128.395	13.358	1278.194	959.831
129.410	13.306	1277.673	959.053
130.424	13.445	1276.487	958.884
131.439	13.392	1275.722	957.919
132.454	13.476	1274.943	957.731
133.468	13.477	1273.849	956.835
134.483	13.412	1273.114	955.823
135.497	13.490	1271.713	955.133
136.512	13.386	1270.897	953.836
137.527	13.404	1268.998	952.431
138.541	13.298	1268.443	951.322
139.556	13.441	1266.865	950.876
140.570	13.528	1265.763	950.464
141.585	13.609	1264.540	949.923
142.600	13.639	1263.112	948.938
143.614	13.568	1262.461	947.962
144.629	13.660	1261.235	947.484
145.643	13.604	1260.186	946.291
146.658	13.637	1258.608	945.210
147.673	13.558	1257.450	943.809
148.687	13.506	1256.555	942.756
149.702	13.449	1254.839	941.061
150.716	13.448	1253.660	940.091
151.731	13.519	1252.336	939.415
152.746	13.483	1251.543	938.533
153.760	13.531	1250.226	937.734
154.775	13.656	1248.701	937.213
155.789	13.679	1247.784	936.572
156.804	13.641	1246.782	935.526
157.819	13.694	1245.783	934.992
158.833	13.700	1245.150	934.465
159.848	13.806	1244.051	934.154
160.862	13.792	1242.917	933.143
161.877	13.668	1241.441	931.256
162.892	13.694	1240.510	930.618
163.906	13.593	1239.687	929.353
164.921	13.622	1238.748	928.732
165.935	13.721	1237.793	928.484
166.950	13.687	1237.314	927.857
167.964	13.661	1236.808	927.247
168.979	13.713	1235.871	926.753
169.994	13.760	1234.537	925.937
171.008	13.706	1234.098	925.222
172.023	13.841	1233.555	925.487
173.037	13.761	1232.889	924.459
174.052	13.834	1230.958	923.337
175.067	13.726	1230.844	922.565
176.081	13.717	1229.598	921.498
177.096	13.749	1228.683	920.909
178.110	13.743	1227.617	919.998
179.125	13.723	1226.404	918.898
180.140	13.693	1225.572	918.028
181.154	13.805	1224.177	917.520
182.169	13.782	1222.730	916.225
183.183	13.929	1221.509	916.042
184.198	13.810	1220.737	914.723
185.213	13.947	1219.311	914.329
186.227	13.979	1218.559	913.860
187.242	13.972	1217.397	912.871
188.256	13.968	1216.624	912.188
189.271	13.963	1215.715	911.397
190.286	13.920	1214.408	910.099
191.300	13.801	1213.260	908.509
192.315	13.772	1213.208	908.230
193.329	13.777	1212.365	907.549
194.344	13.656	1212.033	906.557
195.359	13.932	1210.865	907.108
196.373	14.009	1210.378	907.088
197.388	13.944	1210.555	906.783
198.402	14.099	1209.602	906.835
199.417	14.153	1208.998	906.595
200.432	14.201	1207.749	905.840
201.446	14.169	1207.311	905.257
202.461	14.233	1205.925	904.485
203.475	14.272	1205.445	904.257
204.490	14.292	1203.960	903.174
205.504	14.166	1202.929	901.639
206.519	14.158	1201.851	900.706
207.534	14.175	1200.045	899.362
208.548	14.193	1199.327	898.846
209.563	14.159	1198.644	898.066
210.577	14.173	1197.898	897.506
211.592	14.269	1196.988	897.264
212.607	14.316	1195.759	896.515
213.621	14.375	1195.067	896.234
214.636	14.301	1194.389	895.246
215.650	14.257	1193.924	894.584
216.665	14.335	1192.451	893.820
217.680	14.417	1191.813	893.702
218.694	14.483	1190.820	893.235
219.709	14.419	1189.880	892.106
220.723	14.498	1189.441	892.120
221.738	14.494	1188.493	891.306
222.753	14.465	1187.804	890.559
223.767	14.335	1187.690	889.698
224.782	14.505	1186.830	889.885
225.796	14.555	1186.059	889.494
226.811	14.572	1185.164	888.835
227.826	14.622	1184.526	888.543
228.840	14.464	1184.182	887.368
229.855	14.575	1183.203	887.143
230.869	14.577	1182.374	886.457
231.884	14.480	1181.513	885.217
232.899	14.580	1180.399	884.830
233.913	14.401	1180.116	883.595
234.928	14.392	1179.230	882.806
235.942	14.356	1178.373	881.894
236.957	14.512	1177.358	881.879
237.972	14.473	1177.295	881.549
238.986	14.597	1176.379	881.440
240.001	14.487	1175.224	879.915
241.015	14.528	1174.581	879.576
242.030	14.593	1173.853	879.294
243.045	14.710	1172.954	879.157
244.059	14.591	1172.468	878.088
245.074	14.591	1171.782	877.497
246.088	14.693	1171.186	877.508
247.103	14.725	1170.035	876.738
248.117	14.821	1169.197	876.535
249.132	14.806	1168.648	875.971
250.147	14.990	1167.981	876.353
251.161	15.030	1167.102	875.828
252.176	15.029	1166.363	875.191
253.190	14.990	1165.941	874.594
254.205	15.119	1165.362	874.752
255.220	15.114	1164.646	874.115
256.234	15.127	1163.858	873.511
257.249	15.032	1163.266	872.495
258.263	15.152	1162.676	872.601
259.278	15.164	1162.029	872.101
260.293	15.120	1161.844	871.656
261.307	15.226	1160.936	871.450
262.322	15.229	1159.953	870.650
263.336	15.243	1159.297	870.152
264.351	15.191	1158.917	869.518
265.366	15.315	1158.057	869.443
266.380	15.288	1157.415	868.742
267.395	15.220	1156.348	867.511
268.409	15.268	1155.463	867.022
269.424	15.234	1154.805	866.273
270.439	15.170	1154.784	865.850
271.453	15.144	1154.055	865.091
272.468	15.146	1153.211	864.394
273.482	15.213	1152.002	863.756
274.497	15.256	1152.031	863.924
275.512	15.195	1151.014	862.768
276.526	15.316	1149.714	862.342
277.541	15.268	1149.221	861.652
278.555	15.193	1148.957	860.989
279.570	15.307	1148.230	860.956
280.585	15.462	1147.128	860.844
281.599	15.383	1146.387	859.809
282.614	15.397	1145.106	858.843
283.628	15.405	1144.116	858.069
284.643	15.372	1143.800	857.587
285.657	15.301	1142.834	856.425
286.672	15.449	1141.349	855.988
287.687	15.489	1140.360	855.374
288.701	15.503	1139.510	854.734
289.716	15.532	1139.163	854.547
290.730	15.446	1138.575	853.592
291.745	15.529	1137.675	853.262
292.760	15.422	1137.355	852.401
293.774	15.511	1136.634	852.240
294.789	15.548	1136.280	852.086
295.803	15.533	1135.652	851.463
296.818	15.608	1134.332	850.776
297.833	15.418	1134.133	849.594
298.847	15.632	1132.721	849.543
299.862	15.559	1132.057	848.600
300.876	15.595	1131.655	848.405
301.891	15.657	1131.014	848.164
302.906	15.686	1130.214	847.631
303.920	15.764	1129.416	847.354
304.935	15.799	1128.713	846.924
305.949	15.747	1128.561	846.473
306.964	15.760	1127.658	845.787
307.979	15.799	1126.606	845.121
308.993	15.871	1125.956	844.920
310.008	15.770	1125.431	843.945
311.022	15.902	1124.357	843.727
312.037	15.858	1123.425	842.729
313.052	15.984	1122.147	842.330
314.066	15.901	1121.548	841.391
315.081	15.753	1120.883	840.076
316.095	15.719	1120.305	839.400
317.110	15.822	1119.237	839.037
318.125	15.755	1118.664	838.203
319.139	15.891	1118.006	838.311
320.154	15.835	1117.126	837.297
321.168	15.768	1116.872	836.699
322.183	15.805	1116.171	836.285
323.197	15.907	1115.153	835.953
324.212	15.875	1114.853	835.498
325.227	15.871	1114.481	835.126
326.241	15.981	1113.099	834.559
327.256	15.899	1112.611	833.714
328.270	15.904	1111.857	833.099
329.285	15.827	1111.013	832.012
330.300	15.834	1110.142	831.323
331.314	15.823	1109.119	830.428
332.329	15.894	1108.557	830.285
333.343	15.923	1107.195	829.332
334.358	16.069	1106.325	829.328
335.373	16.007	1105.580	828.389
336.387	15.999	1105.175	827.976
337.402	16.049	1104.021	827.280
338.416	16.023	1103.557	826.732
339.431	16.072	1103.286	826.698
340.446	16.250	1102.297	826.756
341.460	16.331	1101.379	826.391
342.475	16.296	1100.436	825.437
343.489	16.342	1099.798	825.112
344.504	16.364	1099.000	824.547
345.519	16.375	1098.082	823.839
346.533	16.433	1097.266	823.435
347.548	16.390	1097.043	822.985
348.562	16.493	1095.801	822.481
349.577	16.301	1095.508	821.256
350.592	16.310	1094.491	820.464
351.606	16.333	1093.600	819.837
352.621	16.261	1092.910	818.897
353.635	16.336	1091.945	818.465
354.650	16.248	1091.378	817.542
355.665	16.276	1090.918	817.261
356.679	16.381	1089.882	816.921
357.694	16.383	1089.348	816.456
358.708	16.536	1088.814	816.725
359.723	16.433	1088.054	815.582
360.738	16.429	1087.713	815.239
361.752	16.580	1087.058	815.404
362.767	16.501	1086.490	814.521
363.781	16.515	1085.962	814.123
364.796	16.531	1085.370	813.686
365.810	16.699	1084.508	813.772
366.825	16.633	1084.048	813.039
367.840	16.720	1083.462	812.946
368.854	16.801	1083.491	813.285
369.869	16.642	1082.447	811.667
370.883	16.714	1080.877	810.762
371.898	16.796	1080.477	810.783
372.913	16.673	1080.147	809.873
373.927	16.745	1079.548	809.698
374.942	16.679	1079.510	809.283
375.956	16.721	1078.881	808.941
376.971	16.869	1077.955	808.879
377.986	16.821	1077.246	808.049
379.000	16.930	1076.633	808.035
380.015	17.027	1075.836	807.827
381.029	16.912	1075.929	807.276
382.044	16.840	1075.131	806.267
383.059	16.886	1074.151	805.680
384.073	17.029	1072.921	805.361
385.088	17.048	1072.146	804.802
386.102	16.951	1071.609	803.865
387.117	16.933	1070.502	802.878
388.132	16.908	1069.458	801.908
389.146	16.788	1069.072	800.978
390.161	16.952	1068.051	800.916
391.175	17.075	1066.822	800.507
392.190	16.961	1067.038	800.058
393.205	17.045	1066.121	799.697
394.219	16.970	1065.442	798.762
395.234	17.133	1064.177	798.512
396.248	17.137	1063.415	797.889
397.263	17.116	1062.110	796.741
398.278	17.111	1061.558	796.233
399.292	16.985	1060.765	794.974
400.307	17.016	1060.216	794.639
401.321	16.987	1059.750	794.082
402.336	17.014	1058.718	793.368
403.350	17.059	1058.198	793.118
404.365	16.977	1057.764	792.337
405.380	17.085	1056.939	792.154
406.394	17.140	1056.234	791.813
407.409	17.082	1055.463	790.894
408.423	17.290	1054.773	791.275
409.438	17.221	1054.386	790.596
410.453	17.255	1053.512	790.028
411.467	17.356	1052.707	789.821
412.482	17.300	1052.467	789.313
413.496	17.355	1051.633	788.873
414.511	17.396	1050.852	788.405
415.526	17.580	1050.268	788.749
416.540	17.492	1050.164	788.193
417.555	17.515	1049.430	787.679
418.569	17.439	1048.691	786.704
419.584	17.446	1048.516	786.535
420.599	17.578	1047.839	786.570
421.613	104.769	1326.469	1476.111
422.628	96.339	1367.015	1476.207
