DTS Sentinel unit serial number:	SN413079Multiplexer serial number:	ORYXHardware model number:	OX4-SRSoftware version number:	ORYX F/W v4.00 Oryx Data Collector v3.7.2.0data status	okinstallation	princeton_trtdifferential loss correction	single-endedforward channel	channel 2reverse channel	N/Adate	2019/09/17time	06:35:35forward acquisition time	60.00reverse acquisition time	0.00gamma	496.2192k internal	0.2332k external	0.2332temperature offset calibration	0.9979default loss term (dB/km)	0.3790temperature slope calibration	1.0000multiplexer offset coefficient	1.0000multiplexer slope coefficient	1.0000fibre end	0.00T internal ref (°C)	28.06T ext. ref 1 (°C)	0.14T ext. ref 2 (°C)	21.38length (m)	temperature (°C)	Stokes	anti-Stokes-747.200	-144.707	0.358	-0.033
-746.185	-126.190	-0.464	0.070
-745.171	434.407	0.155	0.340
-744.156	58.534	-0.134	0.132
-743.142	-200.000	-0.011	-0.140
-742.127	-19.288	-0.255	0.159
-741.112	31.034	0.142	0.122
-740.098	-84.269	-0.216	0.069
-739.083	-85.324	0.221	-0.069
-738.069	800.000	-0.107	-0.366
-737.054	112.875	0.095	-0.115
-736.039	-141.881	0.168	0.017
-735.025	264.608	0.236	0.414
-734.010	-99.902	-0.256	-0.064
-732.996	-39.664	0.509	-0.268
-731.981	-71.066	-0.211	-0.080
-730.966	115.266	0.240	0.295
-729.952	-26.445	-0.225	0.133
-728.937	1.141	0.078	-0.056
-727.923	-137.553	0.134	-0.015
-726.908	382.108	0.039	-0.082
-725.894	-7.625	-0.115	0.078
-724.879	-92.357	0.019	0.005
-723.864	13.189	-0.075	0.059
-722.850	22.888	-0.240	0.198
-721.835	112.263	-0.318	-0.387
-720.821	268.521	0.178	-0.314
-719.806	231.636	0.112	-0.185
-718.791	-63.552	-0.346	-0.143
-717.777	129.462	-0.215	0.276
-716.762	-75.434	-0.050	-0.018
-715.748	779.636	-0.059	-0.162
-714.733	800.000	0.024	-0.095
-713.718	428.504	0.130	-0.283
-712.704	68.653	-0.194	-0.200
-711.689	159.743	-0.204	-0.285
-710.675	800.000	0.064	0.257
-709.660	104.259	0.057	0.068
-708.645	800.000	-0.033	0.104
-707.631	388.282	0.166	-0.345
-706.616	800.000	0.127	0.420
-705.602	154.039	0.017	-0.024
-704.587	-200.000	-0.019	0.109
-703.572	-83.166	-0.136	0.044
-702.558	35.910	0.155	-0.137
-701.543	-58.513	-0.324	0.141
-700.529	78.690	-0.192	0.206
-699.514	-140.871	-0.375	0.039
-698.499	5.504	0.195	0.145
-697.485	357.393	0.041	-0.082
-696.470	-200.000	-0.002	-0.098
-695.456	-200.000	0.015	-0.389
-694.441	-123.258	0.166	0.027
-693.426	86.322	0.182	-0.202
-692.412	-16.963	-0.211	0.134
-691.397	-3.590	0.185	-0.129
-690.383	252.136	-0.057	-0.097
-689.368	-90.832	-0.105	-0.030
-688.354	-199.105	0.064	-0.000
-687.339	-200.000	-0.002	0.070
-686.324	-200.000	-0.038	-0.220
-685.310	-35.519	-0.343	-0.187
-684.295	-17.920	-0.111	-0.070
-683.281	259.994	0.017	0.029
-682.266	310.926	0.066	-0.125
-681.251	-170.520	-0.204	-0.007
-680.237	100.542	-0.239	0.278
-679.222	-136.164	0.139	-0.016
-678.208	-109.139	0.112	0.024
-677.193	-73.656	0.175	0.064
-676.178	-90.018	-0.162	0.047
-675.164	-200.000	0.029	0.203
-674.149	800.000	-0.009	-0.028
-673.135	-56.887	-0.230	0.102
-672.120	-38.474	0.166	0.088
-671.105	-200.000	-0.034	-0.229
-670.091	-91.161	0.199	0.057
-669.076	-60.585	-0.105	0.045
-668.062	111.698	0.128	-0.155
-667.047	176.720	-0.143	-0.208
-666.032	-200.000	-0.008	0.159
-665.018	-56.768	-0.113	-0.050
-664.003	-104.633	0.351	-0.081
-662.989	-142.128	0.145	-0.014
-661.974	800.000	0.040	0.119
-660.959	-78.399	-0.189	-0.065
-659.945	-137.258	-0.092	-0.010
-658.930	-32.903	-0.396	-0.221
-657.916	103.844	0.080	0.094
-656.901	-200.000	-0.043	0.204
-655.886	-200.000	0.094	-0.412
-654.872	-49.859	-0.504	-0.240
-653.857	-140.159	0.279	0.029
-652.843	70.288	-0.103	0.106
-651.828	-26.326	0.135	0.079
-650.814	-200.000	-0.010	-0.072
-649.799	800.000	0.053	0.206
-648.784	-110.436	-0.050	0.010
-647.770	103.385	0.177	0.207
-646.755	57.788	0.095	-0.093
-645.741	-200.000	0.055	-0.265
-644.726	91.433	-0.146	0.164
-643.711	-200.000	-0.001	-0.240
-642.697	-132.222	0.240	0.031
-641.682	-94.083	0.239	0.066
-640.668	571.176	-0.080	0.196
-639.653	47.952	-0.057	-0.054
-638.638	-18.524	-0.239	-0.149
-637.624	-200.000	0.017	-0.256
-636.609	-144.521	-0.167	-0.015
-635.595	-169.058	-0.308	-0.011
-634.580	-200.000	0.020	0.094
-633.565	-71.691	0.297	0.111
-632.551	-146.810	0.149	0.013
-631.536	505.544	0.136	0.315
-630.522	-122.151	-0.264	0.043
-629.507	-133.519	0.009	0.001
-628.492	322.603	-0.175	0.334
-627.478	-200.000	-0.027	0.504
-626.463	694.783	0.139	0.367
-625.449	5.840	-0.205	0.152
-624.434	326.458	-0.174	-0.334
-623.419	-42.381	0.125	0.064
-622.405	92.116	-0.183	0.207
-621.390	-200.000	-0.027	0.153
-620.376	-41.524	0.086	0.045
-619.361	-151.533	0.212	0.016
-618.346	-200.000	-0.021	0.128
-617.332	-80.294	0.151	-0.051
-616.317	160.178	-0.160	-0.223
-615.303	-65.473	-0.094	-0.038
-614.288	-110.501	-0.272	-0.056
-613.273	-13.287	-0.245	0.159
-612.259	-200.000	0.020	-0.222
-611.244	81.919	-0.252	-0.273
-610.230	800.000	0.058	-0.184
-609.215	369.284	0.110	0.224
-608.201	245.852	0.079	0.134
-607.186	-22.723	-0.355	-0.214
-606.171	16.333	0.170	-0.134
-605.157	28.200	-0.071	-0.060
-604.142	-61.871	-0.185	-0.078
-603.128	7.143	-0.110	-0.082
-602.113	800.000	0.092	0.324
-601.098	-74.540	0.170	0.061
-600.084	-200.000	0.000	0.231
-599.069	-200.000	0.042	0.193
-598.055	-101.874	-0.587	0.142
-597.040	-151.913	0.210	-0.015
-596.025	-34.335	0.177	0.097
-595.011	-9.522	0.110	0.074
-593.996	64.373	0.110	-0.110
-592.982	300.482	-0.141	0.260
-591.967	742.235	0.113	-0.304
-590.952	517.367	-0.070	-0.164
-589.938	234.499	-0.146	0.241
-588.923	-4.793	0.282	0.195
-587.909	-200.000	0.002	0.046
-586.894	-77.888	0.156	0.054
-585.879	281.289	-0.069	0.124
-584.865	-109.331	-0.199	0.042
-583.850	272.557	-0.022	-0.039
-582.836	624.454	0.082	-0.206
-581.821	5.196	-0.106	0.078
-580.806	530.584	0.028	-0.066
-579.792	800.000	0.032	0.125
-578.777	-200.000	0.012	0.198
-577.763	-42.757	-0.288	-0.146
-576.748	250.964	0.097	0.164
-575.733	-6.598	0.152	0.104
-574.719	800.000	-0.054	0.198
-573.704	-200.000	-0.021	0.319
-572.690	800.000	-0.088	0.312
-571.675	-200.000	0.039	-0.258
-570.661	-25.477	-0.185	0.109
-569.646	-104.676	0.179	0.041
-568.631	236.386	-0.139	0.229
-567.617	344.896	-0.079	0.156
-566.602	14.736	0.101	-0.079
-565.588	65.552	0.267	-0.270
-564.573	-200.000	-0.034	-0.162
-563.558	-86.052	-0.286	0.088
-562.544	-200.000	-0.052	-0.314
-561.529	203.921	0.113	-0.175
-560.515	306.240	0.084	-0.157
-559.500	-119.422	-0.129	0.022
-558.485	161.162	-0.134	-0.188
-557.471	74.396	-0.311	0.326
-556.456	-200.000	-0.051	0.263
-555.442	117.683	0.086	0.105
-554.427	51.804	-0.145	-0.138
-553.412	800.000	0.048	-0.157
-552.398	174.570	-0.256	0.370
-551.383	284.568	-0.197	0.354
-550.369	-200.000	0.067	0.311
-549.354	-112.406	-0.102	-0.020
-548.339	576.337	0.021	-0.051
-547.325	125.030	0.023	0.029
-546.310	-157.235	-0.141	-0.009
-545.296	89.185	-0.043	0.048
-544.281	-200.000	-0.042	0.214
-543.266	163.116	0.087	0.122
-542.252	-169.833	0.292	0.010
-541.237	800.000	0.055	-0.164
-540.223	128.566	-0.170	-0.216
-539.208	-68.021	0.327	0.127
-538.193	-200.000	-0.034	0.476
-537.179	-80.099	-0.244	-0.082
-536.164	-59.269	0.177	0.076
-535.150	569.698	-0.055	0.134
-534.135	-145.570	-0.290	0.026
-533.121	187.441	0.154	0.229
-532.106	-149.813	0.269	0.021
-531.091	-200.000	-0.003	0.027
-530.077	800.000	-0.054	0.187
-529.062	279.498	-0.187	0.334
-528.048	15.921	-0.138	-0.108
-527.033	37.786	0.178	0.158
-526.018	800.000	-0.041	-0.162
-525.004	238.187	-0.169	-0.280
-523.989	-123.465	-0.210	0.033
-522.975	51.118	-0.122	-0.115
-521.960	298.035	0.092	0.168
-520.945	264.324	-0.071	-0.124
-519.931	-45.678	-0.280	0.138
-518.916	93.816	0.110	0.124
-517.902	-173.691	-0.426	-0.013
-516.887	-127.869	-0.139	0.020
-515.872	-54.261	-0.248	-0.112
-514.858	80.969	0.067	-0.072
-513.843	-90.326	-0.190	-0.055
-512.829	397.733	0.161	0.335
-511.814	188.661	-0.099	-0.148
-510.799	-18.730	0.213	0.133
-509.785	-90.188	0.122	-0.035
-508.770	-15.379	0.067	0.043
-507.756	27.462	-0.268	-0.225
-506.741	18.377	0.214	-0.170
-505.726	200.996	-0.090	-0.138
-504.712	-200.000	0.001	0.099
-503.697	347.233	-0.117	-0.229
-502.683	116.091	-0.117	-0.143
-501.668	800.000	-0.092	-0.332
-500.653	-115.965	-0.212	-0.039
-499.639	123.109	-0.125	-0.156
-498.624	-200.000	0.032	-0.185
-497.610	-99.048	-0.114	0.029
-496.595	95.338	0.257	-0.292
-495.581	245.059	-0.112	-0.188
-494.566	-200.000	-0.029	0.141
-493.551	42.330	0.087	-0.079
-492.537	48.648	-0.144	0.135
-491.522	174.341	0.103	-0.148
-490.508	89.787	0.083	0.092
-489.493	67.735	0.247	0.251
-488.478	-46.289	-0.305	0.149
-487.464	-200.000	-0.005	-0.099
-486.449	-65.484	-0.230	0.092
-485.435	499.084	0.070	-0.161
-484.420	-23.559	-0.183	0.109
-483.405	-147.466	-0.300	-0.025
-482.391	-5.344	-0.120	0.082
-481.376	3.822	-0.135	-0.098
-480.362	162.902	-0.130	0.181
-479.347	800.000	0.049	0.195
-478.332	-31.908	0.130	0.073
-477.318	-173.496	-0.290	0.009
-476.303	233.654	-0.061	-0.100
-475.289	366.673	-0.167	-0.335
-474.274	-104.029	0.264	0.061
-473.259	45.982	-0.298	0.275
-472.245	70.600	0.173	-0.178
-471.230	-200.000	-0.031	0.159
-470.216	-105.968	0.212	0.048
-469.201	-87.677	-0.145	-0.044
-468.186	-52.628	0.214	-0.098
-467.172	-38.712	0.144	-0.076
-466.157	18.664	0.303	0.242
-465.143	-122.028	0.316	-0.052
-464.128	284.666	0.075	-0.134
-463.113	-200.000	-0.002	-0.057
-462.099	-37.468	-0.162	-0.086
-461.084	5.671	0.097	-0.072
-460.070	-26.584	0.214	-0.125
-459.055	-40.169	0.174	0.090
-458.040	551.252	0.072	-0.172
-457.026	118.665	-0.047	0.058
-456.011	6.785	0.282	0.209
-454.997	-27.201	-0.283	-0.164
-453.982	32.556	0.163	-0.140
-452.968	138.722	0.086	-0.112
-451.953	282.314	0.244	-0.434
-450.938	186.167	0.147	-0.218
-449.924	-82.266	-0.137	0.044
-448.909	189.314	-0.100	-0.149
-447.895	553.043	-0.145	-0.345
-446.880	-70.110	0.203	0.077
-445.865	800.000	-0.030	-0.127
-444.851	-69.860	0.217	-0.082
-443.836	-56.500	0.116	0.051
-442.822	184.993	0.052	0.076
-441.807	65.416	-0.192	0.193
-440.792	-84.156	0.058	0.018
-439.778	-23.851	0.096	-0.057
-438.763	69.338	-0.056	0.057
-437.749	-200.000	-0.025	0.542
-436.734	56.418	0.287	0.277
-435.719	-50.586	0.274	-0.129
-434.705	-128.432	-0.350	0.049
-433.690	-29.546	-0.105	-0.059
-432.676	207.590	-0.135	0.210
-431.661	-103.630	-0.406	0.095
-430.646	-68.051	-0.187	-0.072
-429.632	11.143	-0.111	-0.084
-428.617	235.100	-0.039	0.065
-427.603	12.573	-0.239	-0.183
-426.588	-200.000	0.004	0.214
-425.573	-200.000	0.043	0.209
-424.559	121.501	0.068	0.085
-423.544	-58.676	0.412	0.177
-422.530	-6.977	0.229	0.154
-421.515	-121.121	-0.249	0.041
-420.500	509.383	-0.068	0.157
-419.486	800.000	0.003	-0.010
-418.471	135.859	-0.071	0.092
-417.457	83.673	0.067	-0.072
-416.442	-66.073	0.249	0.099
-415.428	34.485	-0.148	-0.128
-414.413	521.986	-0.120	-0.280
-413.398	-200.000	0.072	-0.337
-412.384	340.453	0.104	-0.202
-411.369	98.969	-0.055	0.063
-410.355	304.599	0.129	0.237
-409.340	459.310	-0.133	0.295
-408.325	-39.901	0.066	0.034
-407.311	-87.696	-0.282	-0.084
-406.296	-121.293	0.100	-0.017
-405.282	-72.161	0.214	0.079
-404.267	800.000	-0.028	0.117
-403.252	-61.993	0.150	-0.062
-402.238	347.369	0.231	0.451
-401.223	226.415	0.045	-0.073
-400.209	800.000	0.049	0.195
-399.194	800.000	-0.032	0.126
-398.179	-165.252	0.140	-0.006
-397.165	-84.846	-0.476	-0.148
-396.150	-23.993	-0.162	0.096
-395.136	235.079	0.123	0.202
-394.121	48.713	-0.275	-0.256
-393.106	6.853	-0.198	-0.146
-392.092	68.773	0.132	-0.134
-391.077	-19.570	-0.197	0.121
-390.063	-91.567	-0.190	-0.054
-389.048	800.000	0.081	0.274
-388.033	-2.112	-0.175	-0.122
-387.019	-43.712	-0.259	0.130
-386.004	-75.542	0.348	-0.123
-384.990	-169.319	0.130	0.005
-383.975	100.145	0.129	-0.148
-382.960	-200.000	0.021	0.097
-381.946	-26.706	-0.129	0.075
-380.931	81.075	-0.060	-0.064
-379.917	-200.000	0.042	0.311
-378.902	-100.725	-0.376	0.092
-377.888	136.922	0.116	0.151
-376.873	-200.000	0.008	-0.056
-375.858	-14.083	-0.211	0.135
-374.844	77.554	-0.125	0.132
-373.829	-154.619	0.043	-0.003
-372.815	800.000	-0.037	0.146
-371.800	213.179	-0.065	-0.102
-370.785	-52.097	0.176	-0.081
-369.771	-33.878	-0.412	0.225
-368.756	100.113	0.036	-0.042
-367.742	-200.000	-0.015	0.096
-366.727	141.378	0.237	0.311
-365.712	28.006	0.218	0.183
-364.698	232.353	-0.109	0.177
-363.683	274.248	-0.073	-0.129
-362.669	-200.000	0.022	-0.393
-361.654	64.292	-0.186	-0.185
-360.639	-111.304	-0.194	0.039
-359.625	-9.639	0.023	-0.015
-358.610	800.000	-0.125	0.366
-357.596	-200.000	0.070	-0.342
-356.581	5.725	0.081	0.059
-355.566	643.227	0.085	-0.216
-354.552	-107.163	0.117	-0.026
-353.537	-98.998	-0.158	-0.040
-352.523	-18.468	0.165	0.102
-351.508	31.618	0.029	0.025
-350.493	541.280	0.072	0.169
-349.479	-200.000	-0.050	-0.244
-348.464	192.439	-0.045	-0.068
-347.450	170.427	-0.182	-0.258
-346.435	137.328	-0.171	-0.221
-345.420	692.075	-0.075	0.195
-344.406	441.455	0.104	-0.225
-343.391	-107.590	-0.283	-0.061
-342.377	119.502	-0.275	-0.337
-341.362	-200.000	-0.010	0.252
-340.348	-191.481	0.029	0.000
-339.333	216.709	0.084	-0.133
-338.318	759.028	0.126	0.337
-337.304	-117.875	-0.031	0.006
-336.289	800.000	-0.059	-0.257
-335.275	-7.049	0.065	0.044
-334.260	175.971	0.082	-0.118
-333.245	-200.000	0.001	0.016
-332.231	42.547	0.221	0.199
-331.216	-11.967	0.306	-0.199
-330.202	103.255	0.193	-0.224
-329.187	800.000	0.114	-0.334
-328.172	574.003	0.147	-0.355
-327.158	42.972	-0.302	-0.273
-326.143	-58.924	0.073	0.031
-325.129	65.494	0.154	0.154
-324.114	137.723	0.069	0.090
-323.099	-12.185	0.183	0.119
-322.085	62.520	0.412	0.407
-321.070	-200.000	0.040	0.361
-320.056	28.473	0.203	0.170
-319.041	800.000	0.139	-0.545
-318.026	-66.215	0.305	-0.120
-317.012	-77.259	-0.177	0.061
-315.997	800.000	-0.039	-0.120
-314.983	-200.000	0.038	-0.283
-313.968	800.000	-0.090	-0.278
-312.953	48.344	0.163	0.151
-311.939	491.749	0.147	-0.333
-310.924	800.000	-0.069	0.193
-309.910	-84.861	-0.293	0.091
-308.895	-200.000	-0.001	-0.184
-307.880	130.273	-0.137	0.174
-306.866	-200.000	-0.059	0.342
-305.851	800.000	0.124	0.365
-304.837	-117.402	-0.169	-0.030
-303.822	104.140	0.034	-0.040
-302.807	-200.000	0.063	-0.364
-301.793	161.479	0.071	0.098
-300.778	-184.736	-0.081	0.001
-299.764	-38.111	-0.102	-0.053
-298.749	-200.000	-0.015	0.101
-297.735	-200.000	0.041	-0.314
-296.720	216.644	0.053	-0.083
-295.705	76.046	0.192	0.201
-294.691	129.293	0.187	-0.236
-293.676	-46.914	-0.256	0.124
-292.662	-137.261	-0.379	0.043
-291.647	50.854	-0.113	-0.105
-290.632	41.258	0.222	-0.199
-289.618	-200.000	0.015	0.119
-288.603	-98.002	0.090	-0.023
-287.589	-77.051	0.101	0.035
-286.574	-200.000	-0.032	-0.251
-285.559	-200.000	0.024	-0.153
-284.545	593.661	-0.139	0.338
-283.530	-200.000	0.021	-0.217
-282.516	-200.000	-0.017	-0.211
-281.501	691.394	-0.102	0.263
-280.486	-31.322	-0.227	-0.126
-279.472	82.197	0.111	-0.119
-278.457	196.868	0.099	-0.149
-277.443	-91.528	0.058	-0.016
-276.428	-159.934	0.428	0.023
-275.413	-200.000	0.024	0.125
-274.399	-118.730	0.212	-0.037
-273.384	-200.000	0.029	-0.229
-272.370	-121.059	-0.148	-0.025
-271.355	-200.000	-0.024	0.363
-270.340	230.873	-0.096	-0.155
-269.326	136.503	-0.191	-0.246
-268.311	242.311	0.142	-0.234
-267.297	-91.337	0.253	-0.071
-266.282	13.784	0.132	0.101
-265.267	-59.416	-0.139	0.059
-264.253	-200.000	-0.083	0.000
-263.238	128.947	0.198	-0.250
-262.224	385.242	0.056	-0.114
-261.209	-18.788	-0.058	-0.036
-260.195	405.703	-0.065	-0.136
-259.180	343.727	0.110	-0.212
-258.165	-200.000	0.046	-0.208
-257.151	26.051	0.091	-0.075
-256.136	-200.000	-0.030	0.285
-255.122	142.149	0.205	-0.269
-254.107	58.568	0.106	0.103
-253.092	9.818	-0.165	-0.124
-252.078	-130.054	-0.211	-0.028
-251.063	174.991	0.107	0.153
-250.049	34.893	0.172	0.149
-249.034	-171.391	-0.302	-0.010
-248.019	621.448	0.115	-0.284
-247.005	-200.000	-0.059	-0.261
-245.990	433.203	-0.052	-0.111
-244.976	-97.448	-0.037	0.009
-243.961	-105.858	0.178	0.040
-242.946	-200.000	0.011	-0.062
-241.932	-46.456	0.186	0.090
-240.917	-21.685	0.086	0.052
-239.903	-166.338	-0.248	-0.010
-238.888	800.000	0.046	-0.134
-237.873	-106.016	0.217	0.048
-236.859	50.952	0.294	-0.275
-235.844	-200.000	0.023	0.126
-234.830	800.000	-0.023	0.079
-233.815	-200.000	0.015	0.406
-232.800	-9.816	-0.350	0.230
-231.786	-200.000	0.027	0.154
-230.771	120.630	0.138	0.169
-229.757	-200.000	0.022	-0.233
-228.742	80.640	0.229	0.243
-227.727	-47.383	0.252	-0.121
-226.713	-200.000	0.021	0.217
-225.698	239.304	0.122	-0.201
-224.684	-200.000	0.021	0.125
-223.669	-175.463	0.147	0.004
-222.655	-200.000	-0.001	0.392
-221.640	144.848	-0.091	0.120
-220.625	199.005	-0.022	-0.034
-219.611	-35.338	-0.218	-0.117
-218.596	539.191	-0.153	-0.358
-217.582	-195.708	0.257	-0.002
-216.567	800.000	0.086	0.322
-215.552	800.000	0.102	0.391
-214.538	-29.436	-0.123	0.069
-213.523	408.689	0.041	0.086
-212.509	800.000	0.109	-0.370
-211.494	800.000	-0.072	0.294
-210.479	-60.073	-0.237	0.099
-209.465	-151.585	-0.069	0.005
-208.450	-31.430	-0.023	0.013
-207.436	-52.712	0.220	-0.100
-206.421	-200.000	0.050	-0.519
-205.406	386.927	-0.133	-0.270
-204.392	87.373	0.070	0.076
-203.377	-200.000	-0.003	0.328
-202.363	-61.588	0.150	-0.062
-201.348	-114.950	-0.141	0.026
-200.333	800.000	-0.049	-0.135
-199.319	-200.000	0.076	0.329
-198.304	-174.203	-0.249	0.007
-197.290	547.447	-0.025	0.058
-196.275	-56.574	-0.253	-0.111
-195.260	-129.457	0.292	-0.040
-194.246	-200.000	0.036	-0.315
-193.231	-168.289	0.413	0.016
-192.217	-200.000	-0.001	-0.066
-191.202	659.780	0.067	-0.171
-190.187	562.353	0.149	-0.354
-189.173	613.609	-0.056	0.139
-188.158	-108.665	0.166	0.035
-187.144	800.000	-0.058	-0.227
-186.129	-68.405	-0.120	-0.046
-185.114	-200.000	-0.019	-0.275
-184.100	26.902	-0.149	0.123
-183.085	111.540	-0.270	0.321
-182.071	-200.000	0.063	-0.300
-181.056	-30.790	0.168	-0.093
-180.042	-200.000	-0.064	-0.373
-179.027	-200.000	0.018	-0.570
-178.012	800.000	0.040	-0.133
-176.998	-97.029	-0.144	0.037
-175.983	-124.205	0.304	0.047
-174.969	-96.454	-0.262	-0.068
-173.954	-119.196	0.101	-0.017
-172.939	48.795	0.174	-0.161
-171.925	-164.082	0.052	-0.002
-170.910	800.000	0.016	-0.054
-169.896	800.000	-0.050	-0.211
-168.881	-58.395	0.184	0.079
-167.866	110.381	0.258	-0.304
-166.852	-82.071	0.197	0.063
-165.837	-21.745	0.281	-0.168
-164.823	800.000	0.046	0.170
-163.808	-200.000	0.031	0.162
-162.793	-200.000	-0.017	-0.302
-161.779	103.592	-0.158	0.183
-160.764	-81.137	0.143	0.047
-159.750	-135.061	0.193	0.023
-158.735	-36.269	0.096	0.051
-157.720	3.102	-0.206	-0.147
-156.706	320.880	0.080	0.150
-155.691	151.890	-0.182	0.244
-154.677	18.328	0.160	-0.125
-153.662	800.000	0.023	0.086
-152.647	-200.000	0.010	0.080
-151.633	186.019	0.171	-0.250
-150.618	-200.000	0.035	-0.210
-149.604	-200.000	0.001	0.089
-148.589	-200.000	-0.023	-0.117
-147.574	-200.000	0.058	0.409
-146.560	51.069	-0.223	0.208
-145.545	-66.275	-0.069	-0.027
-144.531	-135.205	-0.166	0.020
-143.516	-92.749	0.223	-0.061
-142.502	-147.834	0.227	-0.019
-141.487	317.850	-0.076	-0.141
-140.472	-172.837	-0.099	-0.003
-139.458	-200.000	0.006	-0.114
-138.443	798.617	-0.088	0.239
-137.429	153.503	-0.215	-0.289
-136.414	72.815	0.161	0.165
-135.399	187.607	0.067	-0.099
-134.385	78.723	-0.140	0.147
-133.370	-107.032	0.281	0.061
-132.356	-200.000	0.048	0.385
-131.341	-69.018	0.296	0.112
-130.326	294.906	-0.104	-0.187
-129.312	795.053	0.118	0.319
-128.297	229.572	-0.020	-0.033
-127.283	-79.810	0.095	-0.031
-126.268	-12.800	-0.147	0.094
-125.253	29.024	0.134	0.111
-124.239	-100.588	0.131	0.032
-123.224	800.000	-0.039	-0.165
-122.210	380.657	0.029	0.059
-121.195	15.036	0.205	0.158
-120.180	749.879	-0.041	0.109
-119.166	-200.000	0.006	0.115
-118.151	687.973	-0.087	0.224
-117.137	62.247	0.157	0.154
-116.122	-57.821	-0.226	-0.097
-115.107	93.166	-0.173	-0.192
-114.093	-127.295	-0.093	0.013
-113.078	151.085	0.132	-0.177
-112.064	-167.092	-0.196	0.008
-111.049	3.629	0.145	0.103
-110.034	800.000	-0.035	-0.112
-109.020	-118.094	0.424	0.074
-108.005	-152.736	-0.012	0.001
-106.991	182.430	0.060	0.086
-105.976	-200.000	0.001	-0.433
-104.962	-90.667	-0.170	-0.048
-103.947	-29.567	-0.201	0.113
-102.932	-200.000	0.002	0.093
-101.918	-200.000	-0.043	-0.214
-100.903	-200.000	-0.009	-0.448
-99.889	-200.000	0.005	-0.184
-98.874	795.029	-0.038	-0.102
-97.859	628.079	-0.101	0.250
-96.845	-200.000	-0.018	-0.342
-95.830	-200.000	-0.004	-0.135
-94.816	371.314	0.075	-0.149
-93.801	59.902	0.187	-0.181
-92.786	-158.113	0.160	0.009
-91.772	-137.272	-0.137	0.015
-90.757	58.469	0.148	0.142
-89.743	111.420	-0.041	-0.048
-88.728	50.591	-0.126	-0.117
-87.713	-81.548	0.306	0.099
-86.699	800.000	-0.051	-0.190
-85.684	-33.689	-0.219	0.118
-84.670	-200.000	-0.009	-0.076
-83.655	-52.667	0.260	0.118
-82.640	747.076	0.134	0.353
-81.626	-200.000	-0.029	-0.140
-80.611	-121.292	0.255	-0.042
-79.597	800.000	0.074	-0.272
-78.582	368.570	0.206	-0.409
-77.567	148.289	0.236	0.312
-76.553	76.526	0.108	-0.113
-75.538	-200.000	-0.005	-0.145
-74.524	-17.266	-0.007	-0.004
-73.509	-9.161	0.175	0.114
-72.494	-200.000	-0.031	0.134
-71.480	-200.000	0.074	-0.340
-70.465	415.889	-0.074	0.154
-69.451	-97.301	-0.332	-0.085
-68.436	800.000	-0.068	-0.238
-67.422	-200.000	-0.016	-0.076
-66.407	58.156	-0.075	-0.072
-65.392	420.612	-0.124	0.260
-64.378	-45.206	-0.080	0.039
-63.363	440.238	0.182	0.390
-62.349	293.366	0.065	0.116
-61.334	298.981	-0.689	-1.242
-60.319	112.909	0.662	0.785
-59.305	-200.000	-0.220	-1.396
-58.290	146.232	0.835	1.097
-57.276	344.141	0.748	1.436
-56.261	-200.000	111.917	644.430
-55.246	481.546	1497.965	3330.024
-54.232	147.712	2670.162	3523.404
-53.217	98.923	2285.866	2584.125
-52.203	37.194	1897.938	1645.589
-51.188	31.194	1688.088	1418.164
-50.173	28.714	1646.253	1364.564
-49.159	50.549	1699.461	1573.795
-48.144	49.637	1714.820	1581.093
-47.130	30.981	1673.220	1403.846
-46.115	28.145	1658.875	1370.547
-45.100	28.019	1653.709	1365.279
-44.086	27.933	1651.167	1362.485
-43.071	27.889	1648.990	1360.307
-42.057	27.804	1646.819	1357.835
-41.042	27.904	1644.455	1356.571
-40.027	27.921	1642.792	1355.272
-39.013	27.833	1640.861	1352.970
-37.998	27.951	1639.004	1352.266
-36.984	27.961	1637.995	1351.448
-35.969	27.955	1636.514	1350.127
-34.954	27.994	1634.863	1349.003
-33.940	27.896	1633.295	1346.930
-32.925	27.999	1630.868	1345.633
-31.911	28.080	1629.190	1344.795
-30.896	27.953	1627.688	1342.565
-29.881	28.014	1626.179	1341.716
-28.867	28.112	1623.995	1340.578
-27.852	28.093	1622.832	1339.425
-26.838	28.036	1621.270	1337.667
-25.823	28.033	1620.214	1336.724
-24.809	28.212	1618.617	1336.657
-23.794	28.081	1617.745	1334.928
-22.779	28.066	1615.820	1333.177
-21.765	28.067	1614.330	1331.901
-20.750	28.061	1612.681	1330.449
-19.736	28.158	1611.248	1329.916
-18.721	28.110	1610.107	1328.573
-17.706	28.017	1608.924	1326.870
-16.692	28.111	1607.581	1326.391
-15.677	28.089	1605.919	1324.811
-14.663	28.169	1604.542	1324.199
-13.648	28.142	1602.979	1322.664
-12.633	28.182	1601.072	1321.327
-11.619	28.131	1599.798	1319.854
-10.604	28.133	1598.573	1318.805
-9.590	28.091	1597.576	1317.625
-8.575	28.179	1596.104	1316.993
-7.560	28.192	1594.661	1315.840
-6.546	28.095	1594.166	1314.684
-5.531	28.171	1592.803	1314.053
-4.517	28.082	1591.896	1312.618
-3.502	28.071	1590.874	1311.646
-2.487	28.116	1588.921	1310.302
-1.473	27.746	1576.724	1297.564
-0.458	24.598	1556.520	1258.745
0.556	18.935	1557.266	1223.726
1.571	16.359	1580.386	1223.153
2.586	15.845	1592.969	1229.033
3.600	14.698	1540.524	1180.360
4.615	8.352	1432.973	1056.010
5.629	1.560	1372.322	968.096
6.644	0.289	1363.541	953.780
7.659	0.105	1362.753	951.980
8.673	0.074	1361.303	950.687
9.688	0.091	1359.375	949.361
10.702	-0.016	1355.905	946.183
11.717	3.194	1361.091	969.970
12.731	10.930	1373.229	1027.570
13.746	16.532	1380.859	1068.685
14.761	17.204	1380.564	1072.607
15.775	16.366	1378.013	1065.247
16.790	15.208	1375.935	1056.250
17.804	14.473	1372.997	1049.282
18.819	14.070	1372.604	1046.348
19.834	13.884	1370.557	1043.528
20.848	13.652	1369.686	1041.319
21.863	13.410	1368.272	1038.633
22.877	13.190	1367.351	1036.457
23.892	13.145	1366.231	1035.236
24.907	13.217	1365.118	1034.752
25.921	13.049	1365.062	1033.567
26.936	13.274	1363.206	1033.480
27.950	13.257	1362.886	1033.037
28.965	13.390	1361.713	1032.883
29.980	13.278	1360.920	1031.497
30.994	13.358	1360.523	1031.599
32.009	13.474	1359.008	1031.083
33.023	13.457	1357.850	1030.006
34.038	13.486	1356.551	1029.111
35.053	13.361	1355.403	1027.372
36.067	13.404	1354.223	1026.658
37.082	13.346	1353.632	1025.758
38.096	13.386	1352.490	1025.046
39.111	13.356	1351.884	1024.315
40.126	13.376	1350.808	1023.533
41.140	13.278	1350.339	1022.479
42.155	13.238	1349.774	1021.714
43.169	13.240	1349.319	1021.291
44.184	13.146	1349.038	1020.408
45.199	13.215	1348.784	1020.548
46.213	13.246	1347.903	1019.983
47.228	13.254	1347.591	1019.708
48.242	13.271	1346.376	1018.804
49.257	13.338	1344.585	1017.769
50.271	13.302	1343.271	1016.466
51.286	13.311	1342.094	1015.537
52.301	13.316	1340.995	1014.649
53.315	13.246	1339.450	1012.963
54.330	13.280	1338.228	1012.153
55.344	13.254	1337.334	1011.228
56.359	13.191	1336.376	1010.031
57.374	13.214	1335.412	1009.351
58.388	13.214	1334.730	1008.746
59.403	13.223	1334.084	1008.227
60.417	13.105	1333.722	1007.144
61.432	13.121	1332.477	1006.215
62.447	13.100	1331.718	1005.423
63.461	13.090	1330.628	1004.450
64.476	13.058	1329.404	1003.240
65.490	13.084	1327.933	1002.203
66.505	13.043	1326.593	1000.849
67.520	13.068	1325.363	999.990
68.534	13.125	1324.336	999.470
69.549	13.170	1323.075	998.700
70.563	13.099	1321.973	997.355
71.578	13.176	1320.802	996.843
72.593	13.083	1319.810	995.449
73.607	13.085	1319.221	994.929
74.622	13.047	1317.782	993.526
75.636	12.990	1317.763	993.082
76.651	13.124	1316.721	993.012
77.666	13.002	1316.715	992.189
78.680	12.975	1316.135	991.500
79.695	12.978	1315.879	991.233
80.709	13.176	1313.994	990.919
81.724	13.100	1313.689	990.141
82.739	13.247	1312.394	989.960
83.753	13.307	1311.502	989.559
84.768	13.297	1310.516	988.670
85.782	13.397	1309.219	988.201
86.797	13.323	1308.278	986.957
87.812	13.303	1306.681	985.550
88.826	13.269	1306.040	984.776
89.841	13.227	1304.987	983.643
90.855	13.251	1304.368	983.230
91.870	13.370	1302.913	982.755
92.884	13.323	1302.407	982.009
93.899	13.383	1301.301	981.441
94.914	13.515	1300.351	981.424
95.928	13.524	1299.170	980.500
96.943	13.437	1298.712	979.548
97.957	13.397	1298.218	978.856
98.972	13.282	1297.386	977.460
99.987	13.390	1295.578	976.652
101.001	13.349	1294.675	975.639
102.016	13.359	1293.947	975.063
103.030	13.436	1292.984	974.706
104.045	13.353	1292.339	973.643
105.060	13.388	1291.170	972.882
106.074	13.258	1290.120	971.243
107.089	13.229	1288.682	969.904
108.103	13.180	1287.549	968.681
109.118	13.138	1285.987	967.172
110.133	13.142	1284.762	966.191
111.147	13.141	1283.648	965.259
112.162	13.168	1282.780	964.676
113.176	13.311	1280.761	963.907
114.191	13.257	1280.025	962.957
115.206	13.243	1279.192	962.160
116.220	13.229	1277.974	961.078
117.235	13.213	1276.903	960.096
118.249	13.172	1275.505	958.723
119.264	13.237	1274.881	958.548
120.279	13.223	1273.615	957.426
121.293	13.284	1272.462	956.829
122.308	13.222	1271.726	955.833
123.322	13.193	1270.625	954.754
124.337	13.176	1269.632	953.821
125.352	13.163	1268.360	952.708
126.366	13.151	1267.549	951.946
127.381	13.207	1266.466	951.370
128.395	13.168	1265.211	950.122
129.410	13.256	1264.265	949.833
130.424	13.194	1263.864	949.088
131.439	13.213	1262.828	948.337
132.454	13.217	1261.854	947.544
133.468	13.267	1260.923	947.050
134.483	13.261	1260.193	946.382
135.497	13.227	1259.366	945.485
136.512	13.225	1257.961	944.332
137.527	13.300	1255.999	943.205
138.541	13.313	1254.867	942.346
139.556	13.344	1253.573	941.465
140.570	13.374	1252.631	940.846
141.585	13.450	1251.254	940.162
142.600	13.448	1250.076	939.178
143.614	13.493	1249.168	938.669
144.629	13.515	1248.434	938.162
145.643	13.484	1247.286	937.037
146.658	13.485	1246.205	936.148
147.673	13.437	1244.713	934.676
148.687	13.382	1243.574	933.429
149.702	13.371	1242.103	932.180
150.716	13.316	1241.154	931.073
151.731	13.357	1239.599	930.057
152.746	13.331	1238.599	929.074
153.760	13.477	1237.307	928.842
154.775	13.485	1236.203	927.978
155.789	13.370	1235.687	926.865
156.804	13.527	1234.024	926.412
157.819	13.449	1233.199	925.278
158.833	13.580	1232.500	925.401
159.848	13.582	1231.748	924.766
160.862	13.693	1230.114	924.079
161.877	13.586	1229.159	922.681
162.892	13.452	1228.260	921.179
163.906	13.542	1227.392	920.949
164.921	13.530	1226.220	919.921
165.935	13.595	1225.395	919.579
166.950	13.533	1225.276	919.068
167.964	13.507	1224.254	918.073
168.979	13.612	1223.596	918.081
169.994	13.577	1222.937	917.310
171.008	13.573	1222.399	916.803
172.023	13.688	1221.443	916.643
173.037	13.687	1220.148	915.584
174.052	13.651	1219.570	914.872
175.067	13.630	1218.539	913.897
176.081	13.626	1217.836	913.272
177.096	13.689	1216.467	912.512
178.110	13.649	1215.431	911.430
179.125	13.601	1214.258	910.209
180.140	13.756	1212.917	909.971
181.154	13.729	1211.939	909.009
182.169	13.685	1210.619	907.701
183.183	13.795	1209.318	907.245
184.198	13.781	1208.262	906.296
185.213	13.855	1207.418	905.988
186.227	13.874	1205.716	904.733
187.242	13.937	1204.988	904.447
188.256	13.872	1204.644	903.756
189.271	13.893	1203.311	902.791
190.286	13.707	1202.594	901.165
191.300	13.703	1201.544	900.274
192.315	13.724	1200.962	899.872
193.329	13.759	1200.157	899.377
194.344	13.730	1199.751	898.840
195.359	13.878	1198.894	898.917
196.373	13.985	1198.479	899.104
197.388	13.898	1198.050	898.233
198.402	13.849	1197.925	897.796
199.417	14.063	1197.020	898.196
200.432	14.063	1196.164	897.471
201.446	14.040	1195.185	896.535
202.461	14.080	1194.177	895.918
203.475	14.165	1192.915	895.346
204.490	14.162	1191.894	894.487
205.504	14.050	1190.692	892.903
206.519	14.038	1189.352	891.754
207.534	14.102	1188.362	891.278
208.548	14.082	1187.239	890.248
209.563	14.169	1186.776	890.287
210.577	14.060	1185.721	888.834
211.592	14.126	1185.204	888.719
212.607	14.224	1183.768	888.088
213.621	14.252	1183.240	887.766
214.636	14.125	1182.480	886.440
215.650	14.190	1181.288	885.811
216.665	14.259	1180.705	885.661
217.680	14.339	1179.426	885.048
218.694	14.346	1179.053	884.728
219.709	14.277	1178.034	883.519
220.723	14.408	1177.097	883.433
221.738	14.299	1176.146	882.066
222.753	14.233	1176.368	881.806
223.767	14.352	1175.058	881.375
224.782	14.348	1174.533	880.879
225.796	14.407	1173.990	880.708
226.811	14.427	1173.401	880.295
227.826	14.473	1172.351	879.670
228.840	14.363	1171.920	878.691
229.855	14.485	1170.795	878.409
230.869	14.451	1169.841	877.438
231.884	14.218	1169.690	876.022
232.899	14.406	1168.637	876.145
233.913	14.365	1167.918	875.310
234.928	14.347	1167.434	874.774
235.942	14.422	1166.024	874.034
236.957	14.391	1165.726	873.572
237.972	14.362	1164.952	872.761
238.986	14.309	1164.503	872.069
240.001	14.435	1163.465	871.876
241.015	14.400	1162.614	870.980
242.030	14.511	1161.902	870.949
243.045	14.474	1161.189	870.142
244.059	14.560	1160.004	869.627
245.074	14.559	1159.762	869.365
246.088	14.577	1158.467	868.411
247.103	14.637	1157.872	868.197
248.117	14.629	1157.322	867.666
249.132	14.643	1156.856	867.316
250.147	14.835	1156.048	867.627
251.161	14.788	1155.031	866.545
252.176	14.778	1154.654	866.134
253.190	14.816	1154.016	865.775
254.205	14.883	1153.403	865.586
255.220	14.982	1152.752	865.534
256.234	14.952	1151.800	864.585
257.249	14.899	1151.042	863.666
258.263	14.915	1150.898	863.563
259.278	14.992	1149.774	863.040
260.293	14.945	1149.774	862.724
261.307	14.947	1149.063	862.123
262.322	14.986	1148.293	861.671
263.336	14.975	1147.603	861.021
264.351	15.117	1146.920	861.164
265.366	15.171	1146.064	860.723
266.380	15.229	1145.306	860.370
267.395	15.167	1144.461	859.346
268.409	15.168	1143.980	858.911
269.424	15.090	1143.488	858.066
270.439	15.066	1142.993	857.494
271.453	15.239	1141.859	857.457
272.468	15.115	1141.253	856.291
273.482	15.086	1140.676	855.632
274.497	15.087	1140.028	855.074
275.512	15.217	1139.035	854.918
276.526	15.227	1138.360	854.390
277.541	15.143	1137.369	853.141
278.555	15.148	1137.239	852.995
279.570	15.309	1136.306	853.038
280.585	15.380	1135.174	852.472
281.599	15.274	1134.558	851.398
282.614	15.249	1133.532	850.423
283.628	15.364	1132.096	849.854
284.643	15.222	1131.761	848.806
285.657	15.221	1131.138	848.259
286.672	15.266	1130.257	847.755
287.687	15.319	1129.159	847.122
288.701	15.339	1128.593	846.723
289.716	15.448	1127.322	846.243
290.730	15.338	1126.861	845.270
291.745	15.460	1126.044	845.195
292.760	15.499	1125.087	844.599
293.774	15.463	1124.501	843.902
294.789	15.451	1124.753	843.959
295.803	15.528	1123.667	843.455
296.818	15.520	1122.980	842.826
297.833	15.469	1122.330	842.006
298.847	15.467	1120.993	840.919
299.862	15.518	1120.667	840.856
300.876	15.427	1120.219	839.989
301.891	15.550	1119.614	840.075
302.906	15.608	1118.620	839.544
303.920	15.642	1118.016	839.189
304.935	15.802	1117.268	839.350
305.949	15.744	1116.678	838.545
306.964	15.835	1115.536	838.067
307.979	15.695	1115.454	837.230
308.993	15.760	1114.395	836.686
310.008	15.711	1114.009	836.078
311.022	15.797	1112.747	835.485
312.037	15.680	1111.867	834.168
313.052	15.694	1111.036	833.541
314.066	15.795	1110.017	833.206
315.081	15.605	1109.812	832.035
316.095	15.614	1108.785	831.236
317.110	15.765	1108.190	831.466
318.125	15.748	1107.312	830.646
319.139	15.692	1106.768	829.887
320.154	15.767	1105.913	829.545
321.168	15.749	1105.200	828.845
322.183	15.721	1105.038	828.515
323.197	15.835	1104.416	828.536
324.212	15.809	1103.936	827.976
325.227	15.789	1102.921	827.044
326.241	15.782	1102.383	826.532
327.256	15.860	1101.484	826.166
328.270	15.805	1100.574	825.140
329.285	15.865	1099.563	824.602
330.300	15.850	1098.634	823.760
331.314	15.770	1097.971	822.799
332.329	15.868	1096.995	822.476
333.343	15.886	1095.980	821.727
334.358	15.920	1095.020	821.100
335.373	15.957	1094.811	821.054
336.387	16.007	1093.834	820.493
337.402	16.048	1093.154	820.107
338.416	16.076	1092.609	819.764
339.431	16.129	1091.896	819.414
340.446	16.199	1091.209	819.163
341.460	16.122	1090.647	818.296
342.475	16.236	1089.732	818.091
343.489	16.195	1088.998	817.268
344.504	16.172	1087.918	816.272
345.519	16.208	1087.051	815.727
346.533	16.280	1086.400	815.513
347.548	16.450	1085.074	815.265
348.562	16.368	1084.551	814.407
349.577	16.233	1083.985	813.256
350.592	16.180	1083.339	812.447
351.606	16.090	1082.930	811.633
352.621	16.164	1082.238	811.398
353.635	16.335	1081.163	811.342
354.650	16.220	1080.864	810.493
355.665	16.240	1080.000	809.873
356.679	16.341	1079.366	809.810
357.694	16.335	1078.823	809.301
358.708	16.470	1078.097	809.330
359.723	16.424	1077.222	808.382
360.738	16.420	1076.966	808.098
361.752	16.373	1076.376	807.361
362.767	16.422	1075.789	807.084
363.781	16.463	1075.440	806.945
364.796	16.521	1074.474	806.427
365.810	16.477	1073.718	805.575
366.825	16.537	1073.204	805.408
367.840	16.633	1072.816	805.501
368.854	16.700	1072.012	805.144
369.869	16.670	1071.358	804.437
370.883	16.684	1070.301	803.640
371.898	16.617	1070.044	803.058
372.913	16.615	1069.397	802.490
373.927	16.819	1068.441	802.669
374.942	16.698	1068.166	801.819
375.956	16.640	1067.835	801.226
376.971	16.662	1067.339	800.889
377.986	16.703	1066.581	800.441
379.000	16.903	1065.715	800.666
380.015	16.829	1065.687	800.225
381.029	16.764	1064.890	799.246
382.044	16.905	1064.083	799.235
383.059	16.915	1063.240	798.577
384.073	17.084	1062.140	798.476
385.088	16.887	1061.508	797.005
386.102	16.845	1061.062	796.404
387.117	16.933	1059.709	795.729
388.132	16.802	1059.101	794.591
389.146	16.884	1057.871	793.978
390.161	16.855	1057.445	793.454
391.175	16.788	1056.765	792.561
392.190	16.916	1056.229	792.686
393.205	16.888	1055.293	791.783
394.219	17.030	1054.468	791.757
395.234	16.955	1053.960	790.954
396.248	16.927	1052.651	789.773
397.263	16.984	1051.639	789.210
398.278	16.904	1051.023	788.305
399.292	16.958	1050.270	787.920
400.307	16.837	1049.744	786.895
401.321	16.950	1049.085	786.856
402.336	16.978	1048.758	786.671
403.350	17.000	1047.542	785.791
404.365	17.043	1047.099	785.586
405.380	17.027	1046.252	784.807
406.394	17.076	1045.298	784.248
407.409	17.163	1044.811	784.215
408.423	17.003	1044.363	783.075
409.438	17.124	1043.541	782.946
410.453	17.195	1042.909	782.729
411.467	17.229	1042.245	782.319
412.482	17.273	1041.179	781.648
413.496	17.387	1040.566	781.646
414.511	17.266	1040.437	780.923
415.526	17.376	1040.139	781.136
416.540	17.354	1039.576	780.542
417.555	17.382	1038.681	779.932
418.569	17.360	1038.371	779.530
419.584	17.460	1038.088	779.706
420.599	17.339	1037.440	778.593
421.613	104.647	1324.964	1475.567
422.628	95.948	1366.823	1475.652
