DTS Sentinel unit serial number:	SN413079Multiplexer serial number:	ORYXHardware model number:	OX4-SRSoftware version number:	ORYX F/W v4.00 Oryx Data Collector v3.7.2.0data status	okinstallation	princeton_trtdifferential loss correction	single-endedforward channel	channel 2reverse channel	N/Adate	2019/09/12time	16:45:10forward acquisition time	60.00reverse acquisition time	0.00gamma	496.2192k internal	0.2324k external	0.2324temperature offset calibration	1.0118default loss term (dB/km)	0.3790temperature slope calibration	1.0000multiplexer offset coefficient	1.0000multiplexer slope coefficient	1.0000fibre end	0.00T internal ref (°C)	36.50T ext. ref 1 (°C)	2.75T ext. ref 2 (°C)	29.66length (m)	temperature (°C)	Stokes	anti-Stokes-747.200	68.422	-0.068	0.070
-746.185	-108.251	0.212	-0.046
-745.171	800.000	-0.073	0.235
-744.156	-200.000	-0.056	0.768
-743.142	800.000	-0.079	-0.326
-742.127	-35.272	-0.134	0.074
-741.112	151.799	0.027	0.037
-740.098	800.000	-0.079	0.241
-739.083	-92.019	0.218	0.062
-738.069	305.027	-0.056	-0.104
-737.054	-85.062	0.198	-0.063
-736.039	81.986	0.047	0.051
-735.025	-200.000	-0.060	-0.324
-734.010	37.438	-0.130	0.116
-732.996	101.834	0.100	-0.118
-731.981	-48.783	-0.282	0.137
-730.966	207.511	-0.072	0.114
-729.952	-59.687	-0.348	-0.150
-728.937	40.211	-0.199	-0.180
-727.923	800.000	-0.112	0.350
-726.908	723.350	-0.068	-0.182
-725.894	800.000	0.052	0.148
-724.879	92.877	0.267	0.304
-723.864	800.000	0.041	0.175
-722.850	-200.000	-0.032	0.288
-721.835	-200.000	0.032	0.276
-720.821	-200.000	0.023	0.161
-719.806	227.426	-0.097	-0.159
-718.791	157.426	0.150	-0.210
-717.777	-200.000	-0.007	-0.130
-716.762	800.000	0.016	0.051
-715.748	-28.411	-0.270	0.157
-714.733	205.759	-0.121	-0.190
-713.718	496.354	0.185	-0.430
-712.704	178.342	0.228	-0.336
-711.689	-38.359	0.201	0.107
-710.675	-26.047	-0.180	-0.107
-709.660	14.119	0.112	0.088
-708.645	-43.962	0.238	-0.121
-707.631	-116.006	0.170	0.032
-706.616	-75.015	-0.209	-0.075
-705.602	-200.000	0.014	-0.165
-704.587	-200.000	0.002	0.028
-703.572	-200.000	-0.039	0.336
-702.558	-96.837	-0.169	-0.045
-701.543	173.614	0.006	-0.008
-700.529	-200.000	-0.052	-0.240
-699.514	-154.758	-0.205	0.014
-698.499	-116.198	-0.128	0.024
-697.485	-58.660	-0.190	-0.083
-696.470	-35.635	-0.151	0.083
-695.456	79.327	-0.169	-0.182
-694.441	-200.000	-0.004	-0.092
-693.426	-200.000	0.029	-0.355
-692.412	511.647	-0.042	-0.098
-691.397	580.983	-0.119	-0.293
-690.383	-87.600	-0.229	-0.070
-689.368	-86.305	-0.097	0.030
-688.354	42.793	0.299	0.275
-687.339	515.393	-0.075	-0.176
-686.324	-108.465	-0.056	0.012
-685.310	90.762	0.183	-0.207
-684.295	-169.001	0.122	-0.005
-683.281	-53.071	0.317	0.147
-682.266	260.949	-0.172	-0.300
-681.251	-103.139	-0.105	-0.025
-680.237	-200.000	-0.014	-0.225
-679.222	-200.000	-0.060	-0.281
-678.208	-180.228	0.280	-0.006
-677.193	-200.000	-0.019	0.192
-676.178	800.000	-0.046	-0.187
-675.164	30.344	-0.191	-0.165
-674.149	-97.091	0.117	0.031
-673.135	-100.092	-0.257	0.064
-672.120	800.000	-0.094	-0.311
-671.105	-138.249	-0.224	0.025
-670.091	57.132	-0.196	-0.193
-669.076	575.504	-0.025	0.062
-668.062	-53.268	0.233	-0.107
-667.047	294.344	0.070	0.128
-666.032	208.292	-0.047	0.074
-665.018	-82.763	0.172	-0.056
-664.003	-200.000	-0.017	0.167
-662.989	-39.982	-0.288	-0.151
-661.974	-75.437	0.142	-0.051
-660.959	-7.085	0.267	0.183
-659.945	64.923	0.167	-0.170
-658.930	-85.730	0.169	-0.053
-657.916	159.030	0.119	0.167
-656.901	-200.000	0.049	0.290
-655.886	-200.000	-0.022	-0.357
-654.872	-34.971	-0.196	-0.108
-653.857	-25.645	0.028	0.016
-652.843	48.121	0.044	0.041
-651.828	-71.972	-0.342	0.128
-650.814	-200.000	0.010	-0.111
-649.799	-35.106	0.199	-0.109
-648.784	-200.000	0.018	0.118
-647.770	683.724	-0.129	-0.337
-646.755	-63.378	-0.213	-0.088
-645.741	-200.000	-0.069	-0.390
-644.726	35.882	-0.226	0.200
-643.711	-200.000	-0.013	0.113
-642.697	-104.988	0.056	-0.013
-641.682	24.865	0.276	0.230
-640.668	178.298	-0.059	0.086
-639.653	-17.457	0.061	-0.039
-638.638	25.901	-0.363	-0.304
-637.624	-200.000	0.016	-0.206
-636.609	-160.668	0.189	0.010
-635.595	-200.000	0.003	0.143
-634.580	-152.361	-0.103	0.007
-633.565	-200.000	-0.005	0.118
-632.551	244.044	-0.245	0.414
-631.536	50.216	0.167	-0.158
-630.522	52.687	-0.171	-0.164
-629.507	89.456	-0.187	-0.209
-628.492	800.000	0.092	-0.272
-627.478	154.799	0.155	0.214
-626.463	612.794	0.129	-0.325
-625.449	135.781	-0.234	0.306
-624.434	-136.897	-0.150	-0.017
-623.419	-200.000	0.018	-0.091
-622.405	800.000	-0.152	0.422
-621.390	-200.000	0.002	0.043
-620.376	800.000	-0.120	0.358
-619.361	25.458	-0.187	-0.156
-618.346	-131.955	-0.127	0.017
-617.332	183.949	0.049	-0.073
-616.317	-173.445	-0.304	0.009
-615.303	-164.388	0.110	0.005
-614.288	6.210	-0.199	-0.148
-613.273	-114.272	0.103	-0.020
-612.259	314.857	-0.068	0.129
-611.244	-178.222	0.063	0.001
-610.230	800.000	0.011	0.042
-609.215	149.926	-0.147	-0.200
-608.201	-200.000	-0.039	0.299
-607.186	-52.012	-0.202	0.094
-606.171	-200.000	0.019	0.247
-605.157	-83.145	-0.053	-0.017
-604.142	-129.210	-0.223	-0.031
-603.128	39.055	0.404	0.363
-602.113	607.854	0.158	-0.397
-601.098	76.451	-0.190	-0.202
-600.084	123.616	0.085	-0.107
-599.069	190.877	0.062	0.093
-598.055	-3.276	0.133	0.093
-597.040	-38.227	-0.148	-0.079
-596.025	-39.044	0.010	-0.005
-595.011	-31.222	-0.123	-0.070
-593.996	-91.558	0.177	0.051
-592.982	-200.000	0.017	-0.160
-591.967	55.838	0.170	-0.166
-590.952	44.485	0.268	0.247
-589.938	-85.154	-0.203	0.064
-588.923	177.015	0.074	0.109
-587.909	800.000	0.056	-0.230
-586.894	36.861	-0.068	0.061
-585.879	800.000	0.018	0.052
-584.865	-132.245	-0.041	0.005
-583.850	800.000	0.029	0.119
-582.836	-160.533	-0.180	-0.010
-581.821	35.217	-0.233	-0.205
-580.806	-77.190	0.126	0.044
-579.792	34.535	0.214	-0.188
-578.777	171.673	0.065	0.093
-577.763	-200.000	-0.022	-0.144
-576.748	-110.153	0.166	-0.035
-575.733	135.482	0.136	-0.177
-574.719	-200.000	-0.018	-0.257
-573.704	-200.000	0.028	-0.183
-572.690	-200.000	-0.086	-0.521
-571.675	-200.000	-0.029	-0.506
-570.661	-30.035	0.114	0.065
-569.646	563.990	0.072	0.175
-568.631	67.996	-0.172	-0.176
-567.617	-200.000	-0.013	0.401
-566.602	34.285	0.078	0.068
-565.588	-200.000	0.028	-0.144
-564.573	3.449	-0.107	0.078
-563.558	80.975	0.255	0.275
-562.544	-200.000	-0.027	0.121
-561.529	132.164	0.133	0.171
-560.515	1.687	-0.492	-0.355
-559.500	189.179	0.126	-0.189
-558.485	88.750	-0.159	-0.177
-557.471	449.435	0.070	-0.155
-556.456	419.627	0.030	-0.064
-555.442	745.286	-0.068	-0.184
-554.427	-95.785	-0.225	-0.060
-553.412	-200.000	0.004	-0.029
-552.398	281.758	-0.062	0.111
-551.383	526.854	0.030	0.071
-550.369	11.782	0.214	-0.165
-549.354	-150.550	0.205	-0.016
-548.339	-81.987	0.260	-0.085
-547.325	-104.811	-0.172	0.040
-546.310	-149.276	-0.076	-0.006
-545.296	-54.783	0.139	0.063
-544.281	-176.698	0.168	0.004
-543.266	-122.869	-0.221	-0.036
-542.252	-200.000	-0.107	0.480
-541.237	529.685	0.115	0.272
-540.223	-200.000	-0.021	0.217
-539.208	-52.226	0.335	0.156
-538.193	211.750	-0.173	0.273
-537.179	-109.637	0.343	-0.072
-536.164	23.777	0.274	0.226
-535.150	10.288	-0.116	-0.088
-534.135	-109.386	-0.211	-0.045
-533.121	131.592	-0.087	0.112
-532.106	100.774	-0.139	0.161
-531.091	190.341	0.160	0.241
-530.077	-83.050	0.068	-0.022
-529.062	-98.588	0.153	0.039
-528.048	-132.563	-0.449	-0.058
-527.033	-200.000	-0.032	-0.160
-526.018	-10.590	0.049	0.032
-525.004	-105.886	0.236	-0.053
-523.989	3.802	0.240	-0.175
-522.975	9.733	-0.132	0.100
-521.960	-95.255	0.125	-0.034
-520.945	68.821	0.028	-0.028
-519.931	-200.000	-0.015	-0.110
-518.916	779.254	-0.046	0.126
-517.902	450.720	0.143	-0.316
-516.887	-200.000	-0.011	0.158
-515.872	-100.379	0.305	-0.076
-514.858	253.568	-0.042	-0.071
-513.843	-179.033	0.185	-0.004
-512.829	800.000	-0.094	0.330
-511.814	-55.014	0.229	0.103
-510.799	-100.744	-0.197	0.049
-509.785	-200.000	-0.018	-0.143
-508.770	-29.416	0.166	0.095
-507.756	195.617	0.176	0.267
-506.741	-91.652	-0.424	0.121
-505.726	205.224	0.132	-0.206
-504.712	-18.478	-0.260	-0.163
-503.697	800.000	-0.113	-0.375
-502.683	208.449	0.172	0.269
-501.668	-65.230	-0.019	0.008
-500.653	-200.000	0.032	-0.183
-499.639	-200.000	-0.026	-0.286
-498.624	-56.572	-0.249	-0.110
-497.610	-19.218	0.065	-0.040
-496.595	800.000	0.079	0.257
-495.581	-24.078	0.259	-0.155
-494.566	-200.000	0.041	-0.350
-493.551	437.995	-0.110	0.240
-492.537	-94.547	-0.176	0.048
-491.522	48.757	-0.093	-0.087
-490.508	800.000	-0.049	0.170
-489.493	-51.362	-0.030	0.014
-488.478	7.449	0.320	0.239
-487.464	1.807	-0.027	-0.019
-486.449	-200.000	0.058	0.400
-485.435	-147.199	0.146	0.012
-484.420	-157.118	0.191	0.012
-483.405	387.186	-0.050	-0.103
-482.391	-106.020	-0.379	-0.085
-481.376	37.768	-0.081	0.071
-480.362	2.401	-0.031	0.022
-479.347	-36.763	-0.124	0.066
-478.332	-200.000	-0.060	0.488
-477.318	85.176	0.036	-0.039
-476.303	59.751	-0.161	0.158
-475.289	-78.814	0.075	-0.026
-474.274	417.448	-0.160	-0.341
-473.259	-89.002	-0.080	-0.024
-472.245	-107.886	0.190	-0.041
-471.230	-200.000	0.040	-0.179
-470.216	61.433	-0.295	-0.293
-469.201	15.953	0.127	0.100
-468.186	757.427	-0.092	0.248
-467.172	-45.043	0.122	0.061
-466.157	408.490	-0.056	0.118
-465.143	-118.047	0.203	0.036
-464.128	213.679	0.147	-0.232
-463.113	-73.549	-0.042	0.015
-462.099	-159.705	-0.339	0.019
-461.084	-200.000	0.028	-0.279
-460.070	800.000	0.095	-0.311
-459.055	87.668	-0.154	0.170
-458.040	-178.615	-0.143	0.003
-457.026	-108.671	0.124	-0.027
-456.011	230.987	0.086	0.141
-454.997	115.127	0.147	0.179
-453.982	800.000	0.058	-0.243
-452.968	-168.891	0.368	0.014
-451.953	-200.000	-0.057	-0.266
-450.938	800.000	-0.085	-0.347
-449.924	583.287	-0.042	-0.102
-448.909	-146.254	-0.208	0.018
-447.895	21.858	0.074	0.060
-446.880	-145.194	-0.252	0.023
-445.865	-139.418	0.022	-0.002
-444.851	181.292	0.131	-0.192
-443.836	59.493	-0.074	0.072
-442.822	-200.000	0.022	-0.244
-441.807	-200.000	0.024	-0.280
-440.792	165.423	0.299	-0.422
-439.778	-26.358	0.142	-0.083
-438.763	-52.042	-0.436	0.202
-437.749	-85.010	-0.294	0.092
-436.734	-174.993	0.415	0.012
-435.719	171.469	-0.117	-0.167
-434.705	54.320	-0.311	-0.299
-433.690	87.155	-0.026	0.029
-432.676	475.478	0.101	0.226
-431.661	-134.200	0.115	0.014
-430.646	-83.670	0.260	-0.083
-429.632	59.463	-0.245	0.241
-428.617	5.290	0.280	0.206
-427.603	800.000	-0.061	0.230
-426.588	183.259	0.173	-0.255
-425.573	32.439	-0.145	-0.125
-424.559	-200.000	0.035	0.173
-423.544	800.000	-0.050	-0.141
-422.530	-200.000	-0.045	0.217
-421.515	-200.000	0.042	0.212
-420.500	-105.752	-0.235	-0.053
-419.486	236.607	0.152	-0.251
-418.471	-93.334	-0.165	0.046
-417.457	359.609	-0.152	0.303
-416.442	192.183	-0.018	0.027
-415.428	-157.903	0.168	-0.010
-414.413	800.000	0.018	0.077
-413.398	245.728	0.189	0.318
-412.384	-200.000	-0.020	-0.110
-411.369	-200.000	-0.002	0.020
-410.355	-88.025	0.346	-0.104
-409.340	-2.488	0.265	0.185
-408.325	-84.669	0.236	0.074
-407.311	800.000	-0.084	-0.286
-406.296	-200.000	-0.020	0.094
-405.282	177.158	-0.131	0.190
-404.267	-2.633	-0.115	0.080
-403.252	-110.863	-0.079	-0.016
-402.238	111.536	-0.104	-0.125
-401.223	295.495	-0.121	0.220
-400.209	214.417	-0.090	0.142
-399.194	37.414	0.164	0.145
-398.179	118.694	0.020	-0.025
-397.165	-31.499	-0.321	0.180
-396.150	24.005	-0.312	-0.256
-395.136	-200.000	-0.061	0.399
-394.121	390.164	-0.109	0.225
-393.106	121.278	0.180	-0.224
-392.092	-141.708	0.273	-0.027
-391.077	-49.923	-0.137	0.065
-390.063	-66.718	0.130	0.051
-389.048	-80.026	-0.408	0.136
-388.033	-200.000	-0.028	-0.274
-387.019	800.000	-0.026	-0.073
-386.004	112.010	-0.082	0.098
-384.990	-65.739	-0.130	0.052
-383.975	-70.909	0.399	0.150
-382.960	487.089	0.062	0.140
-381.946	164.639	-0.101	-0.141
-380.931	-200.000	0.009	0.115
-379.917	-168.365	-0.213	-0.008
-378.902	74.414	-0.317	-0.332
-377.888	-200.000	0.036	-0.258
-376.873	-147.901	0.141	-0.012
-375.858	-64.766	-0.301	-0.121
-374.844	692.648	0.057	-0.148
-373.829	385.910	-0.191	-0.392
-372.815	144.821	0.078	0.104
-371.800	150.539	-0.032	0.043
-370.785	95.496	-0.160	-0.182
-369.771	13.401	-0.205	-0.158
-368.756	-200.000	0.003	0.098
-367.742	14.024	-0.235	-0.182
-366.727	470.802	0.032	-0.071
-365.712	-184.300	0.281	-0.005
-364.698	125.657	0.248	-0.312
-363.683	-200.000	-0.121	-0.001
-362.669	65.780	0.176	0.177
-361.654	-29.886	-0.273	-0.155
-360.639	16.709	0.273	-0.215
-359.625	-121.308	0.347	0.058
-358.610	-200.000	0.017	-0.206
-357.596	-41.607	0.288	-0.147
-356.581	318.231	-0.147	-0.276
-355.566	74.464	-0.213	0.222
-354.552	800.000	0.084	-0.246
-353.537	10.169	-0.086	0.065
-352.523	33.972	-0.089	-0.077
-351.508	-1.400	-0.218	0.153
-350.493	-89.054	-0.035	-0.010
-349.479	188.603	0.075	-0.111
-348.464	-66.358	-0.225	0.089
-347.450	-200.000	0.017	-0.248
-346.435	-134.952	0.275	-0.033
-345.420	800.000	0.045	-0.158
-344.406	-135.007	0.122	-0.015
-343.391	388.233	0.071	-0.146
-342.377	-200.000	0.026	-0.296
-341.362	-11.373	-0.179	0.117
-340.348	-2.516	0.325	-0.226
-339.333	-10.590	-0.191	-0.126
-338.318	-73.176	0.157	0.057
-337.304	44.571	0.256	0.234
-336.289	104.530	0.171	0.200
-335.275	-77.686	0.137	-0.047
-334.260	-135.771	-0.161	0.019
-333.245	-4.150	-0.251	0.172
-332.231	-200.000	-0.025	0.267
-331.216	97.247	0.176	-0.200
-330.202	-38.531	0.251	-0.132
-329.187	-200.000	0.011	0.294
-328.172	800.000	0.071	0.266
-327.158	520.218	0.120	0.279
-326.143	-200.000	0.000	0.026
-325.129	256.899	-0.083	0.141
-324.114	213.354	0.078	0.122
-323.099	-15.169	0.123	-0.078
-322.085	800.000	0.075	-0.210
-321.070	-50.060	0.378	0.178
-320.056	-129.769	0.358	-0.049
-319.041	-25.558	0.213	0.125
-318.026	-108.183	0.210	0.045
-317.012	43.239	-0.157	0.143
-315.997	800.000	0.036	-0.141
-314.983	164.702	0.112	0.157
-313.968	165.721	-0.138	0.194
-312.953	-193.111	-0.269	0.002
-311.939	-200.000	0.015	-0.223
-310.924	120.186	0.161	0.198
-309.910	-200.000	-0.032	-0.239
-308.895	-65.418	-0.091	-0.036
-307.880	-200.000	0.004	-0.087
-306.866	-140.724	-0.208	-0.021
-305.851	27.475	-0.204	0.170
-304.837	6.450	0.488	0.360
-303.822	186.292	0.109	-0.161
-302.807	92.606	-0.242	0.270
-301.793	-200.000	-0.040	0.318
-300.778	10.107	0.252	0.190
-299.764	-184.055	-0.270	0.004
-298.749	-84.399	-0.189	-0.059
-297.735	-67.717	0.105	-0.041
-296.720	-200.000	0.017	-0.128
-295.705	53.092	0.112	-0.106
-294.691	178.877	-0.176	-0.255
-293.676	-200.000	-0.006	-0.098
-292.662	800.000	-0.023	-0.084
-291.647	640.547	-0.113	-0.285
-290.632	-200.000	0.005	0.169
-289.618	-200.000	-0.073	-0.366
-288.603	-200.000	0.010	0.445
-287.589	-93.529	-0.167	-0.046
-286.574	-44.173	-0.214	-0.107
-285.559	96.631	-0.064	0.073
-284.545	151.060	0.137	0.185
-283.530	800.000	-0.047	0.184
-282.516	53.450	-0.302	0.287
-281.501	-125.782	0.170	-0.025
-280.486	-61.244	0.227	0.095
-279.472	800.000	0.016	0.053
-278.457	-152.912	-0.298	0.021
-277.443	56.743	-0.283	-0.273
-276.428	-200.000	-0.039	-0.387
-275.413	800.000	0.058	0.164
-274.399	256.694	0.305	-0.520
-273.384	800.000	-0.034	-0.120
-272.370	-187.401	-0.423	-0.006
-271.355	-113.656	0.484	-0.094
-270.340	-23.321	-0.293	-0.175
-269.326	800.000	-0.089	-0.262
-268.311	16.223	0.356	0.278
-267.297	-26.627	-0.064	-0.037
-266.282	237.479	-0.067	0.111
-265.267	27.505	-0.147	0.123
-264.253	440.270	-0.143	-0.310
-263.238	-200.000	-0.013	0.065
-262.224	-200.000	0.003	-0.019
-261.209	-5.236	0.219	-0.149
-260.195	-13.665	-0.185	-0.119
-259.180	718.085	-0.089	-0.235
-258.165	-11.066	0.195	-0.128
-257.151	-156.048	0.176	0.011
-256.136	-200.000	0.322	-0.001
-255.122	-200.000	0.001	0.044
-254.107	-87.793	-0.244	-0.073
-253.092	-200.000	-0.005	0.171
-252.078	193.314	0.192	-0.287
-251.063	-75.784	0.282	-0.099
-250.049	-163.368	-0.320	-0.015
-249.034	-187.260	-0.218	-0.003
-248.019	-200.000	0.019	0.214
-247.005	257.315	0.103	-0.176
-245.990	20.822	-0.248	-0.199
-244.976	800.000	-0.094	-0.391
-243.961	333.687	0.089	0.170
-242.946	24.127	0.274	-0.224
-241.932	-30.658	0.094	0.053
-240.917	-50.667	0.338	-0.158
-239.903	-200.000	0.023	0.262
-238.888	82.649	0.170	0.183
-237.873	-43.967	-0.279	0.139
-236.859	127.359	-0.036	0.046
-235.844	8.981	-0.358	0.268
-234.830	-66.996	0.150	0.059
-233.815	-200.000	0.005	0.035
-232.800	-35.612	-0.268	0.144
-231.786	23.946	-0.338	0.276
-230.771	217.727	-0.263	0.414
-229.757	-7.482	-0.048	-0.032
-228.742	421.548	0.048	0.103
-227.727	88.897	0.128	0.141
-226.713	76.270	0.118	-0.124
-225.698	-61.804	-0.147	0.061
-224.684	-80.994	-0.409	0.134
-223.669	-19.725	-0.234	0.143
-222.655	-2.583	0.271	-0.188
-221.640	-42.248	-0.193	0.098
-220.625	288.429	-0.209	0.375
-219.611	-182.507	0.122	-0.002
-218.596	-117.305	0.232	0.042
-217.582	-119.226	0.475	-0.082
-216.567	-69.255	0.202	-0.077
-215.552	-200.000	0.029	0.185
-214.538	142.947	0.204	-0.268
-213.523	-128.924	0.249	0.035
-212.509	41.290	-0.174	0.155
-211.494	-94.418	0.058	-0.016
-210.479	413.095	0.019	0.039
-209.465	516.213	0.183	0.423
-208.450	49.116	0.128	0.119
-207.436	-16.869	-0.164	0.103
-206.421	211.606	0.031	0.048
-205.406	-200.000	-0.018	-0.264
-204.392	-85.547	-0.140	-0.043
-203.377	-126.511	-0.274	-0.040
-202.363	71.744	-0.264	0.272
-201.348	406.160	-0.036	-0.075
-200.333	-200.000	-0.014	0.480
-199.319	20.572	-0.138	0.110
-198.304	-47.669	-0.332	0.159
-197.290	191.779	0.144	-0.215
-196.275	-11.600	-0.272	0.177
-195.260	-129.502	0.172	-0.024
-194.246	89.050	-0.040	0.044
-193.231	-200.000	-0.002	-0.107
-192.217	34.973	0.185	-0.160
-191.202	194.907	-0.209	0.313
-190.187	-112.792	0.081	0.016
-189.173	-138.018	0.140	0.015
-188.158	-162.341	-0.194	0.010
-187.144	-120.757	-0.383	-0.064
-186.129	127.430	-0.186	-0.234
-185.114	44.506	0.144	-0.131
-184.100	-13.222	-0.244	-0.156
-183.085	-30.278	0.293	-0.164
-182.071	73.579	-0.187	-0.194
-181.056	-200.000	-0.029	0.127
-180.042	-200.000	0.009	-0.120
-179.027	-145.719	-0.300	0.026
-178.012	-200.000	0.065	0.458
-176.998	-200.000	0.230	0.001
-175.983	-104.746	0.111	-0.025
-174.969	-200.000	0.019	0.181
-173.954	-48.897	0.075	-0.036
-172.939	-61.240	-0.218	0.091
-171.925	-142.716	0.580	-0.056
-170.910	34.269	0.228	-0.197
-169.896	-8.878	0.365	0.242
-168.881	-200.000	-0.024	0.247
-167.866	339.476	0.195	-0.374
-166.852	121.025	-0.087	0.107
-165.837	154.146	-0.148	-0.201
-164.823	15.342	0.250	0.193
-163.808	110.577	-0.064	0.076
-162.793	553.209	0.083	0.198
-161.779	222.094	0.097	0.154
-160.764	-41.112	-0.195	0.099
-159.750	733.860	-0.056	-0.147
-158.735	-200.000	0.036	-0.250
-157.720	800.000	0.033	0.091
-156.706	800.000	0.065	0.217
-155.691	-122.711	0.282	0.045
-154.677	-66.159	0.276	0.108
-153.662	73.388	0.069	-0.071
-152.647	-34.307	-0.174	0.094
-151.633	-94.587	0.108	-0.029
-150.618	-20.573	-0.256	-0.155
-149.604	74.637	0.089	0.092
-148.589	154.586	-0.113	0.153
-147.574	128.246	0.148	0.186
-146.560	121.212	-0.031	-0.038
-145.545	-200.000	-0.010	0.089
-144.531	334.370	0.065	-0.125
-143.516	-139.951	-0.202	0.021
-142.502	-127.164	0.217	-0.031
-141.487	55.917	-0.060	-0.057
-140.472	-200.000	0.006	0.038
-139.458	-20.325	0.193	-0.117
-138.443	88.199	-0.189	-0.207
-137.429	-92.144	0.165	0.046
-136.414	-31.531	0.128	-0.071
-135.399	183.647	0.189	0.275
-134.385	274.284	0.092	-0.160
-133.370	-200.000	0.007	-0.428
-132.356	-28.123	-0.108	0.062
-131.341	-69.176	-0.215	-0.081
-130.326	-121.477	0.318	-0.052
-129.312	-200.000	0.004	-0.275
-128.297	-200.000	0.012	0.087
-127.283	-80.718	-0.121	-0.040
-126.268	329.843	0.024	-0.046
-125.253	63.915	0.103	0.102
-124.239	800.000	0.040	-0.167
-123.224	131.069	-0.068	-0.086
-122.210	270.586	0.104	0.180
-121.195	92.261	-0.029	0.033
-120.180	-84.855	-0.405	0.125
-119.166	-143.027	0.307	0.029
-118.151	-200.000	0.003	0.137
-117.137	713.744	-0.016	0.042
-116.122	-15.170	-0.125	-0.079
-115.107	800.000	0.094	0.400
-114.093	-200.000	-0.002	-0.108
-113.078	800.000	0.029	0.086
-112.064	-72.453	-0.239	-0.087
-111.049	61.408	0.121	-0.118
-110.034	-118.056	-0.220	-0.039
-109.020	-28.080	-0.230	0.131
-108.005	-21.755	0.207	0.124
-106.991	800.000	0.039	-0.169
-105.976	128.837	-0.078	-0.098
-104.962	280.733	0.109	-0.192
-103.947	-98.569	-0.201	-0.050
-102.932	-200.000	-0.031	0.167
-101.918	737.406	-0.127	0.336
-100.903	30.047	0.194	-0.163
-99.889	-174.466	-0.084	0.002
-98.874	-12.474	-0.206	0.132
-97.859	192.441	0.109	0.161
-96.845	800.000	-0.064	0.272
-95.830	800.000	-0.051	0.173
-94.816	-200.000	-0.006	-0.102
-93.801	135.088	-0.239	0.306
-92.786	244.695	0.172	0.285
-91.772	-200.000	0.014	0.184
-90.757	-57.195	0.379	0.164
-89.743	176.587	-0.256	0.367
-88.728	72.380	0.003	0.003
-87.713	-72.454	-0.419	0.152
-86.699	-52.072	0.196	-0.090
-85.684	108.471	-0.061	0.072
-84.670	-64.986	-0.031	0.012
-83.655	800.000	-0.161	-0.470
-82.640	-137.234	-0.077	-0.009
-81.626	800.000	-0.028	0.076
-80.611	-97.189	0.183	0.047
-79.597	349.153	0.053	-0.103
-78.582	-112.505	0.159	0.031
-77.567	-14.701	0.400	-0.253
-76.553	305.221	-0.144	0.263
-75.538	134.726	0.249	0.318
-74.524	-88.808	-0.152	-0.044
-73.509	135.068	-0.096	0.122
-72.494	478.922	-0.082	-0.183
-71.480	22.863	0.258	0.208
-70.465	-81.011	0.175	-0.057
-69.451	-200.000	-0.016	0.297
-68.436	-145.708	-0.249	0.022
-67.422	-39.858	-0.126	-0.065
-66.407	-52.792	-0.155	0.070
-65.392	391.599	-0.031	-0.064
-64.378	153.742	-0.036	-0.049
-63.363	800.000	0.014	0.048
-62.349	47.664	0.166	-0.153
-61.334	114.945	-0.926	-1.110
-60.319	-46.474	0.310	0.149
-59.305	-200.000	-0.062	-0.969
-58.290	401.506	0.366	0.755
-57.276	490.267	0.847	1.904
-56.261	-200.000	93.085	555.993
-55.246	550.935	1370.638	3232.218
-54.232	154.360	2580.822	3481.239
-53.217	112.084	2294.215	2724.411
-52.203	46.505	1914.072	1745.071
-51.188	39.871	1704.743	1503.856
-50.173	36.992	1659.742	1442.719
-49.159	54.607	1707.068	1617.029
-48.144	57.807	1725.197	1658.238
-47.130	39.597	1682.091	1481.585
-46.115	36.646	1666.829	1446.062
-45.100	36.384	1662.469	1440.269
-44.086	36.319	1659.706	1437.329
-43.071	36.356	1656.844	1435.074
-42.057	36.345	1654.751	1433.120
-41.042	36.399	1652.567	1431.570
-40.027	36.431	1650.875	1430.282
-39.013	36.330	1649.335	1428.144
-37.998	36.247	1647.235	1425.660
-36.984	36.397	1645.961	1425.604
-35.969	36.484	1644.470	1424.903
-34.954	36.524	1642.728	1423.632
-33.940	36.541	1640.969	1422.177
-32.925	36.446	1639.021	1419.730
-31.911	36.539	1637.221	1418.796
-30.896	36.584	1635.398	1417.494
-29.881	36.522	1633.501	1415.334
-28.867	36.551	1632.231	1414.393
-27.852	36.534	1631.013	1413.158
-26.838	36.447	1630.080	1411.656
-25.823	36.502	1628.249	1410.421
-24.809	36.468	1627.029	1409.058
-23.794	36.609	1625.418	1408.634
-22.779	36.669	1623.136	1407.038
-21.765	36.496	1622.031	1404.764
-20.750	36.438	1620.383	1402.858
-19.736	36.564	1618.942	1402.469
-18.721	36.634	1617.198	1401.409
-17.706	36.516	1616.069	1399.524
-16.692	36.563	1614.528	1398.477
-15.677	36.501	1613.406	1396.995
-14.663	36.520	1612.169	1396.007
-13.648	36.497	1610.582	1394.410
-12.633	36.472	1609.530	1393.264
-11.619	36.538	1607.443	1391.882
-10.604	36.552	1605.700	1390.415
-9.590	36.509	1604.835	1389.300
-8.575	36.548	1603.539	1388.405
-7.560	36.476	1602.129	1386.613
-6.546	36.539	1600.926	1385.970
-5.531	36.504	1600.361	1385.176
-4.517	36.488	1599.268	1384.059
-3.502	36.497	1598.166	1383.114
-2.487	36.693	1596.047	1382.625
-1.473	36.054	1584.393	1367.938
-0.458	32.576	1563.036	1325.032
0.556	29.014	1561.264	1285.192
1.571	26.015	1584.312	1282.754
2.586	25.046	1597.037	1285.997
3.600	21.994	1543.292	1221.409
4.615	12.670	1430.882	1071.908
5.629	4.266	1363.311	968.881
6.644	2.845	1354.483	953.700
7.659	2.771	1352.818	951.984
8.673	2.672	1352.350	950.951
9.688	2.702	1349.930	949.351
10.702	2.419	1347.767	946.002
11.717	5.897	1354.587	972.280
12.731	15.908	1373.109	1048.092
13.746	24.560	1388.599	1114.031
14.761	27.267	1391.961	1133.532
15.775	27.744	1391.703	1136.189
16.790	27.697	1391.796	1135.871
17.804	27.776	1390.954	1135.578
18.819	27.983	1390.379	1136.295
19.834	28.124	1389.752	1136.557
20.848	28.087	1389.284	1135.844
21.863	28.209	1388.248	1135.657
22.877	28.090	1387.570	1134.262
23.892	28.103	1386.671	1133.504
24.907	28.146	1385.885	1133.030
25.921	28.256	1384.768	1132.698
26.936	28.116	1384.078	1131.170
27.950	28.051	1382.712	1129.548
28.965	28.097	1381.763	1128.954
29.980	28.255	1380.135	1128.500
30.994	28.160	1379.387	1127.205
32.009	28.258	1378.122	1126.676
33.023	28.202	1377.031	1125.340
34.038	28.127	1376.526	1124.367
35.053	28.197	1375.311	1123.701
36.067	28.156	1374.258	1122.491
37.082	28.101	1373.783	1121.669
38.096	28.219	1372.407	1121.167
39.111	28.127	1371.699	1119.926
40.126	28.106	1371.285	1119.363
41.140	28.135	1370.410	1118.725
42.155	28.200	1369.913	1118.615
43.169	28.138	1370.189	1118.364
44.184	28.152	1369.913	1118.126
45.199	28.146	1369.584	1117.722
46.213	28.164	1368.564	1116.903
47.228	28.204	1367.639	1116.289
48.242	28.119	1367.193	1115.309
49.257	28.150	1365.192	1113.766
50.271	28.146	1364.093	1112.747
51.286	28.183	1362.578	1111.637
52.301	28.107	1361.844	1110.480
53.315	28.082	1360.888	1109.452
54.330	28.249	1359.308	1109.075
55.344	28.216	1358.359	1108.003
56.359	28.095	1358.018	1106.896
57.374	28.147	1356.800	1106.121
58.388	28.104	1356.565	1105.572
59.403	28.074	1356.555	1105.285
60.417	28.119	1355.515	1104.607
61.432	28.195	1354.479	1104.125
62.447	28.100	1353.966	1103.036
63.461	28.186	1352.724	1102.444
64.476	28.182	1351.555	1101.369
65.490	28.113	1350.415	1099.931
66.505	28.149	1348.921	1098.830
67.520	28.183	1347.544	1097.815
68.534	28.236	1346.593	1097.261
69.549	28.087	1345.987	1095.781
70.563	28.036	1345.190	1094.729
71.578	28.203	1343.811	1094.510
72.593	28.098	1343.816	1093.789
73.607	28.188	1342.688	1093.307
74.622	28.198	1341.633	1092.414
75.636	28.105	1341.369	1091.544
76.651	28.230	1340.434	1091.435
77.666	28.154	1340.143	1090.650
78.680	28.190	1339.432	1090.186
79.695	28.138	1339.075	1089.491
80.709	28.167	1338.054	1088.733
81.724	28.158	1336.953	1087.694
82.739	28.189	1336.369	1087.302
83.753	28.127	1335.353	1086.011
84.768	28.129	1334.018	1084.840
85.782	28.226	1333.355	1084.785
86.797	28.269	1332.070	1083.898
87.812	28.234	1330.830	1082.585
88.826	28.206	1330.024	1081.664
89.841	28.218	1329.057	1080.853
90.855	28.201	1328.463	1080.176
91.870	28.250	1327.220	1079.360
92.884	28.250	1326.307	1078.523
93.899	28.222	1325.470	1077.582
94.914	28.285	1325.066	1077.528
95.928	28.276	1324.274	1076.733
96.943	28.191	1323.540	1075.545
97.957	28.280	1322.423	1075.063
98.972	28.256	1321.985	1074.470
99.987	28.272	1320.993	1073.661
101.001	28.139	1320.611	1072.475
102.016	28.201	1319.195	1071.598
103.030	28.235	1318.635	1071.247
104.045	28.220	1317.475	1070.120
105.060	28.196	1316.713	1069.266
106.074	28.208	1315.681	1068.404
107.089	28.181	1314.781	1067.423
108.103	28.248	1313.455	1066.639
109.118	28.255	1312.378	1065.712
110.133	28.252	1311.203	1064.648
111.147	28.360	1310.230	1064.391
112.162	28.363	1308.783	1063.136
113.176	28.316	1308.231	1062.324
114.191	28.234	1307.564	1061.210
115.206	28.190	1306.478	1059.982
116.220	28.305	1305.220	1059.531
117.235	28.299	1304.067	1058.467
118.249	28.307	1303.361	1057.849
119.264	28.242	1302.766	1056.894
120.279	28.311	1302.127	1056.681
121.293	28.388	1301.129	1056.221
122.308	28.379	1300.617	1055.664
123.322	28.480	1299.216	1055.010
124.337	28.338	1299.386	1054.241
125.352	28.438	1297.985	1053.583
126.366	28.299	1297.240	1052.089
127.381	28.470	1296.422	1052.311
128.395	28.362	1295.624	1050.955
129.410	28.379	1294.647	1050.167
130.424	28.492	1293.783	1050.017
131.439	28.456	1292.889	1048.994
132.454	28.329	1292.663	1047.994
133.468	28.256	1291.849	1046.824
134.483	28.399	1291.360	1047.152
135.497	28.316	1290.629	1045.993
136.512	28.318	1289.643	1045.110
137.527	28.437	1287.914	1044.297
138.541	28.288	1287.258	1042.819
139.556	28.296	1286.178	1041.901
140.570	28.376	1284.736	1041.095
141.585	28.282	1284.380	1040.180
142.600	28.331	1283.181	1039.394
143.614	28.357	1282.172	1038.631
144.629	28.348	1281.245	1037.740
145.643	28.251	1280.404	1036.419
146.658	28.300	1279.029	1035.490
147.673	28.275	1278.599	1034.907
148.687	28.267	1277.275	1033.702
149.702	28.247	1276.162	1032.596
150.716	28.278	1275.100	1031.821
151.731	28.366	1274.134	1031.440
152.746	28.282	1273.129	1030.066
153.760	28.392	1272.016	1029.689
154.775	28.450	1270.980	1029.089
155.789	28.306	1270.234	1027.584
156.804	28.251	1269.622	1026.691
157.819	28.268	1269.030	1026.215
158.833	28.316	1267.904	1025.485
159.848	28.392	1267.380	1025.395
160.862	28.375	1266.577	1024.559
161.877	28.301	1265.859	1023.475
162.892	28.369	1264.938	1023.018
163.906	28.378	1264.219	1022.398
164.921	28.459	1263.548	1022.216
165.935	28.439	1262.385	1021.069
166.950	28.448	1261.842	1020.594
167.964	28.404	1261.510	1019.988
168.979	28.449	1260.710	1019.500
169.994	28.514	1260.265	1019.412
171.008	28.494	1259.286	1018.419
172.023	28.616	1258.194	1018.123
173.037	28.494	1258.068	1017.254
174.052	28.532	1257.276	1016.732
175.067	28.509	1256.503	1015.889
176.081	28.428	1256.044	1014.981
177.096	28.515	1255.007	1014.537
178.110	28.512	1253.990	1013.605
179.125	28.484	1253.085	1012.629
180.140	28.458	1252.184	1011.668
181.154	28.535	1251.048	1011.089
182.169	28.460	1250.011	1009.747
183.183	28.471	1249.054	1008.943
184.198	28.439	1248.268	1008.043
185.213	28.449	1247.227	1007.172
186.227	28.497	1246.180	1006.502
187.242	28.550	1245.347	1006.027
188.256	28.606	1244.186	1005.307
189.271	28.574	1243.271	1004.303
190.286	28.529	1243.126	1003.851
191.300	28.539	1242.713	1003.482
192.315	28.526	1241.957	1002.712
193.329	28.612	1241.539	1002.759
194.344	28.488	1241.371	1001.853
195.359	28.492	1241.117	1001.584
196.373	28.470	1240.304	1000.718
197.388	28.517	1239.773	1000.461
198.402	28.507	1239.373	999.993
199.417	28.577	1238.990	999.974
200.432	28.635	1238.442	999.762
201.446	28.584	1237.938	998.990
202.461	28.628	1237.119	998.480
203.475	28.522	1236.227	997.094
204.490	28.532	1235.288	996.300
205.504	28.684	1234.130	996.106
206.519	28.629	1233.407	995.133
207.534	28.556	1232.654	994.046
208.548	28.711	1231.336	993.731
209.563	28.655	1230.661	992.797
210.577	28.610	1230.458	992.300
211.592	28.592	1229.260	991.152
212.607	28.702	1228.158	990.769
213.621	28.707	1227.208	989.942
214.636	28.713	1226.836	989.584
215.650	28.702	1226.002	988.766
216.665	28.682	1224.801	987.605
217.680	28.697	1224.285	987.177
218.694	28.712	1223.119	986.234
219.709	28.738	1222.617	985.883
220.723	28.684	1222.003	985.008
221.738	28.567	1221.556	983.931
222.753	28.524	1220.783	982.996
223.767	28.650	1220.044	982.984
224.782	28.735	1219.475	982.894
225.796	28.777	1219.171	982.789
226.811	28.740	1218.843	982.240
227.826	28.752	1217.612	981.222
228.840	28.810	1216.905	980.877
229.855	28.709	1216.551	979.964
230.869	28.733	1216.015	979.573
231.884	28.798	1214.990	979.010
232.899	28.797	1214.493	978.518
233.913	28.688	1214.121	977.549
234.928	28.877	1213.131	977.671
235.942	28.965	1212.295	977.382
236.957	28.842	1211.879	976.304
237.972	28.773	1211.475	975.528
238.986	28.899	1210.410	975.253
240.001	28.924	1209.995	974.961
241.015	28.968	1209.086	974.378
242.030	28.930	1208.438	973.568
243.045	29.012	1207.685	973.306
244.059	28.931	1207.031	972.268
245.074	28.887	1206.195	971.276
246.088	29.023	1205.302	971.188
247.103	28.949	1204.794	970.302
248.117	28.917	1203.922	969.347
249.132	28.960	1203.173	968.885
250.147	29.046	1202.577	968.769
251.161	29.088	1201.689	968.192
252.176	29.002	1201.298	967.338
253.190	29.042	1200.605	966.901
254.205	29.103	1199.825	966.512
255.220	28.879	1199.597	965.066
256.234	29.128	1198.718	965.580
257.249	29.105	1198.001	964.795
258.263	29.111	1197.712	964.509
259.278	29.023	1197.306	963.634
260.293	29.106	1196.369	963.230
261.307	29.139	1195.859	962.909
262.322	29.153	1195.244	962.400
263.336	29.073	1194.525	961.315
264.351	29.102	1194.115	961.052
265.366	29.138	1193.615	960.751
266.380	29.122	1192.641	959.800
267.395	29.098	1192.158	959.204
268.409	29.010	1191.871	958.430
269.424	29.026	1190.993	957.723
270.439	29.077	1190.624	957.607
271.453	29.094	1190.245	957.306
272.468	29.131	1188.505	956.012
273.482	29.114	1188.163	955.564
274.497	29.182	1188.022	955.718
275.512	29.171	1187.210	954.923
276.526	29.128	1186.567	954.099
277.541	29.296	1185.735	954.218
278.555	29.178	1185.630	953.438
279.570	29.173	1184.713	952.588
280.585	29.227	1183.865	952.101
281.599	29.199	1182.849	951.054
282.614	29.161	1181.875	949.994
283.628	29.238	1181.439	949.956
284.643	29.281	1180.057	948.979
285.657	29.269	1179.356	948.272
286.672	29.250	1178.677	947.544
287.687	29.241	1177.791	946.700
288.701	29.321	1177.650	946.917
289.716	29.297	1176.725	945.966
290.730	29.331	1176.156	945.597
291.745	29.350	1175.537	945.116
292.760	29.486	1174.552	944.937
293.774	29.324	1174.681	944.126
294.789	29.403	1173.772	943.715
295.803	29.333	1173.455	943.020
296.818	29.392	1172.325	942.330
297.833	29.438	1172.279	942.443
298.847	29.477	1171.219	941.707
299.862	29.521	1170.296	941.106
300.876	29.489	1169.642	940.336
301.891	29.512	1169.161	939.980
302.906	29.434	1168.689	939.123
303.920	29.560	1168.136	939.232
304.935	29.502	1167.192	938.101
305.949	29.520	1166.365	937.441
306.964	29.546	1166.176	937.340
307.979	29.475	1165.523	936.368
308.993	29.529	1164.889	936.053
310.008	29.556	1164.292	935.624
311.022	29.540	1163.161	934.555
312.037	29.598	1162.180	933.979
313.052	29.535	1161.702	933.191
314.066	29.586	1160.874	932.701
315.081	29.517	1160.032	931.595
316.095	29.529	1159.665	931.275
317.110	29.682	1158.763	931.242
318.125	29.589	1158.485	930.467
319.139	29.616	1157.631	929.836
320.154	29.571	1157.230	929.204
321.168	29.530	1156.746	928.527
322.183	29.614	1156.161	928.399
323.197	29.636	1155.636	928.003
324.212	29.576	1154.913	927.041
325.227	29.610	1154.953	927.160
326.241	29.656	1154.223	926.725
327.256	29.751	1153.187	926.287
328.270	29.773	1152.334	925.630
329.285	29.609	1151.717	924.233
330.300	29.797	1150.727	924.295
331.314	29.720	1150.015	923.256
332.329	29.703	1149.338	922.547
333.343	29.839	1148.700	922.630
334.358	29.787	1147.811	921.576
335.373	29.840	1146.925	921.046
336.387	29.793	1146.716	920.565
337.402	29.849	1145.770	920.001
338.416	29.794	1145.552	919.471
339.431	29.940	1144.709	919.439
340.446	29.903	1143.918	918.538
341.460	29.857	1143.395	917.806
342.475	29.881	1142.418	917.060
343.489	29.890	1141.359	916.177
344.504	29.843	1140.798	915.410
345.519	29.949	1139.928	915.155
346.533	29.964	1139.076	914.467
347.548	29.878	1138.461	913.467
348.562	29.953	1138.122	913.481
349.577	29.960	1136.803	912.378
350.592	29.852	1136.148	911.240
351.606	29.865	1135.937	911.054
352.621	29.850	1135.313	910.397
353.635	29.973	1134.288	910.103
354.650	30.047	1133.746	909.948
355.665	29.981	1133.494	909.345
356.679	29.977	1132.980	908.831
357.694	30.034	1131.954	908.205
358.708	30.114	1131.300	907.994
359.723	30.094	1130.788	907.403
360.738	30.014	1130.210	906.467
361.752	29.996	1129.836	906.001
362.767	30.076	1128.980	905.625
363.781	30.082	1128.315	905.041
364.796	30.158	1128.036	905.105
365.810	30.212	1127.168	904.595
366.825	30.246	1126.360	904.030
367.840	30.178	1126.506	903.736
368.854	30.168	1125.762	903.014
369.869	30.179	1125.014	902.385
370.883	30.284	1124.408	902.328
371.898	30.266	1123.714	901.604
372.913	30.240	1122.868	900.723
373.927	30.388	1122.524	901.085
374.942	30.217	1122.298	899.994
375.956	30.238	1121.671	899.510
376.971	30.196	1121.065	898.744
377.986	30.367	1120.406	898.964
379.000	30.439	1119.529	898.527
380.015	30.382	1119.389	898.058
381.029	30.308	1118.723	897.088
382.044	30.433	1117.944	896.988
383.059	30.526	1117.229	896.783
384.073	30.356	1117.024	895.720
385.088	30.429	1115.923	895.111
386.102	30.422	1114.729	894.040
387.117	30.372	1114.204	893.298
388.132	30.271	1113.550	892.209
389.146	30.324	1112.888	891.853
390.161	30.439	1112.103	891.697
391.175	30.308	1111.582	890.572
392.190	30.405	1110.866	890.385
393.205	30.412	1109.938	889.598
394.219	30.545	1109.091	889.478
395.234	30.500	1108.590	888.780
396.248	30.552	1107.718	888.250
397.263	30.631	1106.592	887.647
398.278	30.543	1106.674	887.214
399.292	30.500	1106.480	886.775
400.307	30.548	1105.473	886.119
401.321	30.511	1104.987	885.474
402.336	30.382	1104.467	884.362
403.350	30.432	1103.699	883.910
404.365	30.604	1102.711	883.859
405.380	30.652	1101.865	883.328
406.394	30.693	1101.196	882.911
407.409	30.660	1100.732	882.303
408.423	30.765	1099.754	881.936
409.438	30.656	1099.224	880.918
410.453	30.598	1098.756	880.189
411.467	30.706	1097.992	880.013
412.482	30.706	1097.223	879.320
413.496	30.815	1096.686	879.322
414.511	30.637	1096.310	878.103
415.526	30.753	1095.678	878.066
416.540	30.717	1095.330	877.542
417.555	30.747	1094.659	877.070
418.569	30.836	1094.395	877.200
419.584	30.903	1093.779	876.943
420.599	30.862	1093.495	876.445
421.613	101.095	1316.452	1433.195
422.628	94.389	1348.906	1433.296
