DTS Sentinel unit serial number:	SN413079Multiplexer serial number:	ORYXHardware model number:	OX4-SRSoftware version number:	ORYX F/W v4.00 Oryx Data Collector v3.7.2.0data status	okinstallation	princeton_trtdifferential loss correction	single-endedforward channel	channel 2reverse channel	N/Adate	2019/09/18time	19:11:34forward acquisition time	60.00reverse acquisition time	0.00gamma	496.2192k internal	0.2322k external	0.2322temperature offset calibration	1.0039default loss term (dB/km)	0.3790temperature slope calibration	1.0000multiplexer offset coefficient	1.0000multiplexer slope coefficient	1.0000fibre end	0.00T internal ref (°C)	34.83T ext. ref 1 (°C)	1.13T ext. ref 2 (°C)	24.15length (m)	temperature (°C)	Stokes	anti-Stokes-747.200	800.000	0.066	0.186
-746.185	0.352	-0.146	0.105
-745.171	115.910	-0.152	0.187
-744.156	-0.297	-0.188	0.135
-743.142	300.159	-0.081	-0.150
-742.127	800.000	-0.011	-0.032
-741.112	189.005	0.245	0.370
-740.098	-200.000	0.007	-0.215
-739.083	-157.480	-0.179	-0.011
-738.069	29.373	0.182	0.156
-737.054	-7.478	-0.177	-0.121
-736.039	-29.555	-0.428	0.247
-735.025	542.075	0.044	-0.107
-734.010	-32.637	0.028	-0.016
-732.996	-200.000	0.010	-0.053
-731.981	188.228	-0.170	0.256
-730.966	800.000	-0.051	-0.212
-729.952	58.597	-0.121	-0.120
-728.937	220.910	-0.137	-0.223
-727.923	302.049	0.114	-0.212
-726.908	17.841	0.251	-0.202
-725.894	576.843	0.068	-0.167
-724.879	486.445	-0.086	0.198
-723.864	-104.806	-0.232	-0.054
-722.850	194.256	0.074	-0.113
-721.835	-44.673	-0.403	-0.203
-720.821	-55.749	-0.147	0.066
-719.806	-110.014	-0.161	-0.034
-718.791	-139.350	-0.220	0.024
-717.777	25.199	-0.159	-0.133
-716.762	-91.121	-0.128	-0.037
-715.748	-99.263	0.229	-0.058
-714.733	-200.000	0.016	0.222
-713.718	630.176	-0.164	-0.417
-712.704	611.995	-0.089	0.225
-711.689	-81.734	-0.115	0.038
-710.675	425.342	0.125	0.273
-709.660	-200.000	0.006	0.076
-708.645	-19.568	0.254	0.159
-707.631	115.058	-0.086	0.106
-706.616	-200.000	0.011	-0.158
-705.602	-157.852	0.109	-0.007
-704.587	70.002	0.082	-0.085
-703.572	-200.000	0.005	0.054
-702.558	-61.608	-0.225	-0.095
-701.543	-44.282	0.052	-0.026
-700.529	251.803	-0.057	-0.098
-699.514	18.218	-0.065	0.052
-698.499	-4.564	-0.218	-0.152
-697.485	-75.542	0.203	-0.073
-696.470	306.152	0.013	-0.025
-695.456	-10.539	-0.172	-0.115
-694.441	38.369	-0.017	-0.015
-693.426	-71.204	-0.161	-0.061
-692.412	-78.596	-0.217	-0.075
-691.397	800.000	0.067	-0.296
-690.383	-43.273	0.141	0.072
-689.368	193.966	0.128	-0.195
-688.354	-13.034	0.060	0.039
-687.339	239.910	0.066	0.112
-686.324	-115.253	-0.285	-0.054
-685.310	-114.925	0.294	-0.056
-684.295	35.738	0.082	-0.073
-683.281	-114.558	-0.284	-0.055
-682.266	364.555	-0.033	-0.067
-681.251	-109.707	0.477	0.101
-680.237	-105.957	-0.229	0.052
-679.222	564.675	0.082	-0.199
-678.208	800.000	0.063	0.267
-677.193	-200.000	-0.052	0.248
-676.178	-76.545	0.090	0.032
-675.164	170.748	-0.090	0.130
-674.149	-186.893	0.158	0.002
-673.135	575.797	0.076	0.187
-672.120	-200.000	0.045	-0.207
-671.105	-200.000	-0.023	0.183
-670.091	-70.241	-0.144	-0.055
-669.076	-43.549	0.310	-0.158
-668.062	127.332	-0.261	-0.334
-667.047	800.000	-0.027	0.109
-666.032	-200.000	0.021	0.135
-665.018	245.701	-0.072	0.122
-664.003	400.334	-0.120	-0.252
-662.989	532.530	-0.092	-0.220
-661.974	51.791	0.161	-0.154
-660.959	800.000	0.048	-0.197
-659.945	305.424	0.012	-0.022
-658.930	49.224	0.119	-0.113
-657.916	-200.000	0.009	0.075
-656.901	129.909	-0.077	-0.099
-655.886	-67.662	-0.162	-0.064
-654.872	183.336	0.118	-0.176
-653.857	54.231	-0.112	0.109
-652.843	800.000	-0.034	-0.115
-651.828	-147.012	0.163	0.014
-650.814	-200.000	-0.010	-0.076
-649.799	-200.000	-0.015	0.576
-648.784	800.000	0.044	0.169
-647.770	-90.043	-0.100	0.029
-646.755	800.000	-0.068	-0.298
-645.741	69.662	-0.127	-0.132
-644.726	191.588	-0.182	-0.276
-643.711	-8.926	0.095	-0.064
-642.697	-0.707	-0.218	0.156
-641.682	546.207	0.099	0.239
-640.668	-200.000	-0.188	0.001
-639.653	220.403	-0.075	-0.122
-638.638	800.000	0.075	-0.242
-637.624	86.444	0.261	-0.289
-636.609	-129.779	0.344	-0.048
-635.595	84.073	-0.260	0.286
-634.580	205.008	-0.278	-0.434
-633.565	800.000	-0.087	-0.269
-632.551	151.651	-0.133	-0.182
-631.536	-200.000	-0.110	-0.621
-630.522	800.000	-0.078	-0.280
-629.507	800.000	-0.069	-0.278
-628.492	297.198	0.141	-0.260
-627.478	580.033	-0.092	-0.227
-626.463	221.954	0.188	0.303
-625.449	-28.115	-0.259	-0.151
-624.434	74.157	0.083	0.088
-623.419	-70.198	-0.030	-0.012
-622.405	32.875	-0.043	0.038
-621.390	-70.710	-0.233	0.088
-620.376	422.838	-0.070	0.151
-619.361	-200.000	0.176	-0.000
-618.346	-200.000	0.022	-0.332
-617.332	-200.000	0.263	-0.001
-616.317	143.485	-0.139	-0.186
-615.303	-16.778	0.135	-0.086
-614.288	23.998	0.262	0.217
-613.273	-105.269	0.263	0.060
-612.259	-111.703	-0.261	0.053
-611.244	101.447	-0.085	0.099
-610.230	56.580	0.087	-0.085
-609.215	-200.000	0.047	-0.334
-608.201	82.629	-0.086	-0.094
-607.186	-176.215	0.367	-0.010
-606.171	81.326	0.064	0.070
-605.157	15.577	-0.352	-0.278
-604.142	800.000	-0.022	0.083
-603.128	800.000	-0.031	0.134
-602.113	-200.000	0.040	-0.183
-601.098	647.612	-0.043	-0.110
-600.084	-18.799	0.220	-0.137
-599.069	172.697	-0.194	-0.281
-598.055	88.464	0.158	0.176
-597.040	-101.711	0.137	0.033
-596.025	-124.702	0.216	-0.034
-595.011	-88.132	-0.287	0.086
-593.996	-56.760	0.249	-0.111
-592.982	-24.454	-0.245	0.147
-591.967	800.000	0.052	0.145
-590.952	153.177	-0.197	-0.271
-589.938	-12.484	-0.138	0.091
-588.923	-33.785	-0.284	-0.157
-587.909	88.444	0.115	0.128
-586.894	-200.000	0.021	0.175
-585.879	-58.499	0.173	0.076
-584.865	-200.000	-0.013	-0.094
-583.850	24.820	0.230	-0.192
-582.836	800.000	0.023	0.093
-581.821	800.000	0.074	-0.296
-580.806	-200.000	-0.007	0.296
-579.792	193.864	-0.070	-0.106
-578.777	-41.211	0.384	-0.199
-577.763	518.232	-0.091	0.214
-576.748	58.014	-0.080	-0.079
-575.733	-47.261	0.193	-0.094
-574.719	201.583	-0.234	-0.361
-573.704	-200.000	0.015	-0.127
-572.690	-15.959	0.048	0.031
-571.675	-200.000	0.047	0.400
-570.661	800.000	0.070	0.238
-569.646	2.241	0.150	0.108
-568.631	-200.000	-0.030	0.215
-567.617	-200.000	0.018	0.258
-566.602	73.704	0.143	0.150
-565.588	-121.827	0.055	-0.009
-564.573	589.421	-0.106	-0.261
-563.558	-191.833	0.210	-0.002
-562.544	800.000	0.079	0.236
-561.529	221.633	-0.116	0.187
-560.515	217.960	-0.118	0.188
-559.500	-110.834	0.279	0.058
-558.485	-86.623	-0.036	-0.011
-557.471	23.733	-0.117	0.096
-556.456	-82.720	-0.177	0.058
-555.442	800.000	-0.058	0.225
-554.427	-96.533	-0.122	-0.032
-553.412	-200.000	-0.063	-0.416
-552.398	286.992	-0.183	0.332
-551.383	553.472	0.073	-0.175
-550.369	-88.857	-0.147	0.044
-549.354	8.767	-0.175	-0.132
-548.339	800.000	-0.081	0.294
-547.325	-200.000	0.044	0.213
-546.310	23.914	-0.186	-0.154
-545.296	406.886	-0.095	0.201
-544.281	-131.279	-0.284	0.038
-543.266	323.058	0.116	-0.222
-542.252	-200.000	0.026	-0.133
-541.237	180.662	0.075	-0.111
-540.223	-120.523	-0.337	-0.057
-539.208	-200.000	-0.002	0.081
-538.193	-17.173	0.103	0.065
-537.179	800.000	0.047	0.201
-536.164	249.427	0.094	-0.159
-535.150	172.677	0.022	0.031
-534.135	-51.202	0.108	0.051
-533.121	20.682	0.161	-0.131
-532.106	-108.309	-0.351	-0.076
-531.091	-171.186	-0.211	0.007
-530.077	-200.000	-0.010	0.080
-529.062	-200.000	0.015	0.097
-528.048	769.885	-0.099	0.271
-527.033	-200.000	0.085	-0.396
-526.018	-200.000	-0.024	0.137
-525.004	-49.820	-0.143	0.068
-523.989	55.975	0.113	0.110
-522.975	-55.432	-0.471	-0.211
-521.960	800.000	-0.042	0.152
-520.945	-8.660	-0.309	0.208
-519.931	-95.560	0.436	0.117
-518.916	164.055	-0.166	-0.234
-517.902	638.552	0.166	-0.423
-516.887	-113.989	0.297	-0.058
-515.872	-105.123	-0.228	-0.052
-514.858	-142.518	-0.156	0.015
-513.843	-55.092	-0.187	-0.084
-512.829	800.000	0.074	-0.280
-511.814	-101.886	-0.328	-0.079
-510.799	-70.925	0.202	-0.076
-509.785	-33.498	-0.144	-0.079
-508.770	-155.677	0.058	-0.004
-507.756	-16.394	-0.103	0.065
-506.741	-171.326	0.381	0.013
-505.726	-14.959	0.391	0.251
-504.712	23.543	-0.423	0.348
-503.697	44.652	-0.142	0.131
-502.683	-200.000	0.007	-0.242
-501.668	-35.601	-0.153	0.083
-500.653	800.000	0.016	-0.066
-499.639	237.806	-0.022	-0.036
-498.624	152.571	0.079	0.108
-497.610	-56.162	0.015	-0.007
-496.595	266.222	-0.171	0.298
-495.581	13.677	0.141	-0.109
-494.566	-200.000	-0.021	-0.129
-493.551	-164.037	0.585	-0.027
-492.537	-74.440	-0.053	0.019
-491.522	-152.204	0.244	-0.018
-490.508	-71.900	0.145	0.054
-489.493	1.884	0.135	-0.097
-488.478	279.287	0.067	0.119
-487.464	378.977	0.135	-0.275
-486.449	537.697	-0.091	0.216
-485.435	-200.000	-0.012	0.224
-484.420	-51.334	0.255	0.119
-483.405	-200.000	0.028	0.261
-482.391	-38.695	-0.145	0.076
-481.376	90.190	-0.149	0.166
-480.362	800.000	-0.043	0.135
-479.347	-124.591	0.515	-0.080
-478.332	-200.000	-0.051	0.424
-477.318	-89.262	-0.107	-0.031
-476.303	-200.000	-0.005	-0.162
-475.289	-32.159	-0.029	0.016
-474.274	-36.241	0.315	-0.170
-473.259	276.708	0.172	-0.305
-472.245	674.737	0.038	-0.098
-471.230	800.000	-0.067	-0.282
-470.216	800.000	0.052	-0.170
-469.201	476.077	0.169	0.381
-468.186	-200.000	-0.008	-0.310
-467.172	-130.420	-0.245	-0.033
-466.157	428.301	0.043	0.093
-465.143	590.200	0.088	-0.217
-464.128	-164.128	0.302	-0.014
-463.113	800.000	-0.113	0.363
-462.099	69.706	-0.140	0.145
-461.084	-200.000	-0.008	0.139
-460.070	118.400	-0.053	0.065
-459.055	265.267	0.129	-0.225
-458.040	-105.222	0.208	-0.047
-457.026	106.147	0.153	0.182
-456.011	-0.816	0.144	0.102
-454.997	-200.000	-0.025	-0.392
-453.982	-57.359	0.315	-0.138
-452.968	495.493	0.071	-0.163
-451.953	208.065	0.122	-0.190
-450.938	-200.000	0.026	0.260
-449.924	-93.617	-0.285	0.078
-448.909	109.393	-0.102	0.122
-447.895	-53.666	-0.180	-0.082
-446.880	140.410	0.089	-0.118
-445.865	-50.569	0.051	-0.024
-444.851	290.665	-0.063	-0.114
-443.836	-117.507	-0.128	-0.023
-442.822	-200.000	0.061	0.326
-441.807	-200.000	-0.014	0.202
-440.792	-74.206	0.288	-0.104
-439.778	800.000	-0.078	0.242
-438.763	-33.050	0.383	0.212
-437.749	80.040	0.085	0.092
-436.734	-174.586	0.229	0.007
-435.719	275.338	-0.162	0.287
-434.705	-33.863	-0.188	0.104
-433.690	-122.811	0.155	-0.025
-432.676	381.993	-0.057	-0.116
-431.661	-200.000	0.040	0.222
-430.646	-163.189	-0.102	-0.005
-429.632	-54.908	-0.254	-0.114
-428.617	800.000	-0.057	-0.215
-427.603	433.913	0.126	-0.273
-426.588	-112.571	0.136	0.027
-425.573	-65.811	-0.261	0.104
-424.559	681.281	-0.076	0.198
-423.544	800.000	-0.057	-0.183
-422.530	-122.914	0.133	-0.021
-421.515	347.062	0.061	-0.121
-420.500	410.524	-0.069	-0.145
-419.486	63.185	0.250	0.250
-418.471	311.488	-0.158	0.295
-417.457	-200.000	-0.001	-0.289
-416.442	-109.948	-0.193	-0.040
-415.428	-99.878	0.189	0.047
-414.413	-4.183	0.094	0.065
-413.398	-91.184	-0.430	-0.123
-412.384	-133.278	-0.243	-0.031
-411.369	800.000	-0.096	0.308
-410.355	64.930	0.227	0.228
-409.340	-200.000	-0.048	-0.392
-408.325	-157.867	0.289	-0.017
-407.311	-86.175	0.108	0.033
-406.296	-200.000	0.000	-0.139
-405.282	-95.777	-0.325	-0.087
-404.267	-200.000	0.017	0.139
-403.252	33.793	0.203	0.176
-402.238	-76.235	0.322	-0.113
-401.223	-68.151	0.471	0.183
-400.209	246.496	0.127	0.213
-399.194	538.848	-0.087	-0.205
-398.179	-62.327	-0.266	-0.110
-397.165	659.193	-0.022	0.056
-396.150	-23.660	-0.534	0.319
-395.136	-200.000	-0.018	-0.334
-394.121	-136.927	0.141	0.016
-393.106	80.093	-0.081	0.087
-392.092	-43.053	0.373	0.189
-391.077	263.686	0.182	0.316
-390.063	-77.403	0.233	-0.081
-389.048	-40.969	0.222	-0.114
-388.033	245.153	-0.154	-0.257
-387.019	204.974	0.223	0.344
-386.004	705.900	0.093	-0.244
-384.990	-29.000	-0.188	0.108
-383.975	-121.617	0.093	-0.015
-382.960	-49.498	-0.446	0.212
-381.946	519.360	0.085	0.199
-380.931	-107.414	0.166	-0.036
-379.917	110.929	-0.003	-0.004
-378.902	235.283	-0.118	-0.194
-377.888	181.540	0.101	-0.147
-376.873	-143.547	-0.250	0.024
-375.858	-65.442	0.438	-0.175
-374.844	36.518	0.138	-0.121
-373.829	-200.000	0.006	0.249
-372.815	253.373	0.062	0.105
-371.800	-97.439	0.091	0.024
-370.785	-51.060	-0.247	0.115
-369.771	-200.000	-0.006	0.098
-368.756	489.057	0.145	0.331
-367.742	37.172	0.144	-0.127
-366.727	269.627	-0.100	0.175
-365.712	800.000	-0.022	0.078
-364.698	-200.000	-0.027	0.157
-363.683	800.000	-0.048	-0.156
-362.669	-67.979	-0.154	0.060
-361.654	197.109	-0.329	-0.500
-360.639	91.837	-0.047	0.053
-359.625	-22.304	0.085	-0.051
-358.610	453.423	-0.051	0.111
-357.596	-87.130	-0.448	0.136
-356.581	9.686	-0.203	0.153
-355.566	45.316	-0.205	-0.188
-354.552	-124.307	0.323	-0.050
-353.537	635.826	0.025	-0.063
-352.523	-52.494	-0.164	-0.075
-351.508	-40.062	-0.227	-0.118
-350.493	155.087	-0.204	-0.280
-349.479	-156.791	-0.141	-0.009
-348.464	-40.854	-0.391	-0.201
-347.450	32.323	0.069	0.059
-346.435	-114.170	0.458	0.088
-345.420	-200.000	-0.075	0.334
-344.406	-112.099	0.365	-0.073
-343.391	104.790	-0.080	0.094
-342.377	-200.000	-0.004	-0.252
-341.362	-200.000	-0.025	-0.471
-340.348	-200.000	0.063	0.450
-339.333	-3.631	-0.094	-0.065
-338.318	66.829	-0.232	0.235
-337.304	49.335	-0.084	0.078
-336.289	-44.885	-0.177	0.088
-335.275	-142.914	-0.292	0.028
-334.260	-200.000	-0.023	-0.179
-333.245	27.321	-0.191	0.160
-332.231	40.673	0.137	-0.123
-331.216	188.086	0.122	-0.182
-330.202	717.720	-0.047	-0.123
-329.187	800.000	0.055	-0.173
-328.172	800.000	0.061	0.171
-327.158	364.613	0.035	-0.070
-326.143	470.007	-0.049	0.109
-325.129	-15.746	0.223	-0.141
-324.114	336.918	-0.111	-0.215
-323.099	498.166	-0.061	0.139
-322.085	800.000	-0.050	-0.203
-321.070	800.000	-0.057	0.178
-320.056	-115.604	0.161	0.030
-319.041	122.364	0.123	-0.153
-318.026	241.692	-0.252	0.419
-317.012	-47.094	0.215	-0.104
-315.997	-58.280	-0.082	0.035
-314.983	159.158	-0.148	0.204
-313.968	60.735	0.192	0.189
-312.953	-13.788	0.152	0.097
-311.939	13.259	-0.141	-0.109
-310.924	-102.663	0.213	0.050
-309.910	800.000	0.076	0.310
-308.895	-115.593	-0.212	0.040
-307.880	5.234	-0.159	-0.117
-306.866	-200.000	0.015	0.373
-305.851	800.000	-0.093	-0.344
-304.837	114.938	-0.185	-0.224
-303.822	12.195	0.347	0.265
-302.807	726.037	-0.117	0.309
-301.793	-119.110	0.149	0.026
-300.778	198.746	0.091	-0.139
-299.764	-94.370	0.234	-0.063
-298.749	46.827	0.121	-0.112
-297.735	-200.000	0.037	0.307
-296.720	-93.239	0.132	0.036
-295.705	26.737	-0.187	-0.155
-294.691	-98.482	0.067	0.017
-293.676	800.000	0.190	-0.548
-292.662	-200.000	-0.002	0.284
-291.647	-200.000	0.028	-0.262
-290.632	449.746	-0.041	-0.090
-289.618	51.273	0.220	0.207
-288.603	92.562	-0.182	0.204
-287.589	87.866	0.049	-0.054
-286.574	131.728	0.125	0.159
-285.559	-140.907	-0.147	0.015
-284.545	178.390	0.129	-0.187
-283.530	-200.000	-0.040	-0.218
-282.516	-133.212	-0.123	-0.015
-281.501	202.755	0.217	0.332
-280.486	-35.518	-0.418	-0.225
-279.472	172.136	0.194	0.276
-278.457	353.242	0.183	0.361
-277.443	-96.435	-0.303	-0.080
-276.428	166.630	0.046	-0.065
-275.413	800.000	-0.050	0.198
-274.399	235.241	0.113	0.186
-273.384	27.855	0.159	-0.133
-272.370	-28.022	-0.329	-0.189
-271.355	-39.472	-0.323	-0.168
-270.340	-200.000	0.062	0.446
-269.326	623.480	0.104	0.261
-268.311	-105.384	0.091	0.021
-267.297	-95.994	0.170	-0.045
-266.282	248.019	-0.131	-0.219
-265.267	-38.836	0.273	0.143
-264.253	-83.611	-0.303	0.096
-263.238	-21.200	0.160	0.097
-262.224	35.315	0.436	-0.379
-261.209	-38.350	-0.024	0.013
-260.195	57.662	0.018	0.017
-259.180	-22.271	0.053	0.032
-258.165	224.561	0.050	-0.081
-257.151	800.000	-0.070	-0.269
-256.136	73.608	0.161	0.167
-255.122	-200.000	-0.094	0.533
-254.107	-102.008	0.285	-0.068
-253.092	83.477	-0.076	-0.082
-252.078	-77.536	0.204	0.070
-251.063	20.304	0.059	-0.047
-250.049	-72.777	-0.237	-0.086
-249.034	114.063	-0.205	0.247
-248.019	-200.000	-0.007	0.085
-247.005	-182.710	-0.016	-0.000
-245.990	-28.189	-0.176	0.101
-244.976	170.267	-0.046	0.065
-243.961	-200.000	-0.052	0.229
-242.946	408.288	-0.081	-0.169
-241.932	469.845	-0.048	0.107
-240.917	63.745	0.237	-0.236
-239.903	140.988	-0.088	-0.115
-238.888	383.613	0.055	0.111
-237.873	46.849	0.227	0.209
-236.859	-89.974	0.086	-0.025
-235.844	-70.723	0.149	0.056
-234.830	16.171	0.179	-0.140
-233.815	-14.852	-0.241	0.153
-232.800	227.165	-0.194	-0.312
-231.786	-52.212	0.041	0.019
-230.771	102.715	-0.181	0.210
-229.757	248.660	-0.142	-0.238
-228.742	790.535	0.038	0.104
-227.727	-23.473	-0.117	-0.069
-226.713	-200.000	0.009	0.050
-225.698	91.046	-0.237	-0.264
-224.684	128.873	-0.062	-0.078
-223.669	-164.700	-0.233	-0.010
-222.655	-31.701	0.079	-0.044
-221.640	184.025	0.060	-0.088
-220.625	-159.851	-0.079	-0.004
-219.611	-145.512	0.009	-0.001
-218.596	-172.987	-0.316	0.010
-217.582	-200.000	-0.012	-0.086
-216.567	-35.059	-0.088	-0.047
-215.552	-102.944	0.049	0.012
-214.538	412.513	-0.084	-0.176
-213.523	170.807	0.173	0.245
-212.509	-200.000	0.011	0.054
-211.494	800.000	0.100	-0.308
-210.479	-200.000	-0.016	0.141
-209.465	-116.712	-0.206	-0.037
-208.450	-200.000	-0.049	-0.285
-207.436	-200.000	-0.044	0.383
-206.421	-200.000	0.005	0.108
-205.406	172.903	-0.119	0.169
-204.392	-200.000	0.013	0.343
-203.377	-107.716	-0.303	-0.065
-202.363	43.815	-0.079	-0.071
-201.348	8.004	0.214	0.159
-200.333	445.419	-0.085	-0.185
-199.319	-97.758	0.201	0.051
-198.304	-131.401	0.124	-0.016
-197.290	-43.306	-0.129	0.065
-196.275	800.000	0.041	-0.158
-195.260	-65.134	0.231	0.092
-194.246	800.000	0.053	0.208
-193.231	-34.716	0.363	-0.196
-192.217	800.000	-0.054	-0.158
-191.202	521.339	0.220	-0.510
-190.187	395.081	-0.036	-0.074
-189.173	221.402	-0.077	0.122
-188.158	-136.606	-0.262	0.030
-187.144	31.893	-0.204	-0.174
-186.129	-99.009	0.218	-0.055
-185.114	800.000	0.141	-0.428
-184.100	55.189	-0.213	-0.204
-183.085	12.229	-0.299	-0.227
-182.071	-128.039	-0.117	0.017
-181.056	144.858	-0.218	0.288
-180.042	-134.312	-0.182	0.022
-179.027	7.760	0.329	-0.243
-178.012	11.798	0.141	0.107
-176.998	34.416	0.072	0.062
-175.983	54.525	-0.028	0.026
-174.969	169.558	-0.187	-0.264
-173.954	-82.565	-0.115	-0.037
-172.939	-33.005	-0.054	0.030
-171.925	-200.000	-0.004	-0.215
-170.910	597.291	0.114	0.280
-169.896	-34.513	-0.199	-0.107
-168.881	-70.134	0.376	0.141
-167.866	-170.469	0.297	-0.010
-166.852	-58.481	0.220	-0.095
-165.837	-12.381	0.107	-0.069
-164.823	193.001	0.053	-0.079
-163.808	-23.376	-0.401	-0.238
-162.793	-200.000	-0.033	0.183
-161.779	-127.622	0.230	-0.033
-160.764	-89.144	0.422	0.123
-159.750	23.080	-0.140	0.113
-158.735	194.636	-0.080	0.120
-157.720	-200.000	-0.043	-0.288
-156.706	16.644	-0.094	0.073
-155.691	-200.000	0.013	0.087
-154.677	15.786	0.197	-0.153
-153.662	632.542	-0.105	0.262
-152.647	478.219	-0.073	0.163
-151.633	-22.807	-0.169	0.101
-150.618	800.000	-0.073	0.225
-149.604	800.000	-0.061	-0.231
-148.589	458.034	-0.049	-0.108
-147.574	-66.187	0.452	0.178
-146.560	800.000	-0.075	0.302
-145.545	-125.115	0.066	-0.010
-144.531	-200.000	-0.033	0.266
-143.516	20.108	-0.149	-0.119
-142.502	-70.990	-0.257	-0.096
-141.487	-200.000	0.000	0.076
-140.472	-39.039	-0.186	-0.096
-139.458	-200.000	-0.001	-0.123
-138.443	800.000	-0.121	0.332
-137.429	195.754	-0.026	0.039
-136.414	-3.917	-0.080	-0.054
-135.399	-200.000	0.036	-0.180
-134.385	-200.000	0.056	-0.355
-133.370	-160.525	0.057	0.003
-132.356	-144.817	-0.136	0.012
-131.341	361.343	0.147	-0.292
-130.326	626.125	0.101	-0.252
-129.312	80.865	0.149	0.159
-128.297	-200.000	-0.252	-0.001
-127.283	800.000	0.066	0.191
-126.268	-200.000	0.026	-0.155
-125.253	-169.408	-0.341	0.012
-124.239	-91.683	0.143	-0.040
-123.224	360.983	-0.103	-0.204
-122.210	346.021	-0.159	0.308
-121.195	131.565	0.126	0.160
-120.180	53.716	-0.149	0.141
-119.166	-125.865	0.123	0.018
-118.151	-200.000	-0.038	0.244
-117.137	-119.264	-0.196	0.034
-116.122	15.165	0.115	0.089
-115.107	-125.095	-0.006	-0.001
-114.093	-84.872	0.138	-0.043
-113.078	-64.282	-0.226	0.091
-112.064	326.572	-0.176	-0.331
-111.049	342.455	0.132	0.255
-110.034	607.934	0.139	0.343
-109.020	-53.710	0.276	-0.124
-108.005	-102.472	0.097	0.023
-106.991	-47.659	-0.126	-0.060
-105.976	-74.568	-0.138	-0.049
-104.962	780.404	0.109	0.295
-103.947	12.085	-0.085	-0.064
-102.932	341.587	0.102	-0.196
-101.918	150.922	0.140	0.188
-100.903	800.000	0.040	-0.140
-99.889	235.714	0.114	0.186
-98.874	-119.924	0.147	0.025
-97.859	-50.821	-0.368	0.170
-96.845	188.204	-0.091	-0.134
-95.830	-200.000	-0.009	0.089
-94.816	97.766	0.186	0.211
-93.801	-86.808	0.476	0.143
-92.786	-18.091	0.265	0.163
-91.772	27.207	-0.221	-0.183
-90.757	-44.000	-0.113	0.056
-89.743	504.112	0.081	0.185
-88.728	-200.000	-0.021	-0.429
-87.713	240.131	-0.092	0.152
-86.699	-14.318	0.291	0.184
-85.684	-35.346	0.019	0.010
-84.670	-149.025	-0.301	-0.024
-83.655	170.063	-0.136	0.191
-82.640	-200.000	0.006	0.068
-81.626	29.208	0.187	0.156
-80.611	800.000	-0.055	0.207
-79.597	345.727	-0.165	0.319
-78.582	171.334	-0.254	0.359
-77.567	-17.550	0.186	0.115
-76.553	750.688	0.038	0.102
-75.538	-36.959	0.233	-0.123
-74.524	731.243	0.016	-0.043
-73.509	768.453	0.169	0.452
-72.494	399.543	0.163	-0.336
-71.480	-91.867	0.309	0.086
-70.465	-200.000	0.005	-0.216
-69.451	-71.591	-0.146	0.054
-68.436	800.000	-0.038	-0.124
-67.422	800.000	-0.060	0.203
-66.407	-88.593	0.194	-0.057
-65.392	800.000	-0.099	0.301
-64.378	370.824	-0.081	0.162
-63.363	-90.236	-0.170	-0.049
-62.349	-200.000	-0.002	-0.064
-61.334	60.237	-0.984	-0.957
-60.319	-13.185	0.696	0.445
-59.305	316.350	-0.547	-1.015
-58.290	195.277	0.738	1.102
-57.276	530.997	0.685	1.593
-56.261	-200.000	93.028	565.260
-55.246	559.587	1374.671	3263.910
-54.232	157.441	2570.269	3497.877
-53.217	108.081	2295.006	2690.248
-52.203	44.272	1921.226	1733.544
-51.188	38.189	1712.560	1498.714
-50.173	35.419	1668.905	1439.705
-49.159	52.350	1713.082	1606.682
-48.144	54.770	1730.131	1640.967
-47.130	37.658	1691.344	1475.886
-46.115	34.862	1677.039	1442.293
-45.100	34.690	1672.167	1436.750
-44.086	34.691	1670.015	1434.854
-43.071	34.745	1666.840	1432.474
-42.057	34.597	1664.924	1429.661
-41.042	34.679	1662.804	1428.395
-40.027	34.689	1661.004	1426.866
-39.013	34.714	1659.011	1425.285
-37.998	34.715	1657.380	1423.838
-36.984	34.780	1655.710	1422.830
-35.969	34.817	1654.480	1421.992
-34.954	34.805	1652.715	1420.326
-33.940	34.811	1650.971	1418.822
-32.925	34.783	1648.929	1416.801
-31.911	34.876	1647.330	1416.056
-30.896	34.638	1646.281	1413.337
-29.881	34.729	1644.128	1412.104
-28.867	34.824	1642.569	1411.415
-27.852	34.834	1641.097	1410.165
-26.838	34.851	1639.408	1408.783
-25.823	34.849	1638.162	1407.642
-24.809	34.853	1636.769	1406.420
-23.794	34.826	1635.274	1404.878
-22.779	34.837	1633.908	1403.733
-21.765	34.819	1632.419	1402.269
-20.750	34.843	1630.688	1400.902
-19.736	34.877	1629.046	1399.681
-18.721	35.011	1627.397	1399.190
-17.706	34.881	1625.998	1396.979
-16.692	34.879	1624.259	1395.415
-15.677	34.804	1623.301	1393.990
-14.663	34.902	1621.359	1392.981
-13.648	34.847	1620.369	1391.674
-12.633	34.864	1618.793	1390.389
-11.619	34.916	1617.276	1389.413
-10.604	34.894	1615.920	1388.031
-9.590	34.919	1614.439	1386.886
-8.575	34.905	1613.068	1385.554
-7.560	34.854	1611.918	1384.142
-6.546	34.824	1610.948	1383.037
-5.531	34.833	1609.633	1381.918
-4.517	34.754	1608.723	1380.510
-3.502	34.802	1607.424	1379.687
-2.487	34.853	1605.411	1378.271
-1.473	34.013	1592.836	1361.412
-0.458	29.446	1568.935	1308.630
0.556	23.089	1564.437	1256.746
1.571	19.335	1584.816	1245.926
2.586	18.114	1596.368	1246.003
3.600	16.257	1544.311	1192.161
4.615	9.569	1436.849	1065.022
5.629	2.803	1371.850	973.922
6.644	1.247	1363.106	957.817
7.659	1.174	1362.237	956.658
8.673	1.082	1361.680	955.602
9.688	1.027	1359.714	953.791
10.702	0.874	1356.883	950.760
11.717	3.909	1361.255	972.846
12.731	11.351	1372.441	1027.797
13.746	16.794	1379.913	1067.693
14.761	17.805	1380.619	1074.514
15.775	17.162	1378.321	1068.591
16.790	16.131	1375.859	1060.107
17.804	15.380	1373.246	1053.288
18.819	14.933	1371.969	1049.410
19.834	14.712	1370.562	1046.859
20.848	14.443	1369.279	1044.101
21.863	14.203	1368.123	1041.621
22.877	13.931	1367.147	1039.085
23.892	13.929	1366.005	1038.113
24.907	13.940	1365.364	1037.606
25.921	13.977	1364.209	1036.866
26.936	14.066	1363.531	1036.814
27.950	14.007	1362.599	1035.643
28.965	14.095	1361.229	1035.060
29.980	14.123	1360.090	1034.275
30.994	14.136	1359.480	1033.803
32.009	14.248	1358.354	1033.551
33.023	14.141	1357.579	1032.205
34.038	14.205	1356.210	1031.471
35.053	14.189	1355.132	1030.456
36.067	14.065	1354.525	1029.136
37.082	14.108	1353.468	1028.509
38.096	14.040	1352.857	1027.538
39.111	14.165	1351.413	1027.122
40.126	14.054	1350.745	1025.832
41.140	14.000	1349.806	1024.699
42.155	13.932	1349.772	1024.162
43.169	13.937	1349.419	1023.836
44.184	13.887	1349.348	1023.382
45.199	14.011	1348.300	1023.259
46.213	14.111	1347.813	1023.414
47.228	14.026	1346.884	1022.097
48.242	14.042	1345.506	1021.057
49.257	13.924	1344.288	1019.318
50.271	14.074	1342.951	1019.134
51.286	14.018	1341.793	1017.823
52.301	14.091	1340.021	1016.834
53.315	14.094	1339.251	1016.180
54.330	14.027	1338.429	1015.059
55.344	14.054	1337.244	1014.233
56.359	14.036	1335.887	1013.007
57.374	13.973	1335.332	1012.112
58.388	13.954	1334.465	1011.246
59.403	13.860	1334.493	1010.610
60.417	13.929	1333.324	1010.052
61.432	13.885	1332.334	1008.945
62.447	13.868	1331.473	1008.102
63.461	13.952	1330.038	1007.434
64.476	13.864	1328.929	1005.971
65.490	13.840	1328.107	1005.119
66.505	13.837	1326.451	1003.758
67.520	13.833	1325.885	1003.214
68.534	13.993	1323.839	1002.542
69.549	13.936	1323.120	1001.565
70.563	13.948	1321.396	1000.245
71.578	13.858	1321.246	999.503
72.593	13.849	1319.684	998.177
73.607	13.764	1319.319	997.302
74.622	13.868	1318.033	996.867
75.636	13.771	1317.944	996.130
76.651	13.847	1316.848	995.669
77.666	13.770	1316.535	994.879
78.680	13.774	1315.804	994.262
79.695	13.866	1314.623	993.836
80.709	13.818	1314.278	993.200
81.724	13.817	1313.148	992.250
82.739	13.870	1312.344	991.874
83.753	14.027	1311.077	991.764
84.768	13.998	1310.159	990.808
85.782	14.110	1308.697	990.284
86.797	13.910	1308.042	988.512
87.812	13.959	1306.593	987.616
88.826	14.089	1305.126	987.194
89.841	14.050	1304.292	986.244
90.855	14.096	1302.880	985.360
91.870	13.976	1302.691	984.420
92.884	14.088	1301.868	984.376
93.899	14.099	1300.864	983.591
94.914	14.117	1300.331	983.210
95.928	14.121	1299.367	982.418
96.943	14.079	1298.333	981.304
97.957	14.086	1297.924	980.945
98.972	13.977	1296.578	979.199
99.987	14.033	1295.234	978.425
101.001	14.094	1294.279	977.982
102.016	14.072	1293.420	977.112
103.030	14.064	1292.350	976.171
104.045	14.049	1291.904	975.662
105.060	14.087	1290.169	974.486
106.074	14.014	1289.110	973.172
107.089	13.944	1288.022	971.857
108.103	13.920	1286.311	970.340
109.118	13.922	1285.325	969.520
110.133	13.861	1284.288	968.300
111.147	13.963	1282.605	967.537
112.162	13.926	1281.614	966.491
113.176	13.964	1280.498	965.782
114.191	14.002	1279.621	965.254
115.206	14.040	1279.001	964.924
116.220	14.030	1277.042	963.303
117.235	13.995	1276.111	962.315
118.249	13.999	1274.867	961.312
119.264	14.088	1273.919	961.026
120.279	14.016	1273.194	959.979
121.293	13.882	1272.407	958.526
122.308	13.908	1271.306	957.761
123.322	13.981	1270.285	957.331
124.337	13.980	1269.235	956.450
125.352	14.038	1267.588	955.455
126.366	14.017	1266.912	954.743
127.381	13.966	1265.734	953.475
128.395	13.983	1264.894	952.856
129.410	14.055	1263.957	952.478
130.424	14.024	1263.364	951.770
131.439	14.005	1262.492	950.923
132.454	14.121	1260.956	950.343
133.468	14.091	1260.253	949.558
134.483	14.042	1259.586	948.688
135.497	14.153	1258.362	948.320
136.512	14.053	1257.418	946.953
137.527	14.113	1256.038	946.171
138.541	13.983	1255.003	944.566
139.556	13.962	1253.652	943.351
140.570	14.133	1252.319	943.234
141.585	14.167	1251.076	942.406
142.600	14.199	1249.821	941.558
143.614	14.091	1249.466	940.593
144.629	14.116	1248.513	939.937
145.643	14.112	1247.191	938.837
146.658	14.240	1245.255	938.019
147.673	14.161	1244.124	936.637
148.687	14.150	1243.247	935.830
149.702	14.086	1241.783	934.287
150.716	14.074	1240.614	933.259
151.731	14.104	1239.263	932.327
152.746	14.227	1237.946	931.941
153.760	14.206	1236.695	930.799
154.775	14.353	1235.357	930.531
155.789	14.282	1234.602	929.485
156.804	14.200	1234.083	928.554
157.819	14.297	1232.099	927.519
158.833	14.274	1231.704	927.015
159.848	14.273	1230.670	926.145
160.862	14.291	1229.961	925.634
161.877	14.297	1228.656	924.601
162.892	14.239	1227.387	923.245
163.906	14.175	1226.961	922.488
164.921	14.257	1226.091	922.205
165.935	14.272	1225.241	921.565
166.950	14.310	1224.306	920.993
167.964	14.286	1223.786	920.387
168.979	14.330	1222.922	919.900
169.994	14.441	1221.933	919.686
171.008	14.426	1220.988	918.812
172.023	14.451	1220.800	918.728
173.037	14.479	1219.647	917.930
174.052	14.418	1219.206	917.184
175.067	14.314	1218.295	915.845
176.081	14.357	1216.768	914.851
177.096	14.336	1216.217	914.240
178.110	14.491	1214.666	913.842
179.125	14.358	1213.752	912.345
180.140	14.461	1212.318	911.749
181.154	14.545	1211.041	911.170
182.169	14.432	1210.371	909.966
183.183	14.549	1208.609	909.201
184.198	14.556	1207.801	908.552
185.213	14.545	1206.628	907.527
186.227	14.536	1205.592	906.617
187.242	14.540	1204.850	906.000
188.256	14.507	1204.150	905.216
189.271	14.563	1202.930	904.522
190.286	14.447	1201.959	903.084
191.300	14.506	1200.442	902.183
192.315	14.497	1200.293	901.940
193.329	14.491	1199.843	901.492
194.344	14.520	1198.732	900.735
195.359	14.591	1198.703	901.017
196.373	14.732	1197.601	900.870
197.388	14.678	1197.588	900.491
198.402	14.622	1196.922	899.608
199.417	14.711	1196.235	899.490
200.432	14.725	1195.404	898.861
201.446	14.767	1194.822	898.569
202.461	14.850	1193.341	897.820
203.475	14.812	1192.832	897.158
204.490	14.872	1190.959	895.987
205.504	14.822	1190.150	895.033
206.519	14.875	1188.848	894.260
207.534	14.848	1187.701	893.175
208.548	14.909	1186.430	892.461
209.563	14.793	1186.302	891.670
210.577	14.866	1185.304	891.231
211.592	14.924	1184.558	890.901
212.607	14.874	1183.848	890.021
213.621	14.874	1182.784	889.139
214.636	14.880	1181.503	888.131
215.650	15.035	1180.614	888.206
216.665	15.044	1179.732	887.515
217.680	15.043	1178.745	886.688
218.694	15.089	1177.689	886.055
219.709	15.044	1177.382	885.508
220.723	15.064	1176.374	884.778
221.738	15.032	1175.760	884.069
222.753	15.117	1174.746	883.677
223.767	15.211	1174.182	883.671
224.782	15.136	1173.813	882.920
225.796	15.092	1173.509	882.381
226.811	15.082	1172.772	881.698
227.826	15.194	1171.977	881.609
228.840	15.160	1171.148	880.730
229.855	15.076	1170.530	879.745
230.869	15.088	1169.817	879.196
231.884	15.134	1168.929	878.690
232.899	15.148	1167.695	877.761
233.913	15.144	1166.945	877.094
234.928	15.113	1166.622	876.613
235.942	15.039	1165.917	875.618
236.957	15.254	1164.895	875.897
237.972	15.178	1164.211	874.911
238.986	15.223	1163.648	874.643
240.001	15.192	1163.008	873.922
241.015	15.227	1161.902	873.198
242.030	15.329	1160.845	872.855
243.045	15.245	1160.311	871.943
244.059	15.206	1159.941	871.381
245.074	15.304	1158.745	870.915
246.088	15.337	1157.781	870.286
247.103	15.371	1157.070	869.848
248.117	15.364	1156.507	869.313
249.132	15.493	1155.461	869.118
250.147	15.481	1155.189	868.773
251.161	15.443	1154.341	867.865
252.176	15.553	1153.927	868.044
253.190	15.564	1152.718	867.114
254.205	15.635	1152.373	867.144
255.220	15.626	1151.673	866.493
256.234	15.690	1151.097	866.314
257.249	15.576	1150.598	865.275
258.263	15.676	1149.578	864.948
259.278	15.770	1148.846	864.805
260.293	15.710	1149.030	864.556
261.307	15.755	1148.121	864.028
262.322	15.759	1147.590	863.573
263.336	15.816	1146.457	862.933
264.351	15.774	1145.835	862.172
265.366	15.882	1145.211	862.181
266.380	15.834	1144.773	861.531
267.395	15.757	1144.024	860.494
268.409	15.771	1143.126	859.817
269.424	15.860	1142.797	859.950
270.439	15.736	1142.340	858.894
271.453	15.751	1141.552	858.302
272.468	15.740	1140.483	857.364
273.482	15.816	1139.495	856.932
274.497	15.967	1138.865	857.155
275.512	15.803	1138.712	856.129
276.526	15.863	1137.946	855.783
277.541	15.839	1136.915	854.809
278.555	15.961	1136.416	854.978
279.570	15.843	1135.871	853.892
280.585	15.952	1134.785	853.552
281.599	16.057	1133.626	853.136
282.614	16.045	1132.588	852.220
283.628	16.002	1131.773	851.315
284.643	16.065	1130.672	850.727
285.657	16.092	1130.059	850.326
286.672	16.001	1129.648	849.483
287.687	16.093	1128.236	848.813
288.701	16.111	1127.578	848.332
289.716	16.008	1126.754	847.117
290.730	16.079	1126.289	847.050
291.745	16.085	1125.701	846.563
292.760	16.181	1124.953	846.411
293.774	16.250	1124.113	846.049
294.789	16.230	1123.393	845.330
295.803	16.239	1123.047	845.038
296.818	16.217	1122.471	844.423
297.833	16.245	1121.475	843.739
298.847	16.321	1120.223	843.104
299.862	16.238	1119.904	842.373
300.876	16.111	1119.302	841.210
301.891	16.243	1118.669	841.319
302.906	16.402	1117.685	841.297
303.920	16.383	1117.436	840.940
304.935	16.303	1116.788	839.981
305.949	16.435	1116.105	840.048
306.964	16.499	1115.065	839.511
307.979	16.394	1114.723	838.657
308.993	16.370	1114.216	838.084
310.008	16.606	1112.660	838.005
311.022	16.692	1111.959	837.829
312.037	16.661	1111.066	836.931
313.052	16.621	1110.294	836.075
314.066	16.500	1109.683	834.946
315.081	16.377	1108.601	833.449
316.095	16.415	1108.040	833.140
317.110	16.380	1107.758	832.684
318.125	16.448	1106.856	832.267
319.139	16.436	1106.354	831.755
320.154	16.528	1105.513	831.504
321.168	16.382	1104.988	830.316
322.183	16.441	1104.315	830.029
323.197	16.525	1103.543	829.787
324.212	16.667	1102.803	829.853
325.227	16.531	1102.343	828.767
326.241	16.561	1101.438	828.157
327.256	16.632	1100.717	827.891
328.270	16.498	1099.870	826.528
329.285	16.654	1098.736	826.362
330.300	16.598	1097.884	825.377
331.314	16.615	1097.388	825.012
332.329	16.703	1096.459	824.669
333.343	16.686	1095.182	823.551
334.358	16.725	1094.589	823.224
335.373	16.606	1094.257	822.323
336.387	16.602	1093.470	821.641
337.402	16.789	1092.282	821.581
338.416	16.704	1091.794	820.727
339.431	16.893	1091.159	821.097
340.446	16.770	1090.787	820.147
341.460	16.953	1089.809	820.223
342.475	16.828	1089.293	819.158
343.489	16.899	1088.177	818.591
344.504	16.957	1087.080	817.974
345.519	16.992	1086.218	817.422
346.533	16.959	1085.660	816.767
347.548	17.098	1084.727	816.665
348.562	17.042	1084.015	815.787
349.577	17.082	1083.329	815.391
350.592	17.060	1082.582	814.650
351.606	16.948	1082.085	813.668
352.621	16.982	1081.342	813.199
353.635	17.040	1080.659	812.890
354.650	16.980	1080.106	812.114
355.665	17.025	1079.152	811.542
356.679	17.126	1078.597	811.535
357.694	17.067	1077.973	810.710
358.708	17.041	1077.440	810.115
359.723	17.137	1076.648	809.907
360.738	17.118	1075.945	809.214
361.752	17.153	1075.465	808.950
362.767	17.117	1075.173	808.488
363.781	17.190	1074.282	808.091
364.796	17.230	1073.689	807.765
365.810	17.279	1073.301	807.635
366.825	17.351	1072.455	807.269
367.840	17.361	1071.886	806.818
368.854	17.390	1071.537	806.617
369.869	17.418	1070.440	805.854
370.883	17.300	1069.959	804.863
371.898	17.427	1068.811	804.529
372.913	17.346	1068.431	803.786
373.927	17.328	1068.021	803.325
374.942	17.372	1067.985	803.431
375.956	17.411	1067.038	802.832
376.971	17.412	1066.332	802.236
377.986	17.387	1066.064	801.846
379.000	17.552	1064.941	801.709
380.015	17.529	1064.166	800.944
381.029	17.589	1063.795	800.876
382.044	17.557	1063.338	800.313
383.059	17.549	1062.486	799.562
384.073	17.536	1062.171	799.195
385.088	17.596	1061.072	798.578
386.102	17.615	1060.077	797.847
387.117	17.582	1058.980	796.795
388.132	17.537	1058.288	795.994
389.146	17.593	1057.478	795.574
390.161	17.628	1056.672	795.060
391.175	17.603	1055.801	794.218
392.190	17.601	1055.352	793.804
393.205	17.659	1054.248	793.170
394.219	17.752	1053.727	793.142
395.234	17.795	1052.848	792.611
396.248	17.710	1051.966	791.480
397.263	17.697	1050.822	790.489
398.278	17.728	1050.220	790.112
399.292	17.598	1049.675	789.028
400.307	17.676	1048.877	788.722
401.321	17.666	1048.417	788.259
402.336	17.616	1048.072	787.697
403.350	17.768	1046.925	787.468
404.365	17.803	1046.308	787.095
405.380	17.842	1045.343	786.482
406.394	17.747	1044.850	785.600
407.409	17.743	1044.093	784.947
408.423	17.928	1042.823	784.771
409.438	17.836	1042.499	784.035
410.453	17.934	1042.189	784.183
411.467	17.972	1041.063	783.439
412.482	18.050	1040.631	783.403
413.496	17.933	1040.380	782.607
414.511	18.019	1039.571	782.325
415.526	17.962	1039.220	781.729
416.540	18.095	1038.716	781.893
417.555	18.114	1037.893	781.288
418.569	18.060	1037.591	780.746
419.584	18.259	1036.520	780.777
420.599	18.175	1036.250	780.122
421.613	102.039	1316.184	1449.862
422.628	93.620	1356.960	1449.955
