DTS Sentinel unit serial number:	SN413079Multiplexer serial number:	ORYXHardware model number:	OX4-SRSoftware version number:	ORYX F/W v4.00 Oryx Data Collector v3.7.2.0data status	okinstallation	princeton_trtdifferential loss correction	single-endedforward channel	channel 2reverse channel	N/Adate	2019/09/14time	15:03:35forward acquisition time	60.00reverse acquisition time	0.00gamma	496.2192k internal	0.2302k external	0.2302temperature offset calibration	1.0144default loss term (dB/km)	0.3790temperature slope calibration	1.0000multiplexer offset coefficient	1.0000multiplexer slope coefficient	1.0000fibre end	0.00T internal ref (°C)	39.06T ext. ref 1 (°C)	5.08T ext. ref 2 (°C)	34.88length (m)	temperature (°C)	Stokes	anti-Stokes-747.200	311.906	-0.122	-0.233
-746.185	346.375	-0.145	0.291
-745.171	129.901	-0.106	-0.138
-744.156	26.657	0.556	0.474
-743.142	-94.799	0.198	0.055
-742.127	-80.224	-0.265	0.090
-741.112	-200.000	0.040	-0.245
-740.098	-200.000	0.031	0.299
-739.083	172.434	0.026	-0.038
-738.069	431.469	-0.108	0.239
-737.054	263.362	0.115	0.204
-736.039	-200.000	0.001	0.395
-735.025	-154.517	0.280	0.019
-734.010	139.087	0.086	-0.115
-732.996	-89.475	-0.153	-0.046
-731.981	131.248	-0.151	-0.197
-730.966	229.654	-0.090	-0.150
-729.952	-200.000	0.043	-0.221
-728.937	800.000	-0.055	-0.242
-727.923	1.557	-0.264	-0.194
-726.908	-48.269	0.104	-0.051
-725.894	-108.538	-0.146	0.032
-724.879	4.422	-0.110	-0.082
-723.864	-57.633	-0.082	-0.037
-722.850	-152.748	-0.288	0.021
-721.835	-123.691	0.384	0.062
-720.821	138.726	-0.092	0.123
-719.806	51.993	-0.142	0.138
-718.791	-109.335	0.128	0.028
-717.777	241.210	-0.013	0.022
-716.762	-163.706	-0.472	0.023
-715.748	-36.024	0.205	-0.113
-714.733	-167.168	-0.271	0.011
-713.718	-146.684	-0.183	0.016
-712.704	-128.574	0.206	0.030
-711.689	-1.312	-0.095	0.068
-710.675	99.624	-0.097	-0.114
-709.660	-94.112	-0.300	0.084
-708.645	-200.000	-0.025	0.180
-707.631	34.926	-0.110	-0.098
-706.616	-61.807	-0.359	-0.153
-705.602	-147.348	-0.011	-0.001
-704.587	-135.782	0.052	0.006
-703.572	-93.955	0.259	0.072
-702.558	543.483	0.122	-0.296
-701.543	-71.852	-0.169	-0.064
-700.529	-200.000	0.008	-0.314
-699.514	-10.939	-0.253	-0.170
-698.499	800.000	0.066	-0.241
-697.485	-15.573	-0.127	-0.082
-696.470	41.362	0.031	-0.029
-695.456	60.515	0.116	-0.117
-694.441	-32.326	0.084	-0.048
-693.426	800.000	-0.119	0.335
-692.412	-200.000	-0.019	0.162
-691.397	374.401	0.249	-0.515
-690.383	181.117	-0.116	0.174
-689.368	144.660	-0.107	0.145
-688.354	38.904	-0.125	-0.114
-687.339	-47.017	0.188	-0.093
-686.324	-40.322	-0.276	0.146
-685.310	-92.742	0.068	-0.019
-684.295	-200.000	-0.110	-0.555
-683.281	120.703	0.208	-0.262
-682.266	-112.625	0.116	0.024
-681.251	-74.831	0.264	0.096
-680.237	-200.000	0.008	-0.155
-679.222	-200.000	-0.016	-0.126
-678.208	-143.291	-0.278	-0.027
-677.193	-47.363	-0.217	-0.107
-676.178	314.188	-0.086	0.164
-675.164	-98.566	0.062	-0.016
-674.149	32.316	-0.131	-0.115
-673.135	144.695	0.046	0.063
-672.120	-139.905	-0.169	-0.018
-671.105	-17.955	-0.067	0.043
-670.091	-40.039	0.158	0.084
-669.076	-55.685	0.235	0.107
-668.062	-86.523	-0.223	-0.069
-667.047	-14.131	0.342	-0.224
-666.032	-200.000	-0.086	-0.414
-665.018	22.050	0.139	-0.115
-664.003	800.000	0.018	-0.068
-662.989	-103.533	-0.227	-0.054
-661.974	485.414	-0.079	0.182
-660.959	-200.000	0.005	0.030
-659.945	-200.000	-0.026	0.344
-658.930	-26.262	-0.506	0.302
-657.916	147.379	0.213	0.291
-656.901	-200.000	0.040	0.363
-655.886	545.971	-0.063	-0.153
-654.872	-38.992	0.196	0.105
-653.857	-200.000	0.016	-0.108
-652.843	62.468	-0.144	-0.146
-651.828	477.339	-0.134	-0.307
-650.814	1.584	-0.066	0.048
-649.799	370.847	-0.166	0.342
-648.784	168.495	0.041	0.060
-647.770	-11.928	0.154	-0.103
-646.755	-200.000	-0.254	0.001
-645.741	5.072	0.208	0.155
-644.726	-164.496	0.130	-0.006
-643.711	-200.000	0.058	-0.434
-642.697	-200.000	0.034	-0.228
-641.682	-200.000	-0.013	0.203
-640.668	-200.000	-0.039	0.299
-639.653	-45.843	0.440	0.220
-638.638	59.051	-0.088	0.088
-637.624	122.179	0.152	0.192
-636.609	217.912	-0.027	-0.043
-635.595	-38.796	0.151	0.081
-634.580	-157.671	-0.092	-0.006
-633.565	-200.000	-0.019	-0.463
-632.551	800.000	0.091	0.278
-631.536	-200.000	-0.058	0.317
-630.522	-15.041	-0.053	-0.034
-629.507	-101.356	-0.209	-0.052
-628.492	133.446	-0.160	0.209
-627.478	-200.000	-0.047	0.211
-626.463	29.404	0.151	-0.130
-625.449	-200.000	0.005	0.049
-624.434	-200.000	-0.010	-0.066
-623.419	-42.674	-0.235	0.121
-622.405	-75.361	-0.217	0.079
-621.390	92.759	0.374	0.429
-620.376	-21.193	0.071	-0.044
-619.361	51.319	-0.265	-0.255
-618.346	128.048	0.133	-0.172
-617.332	-0.718	0.250	-0.180
-616.317	-31.878	-0.284	0.161
-615.303	-118.081	0.259	-0.047
-614.288	-8.385	0.121	0.083
-613.273	159.087	-0.141	0.198
-612.259	-200.000	0.002	-0.140
-611.244	715.550	-0.153	-0.411
-610.230	-200.000	0.001	-0.321
-609.215	121.567	0.067	0.085
-608.201	-105.993	-0.232	0.053
-607.186	86.855	-0.220	-0.246
-606.171	-199.913	0.222	0.001
-605.157	-112.160	0.337	-0.069
-604.142	-98.415	-0.188	-0.049
-603.128	-200.000	0.031	-0.171
-602.113	-200.000	0.067	0.322
-601.098	-172.830	-0.279	0.009
-600.084	3.028	-0.115	0.085
-599.069	-104.503	0.310	0.073
-598.055	-125.013	0.151	0.024
-597.040	-200.000	-0.017	0.086
-596.025	-80.133	0.324	-0.110
-595.011	-141.817	0.224	0.023
-593.996	73.420	0.051	-0.054
-592.982	-75.652	0.378	0.136
-591.967	-31.436	-0.034	0.019
-590.952	-200.000	0.005	0.174
-589.938	-200.000	-0.006	-0.218
-588.923	-170.518	-0.352	-0.012
-587.909	43.786	-0.086	0.079
-586.894	-115.506	0.268	0.051
-585.879	-200.000	-0.003	-0.257
-584.865	534.090	-0.080	-0.191
-583.850	-3.253	-0.322	0.227
-582.836	-200.000	-0.026	-0.299
-581.821	52.011	-0.201	0.194
-580.806	80.856	0.137	0.149
-579.792	-200.000	0.012	-0.083
-578.777	-19.703	-0.356	-0.223
-577.763	800.000	-0.049	-0.189
-576.748	-128.778	0.183	0.026
-575.733	461.542	0.047	-0.107
-574.719	-23.700	-0.113	0.068
-573.704	220.796	0.137	-0.223
-572.690	800.000	-0.041	-0.137
-571.675	-200.000	-0.080	-0.372
-570.661	315.105	-0.009	-0.017
-569.646	-181.993	0.259	-0.005
-568.631	-15.458	-0.112	-0.073
-567.617	-12.200	-0.342	0.227
-566.602	-200.000	-0.003	-0.074
-565.588	-200.000	0.024	0.146
-564.573	530.681	-0.035	0.084
-563.558	635.326	-0.086	-0.221
-562.544	-123.862	0.319	-0.051
-561.529	-152.751	0.156	-0.011
-560.515	-98.584	-0.610	-0.157
-559.500	550.759	-0.073	-0.178
-558.485	653.273	-0.048	0.125
-557.471	19.099	0.022	-0.018
-556.456	800.000	-0.035	0.100
-555.442	244.567	0.219	-0.372
-554.427	800.000	0.069	-0.204
-553.412	35.220	0.244	-0.217
-552.398	-112.407	0.138	0.028
-551.383	356.180	-0.037	-0.074
-550.369	32.316	0.134	-0.117
-549.354	541.713	-0.112	0.270
-548.339	-200.000	-0.005	-0.068
-547.325	-200.000	0.009	0.203
-546.310	-102.362	-0.299	-0.072
-545.296	-8.050	0.113	0.077
-544.281	-200.000	0.029	-0.375
-543.266	-123.540	-0.232	0.037
-542.252	-200.000	-0.054	0.355
-541.237	10.827	0.095	-0.073
-540.223	-88.982	0.083	-0.025
-539.208	270.239	0.253	0.449
-538.193	-165.360	-0.135	0.006
-537.179	7.587	-0.073	-0.055
-536.164	664.302	-0.071	0.186
-535.150	418.806	0.094	0.202
-534.135	389.294	0.028	0.058
-533.121	380.035	0.007	0.014
-532.106	18.685	-0.126	-0.102
-531.091	14.976	0.158	-0.125
-530.077	800.000	0.070	0.196
-529.062	1.242	0.119	-0.086
-528.048	-54.303	-0.236	-0.108
-527.033	119.491	-0.106	-0.133
-526.018	-129.592	-0.115	-0.016
-525.004	5.157	0.151	0.112
-523.989	-78.431	-0.131	-0.045
-522.975	56.282	-0.146	-0.143
-521.960	48.933	0.089	0.085
-520.945	51.567	0.236	0.227
-519.931	95.738	-0.037	0.042
-518.916	216.073	-0.125	0.201
-517.902	800.000	-0.099	-0.294
-516.887	800.000	-0.093	-0.336
-515.872	-200.000	-0.016	-0.098
-514.858	-200.000	0.026	0.184
-513.843	-70.123	-0.076	0.029
-512.829	34.095	-0.028	0.025
-511.814	22.208	0.076	0.063
-510.799	-61.224	0.151	0.064
-509.785	-69.444	0.111	-0.043
-508.770	-200.000	-0.018	0.217
-507.756	-200.000	0.034	0.153
-506.741	-187.709	0.284	-0.004
-505.726	-102.831	-0.096	-0.023
-504.712	-141.160	0.221	-0.023
-503.697	70.429	0.215	-0.224
-502.683	-16.263	0.027	-0.017
-501.668	530.991	-0.122	-0.291
-500.653	-2.946	0.053	-0.037
-499.639	87.493	-0.130	0.145
-498.624	154.054	-0.128	0.177
-497.610	728.964	0.017	0.047
-496.595	66.867	0.283	0.291
-495.581	382.885	-0.181	-0.375
-494.566	90.770	0.207	-0.234
-493.551	-20.349	-0.218	-0.135
-492.537	-30.706	0.113	-0.065
-491.522	-200.000	0.013	0.159
-490.508	25.846	-0.094	0.079
-489.493	134.811	0.138	-0.181
-488.478	762.298	-0.089	-0.243
-487.464	190.243	0.276	0.417
-486.449	800.000	-0.022	0.079
-485.435	800.000	0.014	-0.056
-484.420	-134.262	0.021	0.003
-483.405	-66.798	0.094	0.037
-482.391	-200.000	0.001	-0.337
-481.376	-140.620	0.416	-0.043
-480.362	680.006	-0.021	0.056
-479.347	153.047	0.228	0.315
-478.332	-200.000	-0.041	0.246
-477.318	494.019	-0.114	0.263
-476.303	-200.000	-0.001	0.178
-475.289	-200.000	-0.024	-0.130
-474.274	-156.201	-0.027	0.002
-473.259	55.025	-0.207	-0.202
-472.245	110.022	0.080	-0.096
-471.230	-136.811	0.369	0.043
-470.216	137.745	0.118	-0.155
-469.201	-42.674	-0.143	0.073
-468.186	-99.766	0.173	0.044
-467.172	273.512	-0.075	0.134
-466.157	-179.810	0.079	0.002
-465.143	-135.992	-0.331	-0.039
-464.128	-200.000	0.002	0.099
-463.113	-13.439	0.148	-0.097
-462.099	800.000	-0.057	0.196
-461.084	90.184	-0.242	0.272
-460.070	138.016	0.027	0.036
-459.055	-46.621	0.337	-0.166
-458.040	-67.723	0.071	0.028
-457.026	783.591	-0.091	-0.251
-456.011	-200.000	0.034	-0.321
-454.997	-30.188	-0.144	0.082
-453.982	-200.000	-0.015	0.157
-452.968	-102.308	-0.274	-0.066
-451.953	-200.000	-0.007	-0.054
-450.938	-150.822	0.253	0.019
-449.924	402.772	-0.092	0.196
-448.909	85.259	-0.095	0.105
-447.895	46.617	-0.119	0.111
-446.880	13.977	0.168	0.131
-445.865	800.000	-0.032	-0.094
-444.851	-56.874	0.145	0.065
-443.836	370.826	0.099	-0.201
-442.822	800.000	0.025	0.080
-441.807	-91.440	0.469	-0.135
-440.792	206.235	0.228	-0.357
-439.778	58.061	-0.120	-0.119
-438.763	197.803	-0.058	0.089
-437.749	66.551	0.092	-0.094
-436.734	-133.161	-0.238	-0.030
-435.719	-108.624	0.169	0.037
-434.705	172.238	0.081	0.117
-433.690	55.596	-0.204	-0.198
-432.676	-128.745	-0.280	-0.040
-431.661	-107.016	-0.204	-0.045
-430.646	16.950	0.076	0.061
-429.632	506.345	-0.040	-0.093
-428.617	-200.000	-0.046	-0.243
-427.603	-123.914	-0.191	-0.030
-426.588	-69.233	-0.121	0.047
-425.573	-18.372	0.034	-0.021
-424.559	25.409	0.074	0.062
-423.544	-70.990	0.080	-0.030
-422.530	-130.989	-0.375	0.050
-421.515	75.007	-0.111	-0.118
-420.500	250.694	0.245	-0.419
-419.486	60.193	0.190	-0.190
-418.471	-200.000	-0.049	-0.344
-417.457	468.572	0.159	-0.358
-416.442	-119.420	-0.378	0.066
-415.428	310.841	-0.046	-0.086
-414.413	-187.262	-0.255	0.003
-413.398	-45.900	-0.200	0.099
-412.384	800.000	0.066	-0.192
-411.369	177.323	-0.120	-0.175
-410.355	-55.968	-0.353	0.158
-409.340	-157.598	0.248	-0.015
-408.325	-80.521	0.486	-0.163
-407.311	800.000	-0.053	-0.157
-406.296	-10.179	-0.083	0.056
-405.282	122.056	-0.084	-0.106
-404.267	566.511	-0.047	0.114
-403.252	156.125	-0.160	0.223
-402.238	-200.000	-0.021	-0.233
-401.223	800.000	0.055	0.171
-400.209	800.000	-0.095	0.273
-399.194	7.157	0.186	0.140
-398.179	86.903	0.225	0.249
-397.165	-40.609	-0.119	-0.062
-396.150	307.074	-0.048	-0.089
-395.136	62.419	-0.219	-0.220
-394.121	800.000	-0.046	-0.174
-393.106	58.219	-0.150	0.148
-392.092	-200.000	0.047	0.210
-391.077	238.269	-0.072	0.120
-390.063	40.049	-0.088	-0.079
-389.048	35.465	-0.187	-0.165
-388.033	13.091	-0.145	-0.113
-387.019	361.658	-0.133	0.268
-386.004	-11.065	0.068	-0.045
-384.990	-44.561	0.079	0.040
-383.975	-121.268	-0.316	-0.053
-382.960	268.773	0.046	-0.081
-381.946	-4.442	-0.311	-0.216
-380.931	-129.169	-0.142	0.020
-379.917	-93.234	-0.239	0.067
-378.902	-131.711	-0.120	0.016
-377.888	-68.539	0.070	0.027
-376.873	127.009	0.140	0.179
-375.858	-156.732	-0.214	0.013
-374.844	104.050	0.026	-0.031
-373.829	228.926	-0.071	0.117
-372.815	-30.148	-0.198	0.113
-371.800	41.853	0.136	-0.124
-370.785	317.030	0.064	-0.122
-369.771	-71.601	-0.305	-0.114
-368.756	97.190	0.259	0.299
-367.742	-175.933	0.315	-0.008
-366.727	-108.604	0.086	0.018
-365.712	-1.479	0.178	0.126
-364.698	-118.325	-0.330	-0.059
-363.683	-36.645	0.150	0.081
-362.669	-118.917	0.167	0.029
-361.654	66.550	0.271	-0.276
-360.639	-200.000	-0.050	-0.221
-359.625	522.607	-0.146	0.343
-358.610	81.055	-0.217	0.235
-357.596	157.925	0.221	-0.307
-356.581	-200.000	-0.025	-0.219
-355.566	-83.018	0.099	-0.032
-354.552	800.000	0.092	-0.262
-353.537	159.580	0.262	0.366
-352.523	650.774	0.129	-0.333
-351.508	158.752	0.217	-0.303
-350.493	-200.000	-0.083	0.411
-349.479	21.759	0.125	0.102
-348.464	800.000	0.055	0.166
-347.450	-106.916	0.232	0.052
-346.435	-5.174	0.326	-0.225
-345.420	-200.000	0.089	0.464
-344.406	-101.257	0.346	0.085
-343.391	-59.845	-0.224	0.096
-342.377	-8.891	0.289	-0.194
-341.362	-114.549	-0.340	0.065
-340.348	-131.851	0.059	-0.008
-339.333	-107.509	0.199	-0.044
-338.318	800.000	-0.057	-0.238
-337.304	71.822	0.052	0.054
-336.289	45.295	-0.171	-0.158
-335.275	-181.246	0.124	-0.002
-334.260	-200.000	-0.004	-0.047
-333.245	-200.000	-0.000	0.398
-332.231	77.506	0.244	-0.261
-331.216	-163.381	0.284	0.014
-330.202	681.232	-0.101	-0.265
-329.187	-200.000	-0.045	-0.377
-328.172	-185.456	-0.111	-0.002
-327.158	88.125	0.123	-0.137
-326.143	-106.351	0.096	0.021
-325.129	121.366	0.183	0.228
-324.114	16.743	0.042	0.033
-323.099	65.257	0.186	-0.188
-322.085	-101.531	0.145	0.035
-321.070	309.972	0.118	-0.222
-320.056	55.709	-0.124	0.120
-319.041	125.106	-0.130	-0.164
-318.026	-81.302	0.145	0.048
-317.012	106.379	0.093	-0.110
-315.997	259.469	0.168	0.291
-314.983	247.177	-0.096	-0.163
-313.968	-200.000	-0.017	-0.272
-312.953	778.937	-0.032	-0.087
-311.939	-200.000	0.061	0.299
-310.924	-200.000	-0.021	0.128
-309.910	-50.437	-0.092	0.043
-308.895	-200.000	0.026	-0.197
-307.880	-171.062	0.234	0.008
-306.866	800.000	0.051	0.178
-305.851	-189.417	-0.157	-0.002
-304.837	188.076	0.080	0.120
-303.822	-40.320	0.359	0.187
-302.807	652.961	0.051	-0.131
-301.793	-200.000	0.061	0.489
-300.778	63.785	-0.273	0.275
-299.764	46.788	0.135	0.126
-298.749	-200.000	0.009	0.060
-297.735	670.695	-0.056	-0.145
-296.720	800.000	0.058	-0.172
-295.705	346.196	-0.176	0.346
-294.691	184.742	-0.124	-0.185
-293.676	-200.000	-0.031	-0.171
-292.662	-20.645	0.114	-0.070
-291.647	774.530	-0.050	0.137
-290.632	-75.903	0.098	0.035
-289.618	-200.000	0.044	-0.458
-288.603	260.437	0.103	0.179
-287.589	49.791	-0.158	0.149
-286.574	134.795	-0.078	-0.101
-285.559	-200.000	-0.041	0.202
-284.545	800.000	0.078	0.253
-283.530	207.748	0.077	0.120
-282.516	800.000	-0.029	0.082
-281.501	800.000	-0.057	-0.182
-280.486	-200.000	0.004	0.192
-279.472	800.000	0.062	0.214
-278.457	-140.545	-0.197	-0.020
-277.443	263.171	-0.181	0.315
-276.428	478.565	-0.147	-0.333
-275.413	800.000	0.057	0.226
-274.399	45.804	-0.239	0.221
-273.384	306.840	0.069	-0.129
-272.370	-17.700	0.080	-0.050
-271.355	-120.862	-0.119	-0.020
-270.340	-16.948	0.188	-0.119
-269.326	229.270	0.105	-0.171
-268.311	-91.983	-0.010	-0.003
-267.297	472.230	0.083	0.186
-266.282	575.191	-0.059	-0.144
-265.267	601.102	-0.170	-0.423
-264.253	56.978	0.095	0.092
-263.238	-4.157	0.026	0.018
-262.224	18.096	0.081	-0.064
-261.209	-200.000	-0.002	0.057
-260.195	773.954	-0.053	0.145
-259.180	-131.178	-0.119	-0.016
-258.165	124.508	-0.021	0.026
-257.151	58.059	0.066	-0.065
-256.136	267.367	0.228	0.399
-255.122	298.573	-0.203	0.373
-254.107	-200.000	0.024	0.148
-253.092	97.955	-0.081	0.093
-252.078	-9.105	-0.306	0.204
-251.063	-44.898	-0.091	0.045
-250.049	-132.822	0.337	0.043
-249.034	-28.532	-0.305	-0.176
-248.019	50.707	-0.122	-0.115
-247.005	-123.953	-0.310	0.049
-245.990	-177.772	0.218	0.005
-244.976	460.097	0.122	0.273
-243.961	389.072	0.048	0.099
-242.946	800.000	-0.023	0.074
-241.932	213.194	0.094	0.149
-240.917	24.394	-0.175	0.145
-239.903	-7.889	-0.106	-0.071
-238.888	-131.685	-0.261	0.034
-237.873	-22.504	-0.109	0.066
-236.859	-66.480	-0.063	0.025
-235.844	-87.307	-0.255	0.077
-234.830	-77.216	0.328	0.114
-233.815	-74.447	0.544	-0.196
-232.800	61.441	0.272	0.270
-231.786	7.766	-0.117	-0.088
-230.771	-8.081	0.301	-0.203
-229.757	-85.941	0.229	-0.071
-228.742	7.731	-0.221	0.165
-227.727	-178.830	-0.199	0.005
-226.713	269.474	-0.109	-0.191
-225.698	-200.000	-0.024	-0.243
-224.684	-83.540	-0.133	-0.043
-223.669	57.980	-0.328	-0.321
-222.655	-109.252	0.255	-0.054
-221.640	114.290	0.089	0.108
-220.625	-75.147	-0.356	-0.127
-219.611	-200.000	0.016	-0.071
-218.596	-92.748	-0.232	-0.065
-217.582	191.999	-0.141	-0.212
-216.567	800.000	0.074	-0.278
-215.552	-70.162	0.058	0.022
-214.538	800.000	0.034	0.101
-213.523	35.171	-0.258	0.225
-212.509	-49.154	-0.270	-0.129
-211.494	-87.589	-0.074	0.022
-210.479	595.896	-0.155	0.384
-209.465	-200.000	0.001	0.023
-208.450	-106.173	-0.171	-0.038
-207.436	-200.000	0.008	-0.183
-206.421	83.648	0.190	-0.206
-205.406	-92.144	-0.164	-0.046
-204.392	-78.286	0.129	0.044
-203.377	159.378	-0.356	0.494
-202.363	-64.878	-0.419	0.169
-201.348	-26.415	-0.134	0.078
-200.333	-200.000	-0.027	-0.312
-199.319	669.435	0.045	-0.117
-198.304	-5.672	0.180	0.123
-197.290	-124.430	0.194	-0.030
-196.275	15.802	0.289	0.227
-195.260	175.244	-0.288	0.416
-194.246	-200.000	0.023	0.104
-193.231	-200.000	-0.002	0.182
-192.217	-45.727	0.363	-0.179
-191.202	12.223	0.086	0.066
-190.187	-128.654	0.017	0.002
-189.173	-200.000	-0.001	0.008
-188.158	800.000	-0.020	-0.058
-187.144	186.375	0.062	0.092
-186.129	336.945	-0.086	0.166
-185.114	81.969	-0.183	0.197
-184.100	-119.158	0.406	-0.071
-183.085	-36.456	-0.067	0.036
-182.071	158.300	-0.199	0.275
-181.056	716.655	0.147	0.388
-180.042	117.016	0.214	0.262
-179.027	113.598	0.285	0.345
-178.012	152.710	-0.194	0.264
-176.998	-134.384	-0.182	-0.022
-175.983	-144.251	0.181	0.017
-174.969	205.558	0.110	0.171
-173.954	800.000	0.108	-0.315
-172.939	-15.694	0.134	-0.085
-171.925	-12.596	-0.187	0.122
-170.910	800.000	0.115	-0.364
-169.896	-141.421	-0.098	0.010
-168.881	-16.571	-0.185	-0.117
-167.866	18.481	-0.239	0.190
-166.852	140.466	-0.159	0.209
-165.837	800.000	0.019	-0.060
-164.823	203.417	0.070	0.107
-163.808	700.465	-0.078	-0.205
-162.793	358.103	-0.239	-0.475
-161.779	225.835	-0.160	-0.259
-160.764	-108.523	0.362	-0.077
-159.750	8.950	-0.185	-0.139
-158.735	-105.121	-0.295	0.067
-157.720	800.000	-0.102	-0.282
-156.706	301.656	-0.131	-0.242
-155.691	30.972	0.139	-0.119
-154.677	-141.874	0.349	0.035
-153.662	322.318	0.068	0.130
-152.647	800.000	0.080	-0.239
-151.633	-65.928	-0.379	-0.151
-150.618	-114.867	-0.095	-0.018
-149.604	-200.000	0.030	0.236
-148.589	35.947	-0.239	0.209
-147.574	199.460	-0.107	-0.164
-146.560	-162.561	0.422	0.021
-145.545	-92.190	-0.196	-0.055
-144.531	-117.542	0.256	0.046
-143.516	145.776	-0.222	-0.296
-142.502	-150.057	0.030	-0.002
-141.487	214.093	-0.123	-0.194
-140.472	95.370	-0.070	0.080
-139.458	-88.998	0.332	-0.098
-138.443	228.790	-0.303	-0.492
-137.429	-154.315	0.205	0.014
-136.414	82.962	0.366	0.396
-135.399	605.771	0.030	-0.074
-134.385	-14.092	0.113	-0.073
-133.370	-65.291	0.266	0.107
-132.356	-200.000	-0.009	-0.093
-131.341	1.308	0.119	-0.085
-130.326	-141.597	-0.113	-0.011
-129.312	-63.178	0.193	-0.079
-128.297	11.237	0.040	0.031
-127.283	800.000	-0.051	-0.203
-126.268	-71.544	0.390	-0.145
-125.253	-200.000	-0.003	0.263
-124.239	-18.403	-0.144	-0.089
-123.224	-72.476	-0.381	0.140
-122.210	800.000	0.085	-0.237
-121.195	130.774	0.199	0.253
-120.180	-102.889	0.201	-0.048
-119.166	69.912	-0.241	-0.247
-118.151	-142.595	-0.043	0.004
-117.137	-64.468	-0.231	-0.093
-116.122	34.992	-0.096	0.083
-115.107	-16.906	0.141	0.089
-114.093	229.507	0.145	-0.235
-113.078	-200.000	-0.007	-0.506
-112.064	-104.210	0.154	-0.036
-111.049	-52.481	-0.162	-0.074
-110.034	6.323	0.221	-0.163
-109.020	110.560	-0.066	0.079
-108.005	-112.322	-0.156	0.031
-106.991	-142.775	0.370	-0.036
-105.976	-155.757	0.078	-0.005
-104.962	-24.850	0.197	-0.116
-103.947	-88.721	0.128	0.038
-102.932	-144.989	-0.468	0.042
-101.918	-181.078	-0.243	-0.005
-100.903	60.985	0.154	-0.152
-99.889	81.243	0.276	0.297
-98.874	-150.512	0.165	0.013
-97.859	-72.517	-0.054	-0.020
-96.845	-53.038	0.087	0.040
-95.830	-78.415	0.135	0.046
-94.816	139.516	-0.155	0.202
-93.801	800.000	0.062	-0.200
-92.786	354.032	0.111	-0.219
-91.772	259.415	0.147	0.252
-90.757	-90.147	0.096	-0.028
-89.743	-192.223	0.088	-0.001
-88.728	46.104	-0.037	0.034
-87.713	800.000	0.062	0.173
-86.699	410.490	0.053	-0.112
-85.684	800.000	0.082	-0.247
-84.670	304.355	-0.250	-0.461
-83.655	-46.128	-0.099	-0.048
-82.640	23.458	-0.078	0.064
-81.626	198.183	-0.068	0.103
-80.611	-71.034	0.174	0.065
-79.597	-200.000	-0.002	-0.038
-78.582	-1.268	0.309	-0.217
-77.567	800.000	-0.054	-0.230
-76.553	13.993	-0.105	-0.081
-75.538	800.000	0.112	-0.422
-74.524	-200.000	-0.052	-0.233
-73.509	-200.000	0.023	0.283
-72.494	-200.000	-0.010	0.228
-71.480	800.000	0.084	-0.268
-70.465	-28.412	-0.179	0.102
-69.451	417.803	-0.168	-0.357
-68.436	324.722	0.147	0.280
-67.422	800.000	-0.042	-0.134
-66.407	7.226	-0.126	0.093
-65.392	190.004	-0.191	-0.285
-64.378	142.633	0.143	-0.189
-63.363	-200.000	0.003	-0.167
-62.349	800.000	-0.034	0.094
-61.334	56.025	-0.598	-0.576
-60.319	-161.645	0.124	-0.006
-59.305	-200.000	-0.135	-0.718
-58.290	156.921	0.593	0.814
-57.276	328.903	0.744	1.419
-56.261	-200.000	80.728	496.051
-55.246	561.251	1359.889	3261.610
-54.232	184.238	2594.850	3811.832
-53.217	114.954	2358.421	2854.395
-52.203	47.902	1968.609	1824.170
-51.188	42.218	1753.422	1580.070
-50.173	39.542	1706.992	1517.599
-49.159	53.905	1745.226	1663.512
-48.144	58.076	1763.739	1713.516
-47.130	42.100	1725.889	1554.097
-46.115	39.177	1711.803	1518.811
-45.100	38.931	1707.413	1512.957
-44.086	39.030	1704.089	1510.716
-43.071	38.978	1701.610	1508.060
-42.057	38.937	1699.332	1505.663
-41.042	38.969	1696.942	1503.734
-40.027	38.878	1695.349	1501.568
-39.013	38.882	1693.170	1499.607
-37.998	38.913	1691.598	1498.394
-36.984	38.948	1689.978	1497.162
-35.969	39.030	1688.363	1496.297
-34.954	39.063	1687.124	1495.395
-33.940	39.134	1684.777	1493.794
-32.925	39.064	1682.960	1491.589
-31.911	39.049	1681.714	1490.316
-30.896	39.054	1679.546	1488.370
-29.881	39.077	1677.438	1486.615
-28.867	39.082	1676.288	1485.577
-27.852	39.121	1674.616	1484.334
-26.838	39.122	1673.395	1483.196
-25.823	39.165	1672.201	1482.404
-24.809	39.074	1670.979	1480.579
-23.794	39.161	1669.003	1479.425
-22.779	39.187	1667.387	1478.127
-21.765	39.076	1665.503	1475.567
-20.750	39.016	1664.443	1474.117
-19.736	39.098	1662.336	1472.810
-18.721	39.132	1661.204	1472.003
-17.706	39.125	1659.683	1470.539
-16.692	39.075	1658.178	1468.773
-15.677	39.087	1656.399	1467.233
-14.663	39.090	1655.467	1466.368
-13.648	39.051	1653.886	1464.618
-12.633	39.091	1652.098	1463.276
-11.619	39.132	1650.230	1461.872
-10.604	38.942	1649.137	1459.435
-9.590	39.077	1647.438	1458.872
-8.575	39.085	1646.532	1458.072
-7.560	39.012	1645.433	1456.501
-6.546	39.142	1644.037	1456.165
-5.531	39.013	1643.218	1454.432
-4.517	39.067	1641.400	1453.162
-3.502	39.063	1640.501	1452.283
-2.487	39.121	1638.819	1451.160
-1.473	38.904	1627.282	1439.296
-0.458	36.134	1606.908	1401.125
0.556	33.425	1605.676	1362.795
1.571	30.579	1629.418	1362.009
2.586	29.412	1642.727	1364.387
3.600	25.498	1587.005	1289.960
4.615	15.192	1470.640	1126.355
5.629	6.591	1400.684	1017.397
6.644	5.183	1391.696	1001.747
7.659	5.084	1389.690	999.585
8.673	5.041	1389.038	998.752
9.688	5.001	1387.753	997.483
10.702	4.999	1385.250	995.580
11.717	8.587	1391.873	1023.236
12.731	17.566	1408.921	1093.580
13.746	22.219	1415.449	1128.485
14.761	21.153	1411.805	1118.656
15.775	19.869	1409.068	1108.172
16.790	18.908	1406.070	1099.569
17.804	17.965	1404.310	1092.071
18.819	17.657	1402.798	1088.830
19.834	17.386	1401.118	1085.703
20.848	17.149	1400.259	1083.426
21.863	17.027	1398.744	1081.383
22.877	16.765	1397.677	1078.793
23.892	16.674	1397.047	1077.633
24.907	16.676	1396.289	1076.966
25.921	16.765	1395.284	1076.658
26.936	16.823	1394.289	1076.166
27.950	16.752	1393.719	1075.179
28.965	16.863	1392.564	1074.899
29.980	17.054	1390.750	1074.608
30.994	17.024	1390.087	1073.816
32.009	17.144	1388.756	1073.451
33.023	17.117	1387.373	1072.116
34.038	16.983	1386.516	1070.513
35.053	16.956	1384.536	1068.716
36.067	16.972	1383.491	1067.918
37.082	16.919	1382.945	1067.067
38.096	16.971	1382.050	1066.609
39.111	16.963	1381.061	1065.702
40.126	16.960	1380.290	1064.994
41.140	16.734	1379.418	1062.812
42.155	16.538	1379.361	1061.439
43.169	16.596	1378.760	1061.247
44.184	16.596	1378.352	1060.839
45.199	16.660	1377.757	1060.687
46.213	16.682	1377.299	1060.383
47.228	16.825	1376.667	1060.696
48.242	16.911	1375.230	1060.030
49.257	16.856	1373.937	1058.599
50.271	16.825	1371.919	1056.754
51.286	16.899	1370.985	1056.402
52.301	16.809	1369.859	1054.885
53.315	16.836	1368.459	1053.881
54.330	16.734	1367.831	1052.670
55.344	16.698	1366.203	1051.099
56.359	16.634	1365.155	1049.805
57.374	16.683	1364.490	1049.501
58.388	16.634	1363.561	1048.393
59.403	16.563	1363.263	1047.627
60.417	16.623	1362.253	1047.134
61.432	16.507	1361.545	1045.777
62.447	16.528	1360.483	1045.000
63.461	16.540	1359.211	1044.004
64.476	16.442	1357.809	1042.231
65.490	16.453	1356.707	1041.360
66.505	16.538	1355.014	1040.495
67.520	16.483	1354.019	1039.300
68.534	16.641	1352.674	1039.145
69.549	16.626	1351.502	1038.060
70.563	16.532	1350.777	1036.837
71.578	16.459	1349.575	1035.373
72.593	16.503	1348.282	1034.557
73.607	16.317	1347.933	1033.064
74.622	16.438	1347.059	1033.042
75.636	16.385	1347.082	1032.644
76.651	16.337	1346.313	1031.665
77.666	16.407	1345.592	1031.451
78.680	16.348	1345.073	1030.604
79.695	16.455	1343.708	1030.115
80.709	16.513	1343.542	1030.253
81.724	16.538	1342.489	1029.504
82.739	16.700	1341.557	1029.686
83.753	16.783	1340.831	1029.542
84.768	16.944	1339.856	1029.679
85.782	16.898	1339.059	1028.699
86.797	16.838	1337.487	1027.038
87.812	16.821	1335.937	1025.648
88.826	16.777	1335.207	1024.733
89.841	16.773	1333.864	1023.589
90.855	16.781	1333.240	1023.068
91.870	16.954	1331.775	1022.897
92.884	17.037	1330.845	1022.590
93.899	17.041	1330.028	1021.896
94.914	17.071	1329.223	1021.366
95.928	17.036	1328.454	1020.480
96.943	17.048	1327.503	1019.731
97.957	16.953	1326.796	1018.522
98.972	16.926	1325.537	1017.308
99.987	16.902	1324.846	1016.540
101.001	16.959	1323.504	1015.763
102.016	16.829	1322.666	1014.251
103.030	16.853	1322.047	1013.829
104.045	16.908	1320.981	1013.253
105.060	16.753	1319.727	1011.275
106.074	16.768	1317.812	1009.810
107.089	16.653	1316.513	1008.039
108.103	16.475	1315.381	1006.025
109.118	16.560	1314.079	1005.441
110.133	16.556	1312.846	1004.389
111.147	16.493	1311.699	1003.045
112.162	16.509	1310.741	1002.323
113.176	16.595	1309.219	1001.576
114.191	16.649	1308.474	1001.239
115.206	16.648	1307.360	1000.290
116.220	16.655	1305.956	999.169
117.235	16.719	1304.364	998.240
118.249	16.710	1303.121	997.148
119.264	16.584	1302.310	995.701
120.279	16.636	1300.816	994.776
121.293	16.445	1300.479	993.305
122.308	16.614	1299.282	993.295
123.322	16.471	1298.059	991.437
124.337	16.484	1296.902	990.537
125.352	16.438	1295.915	989.427
126.366	16.465	1294.565	988.471
127.381	16.506	1293.556	987.851
128.395	16.455	1292.991	987.036
129.410	16.554	1291.743	986.573
130.424	16.570	1290.938	985.963
131.439	16.648	1289.863	985.506
132.454	16.618	1289.419	984.908
133.468	16.630	1288.257	984.002
134.483	16.695	1287.764	983.916
135.497	16.652	1286.893	982.915
136.512	16.706	1285.286	981.914
137.527	16.638	1284.309	980.685
138.541	16.698	1282.601	979.639
139.556	16.802	1280.709	978.713
140.570	16.810	1279.988	978.122
141.585	16.868	1279.156	977.729
142.600	16.964	1277.984	977.305
143.614	16.995	1276.830	976.509
144.629	16.917	1275.955	975.307
145.643	17.003	1274.477	974.583
146.658	16.918	1273.148	972.997
147.673	16.813	1271.954	971.393
148.687	16.738	1270.545	969.802
149.702	16.724	1269.085	968.521
150.716	16.686	1268.163	967.518
151.731	16.629	1267.225	966.388
152.746	16.819	1265.196	965.837
153.760	16.839	1264.411	965.270
154.775	16.787	1263.444	964.151
155.789	16.921	1262.628	964.202
156.804	16.969	1261.225	963.317
157.819	16.971	1260.171	962.443
158.833	17.005	1259.580	962.098
159.848	17.031	1258.918	961.655
160.862	17.026	1257.512	960.465
161.877	16.952	1256.337	959.067
162.892	16.738	1255.308	956.985
163.906	16.825	1254.149	956.511
164.921	16.708	1253.319	955.134
165.935	16.828	1252.465	955.070
166.950	16.956	1251.687	955.116
167.964	16.897	1251.018	954.190
168.979	16.892	1250.687	953.823
169.994	16.972	1249.423	953.226
171.008	16.891	1248.678	952.119
172.023	17.103	1247.837	952.580
173.037	17.056	1247.768	952.178
174.052	17.046	1246.016	950.706
175.067	16.944	1245.169	949.402
176.081	16.853	1244.347	948.182
177.096	16.870	1243.382	947.458
178.110	16.810	1242.311	946.221
179.125	17.004	1240.591	945.912
180.140	17.059	1239.451	945.265
181.154	16.995	1238.298	943.948
182.169	16.990	1237.574	943.281
183.183	17.107	1236.211	942.808
184.198	17.160	1235.235	942.273
185.213	17.264	1233.685	941.588
186.227	17.219	1232.590	940.420
187.242	17.252	1231.778	939.899
188.256	17.282	1230.802	939.233
189.271	17.356	1229.786	938.785
190.286	17.098	1228.872	936.581
191.300	16.909	1227.802	934.642
192.315	16.820	1227.110	933.544
193.329	16.862	1226.315	933.086
194.344	16.917	1225.655	932.806
195.359	17.081	1225.385	933.416
196.373	17.091	1225.185	933.235
197.388	17.272	1224.396	933.546
198.402	17.393	1223.896	933.749
199.417	17.421	1223.503	933.521
200.432	17.505	1222.360	933.027
201.446	17.507	1221.550	932.335
202.461	17.574	1220.790	932.041
203.475	17.655	1219.133	931.133
204.490	17.503	1218.213	929.521
205.504	17.373	1216.744	927.609
206.519	17.415	1215.538	926.837
207.534	17.324	1214.593	925.537
208.548	17.315	1213.585	924.639
209.563	17.325	1212.730	923.961
210.577	17.425	1211.991	923.860
211.592	17.431	1211.342	923.314
212.607	17.619	1210.289	923.447
213.621	17.546	1209.582	922.434
214.636	17.590	1208.438	921.715
215.650	17.509	1207.586	920.546
216.665	17.640	1206.290	920.183
217.680	17.729	1205.746	920.170
218.694	17.742	1204.997	919.585
219.709	17.732	1204.189	918.833
220.723	17.715	1203.252	917.946
221.738	17.629	1202.612	916.913
222.753	17.721	1201.786	916.697
223.767	17.791	1200.835	916.268
224.782	17.812	1200.731	916.219
225.796	17.833	1200.468	916.048
226.811	17.931	1199.457	915.722
227.826	17.800	1198.769	914.416
228.840	17.663	1198.109	913.099
229.855	17.674	1197.739	912.792
230.869	17.852	1196.266	912.543
231.884	17.722	1195.350	911.070
232.899	17.635	1194.531	909.900
233.913	17.580	1194.158	909.240
234.928	17.666	1193.532	909.139
235.942	17.714	1192.021	908.165
236.957	17.544	1191.604	906.863
237.972	17.611	1190.978	906.662
238.986	17.643	1190.286	906.225
240.001	17.623	1189.657	905.558
241.015	17.692	1188.566	905.014
242.030	17.706	1187.804	904.428
243.045	17.862	1186.734	904.362
244.059	17.866	1186.078	903.801
245.074	17.820	1185.638	903.146
246.088	17.975	1184.502	903.020
247.103	17.969	1183.933	902.472
248.117	18.042	1183.057	902.109
249.132	18.171	1182.453	902.250
250.147	18.372	1181.762	902.705
251.161	18.291	1181.544	902.031
252.176	18.295	1180.874	901.463
253.190	18.329	1180.210	901.052
254.205	18.376	1179.235	900.474
255.220	18.405	1178.928	900.311
256.234	18.298	1178.556	899.390
257.249	18.397	1177.889	899.319
258.263	18.422	1177.032	898.714
259.278	18.401	1176.266	897.944
260.293	18.409	1175.856	897.592
261.307	18.478	1175.442	897.558
262.322	18.549	1174.168	896.878
263.336	18.520	1173.813	896.373
264.351	18.576	1173.250	896.159
265.366	18.641	1172.161	895.587
266.380	18.614	1172.122	895.336
267.395	18.648	1170.399	894.117
268.409	18.471	1170.000	892.814
269.424	18.516	1169.259	892.399
270.439	18.515	1169.063	892.169
271.453	18.477	1168.246	891.267
272.468	18.474	1166.986	890.210
273.482	18.360	1166.608	889.255
274.497	18.517	1165.719	889.309
275.512	18.441	1165.418	888.606
276.526	18.404	1164.707	887.796
277.541	18.456	1163.516	887.079
278.555	18.525	1162.603	886.663
279.570	18.611	1162.119	886.657
280.585	18.697	1161.527	886.572
281.599	18.750	1160.352	885.871
282.614	18.661	1159.196	884.450
283.628	18.558	1158.219	883.097
284.643	18.597	1157.611	882.757
285.657	18.626	1156.772	882.188
286.672	18.609	1155.712	881.212
287.687	18.563	1154.685	880.117
288.701	18.676	1154.123	880.191
289.716	18.671	1153.101	879.306
290.730	18.667	1152.695	878.896
291.745	18.732	1151.894	878.541
292.760	18.700	1151.282	877.836
293.774	18.853	1150.552	877.983
294.789	18.843	1150.004	877.434
295.803	18.819	1149.599	876.925
296.818	18.702	1148.835	875.670
297.833	18.755	1147.767	875.048
298.847	18.814	1146.908	874.614
299.862	18.747	1146.257	873.699
300.876	18.720	1145.748	873.099
301.891	18.888	1145.171	873.434
302.906	18.986	1144.006	872.966
303.920	19.040	1143.376	872.684
304.935	19.070	1142.914	872.405
305.949	19.244	1141.841	872.390
306.964	19.235	1141.161	871.747
307.979	19.116	1140.266	870.387
308.993	18.985	1139.999	869.441
310.008	19.052	1139.199	869.095
311.022	19.139	1138.672	869.055
312.037	19.110	1137.647	868.046
313.052	19.132	1136.521	867.225
314.066	18.959	1135.700	865.648
315.081	18.873	1134.911	864.536
316.095	18.991	1133.707	864.136
317.110	18.916	1133.102	863.222
318.125	18.965	1132.737	863.116
319.139	18.928	1131.832	862.165
320.154	19.048	1131.015	862.066
321.168	18.878	1130.428	860.693
322.183	18.881	1130.132	860.404
323.197	19.001	1129.486	860.439
324.212	18.998	1128.702	859.749
325.227	19.079	1128.376	859.827
326.241	19.016	1127.672	858.904
327.256	19.063	1126.325	858.033
328.270	18.984	1125.751	857.126
329.285	19.130	1124.400	856.748
330.300	18.982	1123.891	855.550
331.314	19.055	1122.772	854.985
332.329	19.094	1121.684	854.275
333.343	19.073	1120.879	853.482
334.358	19.141	1120.167	853.201
335.373	19.244	1119.593	853.199
336.387	19.349	1118.899	853.115
337.402	19.324	1118.109	852.313
338.416	19.361	1117.406	851.882
339.431	19.468	1116.625	851.743
340.446	19.478	1116.407	851.546
341.460	19.453	1115.692	850.804
342.475	19.589	1114.648	850.601
343.489	19.663	1113.912	850.332
344.504	19.593	1112.915	849.152
345.519	19.552	1112.121	848.269
346.533	19.779	1111.191	848.598
347.548	19.772	1110.546	847.993
348.562	19.701	1109.651	846.888
349.577	19.651	1108.444	845.650
350.592	19.606	1107.861	844.911
351.606	19.446	1107.225	843.565
352.621	19.389	1106.346	842.543
353.635	19.383	1105.750	841.988
354.650	19.447	1104.924	841.592
355.665	19.525	1104.253	841.388
356.679	19.596	1103.702	841.240
357.694	19.611	1103.395	841.004
358.708	19.560	1102.981	840.367
359.723	19.736	1101.667	840.147
360.738	19.673	1100.951	839.220
361.752	19.679	1100.464	838.805
362.767	19.723	1099.979	838.575
363.781	19.675	1099.541	837.933
364.796	19.828	1099.089	838.254
365.810	19.872	1098.527	837.968
366.825	19.879	1098.148	837.635
367.840	19.975	1097.202	837.307
368.854	20.176	1096.273	837.492
369.869	20.101	1096.079	836.911
370.883	19.932	1095.325	835.445
371.898	19.930	1094.325	834.596
372.913	19.904	1093.895	834.072
373.927	20.025	1092.779	833.730
374.942	20.082	1092.619	833.804
375.956	20.133	1092.140	833.612
376.971	20.114	1091.299	832.804
377.986	20.123	1090.666	832.292
379.000	20.156	1090.542	832.279
380.015	20.237	1089.629	831.899
381.029	20.286	1089.019	831.597
382.044	20.308	1088.239	831.033
383.059	20.255	1087.648	830.253
384.073	20.236	1086.752	829.403
385.088	20.210	1085.866	828.531
386.102	20.236	1084.978	827.905
387.117	20.181	1083.969	826.799
388.132	20.117	1082.853	825.571
389.146	20.116	1081.979	824.825
390.161	20.146	1081.407	824.457
391.175	20.078	1081.083	823.816
392.190	20.150	1080.439	823.596
393.205	20.184	1079.661	823.089
394.219	20.108	1078.883	822.064
395.234	20.247	1077.645	821.704
396.248	20.110	1076.818	820.352
397.263	20.221	1075.354	819.692
398.278	20.065	1074.971	818.587
399.292	19.979	1074.593	817.824
400.307	20.116	1073.182	817.320
401.321	20.184	1072.741	817.237
402.336	20.150	1071.882	816.349
403.350	20.117	1071.572	815.883
404.365	20.188	1070.687	815.471
405.380	20.159	1070.203	814.895
406.394	20.187	1069.193	814.187
407.409	20.318	1068.541	814.233
408.423	20.322	1067.928	813.713
409.438	20.523	1067.334	814.130
410.453	20.571	1066.263	813.465
411.467	20.523	1065.780	812.801
412.482	20.613	1065.027	812.575
413.496	20.665	1064.459	812.311
414.511	20.655	1064.024	811.860
415.526	20.714	1063.780	811.879
416.540	20.845	1063.007	811.825
417.555	20.738	1062.568	810.918
418.569	20.776	1061.961	810.564
419.584	20.688	1061.788	809.951
420.599	20.762	1060.715	809.405
421.613	146.217	1395.406	1764.319
422.628	134.442	1444.159	1764.440
