DTS Sentinel unit serial number:	SN413079Multiplexer serial number:	ORYXHardware model number:	OX4-SRSoftware version number:	ORYX F/W v4.00 Oryx Data Collector v3.7.2.0data status	okinstallation	princeton_trtdifferential loss correction	single-endedforward channel	channel 2reverse channel	N/Adate	2019/09/14time	17:27:35forward acquisition time	60.00reverse acquisition time	0.00gamma	496.2192k internal	0.2310k external	0.2310temperature offset calibration	1.0118default loss term (dB/km)	0.3790temperature slope calibration	1.0000multiplexer offset coefficient	1.0000multiplexer slope coefficient	1.0000fibre end	0.00T internal ref (°C)	37.75T ext. ref 1 (°C)	5.04T ext. ref 2 (°C)	32.26length (m)	temperature (°C)	Stokes	anti-Stokes-747.200	-112.359	0.385	0.078
-746.185	-117.792	-0.250	-0.046
-745.171	-200.000	-0.013	-0.098
-744.156	-200.000	0.062	-0.317
-743.142	4.034	-0.253	-0.188
-742.127	800.000	-0.115	0.465
-741.112	-78.874	-0.215	0.074
-740.098	34.702	0.087	0.078
-739.083	-95.712	0.590	-0.160
-738.069	30.103	-0.126	0.110
-737.054	-200.000	0.058	-0.491
-736.039	127.456	0.227	-0.293
-735.025	290.873	0.175	0.324
-734.010	-37.605	-0.256	0.138
-732.996	-24.448	-0.270	-0.163
-731.981	26.999	-0.206	-0.175
-730.966	-100.263	0.144	-0.036
-729.952	-200.000	-0.008	0.245
-728.937	549.761	0.019	0.046
-727.923	-107.597	-0.189	-0.042
-726.908	91.211	-0.260	-0.297
-725.894	363.175	-0.088	-0.179
-724.879	800.000	-0.064	-0.269
-723.864	-142.939	-0.249	0.024
-722.850	-200.000	0.014	0.140
-721.835	146.214	-0.175	0.238
-720.821	-46.791	-0.155	0.077
-719.806	-27.015	-0.289	0.171
-718.791	800.000	0.077	-0.301
-717.777	306.110	-0.054	-0.102
-716.762	-200.000	-0.031	-0.247
-715.748	8.127	0.136	0.103
-714.733	228.077	-0.163	0.268
-713.718	-200.000	0.022	-0.288
-712.704	800.000	0.070	0.226
-711.689	-200.000	0.006	0.076
-710.675	-16.088	-0.131	0.085
-709.660	-142.680	0.358	0.035
-708.645	-200.000	0.031	0.208
-707.631	655.913	0.066	0.172
-706.616	461.044	-0.022	0.049
-705.602	-98.175	-0.074	-0.019
-704.587	-200.000	0.015	0.069
-703.572	-177.621	0.276	0.007
-702.558	307.509	-0.065	0.122
-701.543	416.719	0.098	-0.211
-700.529	242.806	0.151	-0.256
-699.514	64.243	-0.258	-0.264
-698.499	28.734	-0.058	-0.050
-697.485	182.565	0.066	0.098
-696.470	54.202	0.075	-0.073
-695.456	448.273	-0.102	0.227
-694.441	-138.271	-0.154	0.017
-693.426	37.852	-0.027	0.024
-692.412	800.000	-0.114	-0.376
-691.397	-156.138	-0.105	-0.007
-690.383	-200.000	0.035	-0.281
-689.368	33.284	-0.082	-0.072
-688.354	-102.292	-0.159	-0.039
-687.339	-153.640	-0.329	-0.023
-686.324	800.000	0.006	0.024
-685.310	-200.000	0.014	0.224
-684.295	62.042	0.124	-0.125
-683.281	125.506	-0.166	0.212
-682.266	-200.000	0.005	-0.246
-681.251	65.839	0.077	-0.079
-680.237	221.966	0.116	-0.189
-679.222	-200.000	-0.035	0.200
-678.208	-107.563	-0.094	-0.021
-677.193	367.927	-0.092	-0.188
-676.178	-162.328	-0.099	-0.005
-675.164	-83.392	-0.114	-0.037
-674.149	-105.597	0.252	-0.058
-673.135	-154.396	-0.210	-0.014
-672.120	-143.023	0.037	-0.004
-671.105	16.614	-0.216	0.173
-670.091	106.607	-0.214	-0.257
-669.076	295.316	-0.032	0.060
-668.062	-68.751	-0.386	0.151
-667.047	-200.000	0.011	0.247
-666.032	-98.262	-0.080	-0.021
-665.018	53.990	0.179	0.174
-664.003	203.546	-0.037	-0.058
-662.989	183.967	-0.034	-0.050
-661.974	197.117	0.058	0.090
-660.959	-130.026	0.401	-0.055
-659.945	-110.239	-0.347	-0.073
-658.930	-94.292	-0.350	0.097
-657.916	195.561	-0.081	-0.124
-656.901	-38.950	-0.289	0.154
-655.886	-129.995	0.288	-0.040
-654.872	-122.928	-0.051	0.008
-653.857	165.214	0.063	-0.090
-652.843	-75.682	-0.227	-0.081
-651.828	552.657	0.020	-0.049
-650.814	49.217	-0.183	0.174
-649.799	-133.257	-0.097	0.012
-648.784	800.000	0.066	-0.275
-647.770	-68.048	-0.162	0.064
-646.755	347.113	-0.110	-0.220
-645.741	-35.203	-0.130	-0.072
-644.726	-72.765	-0.416	0.155
-643.711	399.066	-0.053	0.112
-642.697	321.245	-0.050	-0.097
-641.682	51.719	0.123	-0.119
-640.668	35.177	0.076	0.067
-639.653	-64.230	0.124	-0.051
-638.638	-31.861	-0.025	0.014
-637.624	-99.834	-0.057	0.014
-636.609	97.543	0.051	0.059
-635.595	41.850	-0.101	-0.093
-634.580	22.525	-0.241	-0.200
-633.565	135.501	0.132	-0.174
-632.551	67.554	-0.145	-0.150
-631.536	-153.652	0.137	-0.010
-630.522	-70.436	0.305	0.117
-629.507	800.000	-0.011	-0.040
-628.492	315.292	-0.084	-0.160
-627.478	-46.865	0.261	-0.129
-626.463	-63.455	0.179	-0.074
-625.449	-200.000	-0.023	0.233
-624.434	36.044	-0.268	-0.239
-623.419	-166.580	-0.072	0.003
-622.405	130.857	-0.056	0.072
-621.390	-47.239	0.362	-0.178
-620.376	-118.686	0.358	0.064
-619.361	-200.000	-0.029	0.282
-618.346	-200.000	-0.001	-0.021
-617.332	800.000	-0.077	0.221
-616.317	792.188	0.138	-0.383
-615.303	269.301	0.047	-0.084
-614.288	-62.670	0.127	0.053
-613.273	-81.367	-0.297	0.099
-612.259	327.630	0.032	0.061
-611.244	-82.527	-0.083	-0.027
-610.230	639.810	0.066	-0.170
-609.215	-173.914	-0.192	-0.006
-608.201	800.000	-0.054	-0.198
-607.186	-200.000	0.264	-0.001
-606.171	39.188	0.136	0.123
-605.157	-58.858	-0.289	0.126
-604.142	85.029	-0.072	0.079
-603.128	66.120	-0.280	-0.287
-602.113	-46.278	0.244	-0.121
-601.098	800.000	-0.066	0.194
-600.084	50.780	0.164	0.157
-599.069	290.216	0.033	0.060
-598.055	-24.566	-0.164	-0.099
-597.040	-45.992	-0.105	-0.052
-596.025	800.000	-0.064	0.270
-595.011	-135.395	-0.494	-0.060
-593.996	-24.442	-0.208	0.125
-592.982	-200.000	0.133	0.001
-591.967	132.513	-0.047	-0.061
-590.952	-108.127	0.154	-0.034
-589.938	800.000	0.035	0.137
-588.923	8.835	0.125	0.095
-587.909	160.340	0.065	0.091
-586.894	-102.024	0.122	-0.030
-585.879	165.533	0.127	0.182
-584.865	-77.046	-0.175	-0.062
-583.850	491.240	-0.043	-0.099
-582.836	-200.000	0.038	-0.272
-581.821	-44.763	-0.164	0.082
-580.806	-160.029	0.316	0.017
-579.792	345.471	-0.043	0.086
-578.777	800.000	0.085	0.259
-577.763	155.470	-0.101	-0.140
-576.748	-70.123	0.186	0.072
-575.733	27.510	0.203	-0.172
-574.719	420.399	0.145	-0.313
-573.704	139.641	-0.245	-0.325
-572.690	372.555	0.120	0.247
-571.675	-95.515	0.208	-0.056
-570.661	800.000	-0.110	0.430
-569.646	294.320	0.102	0.187
-568.631	148.952	0.179	0.244
-567.617	189.062	-0.099	-0.150
-566.602	220.207	-0.190	0.307
-565.588	50.855	0.140	-0.134
-564.573	-158.438	0.293	-0.017
-563.558	81.722	-0.243	0.265
-562.544	13.325	0.071	0.056
-561.529	-200.000	0.032	0.181
-560.515	148.145	-0.114	0.155
-559.500	116.966	0.152	-0.189
-558.485	51.306	0.162	0.155
-557.471	-55.649	-0.172	-0.077
-556.456	-145.638	0.175	0.016
-555.442	-37.377	-0.189	-0.102
-554.427	68.585	0.102	0.105
-553.412	-29.397	0.147	0.085
-552.398	-124.224	0.132	-0.021
-551.383	223.883	-0.106	-0.172
-550.369	-97.518	-0.196	0.051
-549.354	800.000	-0.143	-0.463
-548.339	-200.000	-0.037	-0.313
-547.325	9.912	-0.097	-0.074
-546.310	218.145	-0.179	0.288
-545.296	-23.676	-0.202	0.122
-544.281	-200.000	0.038	0.182
-543.266	-200.000	-0.012	-0.166
-542.252	-51.932	-0.041	0.019
-541.237	-200.000	0.008	-0.126
-540.223	42.195	-0.083	0.076
-539.208	-200.000	-0.064	0.380
-538.193	58.165	-0.356	-0.351
-537.179	-132.244	0.240	-0.031
-536.164	415.178	0.063	-0.136
-535.150	-119.118	-0.360	0.063
-534.135	-200.000	-0.032	-0.219
-533.121	-154.091	0.106	-0.007
-532.106	563.880	-0.105	0.256
-531.091	-69.969	-0.300	-0.115
-530.077	-128.745	-0.205	-0.029
-529.062	-200.000	-0.024	0.244
-528.048	-106.268	0.174	0.039
-527.033	-30.440	0.163	0.093
-526.018	183.349	-0.068	-0.101
-525.004	-88.516	-0.168	-0.051
-523.989	151.809	0.208	-0.285
-522.975	13.657	-0.256	-0.200
-521.960	-200.000	-0.086	-0.000
-520.945	610.092	-0.111	-0.280
-519.931	-73.588	-0.176	0.065
-518.916	598.203	0.080	0.199
-517.902	-200.000	0.016	0.169
-516.887	124.711	-0.079	0.100
-515.872	800.000	-0.125	0.458
-514.858	800.000	-0.043	0.146
-513.843	-23.617	-0.283	-0.171
-512.829	228.897	-0.057	0.094
-511.814	-200.000	-0.028	-0.263
-510.799	-136.475	0.097	-0.011
-509.785	-120.307	0.472	-0.081
-508.770	-200.000	0.005	0.146
-507.756	-200.000	-0.038	-0.359
-506.741	-159.568	0.122	-0.007
-505.726	800.000	0.088	0.303
-504.712	-46.035	-0.205	0.102
-503.697	800.000	0.060	-0.196
-502.683	-200.000	0.007	0.057
-501.668	800.000	-0.050	-0.141
-500.653	-200.000	0.170	-0.000
-499.639	-200.000	0.027	0.273
-498.624	-44.724	0.110	-0.055
-497.610	111.459	-0.070	0.085
-496.595	32.926	0.071	0.062
-495.581	-9.505	0.116	0.078
-494.566	343.575	-0.011	0.021
-493.551	-200.000	-0.047	-0.218
-492.537	227.946	0.154	0.252
-491.522	-94.936	0.157	0.043
-490.508	-40.134	-0.149	-0.078
-489.493	128.243	0.082	-0.106
-488.478	402.715	-0.088	-0.187
-487.464	23.583	0.189	0.156
-486.449	-59.739	0.377	-0.162
-485.435	65.051	0.109	-0.111
-484.420	17.913	0.238	-0.191
-483.405	-38.038	0.395	-0.211
-482.391	575.197	0.032	-0.079
-481.376	-99.763	-0.152	-0.038
-480.362	-200.000	-0.051	-0.276
-479.347	610.822	0.085	-0.213
-478.332	-79.891	0.089	-0.030
-477.318	121.082	-0.182	0.227
-476.303	99.890	-0.144	-0.168
-475.289	412.381	-0.019	0.041
-474.274	-200.000	-0.005	0.186
-473.259	-91.298	-0.135	0.039
-472.245	14.540	-0.121	-0.095
-471.230	-200.000	-0.021	-0.254
-470.216	-40.150	0.101	0.053
-469.201	-200.000	0.004	0.458
-468.186	-200.000	-0.017	-0.167
-467.172	-3.546	0.135	-0.094
-466.157	-126.322	0.217	-0.032
-465.143	361.250	0.115	0.231
-464.128	-200.000	0.028	0.298
-463.113	-200.000	-0.001	0.391
-462.099	-200.000	0.018	0.210
-461.084	-21.210	0.416	0.255
-460.070	11.393	0.168	-0.129
-459.055	-200.000	-0.001	0.045
-458.040	72.417	-0.104	0.109
-457.026	-113.134	-0.183	-0.036
-456.011	240.095	0.194	0.324
-454.997	63.718	-0.040	0.041
-453.982	-22.961	-0.127	-0.077
-452.968	800.000	0.095	0.307
-451.953	130.875	0.320	0.413
-450.938	-97.783	-0.078	0.020
-449.924	175.172	0.112	-0.163
-448.909	282.537	0.151	-0.272
-447.895	-136.947	-0.126	-0.015
-446.880	-121.656	-0.098	0.016
-445.865	-39.037	-0.273	0.144
-444.851	-34.159	0.315	-0.174
-443.836	115.045	0.152	0.186
-442.822	-45.333	-0.191	-0.095
-441.807	-37.018	-0.067	-0.036
-440.792	49.366	-0.097	0.092
-439.778	51.782	0.224	0.214
-438.763	55.016	0.192	0.186
-437.749	-200.000	-0.013	0.133
-436.734	-77.814	-0.342	0.118
-435.719	-16.820	-0.130	-0.083
-434.705	10.081	0.324	0.247
-433.690	-187.988	-0.274	0.004
-432.676	-73.287	-0.132	0.048
-431.661	-151.610	0.220	-0.016
-430.646	-137.435	-0.208	0.024
-429.632	-116.017	-0.252	-0.047
-428.617	413.807	-0.040	-0.086
-427.603	-101.965	-0.025	0.006
-426.588	-77.120	0.213	0.074
-425.573	-89.758	-0.073	-0.022
-424.559	-200.000	0.027	-0.271
-423.544	-68.368	0.269	0.105
-422.530	-65.086	-0.219	0.089
-421.515	800.000	0.049	-0.201
-420.500	-98.425	0.163	0.042
-419.486	35.286	0.052	0.046
-418.471	-200.000	0.013	0.062
-417.457	-200.000	-0.032	-0.492
-416.442	118.610	0.044	0.054
-415.428	55.610	-0.350	-0.340
-414.413	-129.812	-0.395	-0.055
-413.398	800.000	-0.091	0.370
-412.384	-114.297	0.207	-0.040
-411.369	11.269	0.161	0.123
-410.355	148.055	0.136	0.184
-409.340	34.303	0.100	-0.088
-408.325	-121.568	-0.190	-0.032
-407.311	30.360	0.068	0.058
-406.296	13.514	-0.240	-0.187
-405.282	-88.144	-0.041	0.012
-404.267	-132.178	0.339	0.044
-403.252	-168.327	-0.116	-0.004
-402.238	-117.027	0.389	-0.071
-401.223	244.298	-0.061	-0.103
-400.209	450.042	0.186	-0.411
-399.194	-117.935	-0.251	0.045
-398.179	334.822	-0.152	-0.296
-397.165	-154.540	0.313	-0.021
-396.150	125.017	0.114	-0.144
-395.136	-200.000	0.018	0.136
-394.121	108.801	-0.185	-0.222
-393.106	-54.449	-0.142	0.064
-392.092	97.541	0.071	0.082
-391.077	-35.925	-0.196	-0.106
-390.063	98.589	0.184	-0.213
-389.048	-139.302	-0.008	0.001
-388.033	29.465	-0.129	-0.110
-387.019	44.422	-0.242	-0.223
-386.004	-200.000	-0.030	-0.166
-384.990	38.889	-0.162	-0.145
-383.975	252.875	0.106	-0.182
-382.960	-110.845	0.186	-0.038
-381.946	-200.000	0.046	0.266
-380.931	800.000	0.077	-0.232
-379.917	800.000	-0.136	-0.385
-378.902	-3.100	0.204	-0.142
-377.888	-137.071	0.308	0.035
-376.873	203.382	0.046	-0.071
-375.858	800.000	0.085	0.251
-374.844	-200.000	-0.077	0.431
-373.829	-83.876	-0.137	-0.044
-372.815	-117.810	-0.087	-0.016
-371.800	800.000	-0.090	0.266
-370.785	9.980	0.023	-0.017
-369.771	672.432	-0.127	0.329
-368.756	106.601	0.122	0.145
-367.742	615.978	0.137	0.344
-366.727	-50.146	-0.094	0.044
-365.712	800.000	0.046	-0.129
-364.698	-13.424	-0.059	0.038
-363.683	45.370	-0.224	0.206
-362.669	-200.000	-0.021	0.173
-361.654	-200.000	0.050	-0.237
-360.639	229.304	0.205	-0.335
-359.625	34.092	0.186	0.162
-358.610	-200.000	0.010	-0.084
-357.596	15.987	-0.350	-0.276
-356.581	-40.937	0.200	0.104
-355.566	29.565	-0.236	0.201
-354.552	-50.975	0.066	-0.031
-353.537	800.000	-0.105	-0.312
-352.523	571.853	-0.141	0.343
-351.508	-95.581	-0.311	0.083
-350.493	418.817	-0.019	-0.041
-349.479	-110.069	-0.164	-0.034
-348.464	-93.704	0.234	-0.065
-347.450	-200.000	0.010	-0.089
-346.435	-29.650	-0.204	-0.116
-345.420	-122.473	0.246	-0.040
-344.406	-200.000	-0.027	-0.197
-343.391	-200.000	-0.086	0.405
-342.377	104.806	-0.302	0.356
-341.362	103.489	-0.099	-0.116
-340.348	376.617	-0.065	-0.133
-339.333	-41.015	0.117	-0.060
-338.318	-14.465	0.457	-0.294
-337.304	613.743	0.092	0.231
-336.289	-111.931	-0.110	-0.022
-335.275	95.596	-0.027	-0.031
-334.260	-200.000	0.035	-0.473
-333.245	188.294	0.090	0.134
-332.231	800.000	-0.048	0.167
-331.216	8.747	-0.122	0.092
-330.202	-7.691	-0.265	0.179
-329.187	-89.335	-0.175	0.052
-328.172	98.199	-0.063	-0.073
-327.158	8.127	-0.130	0.098
-326.143	-2.247	-0.078	-0.055
-325.129	147.697	-0.190	-0.256
-324.114	25.988	0.182	-0.152
-323.099	-10.136	-0.212	-0.141
-322.085	-100.958	-0.026	0.006
-321.070	-74.437	0.083	0.030
-320.056	800.000	0.062	0.230
-319.041	326.837	-0.122	0.234
-318.026	-200.000	0.016	0.275
-317.012	452.772	0.024	0.052
-315.997	-17.026	0.256	-0.161
-314.983	-200.000	-0.026	-0.189
-313.968	20.054	-0.185	0.149
-312.953	-10.936	-0.178	0.117
-311.939	-33.701	0.129	0.071
-310.924	-200.000	-0.039	-0.228
-309.910	-52.710	-0.052	-0.024
-308.895	800.000	-0.149	0.473
-307.880	457.262	-0.173	0.385
-306.866	-160.270	-0.119	0.006
-305.851	494.843	-0.066	0.151
-304.837	577.612	-0.163	-0.398
-303.822	638.914	-0.073	-0.185
-302.807	-24.851	-0.130	-0.077
-301.793	-200.000	-0.001	-0.027
-300.778	50.166	0.226	-0.213
-299.764	-56.881	-0.177	0.078
-298.749	-200.000	-0.070	0.376
-297.735	440.781	0.033	0.072
-296.720	-37.721	0.028	0.015
-295.705	-200.000	-0.021	-0.191
-294.691	-200.000	0.015	-0.267
-293.676	-125.162	0.352	0.054
-292.662	108.605	-0.198	-0.235
-291.647	-200.000	0.001	0.017
-290.632	800.000	0.088	-0.354
-289.618	315.937	-0.146	-0.274
-288.603	-57.534	-0.144	-0.063
-287.589	-19.800	0.137	0.084
-286.574	-3.947	0.072	-0.050
-285.559	-106.233	0.078	-0.018
-284.545	-126.590	-0.195	-0.029
-283.530	-114.976	-0.324	0.062
-282.516	-200.000	-0.014	0.214
-281.501	800.000	-0.034	0.107
-280.486	-82.622	-0.077	0.025
-279.472	378.233	0.081	0.165
-278.457	140.963	0.162	0.214
-277.443	218.911	-0.161	0.257
-276.428	117.260	-0.059	0.073
-275.413	-200.000	0.045	0.294
-274.399	-54.305	0.064	-0.029
-273.384	10.283	-0.084	0.064
-272.370	-66.729	0.147	0.058
-271.355	31.001	0.189	0.161
-270.340	-200.000	0.044	0.227
-269.326	-9.478	-0.098	-0.065
-268.311	109.717	-0.120	-0.143
-267.297	-113.280	-0.368	0.072
-266.282	-200.000	0.034	0.212
-265.267	59.239	0.313	-0.307
-264.253	404.565	0.147	0.309
-263.238	-123.773	-0.037	0.006
-262.224	-184.190	-0.300	0.005
-261.209	-200.000	-0.004	-0.286
-260.195	-200.000	0.010	0.301
-259.180	-51.737	0.227	0.105
-258.165	295.648	0.107	0.196
-257.151	800.000	-0.067	0.191
-256.136	-200.000	-0.010	-0.378
-255.122	-200.000	0.012	-0.194
-254.107	-86.134	0.397	-0.122
-253.092	277.110	-0.064	-0.113
-252.078	-200.000	0.015	0.404
-251.063	53.954	0.028	0.027
-250.049	-92.538	0.271	-0.076
-249.034	800.000	-0.103	0.397
-248.019	61.694	0.277	0.275
-247.005	-158.796	0.140	0.008
-245.990	5.339	-0.273	-0.201
-244.976	46.698	0.176	-0.163
-243.961	118.611	-0.134	0.165
-242.946	800.000	0.059	0.200
-241.932	-85.842	0.156	-0.048
-240.917	696.941	-0.108	0.283
-239.903	199.243	0.187	-0.285
-238.888	-5.085	-0.182	0.125
-237.873	-200.000	-0.016	0.352
-236.859	800.000	0.090	-0.328
-235.844	210.902	-0.092	-0.144
-234.830	33.272	0.121	-0.104
-233.815	100.041	-0.284	0.328
-232.800	-32.976	0.094	0.052
-231.786	800.000	-0.039	0.112
-230.771	151.946	0.027	-0.037
-229.757	98.730	0.179	-0.206
-228.742	487.127	-0.010	0.024
-227.727	-200.000	0.006	-0.327
-226.713	-200.000	-0.002	-0.026
-225.698	389.793	-0.062	-0.128
-224.684	800.000	0.124	0.406
-223.669	89.363	-0.106	-0.118
-222.655	-87.926	-0.156	0.047
-221.640	-115.351	0.254	0.048
-220.625	-200.000	-0.135	-0.000
-219.611	29.185	0.292	-0.246
-218.596	-200.000	0.003	0.284
-217.582	60.026	-0.154	-0.151
-216.567	-131.957	-0.162	-0.021
-215.552	107.878	-0.065	-0.077
-214.538	-200.000	-0.025	-0.110
-213.523	-60.420	0.057	0.024
-212.509	72.145	-0.133	-0.138
-211.494	-157.873	0.205	0.012
-210.479	-147.726	0.012	0.001
-209.465	-200.000	0.008	0.126
-208.450	-120.738	0.045	-0.008
-207.436	-115.899	0.401	-0.074
-206.421	-200.000	0.133	-0.000
-205.406	32.256	-0.208	-0.178
-204.392	-157.623	-0.110	-0.007
-203.377	-200.000	0.002	-0.259
-202.363	-90.462	0.287	-0.083
-201.348	-102.145	-0.213	0.051
-200.333	800.000	-0.036	-0.098
-199.319	2.254	0.191	0.137
-198.304	-200.000	0.037	0.279
-197.290	-62.189	0.208	0.086
-196.275	-140.090	0.156	0.016
-195.260	37.806	-0.069	-0.061
-194.246	108.619	-0.099	0.117
-193.231	228.672	0.094	-0.152
-192.217	-63.347	-0.126	0.051
-191.202	800.000	-0.033	-0.128
-190.187	170.360	-0.040	0.057
-189.173	800.000	-0.055	-0.165
-188.158	101.978	-0.069	-0.080
-187.144	-93.250	-0.312	-0.086
-186.129	65.199	0.255	0.257
-185.114	-31.789	-0.119	-0.067
-184.100	-38.106	0.187	0.099
-183.085	100.689	0.289	-0.334
-182.071	-31.007	0.073	-0.041
-181.056	14.329	-0.170	0.131
-180.042	-149.627	0.244	0.019
-179.027	165.638	0.109	-0.153
-178.012	303.153	-0.046	-0.085
-176.998	-30.737	-0.334	0.188
-175.983	236.590	-0.100	0.164
-174.969	373.738	0.124	-0.251
-173.954	4.175	0.152	-0.111
-172.939	800.000	0.035	0.115
-171.925	250.536	0.197	0.332
-170.910	-200.000	0.048	0.209
-169.896	-83.982	-0.298	-0.094
-168.881	-104.663	0.146	0.033
-167.866	16.507	-0.160	0.125
-166.852	-53.751	-0.246	0.112
-165.837	23.735	0.044	0.036
-164.823	426.044	0.212	-0.454
-163.808	222.395	-0.060	-0.097
-162.793	-109.130	-0.130	0.027
-161.779	800.000	-0.094	-0.383
-160.764	-200.000	0.011	-0.215
-159.750	-167.929	-0.144	0.006
-158.735	-78.627	0.214	-0.072
-157.720	777.001	0.093	-0.251
-156.706	-62.230	-0.134	-0.055
-155.691	11.553	0.162	0.123
-154.677	46.464	-0.207	0.190
-153.662	0.005	0.289	-0.205
-152.647	800.000	0.072	-0.235
-151.633	44.595	0.287	-0.262
-150.618	129.778	-0.168	-0.213
-149.604	-137.852	0.165	0.018
-148.589	-140.391	0.312	-0.032
-147.574	-75.671	-0.188	-0.066
-146.560	-10.118	-0.240	0.158
-145.545	92.842	-0.068	0.076
-144.531	-60.083	0.279	-0.118
-143.516	266.637	-0.087	-0.151
-142.502	-200.000	-0.014	-0.214
-141.487	-181.608	0.024	-0.000
-140.472	-200.000	0.038	-0.240
-139.458	99.006	-0.050	0.057
-138.443	425.969	0.118	-0.253
-137.429	83.353	-0.089	-0.096
-136.414	-200.000	0.409	0.001
-135.399	320.262	0.039	-0.074
-134.385	61.147	-0.232	0.228
-133.370	64.596	-0.088	0.088
-132.356	-85.866	0.146	-0.045
-131.341	800.000	0.026	-0.084
-130.326	51.170	-0.191	-0.180
-129.312	-87.433	0.282	-0.085
-128.297	73.754	-0.145	0.151
-127.283	764.950	-0.106	0.287
-126.268	192.310	0.128	0.192
-125.253	-52.376	0.171	-0.079
-124.239	160.432	0.330	-0.457
-123.224	-128.427	-0.227	0.032
-122.210	83.979	-0.427	0.462
-121.195	-200.000	0.026	-0.140
-120.180	-8.321	0.196	-0.130
-119.166	16.175	0.058	0.046
-118.151	94.030	-0.071	0.080
-117.137	318.296	0.093	0.174
-116.122	-156.735	0.205	0.013
-115.107	-200.000	0.007	0.398
-114.093	299.470	0.183	-0.334
-113.078	246.662	-0.086	-0.143
-112.064	800.000	-0.088	0.259
-111.049	-58.735	-0.140	0.060
-110.034	617.442	-0.087	0.215
-109.020	-14.871	0.347	-0.221
-108.005	162.015	-0.124	-0.172
-106.991	509.009	0.077	0.177
-105.976	8.575	-0.504	0.376
-104.962	275.975	0.092	0.162
-103.947	-108.023	-0.411	0.088
-102.932	-176.797	0.154	-0.004
-101.918	-92.545	0.343	-0.095
-100.903	-33.254	-0.324	0.178
-99.889	183.270	-0.145	0.213
-98.874	-200.000	0.019	0.122
-97.859	800.000	-0.093	0.290
-96.845	49.942	0.076	-0.071
-95.830	-200.000	0.034	0.347
-94.816	-34.878	-0.235	0.127
-93.801	392.768	-0.093	0.192
-92.786	-152.984	0.321	-0.022
-91.772	248.471	0.265	-0.444
-90.757	800.000	-0.090	-0.264
-89.743	-200.000	-0.003	-0.216
-88.728	15.565	0.194	-0.151
-87.713	31.358	-0.221	0.188
-86.699	362.362	-0.166	-0.329
-85.684	-11.187	0.291	0.190
-84.670	-125.625	0.177	-0.027
-83.655	-49.614	0.317	-0.150
-82.640	55.123	0.028	0.026
-81.626	-55.501	-0.213	-0.094
-80.611	-54.178	0.245	-0.110
-79.597	-45.900	0.276	0.135
-78.582	-121.295	0.124	0.020
-77.567	-139.793	0.235	-0.025
-76.553	65.920	-0.128	0.128
-75.538	303.457	-0.117	0.215
-74.524	628.266	0.099	-0.247
-73.509	-200.000	0.007	-0.202
-72.494	-200.000	0.003	0.216
-71.480	136.564	0.095	-0.123
-70.465	174.405	-0.261	-0.373
-69.451	27.364	-0.227	-0.189
-68.436	-200.000	0.006	-0.040
-67.422	-200.000	-0.045	-0.348
-66.407	-21.302	0.418	-0.252
-65.392	-36.149	-0.479	0.256
-64.378	47.865	-0.208	0.192
-63.363	331.898	-0.166	0.317
-62.349	-139.818	0.358	-0.038
-61.334	33.034	-0.917	-0.786
-60.319	487.441	0.224	0.506
-59.305	330.557	-0.472	-0.898
-58.290	495.470	0.435	0.988
-57.276	800.000	0.533	1.524
-56.261	-200.000	87.701	496.761
-55.246	538.275	1387.877	3261.807
-54.232	185.316	2608.037	3827.676
-53.217	114.624	2332.666	2810.370
-52.203	46.723	1945.705	1786.483
-51.188	40.894	1735.997	1548.637
-50.173	38.208	1691.014	1488.024
-49.159	53.003	1734.875	1641.013
-48.144	56.804	1753.280	1687.674
-47.130	40.867	1711.972	1526.753
-46.115	37.674	1697.951	1489.807
-45.100	37.702	1692.006	1484.744
-44.086	37.686	1689.690	1482.531
-43.071	37.601	1687.255	1479.690
-42.057	37.600	1684.635	1477.331
-41.042	37.688	1682.998	1476.498
-40.027	37.644	1681.201	1474.536
-39.013	37.640	1679.062	1472.569
-37.998	37.585	1677.132	1470.404
-36.984	37.595	1675.961	1469.390
-35.969	37.699	1674.715	1469.026
-34.954	37.762	1672.637	1467.618
-33.940	37.781	1670.589	1465.907
-32.925	37.752	1669.159	1464.377
-31.911	37.755	1667.425	1462.821
-30.896	37.756	1665.780	1461.329
-29.881	37.741	1663.980	1459.576
-28.867	37.712	1662.258	1457.788
-27.852	37.762	1660.953	1456.961
-26.838	37.793	1659.042	1455.460
-25.823	37.763	1657.986	1454.252
-24.809	37.844	1656.334	1453.349
-23.794	37.746	1655.392	1451.737
-22.779	37.796	1653.753	1450.609
-21.765	37.796	1652.024	1449.038
-20.750	37.774	1650.714	1447.666
-19.736	37.757	1648.925	1445.915
-18.721	37.788	1647.705	1445.018
-17.706	37.674	1646.362	1442.942
-16.692	37.804	1644.712	1442.394
-15.677	37.832	1643.293	1441.300
-14.663	37.784	1642.365	1440.074
-13.648	37.807	1640.574	1438.618
-12.633	37.750	1639.318	1437.039
-11.619	37.787	1637.454	1435.624
-10.604	37.760	1635.983	1434.076
-9.590	37.892	1634.465	1433.659
-8.575	37.771	1633.487	1431.853
-7.560	37.769	1632.509	1430.927
-6.546	37.764	1631.121	1429.614
-5.531	37.773	1629.808	1428.474
-4.517	37.670	1628.619	1426.622
-3.502	37.811	1627.352	1426.490
-2.487	37.849	1625.866	1425.407
-1.473	37.488	1614.222	1412.519
-0.458	34.568	1593.157	1373.060
0.556	31.329	1592.050	1335.007
1.571	28.519	1615.413	1334.069
2.586	27.419	1628.747	1336.888
3.600	23.957	1573.723	1267.000
4.615	14.459	1459.944	1112.223
5.629	6.483	1391.968	1009.426
6.644	5.126	1383.274	994.392
7.659	5.009	1381.974	992.625
8.673	4.974	1380.957	991.580
9.688	5.052	1379.065	990.630
10.702	5.031	1376.208	988.360
11.717	8.379	1383.070	1014.493
12.731	16.894	1398.813	1080.437
13.746	21.434	1406.102	1114.983
14.761	20.700	1402.330	1107.227
15.775	19.481	1399.464	1097.124
16.790	18.341	1396.985	1087.845
17.804	17.431	1394.796	1080.265
18.819	17.178	1393.061	1077.222
19.834	16.839	1392.039	1074.189
20.848	16.575	1391.327	1071.870
21.863	16.393	1389.845	1069.481
22.877	16.281	1388.395	1067.568
23.892	16.331	1387.504	1067.104
24.907	16.249	1386.778	1065.933
25.921	16.386	1385.560	1065.766
26.936	16.267	1384.845	1064.372
27.950	16.303	1383.627	1063.570
28.965	16.326	1383.337	1063.396
29.980	16.476	1381.747	1063.021
30.994	16.604	1380.331	1062.643
32.009	16.642	1380.047	1062.567
33.023	16.602	1377.850	1060.534
34.038	16.529	1376.853	1059.212
35.053	16.416	1375.913	1057.687
36.067	16.504	1374.695	1057.210
37.082	16.519	1373.383	1056.203
38.096	16.527	1373.012	1055.870
39.111	16.544	1372.011	1055.117
40.126	16.487	1370.256	1053.314
41.140	16.288	1369.773	1051.614
42.155	16.173	1369.263	1050.411
43.169	16.168	1369.018	1050.100
44.184	16.096	1369.002	1049.545
45.199	16.140	1368.695	1049.491
46.213	16.302	1367.427	1049.433
47.228	16.429	1366.588	1049.485
48.242	16.395	1365.912	1048.665
49.257	16.390	1364.344	1047.335
50.271	16.418	1362.781	1046.217
51.286	16.299	1362.293	1045.016
52.301	16.377	1360.371	1043.928
53.315	16.332	1359.190	1042.651
54.330	16.296	1358.217	1041.589
55.344	16.225	1357.222	1040.299
56.359	16.275	1355.594	1039.268
57.374	16.182	1355.103	1038.223
58.388	16.036	1354.512	1036.783
59.403	16.117	1353.815	1036.654
60.417	16.111	1352.651	1035.635
61.432	16.109	1351.748	1034.841
62.447	16.087	1351.070	1034.094
63.461	15.919	1350.072	1032.211
64.476	15.948	1348.907	1031.402
65.490	15.968	1347.513	1030.369
66.505	16.055	1345.930	1029.599
67.520	16.024	1344.663	1028.350
68.534	16.006	1343.740	1027.444
69.549	16.116	1342.429	1027.024
70.563	16.041	1341.323	1025.628
71.578	15.911	1340.680	1024.254
72.593	15.897	1339.476	1023.157
73.607	15.854	1338.883	1022.354
74.622	15.928	1338.070	1022.089
75.636	15.895	1337.533	1021.392
76.651	15.961	1336.381	1020.822
77.666	15.982	1336.084	1020.634
78.680	15.922	1336.202	1020.270
79.695	15.939	1335.039	1019.393
80.709	16.097	1334.072	1019.520
81.724	16.114	1333.422	1019.037
82.739	16.268	1332.313	1019.029
83.753	16.325	1332.043	1019.074
84.768	16.362	1330.618	1018.115
85.782	16.327	1329.805	1017.194
86.797	16.498	1328.354	1017.022
87.812	16.330	1327.287	1015.107
88.826	16.247	1325.995	1013.527
89.841	16.394	1324.935	1013.511
90.855	16.469	1323.811	1013.009
91.870	16.408	1323.388	1012.236
92.884	16.426	1322.653	1011.687
93.899	16.482	1321.357	1010.943
94.914	16.536	1320.919	1010.842
95.928	16.589	1319.641	1010.092
96.943	16.521	1319.148	1009.215
97.957	16.556	1317.823	1008.325
98.972	16.463	1316.868	1006.947
99.987	16.438	1316.217	1006.212
101.001	16.458	1315.131	1005.412
102.016	16.460	1314.019	1004.486
103.030	16.564	1312.679	1003.987
104.045	16.550	1311.837	1003.177
105.060	16.406	1310.811	1001.447
106.074	16.176	1309.296	998.843
107.089	16.112	1307.982	997.372
108.103	16.109	1306.809	996.371
109.118	16.097	1305.227	995.008
110.133	16.067	1304.145	993.913
111.147	16.145	1302.945	993.373
112.162	16.202	1301.289	992.359
113.176	16.146	1300.350	991.225
114.191	16.229	1299.588	991.041
115.206	16.172	1298.611	989.877
116.220	16.193	1297.299	988.909
117.235	16.158	1295.840	987.510
118.249	16.160	1295.119	986.880
119.264	16.210	1293.767	986.054
120.279	16.131	1292.904	984.852
121.293	16.112	1291.835	983.836
122.308	15.972	1290.711	982.076
123.322	15.966	1290.043	981.450
124.337	15.986	1288.790	980.525
125.352	15.954	1287.421	979.208
126.366	15.944	1286.766	978.569
127.381	16.060	1285.525	978.209
128.395	15.959	1284.862	977.032
129.410	15.992	1284.173	976.615
130.424	16.156	1283.085	976.648
131.439	16.194	1281.980	975.946
132.454	16.222	1281.154	975.388
133.468	16.309	1279.940	974.883
134.483	16.193	1279.877	974.076
135.497	16.278	1278.989	973.806
136.512	16.315	1277.209	972.576
137.527	16.257	1275.841	971.118
138.541	16.313	1274.755	970.524
139.556	16.338	1273.367	969.524
140.570	16.388	1272.478	969.051
141.585	16.494	1271.214	968.607
142.600	16.468	1269.887	967.366
143.614	16.634	1269.123	967.647
144.629	16.513	1268.048	966.048
145.643	16.537	1266.975	965.282
146.658	16.484	1265.451	963.734
147.673	16.380	1264.046	961.987
148.687	16.340	1262.649	960.612
149.702	16.255	1261.262	958.988
150.716	16.308	1260.050	958.282
151.731	16.298	1259.011	957.353
152.746	16.262	1258.156	956.411
153.760	16.348	1256.708	955.715
154.775	16.443	1255.277	955.076
155.789	16.503	1254.270	954.564
156.804	16.478	1253.458	953.720
157.819	16.523	1252.434	953.111
158.833	16.575	1251.616	952.698
159.848	16.663	1250.696	952.408
160.862	16.700	1249.831	951.875
161.877	16.429	1248.735	949.435
162.892	16.322	1247.462	947.780
163.906	16.360	1246.690	947.326
164.921	16.371	1246.041	946.809
165.935	16.388	1244.595	945.723
166.950	16.398	1244.184	945.383
167.964	16.451	1243.600	945.149
168.979	16.501	1242.685	944.652
169.994	16.543	1241.491	943.896
171.008	16.506	1241.485	943.597
172.023	16.575	1240.914	943.464
173.037	16.661	1239.739	942.968
174.052	16.676	1238.369	941.926
175.067	16.560	1237.609	940.617
176.081	16.389	1236.569	938.797
177.096	16.422	1235.555	938.126
178.110	16.542	1234.261	937.725
179.125	16.455	1233.214	936.365
180.140	16.614	1231.798	936.086
181.154	16.493	1230.915	934.667
182.169	16.554	1229.933	934.175
183.183	16.679	1228.718	933.855
184.198	16.768	1227.338	933.214
185.213	16.766	1226.410	932.418
186.227	16.769	1224.928	931.222
187.242	16.845	1223.973	930.831
188.256	16.856	1223.390	930.370
189.271	16.867	1222.164	929.414
190.286	16.727	1221.100	927.758
191.300	16.539	1219.986	925.796
192.315	16.453	1219.072	924.551
193.329	16.433	1218.725	924.096
194.344	16.506	1217.804	923.716
195.359	16.768	1216.641	924.184
196.373	16.712	1216.785	923.906
197.388	16.784	1216.519	924.016
198.402	16.844	1216.178	923.998
199.417	17.064	1215.233	924.400
200.432	17.030	1214.567	923.623
201.446	17.174	1213.451	923.478
202.461	17.162	1212.734	922.787
203.475	17.063	1211.991	921.602
204.490	17.035	1210.105	919.933
205.504	16.908	1209.200	918.474
206.519	16.897	1208.109	917.508
207.534	16.888	1207.065	916.582
208.548	16.937	1205.818	915.820
209.563	16.895	1205.070	914.943
210.577	17.034	1203.905	914.730
211.592	17.130	1202.995	914.471
212.607	17.143	1202.633	914.187
213.621	17.033	1201.876	912.940
214.636	17.090	1200.935	912.449
215.650	17.097	1199.727	911.491
216.665	17.185	1199.105	911.406
217.680	17.274	1198.404	911.273
218.694	17.221	1197.144	909.946
219.709	17.204	1196.354	909.178
220.723	17.115	1195.817	908.210
221.738	17.265	1195.133	908.413
222.753	17.214	1194.541	907.611
223.767	17.251	1193.586	907.005
224.782	17.354	1192.972	907.004
225.796	17.420	1192.471	906.896
226.811	17.466	1191.549	906.359
227.826	17.256	1191.052	904.786
228.840	17.255	1189.698	903.669
229.855	17.185	1189.319	902.932
230.869	17.295	1188.326	902.681
231.884	17.282	1187.325	901.771
232.899	17.116	1187.000	900.565
233.913	17.187	1186.082	900.164
234.928	17.127	1185.538	899.353
235.942	17.103	1184.717	898.525
236.957	17.085	1183.703	897.580
237.972	17.076	1183.350	897.183
238.986	17.098	1182.514	896.588
240.001	17.184	1181.980	896.556
241.015	17.289	1180.694	896.055
242.030	17.184	1180.248	895.086
243.045	17.377	1179.362	895.353
244.059	17.401	1178.373	894.645
245.074	17.382	1177.512	893.815
246.088	17.429	1176.892	893.509
247.103	17.431	1176.588	893.214
248.117	17.514	1175.715	892.905
249.132	17.616	1175.095	892.889
250.147	17.824	1173.872	892.970
251.161	17.772	1173.440	892.289
252.176	17.861	1172.896	892.262
253.190	17.837	1172.239	891.561
254.205	17.973	1171.623	891.723
255.220	17.954	1170.967	891.045
256.234	17.951	1170.451	890.557
257.249	17.979	1169.766	890.105
258.263	17.888	1169.171	889.099
259.278	17.866	1168.636	888.496
260.293	18.016	1168.034	888.743
261.307	17.973	1167.514	888.045
262.322	17.932	1166.743	887.168
263.336	17.993	1166.195	886.987
264.351	17.958	1165.649	886.310
265.366	18.009	1165.092	886.073
266.380	18.108	1164.039	885.706
267.395	18.007	1163.356	884.588
268.409	17.965	1162.175	883.396
269.424	17.927	1161.798	882.834
270.439	18.096	1161.188	883.164
271.453	17.954	1160.653	881.944
272.468	17.934	1159.466	880.860
273.482	18.032	1158.463	880.526
274.497	17.910	1158.246	879.656
275.512	17.921	1157.572	879.122
276.526	17.858	1156.756	878.099
277.541	18.070	1155.443	878.115
278.555	17.940	1155.646	877.525
279.570	18.035	1154.847	877.327
280.585	18.298	1153.404	877.501
281.599	18.274	1152.525	876.637
282.614	18.163	1151.760	875.407
283.628	18.115	1150.554	874.169
284.643	18.202	1149.694	873.882
285.657	18.175	1149.136	873.241
286.672	18.138	1148.080	872.175
287.687	18.105	1147.474	871.466
288.701	18.241	1146.812	871.578
289.716	18.352	1145.475	871.050
290.730	18.177	1145.555	870.142
291.745	18.291	1144.412	869.781
292.760	18.358	1143.724	869.517
293.774	18.295	1143.344	868.835
294.789	18.316	1142.858	868.495
295.803	18.322	1142.161	867.919
296.818	18.282	1141.259	866.954
297.833	18.307	1140.458	866.397
298.847	18.260	1140.138	865.839
299.862	18.355	1139.263	865.579
300.876	18.342	1138.233	864.651
301.891	18.400	1137.814	864.550
302.906	18.482	1137.165	864.392
303.920	18.584	1136.067	863.996
304.935	18.536	1135.679	863.383
305.949	18.754	1135.249	864.079
306.964	18.702	1134.498	863.166
307.979	18.674	1133.456	862.159
308.993	18.608	1132.886	861.317
310.008	18.617	1132.030	860.635
311.022	18.609	1131.647	860.228
312.037	18.726	1130.260	859.683
313.052	18.527	1129.863	858.310
314.066	18.516	1128.671	857.272
315.081	18.447	1127.800	856.187
316.095	18.480	1127.050	855.711
317.110	18.463	1126.319	854.993
318.125	18.474	1125.533	854.378
319.139	18.396	1124.890	853.424
320.154	18.484	1124.230	853.287
321.168	18.510	1123.554	852.828
322.183	18.602	1122.800	852.635
323.197	18.512	1122.524	851.902
324.212	18.661	1121.797	852.017
325.227	18.675	1121.020	851.420
326.241	18.608	1120.372	850.521
327.256	18.494	1119.823	849.461
328.270	18.640	1118.789	849.328
329.285	18.506	1118.292	848.211
330.300	18.650	1116.751	847.678
331.314	18.573	1115.860	846.546
332.329	18.577	1115.144	845.950
333.343	18.762	1114.156	846.038
334.358	18.926	1112.968	845.869
335.373	18.809	1112.393	844.778
336.387	18.798	1111.651	844.085
337.402	18.795	1111.018	843.518
338.416	18.954	1110.134	843.552
339.431	18.940	1109.541	842.959
340.446	18.894	1109.342	842.508
341.460	18.974	1108.917	842.500
342.475	19.138	1107.691	842.298
343.489	19.161	1106.753	841.622
344.504	19.182	1106.063	841.125
345.519	19.105	1105.302	840.096
346.533	19.182	1104.596	839.861
347.548	19.224	1103.762	839.359
348.562	19.231	1102.594	838.429
349.577	19.107	1101.958	837.267
350.592	19.119	1100.944	836.480
351.606	18.999	1100.556	835.529
352.621	18.990	1099.814	834.847
353.635	19.023	1098.763	834.136
354.650	18.926	1098.157	833.135
355.665	19.169	1097.413	833.673
356.679	19.052	1096.865	832.617
357.694	19.195	1096.582	833.019
358.708	19.098	1095.887	831.948
359.723	19.177	1095.347	831.844
360.738	19.279	1094.386	831.536
361.752	19.225	1094.096	830.979
362.767	19.235	1093.444	830.459
363.781	19.216	1092.882	829.868
364.796	19.407	1091.822	829.907
365.810	19.430	1091.562	829.751
366.825	19.375	1091.327	829.231
367.840	19.591	1090.820	829.813
368.854	19.618	1090.031	829.269
369.869	19.513	1089.273	828.112
370.883	19.553	1088.623	827.738
371.898	19.409	1087.823	826.367
372.913	19.584	1086.762	826.326
373.927	19.512	1086.713	825.870
374.942	19.507	1086.025	825.250
375.956	19.592	1085.336	825.059
376.971	19.605	1084.736	824.591
377.986	19.630	1084.241	824.262
379.000	19.649	1084.018	824.110
380.015	19.743	1083.323	823.959
381.029	19.753	1082.653	823.422
382.044	19.617	1082.088	822.271
383.059	19.710	1081.152	821.932
384.073	19.754	1080.194	821.342
385.088	19.796	1079.392	820.859
386.102	19.789	1078.620	820.163
387.117	19.720	1077.497	818.911
388.132	19.531	1076.908	817.496
389.146	19.587	1075.867	816.895
390.161	19.646	1075.259	816.644
391.175	19.489	1074.528	815.272
392.190	19.605	1073.803	815.196
393.205	19.821	1073.165	815.660
394.219	19.754	1072.351	814.655
395.234	19.709	1071.025	813.365
396.248	19.753	1070.324	812.964
397.263	19.829	1069.295	812.470
398.278	19.616	1068.815	811.033
399.292	19.589	1067.588	809.904
400.307	19.663	1067.057	809.777
401.321	19.551	1066.528	808.777
402.336	19.660	1065.429	808.381
403.350	19.607	1065.087	807.806
404.365	19.509	1064.554	806.870
405.380	19.692	1063.634	806.956
406.394	19.795	1063.034	806.909
407.409	19.893	1062.138	806.615
408.423	19.932	1061.749	806.430
409.438	20.044	1060.776	806.142
410.453	20.085	1060.322	805.914
411.467	20.118	1059.448	805.334
412.482	20.077	1059.281	804.946
413.496	20.217	1058.225	804.722
414.511	20.155	1057.907	804.118
415.526	20.310	1057.167	804.202
416.540	20.246	1056.877	803.614
417.555	20.309	1056.178	803.306
418.569	20.186	1055.519	802.166
419.584	20.257	1055.320	802.270
420.599	20.222	1054.486	801.402
421.613	148.514	1400.326	1780.319
422.628	136.263	1450.734	1780.433
