DTS Sentinel unit serial number:	SN413079Multiplexer serial number:	ORYXHardware model number:	OX4-SRSoftware version number:	ORYX F/W v4.00 Oryx Data Collector v3.7.2.0data status	okinstallation	princeton_trtdifferential loss correction	single-endedforward channel	channel 2reverse channel	N/Adate	2019/09/16time	01:07:35forward acquisition time	60.00reverse acquisition time	0.00gamma	496.2192k internal	0.2337k external	0.2337temperature offset calibration	0.9964default loss term (dB/km)	0.3790temperature slope calibration	1.0000multiplexer offset coefficient	1.0000multiplexer slope coefficient	1.0000fibre end	0.00T internal ref (°C)	27.31T ext. ref 1 (°C)	9.78T ext. ref 2 (°C)	21.59length (m)	temperature (°C)	Stokes	anti-Stokes-747.200	-117.813	0.106	0.019
-746.185	-152.722	-0.275	0.020
-745.171	153.121	-0.190	-0.261
-744.156	-85.064	-0.113	-0.035
-743.142	-54.903	0.249	0.113
-742.127	800.000	-0.030	0.106
-741.112	-163.813	-0.072	0.003
-740.098	-200.000	0.006	-0.095
-739.083	-70.162	0.111	-0.042
-738.069	0.733	0.230	0.165
-737.054	163.120	0.155	0.218
-736.039	12.070	-0.132	0.102
-735.025	-200.000	0.017	0.568
-734.010	-28.270	-0.125	-0.073
-732.996	123.203	0.043	0.054
-731.981	518.026	-0.130	-0.306
-730.966	-96.277	-0.142	0.038
-729.952	172.578	0.129	0.187
-728.937	152.674	-0.107	-0.146
-727.923	-65.484	0.228	0.092
-726.908	128.407	0.060	0.076
-725.894	331.156	-0.122	0.236
-724.879	45.729	-0.142	-0.132
-723.864	127.480	-0.272	-0.347
-722.850	557.099	-0.140	0.339
-721.835	-128.976	-0.261	-0.037
-720.821	800.000	0.057	0.162
-719.806	-51.483	-0.066	-0.031
-718.791	578.224	0.015	0.038
-717.777	-189.804	0.192	-0.002
-716.762	800.000	-0.047	-0.141
-715.748	48.687	0.099	-0.093
-714.733	800.000	-0.176	0.514
-713.718	-200.000	0.062	-0.279
-712.704	490.444	-0.074	-0.170
-711.689	-39.527	0.068	-0.035
-710.675	800.000	0.045	-0.160
-709.660	800.000	-0.099	0.342
-708.645	126.731	-0.161	0.204
-707.631	-72.803	0.362	0.134
-706.616	800.000	0.051	-0.162
-705.602	523.851	0.075	0.178
-704.587	155.242	-0.255	-0.352
-703.572	-95.915	-0.136	-0.036
-702.558	201.064	-0.046	0.071
-701.543	52.410	-0.208	0.199
-700.529	-35.359	0.097	0.053
-699.514	-200.000	-0.004	0.117
-698.499	154.836	0.121	0.167
-697.485	800.000	-0.069	-0.239
-696.470	800.000	-0.064	0.209
-695.456	50.265	0.246	0.232
-694.441	-23.498	-0.473	0.284
-693.426	60.927	0.267	-0.266
-692.412	-200.000	-0.047	-0.215
-691.397	-15.854	0.221	0.141
-690.383	-152.899	-0.180	-0.013
-689.368	-73.254	-0.341	-0.125
-688.354	-160.708	-0.396	0.021
-687.339	-87.988	0.309	0.093
-686.324	22.889	0.349	-0.286
-685.310	800.000	-0.108	0.340
-684.295	61.431	0.144	-0.143
-683.281	658.314	0.091	-0.236
-682.266	-113.051	0.179	0.035
-681.251	91.579	-0.117	0.132
-680.237	-148.853	-0.149	-0.012
-679.222	-58.259	-0.216	-0.094
-678.208	62.634	-0.338	0.338
-677.193	55.024	0.067	-0.065
-676.178	28.314	-0.150	-0.127
-675.164	9.867	0.110	0.084
-674.149	475.991	0.239	0.541
-673.135	800.000	0.019	-0.068
-672.120	86.721	-0.125	0.138
-671.105	232.132	0.038	0.063
-670.091	-1.328	-0.207	0.146
-669.076	402.893	-0.089	-0.188
-668.062	-127.838	-0.390	0.056
-667.047	-82.707	-0.026	-0.009
-666.032	-133.423	-0.249	0.031
-665.018	-126.574	0.331	0.049
-664.003	-119.602	-0.147	-0.025
-662.989	594.154	0.054	0.134
-661.974	-167.143	0.143	-0.006
-660.959	-90.289	-0.201	0.059
-659.945	-83.875	-0.155	0.049
-658.930	-84.183	-0.299	-0.095
-657.916	-69.014	0.188	-0.072
-656.901	-200.000	0.001	-0.222
-655.886	800.000	-0.023	0.067
-654.872	-200.000	-0.035	-0.180
-653.857	800.000	0.064	-0.275
-652.843	-19.254	-0.158	-0.098
-651.828	-171.544	0.282	-0.009
-650.814	24.010	-0.329	0.271
-649.799	-200.000	0.026	-0.123
-648.784	49.053	0.107	-0.101
-647.770	279.933	-0.081	0.144
-646.755	479.926	-0.064	0.146
-645.741	800.000	-0.106	-0.365
-644.726	800.000	0.055	-0.181
-643.711	-200.000	0.009	-0.407
-642.697	358.994	-0.044	0.087
-641.682	-115.464	0.292	-0.055
-640.668	105.537	-0.232	0.274
-639.653	800.000	0.032	0.095
-638.638	-117.029	0.025	-0.005
-637.624	-62.519	-0.106	-0.044
-636.609	386.423	0.164	0.339
-635.595	60.318	-0.338	0.334
-634.580	-15.578	-0.156	-0.099
-633.565	-47.120	0.274	-0.133
-632.551	1.909	0.077	-0.055
-631.536	36.223	-0.178	0.157
-630.522	407.618	0.064	-0.135
-629.507	-75.938	0.136	0.048
-628.492	800.000	0.036	-0.104
-627.478	171.731	0.050	0.071
-626.463	-88.219	-0.177	-0.053
-625.449	800.000	0.094	0.275
-624.434	-97.185	0.035	0.009
-623.419	-100.579	-0.120	0.030
-622.405	-200.000	-0.018	0.103
-621.390	315.303	0.026	-0.048
-620.376	183.812	-0.035	0.052
-619.361	-126.456	-0.385	0.057
-618.346	-149.266	-0.292	-0.023
-617.332	446.940	0.273	0.600
-616.317	-95.498	-0.423	0.113
-615.303	67.197	0.008	-0.008
-614.288	86.889	0.093	0.103
-613.273	623.376	-0.124	-0.312
-612.259	-200.000	-0.056	-0.252
-611.244	-99.322	-0.237	-0.060
-610.230	-15.273	0.208	-0.133
-609.215	800.000	0.064	-0.245
-608.201	21.648	-0.157	-0.127
-607.186	-155.955	-0.206	-0.013
-606.171	-83.998	0.272	-0.086
-605.157	-3.507	-0.300	-0.209
-604.142	800.000	-0.058	-0.180
-603.128	-200.000	-0.009	0.042
-602.113	129.747	-0.139	-0.178
-601.098	193.450	0.021	-0.031
-600.084	800.000	-0.071	-0.203
-599.069	22.963	0.195	-0.160
-598.055	-29.903	-0.022	0.012
-597.040	-64.088	0.065	-0.026
-596.025	415.006	0.159	-0.339
-595.011	-109.694	0.093	0.020
-593.996	-70.244	0.315	-0.119
-592.982	31.679	0.027	-0.023
-591.967	82.749	0.073	0.079
-590.952	-135.347	-0.278	-0.033
-589.938	-79.868	0.129	-0.043
-588.923	-137.229	-0.446	-0.051
-587.909	206.129	-0.094	0.146
-586.894	-92.738	0.258	-0.072
-585.879	145.348	-0.249	0.332
-584.865	-149.312	-0.063	0.005
-583.850	-1.770	-0.273	0.192
-582.836	-9.755	-0.203	-0.135
-581.821	456.765	0.211	-0.467
-580.806	141.719	0.028	0.037
-579.792	164.157	-0.101	-0.141
-578.777	-71.650	-0.307	0.114
-577.763	-186.590	-0.034	0.000
-576.748	400.854	0.166	0.348
-575.733	-200.000	-0.024	-0.207
-574.719	-13.918	-0.304	0.196
-573.704	-110.483	0.451	0.093
-572.690	14.284	-0.200	-0.156
-571.675	49.571	-0.191	-0.179
-570.661	-49.338	-0.237	0.113
-569.646	595.305	0.058	-0.143
-568.631	161.781	-0.114	-0.159
-567.617	24.652	0.142	-0.117
-566.602	800.000	0.048	-0.199
-565.588	270.747	-0.042	-0.073
-564.573	20.527	-0.207	0.167
-563.558	-162.198	0.123	0.006
-562.544	-200.000	-0.048	0.228
-561.529	401.094	-0.037	-0.078
-560.515	-57.500	0.208	0.091
-559.500	800.000	0.026	0.102
-558.485	-28.927	0.169	0.097
-557.471	-84.003	-0.173	0.055
-556.456	-200.000	-0.017	-0.085
-555.442	785.707	0.064	0.176
-554.427	-95.575	0.204	-0.054
-553.412	360.781	-0.139	-0.278
-552.398	-83.550	-0.124	-0.040
-551.383	100.049	-0.116	-0.134
-550.369	-62.551	0.313	0.129
-549.354	-125.680	-0.172	0.026
-548.339	800.000	-0.060	0.165
-547.325	389.866	-0.022	0.045
-546.310	660.175	-0.104	-0.267
-545.296	178.849	0.109	0.158
-544.281	6.180	0.147	-0.108
-543.266	65.638	-0.151	0.152
-542.252	-200.000	0.018	0.231
-541.237	199.248	-0.223	0.341
-540.223	69.608	-0.373	0.383
-539.208	-27.564	0.225	0.130
-538.193	39.737	0.120	-0.107
-537.179	-179.209	0.136	0.003
-536.164	800.000	-0.117	-0.409
-535.150	350.082	0.032	0.064
-534.135	-200.000	-0.002	0.014
-533.121	-200.000	-0.016	-0.407
-532.106	-38.821	-0.228	-0.120
-531.091	-113.045	0.422	-0.083
-530.077	-8.554	0.165	0.110
-529.062	148.514	-0.079	-0.106
-528.048	-137.526	0.267	0.030
-527.033	147.089	-0.163	-0.218
-526.018	22.192	-0.067	-0.055
-525.004	-200.000	0.010	0.185
-523.989	-145.505	0.113	0.010
-522.975	270.055	0.228	-0.398
-521.960	-21.398	0.140	-0.085
-520.945	39.175	0.302	-0.269
-519.931	64.558	0.046	-0.046
-518.916	134.932	-0.233	-0.302
-517.902	98.191	-0.124	0.142
-516.887	-75.147	0.148	-0.053
-515.872	800.000	0.051	0.159
-514.858	-29.086	-0.092	-0.052
-513.843	-171.484	0.220	0.007
-512.829	-129.192	-0.281	0.039
-511.814	-113.120	0.347	0.068
-510.799	-107.351	-0.111	-0.024
-509.785	-136.219	-0.203	0.024
-508.770	274.557	-0.041	0.072
-507.756	-200.000	-0.026	-0.294
-506.741	32.578	0.142	-0.122
-505.726	553.288	0.075	-0.179
-504.712	187.289	0.183	0.272
-503.697	-200.000	-0.007	0.249
-502.683	-51.737	0.148	0.069
-501.668	122.336	-0.077	0.096
-500.653	-97.175	-0.170	0.044
-499.639	410.655	-0.155	-0.327
-498.624	46.790	-0.148	0.137
-497.610	-99.992	0.342	-0.085
-496.595	93.258	0.202	0.228
-495.581	-200.000	0.031	-0.477
-494.566	47.142	-0.031	-0.029
-493.551	163.780	-0.108	0.151
-492.537	-200.000	0.002	-0.230
-491.522	-37.013	-0.083	-0.044
-490.508	-200.000	0.244	0.001
-489.493	361.537	-0.119	0.236
-488.478	-32.447	0.111	-0.061
-487.464	771.371	-0.101	0.272
-486.449	-200.000	-0.051	0.416
-485.435	28.720	-0.141	0.119
-484.420	-85.753	-0.197	-0.061
-483.405	326.960	0.103	-0.196
-482.391	-164.219	0.116	-0.005
-481.376	-147.265	-0.119	0.010
-480.362	-152.419	0.435	0.031
-479.347	-200.000	0.014	-0.194
-478.332	88.988	-0.081	-0.089
-477.318	305.852	0.104	0.193
-476.303	-60.310	-0.279	-0.118
-475.289	-11.108	-0.107	0.070
-474.274	354.323	0.164	0.323
-473.259	800.000	-0.024	0.087
-472.245	-57.290	0.125	0.055
-471.230	-73.057	0.065	0.024
-470.216	-118.623	-0.394	0.069
-469.201	355.734	-0.043	-0.085
-468.186	-91.771	0.384	0.108
-467.172	36.094	0.103	0.090
-466.157	-200.000	-0.021	-0.100
-465.143	613.914	-0.059	0.147
-464.128	-62.020	-0.175	-0.073
-463.113	-18.967	0.220	0.136
-462.099	215.351	-0.124	-0.195
-461.084	20.812	-0.259	0.209
-460.070	674.637	0.054	0.140
-459.055	800.000	0.093	0.285
-458.040	800.000	0.096	-0.372
-457.026	75.741	-0.183	-0.192
-456.011	-200.000	0.003	0.247
-454.997	193.294	-0.090	0.134
-453.982	-10.366	0.188	0.124
-452.968	800.000	-0.051	0.160
-451.953	-2.532	-0.126	0.087
-450.938	-110.430	0.247	-0.051
-449.924	-200.000	-0.005	0.149
-448.909	-102.659	-0.209	-0.049
-447.895	-123.865	0.226	0.035
-446.880	-60.477	-0.184	0.078
-445.865	297.268	0.099	-0.181
-444.851	-78.805	0.417	-0.141
-443.836	55.163	-0.151	-0.144
-442.822	153.894	0.063	-0.085
-441.807	4.343	0.094	-0.068
-440.792	69.491	-0.043	-0.044
-439.778	800.000	-0.058	0.164
-438.763	-129.607	-0.277	0.038
-437.749	-110.298	0.090	0.019
-436.734	-113.516	-0.330	0.064
-435.719	-149.547	0.236	-0.019
-434.705	413.301	0.197	0.415
-433.690	-200.000	-0.024	0.150
-432.676	-117.739	-0.075	-0.013
-431.661	-113.912	0.035	-0.007
-430.646	-30.751	0.275	-0.154
-429.632	-134.517	-0.314	0.038
-428.617	3.424	0.103	0.074
-427.603	-81.160	-0.163	0.054
-426.588	-74.944	0.517	0.184
-425.573	31.689	0.022	0.018
-424.559	-200.000	0.040	0.197
-423.544	48.381	-0.130	0.121
-422.530	-5.302	-0.138	-0.094
-421.515	-200.000	-0.023	0.273
-420.500	-9.797	0.282	0.186
-419.486	-59.834	0.185	-0.079
-418.471	86.458	0.176	0.192
-417.457	-200.000	-0.004	-0.083
-416.442	307.316	-0.055	-0.102
-415.428	32.872	0.274	-0.235
-414.413	-200.000	-0.006	0.035
-413.398	40.878	-0.119	-0.106
-412.384	-200.000	-0.023	0.158
-411.369	21.999	0.231	-0.186
-410.355	41.556	0.430	0.386
-409.340	8.692	-0.251	0.187
-408.325	25.748	-0.107	0.088
-407.311	-94.502	0.293	0.079
-406.296	-200.000	0.069	-0.356
-405.282	-200.000	-0.042	-0.318
-404.267	-200.000	-0.290	-0.001
-403.252	80.322	-0.188	0.201
-402.238	-105.325	-0.144	-0.033
-401.223	19.926	-0.264	0.211
-400.209	-98.178	0.143	0.037
-399.194	-110.352	-0.325	0.067
-398.179	-29.544	0.073	0.041
-397.165	-200.000	0.032	0.173
-396.150	-200.000	-0.015	-0.116
-395.136	88.906	0.056	0.062
-394.121	-181.010	-0.299	-0.006
-393.106	-110.916	0.203	-0.041
-392.092	-98.409	0.190	-0.048
-391.077	-100.532	0.263	0.064
-390.063	-46.012	0.019	-0.009
-389.048	93.740	0.162	-0.182
-388.033	-200.000	-0.045	-0.262
-387.019	87.016	-0.006	0.007
-386.004	55.042	0.021	-0.020
-384.990	-132.280	-0.119	0.015
-383.975	-200.000	-0.056	0.321
-382.960	227.488	-0.076	0.122
-381.946	30.721	0.036	0.031
-380.931	124.487	0.046	-0.057
-379.917	326.608	-0.122	-0.232
-378.902	19.365	-0.239	0.190
-377.888	-170.658	0.313	-0.011
-376.873	-200.000	0.056	-0.367
-375.858	-52.423	0.387	-0.177
-374.844	-27.326	-0.231	-0.133
-373.829	-145.829	0.336	0.030
-372.815	-121.690	0.298	0.049
-371.800	-115.021	-0.347	0.065
-370.785	-106.335	-0.261	-0.058
-369.771	-99.603	-0.050	0.012
-368.756	-177.541	0.032	0.001
-367.742	-200.000	-0.003	-0.080
-366.727	800.000	0.014	-0.054
-365.712	-200.000	-0.007	0.057
-364.698	-39.028	-0.208	-0.108
-363.683	531.441	-0.035	-0.082
-362.669	278.943	-0.233	0.411
-361.654	-26.388	0.197	-0.114
-360.639	-200.000	-0.006	-0.130
-359.625	283.043	0.079	0.140
-358.610	331.727	-0.157	0.299
-357.596	1.010	0.170	0.121
-356.581	-0.159	-0.222	-0.156
-355.566	800.000	-0.082	0.249
-354.552	182.678	-0.071	-0.103
-353.537	51.274	0.297	-0.279
-352.523	242.558	0.074	0.122
-351.508	-200.000	0.010	-0.203
-350.493	800.000	0.093	-0.262
-349.479	-200.000	-0.004	0.112
-348.464	-200.000	-0.024	-0.583
-347.450	565.951	0.067	-0.160
-346.435	-126.149	-0.166	-0.025
-345.420	-200.000	-0.006	0.324
-344.406	-89.000	-0.266	0.078
-343.391	134.890	0.165	0.212
-342.377	-200.000	-0.041	-0.224
-341.362	800.000	0.096	-0.278
-340.348	-200.000	0.011	0.401
-339.333	-59.616	0.259	0.110
-338.318	800.000	0.026	0.104
-337.304	-200.000	0.033	0.217
-336.289	107.384	0.060	-0.070
-335.275	-173.862	0.320	0.009
-334.260	289.854	-0.025	0.046
-333.245	-123.155	-0.681	0.108
-332.231	-200.000	-0.006	0.107
-331.216	-74.570	0.097	0.034
-330.202	443.318	0.111	0.241
-329.187	-50.773	-0.121	-0.056
-328.172	-200.000	-0.030	-0.230
-327.158	-108.385	0.209	-0.045
-326.143	397.608	0.032	0.066
-325.129	-200.000	0.009	0.148
-324.114	243.860	0.106	0.175
-323.099	-45.811	0.195	0.095
-322.085	61.296	-0.123	-0.121
-321.070	304.673	-0.017	0.031
-320.056	-200.000	-0.004	0.357
-319.041	248.820	-0.205	-0.343
-318.026	134.048	-0.027	-0.035
-317.012	-85.086	-0.109	0.034
-315.997	233.816	0.158	-0.257
-314.983	-99.431	0.180	-0.045
-313.968	-25.493	-0.067	0.039
-312.953	-148.640	-0.370	-0.030
-311.939	147.102	0.130	-0.172
-310.924	26.278	-0.234	0.193
-309.910	540.416	0.154	0.361
-308.895	18.874	0.081	0.064
-307.880	-200.000	0.052	-0.296
-306.866	-158.530	-0.349	-0.020
-305.851	-50.622	0.244	0.114
-304.837	-200.000	-0.043	0.263
-303.822	-169.051	0.288	0.011
-302.807	800.000	-0.063	-0.233
-301.793	-158.859	0.217	0.012
-300.778	-99.116	0.187	0.047
-299.764	800.000	0.151	0.429
-298.749	-104.450	-0.154	-0.035
-297.735	47.388	0.204	-0.187
-296.720	-126.542	0.325	-0.048
-295.705	350.523	-0.114	-0.222
-294.691	-190.317	0.276	-0.003
-293.676	132.130	0.058	0.074
-292.662	800.000	-0.035	-0.109
-291.647	-20.506	-0.082	0.050
-290.632	220.805	-0.096	-0.152
-289.618	202.935	0.124	0.188
-288.603	119.699	0.100	0.122
-287.589	122.254	-0.178	-0.220
-286.574	-200.000	-0.033	-0.305
-285.559	359.681	0.067	-0.132
-284.545	-124.147	0.261	0.040
-283.530	451.036	-0.070	0.152
-282.516	17.745	0.201	0.158
-281.501	800.000	0.062	0.224
-280.486	-90.035	0.483	-0.139
-279.472	150.099	0.113	0.151
-278.457	6.499	-0.174	-0.128
-277.443	5.007	0.392	0.284
-276.428	-30.090	-0.241	-0.135
-275.413	63.888	-0.105	-0.104
-274.399	54.172	0.147	0.139
-273.384	154.533	0.027	-0.036
-272.370	313.955	-0.233	-0.433
-271.355	-150.399	0.128	0.010
-270.340	14.391	0.051	-0.040
-269.326	-33.036	-0.226	-0.124
-268.311	-120.768	0.182	0.030
-267.297	800.000	-0.035	-0.143
-266.282	-200.000	0.001	-0.269
-265.267	-196.955	-0.283	0.002
-264.253	92.240	-0.119	-0.132
-263.238	-94.381	0.179	0.048
-262.224	-200.000	-0.019	0.323
-261.209	800.000	-0.018	0.066
-260.195	-200.000	-0.051	-0.303
-259.180	-200.000	0.027	-0.176
-258.165	-200.000	0.025	-0.112
-257.151	-120.174	0.141	0.024
-256.136	-169.958	-0.190	-0.007
-255.122	-200.000	0.018	0.368
-254.107	111.660	0.109	0.130
-253.092	-29.546	0.076	0.043
-252.078	800.000	0.020	0.084
-251.063	-60.709	-0.417	0.174
-250.049	50.598	-0.180	-0.168
-249.034	3.125	-0.234	0.168
-248.019	599.348	-0.032	0.078
-247.005	-200.000	-0.028	0.151
-245.990	20.476	-0.183	0.146
-244.976	43.266	0.206	0.186
-243.961	-135.606	0.140	-0.016
-242.946	-107.671	0.280	0.060
-241.932	-156.863	-0.261	-0.016
-240.917	-83.920	-0.178	-0.056
-239.903	-200.000	0.007	-0.136
-238.888	52.013	-0.209	0.196
-237.873	-200.000	-0.015	0.087
-236.859	800.000	0.046	0.192
-235.844	64.898	-0.388	0.385
-234.830	35.956	-0.217	-0.188
-233.815	-16.359	-0.329	0.205
-232.800	-71.691	0.121	0.045
-231.786	-200.000	0.010	-0.182
-230.771	16.582	0.266	0.207
-229.757	83.448	-0.076	0.082
-228.742	-200.000	-0.002	0.198
-227.727	161.159	-0.154	-0.211
-226.713	312.280	-0.216	-0.399
-225.698	-183.926	0.323	-0.005
-224.684	693.536	-0.065	-0.168
-223.669	-66.986	0.063	-0.025
-222.655	800.000	0.062	0.225
-221.640	-200.000	0.005	-0.134
-220.625	-102.649	-0.173	-0.041
-219.611	-136.181	-0.078	-0.009
-218.596	-138.073	-0.117	0.013
-217.582	-169.630	0.199	0.007
-216.567	-12.758	-0.250	-0.160
-215.552	800.000	0.069	-0.242
-214.538	47.404	-0.213	0.195
-213.523	-102.003	-0.195	0.046
-212.509	-200.000	0.026	0.478
-211.494	64.599	-0.201	-0.199
-210.479	-54.287	-0.162	0.072
-209.465	-37.935	0.394	-0.206
-208.450	-165.110	0.192	0.008
-207.436	89.223	-0.222	-0.243
-206.421	-72.605	-0.205	-0.075
-205.406	71.299	0.150	-0.153
-204.392	-57.600	0.097	-0.042
-203.377	18.423	0.252	-0.198
-202.363	76.359	-0.050	0.052
-201.348	-149.606	0.450	-0.035
-200.333	150.555	0.068	0.091
-199.319	119.492	-0.178	-0.216
-198.304	481.597	-0.033	-0.075
-197.290	9.479	0.034	0.025
-196.275	93.080	0.141	-0.157
-195.260	77.618	-0.116	0.121
-194.246	107.280	0.105	-0.123
-193.231	-37.648	-0.248	-0.130
-192.217	51.150	0.134	0.125
-191.202	-200.000	0.067	0.506
-190.187	-41.594	0.330	0.167
-189.173	-69.017	-0.237	0.090
-188.158	86.344	-0.204	-0.221
-187.144	-154.120	0.111	0.007
-186.129	800.000	-0.108	0.421
-185.114	-69.683	0.220	-0.082
-184.100	-186.756	-0.235	-0.003
-183.085	-44.376	-0.253	0.124
-182.071	293.263	0.057	-0.103
-181.056	63.753	-0.130	-0.128
-180.042	800.000	0.066	0.228
-179.027	-200.000	-0.046	0.358
-178.012	19.959	-0.043	0.034
-176.998	21.483	-0.130	0.104
-175.983	-155.022	-0.175	-0.011
-174.969	173.121	0.268	-0.379
-173.954	424.312	-0.032	-0.068
-172.939	-200.000	-0.027	-0.353
-171.925	-15.017	0.126	-0.080
-170.910	50.821	-0.203	0.189
-169.896	-121.677	-0.142	0.023
-168.881	35.033	0.258	-0.222
-167.866	-140.370	0.177	-0.018
-166.852	-200.000	-0.046	0.406
-165.837	-102.182	0.148	-0.035
-164.823	211.344	-0.195	-0.301
-163.808	-200.000	0.035	-0.190
-162.793	-67.188	0.185	0.072
-161.779	800.000	-0.065	-0.192
-160.764	578.322	-0.060	0.144
-159.750	-200.000	0.024	-0.322
-158.735	800.000	-0.131	0.362
-157.720	256.840	0.082	-0.138
-156.706	-200.000	0.015	-0.356
-155.691	-200.000	0.009	-0.047
-154.677	-200.000	-0.030	-0.166
-153.662	-200.000	-0.016	-0.193
-152.647	-50.259	0.352	0.163
-151.633	-200.000	0.006	-0.062
-150.618	46.948	-0.072	0.066
-149.604	-200.000	-0.005	-0.084
-148.589	-22.515	-0.239	0.142
-147.574	-132.916	-0.157	-0.020
-146.560	-33.571	-0.261	-0.142
-145.545	-116.228	0.248	0.045
-144.531	-29.219	0.029	0.016
-143.516	122.836	-0.194	0.238
-142.502	-23.652	-0.055	-0.032
-141.487	-40.989	0.163	0.082
-140.472	-165.338	0.055	0.002
-139.458	-48.674	-0.117	0.055
-138.443	71.929	0.270	-0.276
-137.429	800.000	0.097	-0.409
-136.414	189.678	-0.153	-0.225
-135.399	-200.000	0.033	-0.259
-134.385	157.876	0.134	0.182
-133.370	-29.667	0.339	0.190
-132.356	58.680	-0.063	-0.061
-131.341	-134.383	0.191	-0.023
-130.326	-126.200	-0.587	0.086
-129.312	-89.139	0.168	0.049
-128.297	-56.145	0.216	0.094
-127.283	-92.173	-0.245	0.068
-126.268	9.710	0.280	0.208
-125.253	229.404	0.121	-0.193
-124.239	-44.592	-0.285	-0.140
-123.224	-94.596	-0.095	0.025
-122.210	31.099	0.142	-0.120
-121.195	-107.992	-0.144	0.031
-120.180	-200.000	0.017	0.363
-119.166	73.197	0.119	0.122
-118.151	753.468	-0.044	0.116
-117.137	-167.953	0.109	0.004
-116.122	-128.316	0.081	-0.011
-115.107	-89.207	-0.432	-0.125
-114.093	166.592	0.175	0.243
-113.078	-75.598	0.324	-0.113
-112.064	723.783	0.136	-0.355
-111.049	-116.827	0.393	0.070
-110.034	-51.276	-0.067	-0.031
-109.020	55.632	-0.062	-0.059
-108.005	-112.434	-0.222	0.044
-106.991	-64.217	0.076	-0.030
-105.976	77.481	-0.213	-0.222
-104.962	371.172	-0.037	0.073
-103.947	84.407	-0.174	0.187
-102.932	-61.416	0.240	-0.099
-101.918	19.545	0.026	-0.020
-100.903	-200.000	0.014	0.177
-99.889	0.263	-0.097	0.067
-98.874	-8.694	0.174	0.114
-97.859	-91.106	-0.199	-0.056
-96.845	-95.217	-0.370	0.097
-95.830	-200.000	0.004	0.084
-94.816	207.093	-0.170	0.260
-93.801	90.263	0.136	0.149
-92.786	-200.000	-0.016	-0.279
-91.772	75.622	-0.103	-0.106
-90.757	800.000	0.057	0.201
-89.743	181.416	-0.112	0.161
-88.728	462.828	-0.130	-0.285
-87.713	-115.045	0.439	0.082
-86.699	-106.238	-0.027	-0.006
-85.684	201.582	-0.074	0.112
-84.670	-200.000	0.019	-0.317
-83.655	800.000	0.090	-0.295
-82.640	-30.718	0.245	-0.136
-81.626	-135.098	0.135	0.016
-80.611	-13.474	-0.187	-0.119
-79.597	-99.518	0.109	-0.027
-78.582	-175.520	-0.152	0.004
-77.567	-112.948	-0.148	0.029
-76.553	4.859	0.320	0.230
-75.538	-8.406	0.225	0.148
-74.524	-177.510	-0.219	0.005
-73.509	-97.924	0.253	-0.064
-72.494	-190.312	-0.108	-0.001
-71.480	136.333	0.088	-0.112
-70.465	24.560	0.194	-0.157
-69.451	-114.733	0.173	-0.032
-68.436	-200.000	0.027	-0.149
-67.422	-64.222	-0.288	-0.115
-66.407	141.451	-0.153	-0.198
-65.392	214.170	0.207	0.320
-64.378	430.148	-0.054	-0.115
-63.363	452.480	-0.029	0.062
-62.349	765.591	0.079	-0.210
-61.334	241.550	-0.837	-1.367
-60.319	-96.990	0.639	0.164
-59.305	386.119	-0.627	-1.266
-58.290	145.912	0.942	1.234
-57.276	800.000	0.495	1.601
-56.261	-200.000	114.208	641.145
-55.246	478.028	1498.371	3313.799
-54.232	148.697	2670.001	3525.568
-53.217	96.182	2277.214	2543.695
-52.203	36.136	1892.683	1628.694
-51.188	30.444	1686.969	1408.599
-50.173	27.937	1645.883	1355.665
-49.159	48.925	1700.773	1559.638
-48.144	47.728	1715.692	1564.241
-47.130	30.046	1673.877	1394.448
-46.115	27.401	1659.120	1362.343
-45.100	27.231	1654.897	1357.546
-44.086	27.206	1651.960	1354.898
-43.071	27.103	1649.750	1352.263
-42.057	27.127	1647.083	1350.203
-41.042	27.153	1645.082	1348.703
-40.027	27.207	1643.613	1347.846
-39.013	27.229	1641.332	1346.082
-37.998	27.136	1639.903	1344.174
-36.984	27.214	1638.885	1343.860
-35.969	27.343	1637.026	1343.234
-34.954	27.305	1635.449	1341.605
-33.940	27.204	1633.878	1339.525
-32.925	27.292	1631.696	1338.325
-31.911	27.410	1630.055	1337.793
-30.896	27.323	1628.514	1335.839
-29.881	27.347	1626.351	1334.185
-28.867	27.228	1625.690	1332.723
-27.852	27.280	1623.656	1331.381
-26.838	27.343	1622.335	1330.704
-25.823	27.354	1620.794	1329.466
-24.809	27.401	1619.778	1328.924
-23.794	27.289	1618.933	1327.364
-22.779	27.385	1616.936	1326.369
-21.765	27.306	1615.585	1324.639
-20.750	27.255	1613.753	1322.708
-19.736	27.276	1612.490	1321.776
-18.721	27.272	1611.588	1320.952
-17.706	27.260	1610.034	1319.540
-16.692	27.340	1608.313	1318.656
-15.677	27.334	1606.791	1317.314
-14.663	27.372	1605.421	1316.417
-13.648	27.354	1603.828	1314.926
-12.633	27.383	1602.107	1313.672
-11.619	27.310	1601.504	1312.602
-10.604	27.386	1599.584	1311.520
-9.590	27.439	1598.124	1310.651
-8.575	27.390	1596.819	1309.177
-7.560	27.332	1595.869	1307.934
-6.546	27.427	1594.502	1307.443
-5.531	27.338	1593.869	1306.230
-4.517	27.305	1592.691	1304.977
-3.502	27.356	1591.685	1304.468
-2.487	27.355	1589.807	1302.866
-1.473	27.056	1577.939	1290.968
-0.458	24.188	1559.449	1255.608
0.556	18.983	1560.564	1225.928
1.571	16.802	1585.028	1229.226
2.586	16.535	1597.365	1236.732
3.600	15.895	1547.162	1193.226
4.615	13.196	1448.881	1099.393
5.629	10.459	1394.483	1040.473
6.644	9.820	1387.706	1031.244
7.659	9.831	1386.248	1030.137
8.673	9.758	1385.266	1028.853
9.688	9.731	1382.928	1026.855
10.702	9.704	1379.320	1023.915
11.717	11.010	1381.646	1033.852
12.731	14.290	1387.359	1058.926
13.746	16.924	1391.373	1078.672
14.761	17.342	1391.191	1081.097
15.775	16.471	1388.935	1073.715
16.790	15.392	1385.912	1064.442
17.804	14.572	1383.477	1057.281
18.819	14.179	1382.020	1053.588
19.834	13.865	1380.633	1050.451
20.848	13.674	1379.430	1048.233
21.863	13.375	1378.171	1045.296
22.877	13.238	1377.022	1043.470
23.892	13.260	1376.069	1042.789
24.907	13.238	1375.420	1042.069
25.921	13.259	1374.438	1041.366
26.936	13.350	1373.475	1041.115
27.950	13.311	1372.442	1039.993
28.965	13.407	1371.342	1039.671
29.980	13.439	1370.226	1038.939
30.994	13.550	1368.803	1038.461
32.009	13.536	1367.591	1037.359
33.023	13.494	1366.569	1036.232
34.038	13.417	1365.087	1034.538
35.053	13.403	1363.737	1033.332
36.067	13.369	1362.990	1032.462
37.082	13.422	1361.975	1031.937
38.096	13.402	1361.112	1031.065
39.111	13.422	1360.404	1030.563
40.126	13.349	1359.483	1029.320
41.140	13.167	1358.627	1027.447
42.155	13.246	1357.549	1027.033
43.169	13.166	1357.810	1026.643
44.184	13.154	1357.516	1026.255
45.199	13.207	1357.154	1026.217
46.213	13.241	1356.225	1025.636
47.228	13.315	1355.283	1025.294
48.242	13.369	1354.537	1024.969
49.257	13.259	1352.933	1022.985
50.271	13.234	1351.585	1021.719
51.286	13.303	1349.948	1020.818
52.301	13.453	1348.322	1020.423
53.315	13.344	1347.924	1019.364
54.330	13.220	1347.220	1017.976
55.344	13.141	1345.486	1016.088
56.359	13.292	1344.154	1015.920
57.374	13.146	1343.969	1014.791
58.388	13.140	1343.204	1014.090
59.403	13.149	1342.500	1013.526
60.417	13.214	1341.272	1012.908
61.432	13.089	1340.763	1011.667
62.447	13.004	1339.862	1010.379
63.461	13.006	1338.617	1009.359
64.476	13.069	1337.267	1008.640
65.490	13.047	1336.195	1007.605
66.505	13.089	1334.596	1006.565
67.520	13.095	1333.597	1005.759
68.534	13.178	1332.134	1005.076
69.549	13.078	1331.603	1003.979
70.563	13.094	1330.408	1003.084
71.578	13.017	1329.172	1001.594
72.593	12.947	1328.674	1000.706
73.607	12.954	1327.813	1000.013
74.622	12.992	1327.066	999.589
75.636	12.955	1326.563	998.897
76.651	13.011	1325.495	998.348
77.666	12.951	1325.619	997.991
78.680	13.087	1324.694	998.027
79.695	13.030	1324.229	997.243
80.709	13.127	1323.201	996.967
81.724	13.179	1322.531	996.687
82.739	13.200	1321.620	996.037
83.753	13.394	1320.193	996.042
84.768	13.299	1319.729	995.033
85.782	13.337	1318.302	994.096
86.797	13.375	1317.137	993.357
87.812	13.265	1316.170	991.880
88.826	13.290	1314.754	990.879
89.841	13.382	1313.555	990.434
90.855	13.313	1312.913	989.451
91.870	13.353	1312.094	988.984
92.884	13.385	1310.917	988.205
93.899	13.371	1310.151	987.454
94.914	13.471	1309.458	987.441
95.928	13.487	1308.855	986.992
96.943	13.385	1307.784	985.492
97.957	13.330	1307.436	984.815
98.972	13.474	1305.538	984.151
99.987	13.317	1304.845	982.612
101.001	13.446	1303.638	982.383
102.016	13.369	1302.518	980.991
103.030	13.405	1301.780	980.563
104.045	13.441	1300.998	980.102
105.060	13.333	1299.726	978.420
106.074	13.261	1298.579	977.044
107.089	13.141	1296.960	975.032
108.103	13.165	1295.072	973.665
109.118	13.044	1294.765	972.637
110.133	13.094	1292.845	971.399
111.147	13.193	1291.297	970.735
112.162	13.193	1290.048	969.711
113.176	13.115	1289.495	968.748
114.191	13.293	1288.268	968.788
115.206	13.251	1286.844	967.387
116.220	13.155	1286.159	966.224
117.235	13.231	1284.545	965.367
118.249	13.197	1283.739	964.479
119.264	13.222	1282.500	963.608
120.279	13.172	1281.842	962.735
121.293	13.311	1280.139	962.180
122.308	13.152	1279.480	960.677
123.322	13.084	1278.818	959.700
124.337	13.168	1277.899	959.409
125.352	13.145	1276.063	957.816
126.366	13.196	1274.744	957.035
127.381	13.099	1274.443	956.164
128.395	13.221	1272.568	955.379
129.410	13.174	1272.061	954.642
130.424	13.188	1271.323	954.085
131.439	13.260	1269.949	953.381
132.454	13.214	1269.433	952.646
133.468	13.300	1268.355	952.249
134.483	13.332	1267.426	951.650
135.497	13.260	1267.221	950.997
136.512	13.236	1265.408	949.416
137.527	13.319	1263.914	948.685
138.541	13.398	1262.077	947.678
139.556	13.309	1260.955	946.242
140.570	13.382	1260.026	945.879
141.585	13.385	1258.869	944.941
142.600	13.461	1258.187	944.779
143.614	13.541	1256.924	944.207
144.629	13.527	1255.729	943.143
145.643	13.503	1254.914	942.313
146.658	13.474	1253.262	940.823
147.673	13.396	1252.522	939.740
148.687	13.237	1251.285	937.826
149.702	13.247	1250.061	936.883
150.716	13.292	1248.430	935.833
151.731	13.261	1247.239	934.682
152.746	13.319	1246.090	934.069
153.760	13.483	1245.033	934.119
154.775	13.597	1243.538	933.555
155.789	13.587	1242.304	932.488
156.804	13.460	1241.911	931.395
157.819	13.414	1241.011	930.384
158.833	13.539	1240.101	930.322
159.848	13.675	1238.505	929.804
160.862	13.620	1237.950	928.994
161.877	13.499	1236.460	927.119
162.892	13.430	1235.571	925.985
163.906	13.422	1234.677	925.185
164.921	13.488	1233.569	924.641
165.935	13.521	1232.868	924.222
166.950	13.576	1231.747	923.602
167.964	13.485	1231.683	922.966
168.979	13.525	1230.940	922.550
169.994	13.453	1230.081	921.426
171.008	13.580	1229.161	921.363
172.023	13.648	1228.661	921.285
173.037	13.686	1227.622	920.634
174.052	13.749	1226.497	920.061
175.067	13.538	1225.677	918.192
176.081	13.536	1225.009	917.600
177.096	13.622	1223.770	917.067
178.110	13.617	1222.377	915.914
179.125	13.655	1221.546	915.421
180.140	13.711	1220.001	914.489
181.154	13.651	1218.960	913.297
182.169	13.764	1217.734	912.920
183.183	13.846	1216.309	912.219
184.198	13.854	1215.489	911.572
185.213	13.796	1214.602	910.507
186.227	13.756	1213.590	909.449
187.242	13.864	1212.182	908.905
188.256	13.813	1211.568	908.083
189.271	13.745	1210.957	907.172
190.286	13.798	1209.645	906.399
191.300	13.756	1208.130	904.956
192.315	13.608	1207.994	903.966
193.329	13.640	1207.352	903.581
194.344	13.785	1206.430	903.600
195.359	13.679	1206.167	902.743
196.373	13.831	1205.562	903.038
197.388	13.886	1204.965	902.810
198.402	14.023	1204.514	903.139
199.417	13.965	1203.978	902.340
200.432	14.060	1203.250	902.229
201.446	14.015	1202.605	901.423
202.461	14.130	1201.409	901.070
203.475	14.230	1200.189	900.615
204.490	14.112	1199.251	899.194
205.504	14.088	1197.969	898.023
206.519	14.057	1196.805	896.909
207.534	14.047	1195.665	895.921
208.548	14.102	1194.520	895.280
209.563	13.993	1194.487	894.587
210.577	14.070	1192.679	893.568
211.592	14.104	1192.283	893.376
212.607	14.221	1190.730	892.761
213.621	14.126	1190.515	892.012
214.636	14.156	1189.587	891.395
215.650	14.241	1188.367	890.860
216.665	14.238	1187.750	890.300
217.680	14.228	1187.277	889.812
218.694	14.232	1186.318	889.038
219.709	14.346	1184.880	888.489
220.723	14.302	1184.515	887.904
221.738	14.292	1183.629	887.108
222.753	14.336	1183.065	886.840
223.767	14.327	1182.288	886.132
224.782	14.369	1181.812	885.922
225.796	14.378	1181.320	885.520
226.811	14.411	1180.420	884.945
227.826	14.434	1179.463	884.268
228.840	14.384	1178.694	883.351
229.855	14.364	1178.449	882.981
230.869	14.359	1177.499	882.163
231.884	14.362	1176.411	881.287
232.899	14.313	1175.556	880.312
233.913	14.349	1174.668	879.757
234.928	14.296	1174.670	879.400
235.942	14.315	1173.292	878.392
236.957	14.430	1172.406	878.254
237.972	14.318	1171.821	877.149
238.986	14.296	1171.505	876.722
240.001	14.405	1170.521	876.480
241.015	14.342	1169.476	875.290
242.030	14.428	1168.991	875.299
243.045	14.463	1168.345	874.921
244.059	14.441	1167.285	873.937
245.074	14.500	1166.688	873.721
246.088	14.558	1165.722	873.224
247.103	14.519	1165.044	872.433
248.117	14.576	1164.132	871.971
249.132	14.697	1163.978	872.414
250.147	14.839	1162.800	872.192
251.161	14.794	1161.941	871.237
252.176	14.761	1161.821	870.898
253.190	14.813	1161.148	870.585
254.205	14.945	1160.516	870.723
255.220	14.963	1159.978	870.335
256.234	14.938	1159.663	869.894
257.249	15.028	1158.414	869.345
258.263	14.973	1157.929	868.619
259.278	15.038	1157.395	868.481
260.293	15.036	1156.644	867.829
261.307	15.088	1156.198	867.686
262.322	15.096	1155.390	867.044
263.336	15.085	1154.890	866.539
264.351	15.107	1154.039	865.937
265.366	15.176	1153.328	865.683
266.380	15.088	1152.605	864.607
267.395	15.053	1151.573	863.578
268.409	15.019	1150.741	862.702
269.424	15.025	1150.270	862.305
270.439	15.066	1149.845	862.118
271.453	15.060	1149.138	861.482
272.468	15.102	1147.891	860.688
273.482	15.066	1147.270	859.960
274.497	15.069	1146.825	859.564
275.512	15.082	1146.105	859.016
276.526	15.168	1145.571	858.980
277.541	15.157	1144.787	858.261
278.555	15.185	1143.740	857.542
279.570	15.186	1143.383	857.206
280.585	15.276	1142.518	856.939
281.599	15.215	1141.531	855.815
282.614	15.367	1140.218	855.527
283.628	15.195	1139.605	854.117
284.643	15.204	1138.481	853.245
285.657	15.317	1137.453	852.971
286.672	15.350	1136.777	852.558
287.687	15.304	1135.613	851.376
288.701	15.274	1135.210	850.849
289.716	15.335	1134.249	850.361
290.730	15.314	1133.703	849.771
291.745	15.197	1133.024	848.591
292.760	15.357	1132.583	848.995
293.774	15.413	1131.685	848.532
294.789	15.436	1131.487	848.426
295.803	15.519	1130.289	847.870
296.818	15.530	1129.608	847.343
297.833	15.425	1129.015	846.291
298.847	15.456	1128.289	845.828
299.862	15.377	1127.555	844.804
300.876	15.385	1126.574	844.034
301.891	15.518	1126.008	844.207
302.906	15.590	1125.267	843.938
303.920	15.612	1124.922	843.714
304.935	15.682	1124.297	843.520
305.949	15.670	1123.364	842.686
306.964	15.629	1122.998	842.132
307.979	15.637	1122.217	841.512
308.993	15.730	1121.315	841.226
310.008	15.736	1120.543	840.601
311.022	15.667	1120.056	839.817
312.037	15.719	1119.169	839.339
313.052	15.638	1118.192	838.129
314.066	15.686	1117.172	837.529
315.081	15.509	1116.417	836.005
316.095	15.711	1115.303	836.105
317.110	15.582	1114.872	835.066
318.125	15.672	1113.909	834.717
319.139	15.639	1113.081	833.859
320.154	15.678	1112.767	833.746
321.168	15.632	1112.045	832.901
322.183	15.678	1111.408	832.578
323.197	15.719	1110.714	832.186
324.212	15.692	1110.122	831.537
325.227	15.771	1109.578	831.445
326.241	15.753	1108.806	830.705
327.256	15.718	1108.220	830.019
328.270	15.724	1107.158	829.179
329.285	15.690	1106.066	828.120
330.300	15.821	1105.131	827.993
331.314	15.781	1104.296	827.099
332.329	15.792	1103.542	826.512
333.343	15.704	1103.226	825.773
334.358	15.759	1101.978	825.032
335.373	15.835	1101.104	824.678
336.387	15.930	1100.328	824.489
337.402	15.916	1099.587	823.791
338.416	15.894	1099.277	823.382
339.431	15.939	1098.661	823.066
340.446	16.041	1097.394	822.541
341.460	16.070	1097.256	822.509
342.475	16.202	1096.130	822.235
343.489	16.114	1094.960	820.857
344.504	16.254	1094.167	820.869
345.519	16.223	1093.477	820.128
346.533	16.231	1092.649	819.474
347.548	16.321	1091.814	819.210
348.562	16.300	1091.308	818.656
349.577	16.237	1090.524	817.690
350.592	16.214	1089.595	816.810
351.606	16.185	1088.624	815.873
352.621	16.056	1088.331	814.957
353.635	16.136	1087.645	814.754
354.650	16.149	1086.828	814.133
355.665	16.125	1086.100	813.403
356.679	16.234	1085.471	813.385
357.694	16.237	1085.040	813.004
358.708	16.295	1084.148	812.544
359.723	16.285	1083.831	812.185
360.738	16.416	1082.805	811.972
361.752	16.275	1082.691	811.137
362.767	16.427	1081.534	810.928
363.781	16.236	1081.546	809.949
364.796	16.515	1080.585	810.494
365.810	16.535	1080.182	810.216
366.825	16.524	1079.604	809.658
367.840	16.571	1079.097	809.432
368.854	16.636	1078.780	809.435
369.869	16.658	1077.159	808.254
370.883	16.636	1076.643	807.686
371.898	16.495	1075.952	806.426
372.913	16.526	1075.265	805.986
373.927	16.653	1075.281	806.533
374.942	16.615	1074.671	805.824
375.956	16.524	1074.361	805.089
376.971	16.665	1073.340	804.920
377.986	16.703	1072.579	804.459
379.000	16.715	1072.201	804.160
380.015	16.751	1071.614	803.820
381.029	16.883	1070.968	803.890
382.044	16.887	1070.073	803.169
383.059	16.818	1069.574	802.397
384.073	16.720	1068.698	801.206
385.088	16.838	1067.679	800.924
386.102	16.862	1066.688	800.225
387.117	16.836	1065.575	799.195
388.132	16.670	1065.446	798.248
389.146	16.763	1064.545	797.940
390.161	16.715	1063.555	796.901
391.175	16.849	1062.650	796.781
392.190	16.730	1062.339	795.919
393.205	16.916	1061.620	796.184
394.219	16.846	1060.413	794.877
395.234	16.807	1059.864	794.213
396.248	16.750	1059.137	793.334
397.263	16.897	1057.999	793.096
398.278	16.904	1057.161	792.431
399.292	16.856	1056.279	791.476
400.307	16.729	1056.150	790.715
401.321	16.792	1055.278	790.287
402.336	16.797	1054.580	789.718
403.350	16.865	1053.725	789.327
404.365	16.861	1053.180	788.829
405.380	16.924	1052.403	788.472
406.394	17.069	1051.293	788.242
407.409	17.052	1050.751	787.688
408.423	17.135	1050.136	787.541
409.438	17.183	1049.451	787.178
410.453	17.180	1048.978	786.744
411.467	17.184	1048.234	786.130
412.482	17.295	1047.522	786.043
413.496	17.155	1047.031	784.957
414.511	17.248	1046.343	784.800
415.526	17.333	1045.926	784.813
416.540	17.412	1045.295	784.636
417.555	17.282	1044.962	783.714
418.569	17.413	1044.253	783.716
419.584	17.380	1043.793	783.150
420.599	17.363	1043.253	782.598
421.613	105.033	1326.109	1477.934
422.628	96.458	1367.284	1478.005
