DTS Sentinel unit serial number:	SN413079Multiplexer serial number:	ORYXHardware model number:	OX4-SRSoftware version number:	ORYX F/W v4.00 Oryx Data Collector v3.7.2.0data status	okinstallation	princeton_trtdifferential loss correction	single-endedforward channel	channel 2reverse channel	N/Adate	2019/09/16time	10:55:35forward acquisition time	60.00reverse acquisition time	0.00gamma	496.2192k internal	0.2316k external	0.2316temperature offset calibration	0.9956default loss term (dB/km)	0.3790temperature slope calibration	1.0000multiplexer offset coefficient	1.0000multiplexer slope coefficient	1.0000fibre end	0.00T internal ref (°C)	36.61T ext. ref 1 (°C)	12.73T ext. ref 2 (°C)	34.30length (m)	temperature (°C)	Stokes	anti-Stokes-747.200	10.517	0.038	0.029
-746.185	-121.499	0.176	-0.030
-745.171	-200.000	0.020	0.423
-744.156	-130.353	-0.229	0.031
-743.142	-55.245	-0.232	0.106
-742.127	93.265	0.159	-0.182
-741.112	720.990	-0.021	-0.057
-740.098	275.091	-0.036	-0.065
-739.083	800.000	0.051	0.168
-738.069	-200.000	-0.038	0.475
-737.054	-36.369	-0.121	-0.066
-736.039	262.074	-0.231	-0.406
-735.025	159.511	0.236	0.332
-734.010	388.740	0.009	0.019
-732.996	598.631	-0.085	0.213
-731.981	-42.858	-0.154	-0.079
-730.966	-21.065	0.026	0.016
-729.952	-200.000	0.000	-0.175
-728.937	124.901	-0.172	-0.220
-727.923	800.000	0.128	-0.499
-726.908	74.344	0.141	-0.150
-725.894	800.000	0.016	-0.058
-724.879	-77.542	-0.232	-0.082
-723.864	2.665	-0.516	-0.379
-722.850	-23.138	0.107	0.065
-721.835	109.554	0.046	0.056
-720.821	502.380	-0.098	0.228
-719.806	-200.000	0.040	0.288
-718.791	-101.949	-0.165	-0.040
-717.777	315.209	-0.213	-0.406
-716.762	85.791	-0.087	0.097
-715.748	800.000	-0.152	0.453
-714.733	-94.902	0.225	-0.062
-713.718	-200.000	-0.029	-0.338
-712.704	-55.893	0.169	-0.076
-711.689	-30.016	-0.190	-0.110
-710.675	-45.274	-0.284	0.143
-709.660	-165.920	-0.028	-0.001
-708.645	-28.537	0.328	-0.191
-707.631	800.000	0.017	0.059
-706.616	-63.904	-0.151	0.062
-705.602	21.996	-0.084	-0.069
-704.587	-200.000	0.005	-0.308
-703.572	-200.000	-0.018	-0.181
-702.558	-114.810	0.235	0.045
-701.543	-67.284	-0.039	-0.016
-700.529	-10.679	0.092	-0.062
-699.514	-107.324	0.086	-0.019
-698.499	-55.567	0.166	0.075
-697.485	282.344	0.151	0.275
-696.470	-62.756	-0.281	0.118
-695.456	-101.575	-0.239	0.059
-694.441	-200.000	0.000	-0.067
-693.426	-6.701	-0.099	-0.068
-692.412	-95.682	0.246	-0.067
-691.397	-145.066	-0.445	0.041
-690.383	800.000	-0.048	0.184
-689.368	-200.000	-0.022	0.274
-688.354	-200.000	-0.003	0.123
-687.339	529.956	0.049	-0.116
-686.324	-105.162	0.189	0.044
-685.310	-112.346	0.129	0.026
-684.295	295.767	-0.172	-0.318
-683.281	76.524	0.216	-0.231
-682.266	-14.824	-0.287	0.186
-681.251	210.422	-0.045	0.071
-680.237	-61.701	-0.218	-0.092
-679.222	-82.941	-0.079	-0.026
-678.208	-178.856	-0.198	0.005
-677.193	55.945	0.043	0.042
-676.178	-200.000	-0.052	-0.298
-675.164	14.552	0.061	-0.048
-674.149	153.488	-0.130	-0.180
-673.135	-200.000	0.041	0.342
-672.120	218.660	-0.097	-0.156
-671.105	172.496	0.102	-0.149
-670.091	11.903	0.100	-0.078
-669.076	800.000	-0.034	-0.099
-668.062	-200.000	0.067	-0.324
-667.047	-81.674	-0.184	-0.061
-666.032	-200.000	-0.019	-0.234
-665.018	98.020	-0.089	0.103
-664.003	13.937	-0.172	0.135
-662.989	99.905	-0.118	-0.138
-661.974	800.000	-0.078	-0.311
-660.959	-130.692	0.028	0.004
-659.945	-200.000	-0.005	-0.027
-658.930	158.933	-0.042	-0.059
-657.916	411.185	0.081	0.174
-656.901	-200.000	-0.052	-0.266
-655.886	800.000	-0.037	-0.112
-654.872	-6.485	-0.082	-0.057
-653.857	59.237	0.159	-0.159
-652.843	-200.000	0.001	0.219
-651.828	-95.003	0.182	-0.050
-650.814	-101.741	0.113	0.028
-649.799	-91.504	0.247	-0.071
-648.784	-200.000	0.061	-0.552
-647.770	-20.150	-0.237	0.147
-646.755	800.000	-0.110	0.363
-645.741	-52.665	-0.149	-0.069
-644.726	214.026	-0.206	-0.329
-643.711	109.398	-0.150	-0.182
-642.697	-27.179	-0.118	-0.069
-641.682	-104.990	-0.175	0.040
-640.668	-200.000	0.005	0.065
-639.653	800.000	0.065	0.236
-638.638	-60.458	0.238	0.102
-637.624	-200.000	0.015	0.249
-636.609	-85.286	-0.197	-0.062
-635.595	-76.062	-0.102	-0.036
-634.580	-200.000	0.054	0.268
-633.565	-200.000	0.014	-0.111
-632.551	191.133	-0.091	-0.138
-631.536	-107.952	-0.266	0.058
-630.522	75.497	0.124	0.132
-629.507	-200.000	-0.066	-0.327
-628.492	6.023	-0.344	0.257
-627.478	163.877	0.112	0.159
-626.463	-101.643	-0.153	0.038
-625.449	-21.283	0.124	0.076
-624.434	-63.252	0.306	0.127
-623.419	-200.000	-0.022	-0.262
-622.405	-6.352	-0.058	-0.040
-621.390	61.416	0.215	-0.216
-620.376	266.901	0.176	0.311
-619.361	-153.243	0.092	0.006
-618.346	107.968	0.135	-0.163
-617.332	800.000	-0.113	0.418
-616.317	681.879	0.049	0.129
-615.303	-67.964	-0.086	0.034
-614.288	-150.676	0.210	0.016
-613.273	-101.822	-0.115	-0.028
-612.259	-1.557	0.064	-0.046
-611.244	638.429	-0.119	0.305
-610.230	118.703	0.162	-0.201
-609.215	-200.000	-0.027	0.179
-608.201	132.846	0.223	-0.290
-607.186	178.787	0.124	-0.182
-606.171	89.253	0.068	0.076
-605.157	-83.559	0.079	0.026
-604.142	150.336	0.225	-0.308
-603.128	251.862	-0.080	-0.138
-602.113	800.000	-0.086	-0.345
-601.098	-9.425	0.393	-0.264
-600.084	-164.082	-0.222	0.010
-599.069	279.505	-0.163	-0.293
-598.055	-200.000	0.009	0.144
-597.040	36.236	0.198	0.176
-596.025	-42.975	0.027	0.014
-595.011	-79.257	0.331	0.113
-593.996	-15.544	-0.076	-0.049
-592.982	-35.780	-0.085	0.046
-591.967	28.231	0.293	0.250
-590.952	-89.396	0.103	-0.030
-589.938	388.778	0.094	0.196
-588.923	800.000	-0.094	0.315
-587.909	-113.445	-0.373	-0.074
-586.894	44.083	0.247	0.228
-585.879	-200.000	-0.029	-0.246
-584.865	148.892	0.148	-0.202
-583.850	-68.522	0.072	-0.028
-582.836	-200.000	-0.091	-0.405
-581.821	-55.435	0.136	-0.061
-580.806	-200.000	0.046	-0.359
-579.792	216.287	0.188	-0.301
-578.777	-114.134	0.158	0.031
-577.763	231.359	0.137	0.226
-576.748	-200.000	-0.061	-0.407
-575.733	-58.947	0.191	0.083
-574.719	59.290	-0.078	0.077
-573.704	-113.865	-0.414	0.081
-572.690	-200.000	-0.040	0.280
-571.675	330.021	0.178	-0.344
-570.661	-6.480	-0.208	0.142
-569.646	-200.000	0.031	-0.237
-568.631	800.000	0.047	0.146
-567.617	23.582	0.287	-0.237
-566.602	-88.544	0.353	0.106
-565.588	-15.707	0.156	0.100
-564.573	-103.892	-0.303	-0.071
-563.558	-161.343	0.152	-0.008
-562.544	318.078	0.102	0.194
-561.529	230.278	-0.133	0.218
-560.515	744.705	0.170	0.461
-559.500	257.611	0.091	0.157
-558.485	-200.000	-0.005	-0.236
-557.471	114.256	-0.086	-0.105
-556.456	10.048	-0.123	-0.094
-555.442	210.102	0.042	0.066
-554.427	-144.091	0.052	-0.005
-553.412	-200.000	-0.002	0.138
-552.398	-42.395	0.266	0.136
-551.383	-61.239	-0.160	-0.068
-550.369	-200.000	-0.013	-0.070
-549.354	-150.205	0.343	0.027
-548.339	-81.414	-0.073	-0.024
-547.325	-154.866	-0.262	-0.017
-546.310	-200.000	0.030	0.339
-545.296	142.627	0.302	0.404
-544.281	-116.168	-0.263	0.049
-543.266	-91.735	-0.056	0.016
-542.252	682.637	-0.085	0.223
-541.237	-200.000	0.026	0.359
-540.223	-200.000	0.023	-0.161
-539.208	-160.253	0.174	0.009
-538.193	71.287	0.257	0.268
-537.179	85.109	0.147	0.162
-536.164	90.885	0.146	0.165
-535.150	-166.351	0.155	-0.007
-534.135	-200.000	0.013	-0.423
-533.121	-200.000	0.000	-0.101
-532.106	55.126	0.057	0.055
-531.091	236.729	-0.202	-0.336
-530.077	-11.431	-0.093	-0.061
-529.062	623.726	0.015	0.037
-528.048	-111.605	-0.323	-0.066
-527.033	-124.360	-0.142	-0.022
-526.018	-7.909	-0.162	0.110
-525.004	-200.000	-0.020	0.197
-523.989	-145.476	0.292	0.026
-522.975	-31.215	0.159	-0.090
-521.960	-135.540	-0.280	-0.033
-520.945	64.441	-0.146	-0.148
-519.931	30.432	0.101	0.086
-518.916	212.170	0.123	-0.195
-517.902	-146.830	0.150	-0.013
-516.887	-192.233	-0.198	0.002
-515.872	-2.514	-0.157	0.111
-514.858	-85.261	0.013	0.004
-513.843	-74.406	0.036	0.013
-512.829	-86.437	-0.175	0.054
-511.814	-102.007	-0.302	0.073
-510.799	-74.035	-0.088	0.032
-509.785	135.758	-0.073	-0.096
-508.770	-116.749	-0.232	-0.043
-507.756	-57.494	-0.228	-0.100
-506.741	-200.000	0.010	0.094
-505.726	131.778	-0.140	0.181
-504.712	170.287	0.057	0.082
-503.697	-200.000	0.008	-0.126
-502.683	800.000	0.018	-0.059
-501.668	-200.000	-0.008	0.113
-500.653	-44.774	-0.230	-0.115
-499.639	800.000	-0.066	-0.225
-498.624	106.581	-0.186	0.221
-497.610	800.000	-0.142	-0.401
-496.595	24.797	0.122	-0.101
-495.581	-39.032	0.350	0.185
-494.566	-67.550	-0.284	-0.112
-493.551	-52.271	0.170	0.079
-492.537	38.599	0.105	-0.094
-491.522	-56.577	0.151	-0.067
-490.508	-40.265	0.054	0.028
-489.493	-84.017	0.231	0.074
-488.478	535.287	0.087	-0.208
-487.464	-66.382	-0.286	0.114
-486.449	139.273	0.075	-0.099
-485.435	-104.240	0.279	0.065
-484.420	-12.626	0.202	-0.132
-483.405	-108.635	-0.138	0.030
-482.391	-67.269	-0.046	0.018
-481.376	-146.733	-0.131	-0.011
-480.362	-200.000	0.024	-0.187
-479.347	-66.022	0.135	-0.054
-478.332	800.000	0.040	0.150
-477.318	800.000	-0.047	-0.143
-476.303	72.173	0.197	0.205
-475.289	-96.811	0.221	0.058
-474.274	287.550	-0.101	0.183
-473.259	-35.987	0.168	-0.091
-472.245	800.000	-0.039	-0.144
-471.230	97.805	0.135	-0.155
-470.216	736.471	-0.057	0.153
-469.201	800.000	-0.010	-0.034
-468.186	259.574	-0.044	-0.077
-467.172	137.565	0.299	-0.392
-466.157	223.949	-0.119	0.193
-465.143	421.277	-0.082	-0.175
-464.128	-89.343	-0.229	0.067
-463.113	153.116	-0.160	0.219
-462.099	25.035	0.309	0.257
-461.084	-84.117	0.312	-0.099
-460.070	134.227	0.137	-0.177
-459.055	-87.937	0.255	-0.077
-458.040	298.920	-0.222	-0.410
-457.026	182.966	0.079	-0.117
-456.011	358.976	-0.045	0.091
-454.997	104.137	0.157	0.185
-453.982	278.119	-0.038	0.068
-452.968	-104.685	0.292	-0.067
-451.953	84.945	-0.234	0.257
-450.938	-88.619	-0.376	-0.112
-449.924	158.081	0.080	-0.111
-448.909	229.115	-0.216	-0.353
-447.895	106.101	0.098	0.117
-446.880	93.499	0.052	-0.059
-445.865	-6.465	0.137	-0.093
-444.851	-200.000	-0.007	0.220
-443.836	-136.544	0.094	0.011
-442.822	193.727	-0.280	-0.424
-441.807	-200.000	0.002	-0.010
-440.792	177.104	-0.061	0.090
-439.778	30.484	0.292	0.250
-438.763	-21.166	-0.333	0.204
-437.749	-9.634	0.114	0.076
-436.734	-36.920	0.292	-0.157
-435.719	-63.449	-0.146	0.060
-434.705	6.615	-0.118	0.088
-433.690	800.000	0.099	0.317
-432.676	136.134	0.163	0.213
-431.661	423.174	-0.051	0.110
-430.646	800.000	0.024	-0.089
-429.632	59.734	-0.063	-0.062
-428.617	-200.000	0.022	0.128
-427.603	-200.000	0.032	0.252
-426.588	-94.118	0.171	-0.047
-425.573	-49.606	0.097	-0.046
-424.559	-94.571	0.184	-0.050
-423.544	160.219	0.112	-0.156
-422.530	83.234	0.061	0.067
-421.515	95.400	-0.134	0.153
-420.500	800.000	0.043	-0.146
-419.486	-105.510	0.221	0.050
-418.471	108.538	0.181	0.216
-417.457	-116.978	-0.457	0.084
-416.442	334.704	0.057	-0.111
-415.428	-22.657	-0.245	0.148
-414.413	112.890	0.040	0.048
-413.398	-35.203	-0.118	-0.064
-412.384	-200.000	0.010	0.210
-411.369	587.777	-0.236	0.582
-410.355	-95.275	-0.300	0.081
-409.340	-200.000	-0.017	-0.183
-408.325	470.134	-0.096	-0.216
-407.311	-200.000	0.085	-0.440
-406.296	-141.214	-0.267	-0.027
-405.282	800.000	-0.150	-0.426
-404.267	-73.833	-0.303	0.110
-403.252	-12.345	-0.158	-0.103
-402.238	98.073	-0.017	-0.019
-401.223	-20.940	-0.143	-0.088
-400.209	-59.813	0.142	-0.061
-399.194	-125.468	0.182	-0.028
-398.179	35.861	-0.290	0.255
-397.165	618.563	0.131	0.330
-396.150	35.033	-0.223	0.195
-395.136	-185.072	0.073	0.001
-394.121	-200.000	0.046	-0.216
-393.106	-200.000	-0.003	0.411
-392.092	-119.135	-0.270	0.047
-391.077	800.000	0.117	-0.382
-390.063	-140.870	0.157	0.016
-389.048	-55.024	0.299	0.134
-388.033	94.684	-0.263	0.299
-387.019	800.000	0.030	0.097
-386.004	800.000	0.040	0.158
-384.990	-7.806	-0.189	0.127
-383.975	-97.729	-0.199	0.052
-382.960	64.797	0.153	0.155
-381.946	72.969	-0.140	-0.146
-380.931	-200.000	0.044	-0.313
-379.917	-200.000	-0.002	-0.140
-378.902	800.000	-0.052	-0.162
-377.888	367.632	0.094	-0.189
-376.873	800.000	0.044	0.171
-375.858	800.000	0.086	-0.284
-374.844	800.000	-0.064	-0.236
-373.829	-34.248	-0.052	0.029
-372.815	155.332	0.044	0.061
-371.800	-77.003	0.306	-0.107
-370.785	-200.000	-0.048	-0.214
-369.771	407.484	-0.070	0.148
-368.756	90.651	0.055	-0.061
-367.742	-15.330	0.210	0.134
-366.727	800.000	-0.051	0.212
-365.712	-126.481	-0.131	0.019
-364.698	404.057	-0.059	0.124
-363.683	441.065	-0.047	0.103
-362.669	13.238	0.181	-0.140
-361.654	69.544	-0.242	0.248
-360.639	800.000	0.066	-0.277
-359.625	142.209	0.117	-0.156
-358.610	23.818	-0.055	-0.045
-357.596	-178.386	-0.228	0.005
-356.581	-80.591	-0.086	-0.029
-355.566	-200.000	-0.001	-0.117
-354.552	800.000	-0.082	0.256
-353.537	92.794	0.061	-0.068
-352.523	-126.947	-0.204	0.030
-351.508	-200.000	-0.005	-0.073
-350.493	-200.000	-0.032	-0.412
-349.479	-147.415	-0.229	-0.019
-348.464	786.737	0.084	-0.230
-347.450	28.055	0.227	0.191
-346.435	-32.188	-0.369	0.206
-345.420	-200.000	-0.019	-0.083
-344.406	187.294	0.160	0.238
-343.391	-89.300	0.118	-0.035
-342.377	-200.000	-0.063	-0.310
-341.362	11.179	-0.190	-0.145
-340.348	-165.730	-0.233	0.010
-339.333	800.000	0.040	-0.133
-338.318	-110.898	-0.232	-0.048
-337.304	-200.000	-0.009	0.284
-336.289	-78.667	0.097	-0.033
-335.275	258.297	0.039	-0.068
-334.260	-200.000	0.036	0.237
-333.245	-26.361	-0.048	0.028
-332.231	-80.441	-0.205	-0.068
-331.216	80.399	-0.219	0.235
-330.202	-71.884	0.106	-0.040
-329.187	-54.077	0.165	0.075
-328.172	38.009	-0.172	0.153
-327.158	-200.000	-0.013	0.294
-326.143	-43.179	-0.326	-0.164
-325.129	-129.273	0.252	-0.035
-324.114	47.058	0.186	-0.172
-323.099	383.404	0.070	-0.143
-322.085	-14.718	-0.387	0.247
-321.070	134.516	-0.080	0.104
-320.056	-139.968	0.297	0.031
-319.041	-88.863	0.090	-0.027
-318.026	-77.309	0.233	0.081
-317.012	481.477	0.082	0.185
-315.997	-200.000	0.029	-0.229
-314.983	-0.660	-0.136	0.096
-313.968	-179.752	0.188	-0.004
-312.953	26.562	0.278	-0.231
-311.939	89.912	0.023	0.025
-310.924	-179.968	-0.128	-0.003
-309.910	-12.233	0.061	0.040
-308.895	800.000	0.027	0.096
-307.880	453.892	-0.110	0.242
-306.866	-143.700	0.299	-0.028
-305.851	190.209	-0.212	-0.317
-304.837	-183.567	-0.265	0.005
-303.822	800.000	-0.112	0.428
-302.807	611.961	-0.016	0.040
-301.793	200.131	-0.084	-0.128
-300.778	156.428	-0.121	-0.166
-299.764	-82.492	0.276	-0.089
-298.749	-148.430	-0.198	0.016
-297.735	-200.000	0.014	0.320
-296.720	-2.628	-0.101	0.070
-295.705	76.146	-0.336	-0.355
-294.691	-157.963	-0.239	0.014
-293.676	800.000	0.137	-0.429
-292.662	800.000	-0.037	-0.115
-291.647	-200.000	-0.024	-0.233
-290.632	283.298	-0.155	0.277
-289.618	-92.247	0.148	0.042
-288.603	22.702	0.234	-0.190
-287.589	-66.696	-0.191	0.075
-286.574	55.311	-0.178	-0.171
-285.559	76.000	-0.094	0.098
-284.545	72.035	0.175	0.181
-283.530	-200.000	-0.037	0.193
-282.516	110.029	0.101	0.120
-281.501	-59.893	-0.240	-0.102
-280.486	-70.498	0.366	-0.138
-279.472	-200.000	-0.017	0.186
-278.457	-36.123	-0.118	-0.064
-277.443	-143.970	-0.176	0.016
-276.428	-200.000	0.021	0.105
-275.413	-12.504	0.392	0.254
-274.399	72.500	-0.144	-0.149
-273.384	-64.350	-0.101	-0.041
-272.370	219.139	0.119	-0.189
-271.355	-200.000	0.114	0.000
-270.340	-200.000	-0.034	-0.263
-269.326	-75.505	-0.021	0.007
-268.311	-112.579	-0.372	-0.074
-267.297	190.853	-0.098	-0.147
-266.282	-80.520	-0.139	0.046
-265.267	121.762	0.166	-0.205
-264.253	-113.863	-0.206	-0.040
-263.238	40.675	0.049	-0.044
-262.224	800.000	0.124	0.362
-261.209	-200.000	-0.016	-0.075
-260.195	-95.552	0.189	0.050
-259.180	42.631	-0.246	0.223
-258.165	173.499	0.056	0.080
-257.151	199.881	-0.075	0.114
-256.136	-113.931	0.462	0.089
-255.122	-60.586	-0.105	0.044
-254.107	-73.156	-0.057	-0.021
-253.092	128.340	-0.226	-0.286
-252.078	-200.000	0.031	-0.190
-251.063	-61.148	0.281	-0.118
-250.049	111.299	-0.042	0.051
-249.034	164.303	-0.142	0.198
-248.019	110.519	0.134	0.160
-247.005	418.512	-0.109	0.232
-245.990	-200.000	-0.035	0.241
-244.976	-200.000	0.002	0.118
-243.961	22.766	-0.078	0.063
-242.946	-141.396	-0.392	-0.040
-241.932	800.000	-0.076	-0.252
-240.917	-20.568	0.193	-0.118
-239.903	-200.000	-0.039	0.370
-238.888	-200.000	0.034	-0.285
-237.873	-200.000	0.256	-0.000
-236.859	161.954	-0.130	-0.180
-235.844	-200.000	-0.019	-0.145
-234.830	-120.299	-0.092	0.016
-233.815	800.000	0.060	0.249
-232.800	28.640	-0.217	0.183
-231.786	-200.000	-0.029	0.173
-230.771	-200.000	-0.012	-0.186
-229.757	-123.838	-0.140	-0.022
-228.742	-2.743	0.099	0.069
-227.727	-36.774	-0.093	-0.049
-226.713	324.151	-0.253	0.480
-225.698	-200.000	-0.014	-0.146
-224.684	-81.892	0.316	0.103
-223.669	800.000	0.082	-0.229
-222.655	103.511	0.134	-0.156
-221.640	-0.135	-0.341	0.241
-220.625	135.033	0.062	0.079
-219.611	-200.000	-0.018	-0.231
-218.596	-161.748	-0.316	0.016
-217.582	28.743	-0.218	0.183
-216.567	-163.573	-0.179	0.008
-215.552	211.082	0.079	-0.123
-214.538	-155.874	0.258	0.016
-213.523	0.252	0.261	-0.185
-212.509	800.000	0.059	-0.256
-211.494	-57.911	0.169	0.073
-210.479	27.508	-0.119	-0.099
-209.465	-200.000	-0.004	0.018
-208.450	-200.000	0.000	-0.009
-207.436	-30.486	-0.223	0.126
-206.421	-50.300	0.212	-0.100
-205.406	800.000	0.078	0.241
-204.392	-200.000	0.058	-0.396
-203.377	-122.588	0.247	0.040
-202.363	413.077	0.013	0.028
-201.348	-200.000	0.026	0.355
-200.333	44.132	0.418	0.380
-199.319	-93.771	0.213	0.058
-198.304	-45.785	-0.185	-0.091
-197.290	800.000	0.054	-0.213
-196.275	309.575	0.136	0.251
-195.260	-200.000	0.017	-0.301
-194.246	800.000	0.081	-0.285
-193.231	-155.633	-0.158	0.010
-192.217	-113.424	0.176	-0.034
-191.202	-156.102	0.126	-0.008
-190.187	800.000	0.108	0.304
-189.173	-104.426	0.132	-0.030
-188.158	-74.034	0.305	0.110
-187.144	-22.481	-0.272	0.163
-186.129	11.897	-0.077	0.059
-185.114	-200.000	-0.003	0.126
-184.100	-48.735	0.301	0.143
-183.085	9.311	0.241	-0.180
-182.071	5.001	0.521	-0.380
-181.056	-106.162	-0.117	0.026
-180.042	-108.487	0.200	0.043
-179.027	-190.602	-0.172	-0.002
-178.012	42.065	-0.193	0.174
-176.998	-105.589	-0.341	0.077
-175.983	-139.203	-0.390	0.042
-174.969	-28.385	0.428	-0.245
-173.954	-84.822	0.234	-0.073
-172.939	7.200	0.346	-0.256
-171.925	169.593	-0.173	-0.244
-170.910	-200.000	0.006	0.279
-169.896	-200.000	-0.001	0.044
-168.881	-200.000	0.002	-0.030
-167.866	591.304	0.163	-0.398
-166.852	-198.860	-0.390	-0.002
-165.837	137.571	0.039	-0.050
-164.823	800.000	-0.115	-0.462
-163.808	-73.030	-0.194	-0.070
-162.793	-89.211	-0.212	-0.062
-161.779	-200.000	-0.007	0.233
-160.764	-200.000	0.065	-0.409
-159.750	-200.000	-0.046	0.254
-158.735	-119.560	0.104	-0.018
-157.720	800.000	0.060	0.187
-156.706	-127.851	0.115	-0.016
-155.691	60.426	-0.158	-0.155
-154.677	115.649	0.104	0.125
-153.662	-104.360	-0.177	0.041
-152.647	-2.551	-0.158	-0.109
-151.633	800.000	-0.049	0.144
-150.618	241.573	-0.165	0.273
-149.604	-200.000	0.012	0.444
-148.589	95.812	-0.067	-0.076
-147.574	800.000	-0.086	0.238
-146.560	-16.024	0.271	-0.171
-145.545	-101.285	0.100	-0.024
-144.531	-82.599	0.360	-0.115
-143.516	129.212	0.187	-0.236
-142.502	166.491	0.160	0.224
-141.487	106.883	0.170	-0.200
-140.472	12.229	0.170	0.130
-139.458	800.000	0.035	-0.130
-138.443	117.844	0.151	-0.184
-137.429	-70.339	0.213	0.080
-136.414	800.000	0.061	-0.251
-135.399	92.337	0.055	0.061
-134.385	-200.000	0.012	-0.062
-133.370	71.648	-0.175	-0.180
-132.356	647.794	0.129	-0.327
-131.341	800.000	-0.040	0.164
-130.326	19.117	-0.207	0.164
-129.312	155.097	0.098	0.134
-128.297	-200.000	-0.032	0.311
-127.283	-49.843	0.244	0.115
-126.268	-200.000	0.051	-0.487
-125.253	-23.348	0.265	-0.157
-124.239	12.465	0.176	-0.134
-123.224	117.824	-0.133	0.162
-122.210	265.896	-0.095	0.163
-121.195	-68.516	-0.272	-0.104
-120.180	508.406	-0.036	-0.082
-119.166	69.769	-0.056	0.057
-118.151	26.974	-0.089	-0.074
-117.137	-148.257	0.098	0.008
-116.122	-127.018	-0.467	-0.068
-115.107	-200.000	0.019	0.316
-114.093	-103.580	-0.303	-0.070
-113.078	-147.192	-0.180	-0.015
-112.064	-92.037	-0.064	-0.018
-111.049	634.306	0.037	0.094
-110.034	800.000	0.113	-0.416
-109.020	-200.000	0.052	-0.309
-108.005	370.597	0.009	0.019
-106.991	800.000	0.062	0.230
-105.976	-149.679	0.291	-0.023
-104.962	-100.361	0.205	0.050
-103.947	-200.000	0.016	0.276
-102.932	-200.000	-0.043	0.301
-101.918	183.371	0.183	0.267
-100.903	-11.151	-0.201	-0.131
-99.889	-83.993	0.156	-0.049
-98.874	468.647	0.121	-0.269
-97.859	800.000	0.051	-0.165
-96.845	-200.000	0.072	-0.372
-95.830	-145.518	-0.257	-0.023
-94.816	-86.818	0.119	-0.036
-93.801	-30.505	0.234	-0.131
-92.786	-200.000	-0.030	0.230
-91.772	-200.000	0.047	0.261
-90.757	15.764	-0.311	-0.242
-89.743	-130.631	-0.278	0.037
-88.728	425.370	0.033	-0.071
-87.713	541.036	-0.056	0.131
-86.699	-107.814	0.114	0.025
-85.684	-200.000	-0.021	-0.374
-84.670	136.795	0.330	-0.426
-83.655	-49.499	0.302	0.142
-82.640	800.000	0.073	-0.202
-81.626	211.519	-0.045	0.070
-80.611	-90.117	0.311	-0.090
-79.597	203.199	0.121	-0.184
-78.582	81.864	-0.109	-0.117
-77.567	-107.032	-0.230	-0.050
-76.553	-133.607	-0.300	0.037
-75.538	110.682	0.136	0.161
-74.524	-200.000	0.064	0.325
-73.509	85.655	0.263	0.285
-72.494	273.682	0.236	-0.412
-71.480	-200.000	0.057	-0.315
-70.465	103.439	-0.122	-0.141
-69.451	23.363	0.087	0.071
-68.436	413.582	-0.042	-0.089
-67.422	-37.238	-0.176	-0.093
-66.407	-160.657	-0.081	0.004
-65.392	-53.396	0.073	-0.033
-64.378	-200.000	-0.015	0.121
-63.363	-123.615	0.072	-0.011
-62.349	-41.388	-0.185	0.094
-61.334	9.396	-0.673	-0.502
-60.319	179.085	0.400	0.578
-59.305	800.000	-0.262	-0.854
-58.290	245.197	0.619	1.027
-57.276	385.070	0.855	1.738
-56.261	-200.000	88.672	502.351
-55.246	434.880	1431.452	3068.970
-54.232	142.065	2655.314	3472.700
-53.217	103.754	2375.207	2750.918
-52.203	45.408	1977.414	1799.416
-51.188	39.714	1762.762	1559.192
-50.173	37.040	1717.448	1498.420
-49.159	52.025	1761.305	1654.186
-48.144	55.365	1779.495	1697.335
-47.130	39.674	1738.264	1536.967
-46.115	36.707	1723.341	1500.743
-45.100	36.533	1718.873	1495.442
-44.086	36.459	1716.262	1492.544
-43.071	36.437	1713.598	1489.996
-42.057	36.429	1711.377	1487.947
-41.042	36.499	1708.899	1486.266
-40.027	36.469	1707.064	1484.383
-39.013	36.422	1705.344	1482.468
-37.998	36.441	1703.754	1481.170
-36.984	36.518	1702.151	1480.312
-35.969	36.650	1701.112	1480.358
-34.954	36.673	1699.038	1478.668
-33.940	36.603	1697.450	1476.697
-32.925	36.639	1695.233	1474.984
-31.911	36.588	1693.513	1473.038
-30.896	36.652	1691.680	1471.873
-29.881	36.519	1690.587	1469.855
-28.867	36.540	1688.439	1468.089
-27.852	36.655	1686.827	1467.501
-26.838	36.652	1685.273	1466.065
-25.823	36.594	1684.119	1464.563
-24.809	36.624	1682.488	1463.314
-23.794	36.654	1680.910	1462.115
-22.779	36.662	1679.420	1460.815
-21.765	36.625	1677.615	1458.908
-20.750	36.601	1676.113	1457.365
-19.736	36.644	1674.424	1456.162
-18.721	36.640	1672.890	1454.739
-17.706	36.629	1671.890	1453.728
-16.692	36.609	1670.591	1452.393
-15.677	36.598	1669.168	1451.017
-14.663	36.645	1667.690	1450.024
-13.648	36.678	1665.855	1448.622
-12.633	36.633	1664.567	1447.108
-11.619	36.635	1662.665	1445.411
-10.604	36.617	1661.529	1444.233
-9.590	36.765	1659.693	1443.683
-8.575	36.579	1658.823	1441.485
-7.560	36.636	1657.668	1440.844
-6.546	36.679	1656.196	1439.830
-5.531	36.679	1654.699	1438.473
-4.517	36.618	1654.020	1437.368
-3.502	36.572	1652.994	1436.078
-2.487	36.699	1651.583	1435.738
-1.473	36.766	1640.406	1426.459
-0.458	34.580	1621.180	1393.740
0.556	29.123	1620.946	1361.570
1.571	26.573	1646.444	1363.683
2.586	25.755	1659.494	1368.160
3.600	23.799	1608.376	1311.478
4.615	18.608	1501.011	1187.969
5.629	13.914	1437.419	1106.342
6.644	12.818	1428.738	1092.300
7.659	12.780	1426.909	1090.553
8.673	12.702	1426.096	1089.324
9.688	12.631	1424.415	1087.469
10.702	12.544	1421.622	1084.673
11.717	14.909	1426.393	1103.842
12.731	19.071	1433.622	1136.892
13.746	19.718	1432.824	1140.429
14.761	17.831	1428.163	1124.199
15.775	16.463	1425.143	1112.725
16.790	15.428	1422.083	1103.436
17.804	14.563	1419.662	1095.777
18.819	14.137	1418.083	1091.667
19.834	13.799	1416.198	1087.904
20.848	13.602	1414.964	1085.566
21.863	13.266	1413.894	1082.451
22.877	13.181	1412.584	1080.795
23.892	13.061	1411.823	1079.334
24.907	13.082	1410.879	1078.655
25.921	13.162	1409.849	1078.293
26.936	13.267	1408.930	1078.180
27.950	13.201	1407.928	1076.892
28.965	13.294	1406.837	1076.566
29.980	13.352	1405.614	1075.910
30.994	13.361	1404.338	1074.898
32.009	13.457	1403.357	1074.678
33.023	13.417	1401.917	1073.219
34.038	13.324	1400.617	1071.523
35.053	13.222	1399.920	1070.238
36.067	13.262	1398.283	1069.146
37.082	13.330	1397.330	1068.767
38.096	13.328	1396.300	1067.872
39.111	13.249	1395.388	1066.569
40.126	13.220	1394.583	1065.671
41.140	13.114	1393.719	1064.233
42.155	13.095	1393.327	1063.716
43.169	13.071	1392.830	1063.092
44.184	13.067	1392.815	1062.960
45.199	13.095	1392.451	1062.767
46.213	13.161	1391.689	1062.514
47.228	13.224	1390.492	1061.911
48.242	13.164	1389.840	1060.933
49.257	13.203	1387.834	1059.562
50.271	13.176	1386.542	1058.306
51.286	13.244	1385.200	1057.623
52.301	13.240	1383.781	1056.422
53.315	13.113	1382.775	1054.747
54.330	13.040	1381.832	1053.469
55.344	13.150	1380.221	1052.848
56.359	13.033	1379.912	1051.778
57.374	13.104	1378.332	1050.928
58.388	13.073	1377.731	1050.184
59.403	12.997	1377.310	1049.287
60.417	13.039	1376.356	1048.734
61.432	13.013	1375.549	1047.858
62.447	12.972	1374.712	1046.871
63.461	12.926	1373.116	1045.269
64.476	12.904	1371.983	1044.177
65.490	12.914	1371.211	1043.558
66.505	12.941	1369.477	1042.317
67.520	12.946	1367.963	1041.105
68.534	12.888	1367.445	1040.250
69.549	12.971	1366.048	1039.622
70.563	12.986	1365.007	1038.828
71.578	12.929	1364.194	1037.762
72.593	12.865	1362.938	1036.312
73.607	12.862	1362.248	1035.676
74.622	12.828	1361.660	1034.926
75.636	12.831	1360.608	1034.054
76.651	12.867	1359.830	1033.594
77.666	12.881	1359.225	1033.135
78.680	12.853	1358.964	1032.667
79.695	12.814	1358.363	1031.872
80.709	13.104	1357.153	1032.676
81.724	13.077	1356.013	1031.552
82.739	13.064	1355.603	1031.068
83.753	13.164	1354.691	1030.908
84.768	13.149	1353.725	1029.985
85.782	13.257	1352.246	1029.442
86.797	13.239	1351.002	1028.289
87.812	13.085	1349.915	1026.419
88.826	13.126	1348.655	1025.620
89.841	13.081	1347.862	1024.647
90.855	13.210	1346.388	1024.235
91.870	13.224	1345.732	1023.735
92.884	13.141	1344.828	1022.442
93.899	13.252	1343.880	1022.317
94.914	13.272	1343.355	1021.949
95.928	13.362	1342.304	1021.614
96.943	13.262	1340.944	1019.877
97.957	13.207	1340.261	1018.924
98.972	13.230	1339.259	1018.214
99.987	13.276	1337.701	1017.223
101.001	13.190	1337.048	1016.107
102.016	13.193	1336.391	1015.539
103.030	13.239	1335.611	1015.139
104.045	13.260	1333.952	1013.917
105.060	13.221	1332.954	1012.825
106.074	13.174	1331.145	1011.078
107.089	13.013	1330.196	1009.280
108.103	12.894	1329.235	1007.737
109.118	13.033	1327.759	1007.378
110.133	12.999	1326.123	1005.837
111.147	13.002	1324.828	1004.784
112.162	13.056	1323.575	1004.073
113.176	13.097	1322.373	1003.321
114.191	13.204	1321.157	1002.962
115.206	13.092	1320.420	1001.633
116.220	13.051	1319.008	1000.223
117.235	13.014	1317.930	999.094
118.249	13.005	1317.356	998.517
119.264	13.014	1315.940	997.413
120.279	13.037	1314.850	996.632
121.293	13.001	1314.014	995.698
122.308	12.938	1312.943	994.418
123.322	12.928	1311.757	993.373
124.337	12.956	1310.513	992.508
125.352	12.964	1309.387	991.616
126.366	13.006	1308.057	990.773
127.381	12.998	1307.197	989.986
128.395	13.058	1306.018	989.365
129.410	13.122	1304.710	988.669
130.424	12.990	1304.011	987.265
131.439	13.006	1303.128	986.604
132.454	13.023	1302.256	985.956
133.468	13.110	1301.176	985.570
134.483	13.109	1300.014	984.596
135.497	13.191	1299.273	984.437
136.512	13.117	1298.193	983.094
137.527	13.049	1296.922	981.638
138.541	13.115	1295.139	980.592
139.556	13.150	1293.893	979.771
140.570	13.230	1293.007	979.487
141.585	13.197	1291.629	978.160
142.600	13.317	1290.175	977.683
143.614	13.263	1289.868	977.048
144.629	13.379	1288.665	976.735
145.643	13.260	1287.525	975.080
146.658	13.357	1285.773	974.239
147.673	13.190	1284.450	972.168
148.687	13.188	1282.841	970.852
149.702	13.120	1281.925	969.674
150.716	13.075	1280.462	968.219
151.731	13.156	1279.056	967.543
152.746	13.158	1278.227	966.845
153.760	13.206	1276.875	966.016
154.775	13.308	1275.710	965.645
155.789	13.397	1274.453	965.125
156.804	13.279	1273.440	963.588
157.819	13.356	1272.038	962.886
158.833	13.293	1271.283	961.867
159.848	13.442	1270.553	962.093
160.862	13.357	1269.396	960.637
161.877	13.269	1268.635	959.467
162.892	13.162	1267.554	957.946
163.906	13.314	1266.378	957.848
164.921	13.243	1265.618	956.781
165.935	13.183	1264.899	955.804
166.950	13.365	1263.528	955.737
167.964	13.343	1263.285	955.343
168.979	13.239	1262.540	954.093
169.994	13.306	1261.896	953.910
171.008	13.285	1260.942	952.980
172.023	13.356	1259.925	952.538
173.037	13.476	1259.007	952.448
174.052	13.363	1258.592	951.401
175.067	13.357	1257.030	950.100
176.081	13.324	1255.973	949.032
177.096	13.390	1255.343	948.849
178.110	13.332	1253.972	947.398
179.125	13.344	1252.602	946.343
180.140	13.559	1251.183	946.416
181.154	13.509	1250.158	945.271
182.169	13.547	1248.893	944.451
183.183	13.507	1247.505	943.090
184.198	13.636	1246.306	942.835
185.213	13.516	1245.219	941.247
186.227	13.661	1244.204	941.220
187.242	13.611	1243.464	940.291
188.256	13.605	1242.920	939.762
189.271	13.609	1241.607	938.708
190.286	13.620	1240.332	937.723
191.300	13.494	1239.542	936.330
192.315	13.364	1239.098	935.181
193.329	13.454	1237.979	934.759
194.344	13.484	1237.430	934.432
195.359	13.488	1237.115	934.133
196.373	13.582	1236.403	934.043
197.388	13.605	1235.928	933.731
198.402	13.780	1235.102	934.009
199.417	13.730	1234.842	933.449
200.432	13.928	1233.589	933.531
201.446	13.849	1233.019	932.576
202.461	13.886	1231.852	931.819
203.475	13.871	1231.115	931.096
204.490	13.830	1229.704	929.712
205.504	13.795	1228.492	928.519
206.519	13.775	1227.512	927.588
207.534	13.721	1226.331	926.307
208.548	13.720	1225.261	925.415
209.563	13.836	1224.343	925.283
210.577	13.798	1223.560	924.401
211.592	13.873	1222.298	923.782
212.607	14.002	1221.568	923.866
213.621	14.027	1220.605	923.197
214.636	13.882	1220.199	922.000
215.650	13.957	1219.054	921.473
216.665	14.063	1218.195	921.327
217.680	13.956	1217.507	920.131
218.694	13.996	1216.468	919.485
219.709	14.027	1215.706	919.002
220.723	14.042	1215.048	918.506
221.738	14.026	1214.162	917.664
222.753	14.070	1213.376	917.233
223.767	14.027	1212.740	916.436
224.782	14.097	1212.031	916.201
225.796	14.104	1211.355	915.651
226.811	14.247	1210.728	915.884
227.826	14.120	1209.854	914.443
228.840	14.168	1209.087	914.042
229.855	14.083	1208.682	913.191
230.869	14.159	1207.535	912.658
231.884	14.151	1206.584	911.819
232.899	14.182	1205.767	911.290
233.913	14.086	1205.071	910.155
234.928	14.110	1204.479	909.760
235.942	14.138	1203.128	908.811
236.957	14.182	1202.611	908.583
237.972	14.179	1201.882	907.932
238.986	14.149	1201.365	907.298
240.001	14.161	1200.612	906.714
241.015	14.161	1199.684	905.934
242.030	14.181	1199.344	905.709
243.045	14.348	1197.758	905.339
244.059	14.295	1196.967	904.370
245.074	14.301	1196.417	903.908
246.088	14.352	1195.462	903.383
247.103	14.306	1194.671	902.455
248.117	14.437	1194.176	902.709
249.132	14.437	1193.894	902.419
250.147	14.451	1193.319	901.979
251.161	14.605	1192.112	901.822
252.176	14.651	1191.610	901.612
253.190	14.711	1190.789	901.234
254.205	14.780	1190.210	901.085
255.220	14.708	1189.399	900.003
256.234	14.562	1189.217	899.000
257.249	14.710	1188.372	899.080
258.263	14.676	1187.197	897.929
259.278	14.755	1186.843	898.003
260.293	14.718	1186.449	897.428
261.307	14.832	1185.798	897.470
262.322	14.740	1185.176	896.424
263.336	14.880	1183.978	896.191
264.351	14.863	1183.616	895.746
265.366	14.863	1183.151	895.317
266.380	14.831	1182.166	894.317
267.395	14.835	1181.427	893.705
268.409	14.879	1180.565	893.207
269.424	14.789	1180.053	892.257
270.439	14.883	1179.497	892.262
271.453	14.834	1179.153	891.658
272.468	14.772	1177.660	890.124
273.482	14.844	1176.850	889.812
274.497	14.898	1176.176	889.516
275.512	14.806	1175.611	888.521
276.526	14.969	1174.575	888.524
277.541	14.857	1174.161	887.539
278.555	14.932	1173.489	887.347
279.570	14.932	1172.796	886.747
280.585	15.118	1171.294	886.518
281.599	15.187	1170.416	886.135
282.614	15.014	1169.588	884.519
283.628	14.959	1168.777	883.535
284.643	15.019	1167.956	883.152
285.657	15.073	1166.768	882.462
286.672	15.033	1166.055	881.636
287.687	15.067	1165.040	880.968
288.701	15.005	1164.530	880.180
289.716	15.101	1163.621	879.919
290.730	15.020	1163.175	879.076
291.745	15.014	1162.320	878.322
292.760	15.071	1161.360	877.816
293.774	15.180	1160.896	877.960
294.789	15.181	1160.427	877.531
295.803	15.184	1159.764	876.969
296.818	15.180	1158.638	876.021
297.833	15.215	1157.527	875.284
298.847	15.278	1157.108	875.218
299.862	15.261	1156.074	874.272
300.876	15.152	1155.451	873.152
301.891	15.340	1154.963	873.688
302.906	15.353	1154.174	873.083
303.920	15.447	1153.384	872.894
304.935	15.535	1152.743	872.792
305.949	15.464	1152.339	872.040
306.964	15.432	1151.481	871.146
307.979	15.362	1150.929	870.289
308.993	15.408	1149.876	869.653
310.008	15.378	1148.885	868.669
311.022	15.501	1148.171	868.693
312.037	15.496	1147.572	868.132
313.052	15.559	1146.197	867.345
314.066	15.472	1145.349	866.178
315.081	15.369	1144.413	864.859
316.095	15.373	1143.979	864.475
317.110	15.399	1143.351	864.057
318.125	15.428	1142.405	863.416
319.139	15.396	1141.816	862.730
320.154	15.300	1141.177	861.681
321.168	15.426	1140.275	861.570
322.183	15.521	1139.581	861.453
323.197	15.561	1139.234	861.320
324.212	15.401	1138.744	860.053
325.227	15.542	1137.960	860.109
326.241	15.526	1137.073	859.282
327.256	15.507	1136.632	858.775
328.270	15.439	1135.626	857.589
329.285	15.561	1134.215	857.074
330.300	15.677	1133.253	856.862
331.314	15.581	1132.657	855.843
332.329	15.538	1131.706	854.832
333.343	15.670	1130.877	854.802
334.358	15.815	1129.626	854.515
335.373	15.592	1129.566	853.263
336.387	15.604	1128.577	852.501
337.402	15.731	1127.771	852.459
338.416	15.585	1127.331	851.312
339.431	15.756	1126.576	851.534
340.446	15.780	1125.977	851.128
341.460	15.843	1125.246	850.819
342.475	15.815	1124.147	849.768
343.489	15.936	1123.208	849.596
344.504	16.009	1122.361	849.245
345.519	15.981	1121.199	848.152
346.533	15.911	1120.741	847.376
347.548	16.026	1119.785	847.160
348.562	16.044	1118.970	846.559
349.577	15.928	1118.185	845.305
350.592	15.948	1117.321	844.679
351.606	15.910	1116.625	843.886
352.621	15.943	1116.153	843.619
353.635	15.881	1115.254	842.557
354.650	15.921	1114.660	842.232
355.665	15.938	1114.101	841.821
356.679	15.990	1113.269	841.377
357.694	15.923	1112.951	840.730
358.708	16.070	1111.862	840.563
359.723	16.089	1110.705	839.708
360.738	16.122	1110.522	839.663
361.752	16.182	1109.771	839.318
362.767	16.202	1109.348	839.024
363.781	16.144	1108.665	838.145
364.796	16.064	1108.235	837.349
365.810	16.197	1107.947	837.718
366.825	16.222	1107.257	837.244
367.840	16.171	1107.110	836.807
368.854	16.286	1105.873	836.367
369.869	16.298	1105.072	835.747
370.883	16.275	1104.538	835.158
371.898	16.299	1103.184	834.175
372.913	16.326	1102.793	833.941
373.927	16.341	1102.710	833.880
374.942	16.397	1101.618	833.256
375.956	16.422	1101.074	832.891
376.971	16.316	1100.736	832.042
377.986	16.404	1100.412	832.155
379.000	16.557	1099.529	832.168
380.015	16.610	1098.830	831.827
381.029	16.476	1098.509	830.849
382.044	16.630	1097.372	830.672
383.059	16.533	1096.737	829.644
384.073	16.589	1095.978	829.269
385.088	16.687	1094.692	828.701
386.102	16.633	1093.669	827.592
387.117	16.463	1093.507	826.563
388.132	16.561	1092.152	825.947
389.146	16.538	1091.065	824.936
390.161	16.415	1090.945	824.173
391.175	16.530	1090.004	823.952
392.190	16.532	1089.388	823.423
393.205	16.694	1088.250	823.279
394.219	16.695	1087.693	822.788
395.234	16.614	1087.209	821.954
396.248	16.617	1085.814	820.841
397.263	16.521	1084.905	819.619
398.278	16.522	1084.128	818.961
399.292	16.624	1083.220	818.699
400.307	16.499	1082.752	817.668
401.321	16.569	1081.978	817.346
402.336	16.629	1081.175	816.961
403.350	16.594	1080.851	816.473
404.365	16.651	1079.897	815.956
405.380	16.686	1079.421	815.689
406.394	16.762	1078.257	815.106
407.409	16.882	1077.623	815.131
408.423	16.753	1076.898	813.891
409.438	16.871	1076.370	813.984
410.453	16.885	1075.592	813.393
411.467	16.926	1074.967	813.044
412.482	17.040	1074.248	812.975
413.496	17.036	1073.245	812.125
414.511	17.054	1072.771	811.780
415.526	17.086	1072.635	811.759
416.540	17.021	1072.001	810.896
417.555	17.074	1071.514	810.709
418.569	16.931	1071.508	809.953
419.584	17.094	1070.399	809.819
420.599	17.034	1070.188	809.299
421.613	94.681	1313.252	1424.717
422.628	87.612	1348.637	1424.813
