DTS Sentinel unit serial number:	SN413079Multiplexer serial number:	ORYXHardware model number:	OX4-SRSoftware version number:	ORYX F/W v4.00 Oryx Data Collector v3.7.2.0data status	okinstallation	princeton_trtdifferential loss correction	single-endedforward channel	channel 2reverse channel	N/Adate	2019/09/16time	21:47:35forward acquisition time	60.00reverse acquisition time	0.00gamma	496.2192k internal	0.2328k external	0.2328temperature offset calibration	0.9969default loss term (dB/km)	0.3790temperature slope calibration	1.0000multiplexer offset coefficient	1.0000multiplexer slope coefficient	1.0000fibre end	0.00T internal ref (°C)	31.27T ext. ref 1 (°C)	0.06T ext. ref 2 (°C)	25.58length (m)	temperature (°C)	Stokes	anti-Stokes-747.200	-138.466	-0.227	0.025
-746.185	111.961	0.236	0.288
-745.171	800.000	-0.077	0.263
-744.156	-200.000	0.022	0.186
-743.142	301.642	-0.098	0.182
-742.127	161.648	0.164	0.231
-741.112	-200.000	0.037	-0.183
-740.098	-11.425	-0.321	0.213
-739.083	-200.000	-0.030	-0.277
-738.069	16.508	0.068	0.054
-737.054	-200.000	-0.027	-0.437
-736.039	-153.420	-0.197	-0.014
-735.025	592.178	0.126	0.314
-734.010	-41.781	-0.225	-0.116
-732.996	-200.000	0.012	-0.199
-731.981	298.068	0.085	0.158
-730.966	54.104	-0.216	0.210
-729.952	-44.207	-0.331	-0.167
-728.937	-111.939	-0.182	-0.037
-727.923	-106.115	-0.254	0.057
-726.908	800.000	-0.025	-0.072
-725.894	40.768	-0.181	0.165
-724.879	86.057	-0.057	-0.063
-723.864	-200.000	-0.032	-0.288
-722.850	-102.904	-0.125	-0.030
-721.835	368.013	0.059	-0.121
-720.821	-49.225	-0.060	-0.029
-719.806	697.459	0.053	0.140
-718.791	86.978	0.129	0.143
-717.777	-117.743	-0.263	0.048
-716.762	102.205	0.140	-0.165
-715.748	800.000	0.155	-0.433
-714.733	590.893	-0.177	-0.439
-713.718	108.508	-0.106	0.128
-712.704	0.102	0.250	0.180
-711.689	-200.000	0.039	0.249
-710.675	-3.594	0.274	0.191
-709.660	92.221	0.090	0.103
-708.645	719.477	0.121	-0.325
-707.631	553.455	0.082	-0.198
-706.616	-128.670	0.291	-0.041
-705.602	-89.997	0.301	-0.088
-704.587	334.642	0.155	-0.302
-703.572	-138.986	0.117	-0.013
-702.558	-200.000	-0.025	0.308
-701.543	405.320	-0.144	0.305
-700.529	800.000	0.078	0.231
-699.514	20.365	0.086	-0.070
-698.499	-123.840	-0.401	-0.064
-697.485	-182.771	0.213	-0.004
-696.470	800.000	-0.042	-0.156
-695.456	701.167	-0.057	0.151
-694.441	-62.757	-0.244	0.102
-693.426	800.000	0.076	-0.215
-692.412	800.000	-0.082	-0.265
-691.397	-76.040	0.073	0.026
-690.383	428.330	-0.216	0.468
-689.368	-200.000	-0.009	0.200
-688.354	800.000	-0.097	-0.362
-687.339	-79.434	0.252	0.086
-686.324	-162.690	0.279	0.014
-685.310	423.251	0.026	-0.056
-684.295	-200.000	0.025	-0.279
-683.281	-200.000	-0.002	-0.010
-682.266	-200.000	-0.022	0.307
-681.251	-200.000	-0.058	0.272
-680.237	47.384	-0.200	0.187
-679.222	-76.099	-0.270	0.096
-678.208	800.000	-0.108	-0.387
-677.193	-200.000	0.019	-0.128
-676.178	-67.703	-0.300	0.118
-675.164	130.982	-0.081	-0.105
-674.149	-122.538	0.114	-0.019
-673.135	16.311	-0.146	-0.116
-672.120	154.379	0.201	-0.278
-671.105	-200.000	-0.087	-0.484
-670.091	-200.000	0.015	-0.320
-669.076	-31.705	0.440	-0.248
-668.062	-46.387	-0.225	0.111
-667.047	222.703	-0.131	0.213
-666.032	-200.000	0.008	0.288
-665.018	4.616	-0.280	0.206
-664.003	-200.000	-0.036	-0.268
-662.989	-89.786	-0.286	-0.084
-661.974	-174.303	0.178	0.005
-660.959	-83.718	-0.356	-0.114
-659.945	136.422	-0.301	-0.395
-658.930	-159.078	-0.235	0.013
-657.916	59.327	-0.187	-0.185
-656.901	229.768	0.239	-0.392
-655.886	-51.969	-0.296	0.138
-654.872	7.608	-0.142	-0.107
-653.857	-34.163	0.201	-0.111
-652.843	800.000	-0.182	-0.625
-651.828	8.563	-0.143	0.108
-650.814	67.858	0.170	0.175
-649.799	-25.123	-0.259	0.154
-648.784	-24.964	-0.116	0.069
-647.770	800.000	-0.093	-0.261
-646.755	800.000	-0.126	-0.461
-645.741	800.000	-0.077	0.313
-644.726	-133.116	0.143	0.018
-643.711	88.774	-0.110	0.123
-642.697	-200.000	-0.076	0.431
-641.682	800.000	-0.043	0.154
-640.668	-11.370	0.005	0.003
-639.653	-140.696	-0.324	0.034
-638.638	-200.000	0.089	-0.469
-637.624	-161.018	-0.254	-0.013
-636.609	51.922	-0.070	0.067
-635.595	800.000	-0.179	0.560
-634.580	596.824	0.103	0.255
-633.565	-57.808	0.244	-0.107
-632.551	-17.762	-0.147	0.093
-631.536	27.065	0.299	0.252
-630.522	-200.000	0.034	0.208
-629.507	0.447	-0.147	-0.106
-628.492	175.120	-0.062	0.090
-627.478	33.710	-0.152	0.132
-626.463	236.452	-0.054	-0.090
-625.449	-38.013	-0.115	-0.061
-624.434	772.949	-0.079	0.217
-623.419	800.000	-0.072	-0.301
-622.405	800.000	-0.124	0.370
-621.390	-77.847	0.226	-0.078
-620.376	-31.802	-0.356	0.200
-619.361	578.280	0.178	0.438
-618.346	-155.960	0.420	-0.027
-617.332	119.449	-0.173	-0.215
-616.317	238.610	0.150	-0.250
-615.303	-30.490	-0.183	-0.104
-614.288	37.267	-0.127	-0.113
-613.273	-200.000	0.031	-0.292
-612.259	-121.559	-0.262	0.044
-611.244	-51.158	-0.191	0.090
-610.230	260.137	0.036	0.063
-609.215	-200.000	-0.055	0.284
-608.201	800.000	-0.054	-0.220
-607.186	-130.130	0.085	-0.012
-606.171	-200.000	-0.000	-0.012
-605.157	747.139	-0.108	0.293
-604.142	138.059	0.089	0.117
-603.128	-173.977	-0.201	0.006
-602.113	-200.000	-0.009	-0.384
-601.098	-200.000	0.009	-0.150
-600.084	-110.038	-0.128	0.027
-599.069	-32.382	-0.316	0.176
-598.055	-200.000	0.043	0.274
-597.040	482.093	-0.134	-0.305
-596.025	-89.822	-0.155	-0.046
-595.011	39.088	0.055	-0.049
-593.996	-53.006	-0.171	0.079
-592.982	1.099	0.359	0.258
-591.967	238.067	-0.081	0.135
-590.952	-14.446	-0.081	0.052
-589.938	-56.004	-0.161	-0.072
-588.923	612.440	-0.074	0.184
-587.909	0.592	-0.127	-0.091
-586.894	86.554	0.145	0.160
-585.879	800.000	-0.040	0.134
-584.865	-16.032	0.167	-0.107
-583.850	464.591	-0.263	-0.589
-582.836	-200.000	-0.001	-0.068
-581.821	-200.000	0.001	-0.140
-580.806	-200.000	-0.002	0.037
-579.792	-22.077	-0.259	-0.158
-578.777	-100.099	0.096	-0.024
-577.763	-151.479	-0.310	-0.023
-576.748	-167.591	-0.153	-0.006
-575.733	531.807	0.083	-0.196
-574.719	-200.000	-0.093	-0.508
-573.704	-4.240	-0.106	-0.074
-572.690	-127.590	0.492	-0.071
-571.675	-200.000	-0.049	-0.226
-570.661	800.000	0.043	-0.177
-569.646	-33.876	-0.073	0.040
-568.631	800.000	-0.040	0.138
-567.617	-200.000	-0.030	0.176
-566.602	-23.363	0.187	0.113
-565.588	778.139	-0.115	-0.315
-564.573	166.994	0.061	0.087
-563.558	800.000	-0.040	0.115
-562.544	-200.000	-0.006	0.402
-561.529	757.166	0.087	0.235
-560.515	737.608	-0.110	0.294
-559.500	50.441	-0.137	-0.129
-558.485	-101.092	0.097	0.024
-557.471	-115.591	-0.315	0.059
-556.456	800.000	-0.034	-0.112
-555.442	350.308	-0.080	0.158
-554.427	-32.926	0.133	-0.074
-553.412	154.450	-0.095	-0.130
-552.398	800.000	-0.094	0.310
-551.383	800.000	-0.080	0.266
-550.369	49.797	0.124	-0.117
-549.354	190.802	0.103	0.155
-548.339	297.550	-0.092	0.168
-547.325	-200.000	0.091	0.419
-546.310	-124.113	0.119	0.019
-545.296	549.287	0.058	-0.140
-544.281	-93.915	0.134	-0.037
-543.266	191.548	0.162	0.244
-542.252	-200.000	-0.039	0.197
-541.237	-200.000	0.033	0.238
-540.223	-145.204	-0.547	0.050
-539.208	66.609	0.211	-0.215
-538.193	-46.911	-0.028	-0.014
-537.179	310.324	0.111	0.208
-536.164	171.400	0.098	0.140
-535.150	-68.315	-0.062	-0.024
-534.135	605.807	-0.130	0.323
-533.121	-37.491	-0.120	0.064
-532.106	-68.969	0.298	-0.115
-531.091	77.842	0.305	-0.325
-530.077	-60.573	0.215	-0.091
-529.062	-103.258	-0.184	-0.043
-528.048	32.213	0.160	0.138
-527.033	800.000	0.023	0.071
-526.018	-73.649	-0.333	-0.121
-525.004	-102.322	-0.374	-0.090
-523.989	-37.503	-0.282	-0.150
-522.975	-170.553	0.119	0.004
-521.960	307.829	-0.072	0.135
-520.945	309.043	-0.161	0.301
-519.931	414.965	-0.091	0.193
-518.916	-200.000	-0.003	-0.061
-517.902	34.476	-0.278	-0.242
-516.887	-100.296	-0.267	0.066
-515.872	0.438	0.148	0.106
-514.858	-76.600	0.373	0.131
-513.843	-200.000	0.015	-0.225
-512.829	-174.554	-0.349	-0.010
-511.814	-112.489	0.223	-0.044
-510.799	-101.320	0.186	-0.045
-509.785	-24.917	-0.198	0.117
-508.770	800.000	0.119	0.338
-507.756	-126.027	-0.054	0.008
-506.741	-200.000	-0.026	-0.355
-505.726	68.666	-0.047	-0.048
-504.712	223.806	-0.251	0.404
-503.697	800.000	0.060	-0.171
-502.683	101.543	-0.097	0.113
-501.668	50.411	0.144	0.136
-500.653	-0.226	0.202	-0.143
-499.639	275.827	0.148	-0.261
-498.624	317.012	0.028	0.053
-497.610	-71.338	0.216	0.081
-496.595	-143.091	0.108	0.010
-495.581	-9.779	0.107	0.071
-494.566	224.324	-0.141	0.227
-493.551	-141.699	-0.158	0.016
-492.537	-14.821	0.262	0.168
-491.522	716.985	-0.029	-0.077
-490.508	-130.595	-0.412	0.055
-489.493	-200.000	0.012	-0.093
-488.478	57.489	0.347	-0.338
-487.464	458.638	0.103	0.228
-486.449	-200.000	-0.030	0.194
-485.435	514.930	-0.082	-0.191
-484.420	268.154	-0.204	-0.356
-483.405	88.383	0.069	0.077
-482.391	-200.000	0.011	0.159
-481.376	146.229	0.149	-0.199
-480.362	-82.029	-0.048	0.016
-479.347	-200.000	0.017	-0.130
-478.332	-59.055	-0.160	-0.069
-477.318	-39.113	0.241	-0.126
-476.303	349.803	0.155	-0.306
-475.289	-200.000	-0.001	0.101
-474.274	-26.991	-0.198	0.115
-473.259	-93.814	0.052	-0.014
-472.245	69.803	0.199	0.205
-471.230	-200.000	0.002	-0.014
-470.216	140.879	-0.058	0.076
-469.201	-0.575	-0.132	-0.094
-468.186	-111.177	-0.230	-0.047
-467.172	-26.145	0.330	0.193
-466.157	-200.000	0.054	0.284
-465.143	234.123	0.198	-0.325
-464.128	-64.417	-0.152	0.062
-463.113	-82.723	0.196	0.063
-462.099	-167.711	0.108	0.004
-461.084	171.663	0.029	0.042
-460.070	273.749	0.152	-0.269
-459.055	-159.001	0.336	0.019
-458.040	-200.000	0.082	-0.504
-457.026	800.000	0.120	0.380
-456.011	48.835	-0.127	-0.119
-454.997	-200.000	-0.018	0.133
-453.982	-191.053	0.256	0.003
-452.968	458.862	0.050	0.112
-451.953	-113.832	0.084	-0.016
-450.938	568.028	0.060	-0.145
-449.924	362.114	-0.137	0.273
-448.909	-142.902	-0.189	-0.018
-447.895	0.769	0.175	0.125
-446.880	-200.000	-0.075	0.345
-445.865	-179.655	0.447	-0.010
-444.851	800.000	0.051	-0.200
-443.836	47.866	-0.106	0.099
-442.822	800.000	-0.064	-0.192
-441.807	-59.659	0.211	-0.090
-440.792	-200.000	0.014	0.073
-439.778	-31.499	-0.158	0.089
-438.763	-102.721	0.169	0.040
-437.749	-200.000	0.020	0.140
-436.734	-200.000	0.013	-0.370
-435.719	77.928	0.084	-0.090
-434.705	30.944	-0.205	0.175
-433.690	17.147	-0.325	-0.256
-432.676	-200.000	0.026	0.485
-431.661	-74.503	0.106	0.038
-430.646	458.577	0.050	-0.110
-429.632	252.494	0.149	-0.253
-428.617	89.472	-0.315	0.349
-427.603	-75.255	-0.170	0.060
-426.588	800.000	-0.042	0.165
-425.573	-200.000	-0.040	0.210
-424.559	786.368	-0.046	0.126
-423.544	-134.029	-0.347	0.043
-422.530	0.129	0.412	-0.293
-421.515	646.923	-0.069	0.176
-420.500	-52.782	-0.200	-0.092
-419.486	-117.596	0.086	-0.015
-418.471	13.484	-0.158	-0.122
-417.457	-200.000	-0.030	0.343
-416.442	23.487	0.079	0.065
-415.428	-25.027	-0.040	0.024
-414.413	-30.813	0.041	0.023
-413.398	-24.229	-0.190	0.113
-412.384	274.915	0.094	-0.166
-411.369	-200.000	-0.010	0.114
-410.355	-112.175	-0.177	-0.035
-409.340	-36.865	0.148	-0.079
-408.325	539.803	-0.103	0.244
-407.311	220.234	0.209	0.333
-406.296	281.081	0.147	-0.261
-405.282	-200.000	0.062	-0.293
-404.267	459.129	-0.213	-0.471
-403.252	412.839	0.178	-0.377
-402.238	55.746	-0.325	0.313
-401.223	-10.426	0.122	-0.081
-400.209	-40.401	-0.225	-0.116
-399.194	-200.000	-0.000	0.057
-398.179	75.496	-0.250	0.262
-397.165	800.000	-0.139	-0.419
-396.150	-200.000	-0.003	0.338
-395.136	-200.000	0.011	0.430
-394.121	800.000	0.068	0.285
-393.106	23.573	0.034	0.028
-392.092	400.186	-0.041	0.085
-391.077	-47.709	0.299	0.144
-390.063	-135.381	-0.230	-0.027
-389.048	340.789	0.035	-0.068
-388.033	-130.355	-0.144	0.019
-387.019	-80.568	-0.384	-0.127
-386.004	-5.290	0.223	-0.153
-384.990	-2.407	-0.181	-0.126
-383.975	2.596	-0.240	-0.173
-382.960	-200.000	-0.028	-0.273
-381.946	167.532	-0.169	0.238
-380.931	-17.379	0.139	0.087
-379.917	101.958	0.071	0.082
-378.902	800.000	0.056	-0.191
-377.888	-200.000	0.051	-0.288
-376.873	-150.650	0.343	-0.026
-375.858	-92.925	0.098	0.027
-374.844	567.973	-0.050	-0.120
-373.829	-200.000	-0.019	-0.110
-372.815	369.638	-0.136	-0.274
-371.800	-97.836	-0.463	-0.119
-370.785	67.166	0.295	-0.298
-369.771	-200.000	-0.041	-0.230
-368.756	800.000	0.067	-0.221
-367.742	-200.000	0.016	-0.119
-366.727	-135.044	0.124	0.015
-365.712	-200.000	-0.046	0.348
-364.698	-25.022	0.222	0.131
-363.683	200.812	0.164	-0.250
-362.669	-121.109	0.265	0.044
-361.654	-6.254	-0.300	-0.203
-360.639	-115.369	0.225	0.042
-359.625	800.000	-0.139	-0.390
-358.610	771.947	0.014	0.037
-357.596	-158.049	0.287	-0.017
-356.581	200.898	-0.078	-0.120
-355.566	-200.000	0.056	-0.260
-354.552	23.353	0.013	0.011
-353.537	212.423	-0.138	-0.215
-352.523	800.000	-0.111	-0.350
-351.508	-200.000	0.001	-0.026
-350.493	197.697	0.028	-0.043
-349.479	2.601	0.325	0.233
-348.464	-151.566	-0.367	0.027
-347.450	344.019	0.228	-0.444
-346.435	364.030	0.044	0.087
-345.420	-39.245	-0.188	0.098
-344.406	106.056	-0.048	0.057
-343.391	-200.000	0.007	-0.318
-342.377	-116.953	-0.268	0.049
-341.362	-62.987	-0.195	-0.080
-340.348	378.611	0.117	0.237
-339.333	-200.000	0.071	0.557
-338.318	86.954	-0.247	-0.270
-337.304	-148.129	-0.199	0.016
-336.289	-163.377	0.225	0.011
-335.275	800.000	0.025	0.079
-334.260	-40.824	0.296	0.152
-333.245	16.816	-0.125	0.098
-332.231	-200.000	0.016	0.094
-331.216	-22.240	-0.115	-0.069
-330.202	395.751	0.058	-0.119
-329.187	-200.000	-0.019	0.270
-328.172	-153.667	-0.337	-0.023
-327.158	-135.760	0.209	-0.024
-326.143	227.582	-0.264	0.425
-325.129	19.947	0.108	0.086
-324.114	-200.000	0.017	-0.179
-323.099	800.000	0.038	0.143
-322.085	432.553	-0.027	0.057
-321.070	-200.000	0.088	-0.439
-320.056	-200.000	0.028	-0.184
-319.041	800.000	0.066	0.194
-318.026	-35.194	0.271	-0.146
-317.012	-200.000	0.018	0.183
-315.997	67.586	0.203	0.205
-314.983	-6.899	0.099	-0.067
-313.968	-100.892	-0.124	-0.030
-312.953	240.514	0.272	-0.449
-311.939	-112.288	0.307	-0.061
-310.924	177.551	-0.101	-0.147
-309.910	453.420	0.095	-0.209
-308.895	-1.930	0.088	-0.062
-307.880	-95.851	-0.146	0.039
-306.866	222.306	-0.096	0.154
-305.851	11.846	0.212	0.161
-304.837	-37.900	-0.239	-0.126
-303.822	389.869	0.088	0.180
-302.807	-106.956	-0.049	0.011
-301.793	143.566	-0.093	-0.123
-300.778	800.000	0.079	-0.238
-299.764	-33.623	0.116	-0.063
-298.749	-191.443	0.296	0.003
-297.735	-116.995	0.282	0.051
-296.720	-4.716	-0.183	-0.125
-295.705	239.606	-0.082	0.136
-294.691	-200.000	0.003	-0.075
-293.676	800.000	-0.096	-0.266
-292.662	-42.338	0.277	-0.140
-291.647	-101.959	0.337	0.081
-290.632	-86.851	-0.023	0.007
-289.618	800.000	0.031	0.088
-288.603	70.401	0.123	0.125
-287.589	800.000	-0.111	-0.444
-286.574	-21.623	-0.156	0.094
-285.559	7.448	0.207	0.153
-284.545	81.288	-0.183	-0.195
-283.530	-33.363	-0.138	-0.075
-282.516	485.438	0.137	0.308
-281.501	-45.718	-0.120	0.059
-280.486	-48.461	-0.234	0.112
-279.472	498.175	0.128	-0.291
-278.457	-112.072	0.126	-0.025
-277.443	-83.568	-0.198	0.063
-276.428	122.732	-0.100	-0.124
-275.413	235.016	-0.176	-0.288
-274.399	-100.679	-0.189	-0.046
-273.384	-17.168	-0.210	0.131
-272.370	-200.000	-0.101	-0.000
-271.355	37.406	0.117	-0.103
-270.340	15.205	0.495	0.384
-269.326	-123.776	0.150	-0.023
-268.311	76.860	0.134	-0.141
-267.297	-79.592	-0.258	0.086
-266.282	-41.734	-0.198	-0.101
-265.267	-127.261	0.172	-0.025
-264.253	800.000	0.096	-0.344
-263.238	-78.022	0.422	-0.144
-262.224	454.216	0.150	-0.328
-261.209	-81.674	-0.239	0.078
-260.195	565.245	-0.128	-0.306
-259.180	-200.000	-0.067	-0.418
-258.165	249.893	0.064	0.107
-257.151	-98.781	0.074	0.019
-256.136	523.645	0.047	-0.110
-255.122	-42.890	0.408	0.205
-254.107	128.754	-0.209	-0.264
-253.092	-50.709	-0.100	-0.047
-252.078	134.159	-0.190	-0.244
-251.063	-99.709	-0.091	-0.023
-250.049	-140.795	-0.061	-0.006
-249.034	-144.822	-0.119	0.011
-248.019	5.808	0.348	-0.254
-247.005	800.000	-0.153	0.417
-245.990	-78.409	0.148	-0.050
-244.976	-200.000	0.030	0.418
-243.961	75.789	0.138	-0.144
-242.946	23.112	0.223	0.181
-241.932	-37.547	0.108	0.057
-240.917	36.846	-0.266	0.233
-239.903	225.111	0.180	0.287
-238.888	-200.000	0.001	0.207
-237.873	-28.028	0.136	-0.078
-236.859	-67.925	0.182	-0.070
-235.844	137.132	0.052	0.067
-234.830	146.498	0.083	0.110
-233.815	211.888	-0.027	-0.041
-232.800	800.000	-0.020	-0.067
-231.786	-200.000	-0.030	0.224
-230.771	800.000	0.081	-0.271
-229.757	317.239	-0.042	0.079
-228.742	800.000	0.049	0.193
-227.727	-55.224	-0.355	-0.158
-226.713	-200.000	-0.019	-0.107
-225.698	-95.300	0.146	0.039
-224.684	-105.993	0.188	-0.042
-223.669	300.749	0.172	0.313
-222.655	-108.417	-0.241	-0.051
-221.640	800.000	-0.072	-0.249
-220.625	800.000	-0.017	0.050
-219.611	110.285	0.053	-0.063
-218.596	-200.000	0.010	0.085
-217.582	52.757	0.310	0.293
-216.567	-95.387	0.061	0.016
-215.552	-200.000	-0.005	-0.151
-214.538	800.000	0.080	-0.226
-213.523	-47.268	-0.152	0.073
-212.509	-200.000	-0.016	-0.190
-211.494	800.000	-0.086	0.273
-210.479	780.293	0.079	-0.214
-209.465	325.894	0.077	0.145
-208.450	-88.071	-0.195	-0.058
-207.436	33.094	-0.059	-0.050
-206.421	397.678	-0.154	-0.319
-205.406	555.069	0.126	0.298
-204.392	90.591	0.138	-0.153
-203.377	-200.000	-0.002	-0.168
-202.363	-115.899	0.409	-0.075
-201.348	-200.000	0.010	-0.149
-200.333	247.838	0.042	-0.071
-199.319	-200.000	0.001	0.215
-198.304	338.903	0.122	0.234
-197.290	-15.435	-0.329	-0.208
-196.275	786.411	0.074	-0.199
-195.260	-98.262	0.214	-0.054
-194.246	-102.149	-0.301	-0.071
-193.231	-58.858	-0.243	-0.104
-192.217	-64.864	0.349	-0.139
-191.202	511.704	0.162	-0.372
-190.187	432.991	-0.160	-0.343
-189.173	-200.000	0.019	-0.152
-188.158	-90.105	0.094	-0.027
-187.144	67.232	-0.280	0.282
-186.129	93.526	-0.126	0.141
-185.114	-200.000	-0.001	0.167
-184.100	374.112	-0.168	0.336
-183.085	-134.221	0.495	-0.060
-182.071	172.326	0.085	-0.121
-181.056	-43.742	-0.187	0.093
-180.042	-95.893	0.120	0.031
-179.027	800.000	0.084	0.347
-178.012	-200.000	-0.006	0.077
-176.998	-200.000	-0.007	-0.154
-175.983	-111.639	0.317	0.063
-174.969	-24.446	-0.117	0.069
-173.954	-41.183	0.301	0.153
-172.939	170.468	0.060	-0.085
-171.925	376.105	-0.150	0.302
-170.910	800.000	-0.069	-0.211
-169.896	160.291	-0.084	0.116
-168.881	-130.174	0.435	-0.058
-167.866	-200.000	0.008	0.345
-166.852	-200.000	-0.034	-0.205
-165.837	-156.090	-0.083	0.005
-164.823	-200.000	0.020	-0.132
-163.808	-59.010	-0.139	-0.059
-162.793	-200.000	0.002	-0.055
-161.779	-69.520	0.373	0.141
-160.764	-51.920	-0.105	0.048
-159.750	103.073	-0.208	-0.240
-158.735	12.486	-0.165	0.125
-157.720	2.603	-0.025	-0.018
-156.706	-200.000	0.013	-0.205
-155.691	800.000	-0.027	-0.081
-154.677	-200.000	0.081	0.556
-153.662	-83.784	-0.168	-0.053
-152.647	48.252	0.222	0.205
-151.633	325.551	0.199	0.375
-150.618	-142.746	-0.114	0.011
-149.604	540.486	-0.198	-0.463
-148.589	-200.000	-0.027	0.250
-147.574	627.639	0.012	-0.030
-146.560	196.763	-0.233	0.350
-145.545	16.378	0.323	-0.251
-144.531	-49.144	-0.204	0.096
-143.516	800.000	0.046	-0.130
-142.502	-62.322	0.270	-0.111
-141.487	-80.880	-0.104	0.034
-140.472	-35.658	-0.067	0.036
-139.458	-129.263	0.173	-0.024
-138.443	-138.181	0.163	-0.018
-137.429	800.000	-0.024	0.070
-136.414	-5.201	0.248	-0.168
-135.399	-9.201	0.169	0.111
-134.385	800.000	-0.148	0.470
-133.370	-200.000	-0.011	-0.246
-132.356	800.000	0.064	0.206
-131.341	141.900	0.226	0.295
-130.326	51.605	-0.076	-0.071
-129.312	28.115	-0.234	0.195
-128.297	323.825	0.107	0.201
-127.283	800.000	0.084	0.292
-126.268	295.416	0.061	-0.109
-125.253	-150.503	-0.426	0.032
-124.239	-100.146	-0.125	0.031
-123.224	-76.286	-0.114	-0.039
-122.210	396.823	0.139	-0.286
-121.195	-200.000	0.022	-0.153
-120.180	-200.000	0.008	-0.192
-119.166	76.285	0.031	0.033
-118.151	32.149	0.092	-0.078
-117.137	-152.761	0.191	0.013
-116.122	-85.280	0.290	0.089
-115.107	-200.000	-0.032	0.146
-114.093	800.000	0.039	0.130
-113.078	37.317	0.205	0.179
-112.064	-116.438	-0.381	0.069
-111.049	-200.000	0.018	0.265
-110.034	137.556	-0.161	0.207
-109.020	800.000	-0.018	-0.066
-108.005	362.172	0.088	-0.174
-106.991	410.752	0.062	0.130
-105.976	800.000	0.038	-0.147
-104.962	-200.000	0.009	0.152
-103.947	22.858	0.255	0.205
-102.932	-102.367	-0.412	0.097
-101.918	-155.712	-0.247	-0.016
-100.903	7.205	-0.099	-0.073
-99.889	-112.353	-0.068	0.013
-98.874	-200.000	-0.009	-0.350
-97.859	4.369	0.033	0.024
-96.845	165.843	0.226	0.314
-95.830	800.000	0.038	0.155
-94.816	-95.467	0.293	0.077
-93.801	352.130	-0.041	-0.079
-92.786	58.760	0.155	0.150
-91.772	800.000	-0.085	-0.284
-90.757	800.000	0.098	-0.270
-89.743	-47.447	0.204	-0.098
-88.728	-200.000	-0.008	0.036
-87.713	-84.252	0.254	-0.079
-86.699	-70.651	-0.465	0.173
-85.684	800.000	0.003	-0.008
-84.670	95.170	0.126	-0.141
-83.655	-200.000	-0.011	-0.148
-82.640	-136.632	0.223	-0.025
-81.626	-79.885	0.164	-0.054
-80.611	113.586	-0.175	0.208
-79.597	-51.597	0.240	-0.110
-78.582	-63.129	0.116	0.047
-77.567	-200.000	-0.005	0.078
-76.553	800.000	-0.144	-0.451
-75.538	-200.000	0.020	-0.191
-74.524	-200.000	0.063	-0.295
-73.509	185.004	-0.071	-0.104
-72.494	-33.410	0.215	0.117
-71.480	207.490	0.044	-0.068
-70.465	332.215	-0.055	0.104
-69.451	800.000	0.088	0.297
-68.436	0.825	-0.065	0.046
-67.422	-37.141	0.203	-0.107
-66.407	800.000	0.052	-0.177
-65.392	355.395	-0.193	-0.377
-64.378	800.000	-0.083	-0.291
-63.363	331.672	0.142	-0.269
-62.349	-19.378	-0.451	-0.275
-61.334	65.004	-1.025	-1.016
-60.319	86.219	0.508	0.549
-59.305	800.000	-0.360	-1.120
-58.290	91.468	0.567	0.625
-57.276	527.851	0.652	1.508
-56.261	-200.000	98.846	592.178
-55.246	522.868	1402.109	3231.337
-54.232	158.036	2581.096	3510.100
-53.217	104.919	2267.969	2623.718
-52.203	40.539	1892.260	1672.078
-51.188	34.428	1683.066	1441.153
-50.173	31.836	1639.891	1385.002
-49.159	49.628	1689.196	1560.444
-48.144	51.142	1705.462	1586.755
-47.130	34.138	1665.052	1423.332
-46.115	31.394	1651.147	1391.005
-45.100	31.254	1646.218	1385.754
-44.086	31.158	1643.910	1383.044
-43.071	31.155	1641.184	1380.679
-42.057	31.129	1639.159	1378.728
-41.042	31.138	1636.840	1376.787
-40.027	31.136	1634.700	1374.917
-39.013	31.176	1632.691	1373.466
-37.998	30.983	1631.869	1371.301
-36.984	31.153	1630.217	1371.109
-35.969	31.237	1628.747	1370.431
-34.954	31.330	1627.118	1369.690
-33.940	31.287	1625.303	1367.793
-32.925	31.225	1623.843	1366.055
-31.911	31.241	1621.891	1364.479
-30.896	31.302	1619.924	1363.211
-29.881	31.256	1618.740	1361.826
-28.867	31.224	1617.263	1360.300
-27.852	31.197	1615.936	1358.929
-26.838	31.212	1614.537	1357.813
-25.823	31.221	1613.487	1356.936
-24.809	31.270	1611.567	1355.623
-23.794	31.318	1610.238	1354.800
-22.779	31.315	1608.649	1353.388
-21.765	31.270	1607.316	1351.886
-20.750	31.253	1605.869	1350.492
-19.736	31.369	1603.932	1349.649
-18.721	31.325	1602.668	1348.212
-17.706	31.306	1600.902	1346.540
-16.692	31.243	1599.937	1345.223
-15.677	31.265	1598.576	1344.184
-14.663	31.335	1597.264	1343.530
-13.648	31.276	1595.520	1341.586
-12.633	31.338	1594.132	1340.808
-11.619	31.376	1592.432	1339.599
-10.604	31.359	1591.105	1338.306
-9.590	31.404	1589.678	1337.372
-8.575	31.331	1588.899	1336.142
-7.560	31.344	1587.256	1334.802
-6.546	31.285	1586.427	1333.628
-5.531	31.260	1585.413	1332.545
-4.517	31.161	1584.984	1331.431
-3.502	31.302	1583.247	1330.918
-2.487	31.442	1581.173	1330.120
-1.473	30.993	1570.023	1317.514
-0.458	28.230	1550.787	1282.000
0.556	22.878	1551.601	1250.769
1.571	20.499	1575.518	1252.808
2.586	20.053	1588.387	1259.682
3.600	18.196	1536.180	1205.104
4.615	10.152	1425.885	1065.675
5.629	1.890	1360.075	964.310
6.644	0.188	1351.369	947.345
7.659	0.018	1349.855	945.135
8.673	0.032	1349.304	944.750
9.688	-0.008	1346.932	942.758
10.702	-0.137	1343.850	939.710
11.717	3.695	1350.650	968.438
12.731	12.534	1364.395	1033.988
13.746	17.641	1370.876	1070.984
14.761	17.250	1368.976	1066.954
15.775	16.214	1366.587	1058.501
16.790	15.133	1363.853	1049.518
17.804	14.346	1361.724	1042.865
18.819	14.044	1359.669	1039.309
19.834	13.775	1358.435	1036.596
20.848	13.412	1357.999	1033.898
21.863	13.268	1356.196	1031.542
22.877	13.062	1355.108	1029.337
23.892	13.028	1354.312	1028.428
24.907	13.089	1353.372	1028.003
25.921	13.046	1352.334	1026.860
26.936	13.037	1351.828	1026.328
27.950	13.215	1350.275	1026.161
28.965	13.089	1349.604	1024.779
29.980	13.275	1348.960	1025.355
30.994	13.355	1348.102	1025.105
32.009	13.240	1347.221	1023.635
33.023	13.283	1346.015	1022.890
34.038	13.187	1345.149	1021.546
35.053	13.250	1343.540	1020.624
36.067	13.251	1342.467	1019.730
37.082	13.289	1341.679	1019.271
38.096	13.285	1340.982	1018.626
39.111	13.233	1340.122	1017.564
40.126	13.131	1339.581	1016.438
41.140	13.134	1338.519	1015.555
42.155	13.017	1338.326	1014.602
43.169	13.002	1337.912	1014.106
44.184	13.030	1337.306	1013.730
45.199	13.060	1337.142	1013.702
46.213	12.999	1336.844	1013.008
47.228	13.161	1335.529	1012.920
48.242	13.134	1334.873	1012.164
49.257	13.185	1332.965	1010.939
50.271	13.266	1331.115	1009.943
51.286	13.158	1330.218	1008.513
52.301	13.186	1329.230	1007.844
53.315	13.195	1327.821	1006.744
54.330	13.066	1327.137	1005.351
55.344	13.097	1325.856	1004.479
56.359	13.115	1324.373	1003.375
57.374	13.104	1323.667	1002.685
58.388	13.063	1323.227	1002.014
59.403	13.103	1322.279	1001.448
60.417	13.055	1321.488	1000.472
61.432	13.032	1320.700	999.649
62.447	12.945	1320.374	998.789
63.461	12.892	1318.903	997.266
64.476	12.993	1317.722	996.895
65.490	12.961	1316.419	995.629
66.505	13.035	1314.704	994.689
67.520	13.013	1313.560	993.604
68.534	12.957	1313.230	992.928
69.549	13.024	1311.698	992.082
70.563	12.978	1310.705	990.967
71.578	12.931	1309.901	989.991
72.593	12.866	1309.095	988.906
73.607	12.887	1307.837	987.990
74.622	12.946	1307.180	987.763
75.636	12.876	1306.416	986.681
76.651	12.867	1305.679	985.982
77.666	12.980	1305.302	986.282
78.680	12.881	1304.739	985.180
79.695	12.873	1303.915	984.422
80.709	12.960	1303.071	984.216
81.724	13.063	1301.996	983.934
82.739	13.005	1301.046	982.784
83.753	13.078	1300.463	982.690
84.768	13.192	1299.470	982.531
85.782	13.275	1297.834	981.697
86.797	13.192	1296.841	980.367
87.812	13.123	1295.112	978.563
88.826	13.185	1294.414	978.318
89.841	13.159	1293.149	977.123
90.855	13.232	1292.248	976.788
91.870	13.228	1291.853	976.375
92.884	13.233	1290.683	975.436
93.899	13.267	1289.965	975.006
94.914	13.143	1289.427	973.786
95.928	13.334	1288.357	974.018
96.943	13.315	1287.145	972.901
97.957	13.273	1286.319	971.942
98.972	13.205	1285.454	970.803
99.987	13.268	1284.226	970.161
101.001	13.251	1283.514	969.437
102.016	13.229	1282.345	968.342
103.030	13.251	1281.615	967.829
104.045	13.253	1280.983	967.282
105.060	13.300	1279.512	966.359
106.074	13.095	1278.390	964.230
107.089	13.051	1277.029	962.860
108.103	13.036	1275.831	961.785
109.118	13.106	1274.229	960.900
110.133	13.076	1273.079	959.772
111.147	13.065	1271.771	958.640
112.162	13.074	1270.867	957.926
113.176	13.173	1269.627	957.477
114.191	13.154	1268.572	956.490
115.206	13.171	1267.416	955.632
116.220	13.047	1266.281	953.972
117.235	13.164	1265.496	953.971
118.249	13.087	1264.527	952.715
119.264	13.075	1263.474	951.770
120.279	12.980	1262.978	950.762
121.293	13.109	1261.413	950.241
122.308	13.005	1260.673	949.005
123.322	13.069	1259.185	948.166
124.337	12.977	1258.563	947.084
125.352	13.006	1257.438	946.323
126.366	13.030	1256.077	945.352
127.381	13.009	1254.885	944.252
128.395	13.150	1253.778	944.137
129.410	13.139	1253.124	943.499
130.424	13.137	1252.511	942.945
131.439	13.128	1251.416	941.986
132.454	13.209	1250.259	941.495
133.468	13.262	1248.874	940.668
134.483	13.068	1248.962	939.548
135.497	13.183	1247.572	939.071
136.512	13.091	1246.895	937.957
137.527	13.189	1245.502	937.383
138.541	13.199	1243.573	935.903
139.556	13.214	1242.641	935.203
140.570	13.232	1241.657	934.485
141.585	13.235	1240.354	933.438
142.600	13.162	1239.285	932.139
143.614	13.349	1238.219	932.307
144.629	13.427	1236.873	931.652
145.643	13.400	1235.942	930.714
146.658	13.289	1234.991	929.294
147.673	13.243	1233.347	927.715
148.687	13.263	1232.218	926.896
149.702	13.205	1231.267	925.774
150.716	13.319	1229.369	924.904
151.731	13.254	1228.749	923.993
152.746	13.188	1228.033	923.000
153.760	13.256	1226.372	922.053
154.775	13.385	1225.051	921.693
155.789	13.376	1224.284	920.984
156.804	13.261	1223.302	919.528
157.819	13.377	1221.902	919.039
158.833	13.351	1221.623	918.602
159.848	13.373	1220.638	917.903
160.862	13.499	1219.434	917.616
161.877	13.336	1218.299	915.777
162.892	13.335	1216.965	914.687
163.906	13.296	1216.303	913.890
164.921	13.294	1215.606	913.278
165.935	13.417	1214.568	913.094
166.950	13.458	1213.722	912.604
167.964	13.325	1213.620	911.714
168.979	13.391	1212.373	911.059
169.994	13.478	1211.595	910.875
171.008	13.533	1210.804	910.502
172.023	13.500	1209.866	909.530
173.037	13.498	1209.523	909.182
174.052	13.580	1208.190	908.552
175.067	13.501	1207.501	907.520
176.081	13.469	1206.602	906.585
177.096	13.423	1205.735	905.604
178.110	13.454	1204.338	904.643
179.125	13.499	1203.286	904.019
180.140	13.477	1202.092	902.925
181.154	13.499	1201.234	902.320
182.169	13.523	1199.869	901.347
183.183	13.631	1198.669	900.951
184.198	13.650	1197.132	899.819
185.213	13.647	1196.434	899.196
186.227	13.714	1195.290	898.624
187.242	13.698	1194.203	897.636
188.256	13.794	1193.091	897.244
189.271	13.764	1192.447	896.519
190.286	13.554	1191.535	894.619
191.300	13.548	1190.329	893.603
192.315	13.515	1189.913	893.033
193.329	13.588	1189.029	892.681
194.344	13.557	1188.979	892.397
195.359	13.583	1188.009	891.733
196.373	13.722	1187.588	892.085
197.388	13.821	1187.177	892.229
198.402	13.861	1186.975	892.215
199.417	13.870	1186.152	891.563
200.432	13.941	1184.814	890.859
201.446	13.897	1184.247	890.116
202.461	13.980	1183.343	889.804
203.475	14.066	1181.906	889.107
204.490	14.028	1180.824	888.008
205.504	13.959	1179.823	886.812
206.519	13.937	1178.846	885.883
207.534	13.913	1177.996	885.036
208.548	13.947	1176.725	884.183
209.563	13.973	1176.350	883.963
210.577	13.911	1175.374	882.821
211.592	14.022	1174.567	882.723
212.607	14.064	1173.629	882.165
213.621	14.101	1172.319	881.298
214.636	14.078	1171.909	880.792
215.650	14.103	1170.802	880.015
216.665	14.085	1170.119	879.328
217.680	14.116	1169.249	878.761
218.694	14.233	1168.175	878.491
219.709	14.234	1167.306	877.765
220.723	14.166	1166.738	876.902
221.738	14.133	1166.316	876.334
222.753	14.074	1165.826	875.575
223.767	14.188	1164.838	875.358
224.782	14.278	1163.947	875.082
225.796	14.231	1163.626	874.517
226.811	14.326	1162.606	874.170
227.826	14.240	1161.797	873.039
228.840	14.252	1161.368	872.701
229.855	14.261	1160.546	872.054
230.869	14.244	1159.935	871.425
231.884	14.246	1159.053	870.695
232.899	14.236	1158.268	869.977
233.913	14.217	1157.536	869.252
234.928	14.150	1157.314	868.657
235.942	14.151	1155.990	867.595
236.957	14.169	1155.498	867.242
237.972	14.212	1154.654	866.755
238.986	14.266	1153.703	866.246
240.001	14.225	1153.492	865.796
241.015	14.442	1152.029	865.751
242.030	14.317	1151.331	864.500
243.045	14.379	1150.796	864.344
244.059	14.323	1150.084	863.439
245.074	14.483	1149.140	863.484
246.088	14.426	1148.846	862.893
247.103	14.507	1147.526	862.243
248.117	14.599	1146.960	862.215
249.132	14.531	1146.599	861.519
250.147	14.688	1145.544	861.458
251.161	14.680	1144.821	860.799
252.176	14.594	1144.360	859.932
253.190	14.667	1143.868	859.860
254.205	14.649	1143.190	859.184
255.220	14.793	1142.216	859.114
256.234	14.848	1141.973	859.142
257.249	14.868	1140.909	858.367
258.263	14.843	1140.108	857.561
259.278	14.837	1140.208	857.527
260.293	14.836	1139.230	856.711
261.307	14.983	1138.445	856.798
262.322	14.974	1137.735	856.141
263.336	14.907	1137.424	855.490
264.351	14.970	1136.663	855.166
265.366	14.997	1135.850	854.615
266.380	15.007	1134.844	853.832
267.395	15.009	1134.304	853.360
268.409	14.937	1133.711	852.471
269.424	14.895	1133.516	852.037
270.439	14.938	1132.807	851.646
271.453	14.963	1131.607	850.798
272.468	14.907	1130.884	849.896
273.482	14.903	1130.295	849.353
274.497	14.944	1129.529	848.911
275.512	15.068	1128.847	848.954
276.526	14.989	1128.155	847.958
277.541	14.992	1127.015	847.042
278.555	14.993	1126.581	846.645
279.570	15.053	1125.883	846.352
280.585	15.208	1124.893	846.311
281.599	15.241	1123.904	845.658
282.614	15.234	1123.160	844.990
283.628	15.095	1122.402	843.646
284.643	15.179	1121.365	843.215
285.657	15.162	1120.652	842.515
286.672	15.151	1119.445	841.481
287.687	15.188	1118.367	840.780
288.701	15.122	1118.444	840.433
289.716	15.218	1117.079	839.815
290.730	15.189	1116.905	839.467
291.745	15.220	1116.054	838.903
292.760	15.236	1115.499	838.496
293.774	15.373	1114.326	838.225
294.789	15.395	1114.049	838.049
295.803	15.413	1113.682	837.791
296.818	15.448	1112.830	837.251
297.833	15.288	1111.932	835.702
298.847	15.228	1111.567	835.053
299.862	15.340	1110.425	834.678
300.876	15.462	1109.473	834.496
301.891	15.415	1109.139	833.940
302.906	15.444	1108.553	833.570
303.920	15.378	1108.070	832.804
304.935	15.437	1107.890	832.889
305.949	15.487	1107.186	832.532
306.964	15.531	1106.299	832.009
307.979	15.567	1105.388	831.428
308.993	15.682	1104.523	831.277
310.008	15.536	1104.038	830.112
311.022	15.586	1102.649	829.245
312.037	15.656	1101.910	828.961
313.052	15.628	1101.122	828.153
314.066	15.578	1100.152	827.105
315.081	15.442	1099.722	826.043
316.095	15.498	1099.161	825.821
317.110	15.583	1098.059	825.340
318.125	15.597	1097.584	824.978
319.139	15.480	1096.956	823.859
320.154	15.645	1095.941	823.830
321.168	15.636	1095.482	823.368
322.183	15.600	1094.816	822.620
323.197	15.699	1094.036	822.447
324.212	15.600	1093.600	821.562
325.227	15.661	1093.342	821.593
326.241	15.704	1092.474	821.075
327.256	15.620	1091.981	820.225
328.270	15.583	1091.152	819.346
329.285	15.703	1089.818	818.857
330.300	15.769	1088.562	818.165
331.314	15.786	1087.744	817.560
332.329	15.810	1086.822	816.908
333.343	15.695	1086.707	816.190
334.358	15.798	1085.767	815.913
335.373	15.905	1085.110	815.865
336.387	15.881	1084.074	814.900
337.402	15.889	1083.358	814.328
338.416	15.916	1082.920	814.058
339.431	15.957	1082.239	813.673
340.446	15.909	1081.921	813.128
341.460	15.877	1081.146	812.321
342.475	15.989	1080.379	812.211
343.489	15.991	1079.401	811.413
344.504	15.938	1078.490	810.401
345.519	16.138	1077.426	810.493
346.533	16.167	1076.419	809.801
347.548	16.252	1075.400	809.372
348.562	16.043	1075.222	808.165
349.577	16.021	1074.980	807.806
350.592	16.073	1074.014	807.255
351.606	15.995	1073.305	806.277
352.621	16.086	1072.462	806.010
353.635	16.076	1071.766	805.367
354.650	15.985	1071.143	804.392
355.665	16.117	1070.185	804.232
356.679	16.128	1069.680	803.832
357.694	16.167	1069.039	803.468
358.708	16.327	1068.495	803.750
359.723	16.248	1067.827	802.801
360.738	16.184	1067.388	802.094
361.752	16.264	1066.758	801.928
362.767	16.166	1066.600	801.274
363.781	16.228	1065.860	800.940
364.796	16.260	1065.071	800.429
365.810	16.288	1064.466	800.037
366.825	16.313	1063.973	799.714
367.840	16.395	1063.383	799.588
368.854	16.420	1062.859	799.243
369.869	16.518	1062.101	799.064
370.883	16.502	1060.969	798.065
371.898	16.436	1060.146	797.067
372.913	16.435	1059.562	796.549
373.927	16.449	1059.407	796.427
374.942	16.477	1059.203	796.338
375.956	16.459	1058.648	795.764
376.971	16.513	1057.789	795.304
377.986	16.544	1056.871	794.687
379.000	16.656	1056.727	795.036
380.015	16.536	1056.507	794.237
381.029	16.723	1055.360	794.182
382.044	16.707	1054.663	793.511
383.059	16.695	1053.714	792.670
384.073	16.815	1052.986	792.616
385.088	16.685	1052.068	791.247
386.102	16.773	1051.424	791.103
387.117	16.725	1050.434	790.063
388.132	16.668	1049.717	789.191
389.146	16.804	1048.542	788.868
390.161	16.631	1048.448	787.925
391.175	16.761	1047.559	787.788
392.190	16.681	1046.836	786.802
393.205	16.727	1046.147	786.431
394.219	16.772	1045.317	785.945
395.234	16.758	1044.840	785.455
396.248	16.776	1043.980	784.821
397.263	16.702	1042.508	783.302
398.278	16.748	1041.887	782.977
399.292	16.766	1041.155	782.445
400.307	16.747	1040.314	781.651
401.321	16.818	1039.559	781.345
402.336	16.870	1038.975	781.077
403.350	16.771	1038.575	780.249
404.365	16.888	1037.832	780.162
405.380	16.941	1036.973	779.692
406.394	16.901	1036.688	779.223
407.409	17.009	1035.401	778.683
408.423	17.011	1034.759	778.141
409.438	16.998	1034.299	777.666
410.453	17.064	1033.585	777.360
411.467	17.076	1033.061	776.956
412.482	17.117	1032.294	776.497
413.496	17.186	1031.461	776.117
414.511	17.122	1031.256	775.603
415.526	17.232	1030.668	775.592
416.540	17.131	1030.532	774.963
417.555	17.221	1029.721	774.694
418.569	17.286	1029.149	774.491
419.584	17.264	1028.681	773.968
420.599	17.225	1028.157	773.329
421.613	102.208	1320.339	1462.113
422.628	93.457	1362.883	1462.213
