DTS Sentinel unit serial number:	SN413079Multiplexer serial number:	ORYXHardware model number:	OX4-SRSoftware version number:	ORYX F/W v4.00 Oryx Data Collector v3.7.2.0data status	okinstallation	princeton_trtdifferential loss correction	single-endedforward channel	channel 2reverse channel	N/Adate	2019/09/12time	05:37:11forward acquisition time	60.00reverse acquisition time	0.00gamma	496.2192k internal	0.2325k external	0.2325temperature offset calibration	1.0064default loss term (dB/km)	0.3790temperature slope calibration	1.0000multiplexer offset coefficient	1.0000multiplexer slope coefficient	1.0000fibre end	0.00T internal ref (°C)	31.98T ext. ref 1 (°C)	1.60T ext. ref 2 (°C)	27.51length (m)	temperature (°C)	Stokes	anti-Stokes-747.200	162.940	0.046	-0.065
-746.185	-89.150	-0.572	-0.171
-745.171	350.277	-0.046	0.092
-744.156	-115.957	-0.067	0.013
-743.142	-200.000	-0.028	-0.398
-742.127	72.173	0.090	-0.095
-741.112	-200.000	0.021	-0.325
-740.098	150.735	-0.251	0.345
-739.083	89.354	-0.326	0.367
-738.069	800.000	-0.039	0.153
-737.054	-200.000	-0.019	-0.260
-736.039	47.773	-0.247	-0.233
-735.025	172.061	0.109	0.159
-734.010	-129.852	-0.497	0.069
-732.996	388.638	-0.071	-0.149
-731.981	89.923	0.014	-0.016
-730.966	303.622	0.040	0.075
-729.952	-96.637	0.209	-0.055
-728.937	-19.610	-0.055	-0.034
-727.923	14.666	-0.119	-0.094
-726.908	-118.429	0.125	-0.022
-725.894	43.812	0.078	-0.072
-724.879	-159.018	-0.240	0.014
-723.864	800.000	-0.049	-0.184
-722.850	-200.000	0.035	-0.159
-721.835	-136.935	-0.115	0.013
-720.821	-23.828	0.193	0.116
-719.806	-200.000	-0.036	-0.243
-718.791	-113.531	0.135	0.027
-717.777	60.978	-0.111	0.111
-716.762	286.836	0.017	-0.031
-715.748	9.137	-0.277	0.211
-714.733	-91.946	-0.348	-0.099
-713.718	-98.322	0.226	-0.058
-712.704	-200.000	-0.000	-0.067
-711.689	137.714	-0.144	-0.190
-710.675	3.995	0.119	-0.088
-709.660	-178.904	-0.454	0.010
-708.645	800.000	-0.150	0.447
-707.631	-104.637	-0.131	0.030
-706.616	439.087	0.084	0.184
-705.602	84.971	-0.181	-0.200
-704.587	-18.508	-0.031	0.019
-703.572	-134.553	0.074	0.009
-702.558	-69.790	-0.034	0.013
-701.543	-200.000	0.036	0.184
-700.529	-200.000	-0.004	-0.114
-699.514	33.945	-0.239	-0.210
-698.499	-90.294	-0.198	-0.058
-697.485	212.008	-0.219	-0.347
-696.470	-165.439	0.106	0.005
-695.456	-18.310	0.253	-0.160
-694.441	800.000	-0.045	-0.156
-693.426	785.821	0.061	0.167
-692.412	51.340	-0.189	0.181
-691.397	-16.614	0.096	0.061
-690.383	15.990	0.133	-0.106
-689.368	-37.477	0.414	-0.222
-688.354	800.000	-0.039	-0.158
-687.339	800.000	-0.018	-0.057
-686.324	-200.000	0.009	0.213
-685.310	-98.484	-0.529	0.136
-684.295	-37.480	-0.098	-0.053
-683.281	2.498	-0.300	0.219
-682.266	-28.162	-0.476	0.277
-681.251	615.560	-0.126	0.317
-680.237	-72.674	-0.130	0.048
-679.222	-158.994	-0.561	-0.032
-678.208	-200.000	-0.000	-0.177
-677.193	-11.445	-0.224	-0.148
-676.178	-109.650	0.133	-0.028
-675.164	74.708	0.161	-0.170
-674.149	-200.000	-0.033	-0.320
-673.135	57.992	-0.058	0.058
-672.120	134.044	-0.113	0.148
-671.105	-114.495	-0.403	0.078
-670.091	-104.080	0.106	0.025
-669.076	-173.149	-0.335	0.010
-668.062	397.743	-0.088	0.184
-667.047	20.402	0.181	0.147
-666.032	-200.000	-0.046	-0.271
-665.018	47.184	0.219	-0.205
-664.003	-82.498	0.106	0.034
-662.989	12.138	-0.436	0.337
-661.974	800.000	0.014	-0.060
-660.959	126.534	0.082	0.104
-659.945	-200.000	-0.017	-0.076
-658.930	-115.591	-0.513	-0.097
-657.916	800.000	0.048	-0.158
-656.901	-135.010	0.186	-0.023
-655.886	193.276	-0.166	-0.253
-654.872	156.632	0.150	-0.209
-653.857	28.478	0.166	0.141
-652.843	339.583	-0.076	0.149
-651.828	29.600	0.251	0.215
-650.814	-64.206	-0.078	-0.032
-649.799	-153.643	-0.393	-0.027
-648.784	5.298	-0.212	-0.157
-647.770	800.000	-0.111	-0.374
-646.755	44.557	0.117	-0.108
-645.741	-200.000	0.048	-0.328
-644.726	54.966	-0.280	-0.271
-643.711	234.191	0.269	0.446
-642.697	247.999	-0.175	-0.297
-641.682	-200.000	0.009	-0.244
-640.668	638.641	0.108	0.277
-639.653	800.000	-0.078	0.248
-638.638	800.000	0.054	0.208
-637.624	159.261	-0.094	-0.131
-636.609	-80.859	0.146	-0.049
-635.595	355.274	0.040	-0.079
-634.580	-136.297	0.083	0.010
-633.565	526.945	0.119	-0.282
-632.551	-200.000	0.442	-0.001
-631.536	6.430	-0.110	0.082
-630.522	-132.066	-0.115	-0.015
-629.507	460.998	-0.018	0.039
-628.492	-83.104	-0.222	-0.072
-627.478	-182.991	-0.245	0.004
-626.463	640.544	-0.045	0.115
-625.449	-118.843	0.123	-0.022
-624.434	-128.207	-0.248	-0.036
-623.419	36.799	-0.303	-0.269
-622.405	-126.753	-0.436	0.065
-621.390	-200.000	0.019	-0.086
-620.376	103.417	-0.233	0.274
-619.361	-66.365	0.078	0.031
-618.346	67.405	-0.223	0.229
-617.332	-200.000	-0.020	-0.211
-616.317	46.232	0.238	-0.222
-615.303	150.242	-0.088	-0.120
-614.288	-104.060	-0.128	-0.030
-613.273	-200.000	0.034	0.363
-612.259	-200.000	-0.007	0.206
-611.244	328.527	-0.166	0.320
-610.230	629.369	0.025	0.063
-609.215	36.310	-0.294	-0.260
-608.201	-200.000	0.053	-0.252
-607.186	14.582	0.175	-0.137
-606.171	73.588	-0.064	0.068
-605.157	291.729	-0.057	0.104
-604.142	766.260	0.032	0.087
-603.128	-200.000	0.035	0.456
-602.113	-12.407	0.157	0.103
-601.098	148.749	0.215	0.291
-600.084	58.048	-0.123	-0.121
-599.069	-3.925	-0.047	-0.033
-598.055	441.858	-0.157	-0.344
-597.040	396.584	0.161	-0.338
-596.025	-42.033	0.439	-0.225
-595.011	-200.000	0.004	-0.025
-593.996	-61.109	-0.275	-0.116
-592.982	588.456	0.081	-0.201
-591.967	-200.000	0.012	-0.396
-590.952	800.000	0.015	-0.046
-589.938	-155.794	-0.301	-0.019
-588.923	19.615	-0.110	0.089
-587.909	-10.700	0.125	0.083
-586.894	800.000	0.058	-0.188
-585.879	800.000	-0.026	-0.099
-584.865	-74.864	0.171	0.061
-583.850	-200.000	0.007	-0.240
-582.836	-31.423	-0.309	0.174
-581.821	-173.415	0.370	0.011
-580.806	-82.505	-0.297	0.097
-579.792	8.813	0.137	-0.104
-578.777	80.561	0.126	0.136
-577.763	761.524	-0.026	0.070
-576.748	38.931	-0.348	-0.312
-575.733	28.808	0.209	-0.177
-574.719	-76.857	0.106	-0.037
-573.704	47.113	0.158	0.147
-572.690	160.560	-0.149	0.209
-571.675	47.540	0.203	0.190
-570.661	-21.772	-0.230	0.140
-569.646	147.895	0.053	-0.071
-568.631	-188.942	0.250	-0.003
-567.617	174.756	-0.103	0.149
-566.602	431.441	0.112	-0.244
-565.588	143.691	-0.233	-0.312
-564.573	-17.967	-0.472	-0.296
-563.558	0.985	0.244	0.175
-562.544	246.376	-0.016	-0.027
-561.529	-77.858	0.336	-0.116
-560.515	-200.000	0.013	0.299
-559.500	-200.000	-0.010	-0.243
-558.485	-121.561	-0.131	0.022
-557.471	125.262	-0.399	0.503
-556.456	-71.176	-0.224	-0.084
-555.442	-92.994	0.084	-0.023
-554.427	-42.285	-0.311	-0.159
-553.412	800.000	0.019	0.053
-552.398	26.120	-0.158	-0.132
-551.383	-30.854	-0.336	0.190
-550.369	800.000	0.057	0.228
-549.354	-67.377	-0.228	-0.090
-548.339	-19.656	-0.114	0.071
-547.325	96.807	-0.328	0.377
-546.310	-55.247	-0.059	0.026
-545.296	-173.743	0.198	0.006
-544.281	-158.703	0.368	0.021
-543.266	-111.230	-0.266	0.054
-542.252	30.729	0.098	-0.084
-541.237	38.510	-0.114	-0.101
-540.223	330.525	-0.129	0.248
-539.208	-200.000	-0.085	0.392
-538.193	178.774	-0.115	-0.169
-537.179	-200.000	-0.057	0.287
-536.164	-200.000	-0.016	-0.089
-535.150	109.847	0.067	-0.081
-534.135	301.050	-0.178	-0.329
-533.121	-200.000	-0.009	0.055
-532.106	149.187	-0.196	0.265
-531.091	-200.000	-0.046	-0.256
-530.077	315.757	-0.124	0.234
-529.062	-161.376	0.160	0.008
-528.048	-200.000	-0.013	0.439
-527.033	120.481	-0.042	-0.052
-526.018	-143.929	0.161	-0.015
-525.004	213.539	-0.008	-0.012
-523.989	-143.037	-0.127	0.012
-522.975	-113.361	-0.340	0.067
-521.960	-119.562	-0.278	0.048
-520.945	800.000	0.048	-0.139
-519.931	-8.846	-0.054	-0.036
-518.916	800.000	0.118	0.359
-517.902	31.015	-0.299	0.257
-516.887	33.324	-0.186	-0.161
-515.872	-200.000	0.009	-0.158
-514.858	190.750	-0.142	-0.213
-513.843	800.000	0.027	-0.110
-512.829	312.539	0.112	-0.211
-511.814	-33.551	-0.100	0.055
-510.799	-84.142	-0.282	-0.090
-509.785	800.000	-0.043	0.157
-508.770	510.134	0.019	0.045
-507.756	-55.596	0.203	-0.091
-506.741	196.514	-0.197	0.301
-505.726	-117.113	0.093	-0.017
-504.712	726.047	-0.057	-0.153
-503.697	603.357	0.081	0.201
-502.683	-200.000	0.008	-0.288
-501.668	147.684	0.015	0.020
-500.653	68.770	0.119	-0.122
-499.639	-57.834	-0.236	0.103
-498.624	-101.993	-0.049	-0.012
-497.610	800.000	0.058	-0.227
-496.595	-179.617	-0.101	0.002
-495.581	43.642	-0.081	-0.074
-494.566	-200.000	0.065	0.341
-493.551	405.113	-0.243	0.512
-492.537	-54.835	-0.067	-0.030
-491.522	-31.884	-0.168	-0.094
-490.508	-111.837	0.205	0.041
-489.493	-134.610	-0.313	-0.038
-488.478	-200.000	-0.044	-0.191
-487.464	53.681	-0.188	0.180
-486.449	-200.000	0.055	0.266
-485.435	-80.223	0.278	0.093
-484.420	-72.995	0.142	0.052
-483.405	-81.108	-0.054	-0.018
-482.391	-28.272	-0.193	-0.111
-481.376	-141.590	-0.192	0.019
-480.362	212.895	0.151	-0.238
-479.347	-200.000	-0.003	-0.061
-478.332	309.009	0.093	-0.174
-477.318	-92.564	0.183	-0.051
-476.303	-86.902	-0.284	0.086
-475.289	-166.903	-0.135	-0.006
-474.274	239.525	-0.130	0.216
-473.259	-29.813	0.315	-0.179
-472.245	800.000	-0.061	-0.218
-471.230	98.410	-0.158	-0.182
-470.216	113.597	0.116	-0.141
-469.201	18.025	0.170	0.135
-468.186	-131.407	-0.304	-0.040
-467.172	-19.522	0.132	-0.082
-466.157	211.074	0.018	0.028
-465.143	-71.472	-0.255	0.095
-464.128	-100.111	0.289	-0.072
-463.113	67.061	0.202	0.206
-462.099	-7.233	-0.305	0.207
-461.084	11.162	0.049	-0.037
-460.070	-106.387	-0.018	0.004
-459.055	-67.682	0.102	0.040
-458.040	-121.372	0.254	-0.042
-457.026	800.000	-0.061	-0.244
-456.011	-103.061	0.112	0.027
-454.997	229.083	-0.108	0.175
-453.982	-63.171	-0.392	0.161
-452.968	654.264	0.066	0.169
-451.953	125.150	-0.159	0.200
-450.938	156.266	-0.057	0.078
-449.924	357.089	0.026	0.052
-448.909	-17.895	-0.194	0.121
-447.895	311.424	0.063	-0.119
-446.880	519.348	-0.098	-0.229
-445.865	94.906	0.160	-0.182
-444.851	63.964	-0.155	-0.155
-443.836	-107.605	0.183	-0.040
-442.822	-127.102	0.043	-0.006
-441.807	-29.460	0.193	0.110
-440.792	-200.000	-0.027	-0.130
-439.778	-200.000	-0.003	-0.018
-438.763	-200.000	0.022	-0.162
-437.749	-200.000	-0.003	-0.125
-436.734	-200.000	0.006	-0.070
-435.719	-80.484	-0.298	0.099
-434.705	-162.383	0.397	0.020
-433.690	65.009	0.399	0.401
-432.676	-20.966	0.124	-0.076
-431.661	-200.000	-0.004	0.031
-430.646	565.776	0.087	-0.210
-429.632	97.174	-0.078	-0.089
-428.617	177.533	-0.069	0.100
-427.603	-100.043	-0.518	-0.129
-426.588	471.535	-0.121	0.271
-425.573	-200.000	0.002	0.051
-424.559	71.118	0.216	-0.223
-423.544	-30.048	0.106	-0.060
-422.530	175.521	-0.124	0.179
-421.515	-200.000	0.011	0.133
-420.500	-200.000	0.023	0.136
-419.486	800.000	-0.024	-0.088
-418.471	-200.000	0.001	-0.241
-417.457	-50.067	-0.127	0.060
-416.442	800.000	-0.068	0.271
-415.428	-56.778	0.173	0.076
-414.413	-72.402	0.349	-0.128
-413.398	-163.313	-0.087	0.004
-412.384	-28.290	0.247	0.142
-411.369	-148.982	0.031	0.002
-410.355	85.938	0.191	0.209
-409.340	165.935	-0.182	-0.257
-408.325	-23.655	0.164	-0.098
-407.311	-200.000	0.035	-0.237
-406.296	-9.038	0.178	-0.119
-405.282	-0.612	0.017	0.012
-404.267	-121.807	-0.142	0.023
-403.252	45.310	-0.206	-0.189
-402.238	800.000	-0.125	-0.377
-401.223	102.412	0.103	0.119
-400.209	800.000	-0.022	0.068
-399.194	800.000	0.016	-0.056
-398.179	92.305	-0.120	0.135
-397.165	800.000	0.041	-0.119
-396.150	-133.789	0.192	0.024
-395.136	235.401	0.171	0.282
-394.121	-31.991	-0.115	-0.064
-393.106	540.611	0.076	-0.179
-392.092	-2.608	0.158	-0.110
-391.077	-200.000	0.017	-0.168
-390.063	292.794	0.014	-0.025
-389.048	-91.035	0.269	0.077
-388.033	-64.069	0.139	0.056
-387.019	16.810	0.257	-0.202
-386.004	-25.861	-0.304	-0.178
-384.990	-74.507	-0.059	-0.021
-383.975	528.710	0.071	-0.166
-382.960	-5.492	0.246	-0.168
-381.946	-68.490	-0.092	-0.036
-380.931	-200.000	0.022	-0.225
-379.917	51.349	-0.054	0.051
-378.902	15.661	-0.235	-0.184
-377.888	-92.976	0.289	-0.080
-376.873	-200.000	0.003	-0.021
-375.858	-134.338	-0.040	0.005
-374.844	118.388	0.220	0.270
-373.829	40.349	0.246	-0.220
-372.815	-153.815	0.079	-0.005
-371.800	-200.000	-0.008	0.220
-370.785	281.872	0.146	0.259
-369.771	-200.000	-0.072	0.460
-368.756	-130.694	0.251	0.034
-367.742	84.724	0.204	-0.222
-366.727	-109.697	0.076	0.016
-365.712	-200.000	0.023	-0.139
-364.698	-72.231	0.031	0.011
-363.683	-91.997	0.219	0.062
-362.669	41.671	0.042	-0.038
-361.654	800.000	-0.049	-0.152
-360.639	86.354	-0.114	-0.125
-359.625	48.588	-0.098	0.091
-358.610	180.578	0.126	-0.183
-357.596	800.000	-0.041	-0.123
-356.581	800.000	-0.047	-0.146
-355.566	482.378	-0.111	-0.250
-354.552	-117.290	0.265	0.048
-353.537	88.715	0.096	0.106
-352.523	-142.718	-0.292	0.028
-351.508	-200.000	-0.041	0.330
-350.493	-200.000	0.031	-0.138
-349.479	-106.795	-0.267	0.059
-348.464	281.016	-0.116	0.207
-347.450	118.286	0.106	0.130
-346.435	-109.514	0.174	0.037
-345.420	272.199	0.126	0.221
-344.406	-118.185	0.297	-0.053
-343.391	-31.296	-0.118	-0.066
-342.377	-200.000	-0.087	-0.413
-341.362	22.341	-0.154	0.125
-340.348	117.599	0.064	0.078
-339.333	206.157	0.111	-0.171
-338.318	-200.000	0.044	0.294
-337.304	-200.000	-0.007	0.098
-336.289	-77.852	0.198	-0.068
-335.275	-115.503	0.334	0.062
-334.260	-110.510	0.242	-0.050
-333.245	193.337	0.087	0.131
-332.231	800.000	0.039	-0.135
-331.216	800.000	0.081	-0.253
-330.202	17.182	-0.098	-0.077
-329.187	-200.000	0.071	0.332
-328.172	-4.477	0.025	-0.017
-327.158	16.238	-0.056	-0.044
-326.143	-91.449	-0.188	0.053
-325.129	187.523	0.080	-0.118
-324.114	98.570	0.042	-0.048
-323.099	-84.378	-0.229	-0.072
-322.085	-43.290	0.176	-0.088
-321.070	12.944	0.083	0.064
-320.056	-3.178	0.381	0.263
-319.041	-174.502	0.316	0.009
-318.026	724.222	-0.087	-0.230
-317.012	-58.407	0.245	-0.106
-315.997	202.212	-0.107	-0.164
-314.983	70.293	-0.106	-0.108
-313.968	-25.763	0.374	-0.219
-312.953	-200.000	-0.032	0.154
-311.939	800.000	-0.044	0.176
-310.924	203.088	0.139	-0.214
-309.910	-8.772	0.041	-0.027
-308.895	-93.395	-0.099	0.027
-307.880	505.836	-0.131	0.301
-306.866	-56.627	0.082	-0.036
-305.851	-186.384	-0.206	0.003
-304.837	-175.071	-0.191	0.005
-303.822	-26.712	-0.102	-0.059
-302.807	166.308	0.106	-0.149
-301.793	-200.000	-0.019	0.145
-300.778	64.999	-0.172	-0.172
-299.764	-70.816	-0.177	0.066
-298.749	410.792	0.015	-0.032
-297.735	75.422	-0.264	-0.276
-296.720	-167.053	0.475	0.019
-295.705	800.000	-0.028	-0.082
-294.691	-200.000	0.073	-0.329
-293.676	72.053	-0.281	0.290
-292.662	98.037	0.215	0.245
-291.647	-200.000	0.048	0.374
-290.632	800.000	-0.073	0.263
-289.618	-137.445	-0.259	-0.029
-288.603	-200.000	-0.003	-0.247
-287.589	-148.816	-0.431	-0.035
-286.574	-5.258	-0.146	-0.100
-285.559	-82.589	-0.324	0.104
-284.545	-200.000	-0.056	0.624
-283.530	-67.818	0.221	-0.085
-282.516	800.000	0.041	-0.114
-281.501	-184.811	0.261	0.004
-280.486	800.000	0.059	-0.182
-279.472	29.444	0.317	-0.267
-278.457	30.778	-0.224	-0.190
-277.443	486.990	0.010	0.023
-276.428	-32.899	0.184	0.101
-275.413	437.091	-0.155	-0.335
-274.399	-27.353	0.043	0.025
-273.384	37.778	-0.137	0.120
-272.370	-122.687	0.485	-0.078
-271.355	-185.421	0.119	-0.002
-270.340	800.000	0.026	-0.090
-269.326	16.945	0.077	0.061
-268.311	517.792	0.060	-0.138
-267.297	-200.000	-0.032	0.206
-266.282	28.374	0.122	-0.102
-265.267	-26.617	0.163	0.094
-264.253	-200.000	0.053	-0.312
-263.238	-200.000	0.011	0.249
-262.224	-19.650	0.276	0.169
-261.209	-200.000	-0.024	0.166
-260.195	-114.158	-0.166	-0.032
-259.180	-133.909	0.024	-0.003
-258.165	-200.000	0.025	-0.252
-257.151	90.588	-0.178	0.197
-256.136	800.000	0.056	-0.206
-255.122	-200.000	-0.025	-0.375
-254.107	178.579	-0.001	0.001
-253.092	-6.489	0.162	-0.109
-252.078	142.584	-0.142	0.186
-251.063	-144.219	0.284	0.026
-250.049	-96.275	0.151	0.040
-249.034	-200.000	-0.051	0.262
-248.019	45.852	0.040	0.037
-247.005	-112.257	-0.031	0.006
-245.990	-3.758	-0.222	0.153
-244.976	330.782	-0.068	-0.130
-243.961	-20.564	-0.184	0.112
-242.946	173.310	0.037	-0.053
-241.932	261.506	-0.080	0.136
-240.917	-200.000	0.019	-0.107
-239.903	-122.658	-0.048	0.008
-238.888	-77.597	-0.067	0.023
-237.873	74.726	0.091	0.095
-236.859	34.464	0.131	-0.113
-235.844	-200.000	0.060	-0.366
-234.830	-200.000	0.070	-0.312
-233.815	416.078	0.127	-0.268
-232.800	59.678	-0.321	-0.313
-231.786	-89.963	0.318	-0.092
-230.771	-16.515	-0.277	-0.173
-229.757	-103.109	-0.264	0.062
-228.742	-67.417	-0.282	0.109
-227.727	-117.011	-0.199	0.036
-226.713	90.324	-0.060	0.067
-225.698	196.051	0.048	0.072
-224.684	292.552	-0.157	0.283
-223.669	54.020	0.138	0.131
-222.655	-200.000	0.005	0.106
-221.640	19.305	0.167	-0.132
-220.625	22.628	-0.229	-0.185
-219.611	4.363	0.314	0.228
-218.596	-109.297	-0.227	0.048
-217.582	-200.000	-0.011	0.279
-216.567	-56.830	0.311	0.136
-215.552	-164.031	0.238	0.011
-214.538	-107.118	0.318	0.069
-213.523	800.000	-0.028	0.114
-212.509	800.000	-0.075	0.275
-211.494	387.991	-0.108	-0.221
-210.479	76.363	0.182	0.190
-209.465	262.633	-0.152	-0.261
-208.450	-171.041	-0.394	-0.013
-207.436	97.886	0.148	-0.168
-206.421	2.120	-0.198	-0.141
-205.406	495.909	0.078	-0.176
-204.392	-31.603	0.338	0.188
-203.377	-101.148	-0.101	0.024
-202.363	-132.516	0.248	-0.031
-201.348	106.468	0.251	0.294
-200.333	-103.280	0.212	0.049
-199.319	86.050	0.107	0.117
-198.304	-23.387	0.438	0.260
-197.290	-200.000	0.018	-0.221
-196.275	800.000	-0.027	0.089
-195.260	-158.247	-0.184	0.011
-194.246	-74.086	-0.168	-0.060
-193.231	83.058	0.096	0.103
-192.217	-72.425	-0.420	0.153
-191.202	-128.035	-0.029	0.004
-190.187	42.225	0.262	-0.235
-189.173	-31.307	0.331	0.184
-188.158	56.052	-0.045	0.044
-187.144	-79.798	0.142	-0.047
-186.129	290.621	-0.114	-0.204
-185.114	14.633	-0.250	-0.193
-184.100	-200.000	-0.013	0.146
-183.085	-149.045	-0.328	0.026
-182.071	-41.771	0.527	0.267
-181.056	-172.950	-0.259	-0.008
-180.042	112.890	-0.099	0.119
-179.027	182.579	-0.043	0.063
-178.012	-200.000	-0.001	-0.011
-176.998	800.000	-0.007	-0.021
-175.983	-153.548	0.180	0.012
-174.969	-179.043	-0.244	0.005
-173.954	84.018	0.263	0.283
-172.939	229.876	0.117	-0.189
-171.925	-26.940	0.230	-0.132
-170.910	800.000	-0.065	-0.212
-169.896	144.018	0.116	0.152
-168.881	94.443	0.194	0.218
-167.866	-165.343	0.129	0.006
-166.852	280.235	0.168	0.296
-165.837	92.014	0.088	-0.098
-164.823	-200.000	-0.025	0.264
-163.808	-124.142	-0.224	0.035
-162.793	567.328	-0.130	0.312
-161.779	180.270	0.061	-0.088
-160.764	34.221	0.095	-0.082
-159.750	-200.000	0.004	-0.035
-158.735	-200.000	-0.016	0.281
-157.720	800.000	0.098	0.331
-156.706	-17.773	-0.060	-0.037
-155.691	-200.000	-0.011	-0.067
-154.677	83.830	-0.193	0.208
-153.662	800.000	0.089	0.251
-152.647	-119.685	0.397	-0.068
-151.633	582.880	-0.034	0.083
-150.618	76.695	0.256	0.268
-149.604	182.464	-0.227	0.330
-148.589	-116.788	0.152	0.028
-147.574	-145.229	-0.098	0.009
-146.560	-200.000	-0.038	0.294
-145.545	-200.000	-0.037	-0.394
-144.531	800.000	0.103	-0.284
-143.516	-135.699	0.364	0.043
-142.502	-88.856	-0.263	-0.077
-141.487	-158.062	0.056	0.003
-140.472	177.508	0.125	0.179
-139.458	-200.000	0.013	0.058
-138.443	-111.326	0.191	0.038
-137.429	428.879	0.205	0.437
-136.414	71.743	-0.196	-0.200
-135.399	-67.371	0.323	-0.125
-134.385	800.000	-0.078	-0.219
-133.370	-136.536	0.120	-0.014
-132.356	0.432	-0.065	0.045
-131.341	-200.000	-0.030	0.177
-130.326	50.107	-0.201	0.187
-129.312	689.774	0.083	0.215
-128.297	77.777	0.120	0.126
-127.283	-102.355	0.028	-0.007
-126.268	-58.259	-0.186	-0.080
-125.253	181.554	-0.057	-0.083
-124.239	-84.270	0.279	-0.087
-123.224	-59.685	0.058	-0.024
-122.210	74.057	-0.222	0.229
-121.195	-57.465	-0.095	0.041
-120.180	793.027	0.097	0.262
-119.166	-38.608	0.215	0.112
-118.151	322.343	0.221	-0.414
-117.137	714.895	-0.097	0.253
-116.122	615.399	-0.118	-0.291
-115.107	95.443	0.030	0.033
-114.093	-168.016	-0.299	0.011
-113.078	-80.187	0.463	0.153
-112.064	-60.957	0.266	-0.111
-111.049	233.217	-0.131	-0.213
-110.034	-28.266	-0.312	-0.177
-109.020	-140.540	-0.089	-0.009
-108.005	27.906	0.129	-0.107
-106.991	-90.166	0.113	-0.033
-105.976	-119.068	-0.168	0.029
-104.962	-14.068	0.250	0.159
-103.947	-158.523	-0.228	0.013
-102.932	6.171	0.285	0.208
-101.918	-132.763	-0.121	-0.015
-100.903	1.632	-0.064	-0.046
-99.889	79.100	-0.085	0.090
-98.874	160.726	0.024	0.033
-97.859	-92.249	0.144	0.040
-96.845	-97.954	-0.045	0.011
-95.830	800.000	0.073	0.297
-94.816	-85.763	0.026	-0.008
-93.801	733.314	0.113	0.298
-92.786	67.016	-0.249	-0.249
-91.772	-38.088	0.130	-0.068
-90.757	-200.000	0.002	0.125
-89.743	-15.423	0.211	0.132
-88.728	800.000	-0.061	-0.239
-87.713	-44.202	0.226	-0.111
-86.699	45.163	0.170	-0.154
-85.684	307.634	0.168	0.309
-84.670	346.298	-0.118	0.227
-83.655	-13.567	-0.130	-0.083
-82.640	-200.000	-0.024	-0.202
-81.626	-200.000	-0.053	0.357
-80.611	308.696	0.187	-0.343
-79.597	-200.000	-0.020	-0.155
-78.582	-106.087	-0.222	-0.049
-77.567	39.615	-0.204	-0.180
-76.553	-200.000	0.013	-0.096
-75.538	139.898	-0.256	-0.331
-74.524	192.969	-0.078	-0.116
-73.509	-92.924	0.175	-0.048
-72.494	68.925	0.053	0.054
-71.480	1.011	0.211	-0.149
-70.465	88.235	0.176	-0.192
-69.451	265.866	-0.084	0.143
-68.436	-68.861	-0.094	0.036
-67.422	153.983	0.140	-0.189
-66.407	-200.000	0.016	-0.080
-65.392	20.252	0.159	-0.126
-64.378	-43.490	0.188	0.093
-63.363	161.742	-0.087	0.120
-62.349	-66.689	0.289	0.113
-61.334	245.814	-0.603	-0.998
-60.319	-77.958	1.001	0.339
-59.305	800.000	-0.342	-1.286
-58.290	462.301	0.514	1.127
-57.276	749.044	0.660	1.749
-56.261	-200.000	95.742	598.033
-55.246	572.648	1368.673	3275.849
-54.232	161.080	2556.347	3508.563
-53.217	107.350	2268.278	2649.159
-52.203	41.560	1894.973	1684.984
-51.188	35.236	1685.207	1450.733
-50.173	32.560	1640.813	1392.707
-49.159	50.557	1687.843	1567.855
-48.144	52.183	1703.674	1594.671
-47.130	34.890	1664.770	1430.323
-46.115	32.143	1650.461	1397.565
-45.100	32.031	1645.102	1392.147
-44.086	31.918	1643.123	1389.577
-43.071	31.899	1639.989	1386.731
-42.057	31.868	1637.830	1384.620
-41.042	31.881	1635.995	1383.113
-40.027	31.953	1633.592	1381.554
-39.013	31.851	1631.973	1379.381
-37.998	31.880	1630.740	1378.498
-36.984	31.897	1629.278	1377.332
-35.969	31.985	1627.528	1376.444
-34.954	32.007	1625.940	1375.203
-33.940	31.962	1624.494	1373.601
-32.925	31.965	1622.805	1372.138
-31.911	32.005	1620.673	1370.577
-30.896	31.996	1618.805	1368.874
-29.881	31.937	1617.318	1367.132
-28.867	32.013	1615.328	1365.949
-27.852	31.900	1614.273	1364.179
-26.838	32.004	1612.568	1363.444
-25.823	31.932	1611.403	1361.882
-24.809	31.919	1610.274	1360.780
-23.794	31.909	1608.941	1359.528
-22.779	32.010	1607.213	1358.741
-21.765	32.035	1605.306	1357.256
-20.750	31.965	1603.710	1355.344
-19.736	32.029	1602.497	1354.726
-18.721	32.071	1601.279	1353.946
-17.706	31.994	1599.537	1351.865
-16.692	32.054	1597.766	1350.747
-15.677	32.002	1596.847	1349.544
-14.663	32.126	1595.400	1349.158
-13.648	32.122	1593.904	1347.811
-12.633	31.973	1592.963	1345.895
-11.619	32.052	1590.752	1344.541
-10.604	31.959	1589.777	1342.998
-9.590	32.035	1587.982	1341.972
-8.575	32.079	1587.113	1341.499
-7.560	31.991	1585.755	1339.665
-6.546	32.013	1584.861	1339.015
-5.531	32.047	1583.433	1337.998
-4.517	32.116	1582.185	1337.385
-3.502	31.962	1581.349	1335.528
-2.487	32.145	1579.633	1335.327
-1.473	31.852	1567.751	1323.158
-0.458	29.197	1549.295	1288.985
0.556	25.884	1549.951	1260.079
1.571	23.706	1573.634	1263.737
2.586	23.312	1587.148	1271.651
3.600	20.530	1532.499	1208.438
4.615	11.081	1420.933	1059.168
5.629	2.948	1356.563	960.413
6.644	1.722	1348.415	946.939
7.659	1.701	1346.514	945.389
8.673	1.481	1345.728	943.392
9.688	1.497	1344.192	942.329
10.702	1.282	1341.131	938.769
11.717	4.737	1347.324	964.465
12.731	14.773	1366.911	1041.229
13.746	23.471	1381.403	1106.716
14.761	25.830	1384.919	1124.179
15.775	26.315	1384.422	1126.698
16.790	26.231	1383.799	1125.571
17.804	26.392	1383.341	1126.098
18.819	26.672	1383.337	1127.739
19.834	26.758	1382.369	1127.386
20.848	26.773	1381.874	1126.977
21.863	26.797	1380.569	1125.961
22.877	26.798	1379.993	1125.399
23.892	26.801	1378.901	1124.426
24.907	26.820	1378.255	1123.915
25.921	26.750	1377.633	1122.876
26.936	26.863	1375.903	1122.064
27.950	26.758	1375.101	1120.662
28.965	26.754	1374.281	1119.873
29.980	26.707	1373.126	1118.543
30.994	26.603	1372.360	1117.179
32.009	26.612	1371.090	1116.099
33.023	26.828	1369.229	1115.814
34.038	26.721	1368.384	1114.370
35.053	26.759	1367.445	1113.741
36.067	26.693	1366.875	1112.774
37.082	26.720	1365.735	1111.914
38.096	26.665	1364.768	1110.690
39.111	26.702	1364.145	1110.308
40.126	26.816	1363.572	1110.446
41.140	26.770	1362.803	1109.438
42.155	26.787	1362.354	1109.076
43.169	26.765	1362.703	1109.126
44.184	26.709	1362.376	1108.423
45.199	26.741	1361.959	1108.181
46.213	26.750	1361.258	1107.570
47.228	26.808	1360.031	1106.827
48.242	26.821	1359.193	1106.123
49.257	26.717	1357.815	1104.270
50.271	26.770	1356.073	1103.082
51.286	26.738	1354.830	1101.773
52.301	26.763	1353.748	1100.949
53.315	26.675	1352.724	1099.484
54.330	26.749	1352.213	1099.424
55.344	26.719	1351.289	1098.391
56.359	26.632	1350.320	1096.984
57.374	26.719	1349.335	1096.609
58.388	26.698	1348.745	1095.904
59.403	26.657	1348.403	1095.281
60.417	26.663	1348.061	1094.946
61.432	26.707	1347.103	1094.337
62.447	26.762	1346.175	1093.818
63.461	26.767	1344.738	1092.583
64.476	26.862	1343.683	1092.202
65.490	26.765	1342.981	1090.947
66.505	26.799	1340.864	1089.338
67.520	26.677	1340.248	1088.008
68.534	26.628	1339.667	1087.145
69.549	26.860	1337.627	1086.787
70.563	26.848	1336.975	1086.087
71.578	26.724	1336.376	1084.763
72.593	26.816	1335.594	1084.582
73.607	26.763	1335.131	1083.794
74.622	26.777	1334.148	1082.986
75.636	26.760	1333.928	1082.609
76.651	26.811	1332.961	1082.032
77.666	26.865	1332.226	1081.660
78.680	26.747	1332.024	1080.694
79.695	26.636	1331.454	1079.476
80.709	26.677	1330.360	1078.737
81.724	26.786	1329.380	1078.498
82.739	26.803	1328.075	1077.445
83.753	26.790	1327.622	1076.903
84.768	26.798	1326.296	1075.783
85.782	26.782	1325.447	1074.903
86.797	26.922	1323.910	1074.391
87.812	26.835	1323.065	1073.094
88.826	26.722	1322.581	1071.937
89.841	26.837	1321.254	1071.450
90.855	26.809	1320.147	1070.292
91.870	26.867	1319.140	1069.720
92.884	26.859	1318.557	1069.108
93.899	26.895	1318.054	1068.816
94.914	26.807	1317.170	1067.484
95.928	26.891	1316.130	1067.045
96.943	26.831	1315.556	1066.128
97.957	26.839	1315.121	1065.733
98.972	26.773	1314.385	1064.650
99.987	26.857	1313.230	1064.118
101.001	26.723	1312.624	1062.747
102.016	26.757	1311.676	1062.084
103.030	26.943	1310.465	1062.098
104.045	26.794	1309.823	1060.609
105.060	26.864	1308.888	1060.169
106.074	26.913	1307.648	1059.358
107.089	26.827	1306.883	1058.144
108.103	26.847	1306.138	1057.559
109.118	26.824	1305.034	1056.438
110.133	26.809	1303.939	1055.372
111.147	26.916	1302.289	1054.565
112.162	26.936	1301.183	1053.690
113.176	26.878	1300.526	1052.729
114.191	26.942	1299.113	1051.865
115.206	26.953	1298.422	1051.276
116.220	26.910	1297.422	1050.124
117.235	26.865	1296.648	1049.143
118.249	26.908	1295.404	1048.296
119.264	26.880	1295.109	1047.803
120.279	26.963	1293.941	1047.243
121.293	26.942	1293.569	1046.728
122.308	26.912	1292.768	1045.814
123.322	26.824	1292.174	1044.736
124.337	26.926	1291.251	1044.483
125.352	27.088	1290.288	1044.544
126.366	27.032	1289.495	1043.487
127.381	27.026	1288.473	1042.531
128.395	26.928	1287.831	1041.356
129.410	26.946	1287.031	1040.723
130.424	27.000	1285.969	1040.083
131.439	27.026	1285.273	1039.573
132.454	26.909	1284.733	1038.376
133.468	26.959	1283.666	1037.711
134.483	27.002	1283.227	1037.506
135.497	27.119	1282.143	1037.206
136.512	27.015	1281.261	1035.806
137.527	26.947	1280.589	1034.783
138.541	26.902	1279.108	1033.241
139.556	27.056	1277.448	1032.687
140.570	26.951	1276.913	1031.566
141.585	26.931	1275.740	1030.414
142.600	26.956	1274.911	1029.792
143.614	26.877	1274.045	1028.552
144.629	26.988	1273.047	1028.285
145.643	26.748	1272.527	1026.414
146.658	26.931	1270.834	1025.992
147.673	26.960	1270.127	1025.496
148.687	26.880	1269.340	1024.322
149.702	26.842	1268.213	1023.105
150.716	26.814	1267.261	1022.087
151.731	26.970	1266.337	1022.129
152.746	26.866	1265.332	1020.644
153.760	26.932	1264.504	1020.259
154.775	26.852	1263.557	1018.954
155.789	26.881	1262.409	1018.099
156.804	26.948	1261.580	1017.718
157.819	26.949	1260.373	1016.658
158.833	26.987	1260.040	1016.513
159.848	26.935	1259.188	1015.444
160.862	26.996	1258.630	1015.248
161.877	27.021	1257.556	1014.431
162.892	27.052	1256.587	1013.730
163.906	26.973	1256.109	1012.817
164.921	27.091	1255.692	1013.046
165.935	27.055	1254.538	1011.826
166.950	27.075	1254.034	1011.442
167.964	27.095	1253.588	1011.107
168.979	27.079	1252.620	1010.142
169.994	27.058	1252.230	1009.626
171.008	27.014	1251.898	1009.024
172.023	27.060	1250.347	1007.939
173.037	27.013	1250.326	1007.569
174.052	27.055	1249.431	1006.994
175.067	27.078	1248.654	1006.408
176.081	27.072	1247.818	1005.609
177.096	27.017	1247.349	1004.840
178.110	27.104	1245.972	1004.122
179.125	27.150	1244.946	1003.458
180.140	27.160	1243.832	1002.530
181.154	27.126	1242.454	1001.141
182.169	27.035	1241.864	1000.077
183.183	27.007	1241.143	999.252
184.198	27.181	1239.532	998.825
185.213	27.144	1238.881	998.009
186.227	27.111	1238.335	997.297
187.242	27.075	1237.389	996.249
188.256	27.172	1236.200	995.735
189.271	27.204	1235.830	995.525
190.286	27.113	1235.202	994.437
191.300	27.148	1234.240	993.762
192.315	27.165	1234.190	993.728
193.329	27.151	1233.903	993.333
194.344	27.165	1233.280	992.821
195.359	27.180	1232.863	992.475
196.373	27.050	1232.413	991.319
197.388	27.050	1231.966	990.869
198.402	27.131	1231.277	990.670
199.417	27.099	1230.928	990.130
200.432	27.161	1230.622	990.134
201.446	27.172	1229.665	989.335
202.461	27.152	1229.084	988.672
203.475	27.266	1227.863	988.221
204.490	27.257	1226.917	987.324
205.504	27.165	1226.443	986.356
206.519	27.245	1225.394	985.856
207.534	27.137	1224.480	984.449
208.548	27.189	1223.547	983.896
209.563	27.191	1223.077	983.442
210.577	27.218	1222.266	982.848
211.592	27.315	1221.410	982.596
212.607	27.375	1220.321	981.955
213.621	27.287	1219.600	980.815
214.636	27.296	1219.229	980.479
215.650	27.275	1218.305	979.534
216.665	27.320	1217.263	978.850
217.680	27.348	1216.390	978.213
218.694	27.442	1215.426	977.855
219.709	27.225	1215.090	976.333
220.723	27.271	1215.014	976.436
221.738	27.242	1213.701	975.140
222.753	27.277	1212.696	974.431
223.767	27.243	1212.252	973.805
224.782	27.405	1211.809	974.234
225.796	27.318	1211.665	973.564
226.811	27.355	1210.365	972.631
227.826	27.368	1209.915	972.254
228.840	27.485	1209.468	972.430
229.855	27.282	1209.088	970.958
230.869	27.317	1208.194	970.339
231.884	27.396	1207.287	969.947
232.899	27.311	1206.869	969.071
233.913	27.380	1206.011	968.665
234.928	27.517	1205.489	968.887
235.942	27.490	1204.844	968.141
236.957	27.541	1204.046	967.683
237.972	27.372	1203.588	966.335
238.986	27.333	1203.268	965.786
240.001	27.478	1202.362	965.742
241.015	27.558	1201.569	965.443
242.030	27.567	1200.785	964.777
243.045	27.634	1199.965	964.386
244.059	27.573	1199.312	963.452
245.074	27.520	1198.575	962.493
246.088	27.553	1197.803	961.964
247.103	27.658	1196.947	961.747
248.117	27.492	1196.333	960.292
249.132	27.559	1195.750	960.089
250.147	27.636	1195.118	959.904
251.161	27.569	1194.277	958.789
252.176	27.544	1193.714	958.123
253.190	27.541	1193.467	957.823
254.205	27.701	1192.051	957.444
255.220	27.689	1191.596	956.931
256.234	27.706	1191.296	956.695
257.249	27.592	1190.905	955.696
258.263	27.733	1189.844	955.502
259.278	27.701	1189.365	954.861
260.293	27.571	1188.907	953.729
261.307	27.743	1188.133	953.923
262.322	27.738	1187.459	953.274
263.336	27.593	1187.292	952.295
264.351	27.618	1186.768	951.926
265.366	27.683	1186.114	951.655
266.380	27.752	1185.168	951.169
267.395	27.755	1184.530	950.589
268.409	27.730	1183.688	949.702
269.424	27.654	1183.284	948.896
270.439	27.805	1183.081	949.435
271.453	27.746	1182.372	948.474
272.468	27.735	1181.256	947.438
273.482	27.721	1180.417	946.611
274.497	27.835	1180.367	947.076
275.512	27.830	1179.578	946.333
276.526	27.883	1178.871	945.959
277.541	27.837	1178.692	945.494
278.555	27.778	1177.778	944.369
279.570	27.805	1176.703	943.566
280.585	27.841	1175.658	942.831
281.599	27.835	1175.559	942.636
282.614	27.876	1174.054	941.554
283.628	27.772	1173.769	940.708
284.643	27.765	1173.156	940.095
285.657	27.760	1172.092	939.137
286.672	27.840	1171.097	938.664
287.687	27.831	1170.357	937.943
288.701	27.981	1169.844	938.222
289.716	27.979	1169.005	937.453
290.730	27.994	1168.333	936.911
291.745	28.008	1167.766	936.441
292.760	27.948	1166.871	935.334
293.774	27.984	1166.645	935.256
294.789	27.918	1166.595	934.795
295.803	27.987	1165.788	934.417
296.818	28.099	1164.867	934.172
297.833	28.035	1164.141	933.177
298.847	28.036	1163.494	932.582
299.862	28.080	1162.525	931.948
300.876	28.103	1161.928	931.502
301.891	28.133	1161.415	931.162
302.906	28.189	1161.060	931.080
303.920	28.123	1160.403	930.134
304.935	28.023	1160.017	929.237
305.949	28.061	1158.980	928.515
306.964	28.125	1158.475	928.355
307.979	28.135	1158.133	928.049
308.993	28.155	1157.087	927.228
310.008	28.217	1156.195	926.748
311.022	28.104	1156.003	925.937
312.037	28.138	1155.061	925.273
313.052	28.200	1153.898	924.572
314.066	28.148	1153.227	923.691
315.081	28.123	1152.590	922.974
316.095	28.084	1152.459	922.589
317.110	28.218	1151.100	922.096
318.125	28.314	1150.678	922.157
319.139	28.216	1150.166	921.176
320.154	28.165	1149.902	920.628
321.168	28.180	1149.327	920.158
322.183	28.268	1148.461	919.824
323.197	28.241	1148.207	919.405
324.212	28.213	1147.692	918.771
325.227	28.299	1147.188	918.717
326.241	28.283	1146.422	917.941
327.256	28.302	1145.739	917.410
328.270	28.287	1144.920	916.597
329.285	28.223	1144.525	915.883
330.300	28.293	1143.268	915.141
331.314	28.340	1142.519	914.699
332.329	28.350	1141.767	914.066
333.343	28.423	1141.016	913.745
334.358	28.445	1140.276	913.184
335.373	28.326	1139.541	911.923
336.387	28.307	1139.244	911.507
337.402	28.320	1138.438	910.845
338.416	28.427	1137.873	910.844
339.431	28.483	1136.798	910.184
340.446	28.465	1136.226	909.556
341.460	28.420	1135.878	908.972
342.475	28.601	1134.720	908.863
343.489	28.459	1133.915	907.432
344.504	28.430	1133.231	906.661
345.519	28.530	1132.517	906.504
346.533	28.443	1132.313	905.833
347.548	28.594	1130.958	905.411
348.562	28.579	1130.495	904.887
349.577	28.548	1129.390	903.769
350.592	28.477	1128.788	902.859
351.606	28.483	1128.352	902.463
352.621	28.492	1127.989	902.133
353.635	28.519	1127.360	901.685
354.650	28.514	1126.443	900.849
355.665	28.614	1125.672	900.643
356.679	28.695	1125.407	900.747
357.694	28.655	1124.496	899.744
358.708	28.718	1123.821	899.431
359.723	28.612	1123.459	898.542
360.738	28.658	1122.511	897.931
361.752	28.642	1122.233	897.550
362.767	28.649	1121.855	897.203
363.781	28.712	1121.117	896.839
364.796	28.746	1120.701	896.596
365.810	28.697	1119.925	895.656
366.825	28.738	1119.647	895.555
367.840	28.761	1119.297	895.309
368.854	28.869	1117.980	894.701
369.869	28.836	1117.663	894.204
370.883	28.766	1117.053	893.301
371.898	28.888	1116.250	893.172
372.913	28.886	1115.307	892.326
373.927	28.740	1115.318	891.546
374.942	28.968	1114.039	891.550
375.956	28.896	1114.280	891.316
376.971	28.867	1113.781	890.699
377.986	28.924	1112.903	890.194
379.000	28.906	1112.448	889.665
380.015	28.896	1112.050	889.220
381.029	28.855	1111.634	888.608
382.044	28.927	1110.697	888.127
383.059	29.007	1110.139	887.988
384.073	29.055	1109.071	887.287
385.088	28.957	1108.031	885.906
386.102	28.926	1107.506	885.258
387.117	28.970	1106.811	884.839
388.132	28.987	1105.914	884.121
389.146	28.962	1105.432	883.538
390.161	29.089	1104.353	883.207
391.175	28.946	1104.332	882.428
392.190	28.997	1103.591	882.002
393.205	29.008	1102.607	881.191
394.219	29.060	1102.108	880.961
395.234	29.116	1101.277	880.489
396.248	29.179	1100.096	879.765
397.263	29.073	1099.938	879.054
398.278	29.109	1099.255	878.603
399.292	29.222	1098.322	878.317
400.307	29.311	1098.141	878.521
401.321	29.295	1097.253	877.657
402.336	29.104	1096.722	876.243
403.350	29.210	1095.969	876.072
404.365	29.271	1095.359	875.795
405.380	29.230	1094.457	874.800
406.394	29.315	1093.830	874.626
407.409	29.203	1093.362	873.643
408.423	29.284	1092.772	873.478
409.438	29.405	1091.663	873.090
410.453	29.444	1091.066	872.718
411.467	29.308	1090.583	871.609
412.482	29.321	1089.983	871.117
413.496	29.403	1088.992	870.636
414.511	29.283	1088.962	869.968
415.526	29.139	1088.579	868.903
416.540	29.429	1087.748	869.530
417.555	29.365	1087.170	868.690
418.569	29.393	1086.682	868.353
419.584	29.442	1086.235	868.150
420.599	29.521	1085.858	868.145
421.613	103.787	1322.680	1460.560
422.628	96.604	1357.143	1460.650
