DTS Sentinel unit serial number:	SN413079Multiplexer serial number:	ORYXHardware model number:	OX4-SRSoftware version number:	ORYX F/W v4.00 Oryx Data Collector v3.7.2.0data status	okinstallation	princeton_trtdifferential loss correction	single-endedforward channel	channel 2reverse channel	N/Adate	2019/09/18time	12:39:35forward acquisition time	60.00reverse acquisition time	0.00gamma	496.2192k internal	0.2322k external	0.2322temperature offset calibration	0.9984default loss term (dB/km)	0.3790temperature slope calibration	1.0000multiplexer offset coefficient	1.0000multiplexer slope coefficient	1.0000fibre end	0.00T internal ref (°C)	32.62T ext. ref 1 (°C)	0.54T ext. ref 2 (°C)	31.14length (m)	temperature (°C)	Stokes	anti-Stokes-747.200	83.656	0.058	0.064
-746.185	458.262	-0.135	0.304
-745.171	372.690	0.072	-0.147
-744.156	-119.100	0.243	0.043
-743.142	41.237	0.113	0.103
-742.127	145.450	-0.167	0.226
-741.112	25.643	-0.245	-0.206
-740.098	-138.560	0.159	-0.018
-739.083	364.469	-0.136	-0.276
-738.069	-73.429	-0.050	-0.018
-737.054	151.782	0.173	-0.238
-736.039	-174.087	-0.159	0.005
-735.025	-200.000	-0.019	0.107
-734.010	274.625	0.106	-0.190
-732.996	295.067	-0.189	-0.350
-731.981	633.371	-0.056	-0.144
-730.966	28.134	-0.198	-0.169
-729.952	-100.302	0.161	-0.040
-728.937	-200.000	-0.006	0.047
-727.923	-126.099	-0.225	0.034
-726.908	43.412	0.127	0.117
-725.894	164.910	-0.115	-0.164
-724.879	-105.041	0.125	0.029
-723.864	-24.589	-0.176	-0.106
-722.850	103.558	0.241	-0.286
-721.835	-151.712	-0.285	0.021
-720.821	800.000	-0.057	0.176
-719.806	-164.192	-0.352	-0.016
-718.791	800.000	-0.037	0.128
-717.777	263.894	0.142	-0.248
-716.762	-135.208	-0.338	-0.041
-715.748	-116.805	0.102	0.019
-714.733	-45.060	-0.278	-0.140
-713.718	183.139	0.115	0.171
-712.704	-26.620	0.313	0.185
-711.689	7.078	-0.246	-0.185
-710.675	-44.149	-0.125	-0.063
-709.660	-200.000	0.003	0.203
-708.645	-200.000	0.040	0.196
-707.631	-200.000	-0.032	0.147
-706.616	-74.069	-0.409	0.149
-705.602	766.314	0.022	0.060
-704.587	25.316	-0.331	-0.278
-703.572	-27.789	0.285	-0.167
-702.558	-50.528	0.090	-0.043
-701.543	800.000	0.027	0.090
-700.529	-65.549	-0.200	0.081
-699.514	51.064	-0.287	0.275
-698.499	16.410	0.111	-0.089
-697.485	-100.105	0.087	0.022
-696.470	-200.000	0.016	-0.132
-695.456	168.955	0.312	0.448
-694.441	-181.927	-0.128	-0.002
-693.426	-90.196	0.315	-0.092
-692.412	223.844	0.142	-0.231
-691.397	29.130	-0.094	-0.081
-690.383	-200.000	-0.021	0.168
-689.368	298.227	-0.066	0.121
-688.354	-103.779	0.246	0.058
-687.339	-3.655	0.028	-0.020
-686.324	800.000	-0.016	-0.069
-685.310	123.367	-0.107	0.135
-684.295	47.201	0.238	0.223
-683.281	-200.000	0.025	0.166
-682.266	-31.212	-0.163	-0.092
-681.251	-71.933	-0.197	0.074
-680.237	-200.000	-0.046	0.236
-679.222	-127.695	-0.306	-0.045
-678.208	58.466	-0.039	-0.039
-677.193	-34.827	-0.214	0.118
-676.178	666.782	-0.052	0.135
-675.164	85.253	-0.033	0.036
-674.149	-200.000	0.024	-0.154
-673.135	294.134	-0.104	-0.192
-672.120	74.199	-0.175	-0.185
-671.105	142.434	-0.141	-0.189
-670.091	-65.557	-0.144	-0.058
-669.076	-200.000	0.041	-0.193
-668.062	-101.588	-0.096	0.023
-667.047	-105.502	-0.428	0.098
-666.032	97.822	0.100	-0.116
-665.018	-78.843	-0.148	0.051
-664.003	-200.000	0.001	0.232
-662.989	40.084	-0.098	-0.089
-661.974	271.274	-0.050	-0.089
-660.959	-162.989	0.188	0.009
-659.945	4.655	0.030	0.022
-658.930	68.663	-0.100	-0.103
-657.916	521.021	0.040	-0.096
-656.901	-200.000	-0.013	0.084
-655.886	-120.956	0.217	-0.037
-654.872	150.795	0.098	0.135
-653.857	-63.739	-0.311	-0.128
-652.843	193.425	0.129	-0.196
-651.828	24.294	0.153	-0.127
-650.814	-132.640	0.263	-0.034
-649.799	-22.179	-0.263	0.160
-648.784	800.000	0.048	0.206
-647.770	-24.869	-0.177	0.106
-646.755	800.000	-0.060	0.173
-645.741	-43.185	0.167	-0.085
-644.726	-86.861	-0.156	-0.048
-643.711	-94.194	-0.129	-0.036
-642.697	243.727	0.162	-0.273
-641.682	-200.000	-0.005	0.111
-640.668	55.152	-0.138	0.134
-639.653	-64.053	-0.034	0.014
-638.638	-200.000	0.101	-0.460
-637.624	74.244	0.058	0.061
-636.609	-72.379	0.138	-0.051
-635.595	765.874	0.124	0.339
-634.580	309.689	0.016	0.031
-633.565	-124.381	-0.072	-0.011
-632.551	-200.000	0.050	0.256
-631.536	-200.000	0.005	0.167
-630.522	242.070	-0.132	0.222
-629.507	-28.724	-0.196	-0.113
-628.492	-120.618	0.044	-0.007
-627.478	39.400	0.022	-0.020
-626.463	-57.686	-0.156	-0.069
-625.449	56.171	0.302	-0.295
-624.434	356.167	0.176	0.353
-623.419	-200.000	-0.024	0.126
-622.405	-75.019	-0.436	0.157
-621.390	121.142	0.274	0.343
-620.376	-133.888	-0.177	0.022
-619.361	59.301	0.181	0.179
-618.346	175.374	-0.069	0.101
-617.332	-144.693	0.280	-0.026
-616.317	800.000	-0.019	0.069
-615.303	31.180	0.076	-0.065
-614.288	-68.951	0.286	-0.111
-613.273	-200.000	-0.050	-0.467
-612.259	-115.327	-0.050	0.009
-611.244	-200.000	0.002	-0.217
-610.230	529.075	-0.079	0.187
-609.215	-171.839	0.328	0.011
-608.201	-200.000	0.008	0.095
-607.186	412.829	0.121	0.258
-606.171	-145.780	-0.170	-0.015
-605.157	-200.000	0.136	-0.605
-604.142	-59.608	0.115	-0.050
-603.128	80.112	0.094	0.102
-602.113	-14.712	0.444	-0.286
-601.098	-200.000	-0.053	-0.445
-600.084	-84.056	-0.164	-0.052
-599.069	-49.691	0.249	0.119
-598.055	182.753	0.144	-0.213
-597.040	-140.740	0.167	0.017
-596.025	-200.000	-0.001	0.185
-595.011	-15.741	0.313	0.201
-593.996	-200.000	0.042	-0.337
-592.982	-200.000	0.055	-0.354
-591.967	68.279	0.200	-0.205
-590.952	-25.929	-0.148	-0.087
-589.938	800.000	0.044	0.138
-588.923	800.000	-0.041	-0.148
-587.909	-200.000	0.036	-0.232
-586.894	-104.294	-0.019	0.004
-585.879	158.046	-0.073	-0.102
-584.865	157.948	-0.142	0.197
-583.850	-200.000	0.022	-0.224
-582.836	352.839	0.007	-0.014
-581.821	202.982	-0.144	-0.223
-580.806	-63.788	-0.266	0.109
-579.792	6.887	0.331	0.247
-578.777	235.713	-0.038	0.062
-577.763	11.732	0.183	-0.141
-576.748	-68.369	0.136	0.053
-575.733	800.000	0.083	-0.292
-574.719	573.280	0.046	-0.114
-573.704	-83.209	0.205	-0.066
-572.690	-54.845	-0.147	0.067
-571.675	375.625	0.038	0.079
-570.661	25.756	-0.081	0.068
-569.646	177.792	-0.356	0.520
-568.631	134.618	-0.222	-0.290
-567.617	-200.000	0.003	-0.366
-566.602	-155.545	0.277	-0.018
-565.588	-65.674	-0.137	-0.055
-564.573	111.672	0.150	0.182
-563.558	31.168	0.113	-0.098
-562.544	-148.299	-0.245	0.020
-561.529	-27.777	0.208	-0.121
-560.515	800.000	-0.035	0.114
-559.500	31.404	-0.075	-0.065
-558.485	6.679	-0.184	0.137
-557.471	-118.579	0.162	-0.029
-556.456	-157.079	0.176	0.011
-555.442	-2.588	0.127	-0.089
-554.427	-17.611	-0.139	0.088
-553.412	-80.184	-0.282	0.095
-552.398	-77.154	0.340	0.119
-551.383	-30.279	-0.117	-0.067
-550.369	-53.790	0.222	-0.102
-549.354	-28.181	0.144	-0.083
-548.339	800.000	0.076	0.214
-547.325	72.366	-0.263	-0.275
-546.310	-71.623	-0.309	-0.116
-545.296	-89.588	-0.376	-0.111
-544.281	452.957	-0.069	0.154
-543.266	800.000	0.073	0.260
-542.252	-60.811	0.317	0.134
-541.237	74.334	0.123	0.129
-540.223	659.447	-0.065	0.168
-539.208	-138.375	-0.257	-0.028
-538.193	-200.000	-0.019	-0.216
-537.179	65.445	0.135	0.137
-536.164	80.488	0.208	-0.225
-535.150	82.904	-0.051	0.055
-534.135	-122.531	0.136	-0.022
-533.121	-200.000	-0.034	-0.237
-532.106	112.067	0.184	-0.223
-531.091	-41.552	-0.209	-0.108
-530.077	-111.815	-0.151	-0.031
-529.062	-155.870	-0.204	0.013
-528.048	-200.000	-0.044	-0.288
-527.033	57.413	-0.092	0.090
-526.018	-46.082	0.018	0.009
-525.004	-139.788	0.055	0.006
-523.989	30.453	0.246	-0.211
-522.975	-200.000	-0.002	0.098
-521.960	266.090	-0.150	0.262
-520.945	20.295	0.134	0.108
-519.931	597.205	-0.147	-0.364
-518.916	429.944	-0.052	-0.112
-517.902	-83.536	-0.294	-0.094
-516.887	-163.288	-0.110	0.005
-515.872	-200.000	-0.012	-0.432
-514.858	-58.033	-0.281	0.123
-513.843	-167.070	-0.202	0.008
-512.829	235.198	0.163	-0.269
-511.814	-153.539	-0.068	-0.005
-510.799	-200.000	0.004	-0.080
-509.785	-37.470	-0.243	-0.130
-508.770	396.950	-0.025	0.052
-507.756	-102.233	-0.142	-0.034
-506.741	78.825	0.054	0.058
-505.726	116.034	-0.135	0.166
-504.712	174.909	-0.062	-0.090
-503.697	-159.472	0.121	0.007
-502.683	36.828	0.076	0.067
-501.668	166.471	-0.117	-0.165
-500.653	800.000	-0.030	0.101
-499.639	519.266	-0.052	-0.122
-498.624	-200.000	0.059	-0.277
-497.610	352.002	0.054	-0.106
-496.595	800.000	-0.135	0.377
-495.581	-56.968	-0.316	0.139
-494.566	-152.049	-0.390	-0.028
-493.551	-19.978	0.312	0.193
-492.537	-200.000	-0.034	0.199
-491.522	264.616	-0.038	-0.067
-490.508	-119.919	0.313	-0.054
-489.493	800.000	-0.146	-0.565
-488.478	-200.000	-0.024	-0.332
-487.464	-63.235	0.353	0.145
-486.449	58.122	0.134	0.131
-485.435	-200.000	0.010	0.080
-484.420	288.847	-0.080	0.146
-483.405	-92.403	0.227	-0.064
-482.391	-139.477	-0.305	-0.033
-481.376	-200.000	-0.005	0.059
-480.362	13.810	0.041	0.032
-479.347	800.000	0.039	0.145
-478.332	256.145	-0.013	-0.021
-477.318	-103.808	0.073	0.017
-476.303	-125.454	-0.064	0.010
-475.289	-200.000	0.001	0.227
-474.274	800.000	0.028	0.103
-473.259	-95.758	0.056	-0.015
-472.245	-102.387	0.222	0.053
-471.230	-95.047	-0.083	-0.022
-470.216	-200.000	-0.061	-0.404
-469.201	-118.621	-0.257	0.045
-468.186	800.000	0.037	0.160
-467.172	-29.523	0.147	0.084
-466.157	302.382	0.119	-0.220
-465.143	-149.152	-0.207	-0.017
-464.128	-99.862	0.084	0.021
-463.113	-151.952	-0.441	-0.032
-462.099	478.615	0.054	-0.121
-461.084	495.502	-0.059	0.136
-460.070	-21.698	0.182	-0.111
-459.055	-200.000	0.036	0.271
-458.040	-8.891	-0.325	-0.217
-457.026	-156.695	-0.295	-0.018
-456.011	446.027	-0.131	0.288
-454.997	73.899	0.328	0.344
-453.982	-6.306	0.396	0.270
-452.968	-130.999	-0.277	-0.037
-451.953	-200.000	-0.037	-0.320
-450.938	-0.597	-0.095	-0.068
-449.924	-102.058	-0.210	0.051
-448.909	96.940	-0.156	0.178
-447.895	-127.626	-0.203	-0.029
-446.880	46.585	0.268	0.248
-445.865	-200.000	-0.022	-0.113
-444.851	800.000	0.021	-0.076
-443.836	-200.000	-0.072	-0.455
-442.822	42.651	0.204	0.185
-441.807	-140.042	-0.088	-0.009
-440.792	12.892	-0.265	-0.205
-439.778	24.463	0.123	0.101
-438.763	-113.590	0.122	0.024
-437.749	173.030	0.097	-0.140
-436.734	-200.000	0.020	0.202
-435.719	-1.093	0.221	-0.156
-434.705	-200.000	-0.041	-0.270
-433.690	-200.000	0.035	-0.217
-432.676	-200.000	-0.072	-0.527
-431.661	88.317	0.217	-0.240
-430.646	800.000	-0.048	0.149
-429.632	48.938	0.139	0.130
-428.617	524.044	-0.019	0.044
-427.603	2.127	-0.304	-0.219
-426.588	-101.702	0.379	-0.092
-425.573	-200.000	-0.027	0.168
-424.559	-129.989	-0.308	-0.042
-423.544	89.023	-0.074	-0.082
-422.530	-131.105	0.343	0.046
-421.515	14.215	0.292	0.227
-420.500	-161.272	-0.208	-0.011
-419.486	-145.023	0.058	0.005
-418.471	545.096	0.120	-0.285
-417.457	-156.311	-0.395	-0.025
-416.442	-142.419	-0.253	-0.025
-415.428	54.483	-0.277	-0.266
-414.413	-53.343	-0.214	-0.098
-413.398	-116.226	0.075	-0.014
-412.384	31.743	0.219	-0.188
-411.369	-6.831	-0.188	-0.127
-410.355	-63.720	0.053	0.021
-409.340	143.203	0.127	-0.169
-408.325	142.444	-0.038	-0.050
-407.311	-69.931	-0.130	-0.050
-406.296	-93.958	-0.105	-0.029
-405.282	-34.869	-0.136	0.074
-404.267	-39.313	0.078	0.041
-403.252	-200.000	0.023	0.324
-402.238	-131.100	-0.127	0.017
-401.223	-97.895	0.150	-0.039
-400.209	-139.698	0.170	-0.018
-399.194	-105.486	0.111	0.025
-398.179	800.000	-0.101	0.301
-397.165	-0.628	0.275	-0.194
-396.150	125.676	-0.146	-0.184
-395.136	-200.000	-0.041	-0.355
-394.121	40.369	-0.194	-0.174
-393.106	619.479	0.110	0.275
-392.092	-179.857	-0.115	-0.002
-391.077	447.840	-0.040	0.088
-390.063	-87.366	-0.103	0.031
-389.048	293.214	0.060	-0.108
-388.033	-200.000	-0.028	-0.143
-387.019	267.230	-0.078	0.135
-386.004	216.978	-0.136	0.216
-384.990	-135.995	0.259	-0.030
-383.975	75.903	0.220	0.232
-382.960	144.659	0.145	0.193
-381.946	-60.874	0.042	0.018
-380.931	-200.000	-0.004	-0.184
-379.917	800.000	-0.117	0.422
-378.902	126.888	0.083	0.105
-377.888	-200.000	-0.281	-0.001
-376.873	85.617	-0.172	0.189
-375.858	-72.966	0.168	-0.061
-374.844	-200.000	0.026	-0.225
-373.829	489.575	-0.095	0.217
-372.815	-6.038	-0.405	0.276
-371.800	628.317	0.045	0.113
-370.785	-115.054	0.076	-0.014
-369.771	-140.354	-0.259	0.027
-368.756	-108.840	-0.118	0.025
-367.742	164.497	-0.118	-0.166
-366.727	127.546	0.266	-0.336
-365.712	-160.262	0.203	-0.011
-364.698	-3.173	-0.434	-0.301
-363.683	-200.000	0.015	-0.244
-362.669	-48.339	-0.124	0.060
-361.654	196.152	-0.093	0.140
-360.639	200.841	0.151	-0.231
-359.625	38.366	0.177	0.157
-358.610	359.111	0.139	-0.277
-357.596	-200.000	0.031	-0.397
-356.581	562.551	-0.024	0.057
-355.566	800.000	0.012	-0.039
-354.552	79.044	0.236	0.251
-353.537	800.000	-0.031	-0.109
-352.523	8.811	0.032	-0.024
-351.508	494.213	0.092	-0.209
-350.493	-171.596	-0.332	0.011
-349.479	-168.853	0.117	-0.004
-348.464	-100.208	-0.502	-0.124
-347.450	796.015	-0.069	0.189
-346.435	800.000	-0.037	0.139
-345.420	-102.345	-0.202	-0.048
-344.406	128.765	0.172	-0.218
-343.391	167.046	-0.152	0.215
-342.377	-162.839	-0.293	0.014
-341.362	-135.490	-0.289	-0.034
-340.348	-39.629	0.100	0.052
-339.333	-126.852	-0.288	0.042
-338.318	69.197	-0.186	-0.191
-337.304	800.000	-0.073	-0.302
-336.289	78.695	0.023	0.024
-335.275	-200.000	0.053	0.249
-334.260	47.488	0.317	0.294
-333.245	-7.537	0.054	0.036
-332.231	367.921	-0.127	0.255
-331.216	-40.179	0.369	0.191
-330.202	-69.027	0.292	-0.112
-329.187	-200.000	0.007	-0.347
-328.172	-133.005	-0.117	-0.015
-327.158	800.000	-0.099	-0.371
-326.143	-96.597	0.166	0.043
-325.129	-135.434	0.351	-0.042
-324.114	-91.870	0.320	0.090
-323.099	-22.842	-0.273	-0.164
-322.085	-140.483	0.285	-0.029
-321.070	-200.000	0.021	0.125
-320.056	197.058	-0.124	0.188
-319.041	-112.724	0.272	0.054
-318.026	131.401	-0.069	0.088
-317.012	-200.000	0.006	0.129
-315.997	10.438	0.147	-0.111
-314.983	-200.000	0.016	-0.069
-313.968	246.169	-0.155	0.260
-312.953	-42.125	0.411	0.209
-311.939	122.314	0.035	-0.044
-310.924	-110.271	-0.210	-0.043
-309.910	-200.000	0.026	0.393
-308.895	800.000	-0.070	-0.218
-307.880	-94.803	0.243	-0.066
-306.866	-43.085	0.426	0.215
-305.851	-69.945	0.114	-0.043
-304.837	259.854	0.196	0.336
-303.822	-143.217	-0.240	0.023
-302.807	-7.251	0.389	0.262
-301.793	-113.101	0.238	-0.047
-300.778	-200.000	0.057	0.261
-299.764	-109.818	-0.272	-0.057
-298.749	105.366	-0.268	-0.314
-297.735	-132.080	-0.168	-0.022
-296.720	2.559	0.164	-0.118
-295.705	-55.549	0.221	0.098
-294.691	-200.000	0.012	0.060
-293.676	-200.000	0.085	-0.439
-292.662	279.715	-0.097	-0.172
-291.647	-200.000	0.044	-0.305
-290.632	-200.000	0.007	-0.047
-289.618	152.053	-0.127	0.173
-288.603	-127.751	0.172	-0.025
-287.589	69.791	-0.171	0.175
-286.574	382.716	-0.057	0.116
-285.559	22.040	0.241	0.195
-284.545	-32.183	-0.146	0.081
-283.530	296.294	0.028	0.051
-282.516	-200.000	-0.031	0.342
-281.501	-61.577	-0.367	0.153
-280.486	-44.111	0.091	-0.045
-279.472	759.541	-0.064	-0.172
-278.457	470.750	0.025	-0.057
-277.443	-95.431	-0.101	-0.027
-276.428	164.503	-0.172	0.240
-275.413	800.000	-0.067	0.234
-274.399	800.000	-0.049	-0.197
-273.384	-58.121	0.288	-0.124
-272.370	800.000	0.043	-0.136
-271.355	-151.642	0.235	0.017
-270.340	800.000	0.083	-0.289
-269.326	447.730	-0.100	0.219
-268.311	54.746	0.308	0.295
-267.297	34.884	-0.111	-0.096
-266.282	372.316	0.026	0.053
-265.267	134.158	-0.089	0.115
-264.253	268.809	-0.072	0.125
-263.238	689.721	0.058	0.151
-262.224	414.523	0.041	-0.086
-261.209	173.976	0.114	0.164
-260.195	-166.121	-0.362	-0.015
-259.180	56.822	0.095	0.092
-258.165	-200.000	0.019	-0.208
-257.151	145.485	-0.187	-0.248
-256.136	-153.484	0.139	0.010
-255.122	800.000	0.033	-0.109
-254.107	13.154	-0.245	-0.188
-253.092	12.044	0.174	-0.133
-252.078	-146.264	0.414	-0.036
-251.063	-49.509	-0.116	-0.055
-250.049	178.388	-0.201	0.291
-249.034	14.157	-0.105	-0.081
-248.019	-28.104	-0.163	0.093
-247.005	223.956	-0.045	0.072
-245.990	-123.846	0.045	0.007
-244.976	800.000	0.017	0.067
-243.961	-67.315	-0.158	0.062
-242.946	354.028	0.114	0.225
-241.932	29.791	0.118	-0.099
-240.917	-24.513	0.238	0.141
-239.903	-200.000	-0.064	0.374
-238.888	167.510	0.247	0.348
-237.873	-9.616	-0.111	-0.073
-236.859	-200.000	0.019	0.153
-235.844	26.338	0.107	0.088
-234.830	-139.488	0.058	0.006
-233.815	-200.000	0.047	0.278
-232.800	376.629	-0.071	0.143
-231.786	219.330	0.062	0.099
-230.771	181.679	-0.094	0.137
-229.757	194.265	-0.195	0.293
-228.742	166.946	-0.024	0.034
-227.727	-106.970	0.430	0.094
-226.713	-43.391	-0.217	0.108
-225.698	470.602	-0.036	-0.080
-224.684	-200.000	0.022	0.147
-223.669	-50.918	0.056	-0.026
-222.655	-200.000	0.022	0.333
-221.640	-200.000	0.001	0.169
-220.625	-200.000	0.044	-0.201
-219.611	119.086	-0.345	0.422
-218.596	277.394	-0.102	0.180
-217.582	339.588	0.131	-0.253
-216.567	129.562	-0.134	-0.170
-215.552	-68.257	0.138	-0.053
-214.538	-6.570	0.171	0.115
-213.523	-124.674	0.064	0.010
-212.509	-7.404	-0.202	0.135
-211.494	-200.000	0.029	0.137
-210.479	-145.884	-0.155	0.014
-209.465	-60.972	0.156	0.065
-208.450	-64.001	0.152	-0.061
-207.436	354.914	0.119	-0.234
-206.421	-94.100	-0.207	-0.056
-205.406	-99.811	-0.341	0.084
-204.392	-9.934	-0.076	0.050
-203.377	-105.982	-0.145	0.032
-202.363	-48.776	-0.158	0.075
-201.348	-200.000	0.023	0.167
-200.333	503.116	0.124	0.283
-199.319	-56.824	-0.160	-0.070
-198.304	-176.092	-0.283	0.007
-197.290	-113.718	0.032	-0.006
-196.275	512.939	-0.131	-0.301
-195.260	-200.000	0.001	0.051
-194.246	159.686	0.148	0.204
-193.231	800.000	-0.054	0.151
-192.217	-31.291	-0.211	0.117
-191.202	262.739	-0.156	0.267
-190.187	413.404	-0.266	0.558
-189.173	-34.236	-0.353	0.192
-188.158	266.817	0.091	-0.157
-187.144	109.238	0.173	0.204
-186.129	-150.012	0.188	-0.014
-185.114	317.560	-0.091	0.169
-184.100	-147.838	0.164	-0.014
-183.085	555.012	0.076	-0.181
-182.071	-58.335	0.322	0.139
-181.056	-200.000	0.019	-0.150
-180.042	-155.324	0.128	-0.008
-179.027	-200.000	-0.024	-0.321
-178.012	-105.228	0.121	-0.027
-176.998	800.000	0.061	-0.175
-175.983	-28.593	0.127	0.072
-174.969	-63.065	0.262	-0.107
-173.954	-83.291	0.199	0.063
-172.939	23.098	-0.086	0.070
-171.925	-62.319	0.135	-0.055
-170.910	131.630	-0.034	-0.043
-169.896	-200.000	0.004	0.148
-168.881	-200.000	0.023	-0.330
-167.866	-39.885	-0.114	0.059
-166.852	-165.183	0.396	-0.017
-165.837	44.975	0.120	0.109
-164.823	-22.103	-0.217	-0.130
-163.808	-92.119	0.067	-0.019
-162.793	-200.000	-0.033	0.184
-161.779	581.809	-0.055	0.134
-160.764	-106.407	0.220	-0.049
-159.750	800.000	0.116	-0.335
-158.735	485.278	-0.104	-0.234
-157.720	800.000	-0.043	-0.154
-156.706	22.360	0.029	-0.024
-155.691	-36.125	0.146	-0.078
-154.677	105.144	0.158	-0.184
-153.662	-82.147	-0.360	-0.116
-152.647	-42.861	-0.401	-0.201
-151.633	-99.743	0.292	-0.072
-150.618	-200.000	0.016	-0.180
-149.604	800.000	0.070	-0.280
-148.589	-161.874	0.073	-0.004
-147.574	455.959	-0.039	0.085
-146.560	-200.000	-0.011	-0.173
-145.545	-200.000	0.057	0.404
-144.531	-200.000	0.023	0.252
-143.516	800.000	-0.018	0.053
-142.502	46.128	-0.129	-0.118
-141.487	-44.674	0.031	-0.015
-140.472	106.119	0.027	-0.031
-139.458	-61.674	-0.238	0.098
-138.443	-63.203	0.092	-0.037
-137.429	-200.000	0.038	-0.253
-136.414	-200.000	0.054	0.339
-135.399	22.001	0.332	0.267
-134.385	800.000	-0.042	-0.140
-133.370	-102.936	0.309	0.072
-132.356	800.000	-0.085	0.260
-131.341	-22.319	0.199	-0.119
-130.326	-200.000	0.019	-0.259
-129.312	18.677	-0.146	-0.115
-128.297	-200.000	0.034	0.207
-127.283	-200.000	-0.028	0.256
-126.268	-200.000	0.013	0.093
-125.253	-200.000	-0.038	-0.173
-124.239	-53.958	0.167	-0.075
-123.224	-173.568	-0.198	-0.006
-122.210	-8.899	0.323	0.214
-121.195	161.119	0.090	-0.124
-120.180	-25.290	0.165	0.096
-119.166	-200.000	0.060	0.322
-118.151	-133.030	-0.107	-0.013
-117.137	-16.646	-0.313	0.195
-116.122	-200.000	-0.045	0.396
-115.107	29.235	-0.166	0.139
-114.093	326.805	-0.131	0.248
-113.078	52.084	0.049	0.046
-112.064	93.236	0.158	0.176
-111.049	-200.000	-0.028	0.655
-110.034	-200.000	-0.014	0.163
-109.020	-65.254	0.216	-0.086
-108.005	40.467	-0.241	-0.214
-106.991	54.261	-0.443	-0.420
-105.976	65.332	-0.173	-0.172
-104.962	69.192	-0.231	0.234
-103.947	69.326	-0.065	0.065
-102.932	-200.000	0.077	0.435
-101.918	-108.818	0.241	-0.051
-100.903	-200.000	-0.011	-0.147
-99.889	670.273	0.021	0.054
-98.874	-20.555	-0.123	0.074
-97.859	-100.227	-0.233	0.057
-96.845	-12.017	0.139	0.090
-95.830	45.257	0.334	0.303
-94.816	-152.643	-0.403	0.028
-93.801	-118.241	0.002	-0.000
-92.786	184.741	-0.170	-0.248
-91.772	474.066	0.080	-0.177
-90.757	-200.000	-0.032	-0.512
-89.743	-3.318	-0.040	-0.028
-88.728	-35.029	-0.044	0.024
-87.713	-107.455	0.196	-0.042
-86.699	-37.882	0.196	-0.103
-85.684	-57.987	0.082	0.035
-84.670	-17.682	0.248	0.153
-83.655	-25.922	0.259	-0.150
-82.640	96.309	0.175	-0.197
-81.626	-70.775	0.130	0.048
-80.611	29.403	-0.073	-0.061
-79.597	446.003	-0.223	0.483
-78.582	-143.332	-0.089	0.008
-77.567	-91.102	-0.401	0.113
-76.553	800.000	0.128	-0.397
-75.538	135.357	-0.103	-0.132
-74.524	-200.000	0.020	-0.132
-73.509	-76.949	-0.042	0.014
-72.494	-98.755	0.182	-0.046
-71.480	-98.055	0.302	-0.076
-70.465	-200.000	0.069	0.330
-69.451	-200.000	0.003	-0.061
-68.436	432.495	0.012	0.026
-67.422	-15.141	0.238	-0.150
-66.407	-147.463	0.160	-0.013
-65.392	67.978	-0.094	-0.094
-64.378	-73.035	-0.356	0.129
-63.363	-26.657	-0.118	-0.068
-62.349	75.039	0.316	-0.328
-61.334	91.448	-0.792	-0.875
-60.319	34.326	0.406	0.349
-59.305	230.319	-0.404	-0.649
-58.290	99.377	0.667	0.759
-57.276	800.000	0.452	1.395
-56.261	-200.000	95.165	547.913
-55.246	492.115	1437.498	3238.430
-54.232	147.418	2647.121	3504.917
-53.217	103.817	2342.116	2705.381
-52.203	41.875	1951.263	1739.849
-51.188	35.911	1736.654	1502.070
-50.173	33.157	1691.935	1442.359
-49.159	50.025	1736.559	1610.954
-48.144	51.961	1753.857	1641.887
-47.130	35.558	1714.659	1480.090
-46.115	32.776	1700.185	1446.239
-45.100	32.513	1695.429	1440.127
-44.086	32.536	1692.788	1438.001
-43.071	32.499	1690.004	1435.300
-42.057	32.592	1687.628	1433.931
-41.042	32.617	1685.140	1431.952
-40.027	32.523	1683.836	1430.070
-39.013	32.485	1681.527	1427.764
-37.998	32.504	1680.115	1426.657
-36.984	32.439	1679.360	1425.467
-35.969	32.546	1678.091	1425.140
-34.954	32.604	1676.166	1423.886
-33.940	32.590	1674.208	1422.061
-32.925	32.632	1671.934	1420.392
-31.911	32.656	1670.759	1419.515
-30.896	32.612	1668.561	1417.264
-29.881	32.622	1667.160	1416.094
-28.867	32.601	1665.460	1414.434
-27.852	32.527	1663.928	1412.525
-26.838	32.658	1662.225	1412.002
-25.823	32.708	1660.863	1411.162
-24.809	32.638	1659.425	1409.357
-23.794	32.554	1658.172	1407.615
-22.779	32.519	1656.921	1406.230
-21.765	32.639	1655.004	1405.443
-20.750	32.709	1653.114	1404.308
-19.736	32.718	1651.626	1403.054
-18.721	32.689	1650.293	1401.654
-17.706	32.737	1648.902	1400.770
-16.692	32.679	1647.174	1398.813
-15.677	32.673	1645.550	1397.333
-14.663	32.792	1644.082	1396.920
-13.648	32.670	1643.264	1395.264
-12.633	32.654	1641.107	1393.254
-11.619	32.682	1639.588	1392.121
-10.604	32.621	1638.366	1390.576
-9.590	32.687	1637.277	1390.084
-8.575	32.611	1636.280	1388.625
-7.560	32.648	1634.760	1387.552
-6.546	32.720	1633.247	1386.738
-5.531	32.684	1632.305	1385.618
-4.517	32.637	1630.727	1383.878
-3.502	32.676	1629.689	1383.229
-2.487	32.834	1627.788	1382.720
-1.473	32.802	1617.454	1373.658
-0.458	30.849	1598.904	1343.772
0.556	26.147	1600.029	1314.721
1.571	23.403	1624.500	1314.390
2.586	22.344	1636.937	1316.413
3.600	19.892	1582.469	1254.746
4.615	11.051	1467.116	1103.494
5.629	2.367	1398.657	995.578
6.644	0.603	1389.596	977.632
7.659	0.636	1387.839	976.520
8.673	0.462	1387.251	974.896
9.688	0.460	1385.249	973.392
10.702	0.244	1382.104	969.705
11.717	4.043	1388.361	998.542
12.731	12.822	1402.544	1065.639
13.746	17.567	1407.936	1100.363
14.761	17.152	1406.933	1096.802
15.775	16.370	1403.972	1089.358
16.790	15.443	1401.297	1081.218
17.804	14.575	1399.435	1074.101
18.819	14.212	1398.075	1070.626
19.834	13.950	1396.316	1067.502
20.848	13.694	1395.184	1064.899
21.863	13.461	1393.841	1062.282
22.877	13.266	1392.679	1060.052
23.892	13.265	1391.415	1058.988
24.907	13.098	1391.137	1057.617
25.921	13.217	1389.733	1057.215
26.936	13.239	1389.052	1056.747
27.950	13.351	1388.132	1056.667
28.965	13.266	1387.234	1055.346
29.980	13.339	1386.197	1054.932
30.994	13.440	1385.282	1054.784
32.009	13.534	1384.481	1054.680
33.023	13.495	1382.725	1053.002
34.038	13.409	1381.935	1051.761
35.053	13.436	1380.640	1050.855
36.067	13.335	1379.572	1049.307
37.082	13.439	1378.420	1048.993
38.096	13.370	1378.161	1048.269
39.111	13.376	1377.270	1047.534
40.126	13.235	1376.451	1045.931
41.140	13.283	1374.967	1045.013
42.155	13.255	1375.174	1044.900
43.169	13.231	1374.915	1044.458
44.184	13.269	1374.194	1044.057
45.199	13.169	1373.920	1043.127
46.213	13.246	1373.400	1043.127
47.228	13.372	1372.377	1043.054
48.242	13.302	1371.365	1041.750
49.257	13.298	1369.426	1040.158
50.271	13.346	1368.274	1039.490
51.286	13.379	1366.626	1038.353
52.301	13.382	1365.329	1037.299
53.315	13.341	1364.477	1036.298
54.330	13.284	1363.394	1035.030
55.344	13.351	1362.022	1034.318
56.359	13.289	1361.173	1033.191
57.374	13.240	1360.406	1032.211
58.388	13.187	1360.019	1031.498
59.403	13.216	1358.887	1030.727
60.417	13.261	1358.097	1030.319
61.432	13.135	1357.812	1029.223
62.447	13.166	1356.433	1028.283
63.461	13.150	1355.226	1027.175
64.476	13.148	1354.106	1026.227
65.490	13.202	1352.602	1025.327
66.505	13.201	1351.315	1024.254
67.520	13.195	1350.039	1023.165
68.534	13.273	1348.851	1022.652
69.549	13.172	1348.136	1021.397
70.563	13.183	1347.006	1020.520
71.578	13.132	1345.476	1018.955
72.593	13.098	1344.789	1018.131
73.607	13.154	1343.735	1017.589
74.622	13.048	1343.003	1016.292
75.636	13.125	1342.101	1015.996
76.651	13.025	1341.799	1015.060
77.666	13.099	1341.254	1015.012
78.680	13.155	1340.296	1014.540
79.695	13.153	1339.338	1013.713
80.709	13.111	1338.729	1012.905
81.724	13.188	1337.760	1012.555
82.739	13.278	1336.696	1012.214
83.753	13.292	1335.607	1011.383
84.768	13.327	1334.741	1010.852
85.782	13.422	1333.216	1010.190
86.797	13.336	1332.240	1008.838
87.812	13.264	1331.203	1007.521
88.826	13.293	1330.046	1006.735
89.841	13.252	1329.215	1005.766
90.855	13.327	1328.311	1005.446
91.870	13.352	1327.275	1004.728
92.884	13.420	1326.352	1004.351
93.899	13.423	1325.658	1003.758
94.914	13.397	1325.047	1003.046
95.928	13.445	1324.124	1002.548
96.943	13.491	1322.976	1001.869
97.957	13.453	1321.806	1000.665
98.972	13.426	1320.614	999.509
99.987	13.342	1320.335	998.708
101.001	13.452	1319.030	998.292
102.016	13.323	1318.350	996.912
103.030	13.462	1316.847	996.527
104.045	13.376	1316.436	995.608
105.060	13.320	1315.350	994.362
106.074	13.387	1313.470	993.257
107.089	13.224	1312.192	991.222
108.103	13.338	1310.485	990.532
109.118	13.242	1309.701	989.272
110.133	13.260	1308.452	988.354
111.147	13.277	1307.128	987.367
112.162	13.348	1305.809	986.705
113.176	13.359	1304.748	985.883
114.191	13.315	1304.154	985.082
115.206	13.328	1302.842	984.083
116.220	13.325	1301.310	982.821
117.235	13.243	1300.785	981.848
118.249	13.288	1299.399	980.982
119.264	13.311	1298.522	980.371
120.279	13.266	1297.691	979.394
121.293	13.209	1296.630	978.168
122.308	13.267	1295.126	977.290
123.322	13.258	1294.279	976.506
124.337	13.223	1293.335	975.507
125.352	13.285	1291.746	974.583
126.366	13.211	1290.962	973.471
127.381	13.228	1289.904	972.684
128.395	13.272	1288.598	971.875
129.410	13.268	1287.714	971.097
130.424	13.265	1286.976	970.436
131.439	13.388	1285.497	969.959
132.454	13.403	1284.964	969.557
133.468	13.369	1283.722	968.337
134.483	13.348	1283.137	967.684
135.497	13.441	1281.514	966.923
136.512	13.423	1281.118	966.431
137.527	13.362	1279.642	964.878
138.541	13.411	1277.939	963.795
139.556	13.449	1276.629	962.940
140.570	13.472	1275.816	962.376
141.585	13.390	1274.459	960.791
142.600	13.375	1273.246	959.706
143.614	13.453	1272.323	959.377
144.629	13.523	1271.278	958.909
145.643	13.492	1270.583	958.122
146.658	13.455	1269.192	956.774
147.673	13.391	1267.731	955.218
148.687	13.444	1265.959	954.105
149.702	13.434	1264.972	953.216
150.716	13.394	1263.448	951.756
151.731	13.428	1262.330	951.024
152.746	13.471	1261.064	950.229
153.760	13.478	1259.801	949.239
154.775	13.527	1258.521	948.469
155.789	13.626	1257.685	948.319
156.804	13.513	1256.658	946.816
157.819	13.559	1255.617	946.210
158.833	13.470	1255.171	945.281
159.848	13.569	1254.134	944.985
160.862	13.600	1252.892	944.141
161.877	13.516	1251.362	942.424
162.892	13.663	1250.190	942.295
163.906	13.589	1249.768	941.474
164.921	13.610	1249.203	941.085
165.935	13.619	1247.890	940.063
166.950	13.576	1247.028	939.088
167.964	13.613	1246.263	938.639
168.979	13.661	1245.696	938.399
169.994	13.553	1244.978	937.163
171.008	13.750	1243.723	937.249
172.023	13.632	1243.370	936.233
173.037	13.735	1242.358	935.969
174.052	13.788	1241.510	935.549
175.067	13.777	1240.077	934.323
176.081	13.750	1238.936	933.228
177.096	13.628	1238.355	932.022
178.110	13.647	1237.327	931.274
179.125	13.694	1236.057	930.500
180.140	13.698	1235.036	929.673
181.154	13.709	1233.546	928.529
182.169	13.794	1232.489	928.128
183.183	13.801	1231.105	927.042
184.198	13.948	1229.942	926.901
185.213	13.788	1228.911	925.154
186.227	13.849	1228.080	924.786
187.242	13.816	1227.174	923.835
188.256	13.852	1226.364	923.344
189.271	13.941	1224.737	922.533
190.286	13.854	1223.763	921.235
191.300	13.725	1223.434	920.189
192.315	13.715	1222.426	919.296
193.329	13.820	1221.396	919.019
194.344	13.751	1221.187	918.401
195.359	13.824	1220.908	918.512
196.373	13.807	1220.226	917.827
197.388	14.057	1219.504	918.581
198.402	14.072	1219.002	918.204
199.417	14.023	1218.472	917.457
200.432	14.075	1217.394	916.849
201.446	14.077	1216.442	916.062
202.461	14.089	1215.506	915.339
203.475	14.142	1214.282	914.629
204.490	14.070	1213.351	913.453
205.504	14.044	1212.026	912.230
206.519	14.094	1210.989	911.645
207.534	14.067	1209.952	910.636
208.548	14.079	1209.134	910.002
209.563	14.184	1208.087	909.711
210.577	14.098	1207.303	908.568
211.592	14.191	1206.345	908.278
212.607	14.255	1205.813	908.141
213.621	14.321	1204.198	907.207
214.636	14.199	1203.731	906.112
215.650	14.226	1202.774	905.457
216.665	14.273	1201.746	904.856
217.680	14.222	1201.337	904.196
218.694	14.315	1200.329	903.859
219.709	14.276	1199.466	902.916
220.723	14.257	1198.703	902.160
221.738	14.432	1197.601	902.200
222.753	14.355	1197.063	901.297
223.767	14.438	1196.212	901.023
224.782	14.417	1195.807	900.529
225.796	14.477	1195.065	900.213
226.811	14.423	1194.445	899.376
227.826	14.419	1193.703	898.714
228.840	14.474	1192.921	898.345
229.855	14.483	1192.373	897.900
230.869	14.564	1191.140	897.326
231.884	14.536	1190.537	896.644
232.899	14.481	1189.561	895.533
233.913	14.477	1189.088	895.076
234.928	14.471	1188.424	894.466
235.942	14.442	1187.841	893.794
236.957	14.352	1187.352	892.860
237.972	14.473	1186.097	892.486
238.986	14.447	1185.636	891.920
240.001	14.515	1185.188	891.870
241.015	14.500	1184.091	890.887
242.030	14.468	1183.147	889.923
243.045	14.531	1182.342	889.578
244.059	14.553	1181.434	888.935
245.074	14.580	1180.555	888.338
246.088	14.685	1179.777	888.231
247.103	14.643	1178.797	887.193
248.117	14.693	1178.235	886.957
249.132	14.743	1177.679	886.722
250.147	14.745	1177.064	886.194
251.161	14.805	1176.484	885.997
252.176	14.833	1175.782	885.537
253.190	14.862	1175.061	885.071
254.205	14.804	1174.401	884.189
255.220	14.931	1173.645	884.210
256.234	14.989	1172.455	883.542
257.249	15.026	1171.764	883.139
258.263	14.966	1171.459	882.516
259.278	14.965	1171.021	882.101
260.293	14.945	1170.594	881.598
261.307	15.080	1169.661	881.524
262.322	15.010	1169.026	880.600
263.336	15.104	1168.349	880.506
264.351	15.078	1167.713	879.814
265.366	15.034	1167.150	879.080
266.380	15.068	1166.240	878.495
267.395	15.109	1165.456	878.043
268.409	15.053	1164.839	877.207
269.424	15.077	1163.875	876.531
270.439	15.099	1163.653	876.397
271.453	15.183	1163.225	876.437
272.468	15.122	1161.732	874.918
273.482	15.164	1160.854	874.398
274.497	15.069	1160.686	873.697
275.512	15.299	1159.311	873.782
276.526	15.204	1158.600	872.674
277.541	15.199	1157.976	872.104
278.555	15.245	1157.335	871.784
279.570	15.250	1156.844	871.363
280.585	15.310	1155.935	870.913
281.599	15.282	1155.322	870.229
282.614	15.275	1153.721	868.908
283.628	15.320	1152.738	868.323
284.643	15.335	1152.063	867.816
285.657	15.356	1151.505	867.427
286.672	15.218	1150.684	866.022
287.687	15.295	1149.864	865.722
288.701	15.268	1149.038	864.886
289.716	15.398	1147.951	864.661
290.730	15.459	1146.983	864.171
291.745	15.432	1146.322	863.454
292.760	15.316	1145.769	862.368
293.774	15.477	1145.181	862.678
294.789	15.558	1144.615	862.587
295.803	15.517	1144.062	861.884
296.818	15.420	1143.482	860.876
297.833	15.430	1142.709	860.266
298.847	15.570	1141.627	860.092
299.862	15.540	1140.744	859.197
300.876	15.588	1140.378	859.095
301.891	15.523	1139.819	858.265
302.906	15.712	1138.513	858.168
303.920	15.698	1137.927	857.580
304.935	15.730	1137.425	857.287
305.949	15.739	1136.996	856.937
306.964	15.757	1136.373	856.481
307.979	15.728	1135.643	855.708
308.993	15.669	1135.013	854.858
310.008	15.801	1133.847	854.571
311.022	15.760	1133.229	853.823
312.037	15.805	1132.059	853.094
313.052	15.691	1131.770	852.222
314.066	15.668	1130.744	851.260
315.081	15.780	1129.774	851.023
316.095	15.776	1128.935	850.291
317.110	15.713	1128.590	849.639
318.125	15.674	1127.857	848.818
319.139	15.727	1126.693	848.130
320.154	15.841	1125.978	848.095
321.168	15.800	1125.648	847.565
322.183	15.828	1124.782	846.977
323.197	15.801	1124.505	846.556
324.212	15.769	1123.557	845.608
325.227	15.948	1123.008	846.017
326.241	15.899	1121.998	844.939
327.256	15.894	1121.557	844.505
328.270	15.910	1120.681	843.851
329.285	15.855	1119.803	842.839
330.300	15.970	1118.539	842.388
331.314	15.869	1117.527	841.048
332.329	15.976	1116.873	841.014
333.343	15.994	1115.822	840.240
334.358	16.003	1115.305	839.822
335.373	16.086	1114.385	839.467
336.387	16.016	1113.959	838.723
337.402	16.086	1112.875	838.182
338.416	15.935	1112.212	836.858
339.431	16.057	1111.527	836.875
340.446	16.164	1110.873	836.837
341.460	16.077	1110.580	836.110
342.475	16.191	1109.209	835.573
343.489	16.255	1108.510	835.288
344.504	16.227	1107.424	834.258
345.519	16.321	1106.709	834.107
346.533	16.284	1105.932	833.264
347.548	16.401	1105.076	833.122
348.562	16.215	1104.501	831.700
349.577	16.372	1103.516	831.659
350.592	16.393	1102.808	831.154
351.606	16.313	1102.294	830.299
352.621	16.196	1101.337	828.931
353.635	16.300	1100.999	829.115
354.650	16.383	1099.822	828.563
355.665	16.324	1099.275	827.788
356.679	16.258	1098.967	827.158
357.694	16.390	1098.111	827.085
358.708	16.433	1097.372	826.665
359.723	16.409	1096.673	825.949
360.738	16.382	1096.151	825.352
361.752	16.483	1095.607	825.362
362.767	16.333	1095.330	824.351
363.781	16.523	1094.386	824.491
364.796	16.549	1093.753	824.070
365.810	16.542	1093.314	823.629
366.825	16.589	1092.637	823.278
367.840	16.642	1092.306	823.214
368.854	16.593	1091.625	822.388
369.869	16.658	1090.562	821.831
370.883	16.628	1089.707	820.966
371.898	16.659	1089.222	820.682
372.913	16.572	1089.144	820.127
373.927	16.516	1088.573	819.353
374.942	16.593	1087.976	819.203
375.956	16.704	1087.252	819.122
376.971	16.615	1086.342	817.936
377.986	16.627	1086.212	817.825
379.000	16.698	1085.506	817.562
380.015	16.901	1084.806	817.941
381.029	16.750	1084.002	816.536
382.044	16.827	1083.407	816.387
383.059	16.915	1082.473	816.033
384.073	16.918	1081.654	815.359
385.088	16.972	1080.425	814.619
386.102	16.868	1080.134	813.826
387.117	16.900	1078.805	812.909
388.132	16.893	1078.127	812.292
389.146	17.027	1077.252	812.202
390.161	16.846	1076.577	810.754
391.175	16.867	1076.029	810.371
392.190	16.891	1074.949	809.603
393.205	16.943	1074.102	809.140
394.219	16.971	1073.740	808.930
395.234	17.014	1072.636	808.232
396.248	17.018	1071.942	807.654
397.263	17.008	1070.643	806.555
398.278	16.899	1070.366	805.758
399.292	16.938	1070.018	805.611
400.307	17.037	1068.934	805.194
401.321	17.009	1068.301	804.511
402.336	16.953	1067.662	803.696
403.350	16.988	1066.673	803.044
404.365	17.065	1065.925	802.775
405.380	17.046	1065.420	802.234
406.394	17.100	1064.707	801.879
407.409	17.180	1063.712	801.438
408.423	17.041	1063.421	800.495
409.438	17.356	1062.402	801.138
410.453	17.268	1061.758	800.169
411.467	17.205	1061.153	799.344
412.482	17.378	1060.356	799.488
413.496	17.363	1059.563	798.750
414.511	17.270	1059.248	798.002
415.526	17.308	1058.816	797.785
416.540	17.448	1057.919	797.695
417.555	17.403	1057.310	796.956
418.569	17.333	1057.164	796.444
419.584	17.439	1056.395	796.292
420.599	17.456	1056.127	796.101
421.613	100.776	1321.205	1456.880
422.628	92.880	1359.797	1456.988
