DTS Sentinel unit serial number:	SN413079Multiplexer serial number:	ORYXHardware model number:	OX4-SRSoftware version number:	ORYX F/W v4.00 Oryx Data Collector v3.7.2.0data status	okinstallation	princeton_trtdifferential loss correction	single-endedforward channel	channel 2reverse channel	N/Adate	2019/09/19time	02:39:35forward acquisition time	60.00reverse acquisition time	0.00gamma	496.2192k internal	0.2353k external	0.2353temperature offset calibration	1.0013default loss term (dB/km)	0.3790temperature slope calibration	1.0000multiplexer offset coefficient	1.0000multiplexer slope coefficient	1.0000fibre end	0.00T internal ref (°C)	20.94T ext. ref 1 (°C)	0.66T ext. ref 2 (°C)	14.77length (m)	temperature (°C)	Stokes	anti-Stokes-747.200	-60.097	-0.051	-0.022
-746.185	54.722	-0.080	0.077
-745.171	-55.196	-0.263	-0.118
-744.156	-99.954	-0.115	-0.029
-743.142	-102.947	-0.031	-0.007
-742.127	63.942	-0.204	0.205
-741.112	580.373	-0.029	-0.071
-740.098	2.856	-0.082	0.059
-739.083	539.620	-0.011	-0.026
-738.069	51.067	-0.159	0.151
-737.054	42.399	-0.178	-0.161
-736.039	-200.000	-0.011	-0.277
-735.025	-70.114	0.249	0.094
-734.010	-13.481	-0.117	0.075
-732.996	-39.449	0.219	-0.115
-731.981	-200.000	-0.024	-0.186
-730.966	800.000	-0.089	-0.320
-729.952	743.975	-0.104	-0.279
-728.937	800.000	0.082	-0.259
-727.923	-200.000	-0.052	-0.409
-726.908	18.700	-0.366	0.292
-725.894	-172.615	0.091	-0.003
-724.879	-152.987	-0.360	-0.025
-723.864	800.000	-0.098	0.324
-722.850	185.645	0.156	0.231
-721.835	392.727	0.111	-0.231
-720.821	151.396	-0.032	0.044
-719.806	-200.000	0.035	0.220
-718.791	641.568	-0.059	-0.149
-717.777	-185.742	-0.052	-0.001
-716.762	355.377	0.165	-0.327
-715.748	-36.699	0.143	0.076
-714.733	-200.000	0.026	-0.163
-713.718	-85.442	-0.196	0.061
-712.704	-2.167	-0.103	0.072
-711.689	-55.161	0.089	0.040
-710.675	800.000	0.149	0.415
-709.660	-30.074	-0.275	0.156
-708.645	165.944	0.242	0.341
-707.631	614.428	-0.057	-0.142
-706.616	-200.000	-0.005	-0.047
-705.602	-113.457	-0.307	0.060
-704.587	100.543	-0.232	-0.269
-703.572	149.825	0.031	-0.042
-702.558	-6.809	-0.009	-0.006
-701.543	597.266	0.099	-0.244
-700.529	-200.000	0.021	0.255
-699.514	66.964	-0.174	0.176
-698.499	88.918	0.086	0.095
-697.485	35.564	-0.160	-0.140
-696.470	271.618	-0.084	0.147
-695.456	800.000	0.039	-0.163
-694.441	-108.555	0.217	0.046
-693.426	-200.000	0.019	-0.282
-692.412	200.596	0.179	-0.274
-691.397	198.308	0.134	0.203
-690.383	800.000	0.045	0.131
-689.368	51.918	0.108	-0.102
-688.354	-8.916	-0.116	-0.077
-687.339	569.821	0.070	-0.169
-686.324	33.190	-0.374	-0.323
-685.310	-200.000	-0.012	-0.109
-684.295	-35.166	0.153	-0.083
-683.281	800.000	-0.009	0.029
-682.266	-200.000	0.026	-0.189
-681.251	-200.000	0.004	-0.254
-680.237	-30.417	-0.250	0.141
-679.222	-200.000	0.045	-0.340
-678.208	37.049	-0.160	0.141
-677.193	800.000	-0.053	-0.172
-676.178	-200.000	0.006	0.030
-675.164	-200.000	0.026	-0.271
-674.149	287.194	0.173	0.312
-673.135	226.635	-0.243	0.393
-672.120	63.431	0.055	-0.054
-671.105	699.762	0.048	-0.126
-670.091	-200.000	0.027	-0.201
-669.076	478.368	0.095	-0.213
-668.062	-94.615	-0.191	-0.052
-667.047	383.024	-0.068	-0.139
-666.032	110.884	-0.177	0.212
-665.018	-200.000	-0.010	-0.094
-664.003	-54.080	0.201	-0.091
-662.989	116.341	-0.170	0.207
-661.974	172.606	0.080	0.114
-660.959	-200.000	-0.001	0.089
-659.945	61.389	-0.165	-0.163
-658.930	372.219	-0.021	-0.041
-657.916	-38.204	-0.057	0.030
-656.901	-109.150	-0.127	0.027
-655.886	-127.195	-0.180	-0.026
-654.872	-26.150	-0.332	0.194
-653.857	-14.313	-0.220	-0.141
-652.843	-59.263	-0.090	-0.039
-651.828	159.802	-0.097	-0.134
-650.814	-137.966	0.068	0.008
-649.799	-57.772	-0.449	0.195
-648.784	42.991	0.130	-0.118
-647.770	-182.292	-0.173	0.003
-646.755	-200.000	-0.011	-0.161
-645.741	332.410	-0.096	-0.184
-644.726	-8.261	-0.194	0.130
-643.711	166.178	-0.128	-0.180
-642.697	-200.000	-0.033	-0.196
-641.682	268.469	-0.123	0.214
-640.668	359.012	0.137	-0.273
-639.653	245.815	0.078	0.130
-638.638	-200.000	-0.018	-0.106
-637.624	-74.444	0.394	-0.141
-636.609	-200.000	0.066	0.394
-635.595	279.683	0.063	0.111
-634.580	-200.000	0.017	0.159
-633.565	122.096	0.072	0.089
-632.551	800.000	-0.044	-0.180
-631.536	165.279	-0.149	-0.210
-630.522	-63.500	-0.131	0.054
-629.507	51.298	0.198	-0.187
-628.492	800.000	-0.065	0.238
-627.478	-200.000	-0.040	-0.291
-626.463	800.000	0.042	0.154
-625.449	800.000	0.069	0.234
-624.434	22.617	0.149	0.121
-623.419	461.131	-0.078	-0.173
-622.405	800.000	0.088	0.249
-621.390	-200.000	-0.026	-0.121
-620.376	555.667	-0.117	-0.279
-619.361	-200.000	0.030	-0.284
-618.346	23.593	0.283	-0.231
-617.332	-200.000	-0.028	-0.156
-616.317	-94.503	-0.305	0.083
-615.303	-200.000	0.036	0.179
-614.288	-200.000	-0.033	-0.222
-613.273	800.000	-0.181	0.528
-612.259	499.630	0.072	-0.165
-611.244	271.908	0.123	-0.215
-610.230	-95.075	-0.047	-0.013
-609.215	144.013	-0.068	-0.090
-608.201	481.734	-0.061	0.138
-607.186	9.853	-0.149	-0.112
-606.171	132.678	-0.106	0.135
-605.157	-200.000	-0.031	0.321
-604.142	31.680	0.257	-0.219
-603.128	-200.000	-0.013	0.132
-602.113	280.312	-0.093	-0.165
-601.098	-200.000	0.024	0.261
-600.084	357.903	0.082	0.162
-599.069	-193.821	-0.260	0.002
-598.055	515.691	0.097	0.226
-597.040	-98.324	0.194	0.049
-596.025	-185.431	-0.212	0.003
-595.011	39.189	-0.209	-0.185
-593.996	-125.601	0.441	0.066
-592.982	322.728	0.207	-0.391
-591.967	-116.419	0.342	-0.063
-590.952	-200.000	0.025	0.122
-589.938	800.000	-0.092	-0.267
-588.923	7.861	-0.348	0.258
-587.909	168.030	-0.076	-0.107
-586.894	-50.924	-0.202	-0.094
-585.879	92.721	0.169	0.189
-584.865	-122.011	-0.215	0.035
-583.850	-98.140	-0.226	0.058
-582.836	33.997	0.207	0.178
-581.821	48.435	-0.154	0.142
-580.806	90.189	-0.262	0.291
-579.792	249.809	-0.088	-0.147
-578.777	5.346	-0.334	0.244
-577.763	-200.000	-0.029	0.313
-576.748	49.053	0.040	-0.038
-575.733	82.986	-0.092	-0.099
-574.719	-90.343	0.214	-0.061
-573.704	183.589	0.116	0.169
-572.690	680.753	0.101	0.261
-571.675	141.677	0.064	0.084
-570.661	-38.791	-0.228	0.119
-569.646	800.000	-0.060	-0.197
-568.631	154.573	0.155	-0.211
-567.617	73.221	0.252	-0.261
-566.602	-30.904	0.278	0.156
-565.588	72.765	-0.088	-0.091
-564.573	-115.300	0.125	0.023
-563.558	-200.000	-0.021	0.118
-562.544	800.000	0.054	-0.204
-561.529	482.117	-0.036	-0.081
-560.515	-200.000	0.016	0.424
-559.500	9.367	0.099	-0.074
-558.485	-151.360	0.407	-0.030
-557.471	10.033	-0.164	0.123
-556.456	-77.005	0.408	-0.141
-555.442	-200.000	0.003	-0.316
-554.427	-54.441	-0.087	0.039
-553.412	-200.000	0.031	-0.148
-552.398	-100.997	-0.234	0.057
-551.383	-200.000	-0.002	-0.140
-550.369	241.676	0.153	-0.252
-549.354	58.808	-0.047	0.045
-548.339	-68.654	0.445	0.171
-547.325	-88.471	-0.525	-0.155
-546.310	163.425	0.089	0.124
-545.296	46.835	-0.091	0.084
-544.281	452.358	-0.125	-0.273
-543.266	800.000	-0.081	0.304
-542.252	-200.000	0.035	-0.542
-541.237	-41.454	0.178	-0.091
-540.223	-85.512	-0.400	-0.123
-539.208	-7.455	0.364	-0.244
-538.193	-147.581	0.259	-0.022
-537.179	-105.299	-0.304	0.068
-536.164	115.396	-0.144	-0.174
-535.150	521.553	-0.061	0.143
-534.135	-200.000	-0.033	-0.312
-533.121	-200.000	0.024	0.294
-532.106	-27.117	-0.199	0.115
-531.091	-38.888	-0.043	-0.022
-530.077	-76.286	0.085	-0.030
-529.062	441.349	-0.077	0.167
-528.048	55.350	-0.212	0.203
-527.033	-61.330	0.103	-0.043
-526.018	800.000	0.095	0.292
-525.004	1.297	-0.041	0.029
-523.989	16.887	0.216	-0.169
-522.975	-139.195	-0.183	0.020
-521.960	-75.053	-0.151	-0.053
-520.945	800.000	0.098	0.299
-519.931	120.118	-0.158	-0.193
-518.916	-200.000	-0.006	-0.178
-517.902	-200.000	0.006	0.030
-516.887	-183.505	-0.284	0.005
-515.872	42.577	-0.076	-0.068
-514.858	-159.174	0.021	0.001
-513.843	54.902	0.068	-0.064
-512.829	-113.723	-0.330	-0.064
-511.814	-59.061	0.224	0.095
-510.799	-144.688	-0.193	-0.018
-509.785	-200.000	-0.072	0.391
-508.770	36.159	0.290	0.253
-507.756	-200.000	0.014	0.280
-506.741	-77.455	0.043	-0.015
-505.726	800.000	-0.072	-0.203
-504.712	-73.281	-0.274	0.099
-503.697	64.230	-0.081	0.080
-502.683	-200.000	0.056	0.249
-501.668	147.889	-0.144	-0.192
-500.653	24.513	-0.103	0.084
-499.639	232.840	-0.015	-0.024
-498.624	255.179	-0.101	-0.170
-497.610	3.187	-0.155	0.112
-496.595	-33.298	-0.307	-0.168
-495.581	-200.000	0.002	-0.161
-494.566	367.461	-0.101	0.201
-493.551	-140.314	-0.057	0.006
-492.537	-200.000	-0.010	0.246
-491.522	-54.169	-0.192	-0.086
-490.508	123.191	-0.051	0.063
-489.493	-200.000	-0.083	-0.378
-488.478	9.048	-0.290	-0.216
-487.464	69.643	0.252	-0.256
-486.449	-200.000	0.003	-0.141
-485.435	-75.143	0.239	0.084
-484.420	-116.964	0.198	-0.036
-483.405	761.447	0.025	0.066
-482.391	174.451	0.143	0.204
-481.376	-14.114	-0.368	0.234
-480.362	-200.000	0.042	-0.370
-479.347	382.707	0.081	0.165
-478.332	474.769	-0.075	0.167
-477.318	-128.758	0.114	0.016
-476.303	-200.000	0.009	0.288
-475.289	-38.153	-0.215	0.112
-474.274	-102.934	-0.235	0.055
-473.259	31.561	-0.162	0.138
-472.245	173.468	0.220	-0.314
-471.230	42.559	0.137	0.123
-470.216	-60.438	0.175	0.073
-469.201	306.397	-0.160	0.293
-468.186	650.575	0.038	-0.097
-467.172	-200.000	0.004	0.028
-466.157	292.542	-0.021	0.038
-465.143	670.608	-0.110	0.281
-464.128	-157.792	0.420	0.025
-463.113	633.408	-0.049	0.123
-462.099	-96.845	0.137	0.036
-461.084	390.816	0.108	-0.220
-460.070	-159.338	0.014	-0.001
-459.055	50.173	0.030	0.028
-458.040	63.395	0.214	0.212
-457.026	44.069	0.063	-0.057
-456.011	95.049	0.159	0.178
-454.997	-34.180	0.315	0.171
-453.982	-21.309	0.289	-0.174
-452.968	780.957	0.065	0.177
-451.953	-200.000	-0.050	0.252
-450.938	-37.833	-0.202	-0.106
-449.924	171.759	-0.163	-0.230
-448.909	-142.468	-0.371	-0.036
-447.895	55.559	-0.250	0.238
-446.880	-112.140	-0.167	-0.033
-445.865	63.147	-0.031	0.031
-444.851	-200.000	-0.010	0.127
-443.836	-154.849	-0.210	-0.014
-442.822	523.398	0.158	0.365
-441.807	-200.000	0.004	-0.124
-440.792	480.762	0.094	-0.209
-439.778	-200.000	-0.008	-0.192
-438.763	-0.663	-0.092	-0.064
-437.749	118.262	-0.063	-0.077
-436.734	-200.000	0.001	0.235
-435.719	-63.435	-0.051	-0.021
-434.705	-166.508	0.305	0.013
-433.690	172.856	0.242	-0.344
-432.676	459.703	-0.163	-0.357
-431.661	-200.000	-0.001	-0.066
-430.646	-77.444	-0.168	0.057
-429.632	32.409	-0.145	-0.123
-428.617	-7.817	-0.184	-0.122
-427.603	-200.000	-0.028	0.311
-426.588	-22.821	-0.064	0.038
-425.573	-133.549	0.142	-0.018
-424.559	553.806	0.081	-0.193
-423.544	-200.000	-0.018	0.385
-422.530	-81.730	-0.131	-0.042
-421.515	643.203	-0.033	0.083
-420.500	-200.000	-0.033	0.267
-419.486	138.627	0.025	0.032
-418.471	-90.237	-0.191	-0.055
-417.457	146.976	-0.065	0.086
-416.442	-151.911	0.059	0.004
-415.428	-200.000	0.014	-0.134
-414.413	93.570	0.099	0.110
-413.398	117.856	0.156	0.189
-412.384	-43.999	0.063	-0.031
-411.369	219.784	0.218	-0.344
-410.355	2.598	-0.268	0.191
-409.340	-200.000	-0.038	-0.188
-408.325	111.799	0.150	-0.178
-407.311	-181.139	0.043	0.001
-406.296	-200.000	-0.047	-0.350
-405.282	-139.323	0.096	-0.010
-404.267	35.452	0.173	0.149
-403.252	84.206	-0.061	-0.065
-402.238	21.296	0.213	-0.171
-401.223	-55.767	0.169	0.074
-400.209	-16.664	-0.171	0.106
-399.194	-200.000	-0.000	-0.182
-398.179	-170.500	0.486	-0.017
-397.165	-200.000	-0.042	-0.278
-396.150	-200.000	-0.061	-0.369
-395.136	800.000	0.060	-0.227
-394.121	-106.348	-0.276	0.061
-393.106	-27.390	-0.154	-0.088
-392.092	490.589	0.055	0.124
-391.077	-200.000	-0.005	-0.169
-390.063	-200.000	-0.023	-0.386
-389.048	-68.147	0.299	0.114
-388.033	343.541	-0.067	0.128
-387.019	-154.858	-0.224	-0.015
-386.004	-112.735	0.432	0.084
-384.990	-200.000	0.013	0.362
-383.975	-86.916	-0.070	-0.021
-382.960	-114.391	-0.109	0.021
-381.946	444.082	0.134	0.290
-380.931	-60.585	-0.331	-0.138
-379.917	-105.689	0.295	0.066
-378.902	-136.447	-0.207	0.024
-377.888	-78.255	-0.187	0.063
-376.873	-64.396	0.090	0.036
-375.858	-116.430	-0.036	0.007
-374.844	-105.352	-0.200	-0.045
-373.829	-97.581	0.281	-0.072
-372.815	-94.353	0.190	0.051
-371.800	109.885	-0.063	0.074
-370.785	-81.307	0.099	0.032
-369.771	800.000	-0.060	-0.173
-368.756	-200.000	0.024	-0.174
-367.742	-200.000	0.003	-0.044
-366.727	-11.813	-0.481	-0.310
-365.712	-200.000	-0.016	-0.130
-364.698	-200.000	0.019	-0.561
-363.683	-200.000	0.068	-0.563
-362.669	-57.932	0.156	-0.067
-361.654	-200.000	-0.033	0.309
-360.639	320.685	0.127	0.237
-359.625	800.000	-0.054	0.196
-358.610	287.136	-0.116	-0.206
-357.596	-86.364	0.116	-0.035
-356.581	-0.349	-0.130	-0.091
-355.566	172.496	0.064	-0.091
-354.552	-97.543	-0.366	0.093
-353.537	87.532	0.132	0.143
-352.523	-136.812	-0.124	-0.014
-351.508	-115.082	0.290	-0.054
-350.493	87.690	0.064	-0.069
-349.479	148.239	0.007	-0.009
-348.464	70.394	0.141	0.143
-347.450	38.478	0.233	0.204
-346.435	-35.564	0.036	-0.019
-345.420	171.766	-0.127	-0.179
-344.406	-200.000	0.032	0.310
-343.391	329.312	0.058	-0.110
-342.377	-134.170	-0.193	-0.023
-341.362	800.000	-0.165	-0.456
-340.348	-130.669	0.256	-0.034
-339.333	-200.000	0.037	0.297
-338.318	-200.000	-0.021	0.137
-337.304	-13.340	-0.230	-0.147
-336.289	-151.289	0.304	-0.022
-335.275	-94.124	-0.195	-0.053
-334.260	-200.000	0.034	-0.341
-333.245	-200.000	0.076	-0.343
-332.231	-41.434	-0.164	-0.083
-331.216	-200.000	0.040	0.255
-330.202	800.000	-0.048	0.134
-329.187	518.612	0.151	-0.347
-328.172	-200.000	-0.012	-0.409
-327.158	30.000	-0.074	0.062
-326.143	-47.758	0.561	0.267
-325.129	25.431	0.403	0.329
-324.114	192.314	0.116	-0.172
-323.099	-102.214	-0.162	-0.038
-322.085	-93.637	-0.172	-0.047
-321.070	-67.429	-0.225	-0.087
-320.056	-135.298	-0.135	-0.016
-319.041	800.000	-0.091	-0.274
-318.026	352.990	0.048	0.093
-317.012	84.545	-0.176	0.189
-315.997	-200.000	0.078	0.563
-314.983	267.550	0.098	0.169
-313.968	48.222	-0.226	-0.207
-312.953	27.921	0.091	0.075
-311.939	-200.000	-0.013	0.312
-310.924	800.000	0.038	-0.145
-309.910	-8.261	-0.224	-0.148
-308.895	-71.332	0.062	0.023
-307.880	800.000	-0.011	0.046
-306.866	-200.000	-0.028	0.142
-305.851	-54.572	0.159	-0.071
-304.837	218.703	0.089	-0.139
-303.822	-129.486	-0.480	0.065
-302.807	-10.946	-0.264	-0.171
-301.793	501.607	0.065	0.147
-300.778	213.644	-0.178	-0.276
-299.764	1.879	-0.304	-0.215
-298.749	-125.776	0.190	0.028
-297.735	81.329	-0.025	-0.026
-296.720	-60.712	0.138	0.057
-295.705	-200.000	-0.029	0.424
-294.691	6.566	-0.278	0.202
-293.676	151.937	-0.181	-0.242
-292.662	-200.000	0.031	0.144
-291.647	82.117	0.294	-0.312
-290.632	100.393	0.063	0.072
-289.618	141.002	-0.058	-0.075
-288.603	5.263	0.178	0.128
-287.589	582.530	-0.066	-0.159
-286.574	120.130	0.057	-0.069
-285.559	38.183	0.222	0.194
-284.545	52.670	0.309	0.289
-283.530	393.506	-0.056	-0.114
-282.516	-200.000	0.041	-0.257
-281.501	-47.342	0.131	0.062
-280.486	800.000	0.077	0.295
-279.472	-200.000	-0.028	0.147
-278.457	261.744	-0.183	-0.310
-277.443	-200.000	-0.017	0.353
-276.428	800.000	-0.085	-0.244
-275.413	18.612	0.084	-0.066
-274.399	-136.496	0.113	0.013
-273.384	-136.096	0.235	-0.027
-272.370	210.869	-0.109	-0.168
-271.355	405.620	-0.093	-0.192
-270.340	268.343	0.161	0.275
-269.326	-94.470	-0.169	-0.045
-268.311	87.825	0.142	-0.154
-267.297	176.782	-0.113	-0.161
-266.282	160.054	0.228	0.311
-265.267	800.000	-0.056	0.225
-264.253	90.329	-0.173	-0.190
-263.238	-200.000	-0.027	-0.223
-262.224	-200.000	-0.357	-0.001
-261.209	-108.489	-0.138	-0.029
-260.195	192.267	-0.131	-0.194
-259.180	-45.677	0.014	-0.007
-258.165	-146.612	-0.109	-0.009
-257.151	800.000	0.071	-0.291
-256.136	72.241	0.104	0.106
-255.122	800.000	0.010	-0.043
-254.107	-121.161	0.513	0.084
-253.092	800.000	0.045	0.146
-252.078	118.898	0.071	0.086
-251.063	188.982	-0.177	-0.259
-250.049	-43.144	0.174	-0.086
-249.034	-80.851	0.145	-0.047
-248.019	288.710	0.029	-0.052
-247.005	368.155	0.171	-0.337
-245.990	-18.610	0.278	-0.169
-244.976	35.731	0.066	-0.057
-243.961	-200.000	-0.038	-0.353
-242.946	44.879	0.442	0.398
-241.932	163.415	0.180	-0.248
-240.917	64.368	0.194	0.191
-239.903	-200.000	-0.033	-0.154
-238.888	30.381	-0.097	0.081
-237.873	-14.553	-0.381	0.239
-236.859	-64.994	0.259	0.102
-235.844	288.059	-0.054	0.095
-234.830	189.523	0.057	0.083
-233.815	-200.000	-0.024	0.142
-232.800	110.934	-0.177	0.208
-231.786	-94.089	-0.216	0.058
-230.771	-17.664	0.192	-0.118
-229.757	730.904	-0.047	-0.122
-228.742	36.209	-0.157	-0.135
-227.727	216.525	0.013	-0.021
-226.713	-162.567	0.313	0.015
-225.698	115.941	0.154	0.184
-224.684	-5.772	0.223	-0.150
-223.669	-200.000	-0.057	-0.376
-222.655	-50.371	0.075	-0.035
-221.640	22.015	-0.303	-0.241
-220.625	-59.294	0.305	-0.128
-219.611	-54.105	0.070	-0.031
-218.596	133.194	0.161	0.203
-217.582	527.284	-0.038	0.088
-216.567	12.528	-0.030	0.023
-215.552	-36.888	0.260	0.136
-214.538	-200.000	0.043	-0.223
-213.523	800.000	0.081	0.247
-212.509	683.005	0.036	-0.091
-211.494	34.652	-0.094	-0.081
-210.479	465.962	0.102	0.223
-209.465	-133.768	0.086	0.010
-208.450	17.855	-0.158	0.123
-207.436	-154.333	-0.048	-0.003
-206.421	53.161	-0.045	0.042
-205.406	-156.878	-0.160	0.010
-204.392	-174.919	0.169	-0.005
-203.377	-86.132	0.170	-0.051
-202.363	611.901	-0.111	-0.271
-201.348	800.000	0.076	-0.225
-200.333	44.892	0.110	0.098
-199.319	800.000	0.139	0.463
-198.304	119.987	-0.117	-0.142
-197.290	40.658	-0.133	0.117
-196.275	448.112	0.127	0.272
-195.260	-200.000	-0.077	0.459
-194.246	11.172	-0.155	0.116
-193.231	-200.000	-0.027	0.176
-192.217	64.655	0.401	0.395
-191.202	800.000	-0.030	-0.107
-190.187	-118.454	-0.059	0.010
-189.173	-80.563	0.031	-0.010
-188.158	91.569	-0.133	-0.146
-187.144	800.000	0.062	-0.210
-186.129	-68.924	-0.229	0.086
-185.114	-200.000	0.025	0.113
-184.100	-67.892	-0.021	0.008
-183.085	-20.782	0.298	0.178
-182.071	771.686	0.042	-0.113
-181.056	205.187	-0.101	-0.152
-180.042	521.644	-0.039	-0.089
-179.027	205.518	0.182	0.276
-178.012	80.344	0.158	0.166
-176.998	-51.365	-0.286	0.131
-175.983	463.876	-0.156	0.340
-174.969	-2.280	-0.156	-0.106
-173.954	-70.268	-0.095	0.035
-172.939	-64.198	0.020	-0.008
-171.925	-39.552	-0.293	0.150
-170.910	-200.000	-0.024	-0.177
-169.896	106.265	0.122	-0.141
-168.881	119.470	-0.189	0.228
-167.866	84.106	0.114	0.122
-166.852	-200.000	-0.061	-0.337
-165.837	-96.515	0.326	-0.084
-164.823	-200.000	-0.013	-0.116
-163.808	132.462	0.054	0.068
-162.793	34.677	0.087	-0.074
-161.779	800.000	-0.047	-0.154
-160.764	-94.764	-0.125	0.033
-159.750	-152.649	-0.217	0.015
-158.735	-200.000	0.002	0.360
-157.720	800.000	-0.035	0.127
-156.706	-173.376	0.168	-0.005
-155.691	-200.000	0.052	0.234
-154.677	-200.000	0.016	0.127
-153.662	254.957	-0.030	-0.050
-152.647	-200.000	0.022	-0.168
-151.633	-200.000	-0.049	0.217
-150.618	-181.961	0.228	-0.004
-149.604	-6.511	-0.150	0.099
-148.589	-200.000	-0.016	0.455
-147.574	-5.656	-0.203	0.136
-146.560	-130.835	0.458	0.060
-145.545	-7.945	-0.118	-0.078
-144.531	-64.198	-0.194	0.077
-143.516	-51.113	-0.140	0.064
-142.502	-200.000	-0.026	0.255
-141.487	-200.000	-0.033	-0.150
-140.472	-160.156	0.276	-0.015
-139.458	461.836	-0.111	-0.240
-138.443	-12.253	0.324	0.206
-137.429	800.000	0.120	0.375
-136.414	-200.000	0.042	0.292
-135.399	148.646	0.099	0.130
-134.385	186.516	-0.072	0.104
-133.370	161.536	-0.013	-0.017
-132.356	-200.000	-0.022	-0.249
-131.341	73.911	-0.091	-0.093
-130.326	410.854	-0.016	-0.033
-129.312	-134.783	-0.129	0.015
-128.297	-47.656	-0.270	-0.128
-127.283	800.000	0.035	0.099
-126.268	800.000	0.071	-0.234
-125.253	248.379	-0.202	-0.333
-124.239	800.000	-0.051	-0.142
-123.224	800.000	-0.065	0.206
-122.210	54.167	0.226	-0.211
-121.195	114.703	0.240	0.284
-120.180	199.648	0.084	-0.125
-119.166	-14.382	0.233	0.146
-118.151	165.977	-0.214	0.295
-117.137	-200.000	-0.006	0.123
-116.122	421.468	0.094	0.196
-115.107	-49.114	0.107	-0.050
-114.093	-14.329	-0.175	-0.109
-113.078	800.000	0.132	0.428
-112.064	-38.418	-0.127	-0.065
-111.049	-102.003	-0.177	-0.042
-110.034	79.912	-0.065	-0.068
-109.020	-41.114	-0.144	-0.072
-108.005	-23.842	0.235	0.137
-106.991	-16.920	-0.167	-0.102
-105.976	-200.000	-0.021	-0.155
-104.962	7.281	-0.123	-0.089
-103.947	175.118	0.030	-0.042
-102.932	-121.048	0.257	0.042
-101.918	217.929	-0.122	-0.189
-100.903	-200.000	-0.002	0.437
-99.889	375.407	0.051	0.100
-98.874	56.044	0.230	-0.217
-97.859	387.444	0.014	0.028
-96.845	208.526	-0.121	-0.184
-95.830	122.944	-0.212	0.259
-94.816	320.864	0.199	0.367
-93.801	-142.114	0.211	0.020
-92.786	235.458	-0.187	0.301
-91.772	-200.000	0.035	-0.396
-90.757	361.914	0.062	-0.120
-89.743	63.011	-0.046	-0.045
-88.728	106.301	0.053	0.061
-87.713	-200.000	-0.058	0.252
-86.699	-200.000	0.030	0.172
-85.684	489.681	-0.070	0.156
-84.670	-52.290	0.185	0.083
-83.655	-124.418	0.197	0.030
-82.640	-114.514	-0.070	0.013
-81.626	-200.000	-0.045	-0.204
-80.611	192.125	0.223	-0.327
-79.597	-154.560	0.198	-0.013
-78.582	-43.348	-0.330	0.162
-77.567	-200.000	-0.013	-0.280
-76.553	-85.834	0.138	0.042
-75.538	-50.288	0.189	0.087
-74.524	123.627	0.039	-0.048
-73.509	-34.902	-0.040	-0.021
-72.494	626.726	-0.090	0.221
-71.480	122.028	-0.223	0.271
-70.465	-9.671	0.312	0.202
-69.451	-43.028	0.364	-0.179
-68.436	-69.756	0.170	-0.063
-67.422	-121.021	0.148	0.024
-66.407	-112.183	0.220	0.043
-65.392	183.392	0.167	0.240
-64.378	-200.000	0.018	-0.208
-63.363	-200.000	-0.044	-0.219
-62.349	123.836	-0.120	-0.146
-61.334	152.699	-0.961	-1.275
-60.319	-27.166	0.856	0.484
-59.305	449.272	-0.726	-1.554
-58.290	234.454	0.921	1.475
-57.276	528.034	0.657	1.504
-56.261	-200.000	135.583	680.991
-55.246	340.637	1676.418	3176.595
-54.232	134.064	2814.109	3538.282
-53.217	82.491	2312.633	2436.665
-52.203	29.759	1910.155	1578.527
-51.188	23.968	1705.505	1365.059
-50.173	22.033	1667.974	1320.431
-49.159	43.964	1741.724	1548.747
-48.144	41.006	1750.676	1533.874
-47.130	23.493	1701.385	1357.910
-46.115	21.042	1686.179	1327.101
-45.100	20.897	1680.961	1321.836
-44.086	20.788	1678.474	1319.006
-43.071	20.740	1676.151	1316.761
-42.057	20.809	1673.991	1315.534
-41.042	20.886	1671.697	1314.260
-40.027	20.822	1670.647	1312.902
-39.013	20.816	1668.122	1310.824
-37.998	20.706	1667.564	1309.499
-36.984	20.890	1665.159	1308.943
-35.969	20.953	1664.249	1308.653
-34.954	20.906	1662.853	1307.148
-33.940	20.924	1660.677	1305.521
-32.925	20.850	1658.748	1303.397
-31.911	20.895	1657.169	1302.440
-30.896	20.947	1655.446	1301.426
-29.881	20.917	1653.616	1299.714
-28.867	20.985	1652.431	1299.235
-27.852	20.934	1651.201	1297.839
-26.838	20.959	1649.258	1296.442
-25.823	21.006	1648.489	1296.134
-24.809	20.911	1647.388	1294.516
-23.794	20.870	1646.085	1293.132
-22.779	21.031	1644.113	1292.727
-21.765	20.973	1642.891	1291.283
-20.750	20.989	1641.044	1289.903
-19.736	20.958	1639.819	1288.655
-18.721	20.970	1638.606	1287.744
-17.706	21.068	1636.820	1287.013
-16.692	20.937	1635.849	1285.228
-15.677	20.957	1634.388	1284.178
-14.663	21.029	1633.174	1283.707
-13.648	21.007	1631.603	1282.252
-12.633	20.920	1630.237	1280.492
-11.619	21.002	1628.463	1279.651
-10.604	20.972	1626.744	1278.030
-9.590	20.994	1625.848	1277.433
-8.575	20.987	1624.068	1275.934
-7.560	20.952	1623.353	1275.064
-6.546	20.993	1622.198	1274.408
-5.531	20.887	1621.499	1273.038
-4.517	21.047	1619.622	1272.678
-3.502	20.999	1618.578	1271.453
-2.487	21.094	1616.604	1270.548
-1.473	20.613	1604.593	1257.578
-0.458	17.639	1585.218	1221.064
0.556	12.994	1587.685	1189.757
1.571	10.881	1611.770	1192.220
2.586	10.637	1624.320	1199.593
3.600	10.094	1569.305	1154.978
4.615	5.810	1463.377	1048.336
5.629	1.452	1407.354	980.052
6.644	0.727	1401.002	970.885
7.659	0.699	1399.723	969.732
8.673	0.668	1399.585	969.356
9.688	0.557	1396.938	966.723
10.702	0.460	1393.398	963.570
11.717	2.740	1395.307	979.375
12.731	8.812	1404.228	1024.472
13.746	14.791	1413.942	1069.855
14.761	16.956	1416.920	1085.894
15.775	16.703	1414.694	1082.472
16.790	15.636	1412.392	1073.802
17.804	14.895	1409.983	1067.144
18.819	14.460	1408.938	1063.486
19.834	14.267	1407.729	1061.251
20.848	13.963	1406.667	1058.418
21.863	13.809	1404.919	1056.028
22.877	13.557	1403.750	1053.455
23.892	13.607	1402.398	1052.662
24.907	13.489	1402.191	1051.667
25.921	13.530	1400.858	1050.833
26.936	13.561	1400.336	1050.547
27.950	13.532	1399.390	1049.560
28.965	13.678	1398.536	1049.751
29.980	13.731	1396.908	1048.774
30.994	13.681	1395.880	1047.590
32.009	13.696	1395.461	1047.282
33.023	13.688	1394.165	1046.165
34.038	13.830	1392.264	1045.541
35.053	13.751	1391.267	1044.202
36.067	13.728	1390.218	1043.173
37.082	13.691	1389.773	1042.517
38.096	13.720	1388.927	1041.972
39.111	13.646	1388.020	1040.736
40.126	13.710	1387.011	1040.287
41.140	13.627	1386.098	1038.990
42.155	13.586	1385.713	1038.354
43.169	13.628	1385.837	1038.618
44.184	13.585	1385.078	1037.686
45.199	13.497	1385.175	1037.115
46.213	13.656	1384.156	1037.260
47.228	13.689	1383.118	1036.592
48.242	13.611	1381.731	1034.973
49.257	13.671	1380.521	1034.351
50.271	13.687	1378.960	1033.190
51.286	13.601	1377.788	1031.684
52.301	13.625	1376.305	1030.633
53.315	13.537	1375.819	1029.632
54.330	13.778	1373.978	1029.658
55.344	13.644	1372.597	1027.704
56.359	13.622	1371.805	1026.884
57.374	13.615	1371.004	1026.151
58.388	13.488	1370.729	1025.064
59.403	13.589	1369.555	1024.721
60.417	13.579	1369.266	1024.351
61.432	13.539	1368.116	1023.155
62.447	13.521	1367.014	1022.127
63.461	13.526	1365.778	1021.147
64.476	13.496	1364.820	1020.156
65.490	13.427	1363.863	1018.924
66.505	13.619	1361.463	1018.221
67.520	13.542	1360.594	1017.004
68.534	13.574	1359.213	1016.079
69.549	13.550	1358.758	1015.504
70.563	13.487	1357.670	1014.213
71.578	13.624	1355.734	1013.518
72.593	13.509	1355.037	1012.202
73.607	13.484	1354.658	1011.678
74.622	13.515	1353.856	1011.177
75.636	13.474	1353.173	1010.330
76.651	13.444	1352.507	1009.561
77.666	13.477	1351.818	1009.156
78.680	13.405	1351.434	1008.342
79.695	13.491	1350.806	1008.306
80.709	13.433	1350.347	1007.521
81.724	13.558	1348.942	1007.143
82.739	13.560	1347.910	1006.296
83.753	13.554	1346.957	1005.463
84.768	13.717	1345.236	1005.078
85.782	13.774	1344.373	1004.685
86.797	13.742	1342.928	1003.324
87.812	13.559	1342.137	1001.537
88.826	13.681	1340.488	1000.957
89.841	13.700	1339.473	1000.223
90.855	13.626	1339.117	999.426
91.870	13.696	1337.720	998.712
92.884	13.740	1337.321	998.590
93.899	13.761	1335.767	997.469
94.914	13.766	1335.669	997.340
95.928	13.868	1334.326	996.863
96.943	13.821	1333.479	995.859
97.957	13.672	1333.022	994.536
98.972	13.791	1331.607	994.104
99.987	13.718	1330.460	992.725
101.001	13.745	1329.331	991.956
102.016	13.644	1328.835	990.890
103.030	13.829	1327.424	990.856
104.045	13.755	1326.685	989.776
105.060	13.709	1325.700	988.677
106.074	13.694	1324.319	987.473
107.089	13.606	1323.080	985.940
108.103	13.520	1321.902	984.463
109.118	13.542	1320.323	983.328
110.133	13.620	1318.968	982.693
111.147	13.651	1317.152	981.437
112.162	13.690	1315.908	980.654
113.176	13.784	1315.141	980.554
114.191	13.720	1314.214	979.394
115.206	13.691	1313.139	978.338
116.220	13.685	1311.636	977.096
117.235	13.637	1310.829	976.126
118.249	13.636	1309.558	975.091
119.264	13.624	1308.598	974.214
120.279	13.556	1307.978	973.271
121.293	13.669	1306.385	972.660
122.308	13.681	1305.206	971.764
123.322	13.641	1304.320	970.788
124.337	13.637	1303.326	969.936
125.352	13.580	1302.206	968.687
126.366	13.624	1300.675	967.720
127.381	13.647	1299.932	967.213
128.395	13.589	1298.809	965.957
129.410	13.694	1297.445	965.464
130.424	13.611	1296.605	964.275
131.439	13.683	1295.920	964.097
132.454	13.788	1294.403	963.491
133.468	13.688	1293.827	962.395
134.483	13.581	1293.444	961.404
135.497	13.689	1292.184	961.012
136.512	13.623	1290.646	959.400
137.527	13.722	1289.043	958.695
138.541	13.640	1287.774	957.194
139.556	13.705	1286.417	956.477
140.570	13.713	1285.597	955.826
141.585	13.768	1284.345	955.127
142.600	13.905	1283.060	954.876
143.614	13.811	1282.261	953.658
144.629	13.800	1281.302	952.796
145.643	13.872	1280.130	952.253
146.658	13.777	1279.167	950.911
147.673	13.811	1277.449	949.740
148.687	13.800	1276.409	948.823
149.702	13.791	1275.037	947.667
150.716	13.739	1274.037	946.541
151.731	13.797	1273.063	946.066
152.746	13.766	1271.819	944.881
153.760	13.828	1270.537	944.201
154.775	13.915	1269.482	943.827
155.789	13.924	1267.967	942.669
156.804	13.902	1267.032	941.765
157.819	13.970	1265.889	941.213
158.833	13.970	1265.266	940.671
159.848	13.990	1264.046	939.794
160.862	13.994	1263.273	939.158
161.877	14.032	1261.821	938.208
162.892	13.916	1260.692	936.632
163.906	13.957	1259.895	936.188
164.921	13.965	1258.835	935.365
165.935	13.979	1258.345	934.992
166.950	14.019	1257.269	934.336
167.964	13.952	1256.756	933.497
168.979	14.097	1255.486	933.283
169.994	14.127	1254.707	932.792
171.008	13.976	1254.684	931.844
172.023	14.092	1253.220	931.326
173.037	14.075	1252.642	930.720
174.052	14.222	1251.890	930.899
175.067	14.195	1250.377	929.538
176.081	14.039	1249.805	928.163
177.096	14.030	1248.752	927.249
178.110	14.146	1247.447	926.843
179.125	14.075	1246.700	925.812
180.140	14.214	1244.849	925.129
181.154	14.101	1243.748	923.597
182.169	14.131	1243.027	923.150
183.183	14.204	1241.234	922.141
184.198	14.237	1240.089	921.391
185.213	14.200	1239.172	920.424
186.227	14.252	1237.850	919.645
187.242	14.274	1237.309	919.287
188.256	14.385	1235.973	918.823
189.271	14.360	1234.955	917.846
190.286	14.360	1233.754	916.872
191.300	14.159	1233.094	915.198
192.315	14.121	1232.599	914.539
193.329	14.114	1232.242	914.155
194.344	14.151	1231.394	913.649
195.359	14.337	1230.754	914.113
196.373	14.252	1230.551	913.416
197.388	14.266	1230.302	913.227
198.402	14.399	1229.336	913.155
199.417	14.450	1228.355	912.628
200.432	14.553	1227.630	912.571
201.446	14.568	1226.861	911.999
202.461	14.541	1225.819	910.999
203.475	14.555	1224.994	910.379
204.490	14.581	1223.380	909.245
205.504	14.568	1222.070	908.120
206.519	14.580	1221.090	907.374
207.534	14.476	1219.930	905.868
208.548	14.485	1218.853	905.036
209.563	14.451	1218.540	904.541
210.577	14.549	1217.506	904.224
211.592	14.598	1216.296	903.512
212.607	14.731	1215.262	903.382
213.621	14.674	1214.387	902.340
214.636	14.713	1213.602	901.893
215.650	14.654	1212.785	900.887
216.665	14.749	1211.624	900.457
217.680	14.783	1210.855	899.985
218.694	14.779	1209.644	898.987
219.709	14.794	1209.017	898.522
220.723	14.836	1208.505	898.289
221.738	14.724	1207.755	897.049
222.753	14.709	1207.058	896.371
223.767	14.826	1205.938	896.084
224.782	14.879	1205.082	895.657
225.796	14.833	1204.981	895.255
226.811	14.836	1204.001	894.462
227.826	14.905	1203.303	894.233
228.840	14.899	1202.379	893.436
229.855	14.933	1201.906	893.188
230.869	14.915	1200.886	892.252
231.884	14.915	1200.127	891.614
232.899	14.817	1199.463	890.515
233.913	14.842	1199.159	890.343
234.928	14.799	1198.210	889.333
235.942	14.932	1197.223	889.232
236.957	14.777	1196.951	888.125
237.972	14.828	1195.755	887.431
238.986	14.930	1195.233	887.505
240.001	14.937	1194.084	886.610
241.015	14.915	1193.230	885.783
242.030	14.952	1192.528	885.376
243.045	14.954	1191.678	884.682
244.059	15.132	1190.576	884.723
245.074	15.009	1189.831	883.444
246.088	14.980	1189.612	883.048
247.103	15.128	1188.373	882.829
248.117	15.164	1187.531	882.316
249.132	15.130	1187.022	881.679
250.147	15.214	1185.868	881.189
251.161	15.255	1185.365	880.950
252.176	15.205	1184.606	880.045
253.190	15.340	1184.289	880.442
254.205	15.443	1183.066	879.993
255.220	15.389	1182.663	879.337
256.234	15.357	1182.347	878.856
257.249	15.324	1181.432	877.922
258.263	15.353	1180.906	877.605
259.278	15.418	1180.281	877.403
260.293	15.317	1179.796	876.440
261.307	15.421	1179.328	876.556
262.322	15.483	1178.436	876.138
263.336	15.541	1177.298	875.516
264.351	15.515	1176.826	874.953
265.366	15.472	1176.523	874.426
266.380	15.506	1175.810	873.998
267.395	15.581	1174.428	873.285
268.409	15.482	1173.656	872.117
269.424	15.480	1173.906	872.215
270.439	15.514	1172.965	871.616
271.453	15.520	1171.927	870.796
272.468	15.529	1170.754	869.897
273.482	15.543	1170.583	869.767
274.497	15.501	1170.003	869.039
275.512	15.464	1169.320	868.262
276.526	15.645	1168.321	868.380
277.541	15.509	1167.806	867.219
278.555	15.618	1167.329	867.351
279.570	15.615	1166.588	866.705
280.585	15.623	1165.548	865.896
281.599	15.751	1164.026	865.348
282.614	15.774	1163.142	864.735
283.628	15.799	1161.861	863.833
284.643	15.834	1161.020	863.310
285.657	15.722	1160.535	862.303
286.672	15.715	1159.674	861.547
287.687	15.761	1158.410	860.768
288.701	15.784	1157.784	860.343
289.716	15.833	1156.782	859.775
290.730	15.909	1155.920	859.448
291.745	15.837	1155.734	858.866
292.760	15.875	1155.057	858.477
293.774	15.843	1154.515	857.838
294.789	15.992	1153.499	857.767
295.803	16.119	1152.638	857.695
296.818	15.907	1152.395	856.362
297.833	15.856	1151.604	855.436
298.847	15.820	1150.987	854.721
299.862	15.904	1150.122	854.431
300.876	16.111	1149.003	854.571
301.891	16.122	1148.272	854.005
302.906	15.999	1147.799	852.955
303.920	16.039	1147.342	852.745
304.935	16.114	1146.825	852.665
305.949	16.268	1145.652	852.495
306.964	16.205	1144.920	851.556
307.979	16.131	1144.063	850.471
308.993	16.167	1143.629	850.254
310.008	16.099	1143.152	849.483
311.022	16.246	1141.667	849.045
312.037	16.216	1141.200	848.469
313.052	16.218	1140.014	847.523
314.066	16.141	1139.207	846.461
315.081	16.105	1138.491	845.674
316.095	16.100	1137.601	844.910
317.110	16.292	1136.683	845.117
318.125	16.277	1135.747	844.269
319.139	16.185	1135.128	843.279
320.154	16.204	1134.704	842.983
321.168	16.208	1134.414	842.714
322.183	16.312	1133.722	842.645
323.197	16.268	1132.986	841.804
324.212	16.310	1132.548	841.612
325.227	16.187	1132.149	840.627
326.241	16.285	1131.222	840.355
327.256	16.272	1130.361	839.573
328.270	16.289	1129.371	838.850
329.285	16.245	1128.680	838.041
330.300	16.355	1127.236	837.441
331.314	16.353	1126.282	836.647
332.329	16.312	1125.458	835.761
333.343	16.381	1124.782	835.527
334.358	16.471	1123.960	835.283
335.373	16.562	1122.845	834.834
336.387	16.615	1122.167	834.515
337.402	16.424	1121.676	833.134
338.416	16.517	1121.172	833.147
339.431	16.539	1120.495	832.679
340.446	16.745	1119.562	832.921
341.460	16.684	1119.007	832.139
342.475	16.660	1117.861	831.092
343.489	16.612	1116.939	830.099
344.504	16.570	1116.043	829.153
345.519	16.713	1115.230	829.178
346.533	16.725	1114.536	828.647
347.548	16.809	1113.740	828.389
348.562	16.659	1112.942	826.991
349.577	16.726	1112.362	826.816
350.592	16.650	1111.526	825.747
351.606	16.688	1110.878	825.379
352.621	16.734	1109.677	824.640
353.635	16.658	1109.661	824.182
354.650	16.845	1108.743	824.338
355.665	16.842	1107.900	823.626
356.679	16.760	1107.302	822.711
357.694	16.737	1107.079	822.357
358.708	16.779	1106.079	821.744
359.723	16.861	1105.263	821.463
360.738	16.862	1105.047	821.237
361.752	16.914	1104.263	820.831
362.767	16.761	1103.787	819.667
363.781	17.009	1102.880	820.119
364.796	16.965	1102.547	819.585
365.810	17.069	1101.928	819.555
366.825	17.112	1101.468	819.347
367.840	16.982	1100.963	818.273
368.854	17.143	1100.150	818.371
369.869	17.017	1099.364	817.110
370.883	17.126	1098.127	816.643
371.898	17.073	1097.550	815.887
372.913	17.006	1097.124	815.176
373.927	17.224	1096.390	815.602
374.942	17.120	1095.889	814.659
375.956	17.122	1095.554	814.350
376.971	17.161	1094.670	813.806
377.986	17.235	1094.277	813.796
379.000	17.217	1093.505	813.064
380.015	17.279	1092.898	812.839
381.029	17.237	1092.582	812.328
382.044	17.331	1091.424	811.843
383.059	17.345	1090.929	811.473
384.073	17.296	1090.161	810.594
385.088	17.333	1088.986	809.825
386.102	17.464	1088.329	809.890
387.117	17.293	1087.518	808.402
388.132	17.272	1086.926	807.790
389.146	17.302	1085.820	807.038
390.161	17.301	1085.145	806.462
391.175	17.306	1084.245	805.745
392.190	17.430	1083.527	805.725
393.205	17.495	1082.609	805.280
394.219	17.572	1081.810	804.979
395.234	17.436	1081.204	803.815
396.248	17.479	1080.254	803.241
397.263	17.521	1079.123	802.526
398.278	17.472	1078.712	801.916
399.292	17.446	1077.791	801.040
400.307	17.544	1076.891	800.763
401.321	17.543	1076.134	800.122
402.336	17.555	1075.532	799.662
403.350	17.597	1074.669	799.145
404.365	17.549	1074.246	798.535
405.380	17.536	1073.670	797.973
406.394	17.458	1073.195	797.185
407.409	17.565	1072.168	796.854
408.423	17.582	1071.605	796.445
409.438	17.681	1070.739	796.191
410.453	17.778	1069.570	795.704
411.467	17.695	1068.959	794.792
412.482	17.762	1068.622	794.785
413.496	17.796	1067.441	793.994
414.511	17.788	1067.422	793.873
415.526	17.790	1066.737	793.301
416.540	17.912	1066.040	793.281
417.555	17.918	1065.708	792.991
418.569	17.712	1065.456	791.777
419.584	17.875	1064.935	792.076
420.599	17.730	1064.760	791.204
421.613	109.720	1333.012	1492.233
422.628	101.420	1372.027	1492.298
