DTS Sentinel unit serial number:	SN413079Multiplexer serial number:	ORYXHardware model number:	OX4-SRSoftware version number:	ORYX F/W v4.00 Oryx Data Collector v3.7.2.0data status	okinstallation	princeton_trtdifferential loss correction	single-endedforward channel	channel 2reverse channel	N/Adate	2019/09/18time	17:35:35forward acquisition time	60.00reverse acquisition time	0.00gamma	496.2192k internal	0.2298k external	0.2298temperature offset calibration	1.0017default loss term (dB/km)	0.3790temperature slope calibration	1.0000multiplexer offset coefficient	1.0000multiplexer slope coefficient	1.0000fibre end	0.00T internal ref (°C)	40.25T ext. ref 1 (°C)	0.91T ext. ref 2 (°C)	35.65length (m)	temperature (°C)	Stokes	anti-Stokes-747.200	-4.902	0.141	-0.100
-746.185	-169.079	0.324	0.012
-745.171	-200.000	0.112	0.539
-744.156	-132.210	-0.210	-0.028
-743.142	-121.000	-0.133	0.023
-742.127	-200.000	-0.034	0.218
-741.112	-87.264	-0.121	0.037
-740.098	-200.000	0.032	-0.302
-739.083	-200.000	-0.008	0.233
-738.069	127.558	-0.286	0.370
-737.054	800.000	0.033	0.132
-736.039	525.125	-0.118	0.284
-735.025	-116.184	0.211	-0.040
-734.010	432.835	-0.140	-0.310
-732.996	-200.000	-0.063	-0.609
-731.981	-200.000	-0.042	-0.232
-730.966	-108.780	-0.146	-0.032
-729.952	-200.000	0.042	-0.209
-728.937	-69.825	0.125	-0.049
-727.923	-200.000	-0.046	-0.290
-726.908	-200.000	0.060	0.351
-725.894	-39.212	-0.383	0.205
-724.879	-4.509	-0.216	-0.152
-723.864	717.984	-0.038	-0.103
-722.850	-50.351	-0.202	0.097
-721.835	-79.484	-0.345	0.119
-720.821	443.953	-0.012	0.027
-719.806	-200.000	-0.002	0.054
-718.791	77.076	0.166	0.179
-717.777	-42.295	0.255	-0.133
-716.762	486.542	-0.096	0.223
-715.748	-65.073	-0.120	0.050
-714.733	51.087	0.080	0.077
-713.718	-91.986	0.357	-0.103
-712.704	249.402	0.195	0.337
-711.689	281.327	-0.105	0.191
-710.675	10.546	0.364	0.283
-709.660	800.000	0.064	-0.256
-708.645	-196.058	-0.310	-0.002
-707.631	109.356	0.114	0.139
-706.616	-92.757	0.070	0.020
-705.602	-85.439	-0.127	0.040
-704.587	-74.935	0.129	0.047
-703.572	-12.490	0.249	-0.166
-702.558	651.111	0.049	0.128
-701.543	31.777	0.243	-0.214
-700.529	7.525	0.231	-0.176
-699.514	315.087	-0.094	-0.180
-698.499	-17.062	-0.243	-0.156
-697.485	-106.906	-0.190	0.043
-696.470	-51.163	0.075	0.036
-695.456	800.000	-0.043	-0.175
-694.441	-132.744	-0.272	-0.035
-693.426	67.175	-0.163	0.169
-692.412	69.937	-0.130	0.137
-691.397	-55.279	-0.250	0.114
-690.383	63.753	0.053	0.054
-689.368	13.695	0.113	-0.089
-688.354	-46.970	-0.250	0.125
-687.339	269.414	0.158	0.282
-686.324	287.020	-0.116	-0.213
-685.310	65.267	-0.072	-0.074
-684.295	-42.756	0.238	0.123
-683.281	-37.561	0.347	-0.189
-682.266	69.821	0.190	-0.200
-681.251	-71.220	0.102	0.039
-680.237	369.087	0.094	-0.195
-679.222	480.286	0.011	-0.024
-678.208	-112.949	-0.216	0.043
-677.193	211.655	-0.103	0.165
-676.178	-136.079	0.197	-0.024
-675.164	800.000	0.115	0.445
-674.149	487.306	0.156	0.363
-673.135	-200.000	-0.004	0.098
-672.120	800.000	-0.067	-0.196
-671.105	404.879	-0.055	0.118
-670.091	-97.811	0.453	-0.119
-669.076	-21.481	0.096	-0.060
-668.062	-21.057	-0.100	0.062
-667.047	-40.951	-0.171	0.090
-666.032	-65.417	-0.193	-0.079
-665.018	-135.433	0.211	-0.026
-664.003	417.705	-0.074	-0.160
-662.989	550.730	-0.060	-0.148
-661.974	-200.000	0.055	0.552
-660.959	190.695	-0.154	0.235
-659.945	-200.000	0.014	-0.132
-658.930	580.246	-0.105	-0.263
-657.916	-144.835	0.170	0.016
-656.901	-200.000	0.051	0.246
-655.886	800.000	-0.067	-0.199
-654.872	800.000	0.053	0.180
-653.857	-193.315	-0.116	-0.001
-652.843	-200.000	-0.003	0.304
-651.828	-200.000	-0.044	0.341
-650.814	69.870	0.174	-0.183
-649.799	-41.790	-0.251	0.131
-648.784	-200.000	0.042	0.562
-647.770	-49.466	-0.225	0.109
-646.755	31.911	0.034	-0.030
-645.741	-200.000	-0.018	-0.080
-644.726	-200.000	0.069	-0.400
-643.711	494.824	0.173	-0.405
-642.697	10.956	-0.213	0.166
-641.682	-200.000	-0.038	0.220
-640.668	604.910	0.056	-0.141
-639.653	-23.402	-0.110	0.067
-638.638	546.227	0.069	0.168
-637.624	281.770	0.134	0.244
-636.609	-200.000	0.009	-0.246
-635.595	89.176	-0.050	0.057
-634.580	800.000	0.065	-0.225
-633.565	270.087	-0.098	0.174
-632.551	566.406	0.018	0.045
-631.536	262.710	-0.061	-0.107
-630.522	-33.387	-0.569	0.320
-629.507	136.889	0.303	0.403
-628.492	151.254	0.100	0.139
-627.478	105.731	-0.176	0.211
-626.463	8.110	0.188	-0.143
-625.449	113.025	-0.294	0.362
-624.434	-137.159	0.173	-0.020
-623.419	-200.000	-0.016	-0.221
-622.405	-200.000	-0.029	-0.136
-621.390	-8.781	0.197	-0.134
-620.376	-200.000	-0.017	-0.296
-619.361	465.791	-0.054	-0.124
-618.346	23.089	-0.309	0.258
-617.332	103.421	-0.127	-0.152
-616.317	8.397	-0.159	-0.122
-615.303	145.267	-0.081	-0.110
-614.288	-200.000	-0.036	0.215
-613.273	186.170	0.136	-0.205
-612.259	158.632	0.184	-0.260
-611.244	4.876	-0.057	-0.043
-610.230	-57.364	0.082	-0.037
-609.215	-200.000	0.026	-0.118
-608.201	-200.000	-0.005	0.024
-607.186	-97.214	-0.294	-0.078
-606.171	-150.294	0.509	0.040
-605.157	-107.590	0.103	-0.023
-604.142	270.307	-0.150	0.268
-603.128	7.103	-0.094	0.071
-602.113	-100.037	-0.148	0.038
-601.098	-15.008	0.254	0.165
-600.084	115.093	-0.235	0.292
-599.069	-74.962	-0.118	-0.043
-598.055	-35.872	0.124	0.068
-597.040	-167.705	-0.066	0.003
-596.025	-96.680	-0.419	-0.112
-595.011	-200.000	-0.017	-0.158
-593.996	-137.322	0.111	0.013
-592.982	786.143	-0.143	0.398
-591.967	614.170	-0.102	0.258
-590.952	800.000	0.079	0.251
-589.938	103.267	0.022	-0.027
-588.923	16.347	-0.169	-0.135
-587.909	-59.270	0.485	-0.212
-586.894	221.645	-0.127	-0.207
-585.879	-50.038	-0.246	0.118
-584.865	-12.582	0.195	-0.129
-583.850	174.383	-0.050	-0.074
-582.836	258.429	-0.062	-0.108
-581.821	-174.556	-0.133	-0.004
-580.806	800.000	-0.054	-0.164
-579.792	-137.955	0.123	0.014
-578.777	359.978	-0.072	-0.147
-577.763	-200.000	0.030	0.305
-576.748	14.988	-0.198	0.157
-575.733	101.801	-0.294	0.348
-574.719	-200.000	-0.003	-0.444
-573.704	135.826	0.282	-0.373
-572.690	130.615	-0.260	-0.338
-571.675	-200.000	-0.001	-0.084
-570.661	-90.700	0.071	0.021
-569.646	-200.000	-0.014	-0.091
-568.631	-108.739	-0.355	0.077
-567.617	38.545	-0.146	-0.132
-566.602	800.000	-0.091	0.289
-565.588	251.148	-0.132	-0.228
-564.573	800.000	0.043	0.132
-563.558	-38.307	-0.214	-0.115
-562.544	86.440	0.094	0.105
-561.529	-122.603	-0.139	-0.023
-560.515	-163.110	-0.255	-0.012
-559.500	133.590	0.173	-0.227
-558.485	-91.357	0.056	0.016
-557.471	476.799	-0.055	-0.126
-556.456	148.407	-0.031	-0.042
-555.442	2.935	-0.386	-0.284
-554.427	112.302	-0.201	-0.247
-553.412	-91.469	0.177	-0.051
-552.398	2.236	-0.230	-0.169
-551.383	27.293	-0.190	-0.162
-550.369	39.465	0.128	0.116
-549.354	-200.000	0.067	0.415
-548.339	-9.372	-0.107	-0.073
-547.325	800.000	0.026	0.090
-546.310	12.280	0.219	-0.171
-545.296	55.703	-0.181	0.178
-544.281	-200.000	-0.025	-0.167
-543.266	437.478	-0.105	-0.232
-542.252	72.516	0.442	-0.467
-541.237	324.697	0.105	-0.203
-540.223	160.529	-0.251	-0.355
-539.208	-200.000	0.002	0.055
-538.193	-98.435	0.166	-0.043
-537.179	601.906	0.061	-0.155
-536.164	-152.852	-0.294	0.021
-535.150	-200.000	0.017	0.284
-534.135	-26.763	0.128	0.076
-533.121	20.844	-0.195	-0.160
-532.106	6.331	-0.155	-0.116
-531.091	210.723	0.102	0.162
-530.077	800.000	-0.073	-0.266
-529.062	-200.000	0.024	-0.284
-528.048	-81.491	-0.233	-0.078
-527.033	-16.483	-0.231	-0.148
-526.018	8.447	-0.330	-0.251
-525.004	9.859	0.122	-0.094
-523.989	-166.227	0.236	0.010
-522.975	68.999	-0.072	0.075
-521.960	-200.000	-0.039	0.251
-520.945	244.537	0.207	0.352
-519.931	-86.927	-0.205	0.063
-518.916	62.846	-0.053	0.054
-517.902	800.000	0.043	-0.169
-516.887	14.600	0.055	0.043
-515.872	-200.000	0.035	-0.309
-514.858	-200.000	-0.003	-0.314
-513.843	-78.031	0.206	0.072
-512.829	12.351	0.156	0.122
-511.814	800.000	0.090	0.357
-510.799	-130.780	-0.254	0.035
-509.785	213.109	0.106	-0.169
-508.770	-47.133	0.149	0.074
-507.756	-4.865	0.168	-0.117
-506.741	-77.944	-0.078	-0.027
-505.726	-200.000	-0.064	-0.336
-504.712	-200.000	-0.042	0.248
-503.697	111.435	0.141	0.173
-502.683	-82.171	0.182	0.060
-501.668	-161.141	-0.166	0.009
-500.653	219.187	-0.167	-0.271
-499.639	-104.288	-0.157	-0.037
-498.624	-200.000	0.025	0.205
-497.610	-60.792	0.019	-0.008
-496.595	-200.000	0.004	-0.038
-495.581	-10.614	-0.111	0.074
-494.566	41.892	0.172	0.158
-493.551	92.939	0.147	0.167
-492.537	-45.605	-0.113	-0.056
-491.522	81.824	0.322	0.353
-490.508	-10.510	0.072	-0.048
-489.493	192.610	-0.035	-0.053
-488.478	-70.381	-0.152	-0.058
-487.464	564.469	-0.039	0.097
-486.449	-200.000	-0.037	0.180
-485.435	101.375	-0.182	0.214
-484.420	-200.000	0.001	-0.019
-483.405	-200.000	0.004	-0.241
-482.391	-54.123	-0.235	-0.108
-481.376	12.362	0.031	-0.024
-480.362	51.985	-0.124	0.119
-479.347	-52.301	-0.423	0.198
-478.332	163.674	-0.187	0.265
-477.318	37.288	0.192	0.172
-476.303	-13.723	0.110	-0.072
-475.289	-37.283	-0.174	-0.094
-474.274	32.703	-0.074	-0.064
-473.259	-200.000	0.025	0.222
-472.245	166.775	0.188	-0.270
-471.230	-53.593	-0.160	-0.074
-470.216	-200.000	-0.023	-0.548
-469.201	-186.581	0.062	-0.001
-468.186	-103.268	-0.159	-0.038
-467.172	-200.000	-0.015	-0.347
-466.157	34.598	0.139	0.123
-465.143	-39.945	-0.211	0.111
-464.128	-76.275	-0.221	0.079
-463.113	328.606	-0.124	0.240
-462.099	0.990	-0.078	-0.056
-461.084	-119.171	-0.289	-0.051
-460.070	-200.000	-0.015	-0.145
-459.055	298.370	0.024	-0.045
-458.040	196.365	-0.170	0.261
-457.026	-82.182	0.308	-0.101
-456.011	186.064	0.240	0.360
-454.997	-163.935	-0.192	-0.009
-453.982	174.786	0.176	0.257
-452.968	29.205	-0.027	0.023
-451.953	51.350	0.137	0.131
-450.938	20.942	-0.041	0.034
-449.924	375.424	0.150	-0.309
-448.909	-80.723	-0.158	0.053
-447.895	-78.881	0.150	-0.051
-446.880	-200.000	-0.038	0.270
-445.865	272.329	-0.133	0.237
-444.851	-69.718	0.232	0.089
-443.836	254.276	-0.223	-0.385
-442.822	-115.357	0.074	-0.014
-441.807	-200.000	0.002	-0.075
-440.792	-121.043	0.361	0.061
-439.778	204.033	0.140	0.218
-438.763	125.780	-0.109	-0.138
-437.749	-6.008	0.094	0.065
-436.734	-200.000	0.039	0.283
-435.719	-200.000	-0.013	-0.073
-434.705	-79.818	-0.104	-0.035
-433.690	9.453	0.087	0.067
-432.676	-84.561	-0.336	-0.107
-431.661	-33.746	0.384	0.214
-430.646	-98.598	0.107	0.027
-429.632	189.092	0.143	-0.215
-428.617	145.211	-0.074	-0.100
-427.603	116.178	0.145	0.179
-426.588	-200.000	-0.010	-0.115
-425.573	-200.000	0.014	0.067
-424.559	-66.511	-0.216	-0.087
-423.544	-87.845	0.108	-0.033
-422.530	-200.000	-0.035	-0.315
-421.515	-57.289	-0.188	0.083
-420.500	598.000	0.039	0.096
-419.486	800.000	-0.048	0.173
-418.471	100.209	0.278	-0.325
-417.457	95.889	0.340	0.392
-416.442	505.495	-0.164	-0.382
-415.428	149.550	-0.096	-0.131
-414.413	-106.220	0.123	0.028
-413.398	800.000	-0.045	0.189
-412.384	107.335	-0.117	-0.140
-411.369	-96.073	-0.360	-0.096
-410.355	-140.882	-0.180	-0.019
-409.340	456.485	-0.128	-0.286
-408.325	-200.000	-0.019	-0.135
-407.311	-161.096	-0.363	0.019
-406.296	-9.766	0.029	-0.019
-405.282	-72.698	-0.407	0.151
-404.267	-103.952	0.495	0.116
-403.252	230.779	-0.071	-0.117
-402.238	8.815	-0.025	0.019
-401.223	216.334	-0.117	0.188
-400.209	-200.000	0.322	-0.000
-399.194	800.000	0.008	-0.030
-398.179	-7.042	-0.239	0.164
-397.165	263.424	-0.039	0.069
-396.150	-150.512	0.213	0.016
-395.136	800.000	-0.080	-0.248
-394.121	-102.767	0.225	-0.054
-393.106	-200.000	0.039	-0.346
-392.092	-6.908	0.168	0.115
-391.077	86.330	0.146	0.162
-390.063	-51.514	0.250	-0.118
-389.048	-185.693	-0.029	-0.000
-388.033	-45.848	0.225	-0.112
-387.019	21.377	0.080	0.066
-386.004	-159.849	-0.333	-0.018
-384.990	-81.589	-0.087	-0.029
-383.975	129.944	0.052	-0.067
-382.960	-22.914	0.170	-0.103
-381.946	-49.626	-0.156	-0.075
-380.931	-150.972	0.148	0.011
-379.917	49.036	0.108	-0.102
-378.902	-51.009	-0.127	-0.060
-377.888	-137.838	0.129	-0.015
-376.873	421.464	0.024	0.051
-375.858	280.047	-0.076	0.137
-374.844	174.473	0.151	-0.219
-373.829	-51.856	-0.458	-0.215
-372.815	520.644	-0.014	0.032
-371.800	3.765	-0.163	0.120
-370.785	-110.019	0.104	-0.022
-369.771	-21.029	-0.229	0.141
-368.756	105.607	0.062	0.074
-367.742	235.672	-0.081	-0.134
-366.727	9.845	-0.216	-0.165
-365.712	4.334	-0.200	0.148
-364.698	186.321	-0.036	-0.054
-363.683	-102.801	0.110	0.026
-362.669	3.296	0.152	0.111
-361.654	501.139	0.126	0.293
-360.639	67.404	-0.194	0.199
-359.625	-134.731	-0.141	0.017
-358.610	82.413	-0.205	0.224
-357.596	152.919	0.081	0.112
-356.581	-60.845	-0.137	-0.058
-355.566	28.655	0.158	-0.135
-354.552	-98.076	0.099	0.026
-353.537	542.259	0.090	-0.215
-352.523	-30.737	-0.201	-0.114
-351.508	355.774	0.066	-0.132
-350.493	-200.000	0.033	-0.181
-349.479	17.453	0.126	-0.101
-348.464	28.108	0.195	0.165
-347.450	592.318	-0.035	0.086
-346.435	199.530	-0.285	0.440
-345.420	-200.000	-0.001	0.130
-344.406	800.000	0.091	-0.307
-343.391	-31.404	-0.162	-0.092
-342.377	45.577	0.055	0.051
-341.362	-41.243	-0.195	0.101
-340.348	58.051	-0.174	0.171
-339.333	-49.110	-0.311	0.150
-338.318	800.000	-0.033	0.130
-337.304	36.977	-0.131	0.116
-336.289	-88.923	0.350	0.104
-335.275	-18.659	0.055	-0.034
-334.260	-55.876	0.316	0.142
-333.245	85.550	0.278	0.307
-332.231	-13.920	0.342	0.222
-331.216	-86.198	0.043	0.013
-330.202	-47.781	0.070	-0.034
-329.187	347.029	0.042	0.083
-328.172	-200.000	-0.002	0.300
-327.158	-93.198	-0.138	0.039
-326.143	-36.369	-0.030	0.016
-325.129	-200.000	-0.066	-0.383
-324.114	-11.664	0.450	0.297
-323.099	286.181	-0.148	0.268
-322.085	117.795	0.105	0.130
-321.070	382.980	0.103	-0.214
-320.056	-0.027	0.098	0.070
-319.041	-153.200	0.296	0.021
-318.026	-102.450	0.114	0.027
-317.012	665.222	-0.140	0.362
-315.997	-135.230	-0.434	-0.052
-314.983	164.961	0.186	-0.264
-313.968	685.714	0.180	-0.472
-312.953	52.114	0.139	-0.133
-311.939	123.480	0.216	0.272
-310.924	-200.000	-0.014	-0.192
-309.910	-24.149	0.232	0.139
-308.895	151.766	0.264	0.361
-307.880	44.607	0.137	0.126
-306.866	92.059	0.241	-0.272
-305.851	377.196	0.080	-0.164
-304.837	-200.000	0.091	0.472
-303.822	172.323	-0.043	-0.062
-302.807	603.598	0.074	0.184
-301.793	-200.000	-0.006	0.238
-300.778	-42.026	-0.330	-0.170
-299.764	-200.000	0.005	-0.147
-298.749	52.139	-0.038	0.036
-297.735	229.064	-0.184	-0.302
-296.720	-125.395	0.318	-0.049
-295.705	415.274	-0.107	-0.228
-294.691	-82.394	-0.157	-0.051
-293.676	645.932	-0.090	-0.230
-292.662	1.590	-0.283	0.204
-291.647	283.203	0.022	0.039
-290.632	318.969	0.095	0.180
-289.618	-160.840	0.224	-0.012
-288.603	560.306	-0.051	0.124
-287.589	11.466	0.335	-0.258
-286.574	-144.324	0.243	0.023
-285.559	23.194	0.472	0.389
-284.545	800.000	-0.061	-0.241
-283.530	-65.350	-0.281	0.113
-282.516	-101.687	0.085	0.021
-281.501	-200.000	0.012	-0.208
-280.486	453.193	0.110	-0.243
-279.472	307.079	0.035	-0.065
-278.457	-200.000	0.019	0.133
-277.443	-138.158	0.333	0.037
-276.428	381.852	0.160	-0.329
-275.413	-60.512	0.092	-0.039
-274.399	-200.000	0.009	-0.065
-273.384	-98.760	-0.219	-0.056
-272.370	83.691	0.055	-0.060
-271.355	33.648	0.379	-0.331
-270.340	9.432	0.139	-0.106
-269.326	-92.751	-0.322	0.090
-268.311	800.000	0.071	0.289
-267.297	208.742	-0.046	-0.073
-266.282	218.300	0.056	-0.090
-265.267	-59.130	0.102	-0.044
-264.253	219.584	-0.118	0.189
-263.238	-69.142	-0.162	0.063
-262.224	-200.000	-0.068	0.336
-261.209	-159.930	0.108	0.006
-260.195	-101.861	0.075	0.018
-259.180	-130.696	-0.096	0.013
-258.165	800.000	-0.017	-0.065
-257.151	-79.291	-0.208	0.071
-256.136	-142.205	-0.271	-0.027
-255.122	-7.745	-0.314	0.213
-254.107	72.755	0.086	-0.090
-253.092	241.196	-0.257	-0.429
-252.078	-200.000	-0.061	-0.295
-251.063	-200.000	0.046	-0.373
-250.049	-120.267	0.125	-0.021
-249.034	-74.222	0.231	0.084
-248.019	128.373	-0.133	0.169
-247.005	-75.156	-0.318	-0.114
-245.990	97.704	0.063	-0.073
-244.976	-200.000	0.007	-0.126
-243.961	-84.269	0.215	0.068
-242.946	-102.031	-0.093	0.022
-241.932	-200.000	0.027	0.179
-240.917	356.069	-0.111	-0.221
-239.903	-113.880	-0.185	0.036
-238.888	800.000	0.045	0.150
-237.873	-165.571	0.218	-0.009
-236.859	106.815	0.370	0.439
-235.844	114.820	0.133	0.163
-234.830	800.000	0.062	-0.206
-233.815	-102.136	0.153	0.037
-232.800	34.377	-0.083	-0.072
-231.786	12.848	0.347	-0.269
-230.771	3.595	0.024	-0.018
-229.757	-12.556	-0.154	-0.100
-228.742	615.902	0.194	0.487
-227.727	-166.478	0.493	-0.021
-226.713	-200.000	0.026	-0.149
-225.698	-126.879	-0.302	-0.044
-224.684	-105.097	0.043	0.010
-223.669	-200.000	0.068	0.442
-222.655	-126.980	0.074	0.011
-221.640	397.330	0.150	0.313
-220.625	-127.084	0.109	-0.016
-219.611	43.060	0.214	0.196
-218.596	406.490	0.115	-0.242
-217.582	-152.841	0.113	-0.008
-216.567	61.747	0.120	0.120
-215.552	38.225	0.210	0.187
-214.538	-142.572	-0.145	0.014
-213.523	0.575	0.269	0.192
-212.509	437.310	-0.051	-0.110
-211.494	-170.468	0.229	-0.008
-210.479	-79.238	-0.302	-0.102
-209.465	206.073	0.146	0.227
-208.450	618.188	-0.110	-0.277
-207.436	198.192	-0.061	0.093
-206.421	-45.825	-0.242	0.119
-205.406	-200.000	0.045	-0.307
-204.392	-168.214	0.207	-0.008
-203.377	6.373	-0.168	-0.124
-202.363	-138.202	0.264	-0.029
-201.348	-85.147	0.361	0.113
-200.333	504.321	0.025	-0.057
-199.319	-133.020	-0.224	0.028
-198.304	800.000	-0.061	-0.174
-197.290	-85.927	0.260	0.080
-196.275	-200.000	-0.002	0.328
-195.260	41.088	0.120	0.108
-194.246	209.077	-0.045	-0.071
-193.231	13.736	-0.230	-0.178
-192.217	45.361	-0.238	-0.219
-191.202	-114.223	0.028	-0.005
-190.187	285.804	0.155	0.279
-189.173	-165.612	-0.219	0.009
-188.158	-137.969	0.025	0.003
-187.144	25.604	0.107	0.089
-186.129	-46.296	-0.046	-0.023
-185.114	108.055	-0.046	-0.055
-184.100	-22.338	-0.037	-0.022
-183.085	162.849	0.041	0.058
-182.071	-82.192	0.166	0.054
-181.056	14.740	0.069	0.054
-180.042	235.166	0.109	-0.179
-179.027	365.356	-0.098	-0.196
-178.012	27.696	0.300	0.252
-176.998	373.791	0.078	0.158
-175.983	-44.222	0.059	-0.030
-174.969	-200.000	-0.050	-0.378
-173.954	-17.239	-0.067	-0.042
-172.939	42.415	-0.264	-0.240
-171.925	-200.000	0.003	-0.129
-170.910	-200.000	0.047	0.396
-169.896	342.204	0.053	0.104
-168.881	-200.000	-0.009	-0.158
-167.866	-200.000	-0.018	0.194
-166.852	9.418	0.124	-0.093
-165.837	-156.678	0.067	0.004
-164.823	73.050	-0.234	0.244
-163.808	1.231	0.096	-0.069
-162.793	260.096	0.086	0.149
-161.779	-55.764	-0.208	-0.093
-160.764	213.738	0.099	0.156
-159.750	-45.968	-0.203	-0.100
-158.735	-200.000	0.049	0.241
-157.720	-46.311	-0.121	-0.059
-156.706	-83.137	0.095	-0.031
-155.691	-200.000	-0.042	-0.196
-154.677	-142.855	-0.164	-0.016
-153.662	-133.166	0.208	0.026
-152.647	-74.104	0.165	0.060
-151.633	-21.735	-0.239	0.145
-150.618	48.570	0.090	-0.084
-149.604	800.000	0.082	0.337
-148.589	-200.000	-0.009	0.102
-147.574	60.231	-0.311	-0.306
-146.560	12.069	-0.238	-0.183
-145.545	-200.000	0.015	0.143
-144.531	192.834	0.184	0.277
-143.516	57.287	-0.141	-0.138
-142.502	-134.120	-0.276	0.034
-141.487	800.000	0.049	0.137
-140.472	-200.000	-0.054	0.332
-139.458	58.240	0.094	0.092
-138.443	1.599	-0.049	0.035
-137.429	-4.140	-0.269	-0.186
-136.414	81.372	0.202	-0.217
-135.399	-6.297	-0.218	0.148
-134.385	-200.000	-0.053	0.323
-133.370	-200.000	0.162	0.000
-132.356	800.000	-0.018	-0.054
-131.341	-12.601	-0.099	-0.065
-130.326	40.348	0.050	0.045
-129.312	227.400	-0.200	-0.325
-128.297	99.804	0.034	0.039
-127.283	223.127	-0.085	0.137
-126.268	-142.163	-0.252	0.025
-125.253	-71.384	0.066	-0.025
-124.239	-159.789	0.049	0.003
-123.224	30.938	0.220	-0.187
-122.210	-5.421	0.470	-0.322
-121.195	102.234	-0.152	0.176
-120.180	-200.000	-0.007	0.251
-119.166	-200.000	0.013	0.380
-118.151	800.000	0.040	0.138
-117.137	-34.618	-0.315	-0.172
-116.122	-200.000	-0.044	0.202
-115.107	234.808	0.139	-0.228
-114.093	-136.038	0.171	-0.020
-113.078	-200.000	0.070	0.333
-112.064	-103.102	0.185	-0.044
-111.049	-83.286	-0.249	-0.080
-110.034	-200.000	-0.026	0.189
-109.020	-56.333	-0.289	-0.128
-108.005	523.957	-0.166	0.388
-106.991	800.000	-0.041	0.121
-105.976	-112.970	-0.215	0.042
-104.962	-53.419	0.274	0.125
-103.947	-130.074	-0.469	0.064
-102.932	161.185	0.171	0.239
-101.918	-57.140	0.248	0.109
-100.903	-79.788	-0.408	0.137
-99.889	130.211	0.314	0.400
-98.874	800.000	-0.054	-0.192
-97.859	-23.973	-0.023	0.014
-96.845	361.048	0.050	-0.099
-95.830	-44.241	0.139	-0.069
-94.816	5.266	-0.056	-0.041
-93.801	16.272	-0.204	-0.160
-92.786	-27.163	0.173	0.100
-91.772	800.000	0.088	0.325
-90.757	-200.000	-0.013	0.088
-89.743	359.445	-0.080	0.159
-88.728	9.837	0.154	0.116
-87.713	-113.872	-0.234	0.045
-86.699	317.265	-0.117	-0.221
-85.684	-106.724	-0.252	-0.056
-84.670	215.020	0.118	-0.185
-83.655	-200.000	0.007	-0.129
-82.640	769.127	-0.030	-0.081
-81.626	-20.599	0.235	0.143
-80.611	-104.924	0.086	0.020
-79.597	-121.260	0.420	-0.070
-78.582	-177.689	0.271	0.007
-77.567	20.365	-0.091	0.073
-76.553	800.000	0.048	0.209
-75.538	800.000	-0.027	0.110
-74.524	-23.559	-0.297	-0.177
-73.509	-104.441	0.157	0.036
-72.494	-61.086	-0.061	0.026
-71.480	244.914	0.273	0.456
-70.465	-144.321	-0.127	0.012
-69.451	-58.480	-0.060	-0.026
-68.436	-78.272	-0.340	-0.116
-67.422	-94.339	-0.287	0.078
-66.407	-113.390	0.176	-0.034
-65.392	355.435	-0.030	0.060
-64.378	-152.976	0.165	0.012
-63.363	-21.320	0.057	-0.035
-62.349	137.961	-0.285	-0.371
-61.334	318.801	-0.573	-1.079
-60.319	182.870	0.330	0.484
-59.305	800.000	-0.213	-0.644
-58.290	294.821	0.530	0.964
-57.276	316.268	0.781	1.466
-56.261	-200.000	77.055	517.115
-55.246	510.601	1338.922	3095.154
-54.232	143.065	2595.654	3430.434
-53.217	108.761	2378.732	2824.381
-52.203	49.504	1988.607	1859.841
-51.188	43.446	1773.574	1610.566
-50.173	40.610	1727.343	1546.460
-49.159	54.909	1762.792	1690.755
-48.144	59.769	1781.502	1746.783
-47.130	43.502	1744.758	1584.585
-46.115	40.266	1730.860	1546.672
-45.100	40.156	1726.349	1541.723
-44.086	40.061	1723.647	1538.512
-43.071	40.089	1721.103	1536.394
-42.057	40.019	1718.838	1533.773
-41.042	40.137	1716.092	1532.173
-40.027	40.110	1714.396	1530.389
-39.013	40.177	1712.356	1529.025
-37.998	40.115	1710.875	1527.164
-36.984	40.189	1709.382	1526.341
-35.969	40.243	1708.027	1525.486
-34.954	40.302	1706.026	1524.096
-33.940	40.282	1704.311	1522.345
-32.925	40.257	1702.266	1520.270
-31.911	40.257	1700.370	1518.511
-30.896	40.239	1698.709	1516.832
-29.881	40.219	1697.096	1515.181
-28.867	40.313	1695.346	1514.278
-27.852	40.255	1694.169	1512.722
-26.838	40.308	1692.175	1511.282
-25.823	40.247	1691.473	1510.131
-24.809	40.314	1689.698	1508.998
-23.794	40.336	1688.210	1507.775
-22.779	40.317	1686.556	1506.092
-21.765	40.205	1685.559	1504.291
-20.750	40.230	1683.305	1502.413
-19.736	40.266	1682.207	1501.648
-18.721	40.264	1680.710	1500.233
-17.706	40.257	1679.068	1498.654
-16.692	40.305	1677.478	1497.543
-15.677	40.276	1676.008	1495.950
-14.663	40.314	1674.325	1494.679
-13.648	40.344	1673.130	1493.778
-12.633	40.287	1671.648	1491.965
-11.619	40.178	1670.305	1489.885
-10.604	40.210	1668.663	1488.605
-9.590	40.214	1667.205	1487.275
-8.575	40.248	1665.749	1486.169
-7.560	40.258	1664.743	1485.286
-6.546	40.260	1663.451	1484.094
-5.531	40.277	1662.322	1483.153
-4.517	40.355	1660.450	1482.010
-3.502	40.242	1659.952	1480.656
-2.487	40.323	1658.168	1479.616
-1.473	40.266	1647.564	1469.672
-0.458	37.729	1626.472	1432.176
0.556	31.698	1622.291	1383.777
1.571	27.082	1641.405	1365.358
2.586	24.715	1652.261	1356.334
3.600	21.359	1598.169	1287.146
4.615	11.986	1481.401	1128.715
5.629	3.120	1408.624	1014.882
6.644	1.137	1398.186	994.277
7.659	0.847	1397.481	991.783
8.673	0.886	1395.827	990.779
9.688	0.780	1394.372	988.964
10.702	0.631	1391.640	985.969
11.717	4.072	1397.152	1012.303
12.731	12.367	1411.022	1076.827
13.746	17.590	1416.962	1115.560
14.761	17.652	1416.173	1115.242
15.775	16.911	1413.381	1108.107
16.790	15.777	1411.140	1098.851
17.804	15.108	1408.807	1092.571
18.819	14.611	1407.364	1088.118
19.834	14.319	1406.017	1085.075
20.848	14.073	1404.574	1082.266
21.863	13.865	1402.628	1079.315
22.877	13.654	1401.996	1077.362
23.892	13.556	1400.915	1075.800
24.907	13.615	1400.416	1075.709
25.921	13.684	1399.211	1075.136
26.936	13.706	1398.285	1074.470
27.950	13.630	1397.462	1073.250
28.965	13.795	1396.336	1073.355
29.980	13.823	1395.356	1072.688
30.994	13.796	1394.441	1071.718
32.009	13.908	1393.481	1071.606
33.023	13.867	1392.301	1070.339
34.038	13.853	1391.280	1069.371
35.053	13.816	1390.134	1068.156
36.067	13.741	1389.078	1066.770
37.082	13.806	1388.200	1066.417
38.096	13.706	1387.758	1065.339
39.111	13.791	1386.259	1064.640
40.126	13.728	1385.870	1063.843
41.140	13.663	1384.768	1062.486
42.155	13.729	1384.525	1062.633
43.169	13.729	1383.862	1062.029
44.184	13.677	1384.153	1061.824
45.199	13.570	1383.750	1060.735
46.213	13.662	1383.275	1060.868
47.228	13.703	1381.994	1060.054
48.242	13.643	1381.168	1058.941
49.257	13.759	1379.351	1058.197
50.271	13.772	1377.507	1056.772
51.286	13.693	1376.780	1055.616
52.301	13.788	1374.951	1054.722
53.315	13.746	1374.061	1053.679
54.330	13.674	1373.346	1052.583
55.344	13.666	1371.766	1051.227
56.359	13.686	1370.424	1050.230
57.374	13.599	1369.521	1048.896
58.388	13.642	1368.800	1048.522
59.403	13.544	1368.664	1047.705
60.417	13.496	1367.890	1046.719
61.432	13.536	1366.764	1046.017
62.447	13.540	1366.047	1045.399
63.461	13.532	1364.854	1044.347
64.476	13.499	1363.603	1043.088
65.490	13.608	1362.395	1042.755
66.505	13.512	1361.078	1041.051
67.520	13.635	1359.564	1040.575
68.534	13.658	1358.532	1039.841
69.549	13.610	1357.562	1038.705
70.563	13.589	1356.193	1037.431
71.578	13.596	1354.839	1036.350
72.593	13.546	1353.897	1035.223
73.607	13.479	1353.719	1034.579
74.622	13.484	1352.864	1033.861
75.636	13.463	1351.940	1032.933
76.651	13.551	1351.070	1032.728
77.666	13.582	1350.018	1032.023
78.680	13.530	1349.817	1031.457
79.695	13.464	1349.308	1030.565
80.709	13.589	1348.087	1030.319
81.724	13.610	1347.316	1029.772
82.739	13.674	1346.341	1029.329
83.753	13.704	1345.018	1028.412
84.768	13.655	1344.314	1027.479
85.782	13.775	1342.759	1026.946
86.797	13.693	1341.858	1025.657
87.812	13.584	1340.577	1023.912
88.826	13.646	1339.248	1023.192
89.841	13.656	1338.385	1022.501
90.855	13.755	1337.058	1022.009
91.870	13.713	1336.383	1021.142
92.884	13.711	1335.694	1020.514
93.899	13.760	1334.686	1019.952
94.914	13.754	1334.075	1019.361
95.928	13.872	1332.513	1018.803
96.943	13.794	1332.128	1017.939
97.957	13.773	1330.965	1016.830
98.972	13.768	1329.800	1015.821
99.987	13.737	1329.143	1015.041
101.001	13.806	1328.034	1014.524
102.016	13.714	1327.241	1013.264
103.030	13.857	1325.895	1013.020
104.045	13.803	1325.045	1011.953
105.060	13.777	1324.122	1011.000
106.074	13.691	1322.559	1009.193
107.089	13.517	1321.781	1007.450
108.103	13.526	1320.636	1006.548
109.118	13.635	1318.756	1005.686
110.133	13.699	1317.186	1004.785
111.147	13.656	1315.643	1003.259
112.162	13.720	1314.752	1002.881
113.176	13.674	1313.408	1001.485
114.191	13.691	1312.722	1000.980
115.206	13.694	1311.204	999.748
116.220	13.698	1310.128	998.865
117.235	13.789	1308.796	998.311
118.249	13.639	1308.122	996.807
119.264	13.818	1306.471	996.532
120.279	13.718	1305.640	995.214
121.293	13.685	1304.173	993.806
122.308	13.581	1303.700	992.735
123.322	13.629	1302.650	992.136
124.337	13.620	1301.773	991.325
125.352	13.715	1300.356	990.727
126.366	13.735	1299.211	989.887
127.381	13.653	1298.088	988.457
128.395	13.665	1296.726	987.404
129.410	13.736	1296.046	987.216
130.424	13.667	1295.450	986.268
131.439	13.758	1294.132	985.716
132.454	13.756	1293.337	985.012
133.468	13.745	1292.549	984.261
134.483	13.726	1291.512	983.270
135.497	13.782	1290.395	982.663
136.512	13.869	1288.425	981.589
137.527	13.841	1287.074	980.314
138.541	13.782	1286.087	979.123
139.556	13.782	1285.058	978.254
140.570	13.811	1283.776	977.360
141.585	13.914	1282.540	976.940
142.600	13.919	1281.501	976.091
143.614	13.835	1280.541	974.782
144.629	13.986	1279.119	974.496
145.643	13.878	1278.191	973.074
146.658	13.863	1276.696	971.760
147.673	13.853	1275.589	970.771
148.687	13.851	1274.086	969.530
149.702	13.818	1273.254	968.622
150.716	13.788	1271.890	967.322
151.731	13.763	1270.601	966.113
152.746	13.900	1268.968	965.578
153.760	13.960	1267.773	964.936
154.775	13.838	1266.985	963.542
155.789	13.852	1266.018	962.803
156.804	13.935	1264.278	961.877
157.819	13.901	1263.343	960.880
158.833	13.909	1262.362	960.094
159.848	14.045	1261.413	960.072
160.862	13.992	1260.042	958.639
161.877	13.903	1259.072	957.303
162.892	13.931	1258.138	956.674
163.906	13.816	1257.281	955.271
164.921	13.885	1256.442	954.947
165.935	13.961	1254.892	954.125
166.950	14.058	1254.168	954.044
167.964	14.158	1253.306	953.877
168.979	14.056	1252.809	952.832
169.994	14.051	1251.793	951.946
171.008	14.060	1251.176	951.444
172.023	14.034	1250.479	950.681
173.037	14.067	1249.627	950.133
174.052	14.103	1248.928	949.723
175.067	14.110	1247.564	948.646
176.081	14.025	1246.115	946.975
177.096	13.997	1245.906	946.571
178.110	14.031	1244.793	945.834
179.125	14.090	1243.396	945.024
180.140	14.150	1242.058	944.269
181.154	14.251	1240.876	943.857
182.169	14.164	1239.458	942.205
183.183	14.221	1238.439	941.667
184.198	14.209	1237.131	940.522
185.213	14.278	1236.117	940.059
186.227	14.157	1235.074	938.499
187.242	14.218	1233.929	937.889
188.256	14.330	1232.945	937.691
189.271	14.368	1231.927	937.043
190.286	14.166	1231.328	935.372
191.300	14.159	1230.310	934.475
192.315	13.990	1229.875	933.115
193.329	14.140	1228.931	933.158
194.344	14.142	1228.546	932.793
195.359	14.194	1227.729	932.384
196.373	14.181	1227.006	931.675
197.388	14.247	1226.455	931.546
198.402	14.307	1226.163	931.575
199.417	14.454	1225.074	931.491
200.432	14.434	1224.003	930.478
201.446	14.535	1223.003	930.198
202.461	14.491	1222.301	929.340
203.475	14.533	1221.282	928.717
204.490	14.568	1219.954	927.820
205.504	14.356	1218.839	925.713
206.519	14.430	1217.846	925.283
207.534	14.517	1216.845	924.924
208.548	14.482	1215.414	923.564
209.563	14.455	1214.980	923.003
210.577	14.525	1214.077	922.620
211.592	14.513	1212.887	921.568
212.607	14.469	1212.283	920.784
213.621	14.547	1211.586	920.605
214.636	14.656	1210.309	920.152
215.650	14.646	1209.323	919.269
216.665	14.644	1208.358	918.439
217.680	14.785	1207.259	918.302
218.694	14.725	1206.334	917.188
219.709	14.669	1206.062	916.588
220.723	14.771	1205.434	916.589
221.738	14.738	1204.534	915.647
222.753	14.818	1203.676	915.351
223.767	14.743	1203.347	914.606
224.782	14.812	1202.647	914.374
225.796	14.772	1202.010	913.589
226.811	14.835	1201.106	913.166
227.826	14.817	1200.560	912.574
228.840	14.782	1199.820	911.735
229.855	14.770	1199.003	910.969
230.869	14.822	1197.738	910.210
231.884	14.857	1197.269	909.962
232.899	14.808	1196.392	908.950
233.913	14.837	1195.902	908.656
234.928	14.776	1195.202	907.715
235.942	14.692	1194.433	906.592
236.957	14.837	1193.185	906.353
237.972	14.810	1192.518	905.621
238.986	14.744	1192.042	904.818
240.001	14.830	1191.427	904.738
241.015	14.844	1190.034	903.678
242.030	14.851	1189.414	903.161
243.045	14.929	1188.795	903.032
244.059	14.888	1188.027	902.148
245.074	14.935	1186.906	901.472
246.088	15.038	1186.353	901.525
247.103	15.086	1185.361	900.952
248.117	15.101	1184.729	900.474
249.132	15.132	1183.756	899.820
250.147	15.207	1182.820	899.429
251.161	15.163	1182.336	898.744
252.176	15.218	1181.718	898.491
253.190	15.426	1180.599	898.674
254.205	15.342	1181.029	898.473
255.220	15.302	1180.131	897.497
256.234	15.289	1179.431	896.814
257.249	15.375	1178.442	896.442
258.263	15.309	1177.861	895.568
259.278	15.282	1177.541	895.105
260.293	15.339	1176.481	894.525
261.307	15.468	1175.820	894.631
262.322	15.356	1175.480	893.694
263.336	15.406	1174.936	893.471
264.351	15.417	1174.089	892.803
265.366	15.407	1173.410	892.153
266.380	15.535	1172.414	891.996
267.395	15.465	1171.867	891.133
268.409	15.355	1171.088	889.874
269.424	15.443	1170.693	889.962
270.439	15.444	1169.998	889.365
271.453	15.483	1169.195	888.882
272.468	15.466	1167.942	887.758
273.482	15.466	1167.571	887.400
274.497	15.524	1166.738	886.995
275.512	15.530	1166.482	886.751
276.526	15.466	1165.438	885.541
277.541	15.550	1164.608	885.278
278.555	15.654	1163.656	885.023
279.570	15.653	1162.973	884.421
280.585	15.510	1162.341	883.105
281.599	15.617	1161.423	882.893
282.614	15.663	1160.371	882.256
283.628	15.683	1159.124	881.338
284.643	15.593	1158.436	880.262
285.657	15.669	1157.044	879.526
286.672	15.652	1156.173	878.695
287.687	15.748	1155.358	878.504
288.701	15.775	1154.566	877.961
289.716	15.775	1154.326	877.701
290.730	15.783	1153.265	876.862
291.745	15.782	1152.487	876.187
292.760	15.829	1151.929	875.929
293.774	15.769	1151.549	875.248
294.789	15.833	1150.714	874.869
295.803	15.930	1149.960	874.725
296.818	15.861	1148.981	873.545
297.833	15.906	1148.645	873.446
298.847	15.828	1147.801	872.320
299.862	15.931	1146.614	871.872
300.876	15.941	1146.075	871.441
301.891	16.032	1145.469	871.369
302.906	16.125	1144.635	871.142
303.920	16.096	1144.538	870.841
304.935	16.094	1143.536	869.989
305.949	16.095	1142.806	869.365
306.964	16.137	1142.041	868.922
307.979	16.207	1141.027	868.431
308.993	16.078	1140.660	867.410
310.008	16.045	1140.036	866.694
311.022	16.178	1139.063	866.558
312.037	16.063	1138.401	865.388
313.052	16.012	1137.154	864.099
314.066	16.141	1136.126	863.904
315.081	16.240	1135.136	863.581
316.095	16.113	1134.833	862.623
317.110	16.100	1133.899	861.773
318.125	16.164	1133.091	861.410
319.139	16.066	1132.855	860.655
320.154	16.027	1132.010	859.736
321.168	16.249	1131.022	860.040
322.183	16.219	1130.203	859.188
323.197	16.087	1129.833	858.161
324.212	16.238	1129.304	858.452
325.227	16.283	1128.826	858.240
326.241	16.387	1127.888	857.977
327.256	16.179	1127.544	856.584
328.270	16.175	1126.558	855.740
329.285	16.073	1126.083	854.789
330.300	16.270	1124.579	854.570
331.314	16.313	1123.287	853.727
332.329	16.158	1122.894	852.568
333.343	16.229	1121.712	851.957
334.358	16.342	1120.461	851.501
335.373	16.380	1119.697	851.036
336.387	16.379	1119.568	850.857
337.402	16.390	1118.652	850.142
338.416	16.393	1117.612	849.288
339.431	16.484	1117.078	849.269
340.446	16.563	1116.353	849.035
341.460	16.533	1115.842	848.422
342.475	16.499	1115.190	847.680
343.489	16.515	1113.986	846.773
344.504	16.589	1112.783	846.151
345.519	16.481	1112.379	845.228
346.533	16.531	1111.588	844.805
347.548	16.668	1110.933	844.915
348.562	16.778	1109.725	844.468
349.577	16.684	1109.125	843.472
350.592	16.791	1108.194	843.222
351.606	16.585	1107.774	841.799
352.621	16.604	1107.181	841.370
353.635	16.710	1106.237	841.107
354.650	16.638	1105.215	839.895
355.665	16.695	1104.960	839.912
356.679	16.744	1104.172	839.480
357.694	16.790	1103.284	838.958
358.708	16.731	1102.671	838.126
359.723	16.812	1102.177	838.080
360.738	16.711	1101.771	837.197
361.752	16.719	1101.086	836.638
362.767	16.784	1100.575	836.500
363.781	16.828	1099.987	836.195
364.796	16.904	1099.004	835.749
365.810	16.880	1098.522	835.192
366.825	16.889	1097.877	834.668
367.840	16.858	1097.538	834.185
368.854	17.036	1096.678	834.332
369.869	16.981	1095.804	833.324
370.883	17.042	1094.979	832.923
371.898	16.938	1094.528	831.994
372.913	16.967	1093.675	831.415
373.927	17.015	1093.358	831.339
374.942	17.196	1092.492	831.493
375.956	17.096	1092.200	830.705
376.971	17.055	1091.563	829.949
377.986	17.128	1091.065	829.852
379.000	17.166	1090.310	829.390
380.015	17.193	1089.721	828.998
381.029	17.235	1089.006	828.589
382.044	17.155	1088.854	828.006
383.059	17.193	1087.880	827.381
384.073	17.173	1086.889	826.457
385.088	17.208	1085.969	825.855
386.102	17.336	1085.115	825.750
387.117	17.353	1083.934	824.865
388.132	17.148	1083.515	823.478
389.146	17.293	1082.209	823.114
390.161	17.176	1081.697	822.087
391.175	17.205	1081.175	821.756
392.190	17.265	1080.553	821.501
393.205	17.399	1079.503	821.276
394.219	17.298	1078.814	820.195
395.234	17.239	1077.953	819.182
396.248	17.346	1076.789	818.741
397.263	17.331	1075.884	817.905
398.278	17.301	1075.116	817.104
399.292	17.375	1074.318	816.784
400.307	17.238	1073.979	815.795
401.321	17.292	1073.064	815.287
402.336	17.366	1072.630	815.241
403.350	17.408	1071.550	814.550
404.365	17.504	1070.906	814.448
405.380	17.420	1070.259	813.479
406.394	17.502	1069.644	813.330
407.409	17.562	1068.890	812.974
408.423	17.535	1068.159	812.215
409.438	17.603	1067.083	811.650
410.453	17.624	1066.695	811.382
411.467	17.637	1066.065	810.892
412.482	17.654	1065.132	810.191
413.496	17.775	1064.303	810.066
414.511	17.654	1064.447	809.530
415.526	17.805	1063.299	809.300
416.540	17.672	1063.411	808.682
417.555	17.662	1062.950	808.213
418.569	17.752	1062.065	807.894
419.584	17.706	1061.589	807.246
420.599	17.738	1061.047	806.910
421.613	88.860	1300.254	1382.397
422.628	82.045	1335.112	1382.489
