DTS Sentinel unit serial number:	SN413079Multiplexer serial number:	ORYXHardware model number:	OX4-SRSoftware version number:	ORYX F/W v4.00 Oryx Data Collector v3.7.2.0data status	okinstallation	princeton_trtdifferential loss correction	single-endedforward channel	channel 2reverse channel	N/Adate	2019/09/13time	11:19:35forward acquisition time	60.00reverse acquisition time	0.00gamma	496.2192k internal	0.2321k external	0.2321temperature offset calibration	1.0200default loss term (dB/km)	0.3790temperature slope calibration	1.0000multiplexer offset coefficient	1.0000multiplexer slope coefficient	1.0000fibre end	0.00T internal ref (°C)	32.42T ext. ref 1 (°C)	4.70T ext. ref 2 (°C)	29.55length (m)	temperature (°C)	Stokes	anti-Stokes-747.200	-40.379	0.122	-0.064
-746.185	310.579	0.108	0.204
-745.171	800.000	0.089	0.277
-744.156	369.066	-0.087	-0.178
-743.142	188.033	0.103	0.156
-742.127	-122.334	0.177	0.029
-741.112	-112.683	0.356	0.072
-740.098	-158.587	0.207	0.012
-739.083	77.819	0.070	0.076
-738.069	299.727	0.068	-0.127
-737.054	-200.000	0.004	0.161
-736.039	-11.237	0.095	-0.063
-735.025	4.284	-0.246	-0.182
-734.010	201.582	-0.168	-0.262
-732.996	-74.931	-0.261	0.095
-731.981	800.000	-0.064	-0.258
-730.966	-200.000	0.014	-0.081
-729.952	31.427	-0.295	-0.256
-728.937	-171.371	-0.195	-0.007
-727.923	-135.901	-0.285	0.034
-726.908	8.023	-0.065	0.049
-725.894	12.964	-0.210	0.164
-724.879	-104.226	0.326	-0.077
-723.864	194.230	0.063	0.096
-722.850	-79.754	0.215	0.073
-721.835	554.920	-0.197	-0.478
-720.821	251.576	-0.185	-0.319
-719.806	-73.248	-0.247	-0.091
-718.791	455.677	0.181	-0.405
-717.777	-66.885	-0.206	-0.082
-716.762	252.078	-0.023	-0.040
-715.748	-13.118	0.101	0.067
-714.733	-50.400	0.057	-0.027
-713.718	-49.514	-0.110	0.053
-712.704	800.000	0.117	-0.364
-711.689	-200.000	0.001	-0.106
-710.675	159.046	-0.179	0.251
-709.660	-132.094	0.042	-0.005
-708.645	-7.446	0.244	-0.167
-707.631	800.000	-0.007	0.024
-706.616	273.442	-0.070	0.125
-705.602	-113.472	-0.098	0.019
-704.587	-123.599	-0.333	0.053
-703.572	-136.187	-0.207	-0.024
-702.558	-200.000	-0.024	-0.260
-701.543	123.738	0.062	0.078
-700.529	-12.576	0.075	-0.049
-699.514	-92.027	0.059	-0.017
-698.499	-200.000	0.023	-0.179
-697.485	458.577	0.102	0.228
-696.470	641.541	-0.104	0.268
-695.456	-80.131	-0.477	-0.161
-694.441	35.524	-0.076	-0.067
-693.426	-161.742	0.259	-0.013
-692.412	-63.180	0.257	-0.107
-691.397	800.000	-0.008	-0.023
-690.383	-73.659	-0.211	-0.077
-689.368	-200.000	0.039	-0.235
-688.354	143.829	-0.054	-0.072
-687.339	-42.814	-0.147	-0.076
-686.324	800.000	0.045	-0.152
-685.310	107.072	0.133	-0.160
-684.295	-115.174	-0.171	-0.033
-683.281	-61.493	-0.340	-0.144
-682.266	106.409	-0.162	-0.194
-681.251	-200.000	-0.044	0.376
-680.237	-61.528	0.200	-0.085
-679.222	48.594	0.230	0.217
-678.208	-200.000	-0.068	-0.313
-677.193	-200.000	-0.053	-0.262
-676.178	80.871	-0.160	-0.174
-675.164	800.000	0.089	-0.310
-674.149	-200.000	-0.010	0.151
-673.135	-103.842	-0.223	-0.053
-672.120	-200.000	0.025	0.128
-671.105	-85.612	-0.353	-0.111
-670.091	-37.521	0.195	-0.105
-669.076	800.000	-0.090	-0.350
-668.062	-43.688	0.130	0.066
-667.047	163.437	-0.145	0.206
-666.032	-24.408	0.076	-0.046
-665.018	-81.620	-0.300	-0.099
-664.003	45.576	0.155	0.144
-662.989	800.000	-0.073	0.247
-661.974	81.934	-0.138	-0.151
-660.959	232.658	-0.115	-0.190
-659.945	97.437	-0.152	0.176
-658.930	-55.618	0.206	-0.093
-657.916	-119.335	0.197	0.035
-656.901	-37.188	0.210	-0.113
-655.886	-200.000	-0.004	0.304
-654.872	179.371	-0.055	-0.081
-653.857	-149.222	-0.110	0.009
-652.843	-76.780	0.189	-0.067
-651.828	151.938	-0.287	-0.394
-650.814	-91.610	-0.394	0.113
-649.799	-112.200	0.048	-0.010
-648.784	321.911	0.146	-0.280
-647.770	800.000	0.098	-0.290
-646.755	-116.335	-0.058	-0.011
-645.741	407.764	-0.131	0.280
-644.726	800.000	-0.081	-0.271
-643.711	157.430	0.079	-0.109
-642.697	133.874	0.147	-0.192
-641.682	173.901	0.204	0.297
-640.668	108.452	-0.059	0.071
-639.653	41.622	-0.183	0.167
-638.638	11.905	-0.118	-0.092
-637.624	0.204	0.224	-0.161
-636.609	456.881	0.178	-0.397
-635.595	800.000	-0.029	0.084
-634.580	-16.585	-0.116	0.074
-633.565	-200.000	-0.015	-0.079
-632.551	276.119	0.177	-0.316
-631.536	-200.000	-0.007	-0.119
-630.522	-83.288	-0.222	0.072
-629.507	-106.042	0.055	0.012
-628.492	-71.071	0.388	-0.147
-627.478	800.000	0.028	0.109
-626.463	-5.299	0.292	0.202
-625.449	-155.451	-0.170	0.011
-624.434	418.287	-0.131	0.281
-623.419	45.709	-0.183	-0.170
-622.405	-200.000	0.015	-0.069
-621.390	-106.122	0.038	0.009
-620.376	-168.659	0.539	-0.021
-619.361	-49.237	0.305	-0.147
-618.346	173.966	-0.096	-0.139
-617.332	-200.000	0.025	-0.138
-616.317	30.892	-0.153	0.132
-615.303	-55.273	0.026	-0.012
-614.288	544.325	-0.059	0.142
-613.273	336.489	-0.171	-0.334
-612.259	800.000	-0.013	-0.039
-611.244	-99.426	0.148	0.038
-610.230	224.119	-0.111	0.181
-609.215	45.586	0.259	-0.241
-608.201	-200.000	0.013	0.085
-607.186	-8.372	0.246	-0.166
-606.171	-87.895	-0.085	-0.026
-605.157	569.179	0.045	0.109
-604.142	277.656	0.059	0.105
-603.128	800.000	-0.044	-0.145
-602.113	193.426	0.140	-0.214
-601.098	-73.072	0.221	0.081
-600.084	2.207	-0.279	0.203
-599.069	-200.000	0.022	0.179
-598.055	476.368	0.099	0.225
-597.040	167.923	0.135	0.193
-596.025	56.713	-0.208	0.204
-595.011	-157.510	0.200	0.012
-593.996	535.304	0.162	-0.385
-592.982	-117.905	-0.062	-0.011
-591.967	120.919	0.269	0.336
-590.952	51.704	0.142	0.136
-589.938	-100.552	-0.086	0.021
-588.923	198.696	0.180	-0.276
-587.909	-119.245	-0.275	0.048
-586.894	-101.537	0.292	0.071
-585.879	399.237	-0.116	0.245
-584.865	-200.000	-0.022	-0.324
-583.850	-126.823	-0.234	-0.035
-582.836	-74.812	-0.370	0.134
-581.821	-133.680	0.168	-0.021
-580.806	63.580	0.082	0.083
-579.792	369.445	0.059	0.121
-578.777	-200.000	-0.284	0.001
-577.763	-96.960	0.127	0.033
-576.748	320.390	0.036	-0.068
-575.733	-200.000	0.017	-0.179
-574.719	-200.000	-0.019	0.302
-573.704	113.632	-0.087	-0.106
-572.690	-56.405	0.190	-0.085
-571.675	-59.437	0.322	-0.139
-570.661	-109.210	-0.073	0.015
-569.646	-200.000	0.030	-0.207
-568.631	-200.000	-0.045	-0.298
-567.617	116.361	-0.209	0.257
-566.602	-200.000	-0.054	0.298
-565.588	-98.154	-0.152	0.039
-564.573	259.267	0.114	0.197
-563.558	94.106	0.027	0.031
-562.544	249.491	-0.076	-0.129
-561.529	-40.835	0.073	-0.038
-560.515	-17.066	0.032	-0.020
-559.500	-27.157	0.293	0.171
-558.485	1.374	-0.244	-0.176
-557.471	399.758	-0.173	-0.364
-556.456	-128.732	-0.318	0.045
-555.442	-200.000	0.004	-0.036
-554.427	-106.502	0.058	0.013
-553.412	25.080	-0.100	0.084
-552.398	109.166	-0.144	0.173
-551.383	364.313	0.015	-0.031
-550.369	-14.801	-0.104	0.067
-549.354	-200.000	0.026	-0.180
-548.339	318.190	0.149	-0.283
-547.325	-82.369	-0.077	-0.025
-546.310	-116.178	0.303	-0.056
-545.296	-71.078	-0.485	-0.183
-544.281	-74.348	-0.165	0.060
-543.266	45.982	0.138	-0.128
-542.252	-200.000	-0.019	-0.118
-541.237	63.663	0.142	0.143
-540.223	-200.000	0.003	0.248
-539.208	39.382	0.171	0.153
-538.193	800.000	-0.150	-0.483
-537.179	-200.000	0.007	-0.275
-536.164	-12.791	-0.209	0.136
-535.150	-26.591	0.280	0.164
-534.135	-78.917	0.193	-0.066
-533.121	-200.000	0.054	-0.290
-532.106	0.304	0.130	0.093
-531.091	118.282	-0.084	-0.103
-530.077	800.000	0.103	-0.354
-529.062	428.096	0.095	-0.207
-528.048	-200.000	-0.022	-0.152
-527.033	18.578	-0.110	0.088
-526.018	-200.000	-0.019	0.183
-525.004	-200.000	0.070	-0.316
-523.989	104.346	0.158	0.187
-522.975	-150.734	-0.202	-0.015
-521.960	224.921	0.154	0.250
-520.945	-115.472	0.201	-0.038
-519.931	-46.086	0.058	0.028
-518.916	515.214	-0.161	0.376
-517.902	-27.137	0.335	0.196
-516.887	-19.192	-0.066	0.041
-515.872	-200.000	0.034	-0.268
-514.858	-151.306	-0.207	0.015
-513.843	145.203	-0.150	0.202
-512.829	137.483	-0.024	-0.031
-511.814	800.000	0.033	-0.104
-510.799	-10.487	0.170	-0.113
-509.785	800.000	-0.040	-0.157
-508.770	-16.366	0.204	-0.129
-507.756	800.000	-0.063	0.251
-506.741	-136.826	0.066	0.008
-505.726	-200.000	0.049	-0.280
-504.712	-88.245	0.153	-0.046
-503.697	268.528	-0.050	0.087
-502.683	-146.336	-0.345	-0.030
-501.668	-156.860	0.428	-0.026
-500.653	-200.000	0.013	-0.188
-499.639	-200.000	-0.081	0.514
-498.624	-157.304	-0.390	0.024
-497.610	-200.000	0.003	-0.411
-496.595	543.085	0.150	-0.358
-495.581	715.180	-0.052	-0.138
-494.566	-200.000	-0.032	-0.363
-493.551	-200.000	-0.032	0.297
-492.537	800.000	0.074	-0.227
-491.522	387.739	0.078	0.161
-490.508	586.415	-0.120	0.296
-489.493	49.897	0.138	0.131
-488.478	26.050	0.296	0.247
-487.464	188.206	-0.146	-0.218
-486.449	-21.712	-0.134	0.082
-485.435	25.161	-0.105	-0.087
-484.420	-30.650	0.076	0.043
-483.405	43.138	-0.081	0.074
-482.391	28.875	0.196	0.166
-481.376	87.440	0.117	0.130
-480.362	-84.264	-0.108	0.034
-479.347	-200.000	-0.070	0.362
-478.332	449.007	-0.082	-0.181
-477.318	-40.056	-0.282	-0.147
-476.303	-70.355	0.055	-0.021
-475.289	800.000	0.036	0.105
-474.274	113.568	0.071	0.086
-473.259	-139.159	0.182	-0.020
-472.245	189.427	0.066	-0.099
-471.230	-64.849	-0.065	0.026
-470.216	-58.579	-0.361	-0.157
-469.201	39.759	0.191	-0.172
-468.186	-104.030	-0.137	0.032
-467.172	-141.331	-0.037	0.004
-466.157	-75.683	-0.255	-0.090
-465.143	-77.287	-0.220	0.077
-464.128	226.260	-0.174	0.282
-463.113	-118.871	-0.326	0.057
-462.099	-16.310	0.578	-0.367
-461.084	-181.858	-0.377	0.007
-460.070	-55.888	-0.287	-0.128
-459.055	-14.693	0.205	0.132
-458.040	-200.000	-0.073	-0.460
-457.026	-200.000	0.020	0.316
-456.011	301.734	0.152	0.281
-454.997	-7.463	0.143	0.097
-453.982	-200.000	-0.004	0.142
-452.968	-0.955	0.209	0.148
-451.953	-80.053	0.286	-0.096
-450.938	-138.195	0.275	0.030
-449.924	50.570	0.291	0.276
-448.909	142.034	-0.059	0.079
-447.895	-89.004	-0.385	0.114
-446.880	198.113	0.124	0.190
-445.865	-98.083	0.112	-0.029
-444.851	-15.431	0.191	0.122
-443.836	-163.955	-0.201	0.009
-442.822	-148.528	-0.433	0.035
-441.807	35.118	0.354	0.310
-440.792	-170.751	-0.162	0.006
-439.778	-38.350	-0.218	0.115
-438.763	478.522	0.040	-0.091
-437.749	23.382	-0.129	-0.106
-436.734	166.284	-0.112	-0.158
-435.719	485.105	0.142	0.322
-434.705	-200.000	0.043	0.330
-433.690	405.004	0.096	0.203
-432.676	-45.701	0.215	-0.106
-431.661	162.559	0.087	-0.122
-430.646	-200.000	-0.042	0.230
-429.632	-142.956	-0.351	0.034
-428.617	-75.442	-0.065	-0.023
-427.603	34.663	-0.312	0.273
-426.588	-200.000	-0.011	-0.201
-425.573	15.410	-0.178	0.139
-424.559	128.208	-0.252	0.321
-423.544	-200.000	0.047	0.343
-422.530	125.921	-0.125	-0.158
-421.515	43.375	-0.355	0.323
-420.500	-200.000	0.053	-0.265
-419.486	-111.973	0.272	-0.055
-418.471	800.000	0.033	-0.143
-417.457	7.779	-0.272	-0.203
-416.442	40.079	-0.145	-0.130
-415.428	800.000	-0.145	-0.467
-414.413	-200.000	0.007	-0.044
-413.398	-200.000	-0.006	0.252
-412.384	10.945	0.016	0.012
-411.369	800.000	-0.068	-0.195
-410.355	-188.170	0.134	0.002
-409.340	-200.000	0.008	0.264
-408.325	-83.436	0.135	0.043
-407.311	595.305	-0.070	0.172
-406.296	386.087	-0.138	-0.285
-405.282	-200.000	0.014	-0.155
-404.267	61.535	0.144	-0.143
-403.252	-180.974	-0.095	-0.002
-402.238	800.000	-0.012	0.050
-401.223	47.104	-0.185	-0.172
-400.209	-200.000	0.013	-0.164
-399.194	-200.000	-0.021	-0.104
-398.179	-5.156	0.321	0.220
-397.165	337.809	0.288	-0.558
-396.150	-200.000	0.008	0.377
-395.136	-12.028	0.216	-0.141
-394.121	-70.812	-0.111	-0.042
-393.106	292.965	0.059	0.108
-392.092	-36.299	-0.388	-0.209
-391.077	267.470	0.139	-0.243
-390.063	34.110	-0.132	-0.115
-389.048	-139.328	-0.205	-0.022
-388.033	-84.024	-0.325	-0.103
-387.019	800.000	-0.062	-0.184
-386.004	-39.327	-0.128	-0.067
-384.990	-36.377	-0.242	-0.130
-383.975	800.000	0.070	0.215
-382.960	-200.000	0.036	-0.196
-381.946	-128.253	-0.114	0.016
-380.931	-200.000	-0.042	0.211
-379.917	-200.000	0.007	-0.137
-378.902	-46.760	-0.157	-0.077
-377.888	-81.051	0.203	0.067
-376.873	800.000	-0.044	-0.160
-375.858	-200.000	-0.036	-0.220
-374.844	-149.895	-0.251	-0.020
-373.829	800.000	0.021	-0.084
-372.815	-2.363	0.508	-0.355
-371.800	-200.000	0.062	-0.320
-370.785	74.656	-0.056	-0.059
-369.771	-86.029	-0.280	-0.086
-368.756	138.517	-0.123	-0.160
-367.742	-200.000	0.039	-0.191
-366.727	-44.457	0.190	0.095
-365.712	2.561	-0.204	0.147
-364.698	154.227	-0.178	-0.244
-363.683	219.547	-0.134	-0.213
-362.669	-73.632	-0.241	0.088
-361.654	-96.038	0.130	-0.034
-360.639	351.509	0.113	0.224
-359.625	-158.815	0.330	-0.019
-358.610	5.860	-0.064	-0.047
-357.596	-200.000	0.027	0.213
-356.581	411.612	-0.072	0.152
-355.566	-155.030	-0.162	0.011
-354.552	-15.099	-0.173	-0.111
-353.537	361.921	0.211	0.421
-352.523	-110.244	-0.158	0.033
-351.508	199.173	0.103	0.156
-350.493	-127.707	0.253	0.036
-349.479	800.000	0.030	-0.084
-348.464	-200.000	-0.007	0.082
-347.450	-73.024	-0.116	-0.042
-346.435	-114.584	0.425	0.081
-345.420	800.000	0.059	0.234
-344.406	-28.290	0.200	-0.115
-343.391	149.148	-0.333	-0.449
-342.377	-52.260	0.208	0.096
-341.362	-200.000	-0.028	-0.179
-340.348	38.685	-0.261	0.232
-339.333	-200.000	-0.019	-0.235
-338.318	495.217	-0.130	0.298
-337.304	232.021	0.065	-0.106
-336.289	0.104	0.119	0.085
-335.275	84.662	-0.139	0.151
-334.260	523.928	-0.255	0.597
-333.245	-51.269	0.030	-0.014
-332.231	-31.543	-0.278	-0.155
-331.216	320.757	0.072	0.136
-330.202	-161.373	-0.234	0.012
-329.187	-19.394	0.165	0.102
-328.172	91.084	0.176	-0.196
-327.158	682.212	-0.068	-0.176
-326.143	-107.033	-0.248	0.055
-325.129	-102.928	-0.214	0.051
-324.114	33.145	-0.067	0.058
-323.099	-47.172	0.223	0.108
-322.085	-200.000	-0.011	0.242
-321.070	37.285	-0.104	0.092
-320.056	-142.657	0.135	0.013
-319.041	-33.928	-0.092	-0.050
-318.026	800.000	-0.070	0.222
-317.012	209.684	0.130	-0.203
-315.997	383.329	-0.134	0.274
-314.983	-102.397	-0.010	0.002
-313.968	-49.307	-0.379	-0.180
-312.953	-200.000	0.026	-0.315
-311.939	-200.000	0.041	-0.249
-310.924	221.070	-0.144	-0.230
-309.910	-200.000	-0.011	-0.157
-308.895	-78.801	0.094	0.032
-307.880	-200.000	-0.002	-0.072
-306.866	-22.635	0.447	-0.268
-305.851	447.524	0.076	0.165
-304.837	115.280	0.249	0.302
-303.822	-84.589	0.449	0.141
-302.807	-54.340	-0.196	-0.088
-301.793	36.114	0.387	0.339
-300.778	800.000	-0.022	0.077
-299.764	-200.000	-0.003	-0.173
-298.749	800.000	-0.045	-0.186
-297.735	163.144	0.036	-0.050
-296.720	192.617	-0.150	-0.225
-295.705	-121.403	-0.193	-0.032
-294.691	353.447	-0.107	0.211
-293.676	370.952	0.066	0.132
-292.662	-16.229	-0.268	-0.169
-291.647	-99.581	0.477	0.119
-290.632	-147.020	0.194	0.017
-289.618	-155.600	-0.065	0.004
-288.603	-71.073	0.260	0.097
-287.589	757.300	-0.051	0.137
-286.574	-79.463	0.160	0.054
-285.559	-127.522	0.184	0.027
-284.545	-200.000	-0.037	0.269
-283.530	-98.336	0.502	0.128
-282.516	-85.667	-0.039	0.012
-281.501	-30.855	0.062	-0.035
-280.486	-200.000	-0.013	0.116
-279.472	-100.444	-0.131	0.032
-278.457	-126.122	-0.218	-0.032
-277.443	-126.239	0.214	-0.032
-276.428	41.699	-0.175	0.157
-275.413	-14.498	-0.379	0.242
-274.399	-200.000	-0.028	-0.355
-273.384	219.416	0.046	0.072
-272.370	326.765	0.094	0.178
-271.355	-144.990	0.290	0.026
-270.340	-60.092	-0.123	0.052
-269.326	-200.000	0.032	-0.236
-268.311	-128.729	-0.395	-0.055
-267.297	-200.000	-0.025	0.155
-266.282	289.184	0.095	0.170
-265.267	800.000	-0.039	-0.133
-264.253	-68.896	0.202	0.077
-263.238	130.507	-0.130	0.165
-262.224	-46.528	-0.539	-0.262
-261.209	-170.306	0.059	-0.002
-260.195	218.099	0.179	0.284
-259.180	-68.459	0.268	-0.103
-258.165	26.374	-0.049	-0.041
-257.151	800.000	0.082	-0.233
-256.136	262.188	-0.055	-0.094
-255.122	-200.000	-0.009	0.072
-254.107	83.231	-0.209	0.226
-253.092	-122.024	-0.419	0.068
-252.078	-200.000	-0.011	-0.150
-251.063	65.664	-0.257	0.259
-250.049	46.473	-0.051	-0.047
-249.034	153.663	-0.119	-0.161
-248.019	-96.398	0.125	0.033
-247.005	-84.255	0.384	0.121
-245.990	7.495	-0.099	0.073
-244.976	-97.202	-0.191	-0.049
-243.961	-200.000	0.011	0.470
-242.946	504.060	-0.049	-0.113
-241.932	-200.000	-0.034	0.194
-240.917	-55.799	0.136	0.060
-239.903	-157.666	-0.192	-0.011
-238.888	-200.000	0.033	-0.200
-237.873	-31.738	0.152	-0.085
-236.859	221.772	-0.086	0.136
-235.844	70.988	0.230	-0.236
-234.830	-200.000	-0.033	-0.204
-233.815	800.000	-0.082	-0.248
-232.800	143.238	0.192	-0.253
-231.786	65.637	-0.101	-0.102
-230.771	-15.153	0.189	-0.120
-229.757	31.766	0.519	0.443
-228.742	-53.966	0.222	0.100
-227.727	209.577	-0.220	-0.341
-226.713	3.453	-0.468	-0.338
-225.698	-150.263	0.307	-0.023
-224.684	-23.857	0.302	-0.179
-223.669	-59.581	0.194	-0.082
-222.655	-200.000	0.018	-0.282
-221.640	-29.164	-0.390	0.222
-220.625	193.887	-0.019	-0.029
-219.611	-143.520	0.079	-0.007
-218.596	-141.514	0.118	-0.012
-217.582	-74.011	-0.127	-0.046
-216.567	-200.000	0.016	0.441
-215.552	-200.000	-0.002	-0.039
-214.538	160.323	0.222	-0.306
-213.523	131.662	0.170	-0.217
-212.509	-200.000	-0.002	0.094
-211.494	-31.603	0.132	-0.074
-210.479	-62.047	-0.128	-0.053
-209.465	532.347	-0.116	0.271
-208.450	-18.663	0.253	0.156
-207.436	42.075	-0.073	-0.065
-206.421	-88.680	0.150	0.044
-205.406	-41.829	0.330	0.168
-204.392	-19.874	-0.136	-0.083
-203.377	13.194	0.088	0.067
-202.363	19.001	0.187	0.149
-201.348	81.443	0.330	0.353
-200.333	603.516	0.029	-0.070
-199.319	-120.860	0.051	0.009
-198.304	5.033	-0.233	0.170
-197.290	-200.000	0.086	0.396
-196.275	-200.000	0.001	0.018
-195.260	6.148	-0.073	-0.053
-194.246	209.781	0.055	0.085
-193.231	-9.842	-0.275	0.181
-192.217	595.602	0.024	0.059
-191.202	-200.000	-0.035	0.194
-190.187	275.949	-0.215	-0.378
-189.173	-65.284	-0.233	-0.093
-188.158	800.000	0.108	0.345
-187.144	164.042	0.241	-0.336
-186.129	616.973	-0.053	-0.133
-185.114	86.641	0.225	-0.246
-184.100	28.992	-0.240	0.201
-183.085	-167.486	-0.362	-0.014
-182.071	51.553	0.075	0.070
-181.056	-7.642	0.206	-0.138
-180.042	30.140	-0.082	0.069
-179.027	385.258	0.052	-0.106
-178.012	-200.000	-0.043	-0.222
-176.998	-163.912	-0.423	-0.019
-175.983	-200.000	0.339	-0.000
-174.969	-32.837	0.078	-0.043
-173.954	190.381	-0.090	0.134
-172.939	800.000	0.085	0.319
-171.925	682.765	0.055	0.141
-170.910	-76.043	-0.236	-0.082
-169.896	-200.000	0.004	0.148
-168.881	417.944	0.121	-0.256
-167.866	238.328	-0.099	-0.162
-166.852	-155.125	-0.292	0.019
-165.837	-116.852	0.229	0.041
-164.823	-1.474	-0.173	0.121
-163.808	231.860	-0.110	0.179
-162.793	-200.000	0.035	0.385
-161.779	-109.234	-0.153	-0.032
-160.764	-200.000	0.031	0.135
-159.750	-63.855	0.158	0.064
-158.735	-200.000	-0.094	-0.437
-157.720	-75.482	-0.165	0.058
-156.706	206.805	0.087	-0.134
-155.691	136.405	-0.138	0.178
-154.677	-94.816	0.249	0.067
-153.662	51.778	-0.257	0.242
-152.647	-48.976	-0.221	0.104
-151.633	-44.047	0.291	0.144
-150.618	-52.675	-0.128	0.058
-149.604	176.582	-0.015	-0.022
-148.589	800.000	0.044	-0.171
-147.574	-200.000	-0.025	0.120
-146.560	-159.405	-0.085	-0.005
-145.545	-200.000	0.011	0.056
-144.531	-129.954	-0.038	0.005
-143.516	-78.331	-0.089	-0.030
-142.502	800.000	0.075	-0.238
-141.487	-200.000	0.002	0.038
-140.472	113.064	0.098	0.118
-139.458	35.499	-0.176	0.153
-138.443	585.240	0.097	-0.234
-137.429	89.875	-0.168	-0.185
-136.414	234.083	-0.114	0.186
-135.399	222.719	-0.096	0.153
-134.385	-200.000	0.044	-0.229
-133.370	67.401	0.129	-0.130
-132.356	800.000	0.040	-0.121
-131.341	-200.000	0.050	-0.242
-130.326	27.667	-0.163	-0.135
-129.312	-125.160	-0.460	-0.070
-128.297	-151.305	-0.337	-0.025
-127.283	-200.000	0.053	0.321
-126.268	-200.000	-0.001	0.286
-125.253	800.000	-0.056	0.164
-124.239	-200.000	0.042	0.229
-123.224	116.854	0.199	0.241
-122.210	143.814	-0.188	0.248
-121.195	-7.624	-0.316	-0.211
-120.180	-200.000	-0.013	0.195
-119.166	86.428	0.190	0.206
-118.151	28.730	-0.096	-0.080
-117.137	-132.302	-0.096	0.012
-116.122	90.696	-0.180	-0.199
-115.107	-177.649	-0.135	-0.003
-114.093	45.768	-0.058	0.053
-113.078	13.618	0.257	-0.197
-112.064	637.400	-0.203	-0.508
-111.049	-82.699	0.077	-0.025
-110.034	275.387	0.118	0.207
-109.020	-200.000	0.037	0.185
-108.005	-200.000	-0.013	-0.144
-106.991	800.000	0.074	0.212
-105.976	-35.228	-0.200	-0.107
-104.962	749.512	0.048	-0.127
-103.947	-50.541	-0.226	0.105
-102.932	13.068	0.182	-0.139
-101.918	-70.117	-0.192	-0.072
-100.903	37.217	-0.177	0.154
-99.889	-200.000	-0.008	-0.296
-98.874	571.271	0.044	0.106
-97.859	-0.243	-0.159	-0.111
-96.845	-154.372	0.300	-0.020
-95.830	-92.123	-0.205	0.057
-94.816	-68.244	-0.066	-0.025
-93.801	116.481	-0.160	-0.193
-92.786	-200.000	-0.006	-0.170
-91.772	-200.000	-0.002	-0.049
-90.757	-38.436	0.153	0.080
-89.743	198.741	-0.068	0.102
-88.728	-4.426	0.289	0.197
-87.713	232.968	0.078	-0.126
-86.699	-200.000	0.012	-0.261
-85.684	201.937	-0.101	-0.153
-84.670	251.671	0.219	0.367
-83.655	1.538	0.220	0.156
-82.640	27.545	-0.156	-0.129
-81.626	5.096	-0.231	-0.167
-80.611	-68.881	0.262	0.100
-79.597	-200.000	-0.020	-0.351
-78.582	-71.861	0.043	-0.016
-77.567	800.000	0.054	0.207
-76.553	-22.352	-0.156	0.093
-75.538	-200.000	-0.055	0.262
-74.524	-65.057	-0.096	0.038
-73.509	-108.093	-0.232	0.050
-72.494	-124.958	-0.242	-0.037
-71.480	36.879	0.169	-0.147
-70.465	-87.613	0.238	-0.071
-69.451	423.258	0.145	-0.306
-68.436	-200.000	-0.019	0.216
-67.422	42.136	-0.132	-0.118
-66.407	-200.000	-0.010	-0.182
-65.392	17.605	-0.139	-0.109
-64.378	37.154	0.241	-0.210
-63.363	190.449	0.136	-0.201
-62.349	-83.759	0.117	-0.037
-61.334	18.742	-0.804	-0.633
-60.319	255.249	0.495	0.834
-59.305	537.762	-0.263	-0.616
-58.290	206.692	0.618	0.948
-57.276	469.325	0.782	1.729
-56.261	-200.000	96.518	586.385
-55.246	618.303	1419.503	3507.744
-54.232	186.126	2624.280	3840.631
-53.217	112.866	2310.415	2754.310
-52.203	41.886	1924.285	1717.073
-51.188	35.659	1712.404	1480.184
-50.173	32.858	1668.306	1420.951
-49.159	51.111	1714.102	1599.435
-48.144	52.769	1729.923	1626.747
-47.130	35.322	1691.294	1459.143
-46.115	32.564	1676.960	1425.873
-45.100	32.365	1671.980	1420.079
-44.086	32.280	1669.352	1417.149
-43.071	32.272	1666.616	1414.712
-42.057	32.310	1664.378	1413.042
-41.042	32.347	1661.727	1411.012
-40.027	32.260	1660.118	1408.938
-39.013	32.295	1658.066	1407.402
-37.998	32.269	1656.681	1405.978
-36.984	32.286	1655.588	1405.122
-35.969	32.432	1653.919	1404.740
-34.954	32.541	1651.979	1403.847
-33.940	32.436	1650.221	1401.516
-32.925	32.427	1648.787	1400.175
-31.911	32.440	1646.555	1398.324
-30.896	32.305	1645.670	1396.514
-29.881	32.342	1643.580	1394.958
-28.867	32.364	1641.926	1393.662
-27.852	32.410	1640.372	1392.626
-26.838	32.435	1638.745	1391.375
-25.823	32.452	1637.406	1390.306
-24.809	32.494	1635.616	1389.046
-23.794	32.426	1634.505	1387.545
-22.779	32.528	1632.778	1386.770
-21.765	32.454	1631.334	1384.943
-20.750	32.396	1629.622	1383.014
-19.736	32.383	1628.662	1382.046
-18.721	32.501	1627.251	1381.662
-17.706	32.449	1625.414	1379.668
-16.692	32.459	1623.484	1378.049
-15.677	32.423	1622.573	1376.952
-14.663	32.423	1621.141	1375.683
-13.648	32.538	1619.363	1374.961
-12.633	32.452	1618.189	1373.285
-11.619	32.555	1616.343	1372.412
-10.604	32.422	1615.249	1370.459
-9.590	32.501	1613.871	1369.808
-8.575	32.388	1613.013	1368.209
-7.560	32.447	1611.462	1367.264
-6.546	32.441	1610.031	1365.952
-5.531	32.471	1609.043	1365.276
-4.517	32.492	1607.747	1364.277
-3.502	32.389	1606.714	1362.603
-2.487	32.522	1605.029	1362.080
-1.473	32.398	1593.752	1351.567
-0.458	29.861	1574.348	1317.024
0.556	28.607	1574.719	1284.726
1.571	26.143	1598.659	1286.601
2.586	25.075	1610.388	1288.254
3.600	21.846	1555.798	1222.011
4.615	13.533	1445.130	1080.955
5.629	6.071	1380.464	985.821
6.644	4.660	1372.196	971.029
7.659	4.653	1371.360	970.307
8.673	4.748	1370.395	970.131
9.688	4.758	1367.919	968.353
10.702	4.695	1365.617	966.247
11.717	8.145	1372.143	992.278
12.731	16.567	1388.010	1056.473
13.746	22.184	1395.803	1097.487
14.761	22.568	1396.219	1100.111
15.775	21.973	1393.206	1093.932
16.790	20.954	1390.618	1085.467
17.804	20.163	1389.004	1079.189
18.819	19.778	1387.817	1075.774
19.834	19.651	1386.683	1074.013
20.848	19.630	1385.507	1072.877
21.863	19.479	1384.148	1070.792
22.877	19.292	1383.058	1068.692
23.892	19.161	1382.383	1067.266
24.907	19.174	1381.495	1066.567
25.921	19.102	1381.003	1065.645
26.936	19.114	1379.858	1064.742
27.950	19.246	1378.787	1064.635
28.965	19.324	1377.743	1064.215
29.980	19.542	1376.636	1064.611
30.994	19.592	1375.810	1064.190
32.009	19.550	1374.935	1063.160
33.023	19.614	1373.268	1062.172
34.038	19.522	1371.917	1060.465
35.053	19.435	1370.641	1058.849
36.067	19.428	1369.662	1057.960
37.082	19.446	1368.837	1057.338
38.096	19.530	1367.969	1057.089
39.111	19.520	1367.239	1056.369
40.126	19.307	1366.620	1054.491
41.140	19.098	1365.914	1052.578
42.155	18.920	1364.781	1050.526
43.169	18.818	1364.804	1049.824
44.184	18.874	1364.091	1049.525
45.199	18.951	1363.624	1049.543
46.213	19.090	1363.669	1050.336
47.228	19.313	1362.762	1050.902
48.242	19.386	1361.722	1050.451
49.257	19.223	1360.363	1048.322
50.271	19.356	1358.530	1047.619
51.286	19.298	1357.685	1046.529
52.301	19.379	1355.869	1045.525
53.315	19.166	1355.169	1043.602
54.330	19.060	1354.131	1042.066
55.344	18.990	1353.022	1040.696
56.359	18.970	1351.792	1039.542
57.374	19.019	1351.228	1039.308
58.388	18.837	1350.535	1037.584
59.403	18.861	1349.819	1037.086
60.417	18.867	1348.965	1036.377
61.432	18.723	1347.927	1034.620
62.447	18.726	1346.838	1033.710
63.461	18.707	1345.686	1032.618
64.476	18.647	1344.486	1031.250
65.490	18.671	1343.658	1030.668
66.505	18.727	1342.181	1029.779
67.520	18.712	1341.161	1028.813
68.534	18.708	1340.051	1027.851
69.549	18.637	1339.024	1026.542
70.563	18.597	1337.854	1025.316
71.578	18.517	1337.014	1024.106
72.593	18.464	1335.789	1022.761
73.607	18.531	1335.116	1022.554
74.622	18.546	1334.356	1021.970
75.636	18.565	1333.252	1021.150
76.651	18.557	1333.048	1020.855
77.666	18.571	1332.686	1020.571
78.680	18.619	1332.197	1020.389
79.695	18.703	1331.444	1020.221
80.709	18.856	1331.167	1020.828
81.724	18.986	1329.879	1020.522
82.739	19.107	1329.080	1020.536
83.753	19.185	1328.649	1020.575
84.768	19.350	1327.462	1020.555
85.782	19.441	1326.643	1020.370
86.797	19.512	1325.330	1019.690
87.812	19.342	1324.526	1017.975
88.826	19.271	1323.350	1016.564
89.841	19.270	1322.135	1015.537
90.855	19.451	1321.227	1015.812
91.870	19.491	1320.604	1015.480
92.884	19.454	1319.741	1014.511
93.899	19.454	1319.161	1013.974
94.914	19.690	1318.265	1014.581
95.928	19.610	1317.449	1013.391
96.943	19.473	1316.309	1011.624
97.957	19.602	1315.103	1011.362
98.972	19.483	1313.988	1009.717
99.987	19.378	1313.471	1008.620
101.001	19.396	1312.765	1008.093
102.016	19.473	1311.378	1007.387
103.030	19.460	1310.325	1006.415
104.045	19.543	1309.573	1006.234
105.060	19.187	1308.511	1003.256
106.074	19.057	1306.413	1000.799
107.089	18.804	1305.231	998.337
108.103	18.737	1303.712	996.697
109.118	18.643	1302.371	995.036
110.133	18.674	1301.440	994.418
111.147	18.853	1299.483	993.868
112.162	18.870	1298.464	993.100
113.176	18.801	1297.862	992.153
114.191	18.899	1296.730	991.767
115.206	18.932	1295.411	990.860
116.220	18.833	1294.152	989.242
117.235	18.876	1293.609	988.985
118.249	18.788	1292.397	987.467
119.264	18.761	1290.727	985.945
120.279	18.672	1289.895	984.711
121.293	18.574	1288.540	983.032
122.308	18.539	1287.712	982.112
123.322	18.599	1286.466	981.419
124.337	18.469	1285.569	979.902
125.352	18.302	1284.597	978.118
126.366	18.400	1283.550	977.795
127.381	18.525	1282.254	977.438
128.395	18.522	1281.198	976.526
129.410	18.620	1280.360	976.359
130.424	18.806	1279.275	976.501
131.439	18.754	1279.005	975.918
132.454	18.759	1278.356	975.364
133.468	18.877	1277.352	975.179
134.483	18.824	1276.579	974.202
135.497	18.892	1275.588	973.744
136.512	18.898	1274.508	972.868
137.527	18.885	1273.246	971.747
138.541	19.010	1271.323	970.896
139.556	19.096	1270.488	970.659
140.570	19.140	1269.599	970.141
141.585	19.117	1268.855	969.358
142.600	19.328	1267.458	969.393
143.614	19.436	1266.816	969.422
144.629	19.363	1266.074	968.357
145.643	19.483	1264.429	967.687
146.658	19.311	1262.689	965.306
147.673	19.081	1261.569	963.076
148.687	18.971	1260.749	961.752
149.702	18.882	1259.133	959.939
150.716	18.948	1257.609	959.059
151.731	18.920	1256.292	957.813
152.746	19.049	1255.355	957.732
153.760	18.991	1254.433	956.621
154.775	19.150	1253.281	956.540
155.789	19.154	1252.158	955.622
156.804	19.199	1251.663	955.410
157.819	19.212	1250.381	954.419
158.833	19.378	1249.889	954.878
159.848	19.388	1249.510	954.558
160.862	19.507	1247.988	953.969
161.877	19.218	1246.162	950.895
162.892	19.002	1245.140	948.837
163.906	18.968	1244.319	947.943
164.921	18.988	1243.264	947.162
165.935	19.182	1242.397	947.490
166.950	19.150	1242.062	946.975
167.964	19.096	1241.417	946.102
168.979	18.963	1240.657	944.706
169.994	19.161	1239.252	944.639
171.008	19.100	1238.644	943.756
172.023	19.179	1238.103	943.694
173.037	19.376	1237.338	944.106
174.052	19.430	1236.451	943.641
175.067	19.102	1235.292	940.879
176.081	18.916	1233.694	938.568
177.096	18.997	1233.090	938.466
178.110	19.026	1232.172	937.840
179.125	19.000	1231.166	936.850
180.140	19.132	1229.823	936.467
181.154	19.286	1228.873	936.495
182.169	19.316	1228.037	935.938
183.183	19.402	1226.944	935.492
184.198	19.405	1226.054	934.745
185.213	19.451	1224.407	933.655
186.227	19.504	1223.818	933.410
187.242	19.538	1222.783	932.719
188.256	19.661	1221.622	932.416
189.271	19.588	1221.057	931.511
190.286	19.449	1219.569	929.540
191.300	19.132	1218.170	926.688
192.315	18.981	1217.477	925.266
193.329	18.980	1217.032	924.841
194.344	19.031	1216.736	924.810
195.359	19.233	1216.001	925.252
196.373	19.262	1215.827	925.192
197.388	19.380	1215.524	925.518
198.402	19.553	1215.814	926.584
199.417	19.764	1214.678	926.765
200.432	19.897	1213.988	926.872
201.446	19.964	1213.263	926.595
202.461	20.046	1212.512	926.377
203.475	19.907	1211.449	924.740
204.490	19.735	1210.019	922.648
205.504	19.614	1208.437	920.717
206.519	19.562	1207.238	919.445
207.534	19.445	1206.075	917.854
208.548	19.555	1205.400	917.844
209.563	19.525	1204.790	917.138
210.577	19.601	1203.565	916.530
211.592	19.546	1203.331	915.979
212.607	19.832	1202.525	916.798
213.621	19.808	1201.338	915.687
214.636	19.762	1200.531	914.747
215.650	19.681	1199.900	913.758
216.665	19.921	1198.686	914.020
217.680	20.014	1198.258	914.101
218.694	20.077	1197.057	913.438
219.709	20.047	1196.119	912.480
220.723	19.980	1195.718	911.741
221.738	19.912	1195.107	910.839
222.753	19.927	1194.112	910.077
223.767	20.003	1193.370	909.833
224.782	20.145	1192.837	910.090
225.796	20.232	1192.510	910.218
226.811	20.136	1191.724	909.034
227.826	19.791	1191.163	906.716
228.840	20.039	1189.779	906.881
229.855	19.780	1189.442	905.186
230.869	19.836	1188.239	904.486
231.884	20.003	1187.390	904.631
232.899	19.733	1186.503	902.466
233.913	19.702	1185.898	901.767
234.928	19.624	1185.333	900.846
235.942	19.618	1184.317	899.965
236.957	19.636	1183.508	899.364
237.972	19.695	1182.897	899.125
238.986	19.635	1182.462	898.406
240.001	19.601	1181.614	897.505
241.015	19.706	1180.737	897.303
242.030	19.766	1180.206	897.136
243.045	19.952	1179.361	897.373
244.059	19.852	1178.686	896.265
245.074	20.003	1177.477	896.047
246.088	20.086	1176.997	896.034
247.103	20.139	1176.614	895.936
248.117	20.161	1175.840	895.379
249.132	20.351	1175.659	896.146
250.147	20.629	1175.143	897.105
251.161	20.667	1174.304	896.580
252.176	20.749	1173.537	896.341
253.190	20.734	1173.229	895.947
254.205	20.877	1172.822	896.291
255.220	20.955	1171.495	895.598
256.234	20.991	1171.041	895.361
257.249	20.813	1170.270	893.774
258.263	20.870	1169.233	893.195
259.278	20.837	1168.908	892.699
260.293	20.914	1168.485	892.692
261.307	20.908	1167.864	892.111
262.322	20.988	1167.195	891.927
263.336	20.973	1166.518	891.257
264.351	20.998	1165.997	890.906
265.366	21.001	1165.297	890.307
266.380	21.083	1164.396	889.961
267.395	20.938	1163.837	888.714
268.409	20.794	1163.098	887.339
269.424	20.779	1162.163	886.471
270.439	20.783	1161.825	886.151
271.453	20.714	1160.941	885.051
272.468	20.541	1159.695	883.143
273.482	20.435	1159.088	882.066
274.497	20.549	1158.541	882.146
275.512	20.705	1157.255	881.883
276.526	20.575	1156.635	880.670
277.541	20.540	1156.443	880.270
278.555	20.650	1155.462	880.001
279.570	20.847	1154.750	880.377
280.585	21.125	1153.931	881.080
281.599	21.134	1152.727	880.126
282.614	20.879	1152.136	878.313
283.628	20.739	1150.552	876.322
284.643	20.775	1149.735	875.807
285.657	20.773	1149.111	875.243
286.672	20.900	1147.961	874.928
287.687	20.915	1146.790	874.030
288.701	20.782	1146.746	873.252
289.716	20.727	1146.083	872.394
290.730	20.746	1145.339	871.850
291.745	20.835	1144.286	871.412
292.760	20.938	1143.957	871.601
293.774	21.079	1143.423	871.821
294.789	21.175	1142.890	871.818
295.803	21.129	1142.128	870.932
296.818	20.906	1141.258	869.078
297.833	20.869	1140.599	868.313
298.847	20.847	1139.484	867.281
299.862	20.924	1138.797	867.062
300.876	20.922	1138.609	866.831
301.891	21.020	1138.046	866.816
302.906	21.173	1137.201	866.853
303.920	21.314	1136.675	867.078
304.935	21.368	1136.053	866.795
305.949	21.385	1135.830	866.632
306.964	21.467	1134.753	866.137
307.979	21.501	1133.349	865.160
308.993	21.283	1132.881	863.644
310.008	21.331	1132.689	863.662
311.022	21.479	1131.534	863.435
312.037	21.364	1130.769	862.207
313.052	21.121	1129.771	860.174
314.066	21.128	1128.397	859.082
315.081	21.034	1127.281	857.697
316.095	20.986	1126.662	856.915
317.110	21.015	1126.131	856.576
318.125	21.053	1125.535	856.235
319.139	20.952	1124.536	854.905
320.154	20.981	1124.221	854.732
321.168	20.975	1123.848	854.340
322.183	20.990	1122.964	853.666
323.197	20.971	1122.552	853.188
324.212	21.145	1121.731	853.338
325.227	21.114	1121.063	852.601
326.241	21.232	1120.500	852.674
327.256	21.117	1119.664	851.403
328.270	21.019	1118.448	849.924
329.285	21.009	1117.758	849.274
330.300	21.067	1116.966	848.879
331.314	21.105	1115.831	848.128
332.329	21.082	1115.003	847.314
333.343	21.078	1114.046	846.489
334.358	21.457	1113.030	847.478
335.373	21.285	1112.730	846.342
336.387	21.426	1111.933	846.346
337.402	21.358	1111.425	845.553
338.416	21.466	1110.992	845.673
339.431	21.542	1110.248	845.396
340.446	21.614	1110.031	845.508
341.460	21.835	1108.894	845.630
342.475	21.855	1108.340	845.232
343.489	21.851	1107.351	844.384
344.504	21.968	1106.381	844.130
345.519	21.998	1105.638	843.635
346.533	22.056	1104.811	843.206
347.548	22.124	1104.584	843.285
348.562	21.949	1103.698	841.693
349.577	21.783	1102.712	840.072
350.592	21.650	1101.484	838.425
351.606	21.470	1100.857	837.014
352.621	21.366	1100.348	836.056
353.635	21.443	1099.163	835.449
354.650	21.514	1098.439	835.161
355.665	21.466	1098.119	834.616
356.679	21.582	1097.352	834.512
357.694	21.678	1096.834	834.504
358.708	21.716	1096.320	834.219
359.723	21.771	1096.159	834.282
360.738	21.686	1095.167	833.053
361.752	21.701	1094.525	832.562
362.767	21.720	1093.929	832.122
363.781	21.840	1093.298	832.138
364.796	21.959	1092.924	832.344
365.810	22.083	1092.315	832.394
366.825	22.203	1091.938	832.602
367.840	22.255	1091.558	832.483
368.854	22.359	1090.868	832.375
369.869	22.381	1089.597	831.439
370.883	22.172	1089.365	830.198
371.898	22.137	1088.296	829.146
372.913	22.141	1087.788	828.706
373.927	22.197	1087.389	828.591
374.942	22.205	1086.958	828.230
375.956	22.286	1086.034	827.830
376.971	22.267	1085.426	827.206
377.986	22.212	1085.300	826.776
379.000	22.422	1084.675	827.216
380.015	22.491	1083.984	826.938
381.029	22.536	1083.370	826.608
382.044	22.533	1082.668	825.985
383.059	22.531	1081.636	825.116
384.073	22.448	1081.180	824.306
385.088	22.468	1080.316	823.669
386.102	22.442	1079.175	822.606
387.117	22.250	1078.216	820.903
388.132	22.029	1077.320	819.121
389.146	22.111	1076.453	818.771
390.161	22.078	1075.547	817.852
391.175	22.141	1074.659	817.399
392.190	22.306	1074.310	817.830
393.205	22.314	1073.909	817.488
394.219	22.262	1073.197	816.633
395.234	22.196	1072.107	815.425
396.248	22.236	1070.896	814.619
397.263	22.147	1070.137	813.555
398.278	22.098	1069.106	812.472
399.292	22.035	1068.459	811.621
400.307	21.894	1067.620	810.257
401.321	21.956	1066.736	809.804
402.336	22.055	1066.267	809.832
403.350	22.053	1065.525	809.185
404.365	22.132	1064.937	809.030
405.380	22.197	1064.128	808.646
406.394	22.215	1063.775	808.387
407.409	22.412	1062.955	808.599
408.423	22.539	1062.575	808.820
409.438	22.737	1061.667	808.964
410.453	22.734	1061.154	808.490
411.467	22.617	1060.974	807.743
412.482	22.719	1060.177	807.532
413.496	22.838	1059.122	807.202
414.511	22.915	1058.891	807.307
415.526	23.074	1058.533	807.688
416.540	23.026	1058.138	807.097
417.555	22.975	1057.767	806.509
418.569	22.847	1057.131	805.371
419.584	22.870	1056.255	804.735
420.599	22.927	1055.733	804.526
421.613	155.591	1401.202	1793.375
422.628	142.959	1451.538	1793.496
