DTS Sentinel unit serial number:	SN413079Multiplexer serial number:	ORYXHardware model number:	OX4-SRSoftware version number:	ORYX F/W v4.00 Oryx Data Collector v3.7.2.0data status	okinstallation	princeton_trtdifferential loss correction	single-endedforward channel	channel 2reverse channel	N/Adate	2019/09/16time	12:27:34forward acquisition time	60.00reverse acquisition time	0.00gamma	496.2192k internal	0.2303k external	0.2303temperature offset calibration	0.9947default loss term (dB/km)	0.3790temperature slope calibration	1.0000multiplexer offset coefficient	1.0000multiplexer slope coefficient	1.0000fibre end	0.00T internal ref (°C)	39.50T ext. ref 1 (°C)	13.35T ext. ref 2 (°C)	36.85length (m)	temperature (°C)	Stokes	anti-Stokes-747.200	-200.000	-0.042	0.310
-746.185	-200.000	-0.002	0.086
-745.171	-85.271	0.029	-0.009
-744.156	569.925	0.199	0.494
-743.142	666.187	0.122	-0.321
-742.127	800.000	0.135	0.526
-741.112	266.226	-0.123	-0.218
-740.098	87.758	-0.067	0.076
-739.083	-179.800	0.244	0.005
-738.069	131.199	0.089	0.116
-737.054	85.959	0.132	0.148
-736.039	114.839	-0.258	-0.321
-735.025	-68.466	0.389	-0.154
-734.010	-200.000	0.018	0.086
-732.996	117.205	-0.139	0.174
-731.981	-64.662	-0.056	-0.023
-730.966	-16.246	0.065	-0.042
-729.952	-61.895	0.078	0.033
-728.937	-110.813	-0.359	0.075
-727.923	47.116	-0.343	-0.325
-726.908	-1.112	-0.262	-0.189
-725.894	160.531	0.168	0.239
-724.879	155.762	0.041	0.057
-723.864	-200.000	0.022	-0.345
-722.850	-200.000	-0.001	-0.020
-721.835	800.000	0.069	0.211
-720.821	73.104	-0.262	0.279
-719.806	-200.000	0.008	0.222
-718.791	42.767	0.117	0.108
-717.777	157.039	0.125	0.176
-716.762	-145.416	-0.130	0.012
-715.748	-60.075	-0.221	-0.096
-714.733	-79.930	-0.180	0.061
-713.718	-88.227	-0.204	0.062
-712.704	800.000	-0.103	0.347
-711.689	459.470	-0.154	-0.348
-710.675	-71.041	0.051	-0.020
-709.660	-138.385	0.131	0.015
-708.645	-200.000	-0.044	0.267
-707.631	-200.000	0.004	-0.132
-706.616	47.743	-0.280	-0.266
-705.602	16.871	0.165	-0.133
-704.587	424.252	0.041	0.090
-703.572	-125.950	0.243	-0.037
-702.558	93.214	0.210	0.242
-701.543	-67.725	-0.101	-0.040
-700.529	38.838	-0.118	0.108
-699.514	-34.064	-0.138	0.077
-698.499	333.538	-0.109	0.215
-697.485	-92.789	0.263	0.075
-696.470	-122.817	-0.206	0.034
-695.456	507.540	-0.022	0.052
-694.441	800.000	-0.109	0.326
-693.426	-47.037	-0.299	0.148
-692.412	800.000	0.021	-0.086
-691.397	151.591	0.148	0.205
-690.383	25.396	-0.256	-0.217
-689.368	-200.000	-0.033	0.257
-688.354	323.488	0.046	0.090
-687.339	334.677	-0.078	0.154
-686.324	137.384	-0.014	-0.018
-685.310	-200.000	-0.016	0.151
-684.295	-5.627	-0.239	0.166
-683.281	333.642	-0.191	-0.376
-682.266	-200.000	-0.001	-0.023
-681.251	68.496	-0.182	-0.190
-680.237	-67.960	0.293	-0.116
-679.222	-129.739	-0.136	-0.019
-678.208	49.075	-0.194	-0.185
-677.193	-75.893	0.365	0.131
-676.178	-200.000	-0.018	0.367
-675.164	411.688	0.214	0.462
-674.149	-200.000	0.004	-0.227
-673.135	-200.000	0.062	-0.462
-672.120	-200.000	-0.042	0.222
-671.105	28.364	0.256	0.220
-670.091	186.322	-0.120	-0.181
-669.076	-103.675	-0.491	-0.117
-668.062	356.424	0.114	0.230
-667.047	-200.000	0.044	-0.204
-666.032	-21.583	0.130	-0.081
-665.018	-119.733	0.091	-0.016
-664.003	-200.000	-0.025	-0.140
-662.989	-88.001	0.171	0.052
-661.974	-17.957	-0.333	-0.212
-660.959	-200.000	0.018	-0.209
-659.945	-61.514	0.102	-0.043
-658.930	-0.714	-0.132	-0.095
-657.916	-76.216	0.298	0.107
-656.901	192.200	0.075	0.115
-655.886	0.472	-0.114	0.083
-654.872	99.553	-0.082	-0.096
-653.857	7.591	-0.079	-0.060
-652.843	-23.477	-0.101	-0.062
-651.828	134.497	0.109	0.144
-650.814	800.000	0.057	-0.180
-649.799	800.000	0.016	0.056
-648.784	-5.655	-0.351	-0.244
-647.770	323.875	0.085	-0.165
-646.755	223.739	0.131	-0.215
-645.741	-200.000	-0.026	0.136
-644.726	139.509	0.068	0.091
-643.711	-112.798	-0.278	-0.056
-642.697	-98.548	-0.369	-0.096
-641.682	800.000	-0.048	-0.161
-640.668	800.000	0.082	-0.306
-639.653	158.590	-0.149	-0.209
-638.638	-107.495	0.274	-0.061
-637.624	195.886	0.133	0.206
-636.609	-85.291	0.229	-0.073
-635.595	0.611	0.231	0.167
-634.580	710.152	0.040	0.107
-633.565	-200.000	0.022	-0.126
-632.551	27.457	0.153	-0.131
-631.536	-200.000	0.017	-0.161
-630.522	254.015	0.153	-0.265
-629.507	573.031	0.079	0.195
-628.492	-2.333	0.407	0.289
-627.478	-108.043	0.314	0.069
-626.463	-200.000	-0.009	0.208
-625.449	-200.000	0.019	-0.120
-624.434	-19.904	-0.298	-0.187
-623.419	-3.977	0.358	-0.251
-622.405	108.944	0.040	0.049
-621.390	-76.963	-0.191	-0.068
-620.376	-24.633	0.130	-0.079
-619.361	800.000	-0.012	-0.046
-618.346	-152.773	0.282	0.020
-617.332	800.000	0.098	-0.407
-616.317	-58.649	0.322	-0.141
-615.303	-30.829	0.155	0.089
-614.288	81.937	0.245	0.269
-613.273	800.000	0.026	-0.077
-612.259	-152.600	-0.071	0.005
-611.244	800.000	-0.052	0.161
-610.230	-128.452	0.011	-0.002
-609.215	464.338	-0.069	0.156
-608.201	72.535	0.083	-0.088
-607.186	-200.000	-0.025	0.142
-606.171	800.000	-0.060	0.191
-605.157	124.271	-0.112	-0.143
-604.142	-200.000	0.043	0.205
-603.128	101.465	0.141	-0.166
-602.113	800.000	-0.016	0.045
-601.098	-65.578	-0.135	-0.055
-600.084	147.896	0.124	0.169
-599.069	27.143	-0.172	0.146
-598.055	367.276	-0.166	0.340
-597.040	-79.739	-0.128	-0.044
-596.025	-200.000	0.057	-0.300
-595.011	-55.153	-0.263	0.120
-593.996	-168.781	-0.202	-0.008
-592.982	-200.000	0.003	-0.202
-591.967	-200.000	-0.175	-0.000
-590.952	619.912	-0.093	0.238
-589.938	-123.585	-0.211	0.034
-588.923	141.857	0.142	0.191
-587.909	-102.300	0.483	-0.117
-586.894	800.000	0.009	0.034
-585.879	31.604	0.248	-0.216
-584.865	-37.929	0.243	0.131
-583.850	-88.019	-0.215	-0.065
-582.836	-200.000	-0.020	-0.117
-581.821	-200.000	0.018	0.116
-580.806	67.642	0.149	-0.154
-579.792	-200.000	0.037	0.175
-578.777	0.750	-0.177	0.129
-577.763	103.005	0.027	-0.032
-576.748	-146.699	0.164	0.014
-575.733	56.668	0.248	-0.244
-574.719	-43.365	-0.165	0.084
-573.704	531.560	-0.026	-0.062
-572.690	-182.877	0.205	0.004
-571.675	-101.666	-0.240	0.059
-570.661	-200.000	0.031	-0.443
-569.646	317.917	-0.135	0.258
-568.631	77.747	0.102	-0.109
-567.617	-143.453	-0.408	0.039
-566.602	-200.000	-0.008	0.255
-565.588	74.578	-0.147	0.156
-564.573	-176.631	-0.178	0.005
-563.558	344.517	-0.074	0.146
-562.544	96.123	0.152	-0.176
-561.529	-98.272	-0.425	-0.110
-560.515	-106.890	-0.367	-0.082
-559.500	27.396	0.078	0.066
-558.485	800.000	0.037	-0.123
-557.471	206.587	-0.217	-0.341
-556.456	-92.527	0.306	0.087
-555.442	28.851	0.164	0.141
-554.427	-200.000	0.018	0.359
-553.412	50.620	0.183	-0.175
-552.398	-60.056	-0.221	-0.095
-551.383	12.747	0.077	0.061
-550.369	99.740	0.073	-0.086
-549.354	37.413	-0.185	-0.166
-548.339	496.027	0.137	0.319
-547.325	110.293	0.081	-0.098
-546.310	-52.309	-0.430	0.202
-545.296	-200.000	-0.008	-0.082
-544.281	423.724	-0.161	0.349
-543.266	-200.000	0.008	0.251
-542.252	116.909	0.174	-0.216
-541.237	-75.871	0.183	-0.065
-540.223	333.347	0.226	-0.442
-539.208	-72.549	0.261	0.097
-538.193	-0.190	0.092	-0.066
-537.179	38.480	-0.214	0.192
-536.164	-55.390	-0.101	-0.046
-535.150	-92.646	-0.232	-0.066
-534.135	-31.675	0.285	-0.162
-533.121	-154.839	-0.140	0.009
-532.106	50.554	-0.128	0.123
-531.091	67.352	-0.155	0.160
-530.077	-52.107	-0.300	-0.141
-529.062	800.000	0.059	-0.205
-528.048	-21.274	-0.045	-0.028
-527.033	800.000	0.035	-0.144
-526.018	127.766	-0.138	-0.178
-525.004	-32.624	-0.074	-0.042
-523.989	-32.386	0.105	0.059
-522.975	800.000	0.061	-0.189
-521.960	800.000	-0.052	0.197
-520.945	-70.936	-0.435	0.165
-519.931	-188.752	-0.217	0.003
-518.916	-17.019	-0.053	-0.034
-517.902	-64.220	0.130	0.054
-516.887	-6.065	-0.295	-0.203
-515.872	75.304	0.156	-0.166
-514.858	585.450	0.126	0.313
-513.843	132.028	-0.050	-0.065
-512.829	-55.446	0.367	-0.166
-511.814	234.399	-0.138	0.229
-510.799	-200.000	-0.016	0.267
-509.785	513.877	0.177	0.416
-508.770	352.818	0.046	-0.093
-507.756	-98.243	-0.564	-0.146
-506.741	103.407	-0.128	0.151
-505.726	-68.792	-0.318	0.124
-504.712	199.894	0.233	0.361
-503.697	-179.422	-0.180	-0.004
-502.683	73.365	0.025	0.027
-501.668	-80.462	0.105	-0.035
-500.653	139.094	-0.176	-0.233
-499.639	179.129	0.118	0.175
-498.624	-135.171	0.134	0.016
-497.610	800.000	-0.120	0.472
-496.595	-74.127	0.227	-0.083
-495.581	45.219	-0.198	0.184
-494.566	800.000	-0.051	-0.190
-493.551	-122.696	0.136	-0.022
-492.537	-125.412	0.085	-0.013
-491.522	-5.394	0.212	-0.147
-490.508	-53.520	-0.130	-0.060
-489.493	162.734	0.172	0.243
-488.478	-39.885	0.079	0.042
-487.464	-40.120	-0.183	0.096
-486.449	7.895	-0.170	0.129
-485.435	-200.000	-0.009	0.096
-484.420	508.547	-0.136	0.317
-483.405	-138.994	0.183	0.020
-482.391	-138.967	-0.186	0.020
-481.376	-128.952	-0.069	0.010
-480.362	-200.000	0.018	-0.097
-479.347	-105.342	0.271	0.062
-478.332	-200.000	-0.022	-0.326
-477.318	-121.744	-0.202	-0.034
-476.303	800.000	-0.050	0.179
-475.289	-95.919	0.482	-0.129
-474.274	370.191	0.078	0.160
-473.259	-40.040	-0.345	0.181
-472.245	-43.828	-0.091	0.046
-471.230	-90.512	-0.105	0.031
-470.216	-128.121	-0.099	0.014
-469.201	231.619	-0.286	-0.472
-468.186	800.000	0.078	-0.319
-467.172	144.977	-0.145	-0.196
-466.157	-200.000	0.013	0.409
-465.143	-73.998	0.157	0.057
-464.128	800.000	-0.069	0.216
-463.113	-200.000	0.087	0.393
-462.099	459.522	0.041	-0.091
-461.084	136.896	0.158	0.208
-460.070	-55.322	-0.100	0.045
-459.055	-27.029	-0.267	-0.157
-458.040	725.319	-0.060	-0.162
-457.026	-21.536	0.275	-0.169
-456.011	-164.340	0.168	-0.008
-454.997	-49.593	-0.326	0.156
-453.982	514.914	0.043	0.102
-452.968	800.000	-0.015	-0.045
-451.953	18.118	-0.153	0.123
-450.938	-200.000	-0.011	-0.449
-449.924	-200.000	0.042	0.226
-448.909	-116.890	-0.325	-0.060
-447.895	-9.189	-0.009	0.006
-446.880	-200.000	0.007	0.267
-445.865	-154.550	0.612	-0.041
-444.851	-91.721	-0.271	0.078
-443.836	-200.000	-0.001	-0.034
-442.822	192.033	0.061	-0.093
-441.807	-169.240	0.331	-0.012
-440.792	28.867	0.256	-0.219
-439.778	87.957	0.142	-0.158
-438.763	-200.000	0.012	-0.186
-437.749	666.636	-0.036	-0.093
-436.734	-151.385	-0.115	-0.009
-435.719	800.000	-0.100	0.389
-434.705	-200.000	0.000	-0.062
-433.690	351.612	0.154	-0.307
-432.676	61.745	-0.034	-0.034
-431.661	-55.163	-0.205	0.093
-430.646	-69.212	0.151	0.058
-429.632	-84.447	0.166	0.053
-428.617	-200.000	-0.009	0.317
-427.603	85.510	-0.157	0.173
-426.588	338.239	0.095	0.187
-425.573	-30.337	0.283	0.162
-424.559	-200.000	0.013	0.074
-423.544	-57.857	-0.222	-0.098
-422.530	800.000	0.074	-0.279
-421.515	-200.000	-0.005	-0.217
-420.500	-2.056	-0.025	0.018
-419.486	-167.187	0.044	-0.002
-418.471	-50.310	-0.222	-0.106
-417.457	135.794	-0.126	-0.165
-416.442	538.652	-0.077	-0.185
-415.428	114.574	-0.078	0.096
-414.413	-12.691	0.197	0.129
-413.398	365.721	0.030	0.060
-412.384	350.009	0.093	0.184
-411.369	50.244	-0.085	-0.080
-410.355	-111.546	-0.256	-0.052
-409.340	-9.221	0.100	0.067
-408.325	-93.018	-0.195	0.055
-407.311	-81.606	-0.501	0.165
-406.296	33.124	-0.080	0.070
-405.282	448.817	-0.046	0.101
-404.267	-200.000	-0.052	-0.318
-403.252	57.720	0.307	-0.302
-402.238	-109.105	-0.274	0.059
-401.223	16.799	0.206	0.164
-400.209	-1.205	0.072	-0.051
-399.194	-28.862	0.064	-0.037
-398.179	42.339	-0.291	-0.266
-397.165	249.990	-0.052	-0.089
-396.150	131.988	0.116	-0.150
-395.136	103.411	0.082	0.096
-394.121	-200.000	-0.008	0.392
-393.106	-113.806	-0.256	0.050
-392.092	213.191	0.067	-0.107
-391.077	18.503	0.174	0.140
-390.063	-92.160	-0.258	-0.073
-389.048	-94.726	-0.119	0.032
-388.033	0.043	0.001	-0.001
-387.019	569.227	0.009	-0.023
-386.004	52.077	-0.077	0.074
-384.990	800.000	-0.081	-0.338
-383.975	-200.000	-0.002	0.083
-382.960	-114.564	-0.229	0.044
-381.946	800.000	-0.109	0.315
-380.931	800.000	-0.023	0.076
-379.917	587.270	-0.006	-0.015
-378.902	7.183	-0.428	0.321
-377.888	2.317	0.019	0.014
-376.873	-113.733	0.406	-0.079
-375.858	80.593	-0.114	0.123
-374.844	-6.210	0.264	0.181
-373.829	-43.490	-0.289	-0.147
-372.815	-54.646	-0.274	-0.124
-371.800	9.474	-0.079	0.060
-370.785	-200.000	-0.072	-0.330
-369.771	11.315	0.095	-0.073
-368.756	-200.000	-0.002	0.249
-367.742	571.195	-0.084	0.205
-366.727	108.093	-0.108	0.129
-365.712	269.265	-0.053	0.093
-364.698	800.000	0.059	-0.191
-363.683	-200.000	-0.026	0.282
-362.669	-89.518	0.123	-0.036
-361.654	-200.000	-0.031	0.239
-360.639	79.288	-0.165	0.177
-359.625	-120.148	0.525	-0.090
-358.610	-6.578	-0.036	0.025
-357.596	160.566	-0.137	-0.191
-356.581	-83.023	0.118	-0.038
-355.566	-92.739	0.503	-0.141
-354.552	47.359	-0.222	-0.207
-353.537	-200.000	0.005	0.291
-352.523	-200.000	-0.021	-0.306
-351.508	800.000	0.163	-0.502
-350.493	-11.982	0.268	-0.176
-349.479	-66.922	0.229	-0.091
-348.464	-200.000	-0.004	0.165
-347.450	364.988	-0.123	-0.248
-346.435	-23.318	-0.052	0.031
-345.420	55.655	-0.174	0.169
-344.406	-18.078	-0.262	0.165
-343.391	101.427	-0.161	-0.188
-342.377	-70.161	-0.121	-0.046
-341.362	242.024	-0.051	-0.085
-340.348	530.214	-0.116	0.275
-339.333	612.166	-0.123	-0.308
-338.318	111.549	0.206	0.249
-337.304	-114.568	0.169	-0.032
-336.289	61.556	0.068	-0.067
-335.275	-200.000	0.012	0.210
-334.260	-122.922	-0.268	-0.043
-333.245	-82.889	0.224	-0.072
-332.231	221.407	0.029	0.046
-331.216	-120.947	-0.324	-0.055
-330.202	-78.735	-0.107	0.036
-329.187	-92.269	-0.149	-0.042
-328.172	13.797	-0.087	0.068
-327.158	345.315	0.105	-0.207
-326.143	172.651	0.053	-0.076
-325.129	275.617	0.063	0.113
-324.114	-200.000	-0.070	0.321
-323.099	-139.329	0.256	0.028
-322.085	195.935	0.176	0.269
-321.070	28.327	-0.191	-0.162
-320.056	-46.626	-0.260	-0.128
-319.041	70.916	-0.163	-0.169
-318.026	-74.682	-0.089	-0.032
-317.012	-200.000	0.039	0.235
-315.997	221.166	-0.255	0.411
-314.983	-200.000	-0.000	0.374
-313.968	205.781	-0.207	-0.322
-312.953	-54.704	-0.282	-0.128
-311.939	-2.531	-0.131	0.092
-310.924	204.755	0.243	-0.377
-309.910	800.000	-0.033	-0.099
-308.895	800.000	-0.028	-0.083
-307.880	-107.582	0.522	0.114
-306.866	800.000	0.041	-0.146
-305.851	800.000	-0.086	0.307
-304.837	-200.000	-0.034	-0.195
-303.822	72.683	0.132	-0.138
-302.807	-118.040	0.394	0.070
-301.793	-86.561	0.204	0.063
-300.778	5.034	0.166	0.122
-299.764	74.908	-0.077	0.081
-298.749	242.953	-0.187	0.314
-297.735	-200.000	-0.010	0.268
-296.720	-200.000	-0.060	-0.279
-295.705	800.000	-0.025	0.105
-294.691	13.763	-0.133	-0.104
-293.676	128.813	0.112	-0.143
-292.662	-152.818	0.056	-0.004
-291.647	185.358	-0.125	-0.186
-290.632	-152.219	-0.198	-0.014
-289.618	800.000	-0.055	0.198
-288.603	-200.000	-0.041	-0.339
-287.589	-200.000	0.065	-0.333
-286.574	-152.034	0.214	0.016
-285.559	-200.000	-0.013	-0.091
-284.545	-6.240	0.152	-0.104
-283.530	-129.835	0.314	0.043
-282.516	4.935	-0.084	-0.062
-281.501	-91.593	0.219	0.062
-280.486	22.476	0.249	0.204
-279.472	112.787	0.160	-0.193
-278.457	800.000	-0.033	-0.103
-277.443	-200.000	0.011	-0.165
-276.428	154.491	-0.063	-0.086
-275.413	92.752	0.078	-0.088
-274.399	380.451	0.168	0.345
-273.384	800.000	0.024	0.082
-272.370	-200.000	0.067	0.317
-271.355	-129.560	-0.332	0.046
-270.340	-200.000	0.018	-0.196
-269.326	800.000	0.031	0.130
-268.311	-152.497	-0.238	-0.017
-267.297	383.134	-0.106	-0.218
-266.282	96.320	0.206	-0.235
-265.267	-151.815	-0.451	-0.033
-264.253	390.016	-0.123	0.255
-263.238	-200.000	-0.065	-0.351
-262.224	-74.622	0.058	-0.021
-261.209	-200.000	-0.008	-0.051
-260.195	800.000	0.108	-0.311
-259.180	252.936	-0.188	-0.320
-258.165	-83.413	0.355	0.114
-257.151	390.268	-0.156	0.323
-256.136	47.937	0.147	-0.137
-255.122	54.148	-0.125	-0.121
-254.107	-75.888	0.180	0.064
-253.092	180.011	0.175	0.257
-252.078	12.426	-0.150	0.116
-251.063	-21.311	-0.075	0.046
-250.049	-149.942	-0.076	0.006
-249.034	247.154	0.154	-0.260
-248.019	-92.990	-0.060	0.017
-247.005	123.037	-0.136	0.170
-245.990	-48.068	-0.214	-0.103
-244.976	355.224	-0.131	-0.260
-243.961	605.481	0.176	0.438
-242.946	-200.000	0.005	-0.107
-241.932	-125.451	0.203	0.031
-240.917	8.242	-0.136	-0.102
-239.903	-200.000	-0.017	-0.109
-238.888	-32.746	0.110	0.061
-237.873	304.235	-0.104	-0.192
-236.859	-200.000	0.011	-0.127
-235.844	-200.000	0.003	0.142
-234.830	-200.000	-0.008	0.119
-233.815	-129.804	-0.401	0.055
-232.800	800.000	0.118	-0.413
-231.786	-200.000	-0.037	-0.250
-230.771	800.000	-0.039	0.123
-229.757	-49.063	0.145	0.069
-228.742	-182.703	-0.328	-0.006
-227.727	236.087	-0.105	0.174
-226.713	-200.000	0.013	0.104
-225.698	-89.302	-0.307	-0.090
-224.684	116.613	0.154	0.188
-223.669	-31.325	0.007	-0.004
-222.655	76.481	-0.324	-0.343
-221.640	-47.957	-0.483	-0.233
-220.625	209.009	-0.074	-0.115
-219.611	-200.000	0.048	-0.409
-218.596	-200.000	-0.038	-0.374
-217.582	-200.000	0.053	0.237
-216.567	683.066	0.049	0.127
-215.552	108.455	-0.123	0.147
-214.538	-63.342	0.108	0.044
-213.523	800.000	-0.084	0.304
-212.509	87.717	-0.121	0.134
-211.494	48.628	0.148	-0.139
-210.479	-85.559	0.389	-0.121
-209.465	243.605	-0.125	-0.209
-208.450	-149.216	-0.125	-0.010
-207.436	-82.340	0.263	0.085
-206.421	-128.179	0.225	0.032
-205.406	287.911	0.155	-0.280
-204.392	-117.478	0.157	0.028
-203.377	-200.000	-0.024	0.384
-202.363	279.573	0.117	0.208
-201.348	-115.469	0.153	0.029
-200.333	-200.000	-0.034	0.261
-199.319	-200.000	0.011	0.116
-198.304	-200.000	0.064	0.337
-197.290	-200.000	-0.019	-0.242
-196.275	400.468	-0.098	-0.206
-195.260	22.744	-0.185	-0.151
-194.246	-30.074	-0.172	-0.097
-193.231	-86.597	-0.164	-0.050
-192.217	69.834	0.157	0.161
-191.202	190.640	0.048	-0.072
-190.187	-200.000	-0.027	-0.203
-189.173	-200.000	0.046	-0.416
-188.158	482.338	0.036	0.080
-187.144	800.000	-0.064	0.230
-186.129	15.016	0.123	0.096
-185.114	103.844	-0.054	-0.063
-184.100	-76.180	-0.173	0.061
-183.085	-87.662	0.482	-0.145
-182.071	26.736	0.250	-0.208
-181.056	230.283	0.205	0.335
-180.042	75.218	0.037	0.039
-179.027	-17.135	-0.143	0.090
-178.012	285.707	-0.274	-0.493
-176.998	-124.018	0.186	-0.029
-175.983	-162.579	0.309	-0.015
-174.969	-86.323	0.178	0.054
-173.954	-87.748	0.124	0.037
-172.939	113.187	0.162	0.196
-171.925	-200.000	-0.045	0.237
-170.910	800.000	-0.113	0.409
-169.896	-2.019	0.147	0.103
-168.881	-24.426	0.245	0.145
-167.866	-96.163	-0.064	0.017
-166.852	-2.644	0.222	0.155
-165.837	65.912	-0.187	-0.189
-164.823	-14.152	-0.200	0.129
-163.808	-98.283	-0.281	0.072
-162.793	-87.930	0.194	0.058
-161.779	-28.622	0.359	-0.206
-160.764	158.949	0.143	0.197
-159.750	-168.393	0.457	0.017
-158.735	-6.607	0.237	0.161
-157.720	79.538	0.171	0.182
-156.706	186.973	0.168	-0.250
-155.691	-93.350	0.205	-0.057
-154.677	800.000	-0.027	-0.102
-153.662	6.249	0.162	0.120
-152.647	-13.775	0.236	0.152
-151.633	-200.000	0.015	-0.410
-150.618	-127.496	-0.234	-0.034
-149.604	-128.849	0.137	-0.019
-148.589	-1.603	-0.326	-0.229
-147.574	180.105	0.163	-0.237
-146.560	780.241	-0.064	-0.175
-145.545	614.353	-0.003	-0.008
-144.531	139.702	-0.059	-0.077
-143.516	37.726	0.103	-0.091
-142.502	-169.090	0.037	0.001
-141.487	-131.962	-0.291	-0.038
-140.472	-200.000	-0.007	0.101
-139.458	53.414	-0.221	-0.210
-138.443	800.000	0.017	0.063
-137.429	185.089	-0.186	0.275
-136.414	52.033	-0.227	0.215
-135.399	800.000	-0.122	-0.375
-134.385	-200.000	0.008	-0.173
-133.370	-54.262	0.097	-0.044
-132.356	181.371	-0.158	-0.231
-131.341	-200.000	0.025	-0.177
-130.326	-128.524	-0.220	0.031
-129.312	-200.000	-0.004	-0.121
-128.297	-200.000	0.034	-0.229
-127.283	-200.000	0.012	0.072
-126.268	-152.620	0.454	0.032
-125.253	-80.489	0.273	0.090
-124.239	-200.000	0.060	0.371
-123.224	89.462	-0.070	0.077
-122.210	-200.000	0.016	0.455
-121.195	96.674	0.077	-0.088
-120.180	-196.204	0.105	-0.001
-119.166	149.882	-0.121	-0.164
-118.151	-200.000	-0.006	-0.059
-117.137	-35.193	0.473	-0.256
-116.122	86.408	-0.111	0.122
-115.107	380.498	-0.129	0.263
-114.093	195.827	-0.042	-0.063
-113.078	260.744	-0.133	-0.228
-112.064	116.661	-0.245	0.299
-111.049	-41.942	0.296	0.151
-110.034	-102.194	0.249	-0.059
-109.020	-107.745	-0.348	-0.076
-108.005	-189.159	0.428	0.005
-106.991	-200.000	0.011	0.064
-105.976	203.712	-0.142	-0.219
-104.962	87.905	0.124	0.136
-103.947	-109.759	0.215	0.045
-102.932	800.000	-0.020	-0.060
-101.918	-7.351	-0.132	-0.089
-100.903	41.457	0.122	-0.110
-99.889	-200.000	0.006	0.459
-98.874	-200.000	-0.006	0.202
-97.859	-200.000	0.032	-0.181
-96.845	6.671	-0.115	0.085
-95.830	-108.028	-0.098	0.021
-94.816	53.140	-0.135	-0.128
-93.801	800.000	0.044	-0.162
-92.786	-75.699	0.379	-0.134
-91.772	131.509	-0.113	0.144
-90.757	-108.673	-0.152	0.032
-89.743	77.206	0.094	-0.100
-88.728	-123.740	-0.327	0.051
-87.713	239.546	0.055	0.091
-86.699	-39.509	0.246	-0.128
-85.684	129.246	-0.154	-0.195
-84.670	-59.261	0.097	-0.042
-83.655	-60.309	-0.107	-0.045
-82.640	475.441	-0.052	0.118
-81.626	-105.878	0.235	0.053
-80.611	-200.000	-0.008	0.167
-79.597	-200.000	0.049	-0.318
-78.582	-27.636	-0.156	0.090
-77.567	800.000	0.104	0.383
-76.553	377.395	0.199	-0.404
-75.538	-122.082	0.145	-0.024
-74.524	577.997	-0.108	0.262
-73.509	19.665	-0.267	0.213
-72.494	89.077	0.072	0.079
-71.480	-83.737	-0.109	-0.034
-70.465	-200.000	-0.108	-0.475
-69.451	7.961	0.108	-0.080
-68.436	188.097	-0.016	-0.024
-67.422	-30.352	0.054	-0.031
-66.407	-200.000	-0.016	-0.308
-65.392	76.500	-0.031	0.033
-64.378	46.991	-0.219	-0.202
-63.363	-50.548	0.035	0.016
-62.349	161.795	0.123	0.170
-61.334	43.063	-0.694	-0.628
-60.319	-63.663	0.408	0.166
-59.305	-200.000	0.087	-0.592
-58.290	47.223	0.546	0.505
-57.276	-200.000	0.339	1.825
-56.261	-200.000	77.499	509.112
-55.246	496.829	1352.505	3084.801
-54.232	143.511	2603.505	3437.907
-53.217	106.719	2379.593	2799.800
-52.203	48.405	1988.573	1846.144
-51.188	42.696	1771.333	1599.160
-50.173	39.971	1724.642	1535.805
-49.159	53.858	1761.264	1677.536
-48.144	58.406	1779.833	1730.813
-47.130	42.694	1742.278	1572.666
-46.115	39.583	1728.294	1535.789
-45.100	39.397	1723.625	1530.136
-44.086	39.416	1720.724	1527.652
-43.071	39.375	1718.545	1525.336
-42.057	39.285	1716.403	1522.680
-41.042	39.371	1714.028	1521.171
-40.027	39.383	1712.179	1519.561
-39.013	39.282	1710.331	1517.084
-37.998	39.337	1708.844	1516.129
-36.984	39.431	1706.840	1515.013
-35.969	39.426	1705.472	1513.705
-34.954	39.573	1703.234	1512.787
-33.940	39.485	1701.631	1510.627
-32.925	39.510	1699.461	1508.831
-31.911	39.530	1697.752	1507.407
-30.896	39.447	1696.309	1505.428
-29.881	39.543	1694.045	1504.094
-28.867	39.513	1692.470	1502.409
-27.852	39.512	1691.415	1501.405
-26.838	39.531	1689.467	1499.761
-25.823	39.539	1688.259	1498.692
-24.809	39.589	1687.060	1497.945
-23.794	39.617	1685.403	1496.629
-22.779	39.536	1684.192	1494.877
-21.765	39.491	1682.413	1492.897
-20.750	39.515	1680.714	1491.512
-19.736	39.482	1679.521	1490.145
-18.721	39.534	1677.935	1489.072
-17.706	39.492	1676.416	1487.351
-16.692	39.527	1674.667	1486.006
-15.677	39.502	1673.397	1484.632
-14.663	39.570	1671.493	1483.389
-13.648	39.573	1670.160	1482.171
-12.633	39.485	1668.768	1480.214
-11.619	39.488	1667.036	1478.646
-10.604	39.547	1665.376	1477.558
-9.590	39.574	1664.184	1476.644
-8.575	39.581	1662.892	1475.491
-7.560	39.504	1661.540	1473.652
-6.546	39.534	1660.580	1472.966
-5.531	39.467	1658.941	1470.957
-4.517	39.519	1658.005	1470.459
-3.502	39.474	1657.120	1469.278
-2.487	39.592	1655.502	1468.663
-1.473	39.582	1644.377	1458.661
-0.458	37.213	1625.107	1424.157
0.556	31.294	1624.077	1389.135
1.571	28.542	1648.288	1388.914
2.586	27.372	1662.021	1391.428
3.600	25.166	1610.629	1331.920
4.615	19.577	1502.827	1203.818
5.629	14.584	1437.143	1117.732
6.644	13.424	1428.085	1102.862
7.659	13.378	1426.470	1101.213
8.673	13.317	1426.061	1100.391
9.688	13.281	1423.752	1098.271
10.702	13.089	1421.285	1094.997
11.717	15.381	1425.807	1113.619
12.731	19.680	1433.021	1147.772
13.746	19.965	1431.641	1148.454
14.761	17.571	1426.707	1128.548
15.775	16.386	1422.895	1117.605
16.790	15.317	1419.942	1108.122
17.804	14.405	1417.926	1100.433
18.819	13.954	1415.613	1095.566
19.834	13.549	1414.479	1091.923
20.848	13.339	1412.996	1089.299
21.863	13.102	1411.674	1086.621
22.877	13.068	1410.268	1085.222
23.892	12.888	1409.446	1083.307
24.907	12.900	1408.737	1082.748
25.921	12.981	1407.640	1082.337
26.936	13.029	1406.931	1082.014
27.950	12.951	1406.177	1080.824
28.965	13.043	1404.805	1080.280
29.980	13.079	1403.641	1079.521
30.994	13.161	1402.460	1079.057
32.009	13.212	1401.354	1078.442
33.023	13.156	1400.066	1076.989
34.038	13.141	1398.747	1075.783
35.053	13.072	1397.170	1074.027
36.067	13.086	1396.251	1073.314
37.082	13.026	1395.349	1072.135
38.096	13.112	1394.487	1071.936
39.111	13.060	1393.306	1070.597
40.126	12.991	1392.587	1069.506
41.140	13.000	1391.610	1068.715
42.155	12.944	1390.999	1067.791
43.169	12.949	1390.666	1067.476
44.184	12.841	1391.130	1067.038
45.199	12.912	1389.997	1066.534
46.213	13.024	1389.299	1066.628
47.228	12.976	1388.765	1065.812
48.242	13.091	1387.107	1065.186
49.257	13.013	1386.178	1063.873
50.271	12.964	1384.563	1062.228
51.286	12.978	1383.264	1061.229
52.301	12.946	1382.143	1060.068
53.315	12.996	1380.727	1059.210
54.330	12.930	1379.460	1057.719
55.344	12.871	1378.414	1056.447
56.359	12.894	1377.617	1055.890
57.374	12.891	1376.405	1054.847
58.388	12.890	1375.367	1053.950
59.403	12.812	1375.238	1053.260
60.417	12.806	1374.288	1052.399
61.432	12.738	1373.507	1051.277
62.447	12.809	1372.461	1050.835
63.461	12.790	1370.896	1049.425
64.476	12.742	1370.338	1048.595
65.490	12.805	1368.999	1047.883
66.505	12.771	1367.176	1046.175
67.520	12.851	1366.062	1045.740
68.534	12.866	1365.049	1044.967
69.549	12.731	1364.497	1043.597
70.563	12.869	1362.919	1043.171
71.578	12.785	1361.931	1041.791
72.593	12.774	1360.883	1040.826
73.607	12.663	1360.280	1039.570
74.622	12.708	1359.548	1039.208
75.636	12.827	1358.477	1039.045
76.651	12.782	1357.808	1038.157
77.666	12.773	1357.192	1037.541
78.680	12.749	1356.828	1037.015
79.695	12.710	1356.263	1036.246
80.709	12.767	1355.152	1035.666
81.724	12.800	1354.913	1035.600
82.739	12.873	1353.698	1035.040
83.753	12.931	1352.834	1034.648
84.768	13.029	1351.505	1034.153
85.782	12.966	1350.837	1033.156
86.797	12.965	1348.813	1031.512
87.812	13.027	1347.336	1030.679
88.826	13.018	1346.218	1029.678
89.841	12.971	1345.267	1028.568
90.855	13.044	1344.341	1028.220
91.870	12.961	1343.765	1027.175
92.884	13.113	1342.462	1027.031
93.899	12.979	1342.148	1025.870
94.914	13.092	1341.080	1025.663
95.928	13.187	1339.869	1025.232
96.943	13.178	1338.889	1024.335
97.957	13.122	1338.585	1023.665
98.972	13.133	1336.980	1022.418
99.987	13.173	1335.661	1021.565
101.001	13.031	1335.019	1020.106
102.016	13.028	1334.069	1019.272
103.030	13.042	1332.849	1018.336
104.045	13.095	1331.470	1017.519
105.060	12.973	1330.580	1015.996
106.074	12.958	1329.430	1014.936
107.089	12.868	1327.945	1013.160
108.103	12.797	1326.670	1011.664
109.118	12.835	1325.035	1010.558
110.133	12.872	1323.752	1009.719
111.147	12.892	1322.283	1008.631
112.162	12.917	1321.195	1007.866
113.176	12.940	1320.007	1007.010
114.191	12.861	1319.385	1005.964
115.206	12.925	1317.974	1005.190
116.220	13.035	1316.218	1004.428
117.235	12.983	1315.295	1003.323
118.249	12.890	1314.454	1002.023
119.264	12.921	1312.851	1000.902
120.279	12.955	1311.866	1000.270
121.293	12.769	1311.099	998.471
122.308	12.847	1309.858	997.909
123.322	12.929	1308.265	997.099
124.337	12.838	1307.888	996.177
125.352	12.816	1306.256	994.709
126.366	12.825	1305.712	994.264
127.381	12.856	1304.619	993.532
128.395	12.839	1303.709	992.647
129.410	12.813	1302.740	991.665
130.424	12.894	1301.635	991.221
131.439	12.869	1300.984	990.488
132.454	12.923	1299.547	989.633
133.468	13.084	1298.650	989.825
134.483	12.978	1298.121	988.700
135.497	13.052	1296.859	988.095
136.512	13.043	1295.549	986.955
137.527	12.945	1294.631	985.584
138.541	13.045	1293.391	985.147
139.556	13.009	1291.740	983.591
140.570	13.152	1290.675	983.544
141.585	13.166	1289.008	982.268
142.600	13.166	1288.052	981.453
143.614	13.174	1287.277	980.825
144.629	13.146	1286.553	980.019
145.643	13.136	1285.160	978.811
146.658	13.196	1283.562	977.863
147.673	13.036	1282.289	975.859
148.687	13.062	1280.994	974.944
149.702	12.954	1279.712	973.243
150.716	12.975	1278.521	972.376
151.731	12.909	1277.702	971.278
152.746	12.947	1276.355	970.395
153.760	13.106	1274.913	970.145
154.775	13.082	1273.793	969.064
155.789	13.125	1272.379	968.156
156.804	13.093	1271.832	967.466
157.819	13.167	1270.304	966.654
158.833	13.273	1269.320	966.439
159.848	13.174	1268.605	965.228
160.862	13.261	1267.771	965.019
161.877	13.146	1266.503	963.297
162.892	13.171	1264.893	962.131
163.906	13.159	1264.435	961.628
164.921	13.071	1263.769	960.525
165.935	13.126	1262.165	959.542
166.950	13.173	1261.774	959.430
167.964	13.204	1261.306	959.173
168.979	13.238	1259.794	958.131
169.994	13.190	1259.515	957.557
171.008	13.285	1258.842	957.511
172.023	13.260	1257.970	956.618
173.037	13.339	1257.338	956.512
174.052	13.248	1256.316	955.122
175.067	13.464	1254.537	954.931
176.081	13.286	1254.038	953.440
177.096	13.252	1253.248	952.558
178.110	13.290	1251.900	951.671
179.125	13.311	1250.767	950.846
180.140	13.241	1249.857	949.665
181.154	13.349	1248.373	949.077
182.169	13.412	1247.028	948.330
183.183	13.376	1246.336	947.514
184.198	13.398	1244.940	946.493
185.213	13.380	1243.424	945.155
186.227	13.486	1242.210	944.751
187.242	13.555	1241.520	944.540
188.256	13.580	1240.243	943.624
189.271	13.552	1239.490	942.812
190.286	13.382	1238.548	941.043
191.300	13.318	1237.594	939.869
192.315	13.329	1236.785	939.235
193.329	13.251	1236.145	938.224
194.344	13.311	1235.507	937.997
195.359	13.372	1234.675	937.628
196.373	13.467	1234.146	937.683
197.388	13.397	1234.470	937.447
198.402	13.597	1233.455	937.724
199.417	13.691	1232.845	937.712
200.432	13.739	1231.836	937.134
201.446	13.667	1231.133	936.108
202.461	13.758	1229.787	935.517
203.475	13.804	1228.923	935.031
204.490	13.718	1227.761	933.583
205.504	13.690	1226.454	932.349
206.519	13.698	1225.186	931.346
207.534	13.656	1224.206	930.286
208.548	13.690	1222.756	929.291
209.563	13.618	1222.518	928.623
210.577	13.659	1221.550	928.035
211.592	13.747	1220.483	927.638
212.607	13.857	1219.315	927.281
213.621	13.784	1218.981	926.537
214.636	13.807	1217.772	925.665
215.650	13.823	1216.819	924.950
216.665	13.810	1216.067	924.223
217.680	13.880	1214.993	923.713
218.694	13.878	1214.426	923.192
219.709	13.850	1213.319	922.112
220.723	13.932	1212.601	921.938
221.738	13.870	1212.241	921.239
222.753	13.863	1211.412	920.490
223.767	13.958	1210.581	920.302
224.782	14.031	1209.902	920.109
225.796	14.044	1209.210	919.575
226.811	14.039	1208.400	918.846
227.826	14.128	1207.556	918.616
228.840	13.994	1206.882	917.284
229.855	13.954	1206.661	916.812
230.869	14.004	1205.603	916.206
231.884	14.012	1204.488	915.321
232.899	13.963	1203.785	914.432
233.913	13.898	1203.231	913.574
234.928	14.000	1201.702	912.896
235.942	13.976	1201.242	912.332
236.957	13.892	1200.946	911.564
237.972	14.081	1199.622	911.517
238.986	14.074	1198.829	910.795
240.001	14.006	1198.838	910.349
241.015	14.033	1197.436	909.353
242.030	14.052	1196.510	908.669
243.045	14.187	1195.410	908.493
244.059	14.198	1194.812	908.016
245.074	14.156	1194.187	907.231
246.088	14.161	1193.191	906.424
247.103	14.203	1192.483	906.033
248.117	14.293	1191.551	905.733
249.132	14.277	1190.972	905.128
250.147	14.313	1190.825	905.131
251.161	14.477	1189.723	905.104
252.176	14.469	1188.848	904.313
253.190	14.447	1188.400	903.775
254.205	14.439	1188.118	903.435
255.220	14.651	1186.836	903.532
256.234	14.575	1186.290	902.625
257.249	14.511	1186.091	902.044
258.263	14.541	1185.324	901.543
259.278	14.600	1184.241	900.962
260.293	14.659	1183.530	900.655
261.307	14.699	1183.323	900.636
262.322	14.747	1182.320	900.054
263.336	14.677	1182.053	899.392
264.351	14.704	1181.179	898.793
265.366	14.724	1180.617	898.391
266.380	14.743	1179.793	897.787
267.395	14.677	1178.650	896.484
268.409	14.686	1178.208	896.119
269.424	14.624	1177.537	895.193
270.439	14.636	1177.133	894.871
271.453	14.594	1176.488	894.077
272.468	14.658	1175.104	893.288
273.482	14.701	1174.245	892.786
274.497	14.614	1174.179	892.192
275.512	14.686	1173.271	891.812
276.526	14.621	1172.844	891.059
277.541	14.777	1171.531	890.817
278.555	14.807	1170.796	890.336
279.570	14.915	1170.102	890.307
280.585	14.952	1169.360	889.861
281.599	14.855	1168.471	888.587
282.614	14.913	1167.287	887.919
283.628	14.939	1166.176	887.131
284.643	14.870	1165.477	886.156
285.657	14.869	1164.415	885.266
286.672	14.937	1163.410	884.785
287.687	14.849	1162.592	883.614
288.701	14.987	1161.795	883.659
289.716	15.004	1160.762	882.885
290.730	15.031	1160.006	882.378
291.745	14.899	1159.827	881.464
292.760	14.962	1158.841	880.971
293.774	14.993	1158.639	880.901
294.789	15.040	1157.919	880.526
295.803	15.131	1157.212	880.389
296.818	14.991	1156.828	879.282
297.833	15.067	1155.187	878.355
298.847	15.147	1154.437	878.128
299.862	15.068	1153.971	877.279
300.876	14.989	1153.680	876.569
301.891	15.092	1152.784	876.348
302.906	15.112	1151.877	875.684
303.920	15.096	1151.134	874.960
304.935	15.246	1150.444	875.142
305.949	15.303	1149.632	874.745
306.964	15.361	1149.094	874.557
307.979	15.302	1148.268	873.548
308.993	15.217	1147.544	872.476
310.008	15.292	1147.177	872.510
311.022	15.422	1146.090	872.283
312.037	15.397	1145.285	871.459
313.052	15.268	1144.233	869.913
314.066	15.326	1143.442	869.538
315.081	15.254	1142.606	868.449
316.095	15.287	1141.978	868.071
317.110	15.282	1141.042	867.252
318.125	15.467	1139.943	867.296
319.139	15.176	1139.576	865.440
320.154	15.263	1138.987	865.365
321.168	15.208	1138.656	864.750
322.183	15.316	1137.832	864.608
323.197	15.359	1137.358	864.393
324.212	15.389	1136.896	864.116
325.227	15.292	1136.480	863.227
326.241	15.398	1135.683	863.088
327.256	15.389	1134.528	862.091
328.270	15.359	1133.456	861.045
329.285	15.465	1132.195	860.556
330.300	15.381	1131.443	859.475
331.314	15.390	1130.864	859.007
332.329	15.335	1130.168	858.118
333.343	15.450	1129.129	857.846
334.358	15.510	1127.862	857.108
335.373	15.557	1127.329	856.871
336.387	15.583	1126.492	856.291
337.402	15.557	1125.616	855.417
338.416	15.615	1124.955	855.132
339.431	15.652	1124.517	854.913
340.446	15.749	1123.614	854.645
341.460	15.682	1122.999	853.759
342.475	15.809	1122.019	853.584
343.489	15.918	1120.979	853.268
344.504	15.890	1120.361	852.582
345.519	15.899	1119.390	851.814
346.533	15.957	1118.594	851.425
347.548	15.927	1117.761	850.564
348.562	15.949	1116.873	849.924
349.577	15.874	1116.390	849.104
350.592	15.768	1115.802	848.045
351.606	15.793	1114.729	847.280
352.621	15.698	1114.180	846.311
353.635	15.756	1113.427	845.955
354.650	15.745	1112.780	845.333
355.665	15.806	1112.023	844.989
356.679	15.788	1111.254	844.241
357.694	15.911	1110.552	844.249
358.708	15.953	1109.996	843.961
359.723	15.985	1109.149	843.402
360.738	15.936	1108.764	842.792
361.752	15.925	1108.198	842.233
362.767	16.047	1107.581	842.296
363.781	16.087	1106.579	841.663
364.796	15.975	1106.373	840.874
365.810	16.157	1105.801	841.268
366.825	16.136	1105.068	840.534
367.840	16.161	1104.867	840.430
368.854	16.038	1104.414	839.401
369.869	16.126	1103.331	838.938
370.883	16.168	1102.274	838.271
371.898	16.122	1101.189	837.142
372.913	16.222	1101.003	837.424
373.927	16.281	1100.572	837.315
374.942	16.165	1099.929	836.176
375.956	16.310	1099.187	836.258
376.971	16.311	1098.418	835.602
377.986	16.328	1097.769	835.119
379.000	16.363	1097.631	835.112
380.015	16.449	1096.864	834.878
381.029	16.483	1096.211	834.476
382.044	16.369	1095.557	833.342
383.059	16.393	1094.672	832.714
384.073	16.379	1093.925	832.003
385.088	16.415	1092.922	831.346
386.102	16.521	1092.087	831.158
387.117	16.463	1090.980	829.955
388.132	16.367	1090.162	828.789
389.146	16.268	1089.609	827.807
390.161	16.369	1088.781	827.605
391.175	16.329	1088.201	826.895
392.190	16.371	1087.487	826.483
393.205	16.472	1086.558	826.197
394.219	16.555	1085.510	825.735
395.234	16.528	1084.717	824.923
396.248	16.525	1083.719	824.078
397.263	16.418	1082.603	822.635
398.278	16.429	1081.842	822.037
399.292	16.509	1081.312	821.952
400.307	16.415	1080.545	820.841
401.321	16.515	1079.747	820.645
402.336	16.400	1079.284	819.663
403.350	16.381	1079.035	819.311
404.365	16.443	1078.049	818.787
405.380	16.538	1077.393	818.677
406.394	16.591	1076.366	818.081
407.409	16.590	1075.536	817.372
408.423	16.663	1074.917	817.183
409.438	16.755	1074.351	817.125
410.453	16.730	1073.506	816.288
411.467	16.802	1072.779	816.010
412.482	16.820	1071.796	815.279
413.496	16.789	1071.041	814.480
414.511	16.916	1070.614	814.697
415.526	16.922	1070.658	814.684
416.540	16.993	1069.841	814.331
417.555	16.869	1069.318	813.269
418.569	16.946	1068.679	813.078
419.584	16.975	1068.236	812.809
420.599	16.923	1067.710	812.087
421.613	88.286	1303.670	1389.841
422.628	81.601	1338.070	1389.960
