DTS Sentinel unit serial number:	SN413079Multiplexer serial number:	ORYXHardware model number:	OX4-SRSoftware version number:	ORYX F/W v4.00 Oryx Data Collector v3.7.2.0data status	okinstallation	princeton_trtdifferential loss correction	single-endedforward channel	channel 2reverse channel	N/Adate	2019/09/13time	11:35:35forward acquisition time	60.00reverse acquisition time	0.00gamma	496.2192k internal	0.2319k external	0.2319temperature offset calibration	1.0197default loss term (dB/km)	0.3790temperature slope calibration	1.0000multiplexer offset coefficient	1.0000multiplexer slope coefficient	1.0000fibre end	0.00T internal ref (°C)	32.91T ext. ref 1 (°C)	4.41T ext. ref 2 (°C)	30.10length (m)	temperature (°C)	Stokes	anti-Stokes-747.200	29.567	0.111	0.096
-746.185	800.000	-0.147	0.513
-745.171	-186.834	0.121	-0.002
-744.156	800.000	0.098	0.396
-743.142	-200.000	0.009	-0.106
-742.127	646.671	0.123	0.318
-741.112	800.000	-0.096	0.313
-740.098	-99.834	0.320	0.081
-739.083	109.043	0.236	-0.285
-738.069	38.192	-0.120	-0.108
-737.054	-53.615	-0.352	-0.163
-736.039	575.030	-0.026	-0.065
-735.025	77.038	-0.043	0.046
-734.010	-200.000	-0.049	-0.303
-732.996	179.796	0.024	0.035
-731.981	-100.049	-0.236	0.060
-730.966	-200.000	0.011	0.090
-729.952	-200.000	-0.076	-0.000
-728.937	589.817	-0.078	0.195
-727.923	800.000	0.065	0.239
-726.908	370.335	-0.068	-0.139
-725.894	-126.164	-0.254	-0.039
-724.879	-33.462	-0.178	-0.099
-723.864	-66.334	0.310	-0.125
-722.850	800.000	-0.027	-0.084
-721.835	-200.000	-0.005	-0.230
-720.821	800.000	0.062	-0.263
-719.806	242.844	-0.216	-0.365
-718.791	800.000	-0.152	0.499
-717.777	-200.000	0.027	0.158
-716.762	-62.085	-0.288	-0.121
-715.748	-200.000	0.006	-0.056
-714.733	-47.402	0.395	-0.194
-713.718	-27.452	-0.121	-0.071
-712.704	-200.000	0.035	0.164
-711.689	181.351	0.079	0.117
-710.675	358.303	-0.095	-0.192
-709.660	42.254	-0.240	-0.221
-708.645	-37.929	0.408	0.219
-707.631	-33.483	-0.254	0.142
-706.616	391.325	-0.016	0.033
-705.602	-200.000	0.009	0.152
-704.587	314.760	0.122	0.231
-703.572	195.579	-0.227	-0.349
-702.558	-58.497	-0.255	0.112
-701.543	210.026	0.202	0.320
-700.529	176.486	0.163	0.240
-699.514	74.857	0.246	-0.262
-698.499	800.000	0.090	-0.253
-697.485	8.190	0.140	-0.106
-696.470	-69.561	-0.115	0.045
-695.456	172.667	-0.162	0.236
-694.441	187.388	0.072	0.108
-693.426	-126.849	-0.116	-0.017
-692.412	-200.000	-0.029	0.209
-691.397	4.531	0.240	-0.178
-690.383	-136.799	-0.304	0.035
-689.368	-200.000	-0.045	-0.401
-688.354	157.635	-0.101	-0.141
-687.339	-100.056	-0.153	-0.039
-686.324	-178.239	-0.022	-0.001
-685.310	-123.251	0.164	-0.027
-684.295	800.000	0.049	-0.155
-683.281	643.834	-0.006	-0.015
-682.266	312.245	-0.067	0.127
-681.251	-112.226	-0.417	-0.085
-680.237	-200.000	0.062	-0.345
-679.222	314.614	-0.111	-0.211
-678.208	148.059	-0.071	-0.097
-677.193	-54.512	-0.102	0.047
-676.178	-139.461	-0.395	0.043
-675.164	-96.500	0.035	0.009
-674.149	506.119	-0.029	-0.067
-673.135	-52.758	0.175	0.081
-672.120	72.518	-0.221	0.232
-671.105	-125.095	0.029	-0.004
-670.091	12.223	0.164	0.127
-669.076	-136.038	-0.034	0.004
-668.062	522.890	0.045	-0.106
-667.047	-200.000	-0.016	0.327
-666.032	-2.203	0.152	0.107
-665.018	-77.644	-0.137	-0.048
-664.003	157.740	-0.320	-0.447
-662.989	-33.553	0.277	-0.154
-661.974	-55.472	0.170	-0.077
-660.959	764.015	-0.039	0.108
-659.945	-126.684	-0.158	-0.024
-658.930	-200.000	-0.035	0.218
-657.916	-104.001	0.079	-0.019
-656.901	354.853	0.120	-0.241
-655.886	800.000	-0.032	-0.122
-654.872	198.458	0.088	-0.135
-653.857	-50.407	0.068	0.032
-652.843	-200.000	0.006	-0.144
-651.828	-200.000	-0.039	-0.233
-650.814	-151.451	-0.278	0.021
-649.799	285.652	-0.010	-0.019
-648.784	-118.878	-0.282	0.050
-647.770	35.910	-0.128	-0.113
-646.755	318.267	0.073	-0.139
-645.741	-150.597	-0.201	-0.016
-644.726	1.274	-0.266	0.193
-643.711	715.862	0.113	-0.303
-642.697	18.051	-0.103	-0.083
-641.682	246.864	0.224	0.381
-640.668	39.434	-0.386	0.348
-639.653	-147.338	-0.296	-0.025
-638.638	406.999	-0.050	0.106
-637.624	800.000	-0.048	-0.167
-636.609	344.028	0.153	-0.302
-635.595	-29.628	0.112	0.065
-634.580	37.534	0.215	0.192
-633.565	-119.721	-0.174	0.030
-632.551	800.000	0.054	-0.177
-631.536	210.857	-0.166	0.264
-630.522	-17.306	0.304	-0.193
-629.507	-95.504	-0.246	-0.067
-628.492	-34.982	0.127	0.070
-627.478	672.167	-0.124	0.323
-626.463	-65.574	-0.187	0.075
-625.449	125.984	-0.248	0.316
-624.434	21.570	-0.164	-0.134
-623.419	558.490	-0.076	-0.185
-622.405	-159.479	-0.080	0.004
-621.390	-29.955	-0.035	-0.020
-620.376	-200.000	-0.005	-0.132
-619.361	-17.458	-0.067	0.042
-618.346	-49.927	0.107	0.051
-617.332	402.325	-0.103	-0.218
-616.317	-14.033	-0.164	0.106
-615.303	-200.000	0.006	-0.189
-614.288	551.012	0.100	0.242
-613.273	-57.694	-0.189	-0.083
-612.259	800.000	0.026	-0.110
-611.244	-200.000	0.009	0.283
-610.230	138.610	-0.144	0.191
-609.215	-108.530	-0.277	-0.060
-608.201	-153.626	0.273	-0.019
-607.186	-200.000	-0.005	0.249
-606.171	800.000	-0.044	0.148
-605.157	27.847	0.158	0.134
-604.142	-56.200	-0.258	-0.116
-603.128	-200.000	-0.001	-0.236
-602.113	365.507	0.109	-0.221
-601.098	-200.000	-0.036	0.227
-600.084	-125.411	0.369	0.057
-599.069	-156.027	-0.115	-0.007
-598.055	-181.773	0.360	-0.007
-597.040	-200.000	-0.002	-0.497
-596.025	91.620	0.110	0.124
-595.011	-105.700	-0.179	-0.041
-593.996	740.958	-0.027	0.073
-592.982	800.000	-0.013	0.040
-591.967	800.000	0.019	-0.052
-590.952	-93.457	0.186	0.052
-589.938	-6.375	-0.571	-0.392
-588.923	24.975	0.079	-0.066
-587.909	86.472	0.050	-0.055
-586.894	42.540	0.187	-0.171
-585.879	68.105	0.139	-0.143
-584.865	800.000	-0.075	0.238
-583.850	-65.820	-0.333	-0.134
-582.836	72.877	-0.087	0.092
-581.821	84.926	0.073	-0.081
-580.806	-132.081	0.254	0.033
-579.792	-93.191	0.135	0.038
-578.777	27.158	0.226	-0.190
-577.763	679.587	-0.038	0.100
-576.748	535.323	-0.080	-0.191
-575.733	-33.338	-0.281	-0.156
-574.719	-185.423	-0.072	-0.001
-573.704	144.815	-0.193	0.260
-572.690	-200.000	-0.060	0.400
-571.675	-200.000	-0.006	-0.052
-570.661	800.000	0.096	-0.271
-569.646	-77.482	-0.113	-0.039
-568.631	-100.203	-0.229	-0.057
-567.617	800.000	-0.064	0.192
-566.602	-120.568	-0.168	0.029
-565.588	-129.691	-0.355	-0.049
-564.573	76.501	-0.284	-0.303
-563.558	27.086	-0.160	-0.135
-562.544	315.497	0.074	-0.140
-561.529	-19.297	-0.409	-0.255
-560.515	-132.021	-0.272	0.036
-559.500	800.000	-0.040	-0.125
-558.485	177.278	0.077	-0.112
-557.471	-200.000	0.015	0.204
-556.456	-105.165	-0.236	0.054
-555.442	5.452	-0.169	0.126
-554.427	-9.947	0.104	0.070
-553.412	63.088	-0.108	-0.108
-552.398	248.799	-0.123	0.209
-551.383	-39.083	-0.153	0.081
-550.369	720.380	0.090	-0.239
-549.354	-103.562	0.274	0.065
-548.339	254.865	-0.091	0.157
-547.325	-65.758	0.148	-0.060
-546.310	-129.029	-0.110	0.016
-545.296	-200.000	-0.086	0.466
-544.281	13.363	0.088	0.068
-543.266	-200.000	-0.020	-0.208
-542.252	800.000	-0.099	0.349
-541.237	182.969	-0.046	0.068
-540.223	111.410	-0.117	0.141
-539.208	42.309	0.112	0.102
-538.193	-70.983	-0.246	-0.093
-537.179	-200.000	0.003	0.081
-536.164	-181.743	0.365	-0.007
-535.150	3.265	-0.135	-0.098
-534.135	-102.301	0.056	-0.014
-533.121	-200.000	-0.023	-0.153
-532.106	145.276	0.065	0.087
-531.091	-70.016	-0.052	-0.020
-530.077	253.106	0.175	0.300
-529.062	800.000	-0.063	-0.193
-528.048	-111.444	-0.194	0.040
-527.033	-97.813	-0.315	-0.082
-526.018	-154.039	0.297	-0.020
-525.004	201.036	-0.233	-0.360
-523.989	47.660	0.121	0.114
-522.975	68.175	-0.080	0.083
-521.960	282.270	0.187	-0.336
-520.945	-103.272	0.264	-0.063
-519.931	100.728	0.317	-0.369
-518.916	-33.266	0.208	0.115
-517.902	-84.151	0.142	0.045
-516.887	-14.561	0.128	-0.083
-515.872	-135.694	-0.033	-0.004
-514.858	405.664	-0.052	-0.111
-513.843	-18.474	-0.153	0.096
-512.829	252.464	0.243	0.415
-511.814	-200.000	-0.004	-0.030
-510.799	-200.000	0.012	-0.153
-509.785	159.388	-0.146	-0.204
-508.770	-191.728	-0.311	-0.003
-507.756	800.000	-0.056	0.223
-506.741	350.256	0.097	-0.192
-505.726	-96.485	-0.146	-0.039
-504.712	744.378	0.080	0.217
-503.697	22.797	-0.383	-0.314
-502.683	84.537	-0.096	0.105
-501.668	-116.503	0.179	0.033
-500.653	-42.630	0.189	0.097
-499.639	58.195	0.078	-0.077
-498.624	17.912	0.182	0.145
-497.610	-13.663	0.188	-0.122
-496.595	36.525	0.188	-0.166
-495.581	-56.284	0.151	-0.067
-494.566	503.236	0.158	-0.367
-493.551	-1.298	-0.233	-0.165
-492.537	800.000	0.009	0.031
-491.522	-170.064	0.019	0.001
-490.508	732.258	0.030	-0.080
-489.493	385.156	0.065	0.134
-488.478	-200.000	0.041	-0.263
-487.464	310.121	-0.226	-0.424
-486.449	-136.847	-0.107	0.012
-485.435	97.678	0.147	-0.169
-484.420	59.364	0.063	-0.062
-483.405	274.708	0.069	-0.123
-482.391	-44.728	0.023	0.012
-481.376	-96.243	-0.242	-0.064
-480.362	-26.847	0.207	-0.121
-479.347	-85.295	-0.037	0.012
-478.332	177.484	0.081	0.118
-477.318	-39.848	0.074	0.039
-476.303	-165.913	-0.058	-0.002
-475.289	-53.827	-0.281	0.128
-474.274	-86.558	0.075	-0.023
-473.259	-200.000	-0.091	-0.412
-472.245	-28.184	-0.087	0.050
-471.230	-200.000	0.003	0.087
-470.216	20.288	0.064	-0.052
-469.201	-52.517	0.358	0.165
-468.186	-200.000	0.005	0.143
-467.172	800.000	0.131	-0.413
-466.157	-200.000	-0.023	-0.175
-465.143	-200.000	0.388	-0.000
-464.128	-131.364	-0.366	-0.048
-463.113	798.421	0.066	-0.181
-462.099	-180.077	0.173	-0.004
-461.084	29.387	0.081	-0.069
-460.070	54.388	0.162	-0.156
-459.055	180.364	0.099	0.145
-458.040	800.000	0.039	0.145
-457.026	-29.816	0.130	-0.074
-456.011	-200.000	0.036	0.415
-454.997	-127.855	-0.236	-0.034
-453.982	79.767	0.171	0.184
-452.968	-78.778	0.329	0.112
-451.953	-22.135	0.252	-0.153
-450.938	-200.000	-0.100	0.000
-449.924	-37.443	-0.204	-0.109
-448.909	127.170	-0.279	-0.354
-447.895	-14.922	-0.142	-0.091
-446.880	258.831	0.184	0.317
-445.865	-0.425	-0.241	-0.171
-444.851	656.270	0.064	0.164
-443.836	-38.067	0.389	-0.206
-442.822	477.026	0.176	-0.398
-441.807	598.364	-0.072	0.179
-440.792	-96.268	0.183	0.049
-439.778	37.619	-0.132	0.117
-438.763	800.000	-0.095	-0.355
-437.749	53.218	-0.281	0.269
-436.734	244.382	-0.144	-0.242
-435.719	800.000	0.017	0.072
-434.705	196.924	-0.120	0.182
-433.690	120.970	0.258	0.321
-432.676	-54.118	-0.145	-0.066
-431.661	60.892	-0.196	0.194
-430.646	800.000	0.064	0.248
-429.632	-185.403	0.438	0.007
-428.617	118.721	0.009	-0.011
-427.603	-83.708	0.079	0.025
-426.588	296.691	-0.091	0.167
-425.573	-200.000	-0.047	0.390
-424.559	800.000	-0.064	-0.231
-423.544	523.746	0.107	-0.251
-422.530	132.144	0.018	0.024
-421.515	458.681	-0.066	-0.147
-420.500	184.651	0.034	-0.050
-419.486	-18.480	-0.217	0.135
-418.471	134.995	0.160	-0.207
-417.457	-60.269	0.235	-0.100
-416.442	-49.298	-0.398	-0.190
-415.428	-46.363	0.167	-0.082
-414.413	-127.276	-0.313	-0.046
-413.398	-6.812	0.181	-0.123
-412.384	-21.736	0.114	-0.069
-411.369	167.348	-0.023	-0.032
-410.355	-46.605	-0.050	0.025
-409.340	-200.000	-0.387	0.002
-408.325	-57.767	0.346	-0.151
-407.311	-200.000	-0.041	0.366
-406.296	381.703	-0.121	-0.249
-405.282	-200.000	-0.009	-0.151
-404.267	-200.000	0.023	0.215
-403.252	-200.000	0.047	-0.245
-402.238	-33.774	0.032	0.018
-401.223	-42.267	0.376	-0.191
-400.209	163.893	0.067	-0.094
-399.194	-200.000	-0.038	-0.206
-398.179	-200.000	0.003	-0.125
-397.165	-200.000	0.000	-0.101
-396.150	-200.000	0.034	0.159
-395.136	-200.000	0.041	0.271
-394.121	-99.665	0.107	0.027
-393.106	-58.457	-0.069	-0.030
-392.092	-120.295	0.086	-0.015
-391.077	0.415	-0.155	-0.110
-390.063	-121.847	-0.368	0.061
-389.048	-134.053	-0.268	0.033
-388.033	800.000	-0.027	0.113
-387.019	15.974	-0.302	-0.237
-386.004	-200.000	0.019	-0.149
-384.990	109.486	0.185	-0.221
-383.975	-200.000	-0.021	0.091
-382.960	539.422	0.125	-0.297
-381.946	-72.267	0.182	-0.067
-380.931	-200.000	-0.008	-0.041
-379.917	13.283	-0.166	-0.129
-378.902	-167.619	0.149	-0.006
-377.888	-200.000	0.032	0.280
-376.873	25.514	0.138	-0.115
-375.858	28.991	-0.114	-0.096
-374.844	-0.693	0.255	0.181
-373.829	-59.334	0.120	-0.052
-372.815	-57.925	-0.297	0.130
-371.800	800.000	0.051	-0.206
-370.785	-200.000	-0.007	-0.071
-369.771	-62.690	-0.100	0.041
-368.756	41.839	-0.212	0.192
-367.742	800.000	0.033	0.129
-366.727	-35.914	-0.219	-0.118
-365.712	209.610	-0.013	0.020
-364.698	800.000	-0.090	0.262
-363.683	800.000	0.132	-0.560
-362.669	42.103	0.086	0.078
-361.654	800.000	0.035	0.123
-360.639	398.538	0.052	0.109
-359.625	-42.314	-0.343	0.175
-358.610	-125.178	-0.054	0.008
-357.596	-200.000	-0.007	0.079
-356.581	-66.446	0.093	0.037
-355.566	-27.550	-0.131	-0.076
-354.552	-72.724	-0.313	-0.115
-353.537	-19.445	0.372	-0.230
-352.523	-61.783	-0.204	-0.085
-351.508	-36.887	0.151	0.081
-350.493	640.532	0.083	-0.210
-349.479	800.000	-0.063	0.231
-348.464	-14.583	-0.247	-0.158
-347.450	-127.985	0.060	0.009
-346.435	-54.098	0.238	-0.108
-345.420	144.925	0.245	-0.327
-344.406	-55.775	-0.083	0.037
-343.391	800.000	-0.053	-0.191
-342.377	33.753	0.241	0.209
-341.362	-141.302	-0.081	0.008
-340.348	-111.215	0.220	-0.045
-339.333	285.743	0.069	-0.123
-338.318	800.000	0.031	0.098
-337.304	800.000	-0.025	-0.072
-336.289	-200.000	-0.014	-0.243
-335.275	361.870	0.069	-0.138
-334.260	-200.000	0.009	0.128
-333.245	-124.702	0.156	0.024
-332.231	-51.045	-0.291	-0.136
-331.216	-98.833	0.340	0.086
-330.202	-37.267	-0.210	-0.112
-329.187	84.773	-0.219	0.239
-328.172	-84.806	-0.422	-0.132
-327.158	-160.601	-0.261	-0.014
-326.143	-200.000	0.009	0.152
-325.129	14.313	0.097	-0.075
-324.114	-200.000	-0.031	-0.441
-323.099	94.853	0.086	-0.097
-322.085	328.147	0.111	-0.212
-321.070	-200.000	-0.049	-0.341
-320.056	-54.339	0.076	-0.034
-319.041	261.195	-0.160	0.276
-318.026	-130.419	0.385	0.052
-317.012	-114.894	-0.328	-0.062
-315.997	-200.000	0.067	0.324
-314.983	-81.819	0.155	-0.051
-313.968	800.000	0.036	0.141
-312.953	-176.749	0.383	0.010
-311.939	73.809	0.158	0.165
-310.924	13.039	0.313	-0.241
-309.910	162.232	0.152	0.211
-308.895	79.949	-0.186	0.199
-307.880	-128.682	0.320	0.045
-306.866	307.576	0.231	0.427
-305.851	-200.000	0.022	-0.191
-304.837	125.761	0.131	-0.164
-303.822	49.304	0.355	0.332
-302.807	-36.813	-0.290	0.155
-301.793	-135.989	-0.122	0.014
-300.778	129.339	0.147	-0.186
-299.764	-200.000	-0.058	0.265
-298.749	285.736	-0.066	-0.119
-297.735	800.000	0.007	0.023
-296.720	-133.883	0.357	-0.044
-295.705	495.196	0.146	0.332
-294.691	-72.521	-0.098	0.036
-293.676	-77.755	-0.144	0.049
-292.662	100.548	-0.196	0.227
-291.647	-57.091	-0.157	0.069
-290.632	125.983	-0.063	0.080
-289.618	-199.444	0.194	-0.001
-288.603	125.386	-0.055	0.069
-287.589	-95.430	-0.210	-0.056
-286.574	53.925	0.305	0.292
-285.559	800.000	-0.036	0.101
-284.545	-42.973	-0.122	-0.061
-283.530	-200.000	-0.005	-0.158
-282.516	73.825	0.080	0.083
-281.501	134.521	0.110	-0.141
-280.486	245.854	-0.104	0.174
-279.472	49.848	-0.135	-0.127
-278.457	-156.294	0.308	0.019
-277.443	-99.915	-0.354	-0.088
-276.428	800.000	-0.108	-0.296
-275.413	-52.821	-0.160	-0.073
-274.399	800.000	-0.017	-0.065
-273.384	29.506	0.161	-0.136
-272.370	79.610	0.109	0.116
-271.355	191.059	0.127	-0.189
-270.340	164.737	0.069	0.097
-269.326	-130.991	0.099	-0.013
-268.311	149.859	-0.134	-0.180
-267.297	800.000	-0.049	-0.207
-266.282	-181.111	0.139	-0.003
-265.267	76.679	0.105	0.111
-264.253	248.190	-0.097	-0.163
-263.238	9.322	0.134	0.100
-262.224	776.300	0.129	0.349
-261.209	137.258	-0.102	-0.132
-260.195	131.225	-0.104	0.133
-259.180	237.202	-0.094	0.155
-258.165	113.070	-0.376	0.453
-257.151	-76.343	-0.098	0.034
-256.136	109.507	0.214	0.254
-255.122	49.135	0.107	-0.100
-254.107	-32.144	-0.311	0.172
-253.092	115.143	0.134	0.162
-252.078	143.624	-0.047	-0.062
-251.063	-24.939	0.092	0.054
-250.049	-55.309	-0.266	0.119
-249.034	-59.567	0.251	-0.107
-248.019	-200.000	0.002	0.554
-247.005	800.000	-0.095	0.280
-245.990	-200.000	-0.034	0.271
-244.976	-105.697	-0.141	0.032
-243.961	-200.000	-0.039	-0.179
-242.946	317.620	0.072	0.135
-241.932	30.732	-0.138	0.117
-240.917	-200.000	0.006	0.115
-239.903	57.936	-0.249	0.242
-238.888	5.292	-0.113	-0.082
-237.873	-77.538	0.429	-0.148
-236.859	-98.870	-0.065	-0.016
-235.844	90.940	0.206	-0.229
-234.830	-200.000	-0.008	-0.158
-233.815	-64.079	-0.267	0.108
-232.800	-105.800	-0.228	0.051
-231.786	340.604	0.121	0.235
-230.771	470.099	-0.144	0.321
-229.757	-76.576	0.274	-0.095
-228.742	208.390	0.240	0.373
-227.727	-200.000	-0.017	0.097
-226.713	-166.538	0.072	0.003
-225.698	-200.000	0.045	-0.335
-224.684	800.000	0.040	-0.171
-223.669	-120.912	0.145	0.024
-222.655	145.168	-0.211	0.280
-221.640	32.898	-0.139	0.119
-220.625	-151.179	-0.413	-0.031
-219.611	511.306	0.102	0.236
-218.596	800.000	0.106	0.335
-217.582	-200.000	-0.004	0.261
-216.567	154.328	-0.168	-0.228
-215.552	-70.434	-0.246	-0.092
-214.538	-6.638	-0.261	-0.176
-213.523	-4.701	0.063	-0.043
-212.509	158.507	-0.068	-0.094
-211.494	673.841	-0.064	-0.163
-210.479	795.839	0.072	0.196
-209.465	800.000	-0.074	0.312
-208.450	800.000	-0.083	-0.339
-207.436	-151.867	0.385	-0.028
-206.421	-200.000	0.037	0.172
-205.406	94.550	0.102	0.115
-204.392	289.836	0.056	-0.100
-203.377	-200.000	-0.005	-0.316
-202.363	202.733	-0.084	0.128
-201.348	108.902	-0.182	0.215
-200.333	800.000	0.085	0.238
-199.319	-30.401	0.188	0.106
-198.304	-200.000	-0.003	0.081
-197.290	-200.000	0.015	-0.076
-196.275	-51.298	0.284	-0.132
-195.260	-106.606	0.212	-0.047
-194.246	194.332	-0.074	-0.111
-193.231	319.146	0.110	0.207
-192.217	559.428	0.045	-0.108
-191.202	-38.765	-0.197	-0.103
-190.187	-127.231	0.278	0.040
-189.173	596.417	0.050	0.123
-188.158	-200.000	-0.007	-0.109
-187.144	248.973	0.125	0.210
-186.129	14.695	-0.148	0.114
-185.114	6.744	0.227	0.167
-184.100	-0.148	-0.041	0.029
-183.085	-79.936	0.324	-0.108
-182.071	230.358	0.091	0.148
-181.056	800.000	-0.061	0.194
-180.042	252.792	0.110	0.185
-179.027	212.220	0.114	0.178
-178.012	-200.000	0.006	0.031
-176.998	800.000	-0.070	0.193
-175.983	-200.000	-0.034	0.218
-174.969	-29.019	-0.199	0.113
-173.954	-89.605	0.067	0.019
-172.939	-200.000	-0.037	-0.202
-171.925	127.290	0.236	-0.296
-170.910	108.611	-0.082	0.097
-169.896	130.842	-0.118	0.150
-168.881	124.893	-0.170	-0.211
-167.866	237.878	0.144	-0.237
-166.852	709.676	-0.176	-0.461
-165.837	663.863	0.086	-0.219
-164.823	84.325	0.207	0.224
-163.808	-125.812	0.027	-0.004
-162.793	66.825	0.274	-0.276
-161.779	-174.412	0.319	0.009
-160.764	800.000	0.087	0.323
-159.750	-120.498	0.370	-0.062
-158.735	-134.359	-0.194	0.024
-157.720	-112.461	0.029	0.006
-156.706	249.703	-0.043	0.073
-155.691	41.215	0.111	0.099
-154.677	77.488	0.158	0.166
-153.662	-200.000	0.036	-0.183
-152.647	800.000	-0.022	-0.067
-151.633	-200.000	-0.022	0.289
-150.618	-126.059	-0.077	0.011
-149.604	-200.000	-0.061	-0.347
-148.589	769.857	-0.104	0.280
-147.574	27.318	-0.240	0.199
-146.560	27.407	-0.153	-0.127
-145.545	-53.876	-0.267	0.120
-144.531	129.669	0.028	0.036
-143.516	-13.102	-0.245	0.158
-142.502	54.166	-0.222	0.211
-141.487	333.398	0.175	0.335
-140.472	-112.857	0.277	-0.054
-139.458	800.000	0.028	-0.110
-138.443	55.201	-0.141	0.135
-137.429	147.936	-0.088	-0.117
-136.414	-200.000	0.014	0.190
-135.399	-200.000	0.017	0.248
-134.385	218.850	0.049	0.078
-133.370	800.000	0.086	-0.282
-132.356	-21.977	0.340	0.204
-131.341	42.799	0.214	-0.193
-130.326	378.713	-0.168	0.339
-129.312	20.103	0.310	-0.247
-128.297	453.283	0.028	-0.062
-127.283	-200.000	0.111	0.495
-126.268	446.743	0.101	0.220
-125.253	435.755	-0.052	-0.111
-124.239	-41.372	-0.232	-0.118
-123.224	-200.000	0.022	-0.195
-122.210	-82.976	0.372	-0.118
-121.195	12.237	0.102	0.078
-120.180	-184.800	0.278	0.004
-119.166	-72.902	0.105	-0.038
-118.151	84.680	-0.202	-0.219
-117.137	71.328	0.039	-0.040
-116.122	-95.974	0.225	-0.059
-115.107	-200.000	-0.030	-0.182
-114.093	800.000	0.032	0.113
-113.078	-71.253	-0.104	-0.039
-112.064	41.116	-0.228	-0.203
-111.049	118.467	0.224	0.273
-110.034	267.975	0.115	-0.199
-109.020	-36.061	-0.230	-0.123
-108.005	-129.497	0.303	-0.041
-106.991	298.131	-0.146	0.265
-105.976	131.309	-0.050	-0.063
-104.962	-52.314	-0.232	0.106
-103.947	233.865	-0.062	0.101
-102.932	-200.000	-0.042	0.343
-101.918	-10.723	0.162	-0.106
-100.903	116.601	0.147	0.177
-99.889	147.652	0.089	-0.118
-98.874	-98.915	-0.459	-0.115
-97.859	412.643	-0.114	0.240
-96.845	106.114	0.119	0.139
-95.830	-200.000	-0.021	-0.132
-94.816	21.680	0.061	-0.049
-93.801	-200.000	0.014	-0.361
-92.786	102.733	0.069	-0.079
-91.772	729.844	0.062	0.164
-90.757	30.053	-0.368	0.310
-89.743	-165.414	0.263	-0.011
-88.728	-53.875	-0.174	0.078
-87.713	61.281	0.209	0.205
-86.699	754.195	0.082	0.218
-85.684	-167.725	-0.188	0.007
-84.670	-67.698	0.209	-0.081
-83.655	65.744	0.065	-0.065
-82.640	-61.555	-0.254	-0.105
-81.626	282.974	-0.115	-0.204
-80.611	189.123	-0.098	-0.145
-79.597	271.510	-0.172	-0.299
-78.582	-200.000	0.055	-0.358
-77.567	641.491	0.073	-0.183
-76.553	800.000	0.040	0.119
-75.538	11.349	0.216	-0.163
-74.524	-154.863	0.146	0.010
-73.509	66.895	0.189	-0.190
-72.494	0.819	0.107	-0.075
-71.480	174.123	-0.130	-0.185
-70.465	191.637	0.105	-0.155
-69.451	129.641	-0.053	-0.067
-68.436	677.104	0.167	-0.426
-67.422	-200.000	-0.022	-0.195
-66.407	94.089	0.164	-0.183
-65.392	800.000	0.067	-0.204
-64.378	448.011	0.040	0.086
-63.363	-45.562	-0.225	-0.110
-62.349	599.500	0.051	0.123
-61.334	130.916	-0.636	-0.804
-60.319	80.501	0.466	0.495
-59.305	-200.000	-0.180	-0.879
-58.290	210.243	0.727	1.125
-57.276	142.570	0.850	1.111
-56.261	-200.000	97.675	594.403
-55.246	613.816	1431.745	3531.004
-54.232	183.024	2640.497	3839.287
-53.217	112.955	2317.585	2765.988
-52.203	42.394	1929.434	1727.489
-51.188	36.251	1717.798	1490.667
-50.173	33.373	1673.922	1430.827
-49.159	51.147	1721.260	1607.736
-48.144	53.197	1737.414	1638.433
-47.130	35.814	1696.749	1468.835
-46.115	33.130	1681.798	1435.487
-45.100	32.787	1677.503	1429.163
-44.086	32.905	1674.106	1427.108
-43.071	32.843	1671.885	1424.688
-42.057	32.760	1669.422	1421.906
-41.042	32.803	1666.929	1420.052
-40.027	32.864	1664.735	1418.583
-39.013	32.731	1663.245	1416.258
-37.998	32.726	1661.679	1414.831
-36.984	32.743	1660.914	1414.249
-35.969	32.945	1658.845	1413.942
-34.954	32.947	1657.400	1412.675
-33.940	32.886	1655.605	1410.628
-32.925	32.881	1653.720	1408.930
-31.911	32.902	1651.813	1407.404
-30.896	32.861	1649.881	1405.397
-29.881	32.801	1648.545	1403.756
-28.867	32.919	1646.545	1402.879
-27.852	32.839	1645.613	1401.434
-26.838	32.981	1643.605	1400.719
-25.823	32.928	1641.912	1398.832
-24.809	32.886	1641.397	1398.029
-23.794	32.885	1639.676	1396.495
-22.779	32.985	1637.877	1395.650
-21.765	32.936	1636.227	1393.825
-20.750	32.903	1634.601	1392.138
-19.736	32.849	1633.191	1390.484
-18.721	32.956	1631.487	1389.770
-17.706	33.043	1629.942	1389.034
-16.692	32.928	1628.816	1387.180
-15.677	32.901	1627.700	1385.977
-14.663	32.900	1625.886	1384.365
-13.648	33.012	1624.363	1383.835
-12.633	33.055	1622.419	1382.436
-11.619	32.994	1621.073	1380.795
-10.604	32.977	1619.780	1379.514
-9.590	33.014	1618.226	1378.405
-8.575	32.941	1617.757	1377.419
-7.560	32.900	1615.976	1375.546
-6.546	32.965	1614.737	1374.908
-5.531	32.944	1613.635	1373.768
-4.517	32.980	1612.282	1372.818
-3.502	33.060	1611.439	1372.631
-2.487	33.000	1610.123	1371.021
-1.473	32.895	1598.197	1360.052
-0.458	30.402	1578.483	1325.451
0.556	28.958	1577.893	1291.238
1.571	26.334	1602.104	1292.205
2.586	25.385	1614.005	1294.854
3.600	22.038	1559.172	1227.395
4.615	13.288	1447.512	1082.362
5.629	5.831	1382.263	986.718
6.644	4.491	1373.645	972.102
7.659	4.399	1373.039	971.011
8.673	4.323	1372.066	969.762
9.688	4.436	1369.999	968.916
10.702	4.444	1367.540	967.141
11.717	8.030	1374.166	994.151
12.731	16.658	1390.332	1060.013
13.746	22.205	1398.770	1101.197
14.761	22.625	1398.050	1103.161
15.775	21.865	1396.264	1096.903
16.790	20.894	1393.784	1088.799
17.804	19.999	1391.598	1081.408
18.819	19.780	1389.982	1078.691
19.834	19.546	1389.199	1076.525
20.848	19.464	1388.334	1075.248
21.863	19.262	1387.334	1073.121
22.877	19.257	1385.612	1071.664
23.892	19.031	1385.322	1069.941
24.907	19.077	1384.149	1069.226
25.921	19.143	1383.062	1068.702
26.936	19.240	1381.663	1068.127
27.950	19.166	1381.127	1067.161
28.965	19.237	1380.020	1066.647
29.980	19.380	1379.236	1066.835
30.994	19.489	1378.195	1066.606
32.009	19.560	1377.300	1066.260
33.023	19.479	1375.812	1064.514
34.038	19.573	1374.320	1063.846
35.053	19.283	1373.437	1061.278
36.067	19.275	1372.023	1060.043
37.082	19.191	1371.551	1059.072
38.096	19.433	1370.391	1059.567
39.111	19.450	1369.514	1058.901
40.126	19.333	1368.303	1057.151
41.140	18.981	1367.235	1054.077
42.155	18.841	1366.665	1052.686
43.169	18.883	1366.051	1052.376
44.184	18.784	1365.918	1051.573
45.199	18.884	1365.610	1051.860
46.213	18.974	1365.478	1052.210
47.228	19.179	1364.998	1053.005
48.242	19.313	1363.728	1052.747
49.257	19.157	1362.183	1050.509
50.271	19.306	1360.407	1049.959
51.286	19.236	1359.648	1048.849
52.301	19.275	1357.900	1047.645
53.315	19.084	1356.889	1045.615
54.330	18.989	1355.585	1043.944
55.344	19.018	1354.358	1043.079
56.359	18.988	1353.468	1042.120
57.374	19.059	1352.336	1041.588
58.388	18.745	1352.223	1039.507
59.403	18.726	1351.485	1038.735
60.417	18.805	1350.641	1038.469
61.432	18.697	1349.760	1037.048
62.447	18.648	1348.683	1035.831
63.461	18.585	1347.364	1034.346
64.476	18.550	1346.391	1033.299
65.490	18.621	1344.591	1032.252
66.505	18.432	1343.953	1030.535
67.520	18.579	1342.435	1030.165
68.534	18.685	1341.150	1029.723
69.549	18.651	1340.002	1028.545
70.563	18.563	1339.274	1027.366
71.578	18.505	1337.573	1025.623
72.593	18.357	1337.108	1024.290
73.607	18.237	1336.566	1023.068
74.622	18.406	1335.712	1023.338
75.636	18.456	1335.022	1023.014
76.651	18.451	1334.325	1022.360
77.666	18.422	1334.034	1021.871
78.680	18.625	1333.546	1022.620
79.695	18.684	1332.614	1022.165
80.709	18.717	1332.209	1021.963
81.724	18.893	1331.467	1022.348
82.739	19.009	1330.358	1022.097
83.753	19.149	1329.757	1022.372
84.768	19.287	1329.009	1022.530
85.782	19.333	1328.518	1022.332
86.797	19.452	1326.406	1021.322
87.812	19.234	1325.407	1019.175
88.826	19.307	1324.016	1018.445
89.841	19.242	1323.377	1017.479
90.855	19.380	1322.345	1017.407
91.870	19.382	1321.561	1016.726
92.884	19.501	1320.494	1016.520
93.899	19.539	1319.559	1015.932
94.914	19.525	1319.192	1015.479
95.928	19.578	1317.973	1014.760
96.943	19.414	1316.756	1012.770
97.957	19.381	1316.415	1012.226
98.972	19.359	1315.432	1011.250
99.987	19.402	1314.111	1010.398
101.001	19.286	1313.187	1008.920
102.016	19.422	1312.066	1008.764
103.030	19.363	1311.221	1007.679
104.045	19.307	1310.526	1006.728
105.060	19.270	1308.632	1004.972
106.074	19.038	1307.262	1002.477
107.089	18.697	1305.755	999.246
108.103	18.577	1304.367	997.400
109.118	18.645	1303.202	996.813
110.133	18.583	1301.850	995.332
111.147	18.733	1300.447	995.044
112.162	18.685	1299.283	993.784
113.176	18.830	1297.950	993.517
114.191	18.803	1297.270	992.753
115.206	18.861	1295.510	991.655
116.220	18.870	1294.522	990.860
117.235	18.813	1293.573	989.720
118.249	18.681	1292.835	988.303
119.264	18.669	1291.223	986.918
120.279	18.694	1289.530	985.680
121.293	18.585	1288.679	984.314
122.308	18.360	1288.227	982.594
123.322	18.499	1286.459	981.956
124.337	18.366	1285.139	980.098
125.352	18.449	1284.460	979.966
126.366	18.445	1283.219	978.914
127.381	18.475	1282.149	978.182
128.395	18.406	1281.462	977.173
129.410	18.466	1280.469	976.676
130.424	18.589	1279.691	976.693
131.439	18.743	1278.555	976.615
132.454	18.780	1277.910	976.249
133.468	18.754	1277.131	975.419
134.483	18.882	1276.547	975.614
135.497	18.843	1275.425	974.447
136.512	18.718	1274.436	972.900
137.527	18.868	1272.733	972.361
138.541	18.956	1271.008	971.454
139.556	19.013	1270.055	970.962
140.570	19.130	1269.322	970.978
141.585	19.096	1268.406	969.999
142.600	19.213	1267.310	969.733
143.614	19.388	1266.073	969.682
144.629	19.365	1265.257	968.841
145.643	19.403	1264.126	968.108
146.658	19.225	1262.740	965.958
147.673	19.063	1261.186	963.780
148.687	18.978	1259.598	962.005
149.702	18.823	1258.513	960.227
150.716	18.830	1257.352	959.292
151.731	18.788	1256.236	958.123
152.746	18.901	1255.198	957.878
153.760	18.834	1254.408	956.814
154.775	19.047	1253.048	956.876
155.789	19.116	1252.025	956.393
156.804	19.089	1250.986	955.367
157.819	19.152	1250.036	954.906
158.833	19.351	1249.281	955.350
159.848	19.403	1248.764	955.158
160.862	19.363	1248.002	954.269
161.877	19.077	1245.936	951.025
162.892	18.877	1244.734	948.919
163.906	18.884	1243.571	947.985
164.921	18.765	1243.418	947.127
165.935	18.977	1242.416	947.449
166.950	19.013	1241.698	947.016
167.964	19.090	1240.885	946.739
168.979	18.995	1240.069	945.508
169.994	18.911	1239.444	944.485
171.008	18.984	1238.352	943.972
172.023	19.140	1237.735	944.275
173.037	19.257	1237.348	944.534
174.052	19.121	1236.392	942.977
175.067	18.960	1235.148	941.066
176.081	18.887	1233.846	939.591
177.096	18.819	1232.712	938.274
178.110	18.956	1231.767	938.214
179.125	18.912	1231.012	937.316
180.140	19.051	1229.654	936.960
181.154	19.161	1228.599	936.673
182.169	19.296	1227.313	936.341
183.183	19.380	1226.171	935.840
184.198	19.318	1225.155	934.650
185.213	19.330	1224.646	934.240
186.227	19.481	1223.170	933.849
187.242	19.600	1222.025	933.540
188.256	19.553	1221.878	933.086
189.271	19.545	1220.847	932.177
190.286	19.341	1219.234	929.760
191.300	18.962	1217.771	926.522
192.315	18.767	1217.497	925.182
193.329	18.959	1216.565	925.424
194.344	18.940	1216.227	924.983
195.359	19.046	1215.634	925.022
196.373	19.154	1214.979	925.017
197.388	19.367	1214.810	925.954
198.402	19.560	1214.581	926.734
199.417	19.708	1214.273	927.209
200.432	19.851	1213.567	927.354
201.446	19.813	1213.172	926.765
202.461	20.026	1212.175	927.062
203.475	19.939	1211.043	925.651
204.490	19.737	1209.450	923.275
205.504	19.555	1208.156	921.230
206.519	19.557	1207.003	920.282
207.534	19.446	1205.788	918.684
208.548	19.447	1204.780	917.839
209.563	19.476	1203.996	917.317
210.577	19.457	1203.457	916.723
211.592	19.546	1202.854	916.657
212.607	19.869	1201.734	917.433
213.621	19.753	1200.608	915.880
214.636	19.563	1200.386	914.623
215.650	19.674	1199.382	914.360
216.665	19.798	1198.709	914.426
217.680	19.851	1197.897	914.001
218.694	19.999	1196.385	913.550
219.709	19.900	1196.256	912.846
220.723	19.873	1195.214	911.831
221.738	19.887	1194.412	911.210
222.753	19.865	1193.619	910.412
223.767	19.813	1193.051	909.621
224.782	19.895	1192.331	909.423
225.796	20.104	1191.907	910.119
226.811	20.023	1191.092	908.993
227.826	19.867	1190.399	907.563
228.840	19.945	1188.974	906.804
229.855	19.895	1188.224	905.891
230.869	19.828	1187.906	905.216
231.884	19.697	1187.477	904.123
232.899	19.591	1186.381	902.659
233.913	19.575	1185.152	901.560
234.928	19.527	1184.505	900.738
235.942	19.606	1183.598	900.380
236.957	19.489	1182.959	899.202
237.972	19.615	1181.950	899.011
238.986	19.598	1181.906	898.812
240.001	19.643	1180.646	898.006
241.015	19.623	1180.082	897.395
242.030	19.734	1179.436	897.402
243.045	19.778	1178.988	897.206
244.059	19.829	1178.061	896.687
245.074	19.860	1177.448	896.300
246.088	19.915	1176.652	895.902
247.103	20.017	1175.914	895.786
248.117	20.094	1175.211	895.569
249.132	20.336	1174.663	896.326
250.147	20.512	1174.240	896.831
251.161	20.581	1173.434	896.492
252.176	20.707	1172.732	896.525
253.190	20.662	1172.547	896.074
254.205	20.800	1171.937	896.236
255.220	20.878	1171.113	895.928
256.234	20.832	1170.382	895.053
257.249	20.770	1169.749	894.173
258.263	20.766	1169.003	893.502
259.278	20.774	1168.336	892.955
260.293	20.786	1167.922	892.620
261.307	20.824	1167.575	892.470
262.322	20.819	1166.745	891.730
263.336	20.789	1166.117	891.021
264.351	20.845	1165.526	890.774
265.366	20.851	1164.758	890.139
266.380	21.004	1163.844	890.145
267.395	20.868	1163.132	888.827
268.409	20.698	1162.070	887.068
269.424	20.665	1161.976	886.754
270.439	20.652	1161.246	886.053
271.453	20.712	1159.911	885.257
272.468	20.597	1159.009	883.907
273.482	20.520	1158.129	882.770
274.497	20.633	1157.599	882.859
275.512	20.615	1156.923	882.173
276.526	20.585	1156.435	881.569
277.541	20.589	1155.779	881.012
278.555	20.531	1155.322	880.296
279.570	20.749	1154.956	881.041
280.585	21.002	1153.951	881.474
281.599	20.965	1153.026	880.503
282.614	20.778	1151.640	878.421
283.628	20.783	1150.162	877.245
284.643	20.729	1149.715	876.552
285.657	20.630	1148.911	875.362
286.672	20.801	1147.622	875.164
287.687	20.788	1146.600	874.243
288.701	20.804	1146.317	874.029
289.716	20.754	1145.047	872.733
290.730	20.762	1144.847	872.544
291.745	20.760	1144.498	872.189
292.760	20.834	1143.240	871.526
293.774	21.002	1142.925	872.047
294.789	21.014	1142.624	871.799
295.803	20.915	1142.235	870.933
296.818	20.793	1141.211	869.467
297.833	20.764	1139.995	868.320
298.847	20.787	1139.474	867.956
299.862	20.843	1138.580	867.476
300.876	20.932	1137.907	867.332
301.891	20.991	1137.118	866.945
302.906	20.984	1137.096	866.818
303.920	21.250	1136.230	867.402
304.935	21.385	1135.843	867.702
305.949	21.430	1135.210	867.363
306.964	21.313	1134.533	866.190
307.979	21.262	1133.448	865.031
308.993	21.138	1132.982	863.986
310.008	21.277	1132.421	864.169
311.022	21.283	1131.541	863.450
312.037	21.286	1130.463	862.566
313.052	21.188	1129.524	861.293
314.066	20.888	1128.639	859.063
315.081	20.940	1127.233	858.171
316.095	20.833	1126.395	856.934
317.110	20.901	1125.883	856.802
318.125	20.919	1125.345	856.405
319.139	20.930	1124.250	855.548
320.154	20.828	1123.904	854.707
321.168	20.867	1123.031	854.161
322.183	21.012	1122.504	854.394
323.197	20.973	1121.877	853.649
324.212	21.041	1121.609	853.705
325.227	21.032	1121.052	853.161
326.241	20.945	1120.814	852.477
327.256	21.067	1119.267	851.824
328.270	20.980	1118.207	850.516
329.285	20.987	1117.570	849.988
330.300	20.865	1116.909	848.817
331.314	21.009	1115.475	848.355
332.329	21.012	1114.473	847.532
333.343	20.991	1114.201	847.149
334.358	21.244	1113.092	847.455
335.373	21.144	1112.870	846.726
336.387	21.291	1112.044	846.738
337.402	21.313	1111.216	846.136
338.416	21.396	1110.233	845.718
339.431	21.444	1110.748	846.264
340.446	21.504	1109.680	845.667
341.460	21.566	1109.313	845.611
342.475	21.700	1108.529	845.585
343.489	21.842	1107.384	845.322
344.504	21.787	1106.376	844.215
345.519	21.821	1105.545	843.668
346.533	21.936	1104.838	843.608
347.548	22.057	1103.967	843.448
348.562	21.861	1103.359	841.967
349.577	21.662	1102.619	840.375
350.592	21.431	1101.319	838.204
351.606	21.368	1100.660	837.325
352.621	21.331	1099.672	836.325
353.635	21.264	1099.111	835.502
354.650	21.311	1098.296	835.033
355.665	21.491	1097.518	835.225
356.679	21.594	1096.783	835.086
357.694	21.502	1096.572	834.411
358.708	21.713	1095.838	834.784
359.723	21.677	1095.426	834.226
360.738	21.587	1094.849	833.284
361.752	21.736	1094.375	833.557
362.767	21.624	1093.420	832.224
363.781	21.608	1092.948	831.714
364.796	21.909	1092.384	832.643
365.810	21.980	1091.919	832.552
366.825	22.164	1091.620	833.122
367.840	22.287	1091.061	833.203
368.854	22.292	1090.546	832.759
369.869	22.236	1089.688	831.766
370.883	22.126	1088.997	830.646
371.898	22.082	1087.558	829.267
372.913	22.089	1087.345	829.062
373.927	22.063	1087.064	828.655
374.942	22.180	1086.736	828.880
375.956	22.057	1086.126	827.763
376.971	22.210	1084.785	827.389
377.986	22.231	1084.378	827.106
379.000	22.286	1084.295	827.227
380.015	22.454	1083.577	827.396
381.029	22.467	1083.159	827.062
382.044	22.438	1082.233	826.145
383.059	22.293	1081.680	824.973
384.073	22.285	1080.886	824.254
385.088	22.412	1079.562	823.768
386.102	22.348	1078.788	822.806
387.117	22.195	1077.808	821.267
388.132	22.041	1076.893	819.783
389.146	22.106	1075.628	819.047
390.161	21.980	1075.274	818.117
391.175	21.987	1074.728	817.665
392.190	22.100	1073.894	817.485
393.205	22.364	1073.247	818.145
394.219	22.384	1072.132	817.315
395.234	22.219	1071.455	815.961
396.248	22.109	1070.479	814.636
397.263	22.116	1069.130	813.569
398.278	22.069	1068.374	812.706
399.292	21.871	1068.150	811.547
400.307	21.957	1066.699	810.768
401.321	21.838	1066.449	809.957
402.336	21.858	1065.450	809.222
403.350	21.959	1064.887	809.186
404.365	22.060	1064.147	809.019
405.380	22.029	1064.143	808.800
406.394	22.168	1063.146	808.610
407.409	22.271	1062.703	808.677
408.423	22.383	1061.978	808.567
409.438	22.425	1061.859	808.596
410.453	22.562	1060.820	808.365
411.467	22.592	1059.979	807.788
412.482	22.667	1059.490	807.688
413.496	22.689	1059.045	807.379
414.511	22.820	1058.145	807.219
415.526	22.864	1058.150	807.352
416.540	23.084	1057.571	807.845
417.555	22.934	1056.810	806.508
418.569	22.733	1056.250	805.093
419.584	22.812	1055.949	805.152
420.599	22.775	1055.399	804.492
421.613	155.093	1400.426	1792.002
422.628	142.503	1450.671	1792.115
