DTS Sentinel unit serial number:	SN413079Multiplexer serial number:	ORYXHardware model number:	OX4-SRSoftware version number:	ORYX F/W v4.00 Oryx Data Collector v3.7.2.0data status	okinstallation	princeton_trtdifferential loss correction	single-endedforward channel	channel 2reverse channel	N/Adate	2019/09/14time	21:43:35forward acquisition time	60.00reverse acquisition time	0.00gamma	496.2192k internal	0.2323k external	0.2323temperature offset calibration	1.0075default loss term (dB/km)	0.3790temperature slope calibration	1.0000multiplexer offset coefficient	1.0000multiplexer slope coefficient	1.0000fibre end	0.00T internal ref (°C)	32.75T ext. ref 1 (°C)	4.76T ext. ref 2 (°C)	27.70length (m)	temperature (°C)	Stokes	anti-Stokes-747.200	9.290	0.222	0.170
-746.185	-25.768	0.038	-0.022
-745.171	122.322	0.289	0.365
-744.156	-104.287	-0.367	0.086
-743.142	-122.668	-0.215	0.035
-742.127	349.775	-0.274	0.547
-741.112	797.302	-0.056	-0.156
-740.098	56.685	0.051	-0.050
-739.083	-200.000	-0.008	0.088
-738.069	347.339	0.256	0.510
-737.054	76.091	0.122	0.131
-736.039	-108.761	-0.570	0.123
-735.025	-198.433	0.059	-0.000
-734.010	-1.389	-0.091	0.065
-732.996	-87.404	-0.272	-0.083
-731.981	-48.727	0.019	0.009
-730.966	-70.216	0.191	0.073
-729.952	112.859	-0.079	0.097
-728.937	-166.222	-0.408	-0.017
-727.923	-137.429	-0.286	-0.033
-726.908	-174.113	-0.084	0.002
-725.894	22.069	-0.191	-0.158
-724.879	-200.000	0.004	-0.122
-723.864	-200.000	-0.014	0.319
-722.850	-74.964	-0.247	-0.089
-721.835	410.019	-0.054	-0.116
-720.821	-52.724	0.197	-0.092
-719.806	-200.000	0.000	-0.110
-718.791	551.601	0.025	-0.060
-717.777	-122.799	0.324	-0.053
-716.762	-200.000	-0.022	-0.113
-715.748	453.157	-0.075	0.168
-714.733	-200.000	-0.026	0.280
-713.718	-200.000	-0.010	0.185
-712.704	13.698	-0.066	0.052
-711.689	800.000	-0.060	0.238
-710.675	-10.404	-0.220	0.147
-709.660	80.049	-0.124	-0.134
-708.645	-155.925	-0.147	0.009
-707.631	-156.706	-0.110	-0.007
-706.616	-56.956	-0.183	-0.081
-705.602	31.232	-0.296	0.256
-704.587	-200.000	-0.004	-0.275
-703.572	112.445	-0.193	0.235
-702.558	-158.870	0.384	0.022
-701.543	-200.000	0.038	0.268
-700.529	302.079	0.163	-0.303
-699.514	65.780	-0.215	-0.219
-698.499	-200.000	-0.003	-0.049
-697.485	-200.000	-0.000	0.291
-696.470	-42.462	-0.067	0.035
-695.456	-83.609	-0.653	-0.211
-694.441	-200.000	-0.051	0.380
-693.426	800.000	-0.062	0.237
-692.412	285.801	-0.047	-0.086
-691.397	141.949	-0.011	0.015
-690.383	-200.000	0.022	-0.223
-689.368	-200.000	-0.010	-0.144
-688.354	-42.138	-0.143	0.074
-687.339	-114.316	0.242	-0.047
-686.324	-171.939	-0.048	0.002
-685.310	183.209	-0.069	-0.103
-684.295	130.601	0.179	-0.231
-683.281	-70.818	0.277	-0.105
-682.266	-56.433	-0.201	0.090
-681.251	265.660	0.176	-0.309
-680.237	-5.337	0.136	-0.094
-679.222	-200.000	-0.020	-0.261
-678.208	117.869	-0.191	-0.237
-677.193	-43.809	-0.289	-0.146
-676.178	-135.034	0.279	-0.034
-675.164	800.000	0.084	0.269
-674.149	-22.540	0.269	-0.164
-673.135	-37.407	-0.120	-0.064
-672.120	145.817	-0.236	-0.319
-671.105	-12.688	-0.432	-0.284
-670.091	95.139	0.163	-0.186
-669.076	248.297	0.196	-0.335
-668.062	-200.000	-0.033	-0.156
-667.047	-67.225	-0.106	-0.042
-666.032	-127.690	-0.439	0.064
-665.018	-40.182	-0.137	-0.072
-664.003	60.192	0.307	-0.306
-662.989	38.962	-0.159	0.143
-661.974	-105.501	0.235	-0.054
-660.959	-143.951	-0.399	0.038
-659.945	-157.411	-0.178	0.011
-658.930	305.289	0.110	-0.206
-657.916	-134.540	-0.426	0.052
-656.901	-200.000	-0.011	0.094
-655.886	414.256	-0.034	-0.073
-654.872	800.000	0.037	0.126
-653.857	-200.000	0.004	-0.026
-652.843	-200.000	0.052	-0.278
-651.828	13.494	-0.224	-0.175
-650.814	-200.000	-0.006	0.141
-649.799	340.256	0.042	-0.083
-648.784	-68.241	-0.091	0.036
-647.770	-190.637	-0.445	-0.005
-646.755	-124.868	0.043	-0.007
-645.741	-117.225	0.154	0.028
-644.726	71.052	-0.186	-0.194
-643.711	-200.000	-0.032	0.185
-642.697	276.441	0.054	-0.097
-641.682	427.388	-0.240	-0.521
-640.668	16.752	-0.168	-0.134
-639.653	-200.000	0.021	-0.119
-638.638	-56.885	-0.131	-0.058
-637.624	30.522	-0.126	0.108
-636.609	112.626	-0.087	0.105
-635.595	-200.000	-0.008	0.059
-634.580	86.906	0.089	-0.099
-633.565	800.000	-0.047	-0.159
-632.551	-200.000	-0.026	-0.167
-631.536	-56.108	0.176	-0.079
-630.522	-151.058	0.135	0.010
-629.507	6.722	-0.248	0.185
-628.492	-42.636	0.198	-0.101
-627.478	800.000	-0.046	0.170
-626.463	-37.299	-0.121	-0.065
-625.449	289.040	0.150	0.274
-624.434	58.096	0.093	0.092
-623.419	-200.000	0.075	-0.338
-622.405	800.000	0.104	0.322
-621.390	-200.000	0.039	0.195
-620.376	31.906	0.165	0.143
-619.361	-125.405	-0.140	0.021
-618.346	-200.000	0.010	-0.054
-617.332	294.150	0.037	-0.067
-616.317	138.486	-0.185	0.243
-615.303	-63.601	0.117	0.048
-614.288	-130.278	0.104	-0.014
-613.273	-118.492	0.141	-0.025
-612.259	-53.829	0.044	-0.020
-611.244	269.712	-0.020	0.035
-610.230	-200.000	0.058	0.440
-609.215	-200.000	0.038	-0.328
-608.201	-158.331	-0.042	0.002
-607.186	-58.334	-0.187	-0.082
-606.171	-96.666	-0.326	0.086
-605.157	38.804	-0.031	-0.028
-604.142	155.604	-0.125	-0.173
-603.128	212.602	-0.144	0.229
-602.113	118.949	-0.085	0.105
-601.098	42.136	0.192	0.175
-600.084	-200.000	-0.003	0.091
-599.069	151.286	0.120	-0.164
-598.055	-8.405	-0.187	-0.126
-597.040	-133.914	0.266	-0.033
-596.025	-55.018	-0.150	-0.068
-595.011	139.582	-0.105	0.138
-593.996	-141.970	0.368	-0.037
-592.982	203.519	-0.132	0.206
-591.967	596.622	0.136	0.338
-590.952	115.134	-0.168	-0.205
-589.938	-33.291	-0.093	-0.052
-588.923	-54.184	0.118	0.054
-587.909	-50.019	-0.169	-0.081
-586.894	-200.000	0.013	0.071
-585.879	-200.000	-0.020	-0.357
-584.865	175.306	0.155	-0.226
-583.850	-200.000	-0.008	0.037
-582.836	-200.000	-0.019	-0.277
-581.821	-200.000	0.033	0.461
-580.806	431.018	0.030	0.065
-579.792	727.407	-0.055	-0.148
-578.777	-16.307	-0.079	-0.050
-577.763	93.879	-0.032	0.037
-576.748	9.889	-0.308	-0.234
-575.733	-22.693	-0.244	-0.148
-574.719	-29.049	0.151	-0.087
-573.704	120.872	-0.176	-0.220
-572.690	-170.631	0.386	-0.013
-571.675	394.015	0.028	-0.059
-570.661	800.000	-0.038	-0.143
-569.646	-12.631	0.249	-0.163
-568.631	-16.301	-0.192	0.122
-567.617	-93.062	-0.166	0.046
-566.602	-200.000	0.014	0.377
-565.588	800.000	0.101	-0.315
-564.573	-92.522	-0.172	0.048
-563.558	-200.000	-0.005	0.187
-562.544	-57.396	0.110	-0.048
-561.529	800.000	-0.032	-0.094
-560.515	-200.000	-0.014	0.092
-559.500	800.000	0.042	0.140
-558.485	-15.900	-0.261	0.167
-557.471	121.597	-0.128	0.160
-556.456	-91.995	0.089	-0.025
-555.442	117.225	-0.131	0.161
-554.427	-152.788	0.135	0.010
-553.412	-4.729	-0.195	0.135
-552.398	-80.110	-0.269	0.090
-551.383	-146.315	0.310	0.027
-550.369	-81.599	0.249	0.082
-549.354	258.781	0.055	-0.095
-548.339	800.000	0.137	-0.402
-547.325	-62.102	-0.182	-0.076
-546.310	-200.000	-0.006	-0.187
-545.296	-11.101	0.229	-0.152
-544.281	470.314	-0.013	-0.030
-543.266	-73.894	-0.283	0.103
-542.252	-200.000	0.047	-0.318
-541.237	456.652	0.113	0.252
-540.223	64.522	-0.144	-0.145
-539.208	4.656	0.088	0.065
-538.193	-45.291	0.218	-0.109
-537.179	800.000	-0.060	0.183
-536.164	-200.000	-0.033	0.160
-535.150	-200.000	-0.001	0.174
-534.135	-86.617	-0.271	0.083
-533.121	-135.163	-0.097	-0.012
-532.106	-144.128	-0.397	0.037
-531.091	-200.000	0.077	0.357
-530.077	-200.000	-0.025	-0.124
-529.062	-42.539	0.087	0.045
-528.048	-200.000	0.030	-0.443
-527.033	-5.054	0.228	0.157
-526.018	-124.413	-0.170	-0.027
-525.004	-148.314	0.105	-0.009
-523.989	800.000	-0.068	0.260
-522.975	771.306	0.159	-0.434
-521.960	193.167	0.057	0.086
-520.945	-200.000	-0.050	0.230
-519.931	-157.524	-0.154	-0.009
-518.916	-200.000	-0.014	0.196
-517.902	-200.000	-0.106	0.488
-516.887	159.740	-0.208	-0.291
-515.872	-200.000	0.025	-0.250
-514.858	-81.940	0.232	-0.076
-513.843	-200.000	0.049	-0.367
-512.829	-136.174	0.180	-0.021
-511.814	-12.512	0.162	0.106
-510.799	-154.517	-0.276	-0.018
-509.785	131.160	-0.200	-0.257
-508.770	-50.759	-0.184	-0.087
-507.756	52.190	-0.168	0.160
-506.741	247.194	-0.043	-0.073
-505.726	37.901	-0.135	0.120
-504.712	-155.415	-0.043	0.003
-503.697	417.552	-0.081	0.174
-502.683	-185.613	0.212	0.003
-501.668	-12.532	0.141	-0.092
-500.653	-200.000	-0.052	-0.309
-499.639	309.142	0.038	-0.071
-498.624	50.595	-0.214	0.203
-497.610	82.096	-0.047	-0.051
-496.595	53.039	0.177	-0.169
-495.581	-200.000	0.029	-0.301
-494.566	7.877	-0.099	0.074
-493.551	-200.000	0.030	-0.189
-492.537	-200.000	0.005	-0.118
-491.522	-105.977	0.204	0.046
-490.508	-135.157	0.234	-0.028
-489.493	-105.728	0.116	0.026
-488.478	-200.000	-0.011	0.203
-487.464	-200.000	-0.005	-0.145
-486.449	-128.107	-0.194	-0.028
-485.435	28.714	0.184	-0.156
-484.420	258.899	-0.050	-0.086
-483.405	-200.000	-0.028	0.126
-482.391	-100.486	0.481	-0.119
-481.376	800.000	0.063	-0.218
-480.362	327.849	0.033	-0.063
-479.347	-128.504	-0.092	0.013
-478.332	-69.543	0.226	-0.086
-477.318	-87.022	0.090	0.027
-476.303	-200.000	-0.019	0.115
-475.289	-26.312	-0.189	0.111
-474.274	-200.000	-0.003	0.083
-473.259	-200.000	0.043	-0.267
-472.245	-156.440	0.156	-0.010
-471.230	800.000	0.065	-0.268
-470.216	-12.406	-0.231	-0.151
-469.201	-200.000	-0.031	-0.290
-468.186	-43.258	0.112	-0.057
-467.172	-200.000	0.003	0.289
-466.157	-149.513	0.101	0.008
-465.143	621.452	0.193	0.486
-464.128	-153.589	-0.359	0.025
-463.113	-60.630	0.155	0.066
-462.099	-39.378	0.115	0.060
-461.084	-200.000	0.016	-0.136
-460.070	-59.787	-0.185	-0.079
-459.055	-124.342	-0.263	0.041
-458.040	-62.522	0.155	0.064
-457.026	-122.000	0.145	-0.024
-456.011	-11.900	0.065	0.042
-454.997	233.258	-0.199	-0.327
-453.982	-200.000	-0.005	0.285
-452.968	45.941	-0.334	0.308
-451.953	-72.406	-0.263	-0.097
-450.938	20.679	0.124	0.100
-449.924	99.627	-0.323	0.373
-448.909	303.158	-0.224	-0.414
-447.895	-163.048	0.069	-0.003
-446.880	157.790	0.263	-0.364
-445.865	-52.610	0.165	-0.076
-444.851	-136.533	-0.292	0.034
-443.836	-36.968	-0.253	0.135
-442.822	-107.565	0.351	0.077
-441.807	-200.000	-0.021	-0.227
-440.792	800.000	0.015	-0.053
-439.778	-98.677	0.178	0.045
-438.763	-200.000	-0.031	-0.161
-437.749	52.769	-0.162	0.154
-436.734	96.987	0.243	-0.278
-435.719	-198.175	0.169	0.001
-434.705	-200.000	-0.016	-0.088
-433.690	-200.000	0.002	-0.112
-432.676	41.306	-0.279	0.252
-431.661	-46.980	0.307	-0.150
-430.646	269.658	-0.053	-0.094
-429.632	-140.337	0.527	-0.055
-428.617	800.000	-0.088	0.370
-427.603	800.000	0.058	0.187
-426.588	-70.708	-0.163	-0.061
-425.573	-200.000	0.020	-0.382
-424.559	-10.332	-0.176	0.116
-423.544	-113.766	-0.174	0.034
-422.530	800.000	-0.046	0.131
-421.515	-50.019	0.102	-0.048
-420.500	800.000	0.073	-0.261
-419.486	37.990	0.192	0.170
-418.471	-175.626	-0.343	-0.009
-417.457	-200.000	0.033	-0.249
-416.442	-14.726	-0.197	-0.126
-415.428	-78.456	0.233	-0.080
-414.413	-36.005	0.113	-0.061
-413.398	-200.000	0.036	0.255
-412.384	-54.304	0.037	0.017
-411.369	800.000	-0.068	0.202
-410.355	-24.220	-0.147	0.088
-409.340	-31.445	-0.206	-0.115
-408.325	623.214	0.041	-0.103
-407.311	800.000	0.097	-0.266
-406.296	-200.000	0.037	-0.215
-405.282	-9.784	-0.075	-0.050
-404.267	232.909	0.051	-0.084
-403.252	-31.896	0.328	-0.183
-402.238	-200.000	0.008	-0.130
-401.223	116.420	-0.082	-0.100
-400.209	-200.000	0.026	-0.266
-399.194	-115.794	-0.424	0.079
-398.179	-200.000	-0.018	0.102
-397.165	-175.983	0.271	-0.007
-396.150	-139.092	-0.278	0.030
-395.136	-80.334	-0.109	0.036
-394.121	800.000	-0.069	-0.251
-393.106	164.661	-0.087	0.122
-392.092	800.000	-0.021	0.079
-391.077	15.903	-0.204	0.160
-390.063	800.000	0.028	-0.110
-389.048	-200.000	-0.064	-0.362
-388.033	-93.125	-0.445	-0.123
-387.019	-17.831	-0.240	0.150
-386.004	-200.000	0.096	-0.429
-384.990	151.678	-0.271	0.368
-383.975	196.389	-0.060	0.091
-382.960	-83.860	0.034	0.011
-381.946	-66.725	-0.020	0.008
-380.931	21.599	-0.320	0.259
-379.917	-115.149	0.170	0.032
-378.902	-200.000	0.016	-0.333
-377.888	580.662	-0.050	-0.123
-376.873	800.000	-0.082	0.241
-375.858	-154.046	0.223	0.015
-374.844	84.497	0.212	-0.230
-373.829	18.156	0.190	-0.151
-372.815	-37.560	0.093	-0.049
-371.800	-32.879	-0.165	-0.091
-370.785	38.880	0.197	-0.175
-369.771	56.880	0.127	-0.123
-368.756	17.273	-0.146	0.116
-367.742	-5.044	0.074	0.051
-366.727	72.333	0.130	0.135
-365.712	-15.845	-0.342	0.217
-364.698	-108.272	-0.301	-0.065
-363.683	70.268	0.188	0.193
-362.669	193.167	0.099	0.149
-361.654	-25.741	-0.260	-0.153
-360.639	-174.734	0.123	-0.003
-359.625	-11.715	0.538	0.352
-358.610	-29.279	-0.167	-0.095
-357.596	-200.000	-0.030	0.347
-356.581	97.215	-0.050	0.057
-355.566	412.108	0.053	-0.113
-354.552	800.000	0.087	-0.311
-353.537	-85.065	-0.099	0.031
-352.523	-200.000	-0.065	0.296
-351.508	-12.861	0.215	0.139
-350.493	-100.968	-0.268	0.065
-349.479	-49.852	0.168	0.079
-348.464	-141.200	-0.125	-0.013
-347.450	-200.000	0.030	-0.227
-346.435	-63.530	0.334	0.136
-345.420	-200.000	-0.001	0.114
-344.406	-186.569	0.175	0.002
-343.391	271.649	0.113	0.197
-342.377	218.584	0.052	-0.082
-341.362	-200.000	0.001	-0.113
-340.348	588.452	0.074	-0.182
-339.333	-55.226	0.144	0.064
-338.318	800.000	-0.147	0.540
-337.304	-115.135	-0.353	-0.067
-336.289	23.687	0.258	-0.211
-335.275	233.008	0.172	-0.281
-334.260	366.312	-0.304	0.609
-333.245	800.000	0.140	0.492
-332.231	-166.581	-0.347	0.014
-331.216	255.061	-0.274	0.467
-330.202	-144.152	0.090	-0.008
-329.187	89.812	-0.178	-0.198
-328.172	-200.000	-0.007	0.126
-327.158	3.914	0.310	0.225
-326.143	-99.573	0.262	0.065
-325.129	-77.410	-0.387	0.133
-324.114	-76.845	0.198	0.069
-323.099	777.351	0.054	-0.148
-322.085	-70.430	-0.288	0.108
-321.070	-56.013	-0.215	0.095
-320.056	-200.000	-0.042	0.260
-319.041	-83.172	-0.254	0.081
-318.026	-43.645	0.096	0.048
-317.012	-105.855	-0.206	0.046
-315.997	-200.000	-0.030	-0.349
-314.983	362.264	0.104	0.208
-313.968	276.529	-0.154	0.272
-312.953	-130.431	-0.116	0.016
-311.939	4.940	0.275	-0.201
-310.924	134.761	-0.212	-0.274
-309.910	-78.439	0.177	0.060
-308.895	-200.000	0.021	-0.240
-307.880	800.000	0.044	-0.124
-306.866	286.980	0.055	-0.099
-305.851	353.652	0.116	0.229
-304.837	26.170	-0.231	0.191
-303.822	-200.000	0.010	-0.129
-302.807	31.409	0.166	-0.142
-301.793	-92.167	0.256	0.072
-300.778	-200.000	-0.001	0.112
-299.764	170.286	-0.111	0.158
-298.749	183.804	-0.102	0.149
-297.735	-67.162	-0.156	0.061
-296.720	582.811	-0.038	-0.092
-295.705	-159.686	-0.437	-0.024
-294.691	-138.600	0.064	0.007
-293.676	10.857	0.164	0.124
-292.662	-200.000	-0.006	0.030
-291.647	-22.086	0.554	-0.334
-290.632	-200.000	0.076	0.430
-289.618	-117.291	-0.140	-0.025
-288.603	-106.928	0.212	-0.046
-287.589	-141.552	0.247	0.025
-286.574	-186.163	0.064	-0.001
-285.559	-20.102	0.163	-0.100
-284.545	-130.868	-0.295	-0.039
-283.530	-86.849	0.145	0.044
-282.516	-200.000	0.012	0.116
-281.501	-153.313	-0.157	-0.011
-280.486	120.672	-0.107	0.131
-279.472	-82.734	0.163	-0.052
-278.457	278.359	0.096	0.170
-277.443	-40.935	-0.268	0.138
-276.428	-27.209	-0.168	0.097
-275.413	800.000	0.062	-0.221
-274.399	800.000	0.053	0.160
-273.384	-142.321	-0.157	-0.015
-272.370	51.883	0.285	0.269
-271.355	-113.829	-0.021	-0.004
-270.340	-100.959	0.243	-0.059
-269.326	800.000	0.081	0.295
-268.311	-200.000	0.084	0.493
-267.297	-82.176	0.069	0.022
-266.282	800.000	0.159	0.539
-265.267	103.479	-0.165	-0.192
-264.253	29.912	0.085	-0.072
-263.238	267.869	-0.047	-0.082
-262.224	-145.900	-0.268	0.024
-261.209	235.503	-0.167	-0.274
-260.195	-200.000	-0.046	0.361
-259.180	560.245	0.111	-0.267
-258.165	-91.042	-0.246	0.070
-257.151	19.255	-0.117	-0.093
-256.136	-8.418	-0.137	0.092
-255.122	20.864	-0.162	0.130
-254.107	32.569	-0.132	-0.113
-253.092	69.486	0.112	-0.114
-252.078	218.578	0.107	0.169
-251.063	-200.000	-0.078	-0.353
-250.049	97.993	0.130	-0.149
-249.034	-200.000	-0.011	-0.163
-248.019	91.549	-0.191	0.213
-247.005	-200.000	-0.009	-0.213
-245.990	-155.889	0.107	-0.007
-244.976	-96.266	0.241	-0.063
-243.961	-67.244	0.096	0.038
-242.946	282.519	0.086	-0.154
-241.932	-39.054	-0.218	0.114
-240.917	800.000	0.124	0.375
-239.903	36.715	0.177	-0.155
-238.888	-200.000	0.006	0.030
-237.873	52.618	0.250	-0.236
-236.859	210.255	0.061	0.095
-235.844	-61.665	0.150	-0.062
-234.830	246.169	0.031	-0.052
-233.815	800.000	-0.061	0.235
-232.800	-117.913	0.358	0.063
-231.786	-200.000	0.007	0.053
-230.771	526.117	-0.020	0.047
-229.757	-68.494	-0.184	-0.071
-228.742	-200.000	-0.006	0.475
-227.727	-7.526	0.041	0.028
-226.713	-10.174	-0.206	-0.136
-225.698	-89.206	0.160	0.047
-224.684	454.942	0.139	-0.304
-223.669	-49.255	0.098	0.046
-222.655	296.726	-0.066	0.120
-221.640	800.000	-0.079	0.231
-220.625	147.896	0.074	-0.099
-219.611	-126.524	0.147	0.022
-218.596	-43.989	-0.207	0.103
-217.582	15.335	0.442	-0.343
-216.567	127.637	-0.088	-0.111
-215.552	-38.514	0.233	-0.122
-214.538	170.859	-0.089	0.127
-213.523	-96.385	0.069	-0.018
-212.509	-200.000	0.011	0.182
-211.494	-67.017	0.449	-0.175
-210.479	-115.936	-0.412	0.076
-209.465	-110.506	-0.157	-0.032
-208.450	117.237	-0.030	-0.036
-207.436	800.000	0.071	-0.211
-206.421	165.833	-0.081	-0.113
-205.406	501.345	0.043	-0.098
-204.392	800.000	0.161	-0.557
-203.377	125.493	0.345	0.431
-202.363	-104.056	0.269	0.062
-201.348	-22.574	0.170	-0.102
-200.333	188.538	-0.099	0.147
-199.319	59.416	-0.326	-0.317
-198.304	623.667	0.126	-0.314
-197.290	-72.061	0.166	0.061
-196.275	14.661	-0.294	0.227
-195.260	229.227	-0.113	-0.183
-194.246	-200.000	-0.001	-0.094
-193.231	269.384	-0.154	0.267
-192.217	593.862	0.050	-0.123
-191.202	129.617	-0.184	-0.232
-190.187	-104.248	0.187	0.043
-189.173	-200.000	0.045	0.238
-188.158	-200.000	0.019	0.126
-187.144	503.525	0.072	-0.165
-186.129	358.269	0.115	0.226
-185.114	17.690	0.200	0.157
-184.100	-84.056	-0.312	-0.098
-183.085	268.954	0.058	-0.101
-182.071	800.000	0.108	-0.325
-181.056	-16.605	0.377	0.236
-180.042	-200.000	0.002	0.215
-179.027	-200.000	0.027	-0.195
-178.012	95.538	0.142	-0.160
-176.998	173.786	0.128	0.183
-175.983	0.881	-0.183	0.130
-174.969	24.782	0.167	-0.136
-173.954	-129.930	0.314	-0.042
-172.939	611.940	0.060	-0.149
-171.925	-200.000	0.001	0.193
-170.910	407.957	-0.038	0.078
-169.896	-17.115	-0.121	0.075
-168.881	-63.004	0.299	-0.122
-167.866	-97.602	-0.101	0.026
-166.852	203.714	-0.174	0.265
-165.837	251.874	-0.161	-0.271
-164.823	-10.508	0.213	0.139
-163.808	307.552	0.291	0.536
-162.793	139.053	-0.109	0.141
-161.779	195.683	0.082	-0.122
-160.764	340.760	-0.131	-0.253
-159.750	800.000	-0.115	-0.410
-158.735	800.000	-0.099	0.272
-157.720	4.233	0.041	0.030
-156.706	800.000	-0.082	0.323
-155.691	-200.000	-0.049	-0.288
-154.677	-200.000	0.052	-0.281
-153.662	-105.120	-0.098	0.022
-152.647	-14.462	0.206	0.131
-151.633	-200.000	-0.053	-0.266
-150.618	800.000	0.056	-0.229
-149.604	103.829	0.142	0.165
-148.589	800.000	0.087	0.274
-147.574	800.000	0.059	0.178
-146.560	-6.010	0.100	-0.068
-145.545	-200.000	-0.211	0.000
-144.531	800.000	-0.060	0.218
-143.516	48.128	0.197	-0.182
-142.502	99.443	-0.242	0.276
-141.487	-200.000	-0.552	-0.001
-140.472	253.162	-0.031	0.053
-139.458	83.991	-0.120	-0.130
-138.443	24.532	0.265	-0.216
-137.429	-200.000	0.030	-0.452
-136.414	73.784	0.320	-0.331
-135.399	-172.325	0.195	-0.006
-134.385	117.509	-0.119	-0.145
-133.370	1.881	-0.101	0.072
-132.356	-162.477	-0.279	0.014
-131.341	96.378	-0.130	0.146
-130.326	74.156	-0.215	0.223
-129.312	-157.310	0.422	-0.025
-128.297	-156.972	0.311	-0.019
-127.283	-97.409	-0.394	0.101
-126.268	-150.948	0.135	0.010
-125.253	-184.653	-0.352	0.006
-124.239	800.000	0.031	-0.091
-123.224	529.288	-0.120	-0.278
-122.210	-165.363	0.085	0.004
-121.195	-83.995	0.100	0.031
-120.180	89.221	0.130	-0.143
-119.166	157.752	0.171	0.233
-118.151	-162.815	-0.109	-0.005
-117.137	-200.000	0.058	-0.308
-116.122	-200.000	0.001	-0.023
-115.107	364.209	0.064	0.127
-114.093	-73.248	0.072	0.026
-113.078	400.332	0.081	0.167
-112.064	38.206	0.053	-0.047
-111.049	92.114	0.278	0.309
-110.034	-78.668	0.252	-0.085
-109.020	27.073	-0.142	-0.117
-108.005	323.661	0.060	-0.112
-106.991	-200.000	0.006	-0.041
-105.976	586.489	0.128	-0.310
-104.962	140.743	0.200	0.260
-103.947	499.584	-0.073	-0.165
-102.932	-158.964	-0.103	0.006
-101.918	-162.080	-0.492	-0.024
-100.903	397.050	0.067	0.138
-99.889	129.723	0.183	0.230
-98.874	800.000	-0.055	0.224
-97.859	365.022	-0.161	0.320
-96.845	371.294	-0.068	0.135
-95.830	-31.331	-0.024	-0.014
-94.816	-200.000	-0.002	-0.101
-93.801	-77.867	0.027	-0.009
-92.786	62.917	0.169	0.166
-91.772	243.941	0.089	-0.147
-90.757	195.174	-0.141	0.211
-89.743	324.922	-0.081	0.152
-88.728	-200.000	-0.001	-0.447
-87.713	4.429	-0.370	0.267
-86.699	-152.101	0.300	-0.021
-85.684	390.506	0.144	-0.294
-84.670	-200.000	-0.011	0.132
-83.655	-171.061	0.216	0.007
-82.640	34.360	-0.270	0.232
-81.626	800.000	-0.033	0.107
-80.611	-34.184	-0.268	0.145
-79.597	-31.501	0.201	0.111
-78.582	-7.887	-0.146	-0.097
-77.567	-76.434	-0.550	-0.190
-76.553	-137.407	0.154	-0.017
-75.538	-200.000	0.006	-0.079
-74.524	108.227	-0.212	0.249
-73.509	92.271	0.170	0.188
-72.494	-136.879	-0.078	0.009
-71.480	316.753	-0.098	-0.182
-70.465	-200.000	0.020	0.225
-69.451	-171.768	-0.468	0.015
-68.436	136.491	-0.056	0.072
-67.422	-28.814	0.116	-0.065
-66.407	-32.187	-0.388	-0.213
-65.392	800.000	-0.134	0.392
-64.378	208.935	0.163	0.251
-63.363	34.518	0.038	-0.033
-62.349	28.907	-0.139	-0.116
-61.334	31.110	-1.100	-0.928
-60.319	39.384	0.471	0.414
-59.305	390.500	-0.376	-0.767
-58.290	800.000	0.308	0.887
-57.276	464.672	0.639	1.405
-56.261	-200.000	95.629	573.791
-55.246	651.659	1376.013	3466.153
-54.232	198.218	2555.616	3841.838
-53.217	112.905	2268.569	2702.370
-52.203	42.134	1894.831	1691.389
-51.188	36.048	1685.296	1458.405
-50.173	33.369	1641.005	1400.240
-49.159	50.398	1686.827	1567.289
-48.144	52.246	1703.082	1596.176
-47.130	35.660	1664.314	1437.116
-46.115	32.812	1650.432	1403.915
-45.100	32.751	1644.806	1398.626
-44.086	32.567	1642.600	1395.326
-43.071	32.682	1639.692	1393.652
-42.057	32.703	1637.062	1391.517
-41.042	32.624	1635.436	1389.501
-40.027	32.609	1633.641	1387.807
-39.013	32.547	1631.934	1385.849
-37.998	32.610	1630.406	1384.954
-36.984	32.715	1628.548	1384.097
-35.969	32.680	1627.475	1382.873
-34.954	32.770	1625.824	1382.069
-33.940	32.732	1623.717	1379.946
-32.925	32.723	1622.009	1378.377
-31.911	32.808	1620.253	1377.453
-30.896	32.689	1618.604	1375.124
-29.881	32.721	1617.246	1374.149
-28.867	32.655	1616.139	1372.675
-27.852	32.799	1613.943	1371.800
-26.838	32.780	1612.074	1370.018
-25.823	32.755	1611.075	1368.939
-24.809	32.830	1609.770	1368.320
-23.794	32.715	1607.931	1365.865
-22.779	32.761	1606.529	1364.951
-21.765	32.803	1605.113	1364.003
-20.750	32.853	1602.926	1362.452
-19.736	32.798	1601.627	1360.897
-18.721	32.769	1600.815	1359.939
-17.706	32.818	1598.896	1358.613
-16.692	32.728	1598.115	1357.245
-15.677	32.746	1596.384	1355.853
-14.663	32.792	1595.282	1355.194
-13.648	32.853	1593.284	1353.877
-12.633	32.759	1592.283	1352.302
-11.619	32.768	1590.577	1350.863
-10.604	32.874	1588.766	1350.030
-9.590	32.794	1587.984	1348.737
-8.575	32.677	1586.638	1346.702
-7.560	32.759	1585.400	1346.188
-6.546	32.872	1583.778	1345.561
-5.531	32.800	1582.624	1344.017
-4.517	32.719	1581.823	1342.705
-3.502	32.679	1581.024	1341.689
-2.487	32.729	1578.814	1340.112
-1.473	32.406	1568.146	1328.725
-0.458	29.846	1548.066	1293.784
0.556	26.302	1548.962	1262.066
1.571	23.903	1572.174	1263.835
2.586	23.353	1585.266	1270.309
3.600	20.772	1531.700	1209.371
4.615	12.695	1423.807	1071.718
5.629	5.942	1360.723	982.018
6.644	4.859	1352.738	969.428
7.659	4.736	1351.545	967.723
8.673	4.652	1350.764	966.553
9.688	4.794	1348.890	966.008
10.702	4.667	1346.211	963.222
11.717	7.858	1351.634	986.828
12.731	15.442	1365.758	1044.409
13.746	20.120	1372.717	1078.827
14.761	19.653	1370.491	1074.077
15.775	18.563	1367.840	1065.138
16.790	17.581	1365.351	1057.020
17.804	16.689	1363.256	1049.775
18.819	16.291	1361.515	1045.878
19.834	16.059	1360.392	1043.484
20.848	15.825	1359.112	1040.964
21.863	15.651	1357.799	1038.790
22.877	15.426	1356.917	1036.635
23.892	15.407	1356.097	1035.796
24.907	15.301	1355.504	1034.602
25.921	15.474	1353.672	1034.174
26.936	15.546	1353.321	1034.259
27.950	15.570	1352.508	1033.696
28.965	15.758	1350.830	1033.477
29.980	15.695	1350.149	1032.475
30.994	15.803	1349.131	1032.268
32.009	15.852	1347.654	1031.346
33.023	15.818	1346.252	1029.975
34.038	15.640	1345.254	1028.030
35.053	15.689	1344.152	1027.400
36.067	15.596	1343.145	1025.973
37.082	15.659	1341.722	1025.178
38.096	15.736	1340.868	1024.900
39.111	15.755	1340.325	1024.510
40.126	15.635	1339.483	1023.049
41.140	15.483	1338.484	1021.269
42.155	15.357	1337.834	1019.915
43.169	15.377	1337.828	1019.946
44.184	15.304	1337.641	1019.266
45.199	15.436	1337.271	1019.694
46.213	15.550	1336.296	1019.556
47.228	15.551	1335.763	1019.062
48.242	15.613	1334.582	1018.447
49.257	15.547	1333.170	1016.882
50.271	15.650	1331.630	1016.243
51.286	15.470	1330.919	1014.519
52.301	15.561	1329.067	1013.570
53.315	15.579	1327.714	1012.553
54.330	15.429	1326.990	1011.012
55.344	15.434	1325.391	1009.734
56.359	15.429	1324.909	1009.245
57.374	15.390	1323.974	1008.212
58.388	15.300	1323.197	1006.987
59.403	15.233	1323.335	1006.600
60.417	15.230	1322.356	1005.751
61.432	15.316	1321.310	1005.381
62.447	15.345	1319.549	1004.127
63.461	15.195	1318.717	1002.507
64.476	15.154	1317.807	1001.482
65.490	15.223	1316.499	1000.808
66.505	15.282	1315.114	1000.023
67.520	15.152	1314.327	998.557
68.534	15.240	1313.433	998.319
69.549	15.306	1311.794	997.377
70.563	15.232	1311.043	996.274
71.578	15.163	1309.680	994.745
72.593	15.008	1308.905	993.146
73.607	15.033	1308.497	992.898
74.622	15.163	1307.118	992.533
75.636	15.112	1307.151	992.166
76.651	15.208	1306.388	992.069
77.666	15.147	1305.565	990.993
78.680	15.132	1305.156	990.510
79.695	15.252	1304.248	990.440
80.709	15.360	1303.224	990.213
81.724	15.460	1302.386	990.078
82.739	15.406	1301.911	989.313
83.753	15.482	1300.796	988.822
84.768	15.511	1299.889	988.216
85.782	15.679	1299.015	988.451
86.797	15.554	1297.905	986.789
87.812	15.440	1296.630	985.061
88.826	15.491	1295.211	984.192
89.841	15.662	1294.111	984.271
90.855	15.621	1293.327	983.348
91.870	15.651	1292.985	983.180
92.884	15.744	1291.570	982.558
93.899	15.662	1290.787	981.400
94.914	15.694	1290.296	981.123
95.928	15.669	1289.501	980.286
96.943	15.637	1288.633	979.355
97.957	15.678	1287.565	978.695
98.972	15.606	1286.748	977.570
99.987	15.642	1285.423	976.687
101.001	15.623	1284.591	975.856
102.016	15.611	1283.588	974.935
103.030	15.653	1282.303	974.120
104.045	15.642	1281.567	973.407
105.060	15.566	1280.352	971.962
106.074	15.429	1279.170	970.183
107.089	15.361	1277.539	968.469
108.103	15.185	1276.390	966.499
109.118	15.320	1274.709	965.917
110.133	15.373	1273.603	965.296
111.147	15.362	1272.377	964.219
112.162	15.333	1271.655	963.424
113.176	15.395	1270.346	962.699
114.191	15.327	1269.576	961.642
115.206	15.349	1268.386	960.782
116.220	15.345	1267.300	959.854
117.235	15.425	1265.949	959.199
118.249	15.432	1264.560	958.105
119.264	15.411	1263.860	957.365
120.279	15.295	1263.227	956.141
121.293	15.299	1261.896	955.075
122.308	15.330	1260.510	954.118
123.322	15.264	1259.880	953.182
124.337	15.234	1258.902	952.187
125.352	15.263	1257.861	951.478
126.366	15.166	1256.907	950.123
127.381	15.239	1256.001	949.768
128.395	15.395	1254.670	949.560
129.410	15.305	1253.912	948.395
130.424	15.314	1252.776	947.499
131.439	15.408	1251.778	947.190
132.454	15.366	1251.146	946.392
133.468	15.398	1250.047	945.656
134.483	15.526	1249.164	945.625
135.497	15.398	1248.757	944.516
136.512	15.414	1247.226	943.362
137.527	15.529	1245.460	942.593
138.541	15.401	1244.341	940.941
139.556	15.431	1243.396	940.311
140.570	15.392	1242.807	939.564
141.585	15.644	1240.795	939.371
142.600	15.704	1239.899	938.943
143.614	15.784	1238.586	938.314
144.629	15.792	1237.722	937.622
145.643	15.751	1236.654	936.496
146.658	15.637	1235.529	934.929
147.673	15.580	1233.986	933.363
148.687	15.507	1232.985	932.116
149.702	15.418	1232.095	930.872
150.716	15.431	1230.646	929.762
151.731	15.575	1229.082	929.295
152.746	15.651	1227.832	928.689
153.760	15.675	1226.522	927.749
154.775	15.632	1225.901	926.961
155.789	15.637	1225.213	926.384
156.804	15.618	1224.053	925.323
157.819	15.664	1222.960	924.669
158.833	15.724	1222.050	924.224
159.848	15.896	1221.489	924.666
160.862	15.885	1220.156	923.516
161.877	15.749	1219.076	921.872
162.892	15.563	1218.127	920.051
163.906	15.552	1217.473	919.415
164.921	15.568	1216.715	918.853
165.935	15.631	1215.823	918.441
166.950	15.703	1214.658	917.873
167.964	15.778	1214.125	917.796
168.979	15.755	1213.394	917.039
169.994	15.666	1212.259	915.615
171.008	15.850	1211.698	916.109
172.023	15.891	1210.604	915.426
173.037	15.889	1210.150	914.989
174.052	15.763	1209.849	913.999
175.067	15.618	1208.943	912.442
176.081	15.546	1207.543	910.918
177.096	15.650	1206.664	910.734
178.110	15.667	1205.497	909.865
179.125	15.774	1203.863	909.133
180.140	15.836	1203.078	908.791
181.154	15.859	1201.611	907.728
182.169	15.862	1200.431	906.773
183.183	15.864	1199.630	906.100
184.198	15.917	1198.609	905.532
185.213	15.897	1197.470	904.486
186.227	15.925	1196.649	903.934
187.242	15.983	1195.322	903.165
188.256	16.010	1194.524	902.627
189.271	15.969	1193.675	901.684
190.286	15.944	1192.285	900.421
191.300	15.770	1191.568	898.870
192.315	15.700	1190.704	897.764
193.329	15.630	1190.339	897.039
194.344	15.640	1189.509	896.387
195.359	15.846	1188.960	896.988
196.373	15.853	1188.694	896.748
197.388	15.929	1187.996	896.544
198.402	16.177	1187.445	897.368
199.417	16.254	1186.784	897.199
200.432	16.219	1186.142	896.451
201.446	16.280	1185.452	896.174
202.461	16.245	1184.834	895.443
203.475	16.216	1183.682	894.337
204.490	16.229	1182.171	893.185
205.504	16.086	1181.108	891.544
206.519	16.128	1179.965	890.825
207.534	16.182	1178.691	890.071
208.548	16.152	1178.246	889.496
209.563	16.127	1177.073	888.402
210.577	16.116	1176.338	887.711
211.592	16.239	1175.478	887.631
212.607	16.333	1175.044	887.719
213.621	16.377	1173.576	886.763
214.636	16.246	1172.962	885.529
215.650	16.327	1172.212	885.315
216.665	16.428	1171.300	885.071
217.680	16.424	1170.406	884.300
218.694	16.438	1169.319	883.472
219.709	16.556	1168.541	883.426
220.723	16.487	1168.135	882.679
221.738	16.449	1167.138	881.648
222.753	16.493	1166.797	881.543
223.767	16.556	1165.751	881.003
224.782	16.614	1164.873	880.562
225.796	16.472	1164.767	879.665
226.811	16.494	1164.137	879.226
227.826	16.486	1163.339	878.503
228.840	16.544	1162.598	878.166
229.855	16.503	1161.767	877.249
230.869	16.402	1161.023	876.088
231.884	16.443	1160.383	875.738
232.899	16.493	1159.300	875.100
233.913	16.341	1158.954	873.980
234.928	16.355	1157.918	873.191
235.942	16.392	1157.079	872.670
236.957	16.420	1155.943	871.884
237.972	16.361	1155.473	871.147
238.986	16.442	1155.051	871.170
240.001	16.381	1154.703	870.514
241.015	16.419	1153.224	869.520
242.030	16.489	1152.677	869.391
243.045	16.571	1152.015	869.236
244.059	16.594	1151.317	868.748
245.074	16.673	1150.291	868.305
246.088	16.666	1149.641	867.700
247.103	16.665	1148.917	867.074
248.117	16.857	1148.111	867.368
249.132	16.860	1147.572	866.903
250.147	16.986	1146.779	866.870
251.161	17.033	1145.984	866.433
252.176	17.072	1145.288	866.027
253.190	17.190	1144.953	866.296
254.205	17.140	1144.169	865.376
255.220	17.282	1143.213	865.298
256.234	17.141	1142.535	863.991
257.249	17.137	1142.195	863.639
258.263	17.268	1141.513	863.713
259.278	17.115	1141.007	862.473
260.293	17.134	1140.502	862.113
261.307	17.225	1140.106	862.199
262.322	17.341	1139.271	862.078
263.336	17.282	1138.720	861.289
264.351	17.538	1137.714	861.747
265.366	17.351	1137.482	860.550
266.380	17.219	1136.735	859.240
267.395	17.359	1135.748	859.125
268.409	17.188	1135.459	857.963
269.424	17.268	1134.284	857.407
270.439	17.261	1133.808	856.935
271.453	17.237	1133.060	856.171
272.468	17.234	1131.874	855.188
273.482	17.063	1131.599	854.039
274.497	17.139	1130.904	853.823
275.512	17.219	1130.221	853.634
276.526	17.107	1129.479	852.438
277.541	17.381	1128.672	853.128
278.555	17.272	1128.285	852.212
279.570	17.401	1127.390	852.106
280.585	17.402	1126.697	851.511
281.599	17.493	1125.432	850.936
282.614	17.420	1124.505	849.793
283.628	17.387	1123.350	848.682
284.643	17.363	1122.615	847.933
285.657	17.480	1121.849	847.863
286.672	17.441	1121.020	846.966
287.687	17.418	1120.115	846.092
288.701	17.348	1119.613	845.290
289.716	17.444	1118.694	845.000
290.730	17.454	1117.654	844.187
291.745	17.559	1117.301	844.369
292.760	17.526	1116.577	843.580
293.774	17.487	1116.160	842.998
294.789	17.596	1115.735	843.145
295.803	17.532	1114.639	841.924
296.818	17.641	1113.432	841.476
297.833	17.517	1113.422	840.783
298.847	17.508	1112.499	839.966
299.862	17.489	1111.906	839.350
300.876	17.559	1110.889	838.852
301.891	17.634	1110.234	838.656
302.906	17.654	1109.925	838.446
303.920	17.740	1109.293	838.316
304.935	17.841	1108.162	837.880
305.949	18.035	1107.550	838.296
306.964	17.916	1107.046	837.258
307.979	17.820	1106.150	836.037
308.993	17.767	1105.470	835.189
310.008	17.922	1104.723	835.310
311.022	17.862	1104.063	834.444
312.037	17.924	1103.085	833.931
313.052	17.760	1102.129	832.338
314.066	17.697	1101.259	831.296
315.081	17.643	1100.502	830.388
316.095	17.581	1100.035	829.661
317.110	17.657	1099.082	829.241
318.125	17.688	1098.154	828.615
319.139	17.715	1097.550	828.218
320.154	17.649	1096.688	827.174
321.168	17.794	1096.058	827.330
322.183	17.832	1095.398	826.943
323.197	17.763	1095.071	826.289
324.212	17.723	1094.898	825.889
325.227	17.836	1093.882	825.599
326.241	17.890	1093.169	825.248
327.256	17.754	1092.798	824.238
328.270	17.819	1091.546	823.533
329.285	17.789	1090.574	822.585
330.300	17.872	1089.463	822.073
331.314	17.934	1088.498	821.568
332.329	17.805	1087.743	820.307
333.343	17.973	1086.763	820.303
334.358	17.973	1086.457	819.999
335.373	17.983	1085.901	819.555
336.387	18.037	1085.101	819.138
337.402	18.024	1084.228	818.342
338.416	18.029	1083.420	817.683
339.431	18.140	1082.890	817.744
340.446	18.223	1082.196	817.543
341.460	18.261	1081.829	817.377
342.475	18.339	1080.720	816.837
343.489	18.226	1080.149	815.796
344.504	18.368	1079.355	815.798
345.519	18.280	1078.321	814.528
346.533	18.384	1077.591	814.398
347.548	18.436	1076.584	813.811
348.562	18.374	1076.424	813.325
349.577	18.317	1075.342	812.162
350.592	18.396	1073.991	811.445
351.606	18.241	1073.510	810.278
352.621	18.296	1072.908	810.012
353.635	18.169	1072.496	809.028
354.650	18.197	1071.651	808.453
355.665	18.262	1070.732	807.992
356.679	18.295	1070.669	808.032
357.694	18.365	1069.866	807.681
358.708	18.419	1068.982	807.199
359.723	18.339	1068.354	806.278
360.738	18.511	1067.806	806.600
361.752	18.372	1067.479	805.626
362.767	18.396	1066.742	805.112
363.781	18.456	1066.391	805.061
364.796	18.472	1066.005	804.771
365.810	18.554	1065.382	804.613
366.825	18.613	1064.344	804.035
367.840	18.783	1063.872	804.407
368.854	18.796	1062.904	803.664
369.869	18.689	1062.640	802.892
370.883	18.740	1061.734	802.372
371.898	18.633	1060.923	801.191
372.913	18.697	1060.105	800.802
373.927	18.646	1060.245	800.599
374.942	18.629	1059.698	800.033
375.956	18.766	1059.182	800.212
376.971	18.725	1058.603	799.515
377.986	18.927	1057.512	799.558
379.000	19.028	1056.920	799.509
380.015	18.953	1056.915	799.085
381.029	18.980	1056.511	798.834
382.044	18.951	1055.663	797.987
383.059	18.902	1055.079	797.250
384.073	18.954	1053.670	796.354
385.088	19.098	1052.864	796.342
386.102	19.129	1052.087	795.828
387.117	19.026	1050.714	794.241
388.132	18.889	1050.371	793.283
389.146	18.848	1049.029	792.008
390.161	18.838	1048.506	791.499
391.175	18.866	1047.977	791.157
392.190	19.014	1047.203	791.185
393.205	18.974	1046.877	790.682
394.219	18.906	1046.330	789.889
395.234	18.977	1045.043	789.173
396.248	18.980	1044.044	788.363
397.263	18.870	1043.492	787.370
398.278	18.875	1042.321	786.442
399.292	18.883	1041.817	786.029
400.307	18.870	1040.708	785.060
401.321	18.888	1040.322	784.781
402.336	18.973	1039.443	784.438
403.350	18.819	1039.039	783.363
404.365	18.833	1038.445	782.910
405.380	19.043	1037.506	783.088
406.394	19.062	1036.861	782.616
407.409	19.133	1036.413	782.530
408.423	19.143	1035.746	782.005
409.438	19.299	1035.139	782.187
410.453	19.326	1034.181	781.516
411.467	19.384	1033.538	781.222
412.482	19.422	1032.775	780.748
413.496	19.412	1032.438	780.379
414.511	19.437	1031.888	780.007
415.526	19.484	1031.471	779.836
416.540	19.494	1031.063	779.503
417.555	19.538	1030.249	779.017
418.569	19.408	1029.854	778.063
419.584	19.619	1029.226	778.470
420.599	19.578	1028.975	778.029
421.613	151.743	1401.096	1794.803
422.628	138.423	1455.276	1794.908
