DTS Sentinel unit serial number:	SN413079Multiplexer serial number:	ORYXHardware model number:	OX4-SRSoftware version number:	ORYX F/W v4.00 Oryx Data Collector v3.7.2.0data status	okinstallation	princeton_trtdifferential loss correction	single-endedforward channel	channel 2reverse channel	N/Adate	2019/09/18time	03:11:35forward acquisition time	60.00reverse acquisition time	0.00gamma	496.2192k internal	0.2349k external	0.2349temperature offset calibration	0.9981default loss term (dB/km)	0.3790temperature slope calibration	1.0000multiplexer offset coefficient	1.0000multiplexer slope coefficient	1.0000fibre end	0.00T internal ref (°C)	22.75T ext. ref 1 (°C)	0.16T ext. ref 2 (°C)	16.93length (m)	temperature (°C)	Stokes	anti-Stokes-747.200	-200.000	-0.008	0.195
-746.185	-117.116	-0.177	0.032
-745.171	800.000	-0.110	-0.378
-744.156	10.479	-0.167	-0.127
-743.142	187.447	0.092	0.136
-742.127	800.000	-0.129	0.374
-741.112	-27.060	0.445	0.259
-740.098	103.601	-0.199	0.233
-739.083	316.238	0.155	0.293
-738.069	377.478	-0.135	0.275
-737.054	-200.000	0.014	0.182
-736.039	-85.863	-0.282	-0.087
-735.025	800.000	0.137	0.457
-734.010	596.790	-0.172	-0.425
-732.996	-136.251	-0.303	-0.035
-731.981	-84.516	-0.472	-0.149
-730.966	287.955	0.048	-0.087
-729.952	559.612	0.047	0.114
-728.937	-70.917	-0.156	0.059
-727.923	-151.868	-0.210	0.015
-726.908	24.513	-0.269	0.222
-725.894	-134.070	0.252	0.031
-724.879	103.474	0.162	-0.189
-723.864	-200.000	-0.010	0.062
-722.850	800.000	0.029	0.083
-721.835	101.342	-0.187	-0.217
-720.821	36.872	0.098	0.087
-719.806	-200.000	-0.003	-0.042
-718.791	-200.000	0.050	-0.454
-717.777	17.333	0.242	0.192
-716.762	4.299	-0.203	0.148
-715.748	2.268	-0.213	0.153
-714.733	-200.000	-0.030	0.146
-713.718	-36.389	-0.183	0.098
-712.704	-64.574	0.113	0.046
-711.689	21.917	0.155	0.126
-710.675	800.000	0.079	0.300
-709.660	-87.272	-0.039	-0.012
-708.645	-41.958	-0.185	0.095
-707.631	247.975	-0.028	-0.047
-706.616	-200.000	0.012	-0.193
-705.602	47.597	0.126	0.118
-704.587	-200.000	0.001	-0.156
-703.572	621.359	0.032	0.081
-702.558	-110.506	0.180	0.037
-701.543	-138.549	-0.263	-0.029
-700.529	-50.957	0.147	0.069
-699.514	800.000	0.105	0.407
-698.499	147.286	0.056	-0.075
-697.485	-139.836	0.140	0.015
-696.470	42.039	0.122	-0.110
-695.456	800.000	-0.067	0.191
-694.441	-17.024	-0.236	-0.148
-693.426	-27.881	0.251	-0.145
-692.412	17.398	-0.261	-0.207
-691.397	62.917	-0.025	-0.025
-690.383	438.330	-0.075	0.164
-689.368	-200.000	0.008	-0.121
-688.354	800.000	0.106	0.327
-687.339	196.014	-0.172	-0.260
-686.324	-133.031	-0.160	0.020
-685.310	387.927	0.021	-0.042
-684.295	-13.334	-0.082	-0.053
-683.281	-77.039	-0.304	-0.106
-682.266	-6.934	-0.284	0.192
-681.251	-200.000	0.030	0.134
-680.237	9.891	-0.213	-0.161
-679.222	140.345	0.209	-0.275
-678.208	280.183	0.187	-0.332
-677.193	-55.460	-0.310	0.138
-676.178	-153.759	0.426	0.029
-675.164	86.749	-0.218	-0.240
-674.149	183.095	0.072	-0.105
-673.135	-60.180	0.114	0.048
-672.120	101.567	-0.214	0.248
-671.105	306.364	-0.164	0.304
-670.091	-80.329	0.257	-0.086
-669.076	-200.000	-0.060	0.449
-668.062	-200.000	0.051	-0.253
-667.047	145.909	0.196	-0.261
-666.032	-66.735	-0.091	0.036
-665.018	-110.219	0.180	0.037
-664.003	112.647	0.150	-0.180
-662.989	-90.100	-0.392	0.114
-661.974	67.884	0.430	-0.438
-660.959	104.617	0.103	0.121
-659.945	-60.060	0.167	-0.071
-658.930	350.118	0.219	0.431
-657.916	173.679	0.152	-0.218
-656.901	-132.398	-0.248	0.032
-655.886	44.116	0.070	-0.064
-654.872	-200.000	0.080	0.000
-653.857	146.548	-0.201	0.269
-652.843	800.000	0.098	0.372
-651.828	-60.582	-0.323	-0.136
-650.814	42.223	-0.121	-0.110
-649.799	18.130	0.071	-0.056
-648.784	205.435	-0.109	-0.169
-647.770	-138.310	0.137	-0.015
-646.755	366.661	-0.141	-0.282
-645.741	800.000	-0.054	0.179
-644.726	9.297	0.147	0.111
-643.711	-101.776	0.099	0.024
-642.697	-184.344	0.159	-0.003
-641.682	249.129	0.107	0.180
-640.668	406.903	0.037	-0.079
-639.653	800.000	-0.080	-0.299
-638.638	-200.000	-0.001	-0.028
-637.624	800.000	0.056	-0.200
-636.609	-18.411	-0.071	-0.044
-635.595	-63.105	-0.259	-0.106
-634.580	26.175	0.113	-0.094
-633.565	416.601	0.129	0.273
-632.551	-64.223	-0.543	0.220
-631.536	800.000	0.037	-0.130
-630.522	-200.000	0.075	0.385
-629.507	-97.179	-0.130	0.034
-628.492	-99.799	-0.123	-0.031
-627.478	-69.533	0.165	0.063
-626.463	-200.000	0.015	-0.191
-625.449	-200.000	-0.001	0.250
-624.434	154.474	0.035	-0.048
-623.419	171.718	-0.038	-0.055
-622.405	65.588	0.150	0.151
-621.390	-200.000	-0.010	0.220
-620.376	747.857	0.052	-0.138
-619.361	-24.961	-0.263	0.155
-618.346	72.805	0.065	0.068
-617.332	800.000	-0.021	-0.072
-616.317	-200.000	0.081	-0.524
-615.303	800.000	0.138	0.386
-614.288	568.812	-0.041	0.098
-613.273	-79.360	-0.199	0.067
-612.259	-84.260	-0.208	0.066
-611.244	73.441	-0.164	0.171
-610.230	103.544	-0.206	-0.241
-609.215	103.142	-0.206	-0.240
-608.201	-17.095	0.136	0.085
-607.186	-100.122	-0.028	0.007
-606.171	-116.990	0.247	-0.045
-605.157	-200.000	-0.019	-0.140
-604.142	232.853	-0.138	-0.225
-603.128	214.525	-0.191	-0.300
-602.113	-112.362	-0.367	0.073
-601.098	-136.900	-0.181	0.021
-600.084	-200.000	0.013	-0.448
-599.069	321.180	-0.121	-0.229
-598.055	136.591	0.149	-0.193
-597.040	-17.064	-0.083	-0.052
-596.025	117.973	-0.051	-0.062
-595.011	87.825	0.114	0.125
-593.996	-58.945	0.185	0.079
-592.982	-82.334	-0.122	-0.039
-591.967	569.499	-0.039	-0.095
-590.952	-113.798	-0.198	0.038
-589.938	-86.289	0.252	0.077
-588.923	42.070	0.165	0.149
-587.909	32.821	-0.117	0.101
-586.894	-200.000	0.029	-0.255
-585.879	-168.074	-0.171	-0.007
-584.865	800.000	-0.060	0.223
-583.850	-82.819	0.108	0.035
-582.836	435.705	-0.109	0.234
-581.821	-82.894	0.025	-0.008
-580.806	-131.063	-0.075	-0.010
-579.792	-102.389	-0.143	-0.034
-578.777	195.978	0.098	-0.149
-577.763	-133.368	-0.148	0.018
-576.748	-133.999	0.110	0.014
-575.733	208.795	0.090	-0.140
-574.719	-11.040	0.046	-0.030
-573.704	-200.000	0.001	-0.356
-572.690	-134.259	0.349	-0.043
-571.675	800.000	-0.019	-0.063
-570.661	-19.238	-0.192	0.118
-569.646	17.292	0.104	0.082
-568.631	434.153	-0.091	0.195
-567.617	432.052	-0.114	-0.246
-566.602	800.000	0.098	0.276
-565.588	309.892	0.201	-0.372
-564.573	233.150	-0.217	-0.353
-563.558	-34.362	0.222	-0.121
-562.544	800.000	-0.071	0.233
-561.529	14.347	-0.257	0.199
-560.515	564.111	-0.073	-0.176
-559.500	-91.883	0.144	0.040
-558.485	179.963	0.078	0.114
-557.471	157.197	0.023	0.031
-556.456	13.611	0.189	0.146
-555.442	-6.498	-0.138	-0.093
-554.427	800.000	-0.075	0.266
-553.412	-18.121	0.233	-0.145
-552.398	206.083	-0.194	-0.299
-551.383	-3.277	0.152	0.105
-550.369	-55.773	0.166	0.073
-549.354	-112.331	-0.606	0.120
-548.339	129.460	-0.085	0.108
-547.325	-81.393	-0.053	-0.017
-546.310	800.000	-0.031	-0.135
-545.296	143.125	-0.095	-0.125
-544.281	-185.420	0.030	-0.000
-543.266	664.001	-0.048	-0.122
-542.252	800.000	0.022	0.082
-541.237	337.799	0.082	0.159
-540.223	-143.704	0.119	-0.011
-539.208	292.108	-0.189	0.341
-538.193	19.028	0.323	0.257
-537.179	-129.713	-0.251	-0.034
-536.164	-120.477	0.165	0.028
-535.150	101.739	-0.113	-0.130
-534.135	133.127	0.101	-0.130
-533.121	122.536	0.111	-0.138
-532.106	-121.122	0.259	-0.043
-531.091	601.462	-0.206	-0.506
-530.077	26.444	-0.206	-0.171
-529.062	-169.031	-0.074	-0.003
-528.048	800.000	0.012	0.050
-527.033	-65.544	0.148	0.059
-526.018	59.092	0.122	-0.119
-525.004	130.608	0.283	0.359
-523.989	-12.133	0.110	-0.071
-522.975	-49.259	-0.235	0.111
-521.960	547.859	-0.104	0.246
-520.945	-167.914	-0.048	-0.002
-519.931	92.277	-0.034	-0.038
-518.916	-90.690	0.301	-0.086
-517.902	116.102	0.214	-0.260
-516.887	-77.666	0.292	-0.100
-515.872	290.524	-0.094	0.169
-514.858	-69.428	0.101	-0.038
-513.843	-47.428	0.135	-0.065
-512.829	-200.000	-0.051	-0.291
-511.814	-200.000	0.008	0.075
-510.799	800.000	0.022	0.087
-509.785	-97.842	-0.236	-0.060
-508.770	56.873	-0.096	-0.093
-507.756	-20.351	-0.456	0.277
-506.741	-6.928	0.165	-0.111
-505.726	67.344	0.188	-0.190
-504.712	121.880	-0.160	0.198
-503.697	-200.000	-0.010	-0.054
-502.683	74.490	0.266	0.276
-501.668	-139.435	0.073	0.008
-500.653	-114.327	0.313	0.060
-499.639	-151.444	0.331	0.024
-498.624	-122.340	0.047	0.008
-497.610	141.029	-0.103	-0.135
-496.595	-40.304	0.196	-0.101
-495.581	34.673	-0.242	0.209
-494.566	-23.284	0.217	0.129
-493.551	-200.000	-0.005	-0.179
-492.537	32.965	0.134	-0.115
-491.522	-25.774	-0.121	0.071
-490.508	97.135	0.281	-0.319
-489.493	11.117	-0.162	-0.122
-488.478	526.380	0.109	-0.254
-487.464	330.853	-0.129	-0.246
-486.449	49.262	0.157	0.146
-485.435	9.128	0.248	0.185
-484.420	-192.216	-0.087	-0.001
-483.405	41.315	-0.302	-0.270
-482.391	800.000	0.093	-0.322
-481.376	-200.000	0.000	0.052
-480.362	-54.851	0.088	-0.039
-479.347	-39.278	0.082	-0.043
-478.332	147.210	0.172	-0.229
-477.318	104.881	0.216	0.252
-476.303	-64.653	-0.227	-0.091
-475.289	269.950	-0.141	-0.245
-474.274	30.406	-0.143	0.120
-473.259	-11.507	0.165	0.108
-472.245	286.350	-0.153	-0.273
-471.230	-57.096	-0.302	-0.132
-470.216	304.311	0.061	0.112
-469.201	-77.002	-0.412	0.142
-468.186	110.552	-0.181	0.215
-467.172	-8.556	0.222	-0.147
-466.157	334.751	-0.088	-0.168
-465.143	-200.000	-0.012	-0.158
-464.128	-200.000	0.010	-0.161
-463.113	-100.825	0.224	-0.054
-462.099	14.338	0.124	0.096
-461.084	214.528	-0.115	0.180
-460.070	800.000	0.117	0.377
-459.055	93.187	-0.036	-0.040
-458.040	361.563	0.218	0.432
-457.026	428.214	0.024	-0.052
-456.011	116.204	0.295	-0.357
-454.997	-200.000	0.019	0.099
-453.982	62.641	-0.119	-0.118
-452.968	220.190	-0.028	0.045
-451.953	-63.137	0.115	0.047
-450.938	317.930	-0.200	-0.374
-449.924	800.000	0.036	-0.122
-448.909	376.751	-0.070	-0.141
-447.895	32.929	0.130	-0.111
-446.880	796.514	-0.149	-0.405
-445.865	-24.355	-0.037	-0.022
-444.851	800.000	-0.110	-0.358
-443.836	-114.467	-0.178	-0.034
-442.822	16.173	-0.076	-0.059
-441.807	25.114	-0.381	0.312
-440.792	-15.700	0.171	0.108
-439.778	-200.000	0.011	0.068
-438.763	-150.035	-0.211	-0.016
-437.749	-49.925	-0.203	0.095
-436.734	-200.000	0.052	0.259
-435.719	200.683	-0.067	-0.101
-434.705	73.034	0.196	-0.202
-433.690	-149.543	0.395	0.031
-432.676	800.000	-0.067	0.225
-431.661	-133.555	-0.233	-0.029
-430.646	-51.979	0.088	0.040
-429.632	-200.000	-0.034	0.187
-428.617	800.000	-0.049	-0.184
-427.603	38.575	-0.360	0.316
-426.588	-119.883	-0.248	0.042
-425.573	-200.000	-0.070	-0.405
-424.559	-200.000	-0.010	-0.226
-423.544	-46.991	-0.068	-0.033
-422.530	92.740	0.229	0.255
-421.515	109.388	0.141	0.166
-420.500	-200.000	-0.024	-0.253
-419.486	-36.737	0.386	-0.205
-418.471	-1.634	-0.068	-0.047
-417.457	48.267	-0.145	-0.133
-416.442	454.069	0.108	-0.235
-415.428	-200.000	0.012	-0.391
-414.413	800.000	0.079	-0.329
-413.398	-78.525	-0.141	0.048
-412.384	-65.926	0.245	-0.097
-411.369	340.760	-0.060	0.115
-410.355	800.000	0.026	0.087
-409.340	-105.298	-0.335	0.075
-408.325	732.080	0.065	0.172
-407.311	148.920	-0.088	-0.118
-406.296	38.759	-0.174	-0.153
-405.282	-45.682	-0.329	0.160
-404.267	-105.889	0.263	0.058
-403.252	800.000	0.039	0.160
-402.238	-74.363	0.258	0.092
-401.223	104.775	0.231	0.268
-400.209	-200.000	0.016	0.150
-399.194	800.000	0.056	-0.188
-398.179	321.114	0.067	0.125
-397.165	8.503	-0.106	0.078
-396.150	97.750	0.237	0.269
-395.136	297.662	-0.025	-0.046
-394.121	325.818	0.149	-0.280
-393.106	-200.000	-0.009	0.056
-392.092	114.837	-0.017	0.020
-391.077	-125.830	-0.005	0.001
-390.063	375.146	0.178	0.358
-389.048	-121.538	0.173	-0.028
-388.033	-20.592	0.211	-0.128
-387.019	-90.893	-0.270	-0.076
-386.004	32.765	-0.024	-0.020
-384.990	148.227	-0.226	0.301
-383.975	-75.572	-0.193	-0.068
-382.960	29.063	0.299	0.250
-381.946	-200.000	0.050	0.454
-380.931	-100.680	-0.238	-0.058
-379.917	-51.063	0.463	0.214
-378.902	48.365	-0.205	-0.189
-377.888	592.554	0.044	0.108
-376.873	-200.000	-0.011	0.434
-375.858	-6.667	-0.092	0.061
-374.844	-29.934	-0.042	-0.023
-373.829	1.898	0.216	-0.153
-372.815	800.000	0.057	0.162
-371.800	60.803	0.253	0.247
-370.785	704.322	0.040	-0.104
-369.771	800.000	0.059	-0.175
-368.756	74.687	-0.170	0.176
-367.742	800.000	-0.076	0.274
-366.727	-51.990	0.308	-0.141
-365.712	659.780	0.100	0.253
-364.698	-200.000	-0.357	-0.001
-363.683	-200.000	0.008	0.274
-362.669	-172.599	0.170	0.005
-361.654	-50.798	0.110	0.051
-360.639	40.895	0.013	-0.011
-359.625	-9.274	0.072	0.047
-358.610	92.508	-0.070	0.078
-357.596	-192.804	0.167	-0.001
-356.581	-200.000	0.015	-0.114
-355.566	278.432	-0.234	-0.410
-354.552	-192.480	-0.073	-0.001
-353.537	184.069	-0.026	-0.038
-352.523	-200.000	0.022	0.470
-351.508	-94.148	0.163	-0.044
-350.493	-23.019	-0.234	-0.139
-349.479	-62.366	-0.233	0.095
-348.464	-105.721	0.289	0.064
-347.450	-131.498	0.124	-0.016
-346.435	100.584	-0.023	-0.026
-345.420	-20.839	-0.013	0.008
-344.406	-144.991	0.400	-0.036
-343.391	18.823	-0.327	-0.257
-342.377	-90.882	0.172	0.049
-341.362	-200.000	-0.015	0.247
-340.348	-17.975	0.121	-0.074
-339.333	56.353	-0.149	-0.142
-338.318	-14.776	0.033	0.021
-337.304	-118.835	-0.272	-0.047
-336.289	296.367	0.169	0.305
-335.275	-200.000	-0.023	-0.103
-334.260	543.923	-0.071	-0.166
-333.245	548.212	0.107	-0.252
-332.231	-101.066	0.130	0.031
-331.216	-180.869	0.298	0.006
-330.202	-70.835	-0.115	0.043
-329.187	66.754	0.147	-0.147
-328.172	483.440	0.116	0.260
-327.158	-129.405	0.362	0.049
-326.143	-200.000	0.044	0.397
-325.129	-200.000	-0.028	0.206
-324.114	100.569	-0.299	-0.341
-323.099	-190.759	-0.398	0.004
-322.085	-94.815	-0.130	0.035
-321.070	-92.938	-0.124	-0.034
-320.056	-114.589	0.239	0.045
-319.041	21.422	-0.131	-0.105
-318.026	-120.631	-0.124	0.021
-317.012	800.000	0.068	-0.259
-315.997	156.965	0.116	0.157
-314.983	123.809	-0.122	-0.150
-313.968	-41.628	0.196	-0.099
-312.953	-62.629	0.241	-0.098
-311.939	800.000	-0.095	0.373
-310.924	-84.185	0.315	-0.098
-309.910	3.557	-0.430	-0.308
-308.895	16.083	0.225	0.174
-307.880	-83.641	-0.139	0.044
-306.866	385.200	-0.118	0.239
-305.851	-62.772	0.181	0.073
-304.837	-200.000	0.013	-0.117
-303.822	800.000	-0.024	0.094
-302.807	328.210	-0.131	-0.246
-301.793	-87.242	-0.128	-0.038
-300.778	66.565	0.154	-0.154
-299.764	511.824	-0.030	0.069
-298.749	126.264	0.099	0.123
-297.735	-40.729	-0.098	-0.050
-296.720	21.542	0.015	0.012
-295.705	-79.457	0.080	0.027
-294.691	306.216	0.071	0.130
-293.676	-200.000	-0.047	0.253
-292.662	-11.381	-0.305	-0.197
-291.647	-200.000	0.007	-0.129
-290.632	30.356	0.303	-0.254
-289.618	-95.337	0.156	-0.041
-288.603	-200.000	0.010	0.315
-287.589	800.000	-0.087	-0.361
-286.574	9.836	0.323	-0.241
-285.559	-105.241	0.048	-0.011
-284.545	-140.161	0.216	-0.022
-283.530	800.000	-0.058	0.213
-282.516	-73.277	-0.091	0.033
-281.501	186.279	0.069	0.101
-280.486	-123.683	-0.288	-0.045
-279.472	58.574	-0.292	-0.281
-278.457	800.000	-0.024	0.071
-277.443	-109.092	0.224	-0.047
-276.428	53.963	-0.356	0.335
-275.413	64.054	0.081	-0.080
-274.399	800.000	-0.121	0.387
-273.384	-24.269	0.157	-0.092
-272.370	96.131	0.137	0.153
-271.355	35.549	0.177	0.152
-270.340	-78.851	-0.360	-0.120
-269.326	-200.000	-0.018	0.150
-268.311	95.573	0.158	-0.177
-267.297	-200.000	0.001	0.210
-266.282	81.056	-0.118	0.125
-265.267	88.372	-0.176	0.191
-264.253	800.000	-0.068	0.199
-263.238	-133.229	-0.394	-0.049
-262.224	41.433	-0.109	-0.096
-261.209	-112.286	0.120	-0.024
-260.195	-125.499	-0.215	-0.032
-259.180	136.502	0.255	0.325
-258.165	418.533	-0.188	0.394
-257.151	14.251	0.130	0.099
-256.136	75.470	-0.284	-0.294
-255.122	-70.592	-0.053	-0.020
-254.107	-2.068	0.055	-0.038
-253.092	626.348	0.105	-0.260
-252.078	800.000	-0.066	-0.238
-251.063	182.693	0.181	0.262
-250.049	343.266	-0.047	0.090
-249.034	-31.624	-0.068	-0.038
-248.019	483.882	-0.030	0.067
-247.005	134.090	0.067	0.084
-245.990	-17.240	0.137	0.084
-244.976	-10.825	-0.148	0.096
-243.961	-200.000	-0.022	0.167
-242.946	196.440	0.130	-0.194
-241.932	-70.827	-0.308	-0.114
-240.917	-200.000	0.028	0.427
-239.903	37.443	0.126	0.110
-238.888	-110.420	0.230	-0.047
-237.873	103.112	-0.037	-0.042
-236.859	430.116	-0.057	-0.121
-235.844	800.000	-0.012	-0.044
-234.830	-101.408	-0.155	0.037
-233.815	7.946	-0.329	0.241
-232.800	-200.000	-0.046	-0.214
-231.786	-200.000	-0.037	0.202
-230.771	-147.350	-0.278	-0.023
-229.757	-200.000	-0.061	-0.324
-228.742	340.807	-0.056	-0.106
-227.727	577.493	0.066	0.159
-226.713	-91.262	0.289	0.081
-225.698	-200.000	-0.042	0.223
-224.684	-141.193	0.270	-0.027
-223.669	408.268	0.189	-0.391
-222.655	-109.011	0.220	-0.046
-221.640	-200.000	0.005	0.130
-220.625	800.000	0.063	0.210
-219.611	3.167	0.187	-0.133
-218.596	-27.721	-0.133	-0.076
-217.582	-149.622	-0.021	0.002
-216.567	800.000	0.128	-0.395
-215.552	-8.468	-0.179	-0.118
-214.538	99.097	0.275	-0.310
-213.523	91.909	0.057	0.063
-212.509	-200.000	-0.032	0.324
-211.494	19.756	0.345	0.272
-210.479	-54.707	-0.256	-0.113
-209.465	67.092	-0.214	-0.213
-208.450	800.000	-0.043	-0.123
-207.436	-200.000	0.002	-0.520
-206.421	-104.158	-0.283	0.064
-205.406	160.431	-0.029	-0.039
-204.392	500.128	0.106	-0.239
-203.377	393.651	-0.056	0.113
-202.363	419.266	0.060	-0.126
-201.348	20.161	-0.091	0.072
-200.333	-1.112	0.172	-0.119
-199.319	-200.000	-0.019	0.206
-198.304	-168.591	-0.265	0.010
-197.290	800.000	0.094	-0.300
-196.275	-63.396	0.049	-0.020
-195.260	-84.992	-0.249	0.076
-194.246	-106.665	-0.090	-0.020
-193.231	51.391	0.236	0.219
-192.217	684.429	-0.042	0.106
-191.202	35.694	0.155	-0.133
-190.187	800.000	0.091	0.333
-189.173	-200.000	0.000	0.087
-188.158	-16.965	0.041	-0.025
-187.144	-200.000	0.005	0.023
-186.129	-23.846	-0.204	-0.119
-185.114	-200.000	0.020	0.278
-184.100	-30.888	-0.230	0.127
-183.085	0.942	-0.301	0.211
-182.071	354.619	0.236	0.458
-181.056	-54.331	0.293	-0.130
-180.042	-30.245	0.207	0.115
-179.027	-200.000	0.019	0.424
-178.012	-120.632	0.097	0.016
-176.998	-43.634	-0.097	-0.048
-175.983	650.250	-0.083	-0.208
-174.969	36.480	-0.138	0.119
-173.954	120.828	-0.211	0.256
-172.939	-25.101	0.175	-0.101
-171.925	67.799	0.129	-0.129
-170.910	583.655	0.031	-0.074
-169.896	394.710	-0.142	-0.290
-168.881	800.000	0.143	-0.447
-167.866	624.377	0.151	0.372
-166.852	31.309	0.040	0.033
-165.837	167.912	-0.058	0.080
-164.823	7.082	-0.208	-0.152
-163.808	-145.855	-0.105	0.009
-162.793	800.000	-0.055	-0.195
-161.779	-200.000	-0.103	0.504
-160.764	800.000	0.036	0.141
-159.750	-117.205	0.176	-0.031
-158.735	-23.210	0.371	0.218
-157.720	-73.117	-0.358	0.128
-156.706	-113.647	0.371	0.071
-155.691	-27.739	0.249	0.141
-154.677	341.460	-0.129	-0.246
-153.662	-62.263	-0.125	0.051
-152.647	-173.228	-0.284	0.008
-151.633	88.432	-0.182	-0.197
-150.618	64.998	0.083	-0.081
-149.604	-173.615	-0.135	-0.004
-148.589	161.113	-0.093	-0.127
-147.574	800.000	-0.087	0.369
-146.560	-110.442	0.127	0.026
-145.545	259.774	0.106	-0.179
-144.531	-109.611	-0.087	-0.018
-143.516	81.071	-0.248	0.261
-142.502	348.785	-0.048	-0.093
-141.487	16.271	0.156	0.120
-140.472	800.000	-0.050	0.186
-139.458	-22.166	-0.360	0.213
-138.443	-130.373	-0.386	-0.051
-137.429	101.487	-0.209	-0.237
-136.414	800.000	-0.146	-0.444
-135.399	-25.255	0.086	-0.049
-134.385	528.941	-0.088	0.203
-133.370	-200.000	0.021	-0.233
-132.356	-22.538	-0.263	-0.155
-131.341	-80.567	-0.049	-0.016
-130.326	-72.888	0.150	-0.054
-129.312	-130.208	-0.394	0.052
-128.297	-155.344	0.068	-0.004
-127.283	-105.318	-0.360	-0.080
-126.268	-119.656	0.139	-0.023
-125.253	-53.640	-0.411	-0.183
-124.239	498.347	-0.194	0.436
-123.224	-3.651	0.196	-0.133
-122.210	-170.743	0.066	0.002
-121.195	-200.000	0.021	-0.151
-120.180	-77.895	0.185	-0.062
-119.166	-12.114	-0.287	-0.183
-118.151	-200.000	-0.004	-0.057
-117.137	-56.116	-0.121	0.053
-116.122	-146.785	0.175	0.015
-115.107	-43.634	0.009	-0.004
-114.093	-33.515	0.281	-0.151
-113.078	-20.317	0.371	0.222
-112.064	-200.000	-0.003	-0.232
-111.049	800.000	0.067	0.209
-110.034	428.592	0.093	0.196
-109.020	-200.000	-0.017	0.192
-108.005	576.796	0.110	-0.263
-106.991	800.000	0.083	0.236
-105.976	-118.564	0.390	0.067
-104.962	273.411	-0.133	-0.229
-103.947	25.833	-0.232	-0.189
-102.932	-136.339	-0.137	-0.016
-101.918	-106.894	0.235	0.051
-100.903	199.295	-0.129	-0.192
-99.889	-200.000	0.013	0.133
-98.874	-103.514	-0.224	0.051
-97.859	190.869	-0.107	0.157
-96.845	-122.258	0.280	0.045
-95.830	-121.401	0.234	-0.038
-94.816	145.781	0.080	0.104
-93.801	-200.000	-0.011	0.087
-92.786	14.904	-0.215	0.164
-91.772	567.282	-0.015	-0.036
-90.757	-103.428	0.355	-0.081
-89.743	785.656	-0.022	0.058
-88.728	-78.585	0.374	0.124
-87.713	-138.049	0.045	0.005
-86.699	168.169	-0.153	-0.212
-85.684	-200.000	-0.012	0.138
-84.670	-72.994	0.215	-0.077
-83.655	50.219	-0.209	0.192
-82.640	527.764	0.025	-0.058
-81.626	-57.857	0.178	0.076
-80.611	41.172	0.132	0.116
-79.597	774.295	0.059	0.156
-78.582	-116.982	0.503	-0.089
-77.567	800.000	-0.081	0.257
-76.553	747.451	0.082	-0.215
-75.538	-200.000	-0.008	0.161
-74.524	5.192	0.322	0.231
-73.509	-2.058	0.068	-0.046
-72.494	-69.468	-0.321	-0.120
-71.480	287.699	-0.135	0.237
-70.465	-0.310	0.097	-0.067
-69.451	-105.557	0.258	-0.057
-68.436	60.093	-0.075	-0.072
-67.422	-200.000	0.057	-0.453
-66.407	-58.783	-0.051	-0.021
-65.392	-4.544	0.192	0.129
-64.378	-64.359	-0.242	0.096
-63.363	-3.928	0.054	0.036
-62.349	-143.784	-0.238	0.022
-61.334	90.167	-1.077	-1.170
-60.319	92.216	0.611	0.669
-59.305	-200.000	-0.200	-1.347
-58.290	460.982	0.635	1.376
-57.276	595.348	0.566	1.362
-56.261	-200.000	128.012	670.478
-55.246	405.538	1614.534	3310.027
-54.232	137.308	2780.859	3535.432
-53.217	89.425	2307.998	2501.168
-52.203	31.882	1908.539	1597.591
-51.188	25.747	1703.542	1379.106
-50.173	23.610	1665.324	1332.094
-49.159	45.720	1735.339	1558.676
-48.144	42.798	1746.331	1546.081
-47.130	25.366	1697.310	1370.935
-46.115	22.888	1682.107	1339.834
-45.100	22.649	1676.880	1333.808
-44.086	22.655	1674.474	1331.883
-43.071	22.536	1672.386	1329.271
-42.057	22.580	1670.078	1327.715
-41.042	22.728	1667.450	1326.693
-40.027	22.657	1666.049	1324.988
-39.013	22.621	1664.045	1323.075
-37.998	22.605	1662.937	1322.017
-36.984	22.718	1660.966	1321.248
-35.969	22.739	1660.081	1320.646
-34.954	22.832	1658.109	1319.720
-33.940	22.725	1656.482	1317.575
-32.925	22.622	1654.904	1315.495
-31.911	22.708	1653.120	1314.670
-30.896	22.781	1650.798	1313.313
-29.881	22.789	1649.708	1312.453
-28.867	22.753	1648.417	1311.110
-27.852	22.737	1647.154	1309.934
-26.838	22.811	1645.120	1308.808
-25.823	22.784	1643.991	1307.661
-24.809	22.740	1643.300	1306.736
-23.794	22.753	1641.953	1305.704
-22.779	22.778	1640.446	1304.641
-21.765	22.700	1638.597	1302.542
-20.750	22.705	1637.152	1301.375
-19.736	22.786	1635.766	1300.821
-18.721	22.868	1634.471	1300.347
-17.706	22.748	1632.799	1298.079
-16.692	22.752	1631.258	1296.837
-15.677	22.846	1629.868	1296.370
-14.663	22.848	1628.429	1295.183
-13.648	22.783	1627.451	1293.881
-12.633	22.735	1625.791	1292.161
-11.619	22.766	1624.105	1290.994
-10.604	22.735	1622.784	1289.665
-9.590	22.837	1621.111	1289.027
-8.575	22.802	1620.137	1287.948
-7.560	22.861	1618.749	1287.227
-6.546	22.723	1617.781	1285.400
-5.531	22.746	1616.885	1284.804
-4.517	22.737	1615.551	1283.622
-3.502	22.750	1614.703	1282.997
-2.487	22.871	1612.520	1282.091
-1.473	22.425	1600.614	1269.359
-0.458	19.670	1581.709	1234.661
0.556	14.756	1584.193	1205.387
1.571	12.640	1608.588	1208.323
2.586	12.422	1621.261	1216.119
3.600	11.448	1566.349	1167.861
4.615	6.347	1459.372	1053.921
5.629	1.201	1400.917	978.489
6.644	0.204	1393.944	967.130
7.659	0.169	1392.929	966.117
8.673	0.166	1391.844	965.259
9.688	0.080	1390.264	963.528
10.702	0.028	1386.014	960.164
11.717	2.664	1390.408	979.990
12.731	9.405	1400.515	1030.312
13.746	15.113	1408.991	1073.134
14.761	16.665	1410.846	1084.400
15.775	16.237	1408.695	1079.912
16.790	15.219	1406.041	1071.277
17.804	14.465	1403.786	1064.653
18.819	14.095	1402.481	1061.205
19.834	13.813	1401.425	1058.518
20.848	13.633	1400.336	1056.449
21.863	13.297	1399.116	1053.296
22.877	13.156	1397.525	1051.112
23.892	13.094	1396.849	1050.113
24.907	13.128	1395.661	1049.343
25.921	13.149	1395.183	1049.027
26.936	13.142	1394.415	1048.309
27.950	13.282	1393.163	1048.161
28.965	13.269	1391.882	1047.028
29.980	13.280	1390.973	1046.318
30.994	13.370	1390.101	1046.138
32.009	13.308	1389.287	1045.042
33.023	13.328	1388.044	1044.139
34.038	13.352	1386.844	1043.297
35.053	13.218	1385.630	1041.449
36.067	13.347	1384.160	1041.061
37.082	13.329	1383.490	1040.355
38.096	13.306	1382.526	1039.391
39.111	13.305	1381.967	1038.873
40.126	13.183	1381.181	1037.426
41.140	13.218	1380.039	1036.695
42.155	13.186	1379.846	1036.257
43.169	13.136	1379.437	1035.543
44.184	13.184	1378.842	1035.309
45.199	13.143	1378.781	1034.915
46.213	13.272	1377.699	1034.818
47.228	13.263	1377.043	1034.173
48.242	13.242	1375.781	1033.006
49.257	13.335	1374.052	1032.193
50.271	13.166	1373.061	1030.309
51.286	13.235	1371.299	1029.323
52.301	13.277	1370.536	1028.923
53.315	13.102	1369.484	1026.952
54.330	13.115	1368.499	1026.202
55.344	13.139	1366.838	1025.014
56.359	13.128	1365.949	1024.192
57.374	13.224	1364.818	1023.845
58.388	13.057	1364.577	1022.543
59.403	13.085	1363.896	1022.115
60.417	13.117	1362.509	1021.179
61.432	13.070	1361.552	1020.082
62.447	13.042	1360.794	1019.253
63.461	13.059	1359.726	1018.469
64.476	12.973	1358.832	1017.179
65.490	13.092	1357.080	1016.508
66.505	13.232	1355.299	1015.942
67.520	13.072	1354.276	1014.104
68.534	13.183	1353.157	1013.855
69.549	13.044	1352.505	1012.429
70.563	13.182	1350.924	1011.998
71.578	12.996	1350.216	1010.244
72.593	12.997	1349.369	1009.523
73.607	13.047	1348.402	1009.019
74.622	12.995	1347.493	1007.927
75.636	13.100	1346.689	1007.881
76.651	12.945	1346.516	1006.715
77.666	13.074	1344.983	1006.270
78.680	13.022	1344.909	1005.808
79.695	13.102	1343.984	1005.512
80.709	13.080	1342.855	1004.443
81.724	13.163	1342.634	1004.693
82.739	13.251	1341.006	1003.925
83.753	13.125	1340.607	1002.769
84.768	13.294	1339.247	1002.690
85.782	13.319	1337.600	1001.520
86.797	13.286	1336.398	1000.328
87.812	13.135	1335.350	998.544
88.826	13.174	1334.205	997.835
89.841	13.173	1333.246	997.026
90.855	13.268	1332.451	996.912
91.870	13.251	1330.967	995.616
92.884	13.292	1330.240	995.225
93.899	13.334	1329.561	994.884
94.914	13.511	1327.966	994.667
95.928	13.430	1327.655	993.861
96.943	13.306	1326.660	992.279
97.957	13.257	1325.907	991.336
98.972	13.362	1325.049	991.236
99.987	13.382	1323.717	990.270
101.001	13.306	1322.638	988.926
102.016	13.279	1322.225	988.366
103.030	13.311	1320.796	987.400
104.045	13.321	1320.067	986.831
105.060	13.360	1318.451	985.764
106.074	13.226	1317.088	983.860
107.089	13.189	1315.828	982.611
108.103	13.060	1315.448	981.478
109.118	13.091	1313.646	980.228
110.133	13.137	1311.995	979.183
111.147	13.035	1310.976	977.732
112.162	13.128	1309.591	977.161
113.176	13.159	1308.530	976.468
114.191	13.306	1307.709	976.639
115.206	13.249	1306.505	975.317
116.220	13.255	1305.169	974.268
117.235	13.240	1303.861	973.117
118.249	13.234	1302.754	972.171
119.264	13.188	1301.827	971.121
120.279	13.263	1300.689	970.627
121.293	13.120	1300.076	969.244
122.308	13.122	1298.800	968.217
123.322	13.144	1297.953	967.628
124.337	13.092	1296.875	966.437
125.352	13.175	1295.594	965.882
126.366	13.058	1294.566	964.349
127.381	13.260	1293.344	964.531
128.395	13.076	1292.119	962.459
129.410	13.134	1291.224	962.043
130.424	13.192	1290.253	961.574
131.439	13.186	1289.195	960.662
132.454	13.231	1288.516	960.332
133.468	13.239	1287.776	959.742
134.483	13.254	1286.423	958.737
135.497	13.213	1285.801	957.955
136.512	13.231	1284.307	956.857
137.527	13.236	1282.722	955.620
138.541	13.161	1281.608	954.274
139.556	13.148	1280.457	953.260
140.570	13.245	1279.370	952.923
141.585	13.340	1277.944	952.326
142.600	13.369	1277.082	951.763
143.614	13.379	1276.008	950.935
144.629	13.424	1274.459	949.956
145.643	13.415	1273.067	948.784
146.658	13.463	1272.115	948.265
147.673	13.361	1270.825	946.636
148.687	13.340	1269.825	945.690
149.702	13.324	1268.698	944.671
150.716	13.308	1267.202	943.384
151.731	13.387	1265.834	942.732
152.746	13.448	1264.434	941.952
153.760	13.382	1263.622	940.890
154.775	13.443	1262.800	940.543
155.789	13.437	1261.737	939.630
156.804	13.405	1260.725	938.615
157.819	13.542	1259.172	938.153
158.833	13.506	1258.039	937.022
159.848	13.635	1257.015	936.904
160.862	13.529	1256.582	935.901
161.877	13.508	1255.254	934.710
162.892	13.398	1254.124	933.165
163.906	13.409	1253.434	932.628
164.921	13.527	1252.111	932.230
165.935	13.473	1251.562	931.434
166.950	13.635	1250.661	931.589
167.964	13.629	1250.235	931.158
168.979	13.594	1248.953	929.922
169.994	13.607	1248.265	929.402
171.008	13.706	1247.374	929.209
172.023	13.734	1246.675	928.765
173.037	13.759	1245.877	928.227
174.052	13.619	1245.229	926.880
175.067	13.718	1243.946	926.395
176.081	13.657	1243.328	925.512
177.096	13.553	1242.504	924.237
178.110	13.663	1240.881	923.560
179.125	13.734	1239.773	923.051
180.140	13.656	1238.604	921.665
181.154	13.732	1237.138	920.916
182.169	13.699	1236.176	919.932
183.183	13.759	1234.906	919.238
184.198	13.788	1233.850	918.531
185.213	13.893	1232.170	917.783
186.227	13.852	1231.551	917.012
187.242	13.798	1230.398	915.776
188.256	13.921	1229.400	915.629
189.271	13.833	1228.612	914.477
190.286	13.719	1227.562	912.985
191.300	13.780	1226.328	912.322
192.315	13.706	1225.603	911.296
193.329	13.731	1225.342	911.159
194.344	13.659	1224.678	910.192
195.359	13.786	1224.065	910.351
196.373	13.738	1223.517	909.598
197.388	13.927	1222.930	910.116
198.402	13.827	1222.909	909.472
199.417	14.005	1221.764	909.515
200.432	14.048	1220.554	908.768
201.446	14.048	1220.038	908.309
202.461	14.145	1219.263	908.180
203.475	14.149	1218.060	907.223
204.490	14.086	1216.727	905.806
205.504	14.094	1215.251	904.672
206.519	13.951	1214.686	903.393
207.534	13.960	1213.503	902.485
208.548	14.138	1212.175	902.379
209.563	13.995	1211.954	901.359
210.577	14.072	1210.822	900.856
211.592	14.136	1209.873	900.415
212.607	14.201	1209.070	900.092
213.621	14.160	1208.559	899.412
214.636	14.143	1207.454	898.414
215.650	14.193	1206.451	897.859
216.665	14.195	1205.522	897.100
217.680	14.210	1204.894	896.636
218.694	14.230	1204.139	896.100
219.709	14.427	1202.788	896.076
220.723	14.351	1201.924	894.945
221.738	14.420	1201.451	894.882
222.753	14.309	1200.692	893.642
223.767	14.309	1199.696	892.825
224.782	14.472	1199.024	893.114
225.796	14.446	1198.658	892.627
226.811	14.415	1198.112	891.975
227.826	14.461	1197.150	891.425
228.840	14.399	1196.250	890.345
229.855	14.421	1195.644	889.931
230.869	14.347	1195.280	889.185
231.884	14.410	1193.776	888.329
232.899	14.301	1193.443	887.419
233.913	14.395	1192.416	887.080
234.928	14.371	1191.712	886.346
235.942	14.391	1190.848	885.734
236.957	14.429	1190.125	885.318
237.972	14.394	1189.906	884.892
238.986	14.340	1188.834	883.729
240.001	14.397	1188.143	883.440
241.015	14.437	1187.235	882.898
242.030	14.439	1186.478	882.269
243.045	14.528	1185.460	881.905
244.059	14.519	1185.038	881.466
245.074	14.509	1183.903	880.491
246.088	14.644	1183.154	880.565
247.103	14.652	1182.374	879.949
248.117	14.666	1181.577	879.351
249.132	14.630	1181.473	879.007
250.147	14.718	1180.724	878.837
251.161	14.818	1179.334	878.250
252.176	14.772	1178.850	877.568
253.190	14.704	1178.556	876.916
254.205	14.801	1177.599	876.636
255.220	14.780	1177.554	876.412
256.234	14.920	1176.505	876.291
257.249	14.976	1175.253	875.571
258.263	14.933	1175.188	875.219
259.278	14.927	1174.324	874.469
260.293	14.941	1174.202	874.373
261.307	15.012	1173.036	873.796
262.322	15.033	1172.519	873.446
263.336	14.998	1171.786	872.642
264.351	15.073	1171.142	872.475
265.366	15.099	1170.411	871.988
266.380	15.031	1169.995	871.248
267.395	15.126	1169.256	871.112
268.409	15.094	1167.939	869.888
269.424	15.030	1167.618	869.242
270.439	14.993	1167.221	868.677
271.453	15.066	1166.245	868.251
272.468	14.977	1165.345	867.044
273.482	15.031	1164.894	866.910
274.497	15.098	1164.101	866.590
275.512	15.192	1163.370	866.455
276.526	15.146	1162.667	865.620
277.541	15.175	1161.763	865.019
278.555	15.203	1161.297	864.738
279.570	15.118	1160.686	863.767
280.585	15.100	1159.828	862.964
281.599	15.193	1158.736	862.551
282.614	15.276	1157.593	862.053
283.628	15.175	1156.683	860.780
284.643	15.271	1155.853	860.579
285.657	15.283	1154.660	859.677
286.672	15.362	1153.494	859.135
287.687	15.295	1153.042	858.380
288.701	15.406	1152.171	858.221
289.716	15.321	1151.120	856.931
290.730	15.370	1150.536	856.667
291.745	15.387	1149.934	856.234
292.760	15.308	1149.243	855.241
293.774	15.439	1148.478	855.261
294.789	15.605	1147.848	855.560
295.803	15.470	1147.850	854.801
296.818	15.551	1146.680	854.265
297.833	15.368	1146.396	853.047
298.847	15.536	1145.157	852.905
299.862	15.559	1144.033	852.108
300.876	15.499	1143.499	851.329
301.891	15.584	1142.958	851.285
302.906	15.586	1142.089	850.568
303.920	15.662	1141.539	850.467
304.935	15.646	1140.701	849.690
305.949	15.695	1140.250	849.527
306.964	15.715	1139.417	848.932
307.979	15.806	1138.555	848.672
308.993	15.780	1138.028	848.072
310.008	15.813	1137.056	847.441
311.022	15.763	1136.274	846.533
312.037	15.713	1135.699	845.774
313.052	15.648	1134.695	844.625
314.066	15.699	1133.365	843.817
315.081	15.737	1132.640	843.394
316.095	15.661	1132.410	842.770
317.110	15.659	1131.981	842.362
318.125	15.647	1130.787	841.341
319.139	15.705	1129.968	840.949
320.154	15.705	1129.689	840.667
321.168	15.711	1128.673	839.864
322.183	15.817	1128.236	839.992
323.197	15.803	1127.456	839.269
324.212	15.797	1127.036	838.852
325.227	15.690	1126.643	837.951
326.241	15.803	1125.593	837.661
327.256	15.721	1125.032	836.759
328.270	15.772	1123.780	836.008
329.285	15.884	1122.840	835.790
330.300	15.788	1121.831	834.492
331.314	15.825	1120.915	833.918
332.329	15.970	1119.946	833.843
333.343	16.032	1118.787	833.211
334.358	15.961	1118.426	832.516
335.373	15.932	1117.454	831.576
336.387	16.023	1116.906	831.546
337.402	16.083	1115.952	831.058
338.416	16.012	1115.186	830.062
339.431	16.044	1114.670	829.765
340.446	16.170	1113.781	829.649
341.460	16.180	1113.525	829.431
342.475	16.223	1112.223	828.603
343.489	16.136	1111.678	827.695
344.504	16.141	1110.750	826.957
345.519	16.312	1109.488	826.779
346.533	16.347	1108.826	826.384
347.548	16.284	1108.147	825.498
348.562	16.395	1107.462	825.455
349.577	16.308	1106.621	824.332
350.592	16.236	1105.905	823.374
351.606	16.218	1104.975	822.523
352.621	16.170	1104.616	821.950
353.635	16.187	1104.117	821.586
354.650	16.298	1103.399	821.518
355.665	16.269	1102.705	820.789
356.679	16.288	1102.223	820.451
357.694	16.395	1101.501	820.357
358.708	16.379	1100.559	819.509
359.723	16.350	1100.223	819.043
360.738	16.457	1099.170	818.706
361.752	16.413	1098.937	818.249
362.767	16.430	1098.312	817.793
363.781	16.418	1097.345	816.939
364.796	16.355	1097.113	816.390
365.810	16.447	1096.485	816.297
366.825	16.569	1095.650	816.192
367.840	16.689	1094.921	816.154
368.854	16.608	1094.548	815.415
369.869	16.660	1093.758	815.005
370.883	16.615	1092.758	813.968
371.898	16.633	1092.060	813.464
372.913	16.574	1091.588	812.757
373.927	16.653	1091.171	812.752
374.942	16.718	1090.548	812.529
375.956	16.695	1090.129	812.037
376.971	16.694	1089.829	811.734
377.986	16.785	1088.648	811.220
379.000	16.664	1088.332	810.336
380.015	16.889	1087.606	810.796
381.029	16.878	1087.173	810.353
382.044	16.931	1086.302	809.880
383.059	16.962	1085.420	809.302
384.073	16.928	1084.809	808.610
385.088	16.843	1084.061	807.579
386.102	16.856	1083.175	806.909
387.117	16.946	1081.731	806.190
388.132	16.884	1081.167	805.403
389.146	16.819	1080.724	804.694
390.161	16.839	1079.980	804.162
391.175	16.739	1079.515	803.269
392.190	17.004	1078.126	803.424
393.205	17.056	1077.184	802.893
394.219	16.929	1076.779	801.919
395.234	17.004	1075.751	801.440
396.248	16.965	1075.046	800.657
397.263	16.980	1073.986	799.871
398.278	16.975	1073.029	799.060
399.292	16.895	1072.695	798.368
400.307	16.937	1072.112	798.057
401.321	16.991	1071.233	797.588
402.336	17.064	1070.373	797.221
403.350	16.911	1069.914	796.088
404.365	17.069	1069.334	796.328
405.380	17.104	1068.560	795.848
406.394	17.121	1067.550	795.102
407.409	17.208	1066.947	794.988
408.423	17.120	1066.180	793.935
409.438	17.190	1065.442	793.645
410.453	17.284	1064.584	793.373
411.467	17.392	1064.006	793.374
412.482	17.111	1063.878	791.899
413.496	17.298	1062.879	791.958
414.511	17.301	1062.330	791.494
415.526	17.234	1062.241	791.044
416.540	17.319	1061.549	790.857
417.555	17.404	1060.691	790.540
418.569	17.342	1060.312	789.902
419.584	17.435	1059.873	789.935
420.599	17.451	1059.302	789.513
421.613	107.816	1331.671	1487.994
422.628	99.473	1371.271	1488.072
