DTS Sentinel unit serial number:	SN413079Multiplexer serial number:	ORYXHardware model number:	OX4-SRSoftware version number:	ORYX F/W v4.00 Oryx Data Collector v3.7.2.0data status	okinstallation	princeton_trtdifferential loss correction	single-endedforward channel	channel 2reverse channel	N/Adate	2019/09/16time	02:55:34forward acquisition time	60.00reverse acquisition time	0.00gamma	496.2192k internal	0.2334k external	0.2334temperature offset calibration	0.9971default loss term (dB/km)	0.3790temperature slope calibration	1.0000multiplexer offset coefficient	1.0000multiplexer slope coefficient	1.0000fibre end	0.00T internal ref (°C)	27.75T ext. ref 1 (°C)	10.40T ext. ref 2 (°C)	22.19length (m)	temperature (°C)	Stokes	anti-Stokes-747.200	-100.488	-0.204	0.051
-746.185	-80.867	-0.168	0.056
-745.171	-200.000	0.031	-0.140
-744.156	1.524	0.090	-0.065
-743.142	800.000	-0.017	-0.057
-742.127	-200.000	0.020	0.383
-741.112	464.700	0.077	0.172
-740.098	-105.414	0.131	-0.030
-739.083	-51.942	0.289	-0.135
-738.069	213.963	-0.146	0.231
-737.054	245.028	0.058	-0.097
-736.039	50.904	0.062	-0.059
-735.025	217.208	0.225	0.360
-734.010	800.000	-0.067	-0.276
-732.996	-78.084	-0.432	-0.149
-731.981	11.497	0.226	-0.174
-730.966	83.596	0.125	-0.137
-729.952	800.000	0.111	0.329
-728.937	-106.506	0.105	-0.023
-727.923	12.061	0.013	-0.010
-726.908	31.460	-0.280	-0.241
-725.894	358.590	-0.017	-0.034
-724.879	136.430	0.183	-0.239
-723.864	28.855	0.076	0.065
-722.850	152.570	-0.197	-0.270
-721.835	417.168	0.047	-0.101
-720.821	333.221	-0.087	0.168
-719.806	-83.441	-0.145	-0.047
-718.791	172.085	-0.050	-0.072
-717.777	494.139	-0.071	0.164
-716.762	-200.000	-0.042	0.218
-715.748	-39.587	-0.054	-0.028
-714.733	-23.585	-0.234	-0.141
-713.718	-30.649	-0.313	0.178
-712.704	-5.749	0.063	0.043
-711.689	-129.252	-0.107	0.015
-710.675	-200.000	-0.020	-0.276
-709.660	-82.232	0.215	-0.070
-708.645	-32.098	0.023	0.013
-707.631	800.000	0.046	0.185
-706.616	58.447	0.078	0.077
-705.602	591.592	0.065	-0.162
-704.587	606.123	0.153	-0.382
-703.572	-81.390	-0.076	-0.025
-702.558	-160.713	0.339	0.018
-701.543	477.548	0.111	-0.251
-700.529	492.219	0.076	-0.175
-699.514	-73.799	-0.113	0.041
-698.499	225.423	0.137	-0.223
-697.485	-200.000	-0.036	-0.254
-696.470	301.746	0.079	-0.147
-695.456	-105.283	0.370	-0.085
-694.441	-143.299	-0.290	-0.028
-693.426	54.440	0.159	-0.154
-692.412	-14.458	0.253	-0.164
-691.397	111.574	0.254	-0.307
-690.383	219.565	-0.149	-0.240
-689.368	800.000	0.023	-0.074
-688.354	-45.601	0.191	0.095
-687.339	-101.168	-0.737	-0.181
-686.324	800.000	-0.039	-0.142
-685.310	226.176	-0.094	-0.153
-684.295	17.055	-0.283	-0.225
-683.281	143.796	0.180	-0.241
-682.266	0.867	-0.359	0.258
-681.251	800.000	0.127	0.447
-680.237	-200.000	0.001	-0.022
-679.222	-92.430	-0.167	-0.047
-678.208	-200.000	-0.018	-0.285
-677.193	-200.000	-0.001	0.188
-676.178	11.599	-0.206	0.158
-675.164	78.726	-0.266	-0.285
-674.149	-200.000	-0.016	0.080
-673.135	800.000	-0.073	0.235
-672.120	-14.209	-0.415	-0.268
-671.105	301.514	-0.073	-0.136
-670.091	-23.909	-0.253	0.152
-669.076	457.076	0.084	0.188
-668.062	-74.717	0.170	0.061
-667.047	-137.591	-0.019	-0.002
-666.032	-149.400	0.120	-0.010
-665.018	-200.000	-0.068	-0.381
-664.003	-16.170	-0.288	-0.183
-662.989	-200.000	0.015	-0.071
-661.974	-67.884	0.302	-0.118
-660.959	629.445	-0.066	-0.167
-659.945	-99.928	-0.352	0.088
-658.930	-63.526	-0.089	-0.037
-657.916	607.252	-0.171	-0.428
-656.901	-33.128	-0.386	-0.214
-655.886	800.000	-0.088	-0.323
-654.872	800.000	0.062	-0.268
-653.857	-200.000	-0.056	-0.309
-652.843	-174.005	0.392	0.012
-651.828	800.000	-0.047	-0.186
-650.814	-39.457	-0.205	0.107
-649.799	-200.000	-0.058	-0.331
-648.784	800.000	0.041	-0.150
-647.770	800.000	0.058	0.202
-646.755	800.000	-0.041	0.136
-645.741	-200.000	-0.048	0.268
-644.726	99.661	-0.049	-0.057
-643.711	-63.552	0.387	-0.159
-642.697	27.524	0.058	-0.049
-641.682	65.077	0.094	-0.095
-640.668	-94.099	0.177	0.049
-639.653	13.851	0.141	-0.110
-638.638	339.410	-0.052	-0.102
-637.624	177.576	-0.107	-0.157
-636.609	84.148	0.227	0.249
-635.595	-119.711	-0.319	-0.055
-634.580	800.000	0.063	-0.185
-633.565	-144.726	0.111	0.010
-632.551	-200.000	0.019	-0.128
-631.536	-120.977	-0.097	-0.016
-630.522	93.553	-0.055	0.062
-629.507	-82.806	0.385	-0.124
-628.492	-99.222	0.325	0.082
-627.478	16.815	0.164	-0.130
-626.463	800.000	-0.016	-0.069
-625.449	43.621	0.145	0.133
-624.434	-28.591	-0.168	-0.097
-623.419	-12.429	-0.089	0.058
-622.405	319.098	0.037	0.070
-621.390	-35.924	-0.144	-0.078
-620.376	53.483	-0.082	-0.079
-619.361	39.569	0.056	0.050
-618.346	54.828	0.186	0.179
-617.332	-200.000	-0.041	-0.281
-616.317	8.841	0.133	-0.101
-615.303	390.489	-0.069	-0.144
-614.288	129.761	0.136	0.175
-613.273	-152.390	0.375	0.027
-612.259	800.000	0.034	-0.120
-611.244	-104.301	0.132	0.031
-610.230	171.861	-0.165	-0.236
-609.215	-10.743	-0.222	0.147
-608.201	-115.008	-0.145	0.028
-607.186	252.760	0.093	0.158
-606.171	-78.420	0.236	-0.081
-605.157	346.421	0.031	0.060
-604.142	-33.945	0.262	0.144
-603.128	665.787	-0.131	-0.338
-602.113	-157.934	0.281	0.017
-601.098	345.375	-0.110	-0.216
-600.084	5.584	0.181	-0.134
-599.069	25.162	-0.060	-0.050
-598.055	152.646	-0.146	-0.199
-597.040	-87.767	-0.193	0.058
-596.025	800.000	0.024	-0.100
-595.011	173.438	-0.032	-0.046
-593.996	-9.421	0.008	-0.006
-592.982	-27.451	0.305	0.177
-591.967	-102.633	-0.212	-0.051
-590.952	800.000	-0.019	0.079
-589.938	170.177	-0.083	-0.118
-588.923	-200.000	0.039	0.298
-587.909	800.000	-0.131	0.391
-586.894	-19.370	-0.254	0.157
-585.879	-10.621	-0.160	-0.106
-584.865	448.956	0.100	-0.221
-583.850	117.123	0.048	-0.059
-582.836	-200.000	-0.291	0.000
-581.821	-74.144	-0.156	-0.056
-580.806	-200.000	0.017	-0.332
-579.792	-124.328	-0.330	0.051
-578.777	-94.384	0.085	-0.023
-577.763	-128.101	0.021	-0.003
-576.748	-15.626	0.166	-0.106
-575.733	168.947	-0.104	-0.149
-574.719	33.575	0.165	0.143
-573.704	91.886	0.206	-0.232
-572.690	-140.274	0.188	-0.020
-571.675	177.338	-0.093	0.135
-570.661	800.000	-0.103	0.320
-569.646	420.868	0.068	-0.144
-568.631	-75.076	0.348	-0.124
-567.617	-200.000	0.002	-0.261
-566.602	11.007	0.268	-0.205
-565.588	-85.650	-0.228	-0.071
-564.573	-74.292	0.328	0.118
-563.558	22.595	-0.095	0.078
-562.544	-129.987	0.210	0.029
-561.529	294.386	-0.108	0.196
-560.515	375.724	-0.129	0.262
-559.500	800.000	-0.066	-0.205
-558.485	13.524	-0.353	-0.273
-557.471	336.160	-0.157	-0.304
-556.456	-48.391	-0.205	0.099
-555.442	-100.978	0.163	-0.040
-554.427	-104.126	-0.260	-0.060
-553.412	152.344	-0.332	-0.452
-552.398	800.000	-0.074	-0.270
-551.383	-124.486	0.180	0.028
-550.369	17.250	-0.071	0.056
-549.354	197.592	0.155	-0.237
-548.339	-89.374	-0.276	-0.081
-547.325	-150.265	-0.057	0.004
-546.310	-94.126	-0.102	0.028
-545.296	-30.201	-0.264	0.150
-544.281	-200.000	-0.007	0.261
-543.266	212.360	-0.211	-0.332
-542.252	148.235	-0.035	0.048
-541.237	-0.520	0.155	-0.110
-540.223	72.307	0.084	0.087
-539.208	-124.251	-0.124	-0.019
-538.193	124.818	-0.045	0.056
-537.179	102.683	0.113	0.132
-536.164	-200.000	0.047	-0.206
-535.150	25.808	0.020	-0.017
-534.135	800.000	0.055	-0.240
-533.121	737.980	-0.133	0.356
-532.106	180.994	-0.108	0.159
-531.091	-200.000	-0.008	0.042
-530.077	-97.248	-0.407	-0.106
-529.062	-103.454	0.101	0.024
-528.048	28.825	0.048	-0.041
-527.033	217.538	0.145	0.230
-526.018	-148.775	0.254	-0.020
-525.004	301.129	0.040	-0.074
-523.989	321.871	-0.142	0.270
-522.975	285.223	-0.043	0.076
-521.960	88.342	0.083	-0.091
-520.945	800.000	0.054	-0.216
-519.931	144.047	-0.101	0.134
-518.916	-79.094	0.167	-0.057
-517.902	-64.184	-0.167	0.068
-516.887	-54.132	-0.197	-0.089
-515.872	-71.945	0.275	-0.102
-514.858	428.267	0.127	-0.273
-513.843	-68.473	0.294	0.114
-512.829	-7.291	-0.230	0.155
-511.814	29.111	-0.237	0.200
-510.799	-37.682	0.042	0.022
-509.785	-144.433	0.109	-0.010
-508.770	-103.215	-0.427	-0.101
-507.756	8.526	-0.077	0.057
-506.741	-189.134	-0.235	0.003
-505.726	-143.619	-0.267	-0.025
-504.712	-139.670	-0.302	-0.032
-503.697	-46.107	-0.192	-0.094
-502.683	-200.000	-0.078	-0.457
-501.668	503.003	-0.040	-0.092
-500.653	-200.000	-0.053	0.357
-499.639	-71.232	0.137	-0.051
-498.624	-21.877	0.040	0.024
-497.610	-22.570	0.246	-0.148
-496.595	-143.589	-0.301	-0.029
-495.581	160.833	-0.117	-0.163
-494.566	345.826	0.083	-0.162
-493.551	-200.000	0.042	0.350
-492.537	-23.612	-0.259	0.155
-491.522	-110.980	-0.119	0.024
-490.508	278.120	-0.055	-0.097
-489.493	460.563	0.071	-0.156
-488.478	-114.233	0.165	-0.032
-487.464	320.926	-0.165	-0.312
-486.449	-200.000	0.059	-0.342
-485.435	76.420	0.123	0.129
-484.420	-14.776	-0.199	-0.127
-483.405	-47.034	-0.170	-0.082
-482.391	-200.000	0.015	0.067
-481.376	768.693	0.036	-0.097
-480.362	-42.397	0.198	-0.101
-479.347	237.544	-0.044	-0.072
-478.332	-64.540	-0.110	-0.044
-477.318	-200.000	0.050	0.410
-476.303	-171.698	-0.182	-0.006
-475.289	800.000	0.044	0.152
-474.274	-40.693	-0.153	0.079
-473.259	-200.000	-0.022	-0.277
-472.245	-107.065	0.087	-0.019
-471.230	-33.035	0.219	-0.121
-470.216	180.101	-0.167	-0.244
-469.201	-95.872	0.322	-0.085
-468.186	126.223	-0.172	0.216
-467.172	88.948	0.255	-0.282
-466.157	-97.352	0.144	0.037
-465.143	-16.856	-0.123	-0.077
-464.128	107.402	-0.080	0.095
-463.113	-200.000	-0.010	0.299
-462.099	-151.919	-0.291	0.021
-461.084	-96.764	0.021	0.005
-460.070	-66.953	0.181	0.071
-459.055	-200.000	0.002	0.132
-458.040	-104.472	-0.285	-0.065
-457.026	-200.000	0.045	-0.266
-456.011	163.781	0.189	-0.265
-454.997	-122.980	0.343	-0.055
-453.982	24.795	-0.086	-0.071
-452.968	-61.729	-0.374	-0.156
-451.953	229.043	-0.078	-0.126
-450.938	-41.469	0.082	-0.042
-449.924	-27.718	-0.161	-0.093
-448.909	800.000	-0.095	-0.354
-447.895	425.516	-0.159	-0.340
-446.880	347.957	-0.086	0.169
-445.865	-83.471	-0.199	-0.063
-444.851	-141.725	-0.190	0.019
-443.836	-200.000	0.007	-0.158
-442.822	-131.099	0.230	0.030
-441.807	270.209	0.120	-0.210
-440.792	398.041	-0.025	-0.051
-439.778	164.358	-0.178	0.250
-438.763	424.351	-0.110	0.236
-437.749	800.000	0.036	0.147
-436.734	-6.785	0.094	-0.064
-435.719	230.634	0.171	0.277
-434.705	330.225	0.057	0.109
-433.690	-200.000	0.022	-0.231
-432.676	-158.713	-0.167	-0.010
-431.661	341.556	0.067	0.130
-430.646	663.511	-0.042	0.109
-429.632	-78.709	0.263	0.089
-428.617	-200.000	-0.018	-0.153
-427.603	800.000	-0.046	-0.184
-426.588	227.460	-0.102	0.165
-425.573	-50.879	-0.175	0.082
-424.559	130.831	-0.102	0.130
-423.544	671.075	-0.057	-0.146
-422.530	638.731	-0.136	-0.343
-421.515	-200.000	0.002	0.064
-420.500	-124.284	0.008	0.001
-419.486	-64.391	-0.230	0.093
-418.471	-200.000	-0.026	0.306
-417.457	-99.996	0.315	-0.078
-416.442	800.000	-0.062	-0.176
-415.428	-61.964	0.169	0.070
-414.413	-24.962	0.279	0.164
-413.398	226.108	-0.146	0.235
-412.384	-127.850	0.141	-0.020
-411.369	205.427	0.189	-0.292
-410.355	-200.000	-0.020	-0.156
-409.340	-152.933	0.313	0.022
-408.325	-200.000	-0.007	0.243
-407.311	48.622	-0.133	0.124
-406.296	616.892	0.087	-0.216
-405.282	-86.751	0.160	0.048
-404.267	-200.000	-0.017	0.127
-403.252	-84.959	0.084	0.026
-402.238	-200.000	0.019	-0.089
-401.223	-95.040	0.167	0.045
-400.209	-200.000	0.047	0.269
-399.194	-42.163	-0.144	-0.073
-398.179	-16.547	0.317	-0.199
-397.165	85.806	0.155	0.169
-396.150	-177.078	-0.495	0.012
-395.136	800.000	-0.035	-0.127
-394.121	0.661	-0.231	0.164
-393.106	-84.559	0.146	-0.046
-392.092	-200.000	0.018	-0.105
-391.077	171.216	-0.070	0.099
-390.063	305.603	-0.067	-0.124
-389.048	119.053	0.237	-0.290
-388.033	-75.769	-0.237	0.083
-387.019	-200.000	-0.024	0.151
-386.004	-27.735	0.073	0.042
-384.990	-187.128	-0.129	0.002
-383.975	-63.479	0.167	-0.068
-382.960	133.466	0.041	-0.052
-381.946	-200.000	-0.002	-0.123
-380.931	-30.299	-0.213	0.120
-379.917	112.597	-0.174	-0.209
-378.902	566.176	0.030	0.072
-377.888	-110.082	-0.180	-0.037
-376.873	-131.886	-0.115	0.015
-375.858	-95.220	0.347	0.093
-374.844	-158.112	-0.160	0.009
-373.829	-30.957	0.249	0.139
-372.815	-200.000	0.043	0.284
-371.800	-16.220	-0.110	-0.069
-370.785	96.204	0.145	0.164
-369.771	246.087	0.170	-0.283
-368.756	-3.424	-0.284	-0.196
-367.742	-118.951	0.277	-0.048
-366.727	-200.000	-0.029	-0.224
-365.712	5.466	-0.185	-0.135
-364.698	-21.242	0.103	0.062
-363.683	191.413	-0.142	-0.212
-362.669	-112.459	0.248	-0.049
-361.654	-165.090	0.176	-0.008
-360.639	773.618	0.085	0.229
-359.625	-130.111	0.232	-0.031
-358.610	100.907	0.212	0.244
-357.596	-200.000	0.020	0.270
-356.581	-34.140	-0.166	0.091
-355.566	-147.005	0.390	-0.033
-354.552	49.921	-0.109	-0.101
-353.537	-105.373	0.239	0.054
-352.523	76.048	0.108	0.113
-351.508	-2.427	-0.222	0.154
-350.493	-196.132	-0.211	0.001
-349.479	370.573	-0.070	-0.141
-348.464	43.729	-0.150	-0.136
-347.450	-50.994	-0.154	0.071
-346.435	-123.781	0.225	-0.035
-345.420	-200.000	0.028	-0.288
-344.406	800.000	-0.055	-0.162
-343.391	800.000	-0.066	0.279
-342.377	800.000	0.106	0.445
-341.362	-22.788	-0.130	-0.077
-340.348	256.514	0.042	-0.071
-339.333	510.199	-0.095	-0.218
-338.318	-160.156	0.409	-0.022
-337.304	323.845	0.042	0.080
-336.289	800.000	-0.117	0.459
-335.275	135.386	-0.192	-0.247
-334.260	15.768	0.451	-0.351
-333.245	286.341	-0.151	-0.270
-332.231	575.908	-0.132	-0.319
-331.216	-200.000	0.005	-0.132
-330.202	-101.178	0.232	-0.056
-329.187	49.641	-0.325	0.303
-328.172	329.693	-0.066	0.126
-327.158	-200.000	-0.043	-0.224
-326.143	800.000	0.020	0.078
-325.129	-30.318	0.206	-0.116
-324.114	-92.766	0.169	0.047
-323.099	-75.234	0.134	0.047
-322.085	-98.019	-0.148	-0.038
-321.070	-200.000	-0.058	0.273
-320.056	7.273	0.053	-0.039
-319.041	-0.880	-0.135	0.095
-318.026	-78.409	0.163	0.055
-317.012	171.683	0.099	0.140
-315.997	408.675	0.026	0.055
-314.983	-12.257	-0.268	-0.174
-313.968	74.804	-0.085	0.088
-312.953	88.769	-0.163	-0.179
-311.939	454.577	0.086	0.189
-310.924	511.821	0.175	0.403
-309.910	-200.000	0.023	0.156
-308.895	-66.048	0.173	-0.068
-307.880	-37.631	-0.225	-0.119
-306.866	-94.067	-0.324	0.088
-305.851	-200.000	-0.020	-0.181
-304.837	-46.214	0.030	-0.014
-303.822	711.085	0.094	-0.245
-302.807	-98.343	0.112	-0.028
-301.793	800.000	0.128	-0.380
-300.778	-28.832	0.086	-0.049
-299.764	2.685	-0.119	-0.085
-298.749	-39.278	0.127	0.066
-297.735	1.888	0.110	0.078
-296.720	41.570	-0.170	0.152
-295.705	-200.000	-0.023	-0.135
-294.691	54.085	0.133	0.127
-293.676	-177.696	0.076	-0.002
-292.662	27.285	-0.231	0.192
-291.647	-36.087	-0.217	0.116
-290.632	-165.394	-0.130	0.006
-289.618	-200.000	-0.061	0.268
-288.603	22.503	-0.170	0.137
-287.589	716.681	0.103	-0.271
-286.574	5.501	-0.128	-0.093
-285.559	-96.465	-0.337	0.088
-284.545	19.738	0.392	-0.312
-283.530	-42.721	-0.311	0.156
-282.516	-127.014	0.148	0.021
-281.501	-90.281	0.337	-0.097
-280.486	800.000	-0.081	-0.318
-279.472	-64.583	0.174	-0.070
-278.457	740.319	0.066	0.174
-277.443	44.803	0.081	0.074
-276.428	800.000	0.056	-0.235
-275.413	-98.305	0.101	-0.026
-274.399	-45.870	-0.176	0.086
-273.384	-200.000	0.068	0.301
-272.370	-106.025	0.101	0.023
-271.355	116.024	0.094	0.113
-270.340	-200.000	-0.009	-0.090
-269.326	-200.000	0.025	-0.135
-268.311	426.167	-0.081	-0.172
-267.297	300.939	-0.074	0.136
-266.282	-65.636	0.125	0.050
-265.267	-24.099	0.050	-0.029
-264.253	72.641	-0.197	0.203
-263.238	-32.724	0.270	0.148
-262.224	245.630	-0.074	-0.123
-261.209	47.068	0.112	0.103
-260.195	-137.524	-0.233	0.026
-259.180	34.126	0.260	-0.223
-258.165	-165.302	0.206	-0.009
-257.151	79.675	-0.092	-0.097
-256.136	379.878	0.092	0.186
-255.122	-91.475	0.379	0.107
-254.107	481.997	-0.075	-0.169
-253.092	-200.000	0.030	-0.142
-252.078	66.914	-0.134	0.134
-251.063	-16.900	0.324	0.202
-250.049	-198.195	-0.253	0.001
-249.034	-200.000	-0.007	0.219
-248.019	21.588	0.238	-0.191
-247.005	146.039	-0.136	-0.179
-245.990	-72.196	-0.253	0.093
-244.976	-23.966	-0.254	-0.150
-243.961	100.480	-0.163	0.187
-242.946	-200.000	-0.028	0.275
-241.932	199.754	0.169	0.256
-240.917	11.556	-0.294	-0.222
-239.903	-90.698	0.233	0.066
-238.888	-115.642	0.182	0.034
-237.873	182.862	-0.216	0.314
-236.859	123.999	-0.141	-0.175
-235.844	-200.000	0.006	-0.046
-234.830	-3.972	0.044	0.030
-233.815	-41.753	0.163	-0.082
-232.800	378.839	-0.069	-0.138
-231.786	-26.714	-0.369	0.212
-230.771	-127.179	0.068	-0.010
-229.757	21.013	-0.094	0.075
-228.742	71.135	-0.126	0.128
-227.727	800.000	-0.050	-0.191
-226.713	-53.598	-0.133	0.060
-225.698	203.929	0.046	-0.070
-224.684	31.419	0.197	0.167
-223.669	-200.000	0.004	0.036
-222.655	-32.141	0.242	0.133
-221.640	-200.000	0.015	-0.119
-220.625	57.032	0.146	0.141
-219.611	630.099	-0.002	-0.004
-218.596	-128.632	-0.259	-0.036
-217.582	-32.371	-0.193	-0.106
-216.567	-130.563	0.350	0.047
-215.552	174.157	0.072	0.102
-214.538	52.033	-0.176	-0.165
-213.523	-58.382	0.370	-0.158
-212.509	-200.000	0.005	-0.309
-211.494	-22.420	0.165	-0.098
-210.479	-200.000	-0.016	0.092
-209.465	-139.714	-0.083	0.009
-208.450	511.218	0.087	0.199
-207.436	255.133	0.109	0.183
-206.421	-200.000	0.077	0.426
-205.406	-46.159	-0.219	-0.106
-204.392	91.420	0.180	-0.199
-203.377	-200.000	-0.004	-0.233
-202.363	-43.361	-0.130	-0.065
-201.348	107.672	-0.271	0.318
-200.333	-85.633	-0.185	0.057
-199.319	183.576	-0.013	-0.019
-198.304	69.218	-0.462	0.468
-197.290	372.393	0.104	0.208
-196.275	212.691	-0.052	0.080
-195.260	-77.351	-0.187	0.064
-194.246	3.411	-0.244	0.175
-193.231	7.994	0.132	0.098
-192.217	-200.000	-0.014	0.178
-191.202	344.317	0.105	0.203
-190.187	-200.000	-0.022	0.238
-189.173	-200.000	-0.041	-0.242
-188.158	-125.626	-0.296	-0.044
-187.144	444.030	-0.170	0.367
-186.129	314.306	0.220	0.406
-185.114	180.135	0.136	-0.196
-184.100	16.349	0.208	0.161
-183.085	92.503	0.254	0.282
-182.071	43.610	0.089	0.080
-181.056	-28.533	0.143	-0.081
-180.042	-200.000	-0.007	-0.205
-179.027	-159.841	0.211	0.011
-178.012	-200.000	-0.078	0.650
-176.998	-51.670	0.285	0.131
-175.983	70.558	-0.172	-0.175
-174.969	1.782	0.167	0.119
-173.954	199.742	-0.248	0.374
-172.939	-7.093	-0.287	0.191
-171.925	53.658	0.074	-0.069
-170.910	-20.621	0.192	-0.116
-169.896	800.000	0.031	0.103
-168.881	-86.419	-0.104	0.031
-167.866	107.484	0.009	0.011
-166.852	-200.000	0.046	-0.294
-165.837	260.060	0.062	-0.106
-164.823	61.780	0.067	-0.066
-163.808	-30.084	0.264	0.148
-162.793	-83.737	0.273	-0.085
-161.779	-32.348	0.323	0.177
-160.764	-200.000	0.014	0.570
-159.750	-23.513	0.248	-0.146
-158.735	-200.000	-0.007	0.124
-157.720	-200.000	0.011	-0.079
-156.706	-172.128	0.116	0.004
-155.691	-12.228	0.022	-0.014
-154.677	-19.488	-0.557	0.339
-153.662	172.186	0.054	-0.076
-152.647	-200.000	-0.008	0.113
-151.633	8.835	-0.145	0.107
-150.618	-59.485	0.263	-0.111
-149.604	-59.101	-0.062	0.026
-148.589	199.822	0.124	-0.187
-147.574	-115.996	0.238	-0.043
-146.560	36.869	-0.205	0.178
-145.545	-145.928	-0.419	0.036
-144.531	-87.232	0.186	0.056
-143.516	-49.706	0.058	-0.027
-142.502	-24.861	0.167	0.097
-141.487	248.310	-0.140	0.233
-140.472	-125.736	-0.206	0.031
-139.458	-200.000	0.033	0.238
-138.443	335.871	0.132	0.250
-137.429	-55.162	-0.462	-0.204
-136.414	800.000	0.132	-0.384
-135.399	-159.989	0.288	-0.015
-134.385	800.000	0.053	-0.168
-133.370	800.000	-0.024	0.092
-132.356	-5.010	0.337	0.228
-131.341	140.253	0.073	-0.095
-130.326	-88.552	0.115	-0.034
-129.312	-95.837	0.174	-0.046
-128.297	-98.707	0.399	0.100
-127.283	-168.370	0.306	0.012
-126.268	-98.824	0.177	-0.044
-125.253	-200.000	-0.037	0.163
-124.239	-101.899	-0.182	-0.043
-123.224	16.489	-0.106	-0.082
-122.210	31.838	0.167	-0.141
-121.195	7.306	0.094	-0.069
-120.180	3.877	-0.172	-0.123
-119.166	-118.438	0.289	0.050
-118.151	191.187	0.057	-0.084
-117.137	-68.656	0.219	-0.083
-116.122	-9.233	-0.195	0.128
-115.107	-65.971	-0.149	0.058
-114.093	-82.047	-0.240	-0.077
-113.078	53.387	-0.146	0.137
-112.064	-200.000	0.042	0.202
-111.049	-200.000	-0.374	-0.001
-110.034	-70.327	0.031	0.012
-109.020	-73.668	0.148	0.053
-108.005	81.674	0.139	-0.148
-106.991	217.732	0.161	-0.252
-105.976	68.060	-0.093	-0.093
-104.962	143.606	0.070	0.091
-103.947	711.646	-0.076	-0.198
-102.932	345.888	-0.064	0.124
-101.918	800.000	0.064	-0.220
-100.903	-200.000	-0.028	-0.248
-99.889	-120.162	0.216	-0.036
-98.874	-75.132	-0.156	-0.055
-97.859	-97.114	0.218	-0.056
-96.845	-106.966	-0.145	-0.031
-95.830	800.000	-0.053	0.192
-94.816	-135.825	-0.295	-0.034
-93.801	84.437	0.006	0.006
-92.786	76.164	-0.220	0.228
-91.772	-200.000	-0.020	-0.180
-90.757	-129.224	0.347	0.047
-89.743	800.000	-0.112	0.470
-88.728	-81.465	-0.223	-0.072
-87.713	-200.000	0.031	0.185
-86.699	29.994	-0.041	0.035
-85.684	-78.015	0.019	0.006
-84.670	-200.000	-0.050	0.316
-83.655	335.924	-0.059	0.111
-82.640	-127.518	-0.321	-0.046
-81.626	21.133	0.212	-0.169
-80.611	-107.062	0.163	-0.035
-79.597	43.124	0.307	0.274
-78.582	-127.066	-0.096	-0.014
-77.567	-96.961	0.354	-0.091
-76.553	611.394	-0.019	-0.047
-75.538	800.000	-0.084	0.346
-74.524	-200.000	-0.020	0.140
-73.509	-200.000	0.006	0.350
-72.494	-103.112	-0.219	0.051
-71.480	-200.000	0.000	-0.017
-70.465	-23.654	0.052	-0.031
-69.451	-56.809	0.051	0.022
-68.436	-48.913	-0.210	0.098
-67.422	215.982	-0.086	-0.134
-66.407	98.962	0.018	-0.020
-65.392	-200.000	0.009	0.066
-64.378	154.616	-0.118	0.159
-63.363	-170.729	0.228	0.008
-62.349	-200.000	-0.008	0.102
-61.334	-0.355	-1.343	-0.934
-60.319	64.136	0.877	0.864
-59.305	800.000	-0.256	-0.990
-58.290	324.521	0.622	1.162
-57.276	388.934	0.751	1.522
-56.261	-200.000	111.878	632.834
-55.246	473.325	1497.482	3302.344
-54.232	147.367	2674.193	3522.547
-53.217	97.507	2288.736	2572.202
-52.203	36.752	1901.632	1643.743
-51.188	30.882	1693.079	1418.866
-50.173	28.449	1651.061	1365.498
-49.159	49.953	1705.640	1573.821
-48.144	48.976	1720.367	1579.974
-47.130	30.571	1679.067	1404.555
-46.115	27.939	1664.135	1372.268
-45.100	27.644	1659.470	1366.156
-44.086	27.734	1656.497	1364.329
-43.071	27.680	1654.271	1362.036
-42.057	27.650	1651.803	1359.728
-41.042	27.559	1649.636	1357.214
-40.027	27.605	1647.878	1356.055
-39.013	27.658	1645.704	1354.605
-37.998	27.562	1644.439	1352.794
-36.984	27.704	1642.816	1352.463
-35.969	27.744	1641.592	1351.697
-34.954	27.743	1639.697	1350.072
-33.940	27.755	1637.888	1348.616
-32.925	27.773	1636.227	1347.329
-31.911	27.690	1634.536	1345.276
-30.896	27.716	1632.710	1343.909
-29.881	27.712	1631.443	1342.785
-28.867	27.766	1628.909	1341.039
-27.852	27.732	1627.847	1339.861
-26.838	27.730	1626.476	1338.670
-25.823	27.788	1625.180	1337.974
-24.809	27.793	1623.972	1336.964
-23.794	27.824	1622.652	1336.048
-22.779	27.828	1620.899	1334.583
-21.765	27.671	1619.797	1332.475
-20.750	27.817	1617.545	1331.634
-19.736	27.757	1616.891	1330.603
-18.721	27.822	1615.214	1329.648
-17.706	27.800	1613.829	1328.293
-16.692	27.768	1612.344	1326.783
-15.677	27.832	1610.951	1326.050
-14.663	27.854	1609.751	1325.175
-13.648	27.802	1608.010	1323.306
-12.633	27.775	1607.029	1322.254
-11.619	27.740	1605.205	1320.446
-10.604	27.703	1603.692	1318.880
-9.590	27.725	1602.308	1317.853
-8.575	27.826	1601.061	1317.498
-7.560	27.892	1599.674	1316.781
-6.546	27.754	1599.298	1315.429
-5.531	27.690	1598.025	1313.868
-4.517	27.759	1597.064	1313.518
-3.502	27.850	1595.752	1313.042
-2.487	27.838	1594.281	1311.694
-1.473	27.606	1582.300	1300.132
-0.458	24.815	1562.752	1264.330
0.556	19.653	1564.196	1234.278
1.571	17.518	1587.672	1237.199
2.586	17.127	1600.131	1243.930
3.600	16.513	1550.500	1200.884
4.615	13.771	1452.274	1106.442
5.629	10.932	1397.430	1046.322
6.644	10.420	1390.077	1037.450
7.659	10.416	1388.712	1036.309
8.673	10.377	1388.064	1035.488
9.688	10.397	1385.430	1033.558
10.702	10.174	1382.689	1030.005
11.717	11.494	1384.562	1039.715
12.731	14.752	1389.270	1063.946
13.746	17.166	1393.484	1082.481
14.761	17.564	1392.485	1084.141
15.775	16.588	1390.272	1076.117
16.790	15.547	1387.201	1067.037
17.804	14.691	1385.202	1059.970
18.819	14.192	1383.770	1055.617
19.834	13.928	1382.367	1052.777
20.848	13.708	1381.054	1050.297
21.863	13.508	1380.010	1048.139
22.877	13.332	1378.748	1045.979
23.892	13.319	1377.435	1044.808
24.907	13.379	1376.577	1044.442
25.921	13.308	1376.154	1043.579
26.936	13.359	1375.396	1043.236
27.950	13.366	1374.236	1042.308
28.965	13.479	1373.045	1042.024
29.980	13.556	1371.749	1041.431
30.994	13.631	1370.318	1040.724
32.009	13.575	1369.481	1039.645
33.023	13.667	1367.860	1038.898
34.038	13.593	1366.281	1037.144
35.053	13.457	1365.314	1035.468
36.067	13.431	1364.515	1034.605
37.082	13.472	1363.457	1033.970
38.096	13.470	1362.788	1033.361
39.111	13.527	1361.869	1032.926
40.126	13.384	1361.021	1031.301
41.140	13.358	1359.650	1030.005
42.155	13.300	1359.295	1029.286
43.169	13.253	1359.455	1029.026
44.184	13.219	1358.813	1028.238
45.199	13.233	1358.483	1027.979
46.213	13.362	1357.744	1028.136
47.228	13.399	1356.869	1027.611
48.242	13.432	1355.687	1026.826
49.257	13.351	1354.129	1025.055
50.271	13.456	1352.522	1024.400
51.286	13.399	1351.260	1023.000
52.301	13.332	1350.667	1022.046
53.315	13.390	1348.835	1020.924
54.330	13.298	1348.678	1020.151
55.344	13.361	1346.677	1018.932
56.359	13.266	1346.281	1017.962
57.374	13.293	1345.252	1017.259
58.388	13.165	1344.475	1015.792
59.403	13.212	1343.905	1015.560
60.417	13.248	1342.784	1014.847
61.432	13.172	1341.868	1013.596
62.447	13.132	1341.241	1012.791
63.461	13.084	1340.269	1011.672
64.476	13.150	1338.970	1011.004
65.490	13.076	1337.576	1009.407
66.505	13.192	1335.621	1008.554
67.520	13.083	1334.905	1007.260
68.534	13.171	1334.259	1007.218
69.549	13.226	1332.520	1006.151
70.563	13.220	1332.200	1005.785
71.578	13.085	1330.608	1003.675
72.593	13.074	1329.711	1002.839
73.607	13.149	1328.829	1002.540
74.622	12.993	1328.866	1001.535
75.636	13.023	1327.938	1000.925
76.651	13.121	1326.945	1000.683
77.666	13.061	1326.590	999.963
78.680	13.098	1326.032	999.680
79.695	13.152	1324.936	999.095
80.709	13.152	1324.622	998.768
81.724	13.278	1323.138	998.319
82.739	13.325	1322.375	997.938
83.753	13.340	1321.578	997.339
84.768	13.443	1320.495	997.058
85.782	13.439	1319.945	996.525
86.797	13.413	1318.130	994.916
87.812	13.309	1316.907	993.280
88.826	13.319	1315.854	992.458
89.841	13.353	1314.856	991.820
90.855	13.485	1313.054	991.164
91.870	13.447	1313.047	990.844
92.884	13.485	1311.753	990.003
93.899	13.594	1310.582	989.683
94.914	13.568	1310.305	989.233
95.928	13.590	1309.145	988.401
96.943	13.449	1308.489	986.976
97.957	13.385	1307.644	985.872
98.972	13.460	1306.462	985.341
99.987	13.493	1305.336	984.602
101.001	13.428	1304.505	983.500
102.016	13.378	1303.376	982.265
103.030	13.417	1302.377	981.658
104.045	13.311	1301.952	980.618
105.060	13.449	1300.121	979.968
106.074	13.260	1299.003	977.925
107.089	13.291	1297.473	976.870
108.103	13.175	1296.129	975.084
109.118	13.205	1295.039	974.355
110.133	13.265	1293.715	973.626
111.147	13.248	1292.364	972.424
112.162	13.229	1291.029	971.224
113.176	13.283	1289.900	970.602
114.191	13.411	1289.364	970.867
115.206	13.297	1288.018	969.096
116.220	13.282	1286.854	968.052
117.235	13.298	1285.618	967.126
118.249	13.321	1284.555	966.377
119.264	13.295	1283.232	965.146
120.279	13.255	1282.202	964.050
121.293	13.262	1281.123	963.198
122.308	13.247	1280.165	962.303
123.322	13.271	1278.726	961.276
124.337	13.134	1278.032	959.872
125.352	13.180	1276.950	959.242
126.366	13.175	1275.855	958.304
127.381	13.127	1275.150	957.413
128.395	13.185	1273.891	956.716
129.410	13.289	1272.776	956.400
130.424	13.262	1272.208	955.732
131.439	13.270	1270.790	954.627
132.454	13.252	1270.245	954.030
133.468	13.280	1269.436	953.498
134.483	13.273	1268.599	952.744
135.497	13.288	1267.810	952.156
136.512	13.307	1266.492	951.187
137.527	13.328	1264.611	949.813
138.541	13.353	1262.871	948.563
139.556	13.348	1261.937	947.753
140.570	13.374	1261.131	947.208
141.585	13.483	1259.846	946.785
142.600	13.440	1258.858	945.716
143.614	13.564	1257.869	945.597
144.629	13.671	1256.443	945.048
145.643	13.577	1255.397	943.644
146.658	13.469	1253.926	941.838
147.673	13.461	1252.892	940.936
148.687	13.440	1251.836	939.942
149.702	13.443	1250.447	938.831
150.716	13.284	1249.414	937.073
151.731	13.391	1248.043	936.568
152.746	13.540	1246.375	936.072
153.760	13.550	1245.406	935.316
154.775	13.507	1244.710	934.473
155.789	13.557	1243.314	933.624
156.804	13.577	1242.120	932.756
157.819	13.608	1241.370	932.285
158.833	13.656	1240.108	931.524
159.848	13.568	1239.830	930.737
160.862	13.686	1238.282	930.154
161.877	13.589	1237.121	928.660
162.892	13.638	1235.973	927.989
163.906	13.586	1235.162	927.004
164.921	13.574	1234.147	926.093
165.935	13.591	1233.429	925.569
166.950	13.640	1232.549	925.099
167.964	13.664	1232.124	924.832
168.979	13.629	1231.195	923.859
169.994	13.676	1230.437	923.470
171.008	13.635	1229.696	922.602
172.023	13.685	1228.662	922.027
173.037	13.806	1228.159	922.238
174.052	13.817	1226.781	921.180
175.067	13.667	1226.115	919.768
176.081	13.534	1225.304	918.342
177.096	13.615	1224.270	917.933
178.110	13.648	1222.886	916.999
179.125	13.691	1221.759	916.309
180.140	13.702	1220.584	915.408
181.154	13.734	1219.443	914.650
182.169	13.697	1218.332	913.530
183.183	13.745	1217.124	912.809
184.198	13.771	1215.684	911.791
185.213	13.794	1214.681	911.086
186.227	13.915	1213.570	910.835
187.242	13.837	1212.693	909.668
188.256	13.956	1211.610	909.425
189.271	13.904	1210.745	908.413
190.286	13.941	1209.464	907.574
191.300	13.704	1208.465	905.449
192.315	13.633	1207.520	904.271
193.329	13.643	1207.680	904.369
194.344	13.696	1206.948	904.026
195.359	13.723	1206.717	903.923
196.373	13.797	1206.261	903.904
197.388	13.895	1205.547	903.822
198.402	14.116	1204.713	904.317
199.417	14.053	1204.325	903.607
200.432	14.114	1203.133	902.960
201.446	14.018	1202.682	902.024
202.461	14.162	1201.235	901.636
203.475	14.237	1200.112	901.119
204.490	14.035	1199.179	899.246
205.504	14.040	1198.136	898.412
206.519	14.135	1196.554	897.661
207.534	14.059	1195.413	896.314
208.548	14.005	1194.767	895.459
209.563	14.003	1193.864	894.692
210.577	14.011	1193.091	894.080
211.592	14.150	1191.978	893.914
212.607	14.268	1190.979	893.716
213.621	14.352	1189.881	893.264
214.636	14.184	1189.608	892.079
215.650	14.183	1188.439	891.120
216.665	14.368	1187.345	891.208
217.680	14.240	1186.728	889.984
218.694	14.316	1186.176	889.899
219.709	14.310	1185.107	888.984
220.723	14.322	1184.614	888.598
221.738	14.468	1183.356	888.355
222.753	14.245	1183.512	887.208
223.767	14.426	1182.447	887.292
224.782	14.436	1181.884	886.845
225.796	14.450	1181.093	886.245
226.811	14.460	1180.261	885.597
227.826	14.441	1179.648	884.960
228.840	14.375	1178.577	883.727
229.855	14.522	1178.073	884.050
230.869	14.398	1177.298	882.732
231.884	14.410	1176.309	881.978
232.899	14.428	1175.247	881.197
233.913	14.455	1174.792	880.920
234.928	14.392	1173.918	879.854
235.942	14.442	1172.811	879.214
236.957	14.357	1172.364	878.352
237.972	14.349	1171.675	877.713
238.986	14.365	1170.975	877.198
240.001	14.383	1170.438	876.811
241.015	14.439	1169.392	876.243
242.030	14.452	1168.494	875.565
243.045	14.513	1167.593	875.128
244.059	14.459	1167.275	874.533
245.074	14.498	1166.335	873.952
246.088	14.651	1165.553	874.090
247.103	14.545	1165.124	873.138
248.117	14.664	1163.990	872.832
249.132	14.781	1163.408	872.932
250.147	14.784	1162.554	872.230
251.161	15.004	1161.682	872.643
252.176	15.034	1160.963	872.184
253.190	14.980	1160.464	871.450
254.205	14.979	1160.292	871.240
255.220	14.964	1159.897	870.785
256.234	15.002	1158.965	870.205
257.249	14.976	1158.343	869.529
258.263	14.941	1157.592	868.707
259.278	14.990	1156.916	868.378
260.293	15.043	1156.545	868.298
261.307	15.130	1155.691	868.027
262.322	15.176	1155.022	867.688
263.336	15.153	1154.073	866.781
264.351	15.197	1153.617	866.586
265.366	15.161	1153.364	866.137
266.380	15.108	1152.694	865.282
267.395	15.248	1151.393	864.952
268.409	15.089	1150.886	863.670
269.424	15.088	1150.334	863.174
270.439	15.112	1149.523	862.615
271.453	15.170	1148.631	862.167
272.468	15.027	1147.644	860.615
273.482	15.073	1147.478	860.652
274.497	15.181	1146.684	860.533
275.512	15.041	1146.631	859.699
276.526	15.060	1145.463	858.846
277.541	15.137	1144.410	858.376
278.555	15.132	1143.873	857.873
279.570	15.172	1143.418	857.657
280.585	15.358	1142.179	857.601
281.599	15.324	1141.299	856.692
282.614	15.274	1140.499	855.762
283.628	15.342	1138.981	854.894
284.643	15.126	1138.925	853.676
285.657	15.309	1137.570	853.515
286.672	15.253	1136.562	852.400
287.687	15.299	1135.468	851.734
288.701	15.375	1134.898	851.617
289.716	15.431	1134.039	851.186
290.730	15.349	1133.619	850.377
291.745	15.402	1133.065	850.153
292.760	15.454	1132.220	849.710
293.774	15.590	1131.462	849.754
294.789	15.631	1131.096	849.608
295.803	15.467	1130.831	848.508
296.818	15.536	1129.379	847.692
297.833	15.504	1128.860	847.063
298.847	15.424	1128.097	846.017
299.862	15.546	1127.287	845.945
300.876	15.443	1126.849	845.022
301.891	15.547	1126.005	844.839
302.906	15.713	1125.333	845.095
303.920	15.612	1124.829	844.137
304.935	15.737	1123.816	843.925
305.949	15.836	1123.155	843.851
306.964	15.830	1122.290	843.100
307.979	15.706	1122.210	842.342
308.993	15.753	1121.484	841.955
310.008	15.722	1120.375	840.895
311.022	15.893	1119.318	840.882
312.037	15.719	1119.056	839.744
313.052	15.732	1118.019	838.952
314.066	15.758	1116.941	838.199
315.081	15.693	1116.325	837.340
316.095	15.662	1115.578	836.550
317.110	15.658	1114.864	835.924
318.125	15.727	1113.752	835.355
319.139	15.792	1113.311	835.276
320.154	15.713	1112.783	834.415
321.168	15.663	1112.125	833.599
322.183	15.739	1111.489	833.423
323.197	15.730	1110.496	832.563
324.212	15.806	1110.001	832.495
325.227	15.793	1109.656	832.098
326.241	15.936	1108.600	831.937
327.256	15.905	1107.759	831.079
328.270	15.739	1107.236	829.795
329.285	15.841	1106.101	829.375
330.300	15.887	1105.210	828.857
331.314	15.827	1104.448	827.917
332.329	15.791	1102.964	826.553
333.343	15.960	1102.298	826.812
334.358	15.924	1101.744	826.148
335.373	15.983	1100.993	825.800
336.387	15.934	1100.356	825.011
337.402	15.920	1099.654	824.340
338.416	16.018	1098.793	824.101
339.431	15.947	1098.332	823.336
340.446	16.048	1098.013	823.516
341.460	16.217	1096.288	822.976
342.475	16.186	1096.072	822.589
343.489	16.100	1095.405	821.596
344.504	16.186	1094.352	821.156
345.519	16.333	1093.113	820.869
346.533	16.278	1092.771	820.269
347.548	16.331	1091.917	819.812
348.562	16.432	1090.910	819.472
349.577	16.362	1090.358	818.646
350.592	16.276	1089.732	817.689
351.606	16.277	1088.654	816.812
352.621	16.134	1088.167	815.683
353.635	16.151	1087.468	815.171
354.650	16.245	1086.902	815.127
355.665	16.216	1086.320	814.478
356.679	16.269	1085.591	814.115
357.694	16.348	1084.935	813.934
358.708	16.326	1083.982	813.038
359.723	16.275	1084.030	812.756
360.738	16.328	1083.351	812.431
361.752	16.388	1082.714	812.168
362.767	16.362	1081.917	811.377
363.781	16.317	1081.882	811.062
364.796	16.471	1081.139	811.173
365.810	16.469	1080.516	810.621
366.825	16.629	1079.488	810.546
367.840	16.578	1078.932	809.813
368.854	16.733	1078.539	810.186
369.869	16.614	1077.508	808.774
370.883	16.648	1076.819	808.349
371.898	16.504	1076.558	807.393
372.913	16.604	1075.321	806.868
373.927	16.703	1074.799	806.877
374.942	16.591	1074.806	806.280
375.956	16.634	1074.241	805.989
376.971	16.696	1073.542	805.685
377.986	16.695	1072.787	805.046
379.000	16.744	1072.063	804.664
380.015	16.813	1072.057	804.917
381.029	16.917	1070.966	804.520
382.044	16.833	1070.375	803.607
383.059	16.840	1069.588	802.975
384.073	16.865	1069.265	802.783
385.088	16.835	1067.819	801.481
386.102	16.964	1066.846	801.292
387.117	16.867	1066.075	800.185
388.132	16.850	1064.971	799.202
389.146	16.761	1064.584	798.422
390.161	16.713	1064.147	797.799
391.175	16.878	1062.930	797.591
392.190	16.797	1062.482	796.802
393.205	17.031	1061.674	797.228
394.219	16.908	1061.052	796.111
395.234	16.966	1059.568	795.199
396.248	16.879	1058.890	794.214
397.263	16.864	1058.254	793.597
398.278	16.977	1056.847	792.997
399.292	16.917	1056.430	792.336
400.307	16.880	1055.862	791.668
401.321	16.672	1055.731	790.525
402.336	16.882	1054.605	790.592
403.350	17.054	1053.969	790.850
404.365	16.872	1053.375	789.485
405.380	17.066	1052.210	789.444
406.394	17.024	1051.945	788.979
407.409	17.105	1051.079	788.637
408.423	17.178	1050.105	788.176
409.438	17.221	1049.516	787.863
410.453	17.187	1049.382	787.537
411.467	17.249	1048.315	786.951
412.482	17.299	1047.805	786.733
413.496	17.231	1047.010	785.750
414.511	17.329	1046.345	785.633
415.526	17.401	1046.168	785.762
416.540	17.441	1045.642	785.483
417.555	17.363	1045.279	784.780
418.569	17.419	1044.647	784.496
419.584	17.463	1044.217	784.308
420.599	17.444	1043.538	783.638
421.613	104.512	1324.895	1474.769
422.628	96.003	1365.843	1474.860
