DTS Sentinel unit serial number:	SN413079Multiplexer serial number:	ORYXHardware model number:	OX4-SRSoftware version number:	ORYX F/W v4.00 Oryx Data Collector v3.7.2.0data status	okinstallation	princeton_trtdifferential loss correction	single-endedforward channel	channel 2reverse channel	N/Adate	2019/09/10time	20:45:11forward acquisition time	60.00reverse acquisition time	0.00gamma	496.2192k internal	0.2330k external	0.2330temperature offset calibration	0.9947default loss term (dB/km)	0.3790temperature slope calibration	1.0000multiplexer offset coefficient	1.0000multiplexer slope coefficient	1.0000fibre end	0.00T internal ref (°C)	31.81T ext. ref 1 (°C)	-0.31T ext. ref 2 (°C)	25.21length (m)	temperature (°C)	Stokes	anti-Stokes-747.200	731.367	-0.048	0.129
-746.185	-47.459	-0.256	0.126
-745.171	800.000	0.040	-0.123
-744.156	800.000	-0.009	0.027
-743.142	-2.066	-0.014	-0.010
-742.127	730.594	0.041	0.111
-741.112	-200.000	-0.016	-0.228
-740.098	32.346	-0.123	-0.107
-739.083	-138.385	-0.213	0.024
-738.069	108.962	-0.153	-0.184
-737.054	84.454	0.109	-0.121
-736.039	19.526	-0.368	-0.298
-735.025	-118.072	-0.105	-0.019
-734.010	553.513	-0.169	-0.409
-732.996	-200.000	-0.054	-0.447
-731.981	-71.630	-0.134	0.050
-730.966	-41.471	0.108	0.056
-729.952	-53.258	-0.176	-0.081
-728.937	-200.000	-0.014	-0.486
-727.923	-52.809	0.129	-0.060
-726.908	-200.000	-0.018	0.098
-725.894	-107.504	-0.482	0.106
-724.879	307.655	-0.043	-0.080
-723.864	-176.236	-0.322	0.008
-722.850	82.776	-0.181	-0.198
-721.835	50.270	-0.157	-0.149
-720.821	-132.839	0.147	0.019
-719.806	176.148	0.152	0.221
-718.791	27.756	-0.281	-0.238
-717.777	-38.096	0.087	0.046
-716.762	161.856	0.186	0.262
-715.748	-74.415	-0.211	0.077
-714.733	29.781	-0.154	-0.132
-713.718	800.000	0.046	-0.146
-712.704	-199.968	0.329	0.002
-711.689	-24.648	0.146	0.087
-710.675	659.680	-0.155	-0.401
-709.660	-200.000	0.006	-0.135
-708.645	52.325	0.092	0.088
-707.631	22.442	-0.250	0.205
-706.616	800.000	0.081	0.232
-705.602	-89.431	-0.075	-0.022
-704.587	799.850	-0.081	0.225
-703.572	164.071	-0.128	0.181
-702.558	4.293	0.070	0.052
-701.543	31.025	0.051	-0.044
-700.529	215.074	0.152	-0.243
-699.514	101.233	0.117	-0.137
-698.499	-200.000	0.014	0.138
-697.485	-200.000	-0.011	-0.206
-696.470	-62.752	-0.049	0.020
-695.456	50.640	0.218	0.207
-694.441	285.935	-0.099	-0.179
-693.426	-111.993	-0.133	0.027
-692.412	62.964	0.045	0.046
-691.397	-86.738	0.121	0.037
-690.383	414.935	-0.079	-0.168
-689.368	417.351	-0.103	-0.221
-688.354	105.673	-0.135	0.160
-687.339	-55.008	-0.307	0.139
-686.324	174.968	-0.186	-0.270
-685.310	-69.003	0.116	0.045
-684.295	-200.000	-0.038	-0.340
-683.281	722.476	-0.096	0.258
-682.266	-91.008	-0.483	-0.140
-681.251	-200.000	-0.014	0.353
-680.237	-26.332	-0.180	0.106
-679.222	-101.980	-0.175	-0.042
-678.208	-200.000	-0.020	-0.159
-677.193	-94.986	0.142	-0.039
-676.178	-200.000	0.019	0.299
-675.164	13.360	-0.341	-0.265
-674.149	-200.000	-0.010	0.060
-673.135	32.161	0.208	0.180
-672.120	-174.255	0.128	0.004
-671.105	-200.000	0.047	-0.267
-670.091	-78.445	-0.176	-0.061
-669.076	76.188	-0.226	-0.240
-668.062	229.113	-0.070	0.115
-667.047	490.582	0.106	0.244
-666.032	146.440	-0.123	-0.166
-665.018	-128.559	-0.262	-0.037
-664.003	-7.659	0.330	-0.224
-662.989	800.000	-0.089	0.296
-661.974	99.141	-0.170	-0.197
-660.959	-149.236	-0.195	0.016
-659.945	345.103	0.124	0.245
-658.930	800.000	0.021	0.071
-657.916	-58.693	-0.072	-0.031
-656.901	22.891	-0.372	0.306
-655.886	18.619	-0.336	0.270
-654.872	134.549	0.225	-0.293
-653.857	2.707	-0.230	-0.167
-652.843	-200.000	-0.020	0.288
-651.828	21.852	0.082	0.067
-650.814	-138.182	0.212	-0.024
-649.799	6.986	-0.116	0.087
-648.784	-96.546	0.166	0.044
-647.770	-200.000	0.011	0.058
-646.755	37.182	0.242	-0.215
-645.741	-72.797	0.034	-0.012
-644.726	194.938	-0.164	-0.250
-643.711	67.129	0.217	0.222
-642.697	-10.857	0.126	0.083
-641.682	118.193	-0.075	-0.093
-640.668	-200.000	0.016	-0.158
-639.653	191.706	-0.111	-0.167
-638.638	49.300	0.461	-0.435
-637.624	236.417	-0.021	-0.034
-636.609	-48.008	-0.098	0.048
-635.595	752.356	0.072	0.195
-634.580	598.966	-0.115	0.286
-633.565	-67.634	0.124	0.049
-632.551	41.852	-0.405	0.369
-631.536	-113.613	0.077	0.015
-630.522	800.000	-0.040	0.125
-629.507	-200.000	0.047	-0.271
-628.492	-32.552	0.088	0.049
-627.478	53.192	-0.104	-0.099
-626.463	474.045	0.031	0.069
-625.449	646.443	-0.054	-0.139
-624.434	-148.735	-0.385	-0.031
-623.419	-77.498	-0.180	-0.063
-622.405	37.700	-0.099	-0.088
-621.390	-12.178	0.362	0.237
-620.376	-80.043	-0.319	-0.107
-619.361	-43.794	0.291	0.147
-618.346	-129.007	0.251	0.035
-617.332	-62.254	0.087	-0.036
-616.317	119.375	0.106	0.131
-615.303	-128.843	-0.507	-0.071
-614.288	80.996	-0.167	-0.181
-613.273	414.367	0.127	-0.270
-612.259	-200.000	0.004	0.145
-611.244	-62.300	-0.173	-0.072
-610.230	79.450	-0.193	-0.207
-609.215	-127.203	-0.105	0.015
-608.201	252.920	-0.078	0.133
-607.186	-200.000	0.030	0.253
-606.171	186.972	-0.095	0.142
-605.157	-200.000	-0.017	-0.138
-604.142	-200.000	0.013	-0.137
-603.128	-200.000	-0.011	-0.126
-602.113	-200.000	0.027	0.135
-601.098	-182.420	0.088	-0.002
-600.084	9.942	-0.256	0.195
-599.069	800.000	0.076	-0.230
-598.055	156.907	0.033	-0.046
-597.040	-162.766	-0.243	0.012
-596.025	-85.499	0.170	-0.053
-595.011	-148.178	0.379	-0.031
-593.996	-200.000	0.047	0.255
-592.982	-83.247	0.057	-0.018
-591.967	-21.843	0.058	0.036
-590.952	-59.474	-0.237	0.102
-589.938	-200.000	0.000	0.123
-588.923	-1.930	-0.258	-0.181
-587.909	-48.681	-0.235	0.113
-586.894	229.006	0.171	-0.279
-585.879	-200.000	0.017	-0.110
-584.865	-6.684	-0.171	0.116
-583.850	-200.000	-0.000	0.081
-582.836	-178.791	-0.391	0.009
-581.821	-127.068	0.077	0.011
-580.806	-200.000	-0.011	-0.210
-579.792	138.249	-0.114	-0.150
-578.777	800.000	-0.045	0.193
-577.763	-133.964	0.074	-0.009
-576.748	-101.723	-0.121	0.029
-575.733	-188.557	0.348	0.004
-574.719	-4.231	0.136	0.094
-573.704	290.177	-0.175	0.318
-572.690	-200.000	-0.005	0.154
-571.675	-78.863	-0.141	-0.048
-570.661	-34.629	0.234	0.128
-569.646	132.166	-0.065	-0.084
-568.631	-200.000	0.051	-0.392
-567.617	288.303	-0.199	-0.360
-566.602	-132.876	0.198	-0.025
-565.588	-19.658	-0.187	-0.116
-564.573	-111.349	-0.168	-0.034
-563.558	66.030	-0.068	-0.069
-562.544	-200.000	-0.026	-0.259
-561.529	51.444	-0.365	-0.347
-560.515	-200.000	-0.011	-0.437
-559.500	-200.000	-0.006	-0.117
-558.485	-200.000	-0.002	-0.198
-557.471	75.462	0.093	0.098
-556.456	-81.082	0.188	0.062
-555.442	-200.000	-0.020	-0.105
-554.427	167.742	0.074	-0.106
-553.412	-91.309	-0.135	0.038
-552.398	800.000	-0.061	-0.186
-551.383	-98.301	0.168	0.043
-550.369	-43.963	-0.186	-0.094
-549.354	-110.169	-0.256	-0.053
-548.339	102.581	0.088	-0.102
-547.325	123.227	-0.078	0.097
-546.310	428.006	-0.066	0.142
-545.296	485.706	-0.012	0.026
-544.281	-64.509	-0.142	0.057
-543.266	-74.276	-0.311	-0.112
-542.252	11.427	-0.204	-0.157
-541.237	257.143	0.123	-0.212
-540.223	-91.452	0.245	-0.070
-539.208	800.000	0.039	0.171
-538.193	-86.652	0.059	-0.018
-537.179	-146.630	0.048	0.004
-536.164	-200.000	-0.252	0.001
-535.150	-119.800	0.210	0.036
-534.135	-147.973	0.207	-0.017
-533.121	-200.000	-0.043	-0.285
-532.106	239.842	-0.176	-0.292
-531.091	-15.812	-0.026	-0.016
-530.077	-200.000	-0.046	0.229
-529.062	800.000	0.020	0.081
-528.048	130.121	0.242	-0.309
-527.033	800.000	-0.165	0.550
-526.018	-99.100	-0.184	-0.047
-525.004	468.192	-0.062	-0.139
-523.989	125.301	0.047	-0.059
-522.975	51.484	0.078	-0.074
-521.960	800.000	-0.031	0.123
-520.945	9.766	0.174	-0.132
-519.931	42.320	-0.173	-0.157
-518.916	-25.341	0.224	-0.132
-517.902	800.000	-0.071	-0.217
-516.887	-200.000	-0.033	-0.188
-515.872	-176.752	-0.192	-0.005
-514.858	2.474	0.344	-0.248
-513.843	-25.500	-0.142	-0.084
-512.829	-200.000	0.026	-0.121
-511.814	174.135	-0.110	-0.159
-510.799	16.806	-0.280	0.221
-509.785	-133.741	0.277	-0.034
-508.770	-16.826	0.240	0.152
-507.756	420.507	-0.063	-0.135
-506.741	426.389	0.098	-0.211
-505.726	-6.686	0.200	0.136
-504.712	-95.170	0.136	0.037
-503.697	-100.635	0.405	0.100
-502.683	29.754	-0.094	-0.080
-501.668	15.711	0.094	0.074
-500.653	-200.000	0.089	-0.479
-499.639	-12.826	-0.156	-0.102
-498.624	-70.070	-0.304	-0.116
-497.610	-49.282	0.203	0.097
-496.595	-124.561	0.081	-0.013
-495.581	-81.600	-0.174	-0.057
-494.566	55.377	0.227	-0.219
-493.551	188.661	0.014	0.021
-492.537	490.193	0.144	0.328
-491.522	23.016	0.271	-0.222
-490.508	495.446	-0.056	-0.128
-489.493	-71.089	-0.330	0.124
-488.478	-102.192	0.139	-0.033
-487.464	274.367	-0.064	-0.112
-486.449	-34.540	-0.182	-0.099
-485.435	800.000	-0.055	-0.223
-484.420	593.706	-0.131	-0.323
-483.405	-200.000	0.008	-0.047
-482.391	-200.000	-0.041	-0.233
-481.376	-200.000	0.024	0.114
-480.362	-63.645	-0.060	-0.024
-479.347	800.000	-0.018	0.059
-478.332	800.000	0.021	0.083
-477.318	166.326	0.090	0.128
-476.303	-200.000	-0.037	0.231
-475.289	9.822	-0.164	-0.124
-474.274	800.000	-0.086	-0.255
-473.259	-106.271	-0.448	0.100
-472.245	525.571	0.107	0.251
-471.230	-24.332	0.149	0.089
-470.216	-117.895	-0.498	0.089
-469.201	5.404	0.118	0.087
-468.186	-31.833	0.213	0.119
-467.172	163.401	0.096	0.134
-466.157	-30.945	0.136	-0.077
-465.143	-97.331	-0.177	0.046
-464.128	276.604	0.038	0.068
-463.113	230.050	0.108	0.176
-462.099	142.259	0.086	-0.114
-461.084	109.028	-0.151	-0.180
-460.070	55.342	0.133	-0.128
-459.055	169.440	0.144	0.205
-458.040	800.000	0.076	-0.239
-457.026	15.225	-0.230	0.180
-456.011	-26.433	-0.274	-0.160
-454.997	452.538	0.014	0.030
-453.982	665.555	-0.073	0.188
-452.968	-72.286	-0.044	0.016
-451.953	140.755	-0.031	-0.041
-450.938	800.000	0.187	-0.567
-449.924	136.048	-0.190	0.246
-448.909	173.848	0.104	0.149
-447.895	287.790	-0.192	0.347
-446.880	326.414	-0.108	0.207
-445.865	-200.000	-0.019	0.131
-444.851	477.752	-0.117	0.263
-443.836	37.553	-0.165	-0.146
-442.822	-159.827	0.130	-0.007
-441.807	-143.400	-0.228	0.022
-440.792	-200.000	0.017	-0.188
-439.778	-106.438	-0.310	-0.069
-438.763	800.000	0.145	0.410
-437.749	800.000	-0.097	-0.342
-436.734	-5.899	-0.187	0.128
-435.719	667.131	-0.038	-0.097
-434.705	530.911	0.194	-0.457
-433.690	260.484	0.177	0.304
-432.676	-200.000	0.036	0.241
-431.661	-108.329	0.120	-0.026
-430.646	800.000	0.056	-0.173
-429.632	211.812	0.114	0.178
-428.617	259.124	0.187	0.321
-427.603	576.874	0.172	0.419
-426.588	-34.101	0.189	0.103
-425.573	-71.592	0.263	-0.098
-424.559	-200.000	-0.034	-0.159
-423.544	363.877	0.099	0.199
-422.530	-0.718	-0.099	-0.069
-421.515	94.923	0.331	-0.374
-420.500	10.144	-0.274	-0.207
-419.486	-156.952	0.100	0.006
-418.471	-51.436	-0.094	0.044
-417.457	-200.000	-0.010	-0.310
-416.442	-87.049	0.303	0.092
-415.428	-65.903	-0.271	0.108
-414.413	800.000	-0.027	-0.077
-413.398	-117.052	-0.194	-0.035
-412.384	800.000	0.041	-0.128
-411.369	87.058	0.165	0.181
-410.355	-23.468	0.201	0.120
-409.340	800.000	0.023	0.088
-408.325	52.301	0.337	0.319
-407.311	265.811	0.053	-0.093
-406.296	41.479	-0.097	-0.087
-405.282	53.365	-0.219	0.209
-404.267	194.966	-0.102	-0.154
-403.252	21.843	-0.114	-0.092
-402.238	-55.065	-0.237	-0.106
-401.223	-200.000	-0.024	0.280
-400.209	648.912	0.060	-0.153
-399.194	-137.980	0.102	-0.011
-398.179	800.000	0.054	0.187
-397.165	-63.848	0.295	0.120
-396.150	206.938	-0.085	-0.132
-395.136	27.510	-0.234	0.195
-394.121	-137.737	0.240	0.027
-393.106	-200.000	-0.012	0.142
-392.092	800.000	-0.073	0.251
-391.077	-145.111	0.130	0.012
-390.063	104.696	0.095	0.111
-389.048	25.787	0.291	-0.241
-388.033	327.798	-0.104	0.199
-387.019	-116.721	-0.275	0.050
-386.004	-78.216	-0.141	0.048
-384.990	484.150	0.126	-0.284
-383.975	117.624	0.114	0.139
-382.960	-35.058	0.307	0.166
-381.946	-60.853	-0.047	0.020
-380.931	-81.869	-0.070	0.023
-379.917	800.000	-0.052	-0.173
-378.902	-67.027	-0.035	0.014
-377.888	-200.000	-0.057	0.293
-376.873	-115.239	0.201	-0.038
-375.858	-63.613	0.208	-0.085
-374.844	-105.475	0.181	0.041
-373.829	-67.877	-0.232	-0.090
-372.815	-200.000	-0.017	-0.106
-371.800	91.624	0.191	-0.213
-370.785	66.354	-0.107	0.108
-369.771	14.094	-0.351	0.271
-368.756	-200.000	0.018	0.154
-367.742	-32.768	-0.170	0.094
-366.727	206.880	0.027	0.042
-365.712	-194.503	0.205	-0.002
-364.698	-44.091	0.449	-0.223
-363.683	204.448	-0.218	0.336
-362.669	179.106	-0.097	-0.141
-361.654	3.258	0.212	0.153
-360.639	160.011	-0.049	0.068
-359.625	-178.930	-0.080	0.002
-358.610	-200.000	0.007	0.305
-357.596	-200.000	0.023	0.123
-356.581	-102.028	0.271	0.065
-355.566	-25.301	-0.162	-0.095
-354.552	-4.427	-0.290	-0.199
-353.537	-74.699	0.176	-0.063
-352.523	39.544	0.314	-0.279
-351.508	33.094	0.159	0.136
-350.493	-200.000	0.072	-0.365
-349.479	623.590	0.098	-0.245
-348.464	800.000	-0.110	-0.315
-347.450	-200.000	0.002	0.149
-346.435	-28.076	-0.172	-0.099
-345.420	392.140	-0.102	0.210
-344.406	89.011	-0.106	0.117
-343.391	448.156	0.128	-0.281
-342.377	152.397	-0.145	-0.196
-341.362	32.623	-0.074	-0.063
-340.348	-138.613	0.280	-0.030
-339.333	-200.000	0.007	-0.033
-338.318	-78.595	0.219	0.074
-337.304	134.781	-0.150	-0.193
-336.289	-85.448	-0.410	0.127
-335.275	-66.159	0.284	0.112
-334.260	324.187	0.138	-0.262
-333.245	81.232	0.025	0.027
-332.231	93.118	0.130	-0.146
-331.216	-82.377	-0.397	-0.128
-330.202	800.000	0.011	-0.041
-329.187	0.182	0.132	-0.093
-328.172	-65.868	-0.221	-0.087
-327.158	542.345	-0.118	0.279
-326.143	-46.285	0.271	-0.132
-325.129	158.879	0.152	-0.209
-324.114	-120.902	0.036	0.006
-323.099	800.000	0.023	0.084
-322.085	-102.469	-0.255	-0.060
-321.070	800.000	0.099	0.320
-320.056	153.792	0.150	-0.203
-319.041	-200.000	-0.037	0.342
-318.026	-138.151	-0.497	0.055
-317.012	-196.714	-0.292	-0.002
-315.997	-54.479	-0.156	0.070
-314.983	-200.000	-0.014	-0.072
-313.968	-33.030	0.087	0.048
-312.953	48.572	0.072	0.067
-311.939	800.000	0.039	0.111
-310.924	34.942	0.101	0.088
-309.910	-141.588	0.266	-0.027
-308.895	-52.273	-0.215	0.099
-307.880	-164.094	-0.124	0.006
-306.866	-95.593	0.424	0.112
-305.851	-200.000	-0.011	0.386
-304.837	-72.540	-0.176	0.064
-303.822	11.338	0.229	-0.173
-302.807	-144.066	0.168	-0.016
-301.793	-88.087	-0.455	0.135
-300.778	80.435	0.201	0.214
-299.764	800.000	-0.063	0.225
-298.749	-200.000	0.022	0.212
-297.735	-200.000	-0.017	0.088
-296.720	-37.313	0.089	-0.047
-295.705	-42.345	-0.228	-0.115
-294.691	107.127	0.087	-0.102
-293.676	-93.131	-0.308	-0.085
-292.662	-200.000	-0.079	-0.388
-291.647	-135.077	-0.138	-0.016
-290.632	193.260	0.082	0.123
-289.618	32.159	-0.057	-0.049
-288.603	-147.376	-0.103	0.009
-287.589	68.036	-0.120	0.122
-286.574	196.620	0.162	0.244
-285.559	800.000	-0.041	0.168
-284.545	-171.201	0.183	0.006
-283.530	-200.000	0.021	0.255
-282.516	-130.640	0.266	-0.035
-281.501	-16.457	0.076	-0.048
-280.486	800.000	0.069	0.238
-279.472	-200.000	0.078	0.347
-278.457	-200.000	0.020	0.247
-277.443	-169.776	-0.329	-0.012
-276.428	-150.886	-0.086	0.006
-275.413	640.409	0.090	-0.226
-274.399	66.889	-0.070	-0.070
-273.384	364.047	0.221	-0.440
-272.370	92.544	0.140	0.157
-271.355	800.000	0.044	0.165
-270.340	-71.822	-0.162	0.060
-269.326	-154.336	0.324	0.022
-268.311	-200.000	0.041	-0.230
-267.297	6.050	0.383	0.281
-266.282	800.000	0.084	0.283
-265.267	-145.813	-0.352	0.031
-264.253	494.876	0.012	0.027
-263.238	-38.080	-0.219	0.115
-262.224	-31.865	0.113	0.063
-261.209	55.127	0.069	-0.066
-260.195	-114.004	-0.195	0.037
-259.180	-104.206	0.296	0.068
-258.165	242.391	-0.068	-0.112
-257.151	800.000	-0.125	0.368
-256.136	-111.543	-0.129	0.026
-255.122	-26.522	0.095	0.055
-254.107	119.865	-0.009	0.012
-253.092	-200.000	0.019	0.096
-252.078	800.000	-0.074	0.245
-251.063	-200.000	0.005	-0.148
-250.049	316.905	0.022	0.040
-249.034	-200.000	0.015	0.128
-248.019	697.764	-0.102	0.264
-247.005	29.364	0.365	-0.306
-245.990	238.750	0.107	0.176
-244.976	259.793	-0.059	0.101
-243.961	85.506	0.159	0.173
-242.946	236.174	0.062	0.102
-241.932	-45.043	-0.176	0.087
-240.917	-101.227	-0.277	-0.067
-239.903	15.739	0.265	-0.206
-238.888	-23.810	0.205	0.121
-237.873	800.000	0.060	-0.250
-236.859	-200.000	0.005	-0.038
-235.844	-200.000	-0.009	-0.047
-234.830	11.140	0.202	0.153
-233.815	491.161	0.016	0.037
-232.800	-44.032	0.153	0.076
-231.786	-76.878	-0.267	0.092
-230.771	-85.933	0.163	0.050
-229.757	108.753	-0.359	0.423
-228.742	7.434	-0.181	0.133
-227.727	398.656	0.163	-0.338
-226.713	-101.898	0.223	0.053
-225.698	309.510	-0.135	0.248
-224.684	110.064	0.101	-0.119
-223.669	1.482	0.279	0.198
-222.655	-2.643	0.071	-0.049
-221.640	-200.000	0.013	-0.069
-220.625	-133.376	0.304	-0.038
-219.611	-200.000	0.006	-0.186
-218.596	153.164	-0.281	-0.379
-217.582	800.000	-0.031	-0.120
-216.567	-108.971	-0.227	0.048
-215.552	38.747	0.178	-0.157
-214.538	686.966	-0.079	0.203
-213.523	34.930	-0.146	0.126
-212.509	53.738	0.232	-0.220
-211.494	-61.745	-0.372	-0.154
-210.479	-73.338	0.382	0.138
-209.465	-120.023	0.506	0.086
-208.450	-200.000	0.034	0.309
-207.436	562.079	-0.171	-0.409
-206.421	59.014	-0.104	0.101
-205.406	523.881	-0.122	-0.282
-204.392	19.036	0.208	0.165
-203.377	53.273	0.317	0.299
-202.363	-99.656	0.172	-0.043
-201.348	347.988	0.069	0.134
-200.333	30.984	-0.347	-0.293
-199.319	778.056	-0.173	-0.467
-198.304	-200.000	0.060	-0.372
-197.290	86.353	-0.069	-0.075
-196.275	-200.000	0.022	-0.127
-195.260	326.455	0.103	-0.193
-194.246	-200.000	0.077	0.355
-193.231	-128.706	-0.273	-0.038
-192.217	188.967	-0.168	0.248
-191.202	-200.000	0.006	0.030
-190.187	-200.000	0.045	-0.311
-189.173	56.867	-0.010	0.010
-188.158	729.168	-0.160	0.421
-187.144	22.005	0.291	0.234
-186.129	800.000	0.056	0.165
-185.114	800.000	0.028	-0.106
-184.100	27.296	-0.188	-0.156
-183.085	800.000	-0.100	-0.353
-182.071	-200.000	0.042	-0.186
-181.056	-29.954	-0.377	0.211
-180.042	127.840	0.244	0.306
-179.027	90.605	0.099	-0.109
-178.012	-33.483	0.214	-0.117
-176.998	-74.146	0.314	0.112
-175.983	239.393	0.027	0.045
-174.969	-200.000	0.009	-0.177
-173.954	281.124	0.050	-0.089
-172.939	353.059	-0.171	0.333
-171.925	155.680	0.250	-0.339
-170.910	77.152	0.236	-0.246
-169.896	-96.887	-0.232	0.060
-168.881	-17.348	0.092	0.057
-167.866	34.356	-0.189	0.162
-166.852	-121.061	0.224	0.037
-165.837	280.820	-0.032	-0.057
-164.823	-42.120	-0.347	0.175
-163.808	-200.000	-0.078	0.346
-162.793	-105.870	-0.188	0.042
-161.779	-25.847	0.251	-0.146
-160.764	72.688	-0.368	-0.378
-159.750	-127.287	0.088	0.013
-158.735	82.603	-0.098	0.104
-157.720	47.836	-0.176	0.162
-156.706	333.387	0.112	0.213
-155.691	300.101	-0.075	0.137
-154.677	800.000	0.078	-0.289
-153.662	-61.253	-0.021	0.009
-152.647	-106.941	-0.103	0.022
-151.633	203.348	-0.129	0.196
-150.618	71.659	0.052	0.053
-149.604	800.000	-0.096	0.290
-148.589	-200.000	-0.046	0.267
-147.574	119.101	-0.339	0.412
-146.560	80.602	0.195	0.207
-145.545	-111.804	-0.045	0.009
-144.531	-47.780	0.287	0.137
-143.516	800.000	0.024	0.096
-142.502	-71.508	-0.237	-0.087
-141.487	23.913	0.234	0.190
-140.472	-22.569	-0.187	-0.111
-139.458	800.000	0.077	-0.241
-138.443	-37.686	0.240	0.126
-137.429	50.205	-0.136	0.126
-136.414	-200.000	0.028	-0.208
-135.399	168.701	-0.032	-0.044
-134.385	85.004	0.206	0.222
-133.370	-56.455	0.076	0.033
-132.356	-34.783	0.316	-0.170
-131.341	533.527	-0.097	0.226
-130.326	-200.000	-0.013	-0.074
-129.312	-59.045	0.150	-0.064
-128.297	-37.828	0.334	0.175
-127.283	-75.346	-0.125	-0.044
-126.268	-31.956	-0.239	0.132
-125.253	-176.662	0.355	0.009
-124.239	800.000	0.010	-0.039
-123.224	68.305	-0.208	-0.210
-122.210	462.412	0.089	-0.196
-121.195	-139.357	0.298	-0.031
-120.180	390.438	0.056	0.115
-119.166	-200.000	0.010	0.294
-118.151	159.825	0.163	0.223
-117.137	800.000	0.099	-0.271
-116.122	800.000	0.037	-0.142
-115.107	-189.855	-0.131	-0.001
-114.093	-130.294	0.126	0.017
-113.078	-160.592	-0.219	0.011
-112.064	800.000	-0.030	-0.114
-111.049	173.379	-0.037	-0.052
-110.034	-186.223	-0.313	0.004
-109.020	4.889	-0.159	0.115
-108.005	-52.412	0.121	0.055
-106.991	-137.529	0.168	0.019
-105.976	470.590	-0.050	0.111
-104.962	8.664	0.129	0.096
-103.947	83.280	0.111	-0.118
-102.932	-3.002	-0.165	-0.113
-101.918	-88.298	-0.093	0.027
-100.903	-187.520	0.058	0.001
-99.889	202.924	-0.012	0.019
-98.874	28.101	-0.075	0.062
-97.859	-96.222	0.293	0.076
-96.845	136.561	0.086	-0.110
-95.830	41.154	-0.255	0.226
-94.816	-73.938	0.150	-0.054
-93.801	-97.566	-0.322	-0.082
-92.786	-52.184	-0.164	-0.075
-91.772	-36.448	0.296	0.156
-90.757	-19.110	-0.235	0.143
-89.743	546.647	-0.049	-0.116
-88.728	-169.868	0.151	-0.005
-87.713	800.000	-0.070	0.202
-86.699	25.278	0.188	-0.153
-85.684	800.000	-0.087	-0.334
-84.670	-80.880	-0.049	-0.016
-83.655	-51.035	-0.217	0.100
-82.640	13.008	0.293	-0.223
-81.626	67.377	-0.038	0.038
-80.611	59.995	-0.093	0.090
-79.597	-200.000	0.001	-0.042
-78.582	-85.724	0.084	-0.026
-77.567	424.062	0.045	0.096
-76.553	693.366	0.053	0.136
-75.538	14.773	0.096	-0.073
-74.524	-81.390	-0.311	-0.100
-73.509	27.018	0.072	-0.060
-72.494	-37.547	-0.129	0.067
-71.480	-12.156	0.304	-0.195
-70.465	479.720	-0.116	0.257
-69.451	-158.392	-0.125	-0.007
-68.436	-40.643	0.066	0.033
-67.422	149.197	-0.272	-0.361
-66.407	-200.000	-0.004	0.167
-65.392	-90.874	0.299	-0.084
-64.378	-168.301	0.200	-0.008
-63.363	-171.577	-0.292	-0.009
-62.349	-100.321	-0.237	-0.058
-61.334	35.854	-1.162	-1.002
-60.319	13.635	0.508	0.387
-59.305	453.007	-0.357	-0.775
-58.290	654.403	0.366	0.920
-57.276	390.996	0.726	1.477
-56.261	-200.000	97.553	609.144
-55.246	619.410	1399.077	3446.241
-54.232	192.567	2596.655	3842.455
-53.217	111.629	2274.712	2690.092
-52.203	41.472	1893.896	1679.920
-51.188	35.180	1682.968	1445.488
-50.173	32.426	1639.174	1387.544
-49.159	50.230	1687.589	1562.059
-48.144	51.917	1702.624	1588.515
-47.130	34.692	1662.992	1424.460
-46.115	31.948	1648.487	1391.655
-45.100	31.707	1644.649	1386.577
-44.086	31.765	1641.182	1384.034
-43.071	31.585	1638.888	1380.716
-42.057	31.678	1636.522	1379.352
-41.042	31.686	1634.761	1377.872
-40.027	31.735	1632.627	1376.375
-39.013	31.752	1630.151	1374.357
-37.998	31.623	1629.345	1372.678
-36.984	31.666	1627.864	1371.689
-35.969	31.748	1626.460	1371.057
-34.954	31.788	1624.525	1369.658
-33.940	31.841	1622.939	1368.656
-32.925	31.801	1621.543	1367.136
-31.911	31.788	1619.540	1365.295
-30.896	31.884	1617.234	1363.994
-29.881	31.743	1615.648	1361.579
-28.867	31.855	1614.220	1361.136
-27.852	31.835	1613.186	1360.068
-26.838	31.797	1611.707	1358.489
-25.823	31.848	1609.858	1357.243
-24.809	31.893	1608.318	1356.215
-23.794	31.836	1607.550	1355.101
-22.779	31.839	1605.626	1353.454
-21.765	31.890	1603.982	1352.381
-20.750	31.743	1602.469	1349.993
-19.736	31.870	1600.954	1349.579
-18.721	31.830	1599.716	1348.191
-17.706	31.820	1598.228	1346.808
-16.692	31.837	1596.507	1345.427
-15.677	31.910	1595.045	1344.670
-14.663	31.858	1594.461	1343.751
-13.648	31.816	1593.128	1342.271
-12.633	31.827	1591.206	1340.675
-11.619	31.944	1589.200	1339.769
-10.604	31.757	1588.190	1337.532
-9.590	31.877	1586.743	1337.112
-8.575	31.836	1586.176	1336.290
-7.560	31.801	1584.769	1334.800
-6.546	31.863	1583.890	1334.453
-5.531	31.846	1582.159	1332.821
-4.517	31.864	1580.700	1331.668
-3.502	31.809	1579.914	1330.560
-2.487	31.884	1578.207	1329.598
-1.473	31.549	1566.393	1317.240
-0.458	28.625	1546.657	1280.230
0.556	22.679	1547.160	1247.500
1.571	20.337	1570.611	1249.465
2.586	19.904	1584.141	1256.966
3.600	17.831	1532.016	1200.925
4.615	9.492	1422.154	1060.010
5.629	1.394	1357.401	960.600
6.644	-0.163	1348.969	944.761
7.659	-0.301	1347.546	942.812
8.673	-0.377	1346.712	941.671
9.688	-0.398	1344.483	939.894
10.702	-0.670	1341.831	936.259
11.717	2.247	1347.417	958.382
12.731	11.313	1364.319	1027.668
13.746	18.468	1376.093	1081.771
14.761	19.884	1377.211	1091.491
15.775	19.944	1377.412	1091.930
16.790	20.032	1376.609	1091.754
17.804	19.997	1376.193	1091.106
18.819	20.102	1376.244	1091.708
19.834	20.280	1375.231	1091.930
20.848	20.388	1373.980	1091.517
21.863	20.366	1373.456	1090.871
22.877	20.353	1372.668	1090.065
23.892	20.327	1371.886	1089.181
24.907	20.323	1370.970	1088.334
25.921	20.323	1370.072	1087.524
26.936	20.317	1369.044	1086.575
27.950	20.237	1368.061	1085.200
28.965	20.290	1367.039	1084.623
29.980	20.253	1365.677	1083.219
30.994	20.324	1364.331	1082.498
32.009	20.235	1363.472	1081.163
33.023	20.410	1361.997	1080.990
34.038	20.280	1360.797	1079.131
35.053	20.225	1359.946	1078.023
36.067	20.335	1358.640	1077.571
37.082	20.270	1358.295	1076.799
38.096	20.433	1356.441	1076.242
39.111	20.337	1355.911	1075.135
40.126	20.378	1354.993	1074.567
41.140	20.403	1353.929	1073.784
42.155	20.308	1354.099	1073.235
43.169	20.392	1353.855	1073.463
44.184	20.352	1354.505	1073.634
45.199	20.311	1353.568	1072.547
46.213	20.305	1353.143	1072.079
47.228	20.308	1352.252	1071.292
48.242	20.386	1350.632	1070.400
49.257	20.325	1349.308	1068.878
50.271	20.356	1347.972	1067.916
51.286	20.358	1346.562	1066.716
52.301	20.312	1345.492	1065.494
53.315	20.308	1344.480	1064.571
54.330	20.359	1343.554	1064.056
55.344	20.373	1342.710	1063.383
56.359	20.252	1341.685	1061.735
57.374	20.354	1340.684	1061.469
58.388	20.417	1339.663	1060.954
59.403	20.466	1339.175	1060.775
60.417	20.334	1338.998	1059.731
61.432	20.412	1337.799	1059.165
62.447	20.269	1337.395	1057.881
63.461	20.367	1336.055	1057.324
64.476	20.338	1335.167	1056.351
65.490	20.304	1333.827	1054.992
66.505	20.380	1332.029	1053.936
67.520	20.481	1330.763	1053.451
68.534	20.426	1329.465	1052.003
69.549	20.302	1329.058	1050.832
70.563	20.487	1327.712	1050.796
71.578	20.389	1327.078	1049.612
72.593	20.359	1326.108	1048.567
73.607	20.421	1325.433	1048.318
74.622	20.482	1324.565	1047.906
75.636	20.394	1323.956	1046.798
76.651	20.377	1323.336	1046.111
77.666	20.276	1323.165	1045.280
78.680	20.385	1322.426	1045.259
79.695	20.329	1321.705	1044.256
80.709	20.563	1320.497	1044.616
81.724	20.366	1319.870	1042.846
82.739	20.406	1318.521	1041.928
83.753	20.367	1317.698	1040.953
84.768	20.346	1316.618	1039.883
85.782	20.391	1315.796	1039.410
86.797	20.415	1314.284	1038.263
87.812	20.399	1313.267	1037.277
88.826	20.396	1311.939	1036.116
89.841	20.469	1310.798	1035.558
90.855	20.396	1309.662	1034.137
91.870	20.326	1309.731	1033.680
92.884	20.419	1308.207	1032.938
93.899	20.492	1307.373	1032.625
94.914	20.502	1306.532	1031.926
95.928	20.522	1306.222	1031.708
96.943	20.479	1305.021	1030.416
97.957	20.467	1304.488	1029.830
98.972	20.580	1303.186	1029.380
99.987	20.493	1302.355	1028.122
101.001	20.515	1301.060	1027.137
102.016	20.446	1300.484	1026.181
103.030	20.406	1299.466	1025.054
104.045	20.465	1298.532	1024.572
105.060	20.500	1297.846	1024.149
106.074	20.547	1296.353	1023.159
107.089	20.481	1295.376	1021.905
108.103	20.475	1294.536	1021.117
109.118	20.474	1292.571	1019.474
110.133	20.524	1291.828	1019.089
111.147	20.397	1291.019	1017.617
112.162	20.550	1289.136	1016.936
113.176	20.554	1287.916	1015.910
114.191	20.552	1287.357	1015.364
115.206	20.466	1286.239	1013.892
116.220	20.538	1285.017	1013.256
117.235	20.536	1284.019	1012.369
118.249	20.479	1282.932	1011.092
119.264	20.536	1281.983	1010.585
120.279	20.529	1281.426	1010.017
121.293	20.601	1280.392	1009.528
122.308	20.509	1279.692	1008.355
123.322	20.593	1278.400	1007.734
124.337	20.575	1277.427	1006.774
125.352	20.618	1276.589	1006.276
126.366	20.555	1275.720	1005.137
127.381	20.577	1274.897	1004.526
128.395	20.589	1273.512	1003.414
129.410	20.659	1272.571	1002.989
130.424	20.592	1272.146	1002.180
131.439	20.554	1271.059	1001.017
132.454	20.565	1269.905	1000.081
133.468	20.524	1269.769	999.647
134.483	20.551	1268.897	999.029
135.497	20.737	1267.310	998.758
136.512	20.584	1266.666	997.283
137.527	20.502	1265.891	996.116
138.541	20.545	1264.060	994.835
139.556	20.437	1263.219	993.465
140.570	20.461	1261.925	992.496
141.585	20.534	1260.571	991.765
142.600	20.546	1259.283	990.731
143.614	20.551	1258.929	990.393
144.629	20.435	1257.629	988.623
145.643	20.389	1256.534	987.410
146.658	20.563	1255.268	987.319
147.673	20.523	1254.447	986.358
148.687	20.504	1253.711	985.582
149.702	20.452	1252.618	984.341
150.716	20.564	1251.523	984.030
151.731	20.573	1250.030	982.820
152.746	20.546	1248.886	981.679
153.760	20.659	1247.970	981.509
154.775	20.498	1246.896	979.671
155.789	20.701	1245.883	979.935
156.804	20.539	1245.588	978.702
157.819	20.552	1244.099	977.516
158.833	20.603	1243.150	976.972
159.848	20.659	1242.564	976.739
160.862	20.567	1241.954	975.661
161.877	20.614	1240.987	975.075
162.892	20.646	1240.174	974.528
163.906	20.600	1239.577	973.718
164.921	20.587	1238.899	973.028
165.935	20.676	1237.997	972.726
166.950	20.610	1237.817	972.133
167.964	20.641	1237.063	971.627
168.979	20.622	1236.447	970.953
169.994	20.750	1235.878	971.133
171.008	20.629	1234.968	969.656
172.023	20.666	1234.009	969.027
173.037	20.642	1233.502	968.408
174.052	20.670	1232.935	968.031
175.067	20.689	1232.068	967.370
176.081	20.624	1231.255	966.285
177.096	20.728	1230.192	965.943
178.110	20.772	1229.233	965.349
179.125	20.642	1228.817	964.218
180.140	20.763	1227.391	963.685
181.154	20.699	1226.111	962.237
182.169	20.687	1224.982	961.199
183.183	20.652	1224.397	960.463
184.198	20.703	1223.192	959.714
185.213	20.733	1222.367	959.146
186.227	20.711	1221.648	958.377
187.242	20.721	1220.509	957.455
188.256	20.763	1220.068	957.253
189.271	20.783	1218.860	956.332
190.286	20.702	1218.390	955.435
191.300	20.681	1217.859	954.814
192.315	20.650	1217.313	954.133
193.329	20.657	1217.008	953.847
194.344	20.845	1215.993	954.000
195.359	20.725	1215.853	953.148
196.373	20.803	1215.087	952.892
197.388	20.736	1214.454	951.942
198.402	20.682	1214.354	951.485
199.417	20.677	1213.903	951.017
200.432	20.754	1213.455	951.007
201.446	20.747	1212.460	950.102
202.461	20.859	1211.352	949.764
203.475	20.738	1210.894	948.658
204.490	20.702	1209.816	947.536
205.504	20.880	1208.754	947.588
206.519	20.873	1207.647	946.599
207.534	20.899	1206.576	945.813
208.548	20.860	1206.035	945.094
209.563	20.735	1205.585	943.979
210.577	20.835	1204.540	943.619
211.592	20.819	1203.646	942.752
212.607	20.870	1202.906	942.363
213.621	20.852	1202.112	941.560
214.636	20.788	1201.431	940.598
215.650	20.948	1200.235	940.445
216.665	20.888	1199.323	939.323
217.680	20.858	1198.876	938.726
218.694	20.927	1197.766	938.144
219.709	20.864	1196.808	936.972
220.723	20.898	1196.482	936.819
221.738	20.908	1195.571	936.076
222.753	20.759	1195.141	934.859
223.767	20.878	1194.629	935.009
224.782	20.925	1194.341	934.958
225.796	21.021	1193.442	934.686
226.811	20.911	1192.930	933.611
227.826	20.950	1192.445	933.357
228.840	20.842	1191.718	932.125
229.855	20.909	1190.787	931.673
230.869	21.000	1190.256	931.664
231.884	21.006	1189.121	930.725
232.899	20.948	1188.728	930.028
233.913	20.994	1187.992	929.611
234.928	21.074	1187.731	929.753
235.942	21.032	1186.879	928.779
236.957	20.944	1186.291	927.766
237.972	21.023	1185.808	927.729
238.986	21.020	1185.135	927.105
240.001	21.066	1184.688	926.920
241.015	21.157	1183.567	926.443
242.030	21.081	1183.054	925.555
243.045	21.101	1182.099	924.832
244.059	21.212	1180.916	924.414
245.074	21.273	1180.348	924.209
246.088	21.175	1179.856	923.225
247.103	21.141	1178.727	922.081
248.117	21.097	1178.225	921.372
249.132	21.145	1177.670	921.112
250.147	21.066	1177.307	920.325
251.161	21.371	1175.684	920.584
252.176	21.118	1175.531	919.051
253.190	21.208	1174.571	918.692
254.205	21.070	1174.171	917.574
255.220	21.288	1173.315	917.966
256.234	21.292	1172.924	917.602
257.249	21.261	1172.652	917.147
258.263	21.231	1171.672	916.141
259.278	21.349	1170.989	916.141
260.293	21.234	1170.648	915.194
261.307	21.348	1170.009	915.212
262.322	21.158	1170.035	914.155
263.336	21.165	1169.158	913.425
264.351	21.204	1168.448	912.994
265.366	21.218	1167.740	912.433
266.380	21.239	1167.128	911.984
267.395	21.344	1166.614	912.047
268.409	21.309	1165.908	911.234
269.424	21.216	1165.616	910.440
270.439	21.303	1164.881	910.235
271.453	21.357	1164.008	909.755
272.468	21.196	1163.260	908.252
273.482	21.330	1162.273	908.097
274.497	21.342	1162.230	908.049
275.512	21.397	1161.356	907.570
276.526	21.203	1160.961	906.174
277.541	21.353	1160.115	906.214
278.555	21.381	1159.684	905.939
279.570	21.296	1158.973	904.865
280.585	21.418	1157.838	904.528
281.599	21.323	1157.153	903.422
282.614	21.339	1156.098	902.599
283.628	21.514	1155.119	902.659
284.643	21.407	1154.193	901.306
285.657	21.372	1153.589	900.572
286.672	21.351	1153.179	900.067
287.687	21.508	1151.832	899.742
288.701	21.443	1151.574	899.128
289.716	21.515	1150.845	898.845
290.730	21.548	1150.148	898.394
291.745	21.454	1149.773	897.536
292.760	21.591	1148.622	897.263
293.774	21.534	1148.468	896.769
294.789	21.623	1147.633	896.495
295.803	21.675	1146.836	896.061
296.818	21.589	1146.340	895.153
297.833	21.640	1145.624	894.777
298.847	21.697	1145.056	894.541
299.862	21.640	1144.568	893.790
300.876	21.504	1143.896	892.494
301.891	21.650	1142.830	892.328
302.906	21.642	1142.025	891.578
303.920	21.667	1141.925	891.549
304.935	21.626	1141.274	890.755
305.949	21.720	1140.166	890.289
306.964	21.589	1140.178	889.553
307.979	21.672	1139.604	889.446
308.993	21.698	1138.429	888.586
310.008	21.695	1137.835	888.025
311.022	21.790	1136.746	887.580
312.037	21.813	1136.075	887.093
313.052	21.724	1135.455	886.082
314.066	21.678	1134.436	884.974
315.081	21.754	1134.119	885.034
316.095	21.734	1133.173	884.117
317.110	21.660	1133.347	883.801
318.125	21.939	1131.814	883.930
319.139	21.819	1131.353	882.888
320.154	21.653	1131.048	881.735
321.168	21.690	1130.171	881.159
322.183	21.820	1129.821	881.463
323.197	21.660	1129.408	880.260
324.212	21.829	1128.279	880.149
325.227	21.775	1128.117	879.674
326.241	21.817	1127.725	879.502
327.256	21.944	1126.819	879.356
328.270	21.802	1125.988	877.917
329.285	21.887	1125.187	877.640
330.300	21.837	1124.326	876.641
331.314	21.889	1123.408	876.105
332.329	21.875	1122.765	875.458
333.343	21.917	1122.060	875.042
334.358	21.974	1121.058	874.468
335.373	21.909	1120.541	873.660
336.387	21.965	1119.900	873.365
337.402	21.999	1119.398	873.062
338.416	22.007	1118.475	872.306
339.431	21.993	1117.964	871.762
340.446	21.970	1117.137	870.924
341.460	22.182	1116.526	871.422
342.475	22.079	1115.997	870.422
343.489	22.073	1114.752	869.343
344.504	22.026	1114.029	868.470
345.519	22.054	1113.269	867.940
346.533	22.107	1112.612	867.615
347.548	22.036	1112.318	866.956
348.562	22.101	1111.037	866.202
349.577	22.078	1110.292	865.432
350.592	21.969	1109.872	864.490
351.606	22.129	1109.108	864.607
352.621	22.005	1108.903	863.759
353.635	22.166	1108.011	863.778
354.650	22.088	1107.187	862.679
355.665	22.167	1106.713	862.620
356.679	22.206	1105.903	862.104
357.694	22.119	1105.521	861.305
358.708	22.230	1104.889	861.279
359.723	22.164	1104.434	860.526
360.738	22.143	1103.588	859.687
361.752	22.192	1103.150	859.510
362.767	22.201	1102.642	859.083
363.781	22.189	1102.057	858.488
364.796	22.369	1101.342	858.735
365.810	22.227	1100.997	857.699
366.825	22.281	1100.429	857.440
367.840	22.399	1099.820	857.465
368.854	22.465	1099.123	857.170
369.869	22.359	1098.684	856.237
370.883	22.378	1097.580	855.389
371.898	22.362	1096.849	854.670
372.913	22.371	1096.660	854.489
373.927	22.384	1096.136	854.067
374.942	22.398	1095.464	853.538
375.956	22.324	1095.306	852.980
376.971	22.430	1094.112	852.489
377.986	22.471	1094.033	852.547
379.000	22.342	1093.564	851.484
380.015	22.429	1093.016	851.403
381.029	22.424	1092.291	850.737
382.044	22.526	1090.930	850.095
383.059	22.657	1090.343	850.194
384.073	22.519	1089.785	849.018
385.088	22.362	1089.230	847.754
386.102	22.523	1088.286	847.722
387.117	22.491	1087.335	846.749
388.132	22.497	1086.538	846.084
389.146	22.360	1086.059	844.976
390.161	22.459	1085.328	844.810
391.175	22.468	1084.721	844.305
392.190	22.634	1084.057	844.510
393.205	22.511	1083.413	843.343
394.219	22.565	1082.379	842.721
395.234	22.604	1081.907	842.465
396.248	22.654	1080.924	841.864
397.263	22.616	1080.079	840.953
398.278	22.645	1079.555	840.608
399.292	22.827	1078.710	840.743
400.307	22.753	1078.248	839.955
401.321	22.617	1078.042	839.075
402.336	22.646	1076.901	838.246
403.350	22.627	1076.340	837.648
404.365	22.763	1075.623	837.662
405.380	22.754	1075.090	837.128
406.394	22.836	1074.057	836.638
407.409	22.895	1073.159	836.144
408.423	22.843	1072.545	835.347
409.438	22.790	1072.121	834.690
410.453	22.847	1071.108	834.097
411.467	22.968	1070.394	834.039
412.482	22.888	1070.124	833.381
413.496	22.885	1069.319	832.664
414.511	22.831	1068.726	831.871
415.526	22.736	1068.423	831.116
416.540	22.910	1068.112	831.622
417.555	22.848	1067.823	831.032
418.569	22.812	1066.921	830.086
419.584	22.943	1066.244	830.098
420.599	23.006	1065.965	830.107
421.613	149.168	1397.718	1795.377
422.628	137.348	1446.032	1795.483
