DTS Sentinel unit serial number:	SN413079Multiplexer serial number:	ORYXHardware model number:	OX4-SRSoftware version number:	ORYX F/W v4.00 Oryx Data Collector v3.7.2.0data status	okinstallation	princeton_trtdifferential loss correction	single-endedforward channel	channel 2reverse channel	N/Adate	2019/09/12time	01:45:10forward acquisition time	60.00reverse acquisition time	0.00gamma	496.2192k internal	0.2326k external	0.2326temperature offset calibration	1.0087default loss term (dB/km)	0.3790temperature slope calibration	1.0000multiplexer offset coefficient	1.0000multiplexer slope coefficient	1.0000fibre end	0.00T internal ref (°C)	32.86T ext. ref 1 (°C)	2.06T ext. ref 2 (°C)	27.37length (m)	temperature (°C)	Stokes	anti-Stokes-747.200	3.469	-0.310	0.228
-746.185	209.507	-0.288	0.455
-745.171	-69.398	0.409	0.158
-744.156	118.649	-0.286	0.356
-743.142	555.529	-0.163	0.396
-742.127	214.034	-0.237	0.379
-741.112	-55.715	0.309	-0.140
-740.098	73.168	-0.228	0.240
-739.083	-143.786	-0.337	-0.032
-738.069	800.000	-0.054	-0.165
-737.054	54.478	-0.126	-0.122
-736.039	-200.000	0.028	-0.125
-735.025	86.881	-0.106	-0.118
-734.010	-79.623	0.349	-0.119
-732.996	-200.000	0.010	-0.195
-731.981	288.015	0.101	-0.185
-730.966	-200.000	0.001	-0.379
-729.952	33.532	0.385	-0.337
-728.937	-200.000	-0.028	0.271
-727.923	800.000	0.108	-0.349
-726.908	300.835	0.084	0.156
-725.894	-37.325	-0.404	-0.217
-724.879	142.430	0.237	-0.317
-723.864	129.460	-0.198	0.255
-722.850	-63.742	0.066	-0.027
-721.835	13.149	0.243	-0.189
-720.821	800.000	0.027	0.101
-719.806	-16.107	0.237	0.152
-718.791	-10.168	0.236	-0.158
-717.777	-69.255	0.064	0.025
-716.762	-117.381	-0.209	-0.038
-715.748	-110.492	0.500	0.104
-714.733	16.534	-0.278	0.221
-713.718	33.836	0.139	-0.122
-712.704	-134.079	-0.415	0.052
-711.689	-200.000	0.071	0.432
-710.675	-200.000	0.010	0.066
-709.660	497.707	0.156	-0.362
-708.645	-200.000	-0.030	0.248
-707.631	-166.972	-0.198	0.008
-706.616	-200.000	-0.019	0.130
-705.602	-146.224	0.273	0.024
-704.587	25.494	-0.118	0.099
-703.572	-200.000	0.044	0.273
-702.558	47.950	0.221	-0.208
-701.543	-84.017	-0.341	0.109
-700.529	-200.000	0.027	-0.310
-699.514	-64.017	0.049	0.020
-698.499	-2.046	-0.138	0.098
-697.485	-72.202	-0.377	-0.141
-696.470	-200.000	-0.017	-0.189
-695.456	198.070	-0.112	0.172
-694.441	800.000	-0.141	-0.401
-693.426	800.000	0.046	0.167
-692.412	76.330	-0.118	-0.126
-691.397	-137.283	0.422	-0.048
-690.383	389.995	-0.058	-0.121
-689.368	9.689	-0.218	-0.166
-688.354	-2.700	-0.122	-0.086
-687.339	526.858	-0.051	0.121
-686.324	-115.295	-0.132	0.025
-685.310	-130.839	-0.144	0.019
-684.295	-76.804	0.192	-0.068
-683.281	-200.000	-0.066	-0.362
-682.266	-136.413	-0.244	0.029
-681.251	-21.132	0.339	-0.209
-680.237	-200.000	-0.006	0.150
-679.222	-55.175	0.170	-0.077
-678.208	-104.389	0.315	-0.073
-677.193	-94.538	-0.332	0.091
-676.178	17.437	-0.217	-0.173
-675.164	33.319	-0.233	0.203
-674.149	49.578	-0.275	-0.261
-673.135	281.262	-0.143	-0.258
-672.120	-28.022	0.327	0.190
-671.105	-200.000	0.044	0.262
-670.091	-200.000	-0.051	-0.266
-669.076	-26.292	-0.232	0.137
-668.062	400.399	-0.103	-0.217
-667.047	462.394	-0.007	-0.016
-666.032	800.000	0.036	-0.106
-665.018	70.536	0.345	-0.359
-664.003	0.766	0.371	0.267
-662.989	-200.000	0.005	0.272
-661.974	-53.410	0.348	-0.160
-660.959	1.561	-0.200	0.145
-659.945	101.380	0.316	-0.370
-658.930	332.798	-0.184	0.358
-657.916	14.087	0.224	0.176
-656.901	-21.020	0.014	0.008
-655.886	-45.819	0.156	0.077
-654.872	-125.672	0.099	-0.015
-653.857	-200.000	0.019	0.330
-652.843	-154.915	0.268	0.018
-651.828	-103.268	-0.093	-0.022
-650.814	-200.000	-0.036	-0.171
-649.799	33.415	-0.273	0.238
-648.784	-120.991	-0.265	0.045
-647.770	34.960	-0.074	-0.065
-646.755	166.858	-0.177	-0.252
-645.741	-148.988	0.351	-0.028
-644.726	178.174	0.204	-0.299
-643.711	800.000	-0.055	0.174
-642.697	-200.000	0.050	-0.246
-641.682	-200.000	0.064	0.309
-640.668	800.000	-0.136	0.486
-639.653	-5.957	-0.041	0.028
-638.638	12.553	-0.147	-0.114
-637.624	-200.000	-0.074	0.443
-636.609	241.866	0.211	-0.354
-635.595	-173.480	0.067	-0.002
-634.580	191.736	-0.172	-0.260
-633.565	-200.000	-0.024	0.330
-632.551	60.124	0.251	-0.249
-631.536	-119.010	0.178	-0.031
-630.522	-112.907	-0.179	0.036
-629.507	291.237	0.252	0.459
-628.492	72.763	0.097	0.102
-627.478	-49.265	0.139	0.067
-626.463	118.304	-0.059	0.074
-625.449	-200.000	-0.047	0.274
-624.434	800.000	0.061	-0.212
-623.419	243.960	0.085	-0.144
-622.405	-91.240	0.151	0.043
-621.390	-60.644	-0.031	0.013
-620.376	800.000	0.014	0.060
-619.361	237.173	-0.065	-0.108
-618.346	800.000	0.062	-0.195
-617.332	800.000	0.061	-0.226
-616.317	-52.143	0.167	-0.078
-615.303	204.368	0.149	-0.232
-614.288	457.115	-0.121	0.269
-613.273	-36.797	-0.225	-0.121
-612.259	-30.615	-0.150	0.085
-611.244	275.832	0.144	0.256
-610.230	-72.379	0.182	-0.068
-609.215	-169.032	0.395	-0.015
-608.201	171.463	0.252	0.363
-607.186	167.535	0.041	-0.059
-606.171	418.947	0.132	0.283
-605.157	-146.952	-0.236	0.020
-604.142	537.609	-0.103	-0.245
-603.128	87.510	-0.222	-0.246
-602.113	-109.440	0.360	-0.076
-601.098	246.668	0.116	0.196
-600.084	-89.819	0.240	-0.070
-599.069	12.179	-0.257	-0.198
-598.055	65.969	-0.126	-0.129
-597.040	-200.000	0.010	0.066
-596.025	-99.124	-0.207	0.053
-595.011	117.115	0.101	-0.124
-593.996	-79.152	0.612	-0.208
-592.982	38.644	-0.258	-0.230
-591.967	268.186	0.039	-0.068
-590.952	165.068	0.233	-0.329
-589.938	-25.454	-0.087	-0.052
-588.923	-58.229	-0.118	-0.052
-587.909	344.882	0.074	0.146
-586.894	170.388	-0.104	-0.149
-585.879	800.000	-0.029	-0.125
-584.865	752.142	0.038	0.102
-583.850	-33.602	0.274	0.152
-582.836	63.640	0.077	0.077
-581.821	1.246	-0.259	-0.186
-580.806	181.988	-0.008	0.011
-579.792	-80.550	-0.286	0.095
-578.777	800.000	0.045	-0.129
-577.763	197.244	-0.116	0.178
-576.748	-36.837	0.154	-0.083
-575.733	676.211	0.059	-0.153
-574.719	46.717	0.187	0.174
-573.704	-85.161	-0.040	-0.013
-572.690	-200.000	0.015	-0.095
-571.675	-54.440	-0.360	-0.163
-570.661	-105.028	-0.210	0.048
-569.646	-200.000	-0.014	-0.078
-568.631	-155.491	0.068	-0.004
-567.617	-137.034	-0.263	-0.030
-566.602	-14.180	-0.223	-0.144
-565.588	586.444	0.125	-0.309
-564.573	-60.496	-0.128	-0.054
-563.558	145.940	0.185	0.248
-562.544	-200.000	0.019	-0.251
-561.529	-94.669	0.077	0.021
-560.515	-55.380	-0.238	0.107
-559.500	-43.241	-0.178	0.090
-558.485	-200.000	0.069	-0.315
-557.471	-14.148	0.168	-0.108
-556.456	-77.822	0.179	-0.062
-555.442	800.000	-0.057	0.194
-554.427	800.000	0.009	-0.028
-553.412	-35.931	-0.306	0.166
-552.398	-42.537	-0.337	0.172
-551.383	800.000	0.121	-0.431
-550.369	800.000	-0.042	-0.177
-549.354	-64.215	-0.163	0.067
-548.339	-31.182	-0.161	-0.091
-547.325	800.000	0.114	0.412
-546.310	75.382	0.066	-0.069
-545.296	208.523	-0.164	0.257
-544.281	-200.000	0.015	-0.173
-543.266	329.887	-0.026	-0.050
-542.252	-200.000	0.011	0.139
-541.237	800.000	-0.003	-0.010
-540.223	72.232	-0.182	-0.190
-539.208	401.716	-0.075	-0.157
-538.193	16.949	0.158	-0.125
-537.179	-200.000	-0.055	0.296
-536.164	-77.052	0.091	0.032
-535.150	-127.365	-0.281	-0.041
-534.135	-20.526	-0.280	0.172
-533.121	-102.250	-0.222	-0.053
-532.106	-37.244	0.220	-0.118
-531.091	800.000	-0.077	-0.228
-530.077	186.401	-0.177	-0.263
-529.062	800.000	-0.017	-0.070
-528.048	-78.365	-0.170	-0.058
-527.033	127.416	-0.089	-0.113
-526.018	-200.000	0.004	0.398
-525.004	-132.383	0.381	0.049
-523.989	200.112	-0.100	0.153
-522.975	-200.000	0.048	0.284
-521.960	444.910	0.175	-0.383
-520.945	-18.408	0.198	-0.124
-519.931	-200.000	0.006	-0.158
-518.916	-167.055	-0.222	0.009
-517.902	-126.750	0.075	-0.011
-516.887	-200.000	-0.069	-0.341
-515.872	-19.300	-0.348	-0.216
-514.858	-91.295	0.099	0.028
-513.843	81.817	-0.117	-0.126
-512.829	-13.327	-0.273	-0.177
-511.814	15.906	0.188	0.148
-510.799	-90.539	-0.239	-0.069
-509.785	800.000	0.046	-0.176
-508.770	-9.163	-0.127	-0.085
-507.756	-111.259	-0.152	-0.031
-506.741	-140.245	-0.201	-0.021
-505.726	796.492	0.060	-0.164
-504.712	-117.979	-0.285	-0.051
-503.697	-194.173	0.249	-0.002
-502.683	-68.218	0.096	0.037
-501.668	-65.125	0.414	0.167
-500.653	163.479	0.165	-0.231
-499.639	800.000	-0.062	-0.191
-498.624	265.826	0.044	-0.076
-497.610	-163.171	-0.087	0.004
-496.595	-125.408	0.378	-0.058
-495.581	97.218	0.030	0.034
-494.566	-42.980	-0.102	0.052
-493.551	55.021	0.255	0.246
-492.537	6.926	-0.244	-0.182
-491.522	-200.000	0.025	0.154
-490.508	346.865	0.132	-0.260
-489.493	89.674	-0.276	-0.307
-488.478	-40.901	0.118	0.061
-487.464	-87.937	-0.405	0.121
-486.449	96.174	-0.111	0.126
-485.435	-200.000	0.032	-0.177
-484.420	-1.000	0.156	-0.110
-483.405	570.307	0.036	0.088
-482.391	25.601	0.160	0.133
-481.376	182.755	0.056	0.083
-480.362	-77.110	0.279	-0.097
-479.347	-200.000	-0.013	-0.279
-478.332	800.000	0.026	0.090
-477.318	800.000	-0.089	-0.368
-476.303	-105.558	-0.119	0.027
-475.289	48.177	-0.082	0.076
-474.274	21.126	-0.134	0.108
-473.259	-171.026	0.331	-0.011
-472.245	800.000	-0.073	0.284
-471.230	5.766	-0.179	0.132
-470.216	-64.975	0.203	0.082
-469.201	535.419	-0.066	-0.156
-468.186	237.923	0.134	0.221
-467.172	800.000	-0.039	0.147
-466.157	-124.018	0.283	0.044
-465.143	-200.000	-0.013	0.058
-464.128	-46.284	-0.513	0.252
-463.113	-200.000	0.014	0.339
-462.099	-4.226	0.163	0.113
-461.084	10.713	-0.432	0.328
-460.070	-106.583	0.258	0.057
-459.055	33.511	0.174	-0.150
-458.040	-45.430	-0.098	-0.048
-457.026	800.000	-0.032	0.092
-456.011	570.870	0.139	0.338
-454.997	-200.000	-0.025	-0.242
-453.982	-200.000	0.017	0.149
-452.968	-64.289	0.119	0.048
-451.953	-200.000	0.015	0.242
-450.938	11.428	0.273	-0.209
-449.924	-105.602	-0.176	0.040
-448.909	397.241	0.043	0.089
-447.895	-135.470	0.377	-0.045
-446.880	-200.000	-0.060	-0.287
-445.865	-200.000	-0.003	0.039
-444.851	800.000	-0.006	-0.022
-443.836	272.237	0.131	0.230
-442.822	250.175	-0.209	-0.354
-441.807	445.582	0.051	0.111
-440.792	420.339	-0.134	0.287
-439.778	446.965	0.066	-0.144
-438.763	-80.286	-0.118	0.039
-437.749	-10.325	-0.270	0.179
-436.734	-57.115	-0.158	-0.069
-435.719	227.949	-0.253	0.410
-434.705	157.827	0.128	0.176
-433.690	114.703	0.091	0.110
-432.676	-9.573	0.125	-0.083
-431.661	-200.000	-0.049	-0.289
-430.646	67.707	0.253	-0.257
-429.632	367.675	0.085	-0.172
-428.617	126.727	-0.118	-0.149
-427.603	-200.000	0.016	0.144
-426.588	-138.603	-0.330	-0.036
-425.573	8.492	0.259	0.194
-424.559	-149.541	0.109	-0.009
-423.544	183.988	-0.103	-0.152
-422.530	-56.683	0.066	-0.029
-421.515	251.069	-0.087	-0.147
-420.500	-200.000	0.025	-0.207
-419.486	-72.387	0.213	0.078
-418.471	1.646	0.039	-0.028
-417.457	397.168	0.219	0.457
-416.442	-200.000	-0.006	0.172
-415.428	461.010	-0.140	-0.311
-414.413	-91.590	0.314	-0.089
-413.398	208.916	-0.096	0.149
-412.384	-91.639	0.292	-0.083
-411.369	-137.510	0.340	-0.038
-410.355	-123.026	-0.161	0.026
-409.340	-107.338	0.184	0.040
-408.325	114.976	-0.117	-0.142
-407.311	-6.126	-0.150	0.102
-406.296	30.459	-0.035	-0.030
-405.282	-88.912	-0.347	0.102
-404.267	-200.000	-0.089	0.496
-403.252	-127.322	-0.216	-0.031
-402.238	307.556	0.057	-0.105
-401.223	88.410	-0.036	0.040
-400.209	800.000	-0.057	0.198
-399.194	23.955	0.300	-0.246
-398.179	-5.355	0.140	0.096
-397.165	800.000	0.017	0.059
-396.150	-200.000	-0.022	0.396
-395.136	-200.000	-0.031	-0.208
-394.121	-25.319	-0.322	0.189
-393.106	-59.318	0.182	0.078
-392.092	40.595	0.144	0.129
-391.077	-20.706	0.264	0.161
-390.063	115.845	-0.206	0.251
-389.048	-115.783	0.535	-0.100
-388.033	-200.000	0.048	-0.237
-387.019	-44.952	-0.275	-0.136
-386.004	-200.000	-0.004	0.067
-384.990	-166.254	-0.216	-0.009
-383.975	-88.900	0.314	-0.093
-382.960	-94.414	-0.168	-0.046
-381.946	56.841	-0.117	0.113
-380.931	293.195	-0.029	-0.053
-379.917	-118.361	-0.184	-0.032
-378.902	-200.000	-0.040	-0.188
-377.888	225.211	-0.070	0.113
-376.873	-49.841	-0.123	-0.058
-375.858	4.013	0.092	-0.067
-374.844	-111.561	-0.131	-0.026
-373.829	175.828	-0.220	-0.318
-372.815	87.408	0.026	0.028
-371.800	-53.650	0.096	-0.044
-370.785	-93.406	0.236	0.065
-369.771	83.184	-0.299	0.324
-368.756	313.637	0.099	0.185
-367.742	410.315	0.166	-0.350
-366.727	63.297	-0.137	-0.136
-365.712	71.197	0.101	-0.104
-364.698	-12.557	-0.153	0.099
-363.683	560.745	-0.179	0.430
-362.669	-55.613	0.272	0.121
-361.654	-111.253	0.031	0.006
-360.639	-200.000	-0.002	0.145
-359.625	28.837	-0.502	0.423
-358.610	19.323	-0.107	-0.085
-357.596	-96.664	0.185	0.048
-356.581	-179.663	-0.302	0.007
-355.566	-48.651	-0.155	0.074
-354.552	-43.212	-0.273	-0.137
-353.537	224.724	0.154	0.248
-352.523	800.000	0.059	0.225
-351.508	-55.977	-0.198	-0.088
-350.493	421.815	-0.111	0.237
-349.479	27.245	0.175	-0.146
-348.464	-200.000	0.071	-0.329
-347.450	-21.950	-0.112	0.068
-346.435	-120.202	-0.050	0.008
-345.420	-1.517	-0.483	0.338
-344.406	48.270	-0.189	0.176
-343.391	-41.030	-0.186	-0.095
-342.377	246.518	0.100	0.168
-341.362	89.359	0.119	-0.132
-340.348	800.000	0.050	0.203
-339.333	238.819	0.195	0.322
-338.318	-44.376	0.110	-0.055
-337.304	45.395	-0.088	0.080
-336.289	238.186	0.072	-0.119
-335.275	-11.950	-0.207	0.135
-334.260	-157.906	-0.172	-0.010
-333.245	788.617	-0.073	0.198
-332.231	12.559	0.071	-0.054
-331.216	399.617	-0.169	-0.352
-330.202	-110.302	0.195	-0.040
-329.187	-17.261	0.231	0.144
-328.172	-71.294	-0.260	-0.097
-327.158	-200.000	-0.005	0.196
-326.143	-200.000	0.011	-0.195
-325.129	-200.000	0.021	-0.149
-324.114	588.876	-0.053	0.130
-323.099	800.000	-0.091	-0.270
-322.085	-61.109	0.281	-0.118
-321.070	800.000	-0.018	0.055
-320.056	46.500	-0.317	-0.292
-319.041	23.238	0.104	-0.085
-318.026	-200.000	0.023	-0.110
-317.012	-45.616	-0.158	-0.077
-315.997	-75.688	0.382	0.135
-314.983	-36.905	-0.231	-0.123
-313.968	222.658	0.156	-0.249
-312.953	-71.961	0.352	-0.130
-311.939	800.000	0.108	0.353
-310.924	561.937	0.087	0.209
-309.910	331.024	0.145	-0.277
-308.895	-200.000	-0.010	-0.091
-307.880	28.647	-0.229	0.192
-306.866	-96.627	-0.273	-0.071
-305.851	-144.930	0.149	0.013
-304.837	-51.042	0.139	0.065
-303.822	-200.000	0.054	0.402
-302.807	-143.840	0.418	-0.039
-301.793	-29.037	-0.029	0.017
-300.778	-200.000	-0.006	0.159
-299.764	-200.000	-0.054	-0.293
-298.749	-200.000	0.034	-0.534
-297.735	-109.747	0.148	-0.031
-296.720	66.414	0.214	0.215
-295.705	481.585	0.131	-0.295
-294.691	-112.663	0.251	0.049
-293.676	-62.336	-0.034	-0.014
-292.662	18.905	0.160	0.127
-291.647	224.871	0.024	-0.039
-290.632	131.796	-0.075	-0.095
-289.618	291.096	0.037	0.067
-288.603	243.281	0.115	-0.190
-287.589	73.849	-0.308	0.320
-286.574	-8.774	-0.348	0.232
-285.559	-52.198	0.101	-0.046
-284.545	-6.990	-0.133	-0.089
-283.530	800.000	0.011	-0.035
-282.516	91.868	0.172	-0.192
-281.501	673.707	-0.052	-0.133
-280.486	-54.668	0.296	0.133
-279.472	-200.000	0.050	-0.237
-278.457	633.175	-0.080	0.201
-277.443	800.000	-0.048	0.148
-276.428	-200.000	0.002	0.218
-275.413	17.024	0.241	0.189
-274.399	-41.405	-0.208	-0.106
-273.384	-200.000	0.020	-0.205
-272.370	-133.343	-0.305	-0.038
-271.355	148.911	0.144	0.193
-270.340	42.829	-0.146	-0.132
-269.326	165.975	0.150	0.210
-268.311	-200.000	-0.011	0.091
-267.297	306.310	0.014	-0.026
-266.282	-200.000	0.006	0.092
-265.267	800.000	0.104	0.327
-264.253	-200.000	-0.012	0.239
-263.238	-56.023	-0.072	-0.032
-262.224	52.551	-0.074	-0.070
-261.209	203.134	-0.046	-0.071
-260.195	390.564	0.044	-0.090
-259.180	800.000	-0.057	-0.237
-258.165	-139.472	0.285	0.030
-257.151	285.955	0.081	-0.144
-256.136	-200.000	0.006	0.091
-255.122	-200.000	0.020	-0.140
-254.107	-200.000	0.001	0.097
-253.092	541.720	-0.194	0.457
-252.078	90.362	0.312	0.346
-251.063	242.758	0.139	-0.231
-250.049	4.776	-0.103	0.075
-249.034	-200.000	-0.005	-0.058
-248.019	-17.295	-0.434	0.271
-247.005	28.259	0.096	-0.080
-245.990	-26.514	0.111	0.065
-244.976	-21.019	-0.157	0.095
-243.961	800.000	-0.026	0.073
-242.946	-200.000	0.012	-0.222
-241.932	108.571	-0.017	0.020
-240.917	-138.822	-0.173	0.019
-239.903	-200.000	0.037	-0.165
-238.888	68.827	-0.101	0.103
-237.873	-133.808	0.268	-0.033
-236.859	-200.000	0.004	-0.143
-235.844	-43.747	-0.094	-0.047
-234.830	99.309	-0.139	0.159
-233.815	-200.000	-0.004	-0.163
-232.800	-93.315	-0.122	0.034
-231.786	-56.538	-0.500	0.219
-230.771	-65.729	0.406	-0.161
-229.757	512.510	-0.158	0.364
-228.742	92.001	-0.160	-0.178
-227.727	-200.000	-0.007	0.216
-226.713	-66.547	0.255	-0.100
-225.698	64.512	-0.311	-0.310
-224.684	-200.000	0.019	0.342
-223.669	-68.432	0.202	-0.078
-222.655	-200.000	-0.023	0.280
-221.640	236.939	-0.148	-0.242
-220.625	76.622	0.253	-0.265
-219.611	66.753	-0.329	0.330
-218.596	37.026	-0.137	-0.120
-217.582	73.784	-0.036	-0.038
-216.567	-200.000	-0.003	0.045
-215.552	800.000	0.074	-0.277
-214.538	79.006	-0.179	-0.189
-213.523	800.000	-0.052	0.199
-212.509	33.337	0.047	0.041
-211.494	-72.282	-0.260	-0.095
-210.479	109.489	-0.075	0.089
-209.465	-142.557	0.490	-0.047
-208.450	-95.553	-0.120	-0.032
-207.436	-200.000	0.003	0.099
-206.421	-47.251	-0.162	-0.078
-205.406	-66.838	0.254	-0.099
-204.392	47.549	-0.106	-0.097
-203.377	-200.000	-0.006	-0.217
-202.363	124.145	-0.096	0.119
-201.348	800.000	0.063	0.202
-200.333	256.082	-0.116	-0.196
-199.319	-45.066	0.097	-0.047
-198.304	-41.975	0.180	-0.091
-197.290	-200.000	-0.009	0.300
-196.275	49.860	0.113	0.105
-195.260	800.000	-0.062	-0.215
-194.246	-74.784	-0.275	-0.098
-193.231	408.961	0.171	0.358
-192.217	-57.190	0.236	0.103
-191.202	-1.260	0.179	-0.125
-190.187	-16.538	-0.161	0.100
-189.173	53.108	0.167	-0.158
-188.158	-142.275	-0.277	-0.027
-187.144	654.722	-0.042	-0.106
-186.129	258.295	-0.080	0.136
-185.114	-110.613	0.316	0.065
-184.100	-115.669	0.248	0.046
-183.085	-62.766	0.387	0.158
-182.071	-200.000	0.022	0.179
-181.056	-200.000	-0.051	-0.430
-180.042	15.739	-0.154	0.119
-179.027	-104.880	0.282	-0.064
-178.012	-200.000	-0.015	0.077
-176.998	421.436	0.050	-0.105
-175.983	25.699	-0.261	-0.214
-174.969	-82.713	0.167	-0.053
-173.954	-200.000	0.002	-0.107
-172.939	-85.544	0.252	0.077
-171.925	-72.786	-0.228	0.083
-170.910	250.095	0.224	0.374
-169.896	191.701	0.133	-0.197
-168.881	120.028	0.180	0.221
-167.866	-200.000	-0.017	-0.162
-166.852	393.832	0.010	-0.021
-165.837	-25.515	-0.172	0.100
-164.823	-82.951	-0.315	-0.100
-163.808	-129.981	-0.223	0.030
-162.793	-65.609	-0.037	0.015
-161.779	271.683	0.120	0.208
-160.764	-200.000	0.026	-0.353
-159.750	446.579	-0.081	-0.177
-158.735	-102.553	-0.147	-0.035
-157.720	178.642	0.036	-0.052
-156.706	-200.000	-0.014	-0.183
-155.691	-58.196	0.176	-0.075
-154.677	-161.488	0.351	0.018
-153.662	170.226	0.239	0.337
-152.647	800.000	0.126	-0.399
-151.633	166.922	0.034	-0.047
-150.618	569.644	0.160	0.383
-149.604	188.789	-0.096	0.141
-148.589	72.481	0.210	-0.216
-147.574	86.956	-0.241	0.262
-146.560	433.730	0.047	0.101
-145.545	461.907	0.119	-0.262
-144.531	-119.116	0.310	-0.053
-143.516	-106.604	-0.303	0.067
-142.502	-200.000	0.026	0.336
-141.487	-103.982	-0.134	-0.031
-140.472	-200.000	-0.019	0.393
-139.458	1.571	-0.151	0.107
-138.443	800.000	0.111	0.354
-137.429	800.000	-0.125	0.359
-136.414	-200.000	-0.084	-0.503
-135.399	-29.452	-0.102	-0.057
-134.385	34.244	-0.106	-0.091
-133.370	-34.206	0.104	0.056
-132.356	-14.886	-0.281	-0.177
-131.341	-1.773	0.266	-0.184
-130.326	800.000	0.076	0.239
-129.312	164.094	0.047	0.065
-128.297	800.000	0.019	-0.071
-127.283	328.855	-0.130	0.246
-126.268	404.615	-0.145	-0.301
-125.253	-200.000	0.045	0.273
-124.239	-200.000	-0.071	0.403
-123.224	-161.230	-0.354	-0.018
-122.210	-200.000	-0.007	-0.085
-121.195	256.654	0.247	0.417
-120.180	116.636	0.276	-0.333
-119.166	491.129	-0.049	-0.111
-118.151	-200.000	0.025	-0.169
-117.137	800.000	0.054	-0.178
-116.122	-137.218	0.069	-0.008
-115.107	800.000	-0.078	0.276
-114.093	-140.474	-0.225	0.023
-113.078	51.947	0.194	0.182
-112.064	16.148	-0.078	-0.061
-111.049	-158.843	-0.169	-0.010
-110.034	800.000	-0.032	-0.101
-109.020	58.371	0.121	0.117
-108.005	-57.384	0.198	-0.085
-106.991	-200.000	0.051	-0.334
-105.976	-74.737	0.238	0.084
-104.962	157.311	-0.195	0.265
-103.947	275.565	-0.144	0.252
-102.932	800.000	0.044	-0.132
-101.918	188.195	0.021	-0.031
-100.903	-46.920	0.247	0.119
-99.889	168.534	-0.174	0.243
-98.874	-74.390	0.136	0.048
-97.859	155.509	0.222	0.301
-96.845	349.473	-0.137	-0.267
-95.830	-147.167	0.376	-0.032
-94.816	98.502	-0.060	0.069
-93.801	-53.520	0.097	-0.044
-92.786	-83.343	0.479	0.151
-91.772	242.185	0.086	0.141
-90.757	318.335	0.200	0.373
-89.743	166.300	0.151	0.210
-88.728	117.916	-0.039	-0.047
-87.713	-123.370	-0.026	-0.004
-86.699	113.675	0.128	0.153
-85.684	-91.599	-0.250	-0.070
-84.670	-0.749	0.189	0.132
-83.655	-57.412	-0.225	-0.097
-82.640	-43.498	0.342	-0.170
-81.626	-200.000	-0.036	0.441
-80.611	-7.257	0.252	-0.168
-79.597	20.345	-0.239	-0.190
-78.582	-1.477	0.114	0.079
-77.567	800.000	-0.070	-0.248
-76.553	-20.000	0.272	-0.165
-75.538	17.842	0.382	0.299
-74.524	-200.000	-0.018	-0.084
-73.509	-66.853	-0.445	0.173
-72.494	116.868	0.218	-0.263
-71.480	585.708	0.135	-0.325
-70.465	-175.231	0.132	-0.004
-69.451	69.319	-0.101	0.102
-68.436	702.414	-0.064	-0.165
-67.422	290.324	0.192	-0.343
-66.407	207.186	0.060	-0.092
-65.392	213.330	0.094	0.146
-64.378	-1.350	-0.103	-0.071
-63.363	122.814	0.051	-0.063
-62.349	-115.987	-0.190	0.035
-61.334	59.540	-0.798	-0.773
-60.319	203.828	0.229	0.348
-59.305	206.315	-0.718	-1.098
-58.290	586.459	0.332	0.803
-57.276	545.256	0.641	1.503
-56.261	-200.000	96.392	574.672
-55.246	557.261	1376.617	3257.764
-54.232	160.458	2558.831	3504.635
-53.217	106.072	2266.277	2634.017
-52.203	42.079	1892.225	1686.151
-51.188	36.213	1682.615	1455.223
-50.173	33.453	1637.848	1396.144
-49.159	50.998	1684.325	1567.142
-48.144	52.637	1700.493	1594.358
-47.130	35.869	1660.822	1433.580
-46.115	33.007	1646.906	1400.337
-45.100	32.834	1641.555	1394.451
-44.086	32.825	1639.020	1392.175
-43.071	32.844	1635.862	1389.582
-42.057	32.673	1634.144	1386.807
-41.042	32.813	1631.844	1385.829
-40.027	32.781	1629.967	1383.942
-39.013	32.690	1628.379	1381.875
-37.998	32.719	1626.634	1380.547
-36.984	32.668	1625.949	1379.541
-35.969	32.828	1624.379	1379.324
-34.954	32.951	1622.427	1378.513
-33.940	32.842	1620.610	1376.118
-32.925	32.765	1619.113	1374.232
-31.911	32.798	1617.465	1373.016
-30.896	32.813	1615.705	1371.578
-29.881	32.768	1613.798	1369.579
-28.867	32.816	1612.037	1368.374
-27.852	32.856	1610.621	1367.407
-26.838	32.778	1609.242	1365.618
-25.823	32.873	1607.675	1364.925
-24.809	32.925	1606.088	1363.900
-23.794	32.879	1604.894	1362.496
-22.779	32.909	1603.553	1361.523
-21.765	32.826	1601.718	1359.309
-20.750	32.907	1600.057	1358.428
-19.736	32.918	1598.827	1357.409
-18.721	32.874	1597.348	1355.783
-17.706	32.908	1595.608	1354.497
-16.692	32.919	1594.253	1353.373
-15.677	32.915	1593.102	1352.311
-14.663	32.909	1591.874	1351.173
-13.648	32.926	1590.307	1349.915
-12.633	32.935	1588.484	1348.378
-11.619	32.916	1586.849	1346.802
-10.604	32.882	1585.307	1345.198
-9.590	32.931	1584.282	1344.625
-8.575	33.052	1582.967	1344.314
-7.560	32.942	1582.079	1342.724
-6.546	32.982	1580.315	1341.460
-5.531	32.855	1579.492	1339.807
-4.517	32.913	1578.498	1339.321
-3.502	32.899	1577.110	1337.986
-2.487	32.900	1575.732	1336.776
-1.473	32.588	1563.798	1324.404
-0.458	30.012	1544.365	1289.981
0.556	26.950	1545.175	1260.171
1.571	24.742	1568.650	1263.617
2.586	24.249	1582.406	1271.074
3.600	21.679	1529.507	1210.733
4.615	12.538	1418.841	1064.157
5.629	3.743	1352.824	960.096
6.644	2.185	1343.878	944.040
7.659	2.048	1342.879	942.405
8.673	2.060	1341.548	941.463
9.688	1.937	1339.695	939.325
10.702	1.673	1336.725	935.536
11.717	5.254	1343.882	962.556
12.731	15.418	1362.800	1039.260
13.746	23.937	1377.091	1103.139
14.761	26.300	1379.665	1119.768
15.775	26.438	1379.927	1120.738
16.790	26.629	1379.365	1121.360
17.804	26.505	1379.264	1120.411
18.819	26.909	1378.473	1122.167
19.834	26.985	1378.245	1122.356
20.848	26.943	1377.524	1121.409
21.863	27.033	1376.234	1120.814
22.877	27.026	1375.239	1119.860
23.892	27.004	1374.114	1118.713
24.907	27.095	1373.792	1118.910
25.921	27.054	1372.466	1117.478
26.936	26.979	1371.741	1116.333
27.950	26.990	1370.672	1115.429
28.965	26.997	1369.604	1114.503
29.980	27.068	1367.784	1113.362
30.994	27.021	1366.605	1112.015
32.009	27.026	1365.668	1111.185
33.023	26.905	1364.927	1109.742
34.038	26.977	1363.768	1109.140
35.053	27.006	1362.333	1108.057
36.067	26.948	1361.677	1107.065
37.082	27.033	1360.656	1106.655
38.096	27.004	1359.619	1105.541
39.111	27.004	1359.250	1105.139
40.126	26.944	1358.762	1104.279
41.140	26.938	1358.262	1103.745
42.155	27.058	1357.601	1103.837
43.169	26.954	1357.901	1103.348
44.184	27.025	1357.160	1103.084
45.199	27.084	1356.986	1103.203
46.213	27.018	1356.296	1102.144
47.228	27.019	1355.245	1101.194
48.242	26.953	1354.193	1099.845
49.257	26.946	1352.549	1098.369
50.271	26.960	1351.230	1097.284
51.286	26.993	1349.728	1096.166
52.301	26.879	1348.791	1094.624
53.315	26.956	1348.110	1094.439
54.330	26.844	1347.276	1092.991
55.344	27.015	1345.654	1092.605
56.359	26.970	1345.005	1091.712
57.374	26.927	1344.295	1090.779
58.388	27.002	1343.677	1090.631
59.403	26.912	1343.332	1089.714
60.417	27.086	1341.952	1089.543
61.432	27.004	1341.668	1088.723
62.447	26.798	1341.183	1087.001
63.461	26.965	1339.990	1086.937
64.476	26.950	1338.776	1085.768
65.490	26.979	1337.504	1084.813
66.505	27.018	1335.695	1083.480
67.520	26.890	1335.344	1082.336
68.534	26.932	1333.817	1081.255
69.549	27.039	1333.023	1081.153
70.563	27.090	1331.871	1080.427
71.578	26.993	1331.070	1079.102
72.593	26.836	1330.921	1077.951
73.607	26.915	1329.855	1077.466
74.622	26.985	1328.886	1077.000
75.636	26.911	1328.920	1076.490
76.651	26.977	1327.818	1075.897
77.666	26.987	1326.836	1075.062
78.680	26.982	1326.388	1074.575
79.695	26.951	1325.995	1073.980
80.709	27.072	1324.972	1073.768
81.724	26.853	1324.530	1072.024
82.739	26.966	1323.393	1071.674
83.753	27.004	1322.374	1070.980
84.768	26.928	1321.349	1069.608
85.782	27.004	1320.057	1068.913
86.797	27.083	1319.122	1068.526
87.812	27.033	1317.736	1067.017
88.826	26.894	1317.053	1065.552
89.841	26.980	1315.974	1065.090
90.855	27.084	1314.721	1064.592
91.870	27.085	1313.771	1063.731
92.884	27.068	1313.148	1063.033
93.899	27.054	1312.474	1062.312
94.914	26.967	1311.843	1061.201
95.928	27.062	1310.792	1060.811
96.943	27.037	1310.383	1060.242
97.957	27.051	1309.131	1059.214
98.972	27.114	1308.454	1058.942
99.987	27.071	1307.616	1057.917
101.001	27.035	1306.399	1056.629
102.016	27.013	1305.687	1055.831
103.030	27.015	1304.929	1055.136
104.045	27.012	1304.244	1054.475
105.060	27.068	1303.536	1054.131
106.074	27.045	1302.358	1052.954
107.089	27.069	1300.984	1051.889
108.103	27.041	1300.256	1051.042
109.118	27.148	1299.192	1050.712
110.133	27.079	1298.119	1049.349
111.147	27.130	1296.835	1048.516
112.162	27.123	1295.805	1047.552
113.176	27.086	1294.952	1046.555
114.191	27.226	1293.600	1046.173
115.206	27.137	1293.147	1045.201
116.220	27.124	1291.750	1043.909
117.235	27.137	1291.005	1043.288
118.249	27.038	1290.515	1042.231
119.264	27.041	1289.711	1041.505
120.279	27.185	1288.555	1041.306
121.293	27.225	1287.791	1040.824
122.308	27.319	1286.830	1040.494
123.322	27.236	1286.183	1039.401
124.337	27.236	1285.203	1038.523
125.352	27.223	1284.393	1037.702
126.366	27.146	1283.824	1036.708
127.381	27.178	1282.696	1035.889
128.395	27.056	1281.964	1034.512
129.410	27.271	1281.039	1034.897
130.424	27.213	1280.375	1033.937
131.439	27.300	1279.467	1033.609
132.454	27.171	1279.115	1032.499
133.468	27.231	1278.104	1031.935
134.483	27.221	1277.709	1031.466
135.497	27.174	1276.679	1030.278
136.512	27.087	1275.943	1029.098
137.527	27.045	1274.921	1027.946
138.541	27.240	1273.111	1027.498
139.556	27.194	1272.358	1026.537
140.570	27.234	1271.481	1025.968
141.585	27.168	1270.093	1024.386
142.600	27.134	1269.406	1023.549
143.614	27.178	1268.411	1022.902
144.629	27.172	1267.368	1021.934
145.643	27.101	1266.618	1020.840
146.658	27.051	1265.552	1019.613
147.673	27.094	1264.426	1018.857
148.687	27.103	1263.728	1018.254
149.702	27.120	1262.119	1016.965
150.716	27.102	1261.559	1016.319
151.731	27.194	1260.569	1015.950
152.746	27.137	1259.795	1014.917
153.760	27.154	1258.611	1013.965
154.775	27.174	1257.704	1013.257
155.789	27.156	1257.010	1012.510
156.804	27.265	1255.597	1011.889
157.819	27.198	1255.020	1010.961
158.833	27.338	1253.998	1010.827
159.848	27.300	1253.539	1010.158
160.862	27.318	1252.837	1009.601
161.877	27.251	1252.073	1008.526
162.892	27.279	1251.256	1007.929
163.906	27.226	1250.989	1007.334
164.921	27.197	1249.988	1006.278
165.935	27.232	1249.233	1005.776
166.950	27.284	1248.716	1005.558
167.964	27.197	1247.885	1004.320
168.979	27.252	1247.441	1004.177
169.994	27.286	1246.505	1003.522
171.008	27.277	1246.246	1003.174
172.023	27.316	1245.073	1002.355
173.037	27.230	1244.638	1001.445
174.052	27.176	1244.074	1000.603
175.067	27.332	1243.103	1000.589
176.081	27.292	1242.133	999.503
177.096	27.358	1240.922	998.804
178.110	27.272	1240.248	997.702
179.125	27.309	1239.555	997.254
180.140	27.378	1238.615	996.793
181.154	27.393	1237.330	995.749
182.169	27.284	1236.309	994.246
183.183	27.364	1235.540	993.976
184.198	27.350	1234.242	992.767
185.213	27.435	1233.330	992.408
186.227	27.366	1232.426	991.215
187.242	27.505	1231.511	991.152
188.256	27.480	1230.716	990.287
189.271	27.470	1229.944	989.522
190.286	27.455	1229.497	988.994
191.300	27.338	1229.257	988.081
192.315	27.351	1228.573	987.515
193.329	27.457	1228.272	987.758
194.344	27.461	1227.896	987.387
195.359	27.419	1227.332	986.623
196.373	27.473	1226.363	986.048
197.388	27.393	1226.086	985.303
198.402	27.289	1226.264	984.796
199.417	27.370	1225.601	984.615
200.432	27.338	1225.385	984.181
201.446	27.397	1224.464	983.673
202.461	27.368	1223.287	982.484
203.475	27.451	1222.479	982.197
204.490	27.434	1221.555	981.276
205.504	27.307	1221.132	980.163
206.519	27.437	1219.922	979.806
207.534	27.481	1219.030	979.238
208.548	27.334	1218.157	977.665
209.563	27.447	1217.395	977.573
210.577	27.424	1216.559	976.690
211.592	27.484	1215.818	976.328
212.607	27.539	1214.848	975.760
213.621	27.493	1214.056	974.791
214.636	27.555	1213.317	974.445
215.650	27.542	1212.884	973.942
216.665	27.521	1211.586	972.697
217.680	27.531	1210.548	971.831
218.694	27.593	1210.248	971.836
219.709	27.616	1209.580	971.338
220.723	27.608	1208.624	970.439
221.738	27.434	1208.173	969.068
222.753	27.374	1207.645	968.240
223.767	27.458	1206.854	967.964
224.782	27.634	1206.128	968.229
225.796	27.654	1205.216	967.520
226.811	27.590	1205.168	967.056
227.826	27.507	1204.608	966.082
228.840	27.660	1203.564	965.968
229.855	27.541	1203.363	965.092
230.869	27.562	1202.648	964.545
231.884	27.591	1201.724	963.872
232.899	27.586	1201.067	963.233
233.913	27.555	1200.470	962.504
234.928	27.737	1200.112	963.092
235.942	27.680	1199.713	962.386
236.957	27.627	1198.509	961.056
237.972	27.580	1198.111	960.407
238.986	27.590	1197.645	959.997
240.001	27.624	1197.335	959.845
241.015	27.833	1196.208	959.955
242.030	27.824	1195.004	958.857
243.045	27.781	1194.350	958.019
244.059	27.657	1194.106	957.089
245.074	27.829	1192.984	957.008
246.088	27.794	1192.144	956.066
247.103	27.795	1191.164	955.201
248.117	27.762	1190.603	954.492
249.132	27.777	1189.891	953.920
250.147	27.843	1189.259	953.673
251.161	27.744	1188.836	952.731
252.176	27.761	1188.072	952.123
253.190	27.927	1187.088	952.115
254.205	27.904	1186.737	951.632
255.220	27.818	1186.226	950.690
256.234	27.891	1185.628	950.505
257.249	28.033	1184.704	950.417
258.263	27.935	1184.176	949.398
259.278	27.944	1183.466	948.793
260.293	27.792	1183.430	947.892
261.307	27.988	1182.861	948.369
262.322	27.918	1181.920	947.167
263.336	27.931	1181.674	946.954
264.351	27.992	1180.946	946.601
265.366	27.932	1180.286	945.681
266.380	27.896	1179.454	944.742
267.395	27.854	1178.909	944.005
268.409	28.005	1178.289	944.205
269.424	27.826	1178.132	943.074
270.439	27.926	1177.167	942.732
271.453	27.968	1176.786	942.562
272.468	27.958	1175.910	941.725
273.482	27.861	1175.319	940.667
274.497	27.960	1174.770	940.655
275.512	28.055	1174.027	940.464
276.526	28.111	1173.209	940.013
277.541	28.125	1172.356	939.321
278.555	28.005	1172.124	938.435
279.570	27.981	1171.531	937.754
280.585	28.013	1170.546	937.048
281.599	28.116	1169.437	936.603
282.614	28.089	1168.818	935.887
283.628	28.050	1168.110	935.037
284.643	28.195	1166.920	934.742
285.657	28.047	1166.681	933.715
286.672	28.063	1165.550	932.804
287.687	28.090	1164.934	932.369
288.701	28.174	1164.145	932.083
289.716	28.197	1163.654	931.723
290.730	28.194	1162.504	930.707
291.745	28.251	1162.249	930.710
292.760	28.249	1161.578	930.078
293.774	28.191	1161.298	929.479
294.789	28.256	1160.240	928.877
295.803	28.240	1160.054	928.569
296.818	28.247	1159.861	928.367
297.833	28.301	1158.707	927.633
298.847	28.247	1158.220	926.887
299.862	28.189	1157.605	926.017
300.876	28.225	1156.923	925.576
301.891	28.315	1156.621	925.705
302.906	28.403	1155.363	925.064
303.920	28.361	1154.710	924.244
304.935	28.399	1154.262	923.995
305.949	28.399	1153.335	923.173
306.964	28.373	1153.061	922.739
307.979	28.364	1152.445	922.119
308.993	28.324	1151.970	921.459
310.008	28.371	1151.308	921.085
311.022	28.379	1150.450	920.357
312.037	28.360	1149.823	919.674
313.052	28.403	1148.639	918.865
314.066	28.354	1147.930	917.972
315.081	28.418	1147.202	917.624
316.095	28.395	1146.695	917.024
317.110	28.481	1146.072	916.873
318.125	28.486	1145.410	916.289
319.139	28.368	1144.988	915.282
320.154	28.491	1144.181	915.167
321.168	28.508	1143.429	914.573
322.183	28.465	1143.325	914.195
323.197	28.386	1143.058	913.503
324.212	28.385	1142.425	912.911
325.227	28.620	1141.494	913.260
326.241	28.557	1141.048	912.508
327.256	28.676	1140.206	912.345
328.270	28.493	1139.276	910.610
329.285	28.499	1139.032	910.364
330.300	28.435	1138.502	909.541
331.314	28.500	1137.224	908.764
332.329	28.524	1136.116	907.919
333.343	28.542	1135.833	907.700
334.358	28.591	1135.306	907.443
335.373	28.603	1134.647	906.893
336.387	28.655	1133.884	906.460
337.402	28.640	1132.932	905.544
338.416	28.773	1132.166	905.507
339.431	28.720	1131.344	904.511
340.446	28.810	1131.004	904.599
341.460	28.835	1130.052	903.882
342.475	28.792	1129.314	902.999
343.489	28.704	1128.852	902.120
344.504	28.713	1128.097	901.481
345.519	28.936	1126.662	901.347
346.533	28.736	1126.604	900.242
347.548	28.763	1125.905	899.734
348.562	28.856	1125.021	899.402
349.577	28.738	1124.755	898.535
350.592	28.699	1123.636	897.371
351.606	28.776	1123.106	897.242
352.621	28.850	1122.335	896.906
353.635	28.758	1122.004	896.117
354.650	28.840	1121.374	895.934
355.665	28.881	1120.453	895.318
356.679	28.982	1119.579	895.032
357.694	28.676	1120.077	893.860
358.708	28.879	1118.959	893.876
359.723	28.868	1117.937	892.927
360.738	28.887	1117.054	892.234
361.752	28.954	1116.921	892.373
362.767	28.826	1116.772	891.556
363.781	28.901	1115.911	891.154
364.796	28.991	1115.506	891.186
365.810	28.988	1114.423	890.231
366.825	29.000	1114.047	889.909
367.840	29.046	1113.753	889.818
368.854	29.041	1112.844	888.986
369.869	29.037	1112.640	888.727
370.883	29.148	1111.322	888.129
371.898	29.016	1110.842	887.034
372.913	29.068	1110.155	886.654
373.927	29.065	1110.030	886.463
374.942	29.263	1109.107	886.602
375.956	29.118	1108.399	885.256
376.971	29.219	1107.782	885.173
377.986	29.168	1107.649	884.744
379.000	29.156	1107.274	884.310
380.015	29.221	1106.414	883.856
381.029	29.086	1105.881	882.701
382.044	29.156	1105.492	882.647
383.059	29.358	1104.476	882.729
384.073	29.169	1104.258	881.572
385.088	29.234	1103.170	880.937
386.102	29.183	1102.553	880.123
387.117	29.202	1101.658	879.421
388.132	29.118	1100.853	878.299
389.146	29.254	1099.867	878.081
390.161	29.181	1099.904	877.684
391.175	29.295	1098.814	877.279
392.190	29.208	1098.362	876.427
393.205	29.246	1097.514	875.854
394.219	29.276	1096.840	875.380
395.234	29.350	1096.382	875.291
396.248	29.301	1095.154	874.002
397.263	29.361	1094.395	873.599
398.278	29.402	1093.926	873.342
399.292	29.451	1093.366	873.051
400.307	29.397	1092.787	872.255
401.321	29.393	1092.430	871.874
402.336	29.452	1091.427	871.278
403.350	29.385	1091.240	870.733
404.365	29.392	1090.371	869.997
405.380	29.490	1089.462	869.655
406.394	29.507	1088.601	868.972
407.409	29.574	1087.773	868.547
408.423	29.524	1087.247	867.818
409.438	29.541	1086.694	867.379
410.453	29.608	1085.912	866.990
411.467	29.600	1085.165	866.283
412.482	29.509	1084.792	865.480
413.496	29.604	1084.166	865.349
414.511	29.653	1083.138	864.683
415.526	29.641	1082.633	864.144
416.540	29.541	1082.380	863.397
417.555	29.556	1082.134	863.197
418.569	29.603	1081.626	862.936
419.584	29.708	1080.747	862.647
420.599	29.722	1080.256	862.244
421.613	104.288	1320.496	1456.707
422.628	96.974	1355.478	1456.820
