DTS Sentinel unit serial number:	SN413079Multiplexer serial number:	ORYXHardware model number:	OX4-SRSoftware version number:	ORYX F/W v4.00 Oryx Data Collector v3.7.2.0data status	okinstallation	princeton_trtdifferential loss correction	single-endedforward channel	channel 2reverse channel	N/Adate	2019/09/14time	21:55:34forward acquisition time	60.00reverse acquisition time	0.00gamma	496.2192k internal	0.2323k external	0.2323temperature offset calibration	1.0068default loss term (dB/km)	0.3790temperature slope calibration	1.0000multiplexer offset coefficient	1.0000multiplexer slope coefficient	1.0000fibre end	0.00T internal ref (°C)	32.69T ext. ref 1 (°C)	4.71T ext. ref 2 (°C)	27.69length (m)	temperature (°C)	Stokes	anti-Stokes-747.200	-123.933	0.138	0.022
-746.185	34.892	0.301	0.266
-745.171	130.750	0.218	0.282
-744.156	-200.000	0.015	0.070
-743.142	-200.000	-0.005	-0.103
-742.127	214.537	0.101	0.162
-741.112	800.000	0.068	0.192
-740.098	267.034	-0.154	0.272
-739.083	800.000	0.045	0.171
-738.069	187.343	0.242	0.364
-737.054	-109.922	-0.263	-0.056
-736.039	460.432	-0.038	-0.086
-735.025	-200.000	-0.010	-0.133
-734.010	294.804	-0.157	-0.290
-732.996	-74.338	-0.023	0.008
-731.981	118.960	-0.293	0.365
-730.966	-145.924	-0.187	-0.017
-729.952	118.251	0.062	0.077
-728.937	-148.697	-0.072	-0.006
-727.923	126.345	0.084	0.107
-726.908	10.664	-0.219	-0.169
-725.894	586.620	0.136	0.337
-724.879	-200.000	-0.015	-0.165
-723.864	-108.500	-0.066	-0.014
-722.850	61.054	0.120	-0.121
-721.835	-200.000	0.017	0.488
-720.821	-17.804	0.045	0.029
-719.806	120.429	0.110	0.138
-718.791	-141.528	0.099	-0.010
-717.777	-9.845	-0.179	0.121
-716.762	800.000	-0.065	0.273
-715.748	-116.048	-0.149	0.028
-714.733	83.830	-0.189	0.208
-713.718	-57.024	-0.302	-0.134
-712.704	135.704	0.224	-0.294
-711.689	-94.758	-0.262	0.072
-710.675	43.151	0.253	0.233
-709.660	-109.581	-0.048	0.010
-708.645	-15.615	-0.140	-0.090
-707.631	154.838	0.094	-0.130
-706.616	11.258	0.367	-0.283
-705.602	179.690	0.191	0.282
-704.587	-200.000	-0.022	-0.255
-703.572	-119.645	0.134	-0.023
-702.558	61.364	-0.147	-0.148
-701.543	-200.000	0.059	0.348
-700.529	-174.816	0.308	0.009
-699.514	-36.817	0.074	0.040
-698.499	358.091	0.162	-0.326
-697.485	-67.683	-0.113	-0.045
-696.470	-92.993	0.193	0.054
-695.456	800.000	-0.031	0.087
-694.441	-200.000	0.049	0.324
-693.426	-200.000	-0.022	0.144
-692.412	-37.004	0.040	-0.021
-691.397	-68.727	0.146	0.057
-690.383	200.736	-0.169	0.261
-689.368	-200.000	-0.007	-0.072
-688.354	-123.544	-0.258	0.041
-687.339	-125.225	0.498	-0.077
-686.324	110.871	-0.046	0.056
-685.310	-70.524	0.123	0.047
-684.295	-73.416	0.205	-0.075
-683.281	-144.040	0.054	-0.005
-682.266	800.000	-0.041	-0.178
-681.251	20.057	0.140	0.114
-680.237	-200.000	0.025	0.171
-679.222	-128.742	0.274	-0.039
-678.208	11.717	-0.217	0.168
-677.193	-24.927	0.154	-0.092
-676.178	12.641	-0.140	-0.109
-675.164	-49.471	-0.161	-0.077
-674.149	-58.137	0.178	-0.078
-673.135	-200.000	0.031	0.230
-672.120	-200.000	0.013	-0.150
-671.105	232.972	-0.211	0.349
-670.091	570.909	0.069	0.168
-669.076	-200.000	0.003	0.190
-668.062	-48.578	-0.185	0.090
-667.047	81.642	0.211	-0.230
-666.032	-116.632	-0.318	-0.059
-665.018	-29.416	0.139	0.080
-664.003	3.829	0.287	-0.211
-662.989	-200.000	0.035	-0.162
-661.974	-71.902	0.072	-0.027
-660.959	800.000	-0.023	-0.085
-659.945	-81.475	0.138	-0.046
-658.930	532.839	0.105	-0.249
-657.916	-131.993	-0.250	0.033
-656.901	800.000	0.139	-0.400
-655.886	20.051	-0.412	-0.334
-654.872	-200.000	-0.044	0.000
-653.857	-200.000	0.016	-0.150
-652.843	-200.000	-0.020	-0.155
-651.828	800.000	0.120	-0.391
-650.814	21.302	-0.076	-0.062
-649.799	-200.000	-0.021	0.207
-648.784	48.355	-0.265	0.249
-647.770	69.532	-0.064	0.066
-646.755	-74.879	-0.171	-0.062
-645.741	-27.291	0.247	0.145
-644.726	-152.064	0.173	-0.013
-643.711	-16.081	0.113	0.072
-642.697	-6.701	-0.012	-0.008
-641.682	800.000	0.091	-0.257
-640.668	-200.000	-0.054	-0.263
-639.653	800.000	-0.063	0.223
-638.638	33.380	0.213	0.186
-637.624	-200.000	-0.004	0.067
-636.609	132.451	-0.096	0.125
-635.595	55.501	-0.036	0.035
-634.580	309.517	-0.126	-0.237
-633.565	-75.003	-0.184	0.066
-632.551	-200.000	0.030	-0.323
-631.536	-200.000	0.028	-0.381
-630.522	-200.000	0.005	0.119
-629.507	-41.537	-0.219	0.113
-628.492	-154.270	0.327	-0.022
-627.478	-29.279	-0.107	0.062
-626.463	-111.532	-0.206	0.042
-625.449	-104.020	-0.121	0.028
-624.434	-138.401	0.159	0.018
-623.419	-27.751	0.380	-0.222
-622.405	-40.984	0.182	0.095
-621.390	21.776	-0.128	0.105
-620.376	-8.255	-0.136	-0.092
-619.361	-46.815	-0.230	-0.113
-618.346	-104.698	-0.087	-0.020
-617.332	-200.000	-0.009	-0.130
-616.317	-200.000	-0.081	0.383
-615.303	800.000	0.082	0.326
-614.288	11.364	-0.200	0.154
-613.273	-95.632	0.334	-0.090
-612.259	-200.000	0.004	-0.129
-611.244	-200.000	0.019	-0.199
-610.230	-76.323	0.262	0.093
-609.215	-182.942	-0.247	-0.004
-608.201	-200.000	0.020	-0.459
-607.186	74.040	0.177	0.186
-606.171	57.917	-0.146	0.144
-605.157	159.151	0.087	-0.121
-604.142	392.030	0.113	0.236
-603.128	-200.000	0.005	-0.047
-602.113	-47.750	0.194	-0.094
-601.098	-23.431	-0.231	-0.140
-600.084	298.127	-0.166	0.307
-599.069	-110.375	0.443	-0.092
-598.055	57.175	-0.222	0.218
-597.040	-160.451	-0.108	0.006
-596.025	18.995	0.162	-0.130
-595.011	-16.577	-0.274	0.175
-593.996	-200.000	-0.005	-0.131
-592.982	323.096	-0.090	-0.172
-591.967	229.535	0.099	-0.162
-590.952	-200.000	-0.020	-0.391
-589.938	800.000	-0.079	-0.283
-588.923	-117.725	0.246	-0.044
-587.909	303.362	0.077	-0.143
-586.894	173.175	-0.119	-0.172
-585.879	281.254	-0.125	-0.224
-584.865	580.483	-0.126	-0.309
-583.850	800.000	0.108	-0.380
-582.836	-0.600	0.181	0.129
-581.821	-106.547	-0.096	-0.022
-580.806	35.744	-0.217	-0.192
-579.792	155.193	0.102	0.141
-578.777	98.522	0.245	-0.284
-577.763	-135.963	0.036	0.004
-576.748	99.560	0.253	-0.294
-575.733	-10.286	-0.399	-0.266
-574.719	31.171	-0.012	-0.011
-573.704	517.631	-0.068	-0.159
-572.690	521.483	-0.157	0.369
-571.675	-166.861	-0.375	-0.015
-570.661	43.887	-0.285	-0.262
-569.646	-40.276	-0.261	0.136
-568.631	-150.160	0.265	-0.021
-567.617	-200.000	-0.011	-0.270
-566.602	800.000	-0.056	-0.209
-565.588	-117.790	-0.409	-0.074
-564.573	13.623	0.071	0.055
-563.558	133.976	-0.138	-0.179
-562.544	-54.666	-0.232	0.105
-561.529	-118.612	0.126	0.022
-560.515	63.317	0.126	0.126
-559.500	-3.112	-0.278	0.195
-558.485	74.944	-0.281	0.297
-557.471	134.129	0.079	-0.103
-556.456	-200.000	0.020	-0.203
-555.442	800.000	-0.017	0.050
-554.427	-200.000	0.124	-0.000
-553.412	31.958	0.080	-0.069
-552.398	-200.000	-0.067	0.452
-551.383	35.280	-0.154	-0.135
-550.369	64.477	-0.197	0.199
-549.354	-200.000	-0.019	-0.095
-548.339	-200.000	0.001	-0.119
-547.325	-101.023	-0.131	0.032
-546.310	-144.925	-0.141	0.013
-545.296	176.630	0.116	-0.169
-544.281	-108.215	-0.396	0.086
-543.266	107.320	0.120	-0.142
-542.252	-200.000	0.018	-0.331
-541.237	800.000	0.081	-0.238
-540.223	-27.311	0.158	0.092
-539.208	-90.468	-0.148	-0.043
-538.193	-92.789	-0.085	-0.024
-537.179	-178.239	0.287	0.007
-536.164	350.670	-0.088	0.174
-535.150	436.279	-0.116	-0.253
-534.135	574.169	0.019	-0.047
-533.121	173.102	0.145	-0.209
-532.106	-200.000	0.006	0.214
-531.091	94.079	-0.108	0.123
-530.077	-24.600	-0.181	-0.108
-529.062	-95.568	0.297	0.080
-528.048	-0.909	0.130	0.092
-527.033	-200.000	-0.003	0.075
-526.018	-66.046	0.504	0.202
-525.004	-50.457	0.027	-0.013
-523.989	358.455	0.099	-0.198
-522.975	25.673	0.095	0.079
-521.960	109.637	0.232	0.279
-520.945	-2.468	0.069	0.049
-519.931	153.047	-0.209	0.286
-518.916	-121.402	0.239	-0.040
-517.902	195.032	-0.221	0.336
-516.887	800.000	-0.046	0.181
-515.872	-200.000	-0.026	0.124
-514.858	-17.072	-0.094	-0.060
-513.843	-200.000	0.010	-0.149
-512.829	-179.573	0.126	0.003
-511.814	-200.000	0.028	0.204
-510.799	800.000	-0.033	0.104
-509.785	-200.000	0.017	-0.173
-508.770	800.000	-0.046	0.138
-507.756	-47.802	-0.350	0.170
-506.741	-200.000	-0.043	0.652
-505.726	800.000	0.042	-0.153
-504.712	-67.101	0.343	0.135
-503.697	288.703	0.195	-0.353
-502.683	235.282	0.095	0.157
-501.668	-47.679	0.064	-0.031
-500.653	-200.000	-0.058	0.357
-499.639	33.924	-0.243	-0.212
-498.624	-131.253	0.331	0.044
-497.610	-2.427	-0.273	-0.191
-496.595	-142.581	0.217	0.021
-495.581	-133.728	0.212	0.026
-494.566	-88.065	0.111	-0.033
-493.551	4.248	-0.213	0.156
-492.537	10.050	0.174	0.133
-491.522	-165.921	0.426	0.018
-490.508	19.920	0.303	-0.244
-489.493	-94.118	-0.158	0.043
-488.478	-159.067	-0.344	-0.019
-487.464	436.783	-0.075	0.163
-486.449	-23.731	-0.184	-0.110
-485.435	152.577	0.095	0.130
-484.420	-15.964	-0.070	-0.044
-483.405	-1.199	-0.232	-0.164
-482.391	-200.000	-0.024	-0.158
-481.376	-30.088	0.220	0.125
-480.362	195.742	-0.081	0.123
-479.347	111.664	-0.067	0.080
-478.332	-31.779	-0.065	-0.036
-477.318	-200.000	-0.010	-0.149
-476.303	-36.065	0.090	-0.049
-475.289	-113.051	0.240	0.047
-474.274	17.810	-0.090	0.072
-473.259	174.269	-0.109	-0.158
-472.245	-126.436	0.068	-0.010
-471.230	-72.873	-0.268	0.099
-470.216	-200.000	-0.029	-0.279
-469.201	-117.012	0.110	0.020
-468.186	-45.760	-0.086	-0.042
-467.172	-200.000	-0.080	-0.383
-466.157	-128.931	0.147	-0.021
-465.143	800.000	-0.053	-0.153
-464.128	407.272	-0.094	0.199
-463.113	95.210	-0.251	-0.285
-462.099	-154.887	0.386	-0.025
-461.084	223.493	0.135	0.218
-460.070	571.862	-0.032	0.078
-459.055	-200.000	-0.014	0.425
-458.040	148.921	-0.070	0.095
-457.026	-200.000	-0.018	-0.285
-456.011	88.876	0.070	0.078
-454.997	-200.000	-0.007	-0.266
-453.982	-200.000	0.016	-0.135
-452.968	-16.276	0.198	-0.126
-451.953	-147.207	0.205	-0.017
-450.938	-77.552	-0.126	0.044
-449.924	27.731	0.035	0.029
-448.909	-56.616	0.111	-0.049
-447.895	-111.548	-0.162	-0.033
-446.880	231.378	0.087	0.143
-445.865	-82.466	-0.241	-0.078
-444.851	260.737	0.151	-0.261
-443.836	-200.000	0.019	0.136
-442.822	-79.981	-0.389	-0.130
-441.807	214.805	0.013	0.020
-440.792	-25.298	-0.140	0.083
-439.778	-102.354	0.406	0.097
-438.763	-50.619	0.153	0.072
-437.749	-123.095	-0.150	-0.024
-436.734	800.000	0.052	-0.147
-435.719	-200.000	-0.041	-0.308
-434.705	61.602	0.138	-0.137
-433.690	-70.660	0.147	-0.056
-432.676	-152.029	0.122	-0.009
-431.661	-21.659	-0.148	-0.090
-430.646	21.679	0.125	-0.102
-429.632	124.829	0.086	-0.108
-428.617	-137.210	-0.198	-0.023
-427.603	161.077	0.110	0.154
-426.588	-35.964	-0.146	0.079
-425.573	0.801	-0.326	0.233
-424.559	249.380	0.090	0.152
-423.544	-104.406	-0.219	0.051
-422.530	800.000	0.054	0.157
-421.515	-70.318	0.304	0.115
-420.500	405.334	0.084	0.176
-419.486	-200.000	0.005	0.125
-418.471	-200.000	0.052	0.433
-417.457	132.350	-0.178	-0.228
-416.442	-33.740	0.462	0.254
-415.428	-0.876	0.176	0.125
-414.413	177.787	-0.106	0.155
-413.398	-200.000	0.015	0.218
-412.384	-126.720	-0.365	0.054
-411.369	337.110	-0.155	-0.301
-410.355	12.215	0.215	0.165
-409.340	495.095	-0.131	-0.301
-408.325	-200.000	-0.009	-0.132
-407.311	-82.308	0.147	-0.048
-406.296	270.393	0.225	-0.394
-405.282	423.369	-0.083	0.178
-404.267	-200.000	0.005	0.039
-403.252	149.481	-0.090	-0.122
-402.238	-200.000	0.043	0.288
-401.223	-8.693	-0.183	0.123
-400.209	-92.726	0.284	0.079
-399.194	-54.356	-0.237	-0.107
-398.179	-200.000	0.032	-0.422
-397.165	-169.808	-0.176	0.006
-396.150	-157.812	-0.181	0.011
-395.136	-84.301	0.317	-0.100
-394.121	-126.746	0.290	0.043
-393.106	800.000	0.047	0.151
-392.092	-178.124	-0.321	-0.008
-391.077	-200.000	-0.042	-0.215
-390.063	12.004	0.114	0.087
-389.048	52.675	-0.100	-0.095
-388.033	71.755	-0.073	0.076
-387.019	-200.000	-0.038	0.323
-386.004	-187.358	0.200	0.003
-384.990	-68.476	0.071	-0.027
-383.975	153.158	0.072	0.098
-382.960	-80.257	-0.186	-0.062
-381.946	-18.977	-0.485	-0.301
-380.931	90.676	-0.187	0.208
-379.917	-66.397	0.172	0.068
-378.902	214.382	0.184	0.290
-377.888	479.592	0.035	0.078
-376.873	-104.949	-0.100	-0.023
-375.858	-146.242	-0.149	0.013
-374.844	-200.000	-0.001	-0.241
-373.829	45.328	-0.175	0.161
-372.815	-31.723	0.236	0.132
-371.800	133.621	0.095	0.123
-370.785	73.149	-0.279	0.290
-369.771	19.108	-0.147	0.117
-368.756	-110.536	0.138	0.028
-367.742	-200.000	-0.011	0.065
-366.727	-13.198	0.109	-0.071
-365.712	-140.154	0.202	0.021
-364.698	264.479	-0.069	-0.120
-363.683	-118.898	0.181	-0.032
-362.669	289.907	0.097	0.176
-361.654	125.945	-0.209	-0.262
-360.639	-24.831	0.221	-0.130
-359.625	8.142	0.259	0.194
-358.610	-56.276	0.168	0.074
-357.596	-113.035	-0.294	0.058
-356.581	800.000	0.060	-0.225
-355.566	-184.895	-0.235	-0.004
-354.552	731.689	-0.108	0.288
-353.537	-24.019	-0.236	-0.140
-352.523	429.021	0.053	0.114
-351.508	188.464	-0.181	0.269
-350.493	800.000	-0.046	0.170
-349.479	410.835	-0.173	-0.365
-348.464	-54.858	0.416	-0.186
-347.450	-25.301	-0.101	0.059
-346.435	81.079	-0.164	0.176
-345.420	148.277	0.224	0.301
-344.406	216.925	-0.120	-0.189
-343.391	44.741	-0.152	0.139
-342.377	17.980	0.080	-0.064
-341.362	41.407	-0.070	0.063
-340.348	-101.896	-0.242	-0.058
-339.333	-32.991	0.065	-0.036
-338.318	-11.575	-0.106	0.069
-337.304	229.611	0.083	0.135
-336.289	502.753	0.098	-0.225
-335.275	205.506	0.101	0.156
-334.260	-200.000	0.027	-0.295
-333.245	-200.000	0.020	0.297
-332.231	447.890	0.030	0.065
-331.216	210.822	-0.113	0.177
-330.202	-47.613	-0.489	0.236
-329.187	-8.141	0.121	-0.081
-328.172	80.838	0.238	-0.256
-327.158	800.000	-0.009	-0.039
-326.143	173.841	-0.121	-0.173
-325.129	59.160	0.368	-0.360
-324.114	792.694	-0.125	0.341
-323.099	-32.291	-0.209	-0.116
-322.085	-200.000	0.037	-0.304
-321.070	-200.000	0.027	-0.127
-320.056	139.331	0.095	-0.125
-319.041	-62.290	-0.117	0.049
-318.026	-168.570	-0.112	0.004
-317.012	-200.000	0.005	-0.058
-315.997	-100.111	0.435	-0.108
-314.983	-200.000	-0.022	0.121
-313.968	104.062	0.016	0.018
-312.953	-162.047	-0.379	-0.019
-311.939	86.106	-0.225	0.246
-310.924	-35.961	0.231	0.124
-309.910	-139.408	-0.129	-0.014
-308.895	-90.741	-0.252	0.072
-307.880	-200.000	0.031	0.170
-306.866	-16.416	-0.142	0.089
-305.851	800.000	-0.028	0.096
-304.837	459.451	-0.086	0.191
-303.822	-41.803	0.329	0.167
-302.807	645.106	0.159	0.404
-301.793	-91.805	-0.267	-0.075
-300.778	-200.000	0.025	0.180
-299.764	-200.000	0.011	-0.050
-298.749	-114.048	0.287	-0.055
-297.735	-93.105	-0.113	0.031
-296.720	-2.797	0.090	0.062
-295.705	-47.327	-0.092	0.044
-294.691	-54.296	0.176	0.079
-293.676	57.080	0.080	0.077
-292.662	-200.000	-0.047	-0.468
-291.647	-51.237	0.165	0.077
-290.632	40.535	0.253	0.226
-289.618	62.914	-0.035	-0.034
-288.603	-200.000	-0.052	-0.250
-287.589	-200.000	-0.010	0.424
-286.574	-61.636	-0.022	0.009
-285.559	-41.007	0.112	0.057
-284.545	-100.299	-0.111	0.027
-283.530	292.484	-0.129	-0.232
-282.516	424.978	-0.160	-0.342
-281.501	17.727	-0.347	0.274
-280.486	688.306	0.119	0.309
-279.472	-88.010	-0.193	0.057
-278.457	52.414	0.337	-0.319
-277.443	-200.000	-0.036	-0.348
-276.428	-31.285	-0.242	0.135
-275.413	71.911	-0.083	0.085
-274.399	-48.413	-0.200	0.096
-273.384	-131.139	-0.262	0.035
-272.370	-200.000	-0.041	0.250
-271.355	50.845	-0.075	-0.070
-270.340	303.181	-0.174	-0.320
-269.326	-200.000	0.001	0.155
-268.311	787.764	0.055	0.149
-267.297	21.380	0.203	0.163
-266.282	55.394	0.187	-0.180
-265.267	111.739	0.119	0.142
-264.253	-25.030	0.188	0.110
-263.238	217.443	-0.041	-0.064
-262.224	14.845	0.283	-0.219
-261.209	189.385	0.092	-0.136
-260.195	-200.000	0.001	0.136
-259.180	-97.752	-0.101	-0.026
-258.165	800.000	0.052	0.154
-257.151	-76.831	-0.200	-0.069
-256.136	332.870	-0.223	-0.426
-255.122	77.367	-0.245	-0.259
-254.107	-40.345	0.448	0.231
-253.092	641.777	0.112	0.283
-252.078	107.529	-0.218	-0.257
-251.063	-49.132	-0.182	-0.086
-250.049	-53.495	0.340	-0.154
-249.034	41.910	0.242	-0.217
-248.019	167.365	-0.074	-0.104
-247.005	800.000	0.067	0.251
-245.990	-144.308	-0.495	-0.046
-244.976	104.883	0.091	0.106
-243.961	-16.958	0.098	-0.061
-242.946	176.765	-0.158	0.227
-241.932	-30.711	0.139	0.078
-240.917	-119.861	0.279	0.048
-239.903	-47.691	0.145	0.069
-238.888	-46.664	0.114	0.055
-237.873	-79.530	-0.405	-0.136
-236.859	-141.672	0.267	0.027
-235.844	800.000	0.020	-0.081
-234.830	130.026	0.219	-0.278
-233.815	-119.909	0.049	0.008
-232.800	800.000	0.027	-0.110
-231.786	74.162	-0.145	0.151
-230.771	566.196	-0.088	-0.212
-229.757	761.646	0.050	0.133
-228.742	364.045	0.117	0.234
-227.727	-179.461	0.252	-0.005
-226.713	-28.766	0.239	0.136
-225.698	-138.590	-0.367	-0.040
-224.684	-200.000	-0.046	0.234
-223.669	-47.042	0.435	0.210
-222.655	-200.000	-0.003	-0.243
-221.640	355.012	-0.140	-0.275
-220.625	-200.000	-0.000	-0.044
-219.611	-200.000	0.009	-0.119
-218.596	-12.126	0.091	-0.059
-217.582	-126.368	0.146	-0.021
-216.567	-87.541	-0.398	-0.119
-215.552	326.548	-0.099	0.188
-214.538	108.191	0.115	0.136
-213.523	43.485	-0.013	0.012
-212.509	67.884	-0.132	-0.134
-211.494	-90.301	-0.340	-0.098
-210.479	205.583	0.142	0.218
-209.465	411.168	0.059	0.123
-208.450	-42.941	-0.066	-0.033
-207.436	21.664	-0.059	0.047
-206.421	77.228	0.143	0.150
-205.406	800.000	0.015	-0.062
-204.392	-107.186	0.169	-0.037
-203.377	800.000	0.057	0.203
-202.363	800.000	0.092	0.267
-201.348	-200.000	-0.022	-0.098
-200.333	-45.244	0.223	0.109
-199.319	-102.969	0.164	0.039
-198.304	-25.267	-0.321	-0.188
-197.290	355.940	0.070	-0.138
-196.275	-127.712	0.238	-0.034
-195.260	-200.000	-0.035	-0.218
-194.246	-57.171	-0.197	0.086
-193.231	215.472	0.149	-0.234
-192.217	-87.717	0.261	-0.078
-191.202	800.000	-0.093	0.292
-190.187	55.933	0.339	0.325
-189.173	293.230	0.115	-0.208
-188.158	-200.000	0.052	-0.254
-187.144	-31.505	0.278	-0.155
-186.129	-200.000	0.011	0.084
-185.114	111.832	-0.238	0.284
-184.100	-149.750	-0.071	-0.006
-183.085	-119.090	0.486	0.084
-182.071	800.000	0.098	0.296
-181.056	-200.000	0.044	-0.218
-180.042	7.603	-0.355	0.262
-179.027	25.424	0.193	-0.159
-178.012	-200.000	0.027	-0.355
-176.998	-200.000	0.007	0.197
-175.983	38.372	0.122	-0.107
-174.969	-113.640	-0.187	-0.036
-173.954	187.843	0.149	-0.219
-172.939	90.533	-0.129	-0.143
-171.925	28.763	-0.105	0.088
-170.910	800.000	-0.018	-0.063
-169.896	116.284	0.106	-0.128
-168.881	-96.806	0.234	0.061
-167.866	-44.282	-0.062	-0.030
-166.852	766.844	0.080	0.214
-165.837	-124.125	0.104	-0.016
-164.823	1.825	0.288	0.205
-163.808	751.740	-0.189	-0.505
-162.793	-9.246	-0.032	-0.021
-161.779	639.096	-0.065	-0.164
-160.764	233.888	-0.118	-0.192
-159.750	362.940	-0.132	0.263
-158.735	-73.847	-0.050	0.018
-157.720	800.000	-0.040	0.145
-156.706	-113.271	-0.297	-0.058
-155.691	438.222	0.083	0.179
-154.677	-177.323	0.122	0.003
-153.662	-138.155	-0.040	0.004
-152.647	132.880	-0.232	-0.295
-151.633	-200.000	-0.015	-0.130
-150.618	-19.630	0.260	0.159
-149.604	-118.108	0.139	0.025
-148.589	642.608	-0.072	0.180
-147.574	-200.000	-0.030	0.170
-146.560	-200.000	0.024	0.319
-145.545	513.965	-0.148	0.341
-144.531	800.000	0.095	-0.281
-143.516	-200.000	-0.035	0.573
-142.502	568.191	-0.090	0.216
-141.487	-200.000	-0.005	0.168
-140.472	-200.000	0.022	-0.105
-139.458	29.146	0.225	-0.188
-138.443	-87.255	-0.114	0.034
-137.429	-111.723	0.189	0.038
-136.414	-7.604	0.231	0.154
-135.399	-14.022	0.123	0.078
-134.385	-200.000	-0.013	0.221
-133.370	800.000	-0.040	0.150
-132.356	-41.981	-0.034	-0.017
-131.341	442.529	-0.128	0.277
-130.326	-200.000	-0.031	-0.155
-129.312	800.000	0.153	0.569
-128.297	-50.854	0.135	0.062
-127.283	-200.000	-0.001	-0.330
-126.268	-200.000	0.034	-0.311
-125.253	63.592	-0.109	-0.108
-124.239	26.289	0.163	-0.134
-123.224	193.659	0.053	0.079
-122.210	-86.617	-0.073	0.022
-121.195	-96.942	0.638	0.165
-120.180	-53.963	0.142	-0.064
-119.166	-1.339	-0.098	0.068
-118.151	33.525	-0.293	0.250
-117.137	-2.922	0.154	0.106
-116.122	-28.147	0.081	-0.046
-115.107	-108.596	0.227	-0.048
-114.093	145.810	-0.143	0.190
-113.078	137.862	0.190	-0.245
-112.064	79.554	0.035	0.037
-111.049	-39.907	0.082	-0.042
-110.034	67.317	-0.102	0.102
-109.020	-65.553	0.222	0.088
-108.005	-177.805	-0.062	-0.001
-106.991	-24.127	-0.150	0.088
-105.976	124.505	0.056	0.069
-104.962	506.869	0.032	-0.073
-103.947	97.867	0.233	-0.265
-102.932	252.139	0.097	-0.163
-101.918	-200.000	0.047	0.214
-100.903	79.530	-0.166	-0.175
-99.889	30.677	0.126	0.106
-98.874	-117.088	-0.143	-0.026
-97.859	-111.581	0.078	-0.016
-96.845	800.000	0.117	0.415
-95.830	800.000	-0.016	0.060
-94.816	-120.258	-0.063	-0.011
-93.801	132.038	-0.150	-0.190
-92.786	213.565	0.087	0.135
-91.772	-117.290	-0.301	-0.054
-90.757	-24.495	0.414	-0.243
-89.743	800.000	0.031	0.108
-88.728	800.000	-0.074	-0.206
-87.713	-200.000	0.083	0.640
-86.699	-36.390	-0.452	0.240
-85.684	-200.000	0.005	0.390
-84.670	9.022	0.100	0.074
-83.655	-200.000	-0.019	-0.350
-82.640	204.771	0.253	-0.387
-81.626	108.248	0.055	-0.064
-80.611	-200.000	-0.028	-0.140
-79.597	181.247	-0.150	0.217
-78.582	399.377	0.134	0.276
-77.567	-200.000	-0.069	-0.459
-76.553	800.000	-0.070	-0.266
-75.538	98.040	-0.153	0.173
-74.524	-200.000	0.074	-0.326
-73.509	-149.157	-0.258	-0.020
-72.494	60.300	0.187	-0.182
-71.480	-91.144	-0.110	0.031
-70.465	-4.646	0.234	0.159
-69.451	387.935	-0.098	0.199
-68.436	267.326	-0.149	0.256
-67.422	-71.027	0.274	-0.101
-66.407	277.812	-0.149	-0.260
-65.392	46.031	0.191	0.174
-64.378	-58.185	0.164	0.070
-63.363	47.827	0.162	0.149
-62.349	-200.000	0.000	0.213
-61.334	64.787	-0.981	-0.973
-60.319	237.143	0.452	0.736
-59.305	800.000	-0.291	-1.116
-58.290	37.333	0.796	0.694
-57.276	800.000	0.561	1.754
-56.261	-200.000	94.748	569.352
-55.246	653.685	1371.432	3458.793
-54.232	198.592	2553.062	3841.339
-53.217	113.247	2268.439	2705.395
-52.203	42.111	1895.147	1691.538
-51.188	35.922	1685.723	1457.874
-50.173	33.271	1640.473	1399.110
-49.159	50.593	1686.278	1568.284
-48.144	52.124	1703.394	1595.616
-47.130	35.615	1664.157	1436.696
-46.115	32.771	1650.459	1403.686
-45.100	32.709	1645.029	1398.555
-44.086	32.614	1642.033	1395.244
-43.071	32.629	1639.378	1393.047
-42.057	32.585	1637.354	1390.947
-41.042	32.569	1635.475	1389.178
-40.027	32.562	1633.288	1387.212
-39.013	32.481	1631.205	1384.790
-37.998	32.541	1630.398	1384.491
-36.984	32.497	1628.964	1382.898
-35.969	32.595	1627.659	1382.450
-34.954	32.659	1625.552	1381.076
-33.940	32.741	1623.701	1380.051
-32.925	32.700	1622.028	1378.274
-31.911	32.714	1620.228	1376.794
-30.896	32.697	1618.457	1375.109
-29.881	32.601	1617.038	1373.146
-28.867	32.703	1615.221	1372.292
-27.852	32.722	1613.679	1371.069
-26.838	32.660	1612.432	1369.505
-25.823	32.675	1611.306	1368.603
-24.809	32.710	1609.490	1367.258
-23.794	32.667	1608.130	1365.737
-22.779	32.705	1606.561	1364.624
-21.765	32.736	1604.747	1363.254
-20.750	32.669	1603.267	1361.461
-19.736	32.727	1601.995	1360.741
-18.721	32.748	1600.242	1359.354
-17.706	32.775	1598.952	1358.395
-16.692	32.711	1597.382	1356.552
-15.677	32.767	1596.267	1355.950
-14.663	32.710	1594.899	1354.326
-13.648	32.747	1593.290	1353.174
-12.633	32.714	1592.316	1352.054
-11.619	32.796	1590.048	1350.658
-10.604	32.688	1589.082	1349.013
-9.590	32.705	1587.540	1347.776
-8.575	32.805	1586.203	1347.302
-7.560	32.819	1585.104	1346.410
-6.546	32.791	1584.005	1345.224
-5.531	32.642	1582.948	1343.209
-4.517	32.705	1581.581	1342.444
-3.502	32.742	1580.648	1341.868
-2.487	32.811	1579.032	1340.928
-1.473	32.475	1567.719	1328.899
-0.458	29.741	1548.709	1293.637
0.556	26.175	1548.836	1262.052
1.571	23.791	1572.678	1264.424
2.586	23.235	1585.911	1270.963
3.600	20.673	1532.626	1210.348
4.615	12.592	1424.013	1072.031
5.629	5.903	1361.395	983.016
6.644	4.805	1353.424	970.335
7.659	4.650	1352.599	968.693
8.673	4.650	1351.221	967.617
9.688	4.746	1349.416	966.836
10.702	4.554	1346.670	963.595
11.717	7.646	1352.578	986.965
12.731	15.245	1366.194	1044.326
13.746	19.838	1372.922	1078.065
14.761	19.535	1370.798	1074.421
15.775	18.397	1368.493	1065.440
16.790	17.345	1366.027	1056.892
17.804	16.649	1363.537	1050.555
18.819	16.189	1362.167	1046.557
19.834	15.913	1361.066	1043.904
20.848	15.687	1359.348	1041.098
21.863	15.430	1358.649	1038.880
22.877	15.426	1357.404	1037.807
23.892	15.404	1356.344	1036.768
24.907	15.297	1355.707	1035.531
25.921	15.264	1354.854	1034.586
26.936	15.410	1353.659	1034.482
27.950	15.373	1352.987	1033.651
28.965	15.415	1352.372	1033.345
29.980	15.538	1351.231	1033.140
30.994	15.749	1349.621	1033.111
32.009	15.719	1348.177	1031.733
33.023	15.649	1347.081	1030.375
34.038	15.605	1345.732	1028.982
35.053	15.488	1344.732	1027.411
36.067	15.424	1344.056	1026.412
37.082	15.632	1342.386	1026.314
38.096	15.531	1341.780	1025.146
39.111	15.565	1341.333	1024.919
40.126	15.509	1339.815	1023.327
41.140	15.396	1338.841	1021.805
42.155	15.232	1339.062	1020.882
43.169	15.262	1338.253	1020.360
44.184	15.173	1337.951	1019.497
45.199	15.260	1337.622	1019.683
46.213	15.406	1337.127	1020.107
47.228	15.500	1336.323	1019.971
48.242	15.479	1335.208	1018.904
49.257	15.525	1333.510	1017.797
50.271	15.547	1332.134	1016.790
51.286	15.446	1331.269	1015.427
52.301	15.393	1330.015	1014.059
53.315	15.388	1328.190	1012.549
54.330	15.215	1328.003	1011.274
55.344	15.241	1326.465	1010.171
56.359	15.327	1325.270	1009.692
57.374	15.341	1324.469	1009.075
58.388	15.184	1323.992	1007.677
59.403	15.222	1323.179	1007.195
60.417	15.203	1322.647	1006.586
61.432	15.087	1321.522	1004.949
62.447	15.141	1320.822	1004.647
63.461	15.068	1319.369	1003.016
64.476	15.014	1318.906	1002.254
65.490	15.154	1317.054	1001.596
66.505	15.145	1315.423	1000.211
67.520	15.139	1314.704	999.541
68.534	15.169	1313.690	998.860
69.549	15.160	1312.401	997.742
70.563	15.079	1311.562	996.532
71.578	15.037	1310.508	995.392
72.593	14.848	1310.037	993.825
73.607	14.941	1308.868	993.399
74.622	14.978	1307.892	992.790
75.636	15.033	1307.373	992.637
76.651	14.961	1306.668	991.589
77.666	15.014	1306.369	991.586
78.680	15.085	1305.281	991.092
79.695	15.074	1304.926	990.667
80.709	15.157	1304.424	990.690
81.724	15.181	1303.483	990.032
82.739	15.355	1302.057	989.888
83.753	15.257	1301.908	989.106
84.768	15.459	1300.650	989.258
85.782	15.508	1299.695	988.732
86.797	15.559	1298.196	987.805
87.812	15.477	1296.829	986.195
88.826	15.392	1295.992	984.973
89.841	15.341	1295.334	984.083
90.855	15.484	1293.989	983.813
91.870	15.503	1292.980	983.073
92.884	15.575	1292.357	982.931
93.899	15.550	1291.712	982.205
94.914	15.633	1290.828	981.934
95.928	15.636	1290.370	981.513
96.943	15.509	1289.317	979.886
97.957	15.595	1288.245	979.487
98.972	15.504	1287.293	978.148
99.987	15.519	1285.834	977.040
101.001	15.413	1285.290	975.924
102.016	15.522	1284.042	975.523
103.030	15.518	1283.291	974.841
104.045	15.497	1282.396	973.955
105.060	15.527	1280.900	972.902
106.074	15.349	1279.512	970.736
107.089	15.253	1277.663	968.692
108.103	15.127	1277.099	967.450
109.118	15.216	1275.668	966.792
110.133	15.292	1274.346	966.143
111.147	15.119	1273.212	964.204
112.162	15.187	1271.759	963.408
113.176	15.276	1271.058	963.304
114.191	15.177	1270.235	962.028
115.206	15.252	1269.087	961.499
116.220	15.252	1267.783	960.430
117.235	15.268	1266.622	959.555
118.249	15.250	1265.363	958.413
119.264	15.320	1264.473	958.055
120.279	15.252	1263.605	956.926
121.293	15.139	1262.320	955.225
122.308	15.217	1261.342	954.843
123.322	15.143	1260.182	953.460
124.337	15.130	1259.015	952.418
125.352	15.169	1258.074	951.845
126.366	15.206	1257.119	951.249
127.381	15.167	1256.284	950.312
128.395	15.100	1255.654	949.369
129.410	15.174	1254.120	948.545
130.424	15.186	1253.363	947.957
131.439	15.276	1252.491	947.719
132.454	15.270	1251.570	946.906
133.468	15.266	1250.633	946.088
134.483	15.456	1249.753	946.411
135.497	15.312	1249.003	944.950
136.512	15.332	1248.024	944.238
137.527	15.301	1246.458	942.795
138.541	15.327	1245.352	942.023
139.556	15.453	1243.672	941.371
140.570	15.496	1242.675	940.777
141.585	15.535	1241.786	940.237
142.600	15.521	1240.886	939.396
143.614	15.558	1240.068	938.902
144.629	15.575	1238.686	937.864
145.643	15.588	1237.348	936.842
146.658	15.493	1236.241	935.393
147.673	15.442	1234.851	933.973
148.687	15.461	1233.768	933.178
149.702	15.380	1232.752	931.874
150.716	15.297	1231.493	930.381
151.731	15.299	1230.284	929.399
152.746	15.359	1229.041	928.709
153.760	15.399	1228.032	928.085
154.775	15.588	1226.633	927.991
155.789	15.594	1226.018	927.474
156.804	15.564	1225.208	926.616
157.819	15.520	1223.922	925.317
158.833	15.532	1223.011	924.617
159.848	15.766	1221.934	925.003
160.862	15.672	1221.160	923.821
161.877	15.579	1219.715	922.133
162.892	15.377	1219.292	920.627
163.906	15.412	1217.886	919.673
164.921	15.542	1217.115	919.725
165.935	15.460	1216.299	918.578
166.950	15.669	1215.171	918.784
167.964	15.617	1214.638	918.013
168.979	15.525	1214.276	917.157
169.994	15.552	1213.106	916.343
171.008	15.582	1212.641	916.071
172.023	15.734	1211.793	916.181
173.037	15.729	1211.178	915.608
174.052	15.733	1210.349	914.919
175.067	15.535	1209.371	913.025
176.081	15.540	1208.226	912.107
177.096	15.605	1207.544	911.863
178.110	15.684	1205.949	911.005
179.125	15.459	1205.250	909.176
180.140	15.604	1203.984	908.929
181.154	15.627	1202.426	907.793
182.169	15.647	1201.700	907.273
183.183	15.842	1200.474	907.321
184.198	15.872	1199.020	906.303
185.213	15.775	1198.285	905.147
186.227	15.830	1196.895	904.309
187.242	15.926	1196.009	904.077
188.256	15.913	1195.084	903.228
189.271	15.912	1194.233	902.499
190.286	15.769	1193.233	900.898
191.300	15.626	1192.176	899.254
192.315	15.547	1191.732	898.417
193.329	15.629	1190.749	898.037
194.344	15.496	1190.213	896.843
195.359	15.743	1189.365	897.441
196.373	15.691	1189.147	896.923
197.388	15.796	1189.340	897.548
198.402	15.963	1188.577	897.779
199.417	16.036	1187.858	897.546
200.432	16.137	1187.009	897.364
201.446	16.145	1185.924	896.504
202.461	16.228	1185.185	896.310
203.475	16.326	1183.964	895.826
204.490	16.131	1182.573	893.663
205.504	16.034	1181.732	892.432
206.519	16.049	1180.883	891.794
207.534	16.082	1179.127	890.562
208.548	15.975	1178.728	889.618
209.563	16.074	1177.551	889.174
210.577	16.038	1177.444	888.824
211.592	16.138	1176.470	888.536
212.607	16.266	1175.293	888.244
213.621	16.200	1174.362	887.112
214.636	16.146	1173.869	886.379
215.650	16.188	1172.609	885.568
216.665	16.290	1171.641	885.295
217.680	16.353	1170.521	884.701
218.694	16.386	1170.243	884.586
219.709	16.431	1169.428	884.124
220.723	16.454	1168.275	883.295
221.738	16.334	1167.990	882.377
222.753	16.409	1166.998	881.941
223.767	16.404	1166.515	881.469
224.782	16.391	1166.218	881.101
225.796	16.460	1165.621	880.931
226.811	16.498	1164.453	880.167
227.826	16.355	1163.955	878.967
228.840	16.329	1163.146	878.145
229.855	16.354	1162.723	877.876
230.869	16.359	1161.841	877.159
231.884	16.411	1160.490	876.331
232.899	16.312	1159.934	875.319
233.913	16.234	1159.607	874.593
234.928	16.213	1158.914	873.886
235.942	16.367	1157.548	873.574
236.957	16.228	1157.089	872.431
237.972	16.210	1156.430	871.764
238.986	16.326	1155.507	871.589
240.001	16.211	1155.107	870.618
241.015	16.293	1154.026	870.151
242.030	16.361	1153.558	870.067
243.045	16.428	1152.903	869.843
244.059	16.425	1152.375	869.352
245.074	16.437	1151.111	868.383
246.088	16.534	1150.225	868.139
247.103	16.615	1149.368	867.826
248.117	16.697	1148.910	867.825
249.132	16.696	1148.347	867.319
250.147	16.792	1147.409	867.027
251.161	16.967	1146.784	867.373
252.176	16.925	1146.235	866.665
253.190	16.925	1145.844	866.292
254.205	16.975	1145.219	866.001
255.220	17.057	1144.577	865.853
256.234	17.033	1143.650	864.954
257.249	16.990	1143.089	864.236
258.263	17.090	1142.330	864.092
259.278	17.058	1141.835	863.477
260.293	17.055	1141.406	863.064
261.307	17.138	1140.820	862.967
262.322	17.131	1140.268	862.437
263.336	17.180	1139.584	862.091
264.351	17.166	1139.353	861.767
265.366	17.078	1138.407	860.532
266.380	17.200	1137.283	860.220
267.395	17.138	1136.569	859.292
268.409	17.154	1135.664	858.612
269.424	17.115	1135.022	857.854
270.439	17.087	1134.764	857.442
271.453	17.082	1133.655	856.506
272.468	17.027	1133.092	855.724
273.482	16.970	1132.490	854.910
274.497	17.154	1131.326	854.881
275.512	17.193	1130.781	854.591
276.526	17.118	1130.191	853.690
277.541	17.129	1129.387	853.064
278.555	17.200	1129.014	853.060
279.570	17.252	1128.204	852.637
280.585	17.358	1127.362	852.453
281.599	17.244	1126.630	851.253
282.614	17.204	1125.633	850.225
283.628	17.234	1123.872	848.969
284.643	17.199	1123.226	848.232
285.657	17.309	1122.254	847.974
286.672	17.223	1121.790	847.119
287.687	17.288	1120.559	846.436
288.701	17.362	1119.896	846.230
289.716	17.418	1119.107	845.837
290.730	17.431	1118.346	845.253
291.745	17.317	1117.651	844.086
292.760	17.493	1116.898	844.314
293.774	17.413	1116.870	843.820
294.789	17.558	1116.313	844.046
295.803	17.559	1115.347	843.243
296.818	17.391	1114.912	842.012
297.833	17.464	1113.709	841.387
298.847	17.399	1112.855	840.347
299.862	17.357	1112.727	839.971
300.876	17.485	1111.330	839.472
301.891	17.495	1111.282	839.408
302.906	17.550	1110.684	839.153
303.920	17.614	1109.655	838.621
304.935	17.666	1109.398	838.607
305.949	17.721	1108.576	838.180
306.964	17.834	1108.171	838.354
307.979	17.615	1107.496	836.693
308.993	17.698	1106.277	836.108
310.008	17.786	1105.363	835.772
311.022	17.758	1104.996	835.288
312.037	17.699	1104.069	834.223
313.052	17.802	1103.048	833.880
314.066	17.692	1101.505	832.103
315.081	17.559	1101.037	831.028
316.095	17.611	1100.175	830.557
317.110	17.546	1099.965	830.008
318.125	17.670	1099.052	829.848
319.139	17.575	1098.284	828.736
320.154	17.436	1098.361	828.043
321.168	17.659	1097.225	828.195
322.183	17.649	1096.222	827.316
323.197	17.659	1096.087	827.191
324.212	17.717	1095.120	826.668
325.227	17.827	1094.569	826.715
326.241	17.635	1094.496	825.656
327.256	17.679	1093.448	825.006
328.270	17.657	1092.623	824.200
329.285	17.792	1091.214	823.716
330.300	17.679	1090.593	822.632
331.314	17.692	1089.644	821.905
332.329	17.733	1088.820	821.410
333.343	17.731	1087.758	820.527
334.358	17.756	1087.117	820.089
335.373	17.851	1086.285	819.844
336.387	17.835	1086.356	819.752
337.402	17.859	1085.333	819.021
338.416	18.041	1084.331	819.065
339.431	17.968	1084.124	818.484
340.446	17.976	1083.537	818.009
341.460	18.068	1083.048	818.007
342.475	18.236	1081.937	817.897
343.489	18.242	1081.036	817.175
344.504	18.195	1079.924	816.038
345.519	18.251	1079.058	815.578
346.533	18.335	1078.360	815.376
347.548	18.438	1077.746	815.330
348.562	18.361	1076.439	813.905
349.577	18.228	1075.966	812.843
350.592	18.140	1075.633	812.101
351.606	18.195	1074.444	811.392
352.621	18.128	1073.516	810.302
353.635	18.125	1072.901	809.753
354.650	18.046	1072.653	809.121
355.665	18.205	1071.756	809.121
356.679	18.204	1070.892	808.394
357.694	18.146	1071.263	808.329
358.708	18.305	1070.054	808.099
359.723	18.154	1069.861	807.165
360.738	18.242	1068.455	806.447
361.752	18.257	1068.170	806.231
362.767	18.381	1067.505	806.243
363.781	18.348	1067.115	805.722
364.796	18.329	1066.649	805.211
365.810	18.532	1065.657	805.344
366.825	18.463	1065.434	804.779
367.840	18.575	1065.170	805.035
368.854	18.624	1064.415	804.620
369.869	18.714	1063.276	804.110
370.883	18.475	1062.960	802.680
371.898	18.430	1062.010	801.682
372.913	18.408	1061.599	801.201
373.927	18.621	1061.000	801.671
374.942	18.571	1060.565	801.041
375.956	18.666	1060.163	801.109
376.971	18.594	1059.444	800.159
377.986	18.702	1058.621	799.971
379.000	18.705	1058.181	799.581
380.015	18.828	1057.463	799.540
381.029	18.794	1057.331	799.212
382.044	18.948	1056.012	798.857
383.059	18.813	1055.193	797.539
384.073	18.815	1054.621	797.046
385.088	18.792	1053.846	796.285
386.102	18.800	1052.940	795.566
387.117	18.790	1052.238	794.920
388.132	18.762	1051.144	793.893
389.146	18.615	1050.537	792.684
390.161	18.737	1049.190	792.163
391.175	18.754	1048.762	791.848
392.190	18.846	1047.955	791.592
393.205	18.919	1047.231	791.308
394.219	18.882	1046.698	790.666
395.234	18.811	1046.195	789.890
396.248	18.853	1044.499	788.735
397.263	18.900	1043.615	788.213
398.278	18.822	1043.331	787.569
399.292	18.679	1042.437	786.170
400.307	18.786	1041.435	785.834
401.321	18.844	1041.087	785.767
402.336	18.754	1040.621	784.935
403.350	18.757	1039.788	784.252
404.365	18.783	1039.300	783.933
405.380	18.868	1038.396	783.566
406.394	18.883	1037.787	783.109
407.409	18.967	1037.244	783.012
408.423	19.101	1036.331	782.862
409.438	19.239	1035.444	782.751
410.453	19.221	1035.147	782.376
411.467	19.186	1034.595	781.731
412.482	19.242	1033.851	781.352
413.496	19.201	1033.002	780.456
414.511	19.359	1032.540	780.752
415.526	19.362	1032.201	780.439
416.540	19.292	1031.764	779.727
417.555	19.317	1031.234	779.369
418.569	19.322	1030.689	778.909
419.584	19.412	1030.266	778.929
420.599	19.307	1029.779	778.017
421.613	151.310	1401.240	1794.241
422.628	138.042	1455.341	1794.371
