DTS Sentinel unit serial number:	SN413079Multiplexer serial number:	ORYXHardware model number:	OX4-SRSoftware version number:	ORYX F/W v4.00 Oryx Data Collector v3.7.2.0data status	okinstallation	princeton_trtdifferential loss correction	single-endedforward channel	channel 2reverse channel	N/Adate	2019/09/12time	09:21:11forward acquisition time	60.00reverse acquisition time	0.00gamma	496.2192k internal	0.2316k external	0.2316temperature offset calibration	1.0060default loss term (dB/km)	0.3790temperature slope calibration	1.0000multiplexer offset coefficient	1.0000multiplexer slope coefficient	1.0000fibre end	0.00T internal ref (°C)	35.09T ext. ref 1 (°C)	1.80T ext. ref 2 (°C)	33.59length (m)	temperature (°C)	Stokes	anti-Stokes-747.200	5.150	-0.242	0.181
-746.185	-200.000	0.036	0.259
-745.171	134.753	0.119	0.157
-744.156	800.000	-0.069	0.267
-743.142	123.686	-0.147	0.187
-742.127	323.796	-0.159	0.306
-741.112	17.548	0.207	-0.167
-740.098	-200.000	-0.006	0.077
-739.083	-28.199	0.181	-0.106
-738.069	110.033	0.064	0.078
-737.054	511.965	0.140	0.330
-736.039	-101.085	-0.374	-0.093
-735.025	-109.210	0.117	-0.025
-734.010	155.431	-0.090	-0.126
-732.996	800.000	-0.162	-0.480
-731.981	59.576	0.164	-0.164
-730.966	-200.000	-0.017	0.191
-729.952	23.706	-0.214	0.178
-728.937	33.094	0.088	-0.077
-727.923	559.975	-0.082	-0.202
-726.908	52.856	0.101	-0.097
-725.894	800.000	0.031	-0.109
-724.879	-137.279	0.500	0.058
-723.864	-57.669	-0.047	0.021
-722.850	-9.485	-0.152	-0.102
-721.835	-83.800	-0.155	-0.050
-720.821	-200.000	0.036	-0.197
-719.806	800.000	0.083	-0.252
-718.791	-143.757	-0.242	0.023
-717.777	-83.053	-0.392	-0.128
-716.762	-64.335	0.342	-0.141
-715.748	-200.000	-0.001	-0.154
-714.733	280.129	-0.105	-0.190
-713.718	-22.906	-0.075	0.046
-712.704	169.598	0.054	-0.078
-711.689	67.465	-0.102	-0.105
-710.675	-183.997	0.290	0.005
-709.660	8.074	-0.239	0.181
-708.645	-99.296	-0.036	0.009
-707.631	800.000	0.038	-0.116
-706.616	-89.477	0.237	-0.070
-705.602	-142.163	-0.521	0.052
-704.587	-200.000	-0.049	0.253
-703.572	24.427	-0.263	0.220
-702.558	-200.000	0.029	0.238
-701.543	-200.000	-0.081	-0.363
-700.529	288.285	0.114	-0.209
-699.514	371.274	0.141	-0.290
-698.499	-200.000	0.017	-0.242
-697.485	187.325	0.097	-0.146
-696.470	40.851	-0.200	-0.182
-695.456	-182.255	0.138	-0.003
-694.441	-1.378	0.217	0.155
-693.426	1.002	0.320	0.232
-692.412	113.805	0.154	0.189
-691.397	-46.328	-0.069	-0.034
-690.383	29.397	-0.201	0.172
-689.368	-104.198	-0.320	-0.075
-688.354	-154.589	-0.255	-0.017
-687.339	-200.000	0.045	-0.246
-686.324	-44.054	0.021	-0.011
-685.310	-138.384	0.261	0.029
-684.295	279.903	-0.037	0.068
-683.281	-70.469	-0.309	-0.118
-682.266	-118.835	-0.400	-0.071
-681.251	800.000	-0.162	0.484
-680.237	-126.628	-0.076	-0.011
-679.222	735.046	0.074	0.200
-678.208	-17.445	-0.252	0.160
-677.193	-32.363	0.085	-0.048
-676.178	-200.000	-0.004	0.218
-675.164	13.321	-0.135	0.106
-674.149	-96.085	-0.315	-0.084
-673.135	122.840	-0.261	-0.330
-672.120	-0.176	0.153	-0.110
-671.105	800.000	-0.053	0.210
-670.091	800.000	-0.096	-0.271
-669.076	800.000	0.068	-0.200
-668.062	-105.498	-0.284	0.065
-667.047	-163.324	0.066	0.003
-666.032	61.578	-0.152	-0.153
-665.018	-10.326	0.162	-0.108
-664.003	558.656	-0.098	0.238
-662.989	-144.993	0.220	0.020
-661.974	6.536	-0.251	0.189
-660.959	800.000	0.010	0.032
-659.945	270.604	0.080	-0.141
-658.930	-30.113	-0.157	0.090
-657.916	31.866	-0.231	-0.201
-656.901	73.943	-0.132	0.139
-655.886	-6.079	-0.177	-0.122
-654.872	-35.207	0.163	-0.090
-653.857	259.825	-0.072	-0.126
-652.843	-9.289	-0.153	0.103
-651.828	-200.000	-0.010	0.117
-650.814	-10.268	-0.164	0.110
-649.799	800.000	0.044	0.123
-648.784	-59.902	0.185	-0.080
-647.770	-200.000	-0.013	0.116
-646.755	286.487	-0.055	0.099
-645.741	-40.566	0.307	-0.161
-644.726	-131.133	-0.097	0.013
-643.711	800.000	-0.015	-0.047
-642.697	-117.790	-0.274	0.050
-641.682	742.081	-0.049	-0.133
-640.668	185.926	-0.197	-0.295
-639.653	-68.609	-0.346	-0.135
-638.638	800.000	0.073	0.302
-637.624	196.215	-0.135	0.208
-636.609	-45.204	-0.305	-0.153
-635.595	-200.000	-0.052	-0.292
-634.580	421.628	-0.095	-0.205
-633.565	55.306	0.278	-0.271
-632.551	-200.000	0.023	-0.141
-631.536	406.134	0.113	-0.240
-630.522	-145.271	0.157	0.014
-629.507	-164.291	0.177	0.008
-628.492	800.000	0.157	0.457
-627.478	-84.075	-0.352	0.113
-626.463	-200.000	0.058	0.339
-625.449	-128.731	0.243	-0.035
-624.434	166.534	0.063	-0.090
-623.419	800.000	-0.012	-0.038
-622.405	-200.000	-0.016	-0.145
-621.390	-148.851	-0.320	0.026
-620.376	-63.812	0.402	-0.166
-619.361	20.716	-0.324	-0.265
-618.346	-26.422	-0.296	-0.175
-617.332	-23.807	-0.135	0.081
-616.317	290.029	-0.093	-0.170
-615.303	-126.393	0.424	-0.064
-614.288	-37.384	-0.242	0.130
-613.273	-121.893	-0.226	0.038
-612.259	-26.880	-0.016	-0.009
-611.244	800.000	-0.047	-0.166
-610.230	-32.399	0.113	0.064
-609.215	-141.233	-0.165	0.017
-608.201	-200.000	-0.004	0.216
-607.186	-200.000	0.035	-0.190
-606.171	-93.410	0.121	0.034
-605.157	-25.299	-0.129	-0.077
-604.142	-60.626	-0.130	0.056
-603.128	800.000	0.074	-0.219
-602.113	283.918	-0.099	-0.179
-601.098	52.761	0.167	-0.161
-600.084	-200.000	-0.051	0.388
-599.069	-200.000	-0.009	-0.115
-598.055	-41.156	-0.310	-0.161
-597.040	800.000	0.040	0.143
-596.025	-87.760	0.221	0.067
-595.011	-82.933	0.213	-0.069
-593.996	37.647	-0.192	0.172
-592.982	-6.616	-0.189	0.130
-591.967	103.743	-0.150	0.177
-590.952	-100.353	0.201	-0.050
-589.938	-59.092	0.198	0.086
-588.923	-103.311	-0.199	0.047
-587.909	247.485	0.167	0.283
-586.894	-17.898	0.066	0.042
-585.879	800.000	0.034	-0.150
-584.865	89.838	-0.198	-0.223
-583.850	55.104	0.189	-0.184
-582.836	-25.076	-0.104	-0.062
-581.821	409.959	0.164	-0.350
-580.806	9.465	0.083	-0.063
-579.792	-160.863	0.152	-0.008
-578.777	-200.000	-0.033	-0.424
-577.763	-160.934	-0.147	0.008
-576.748	-38.192	-0.258	-0.137
-575.733	800.000	-0.095	-0.332
-574.719	-123.199	0.144	0.023
-573.704	268.567	-0.313	-0.552
-572.690	-200.000	0.046	-0.230
-571.675	-91.157	0.177	-0.051
-570.661	51.596	0.278	0.265
-569.646	43.947	-0.043	-0.039
-568.631	800.000	0.037	-0.161
-567.617	-161.710	-0.137	0.007
-566.602	-121.215	0.259	-0.044
-565.588	313.670	-0.109	-0.207
-564.573	-140.105	-0.452	0.048
-563.558	-20.880	0.085	-0.053
-562.544	14.935	-0.173	-0.136
-561.529	-194.001	0.028	-0.000
-560.515	-164.742	0.276	0.012
-559.500	128.281	0.101	0.129
-558.485	-123.725	0.337	0.054
-557.471	46.275	0.102	-0.095
-556.456	800.000	0.142	0.413
-555.442	-145.463	-0.488	0.044
-554.427	-200.000	0.010	-0.300
-553.412	-69.057	-0.097	-0.037
-552.398	87.775	-0.109	0.121
-551.383	800.000	0.017	0.062
-550.369	133.817	-0.143	0.187
-549.354	297.909	-0.200	-0.369
-548.339	156.053	-0.084	0.116
-547.325	-163.729	-0.306	0.014
-546.310	-36.456	-0.093	-0.050
-545.296	800.000	-0.097	0.380
-544.281	52.780	-0.287	0.276
-543.266	102.712	-0.099	-0.116
-542.252	-200.000	0.035	0.205
-541.237	320.893	0.031	0.059
-540.223	-200.000	0.012	0.061
-539.208	-136.119	-0.318	-0.037
-538.193	485.778	0.058	-0.134
-537.179	-56.619	0.196	0.087
-536.164	-165.638	-0.142	-0.006
-535.150	48.353	0.176	-0.166
-534.135	800.000	0.072	0.230
-533.121	800.000	0.017	0.053
-532.106	-200.000	0.013	0.075
-531.091	91.266	0.214	-0.241
-530.077	611.301	-0.138	-0.346
-529.062	800.000	-0.037	0.108
-528.048	-126.357	-0.502	0.075
-527.033	-200.000	0.113	-0.691
-526.018	-65.337	0.477	0.193
-525.004	-153.683	0.198	0.014
-523.989	298.288	-0.106	0.195
-522.975	-47.970	0.253	0.123
-521.960	681.892	0.047	-0.122
-520.945	800.000	0.039	-0.165
-519.931	250.480	0.187	-0.320
-518.916	172.141	0.049	0.071
-517.902	-126.992	-0.035	0.005
-516.887	382.538	-0.075	0.155
-515.872	800.000	0.023	-0.083
-514.858	800.000	0.085	-0.248
-513.843	149.344	0.095	-0.129
-512.829	-19.729	-0.212	-0.131
-511.814	309.324	0.070	-0.131
-510.799	-200.000	0.002	0.111
-509.785	12.343	-0.282	0.218
-508.770	-80.268	-0.423	-0.142
-507.756	238.821	-0.151	-0.251
-506.741	-144.830	-0.194	0.018
-505.726	-200.000	-0.032	-0.259
-504.712	196.913	0.220	-0.337
-503.697	-58.677	0.305	0.133
-502.683	-45.293	-0.169	0.084
-501.668	-76.520	0.229	-0.081
-500.653	-200.000	-0.026	-0.313
-499.639	800.000	-0.049	-0.161
-498.624	545.529	-0.143	0.342
-497.610	56.322	-0.023	-0.023
-496.595	58.821	-0.175	-0.173
-495.581	-200.000	0.025	-0.166
-494.566	-200.000	0.078	0.374
-493.551	-45.801	0.149	-0.074
-492.537	8.863	0.101	-0.077
-491.522	-83.423	-0.093	-0.030
-490.508	-98.830	0.320	-0.082
-489.493	-23.779	-0.238	0.143
-488.478	-88.751	0.398	-0.119
-487.464	-62.451	0.255	0.107
-486.449	-200.000	-0.050	0.220
-485.435	86.357	0.055	0.061
-484.420	47.175	0.081	-0.076
-483.405	754.726	0.078	-0.211
-482.391	800.000	-0.118	-0.384
-481.376	800.000	-0.065	-0.199
-480.362	280.495	-0.096	-0.173
-479.347	-200.000	0.071	-0.430
-478.332	641.359	0.101	-0.258
-477.318	-200.000	0.021	-0.187
-476.303	-119.843	-0.190	0.033
-475.289	304.507	0.138	0.256
-474.274	-200.000	0.009	0.062
-473.259	-200.000	-0.046	0.329
-472.245	800.000	0.082	0.271
-471.230	166.148	0.115	-0.164
-470.216	46.673	0.211	0.197
-469.201	-118.089	0.015	-0.003
-468.186	-132.938	0.120	0.015
-467.172	-182.855	-0.204	-0.004
-466.157	-200.000	0.070	-0.357
-465.143	-79.965	-0.057	-0.019
-464.128	-200.000	-0.020	0.235
-463.113	-33.682	0.193	-0.106
-462.099	313.111	-0.083	-0.156
-461.084	-200.000	0.004	0.093
-460.070	-200.000	0.014	-0.189
-459.055	0.930	0.260	-0.187
-458.040	-200.000	0.018	0.207
-457.026	38.421	-0.087	-0.078
-456.011	177.831	0.185	-0.270
-454.997	-145.644	-0.215	-0.019
-453.982	-200.000	0.030	-0.426
-452.968	-62.735	0.354	-0.147
-451.953	82.093	-0.034	-0.037
-450.938	-200.000	0.070	-0.331
-449.924	-82.942	-0.209	-0.067
-448.909	155.228	0.210	0.289
-447.895	800.000	-0.059	-0.251
-446.880	-104.853	-0.467	-0.107
-445.865	-82.064	0.119	-0.039
-444.851	-55.724	0.028	-0.013
-443.836	800.000	0.024	-0.072
-442.822	-200.000	-0.019	0.211
-441.807	-8.748	0.096	-0.064
-440.792	-97.430	0.081	-0.021
-439.778	-11.567	0.218	0.143
-438.763	-86.642	0.214	0.066
-437.749	-28.995	-0.143	-0.082
-436.734	-100.362	-0.311	0.077
-435.719	299.487	0.126	-0.232
-434.705	800.000	-0.042	-0.165
-433.690	97.657	0.061	0.070
-432.676	137.023	-0.086	0.112
-431.661	-71.576	-0.138	0.052
-430.646	-57.611	-0.133	0.058
-429.632	137.225	0.162	0.212
-428.617	-113.575	0.295	-0.058
-427.603	-200.000	-0.025	0.143
-426.588	-200.000	-0.009	0.186
-425.573	-200.000	0.044	0.216
-424.559	36.114	0.187	-0.164
-423.544	-135.394	-0.086	0.010
-422.530	-200.000	-0.000	0.005
-421.515	-62.107	0.250	-0.104
-420.500	134.333	-0.121	0.157
-419.486	161.086	0.321	-0.449
-418.471	189.690	-0.171	-0.256
-417.457	800.000	-0.078	0.284
-416.442	-68.428	-0.094	0.036
-415.428	-25.976	-0.324	-0.191
-414.413	-44.601	-0.077	0.038
-413.398	245.935	-0.098	-0.166
-412.384	-3.807	0.148	-0.103
-411.369	266.597	0.144	-0.251
-410.355	-42.556	0.316	0.161
-409.340	-6.138	-0.116	-0.079
-408.325	800.000	-0.020	-0.061
-407.311	-35.706	-0.200	-0.108
-406.296	-117.527	0.227	-0.041
-405.282	-3.979	0.093	0.065
-404.267	135.664	-0.058	-0.075
-403.252	167.119	0.100	0.142
-402.238	-200.000	-0.032	0.370
-401.223	102.007	0.115	0.134
-400.209	246.253	-0.169	-0.284
-399.194	704.315	0.065	0.172
-398.179	-17.949	-0.414	0.259
-397.165	-200.000	0.044	-0.238
-396.150	141.341	-0.084	0.111
-395.136	-64.529	-0.027	0.011
-394.121	-38.334	0.049	0.026
-393.106	-162.996	0.345	-0.017
-392.092	800.000	-0.082	0.310
-391.077	719.082	-0.154	0.408
-390.063	-25.030	0.151	0.090
-389.048	195.888	-0.176	-0.268
-388.033	155.902	-0.151	0.208
-387.019	371.095	-0.166	-0.337
-386.004	-75.543	-0.231	0.082
-384.990	800.000	0.106	0.343
-383.975	-28.310	-0.158	0.091
-382.960	-200.000	0.030	-0.223
-381.946	207.509	0.112	-0.174
-380.931	728.568	0.051	-0.136
-379.917	-92.019	-0.231	0.065
-378.902	-98.734	-0.045	-0.011
-377.888	-61.128	0.087	0.037
-376.873	58.151	0.177	0.173
-375.858	-200.000	-0.029	0.137
-374.844	-81.010	-0.305	-0.101
-373.829	18.018	0.171	-0.136
-372.815	420.447	-0.204	0.436
-371.800	-200.000	0.025	0.306
-370.785	-34.954	-0.159	0.087
-369.771	97.552	0.029	-0.033
-368.756	-200.000	-0.029	-0.162
-367.742	-200.000	0.010	-0.177
-366.727	-200.000	-0.019	0.269
-365.712	-115.293	-0.164	0.031
-364.698	232.250	0.079	0.130
-363.683	800.000	0.106	-0.379
-362.669	-64.327	-0.242	0.098
-361.654	-43.337	0.064	0.032
-360.639	39.403	-0.316	-0.283
-359.625	-49.083	0.319	-0.152
-358.610	-200.000	0.011	-0.220
-357.596	-37.837	-0.123	-0.065
-356.581	357.720	0.062	0.124
-355.566	48.893	-0.111	0.104
-354.552	-126.738	0.127	-0.019
-353.537	-93.251	-0.208	-0.058
-352.523	298.792	-0.106	0.195
-351.508	606.887	-0.028	-0.070
-350.493	549.613	-0.103	0.247
-349.479	-200.000	-0.003	0.019
-348.464	189.236	-0.068	0.101
-347.450	800.000	-0.142	0.394
-346.435	-15.435	-0.018	0.011
-345.420	38.637	0.313	-0.279
-344.406	-154.763	0.098	-0.006
-343.391	-200.000	0.011	0.067
-342.377	203.438	0.120	-0.184
-341.362	44.848	0.280	0.257
-340.348	-144.368	0.084	-0.008
-339.333	3.192	-0.122	0.089
-338.318	125.746	0.239	0.301
-337.304	-200.000	0.047	-0.206
-336.289	-10.939	-0.141	0.093
-335.275	462.942	0.057	0.126
-334.260	-58.889	0.093	0.040
-333.245	-97.475	0.375	-0.097
-332.231	-200.000	0.025	-0.154
-331.216	537.112	0.036	-0.085
-330.202	-200.000	0.010	0.074
-329.187	-79.318	-0.092	0.031
-328.172	-57.418	-0.387	-0.170
-327.158	77.967	-0.125	-0.133
-326.143	643.711	0.171	0.434
-325.129	-190.710	-0.171	0.002
-324.114	-165.547	-0.296	-0.013
-323.099	-200.000	-0.003	-0.027
-322.085	-125.493	-0.270	-0.041
-321.070	800.000	-0.039	-0.147
-320.056	117.361	-0.062	0.075
-319.041	83.443	0.030	-0.033
-318.026	-59.106	0.189	-0.081
-317.012	341.314	-0.041	-0.079
-315.997	800.000	-0.054	0.159
-314.983	-200.000	0.023	0.515
-313.968	-26.424	-0.172	0.100
-312.953	-162.720	0.185	-0.009
-311.939	-13.358	0.152	-0.098
-310.924	-12.013	0.117	0.076
-309.910	223.860	0.217	0.349
-308.895	-52.613	-0.256	0.118
-307.880	-170.016	-0.223	0.008
-306.866	-153.295	-0.194	-0.013
-305.851	301.536	0.125	-0.230
-304.837	-200.000	0.004	-0.331
-303.822	71.900	-0.114	-0.119
-302.807	-200.000	-0.035	-0.444
-301.793	748.273	0.104	0.279
-300.778	-200.000	0.018	0.333
-299.764	-140.953	0.323	-0.033
-298.749	306.780	-0.162	0.300
-297.735	246.798	0.091	0.152
-296.720	800.000	0.054	0.157
-295.705	800.000	0.058	-0.229
-294.691	515.280	0.068	-0.157
-293.676	767.789	0.149	-0.404
-292.662	-200.000	-0.007	-0.222
-291.647	80.949	-0.035	-0.038
-290.632	-200.000	0.012	0.173
-289.618	-111.382	-0.320	-0.065
-288.603	-58.185	-0.274	0.119
-287.589	638.622	0.043	0.108
-286.574	496.143	0.117	-0.268
-285.559	-130.703	0.141	0.019
-284.545	438.118	-0.197	0.427
-283.530	-37.572	0.175	-0.093
-282.516	75.892	0.041	-0.043
-281.501	-144.310	-0.158	-0.015
-280.486	307.046	-0.141	-0.262
-279.472	-130.326	0.215	0.029
-278.457	-200.000	-0.018	0.108
-277.443	211.525	0.161	0.252
-276.428	-135.797	-0.166	-0.020
-275.413	-18.951	0.345	-0.213
-274.399	800.000	-0.108	-0.354
-273.384	-156.823	0.178	-0.011
-272.370	14.600	0.025	-0.019
-271.355	100.192	-0.311	0.359
-270.340	36.737	0.080	-0.070
-269.326	-74.780	-0.661	-0.236
-268.311	-29.423	0.098	0.056
-267.297	-79.787	0.163	-0.055
-266.282	-18.719	0.054	-0.033
-265.267	140.077	-0.241	-0.316
-264.253	578.898	0.115	-0.280
-263.238	-123.606	0.402	0.063
-262.224	506.331	0.050	0.115
-261.209	-48.341	-0.145	-0.070
-260.195	-8.318	-0.247	-0.165
-259.180	-25.817	0.226	-0.133
-258.165	-136.767	-0.171	-0.020
-257.151	-56.063	-0.245	-0.109
-256.136	105.318	0.079	0.093
-255.122	-56.967	-0.091	0.040
-254.107	64.564	0.217	0.217
-253.092	800.000	-0.062	0.181
-252.078	-200.000	0.012	0.068
-251.063	339.791	-0.080	0.155
-250.049	-92.201	0.119	-0.033
-249.034	565.816	-0.088	0.212
-248.019	-29.935	0.155	0.088
-247.005	-123.136	0.215	-0.034
-245.990	57.933	0.120	0.116
-244.976	-200.000	0.006	-0.030
-243.961	48.069	0.136	0.126
-242.946	136.886	0.289	0.376
-241.932	310.546	-0.115	-0.214
-240.917	-200.000	-0.028	0.140
-239.903	336.881	-0.111	-0.214
-238.888	8.611	-0.137	-0.103
-237.873	254.824	-0.113	-0.192
-236.859	-100.509	-0.144	-0.035
-235.844	602.893	-0.044	-0.108
-234.830	-200.000	0.007	-0.079
-233.815	-90.005	0.393	0.114
-232.800	643.712	-0.062	0.156
-231.786	321.192	-0.102	0.193
-230.771	179.124	0.071	0.103
-229.757	-81.795	0.159	0.052
-228.742	23.216	-0.289	0.236
-227.727	151.444	-0.169	-0.228
-226.713	-190.870	-0.036	-0.000
-225.698	334.627	0.227	0.437
-224.684	506.978	-0.233	0.536
-223.669	423.387	-0.169	0.360
-222.655	-45.919	-0.137	-0.067
-221.640	-200.000	0.005	-0.240
-220.625	800.000	-0.102	0.432
-219.611	176.135	0.290	0.417
-218.596	-200.000	-0.016	-0.204
-217.582	231.795	0.085	0.138
-216.567	242.981	0.156	-0.259
-215.552	636.500	0.014	-0.036
-214.538	-122.716	0.145	-0.023
-213.523	-200.000	-0.039	0.240
-212.509	-114.577	-0.191	-0.036
-211.494	-120.316	0.030	0.005
-210.479	-133.901	0.315	0.039
-209.465	582.210	0.126	0.306
-208.450	3.801	-0.157	0.114
-207.436	-70.087	-0.184	0.069
-206.421	50.003	-0.070	-0.066
-205.406	-111.651	-0.194	-0.039
-204.392	-16.930	-0.229	0.144
-203.377	-200.000	-0.001	0.039
-202.363	-72.748	0.333	-0.122
-201.348	800.000	-0.072	0.313
-200.333	-109.564	0.135	0.028
-199.319	-137.977	-0.312	-0.035
-198.304	38.817	0.289	0.256
-197.290	800.000	0.082	0.225
-196.275	379.536	0.006	0.013
-195.260	-23.245	-0.309	-0.184
-194.246	800.000	0.160	0.442
-193.231	800.000	0.072	0.304
-192.217	-200.000	-0.069	0.413
-191.202	300.373	0.060	-0.109
-190.187	800.000	0.035	-0.097
-189.173	44.687	0.152	-0.139
-188.158	6.515	-0.222	-0.163
-187.144	-10.701	0.104	0.068
-186.129	-93.787	-0.144	0.039
-185.114	-66.668	-0.161	-0.063
-184.100	-91.971	0.138	-0.039
-183.085	-200.000	0.053	0.314
-182.071	-18.376	-0.075	-0.047
-181.056	-79.589	-0.216	0.072
-180.042	143.863	-0.089	-0.118
-179.027	269.853	0.243	-0.424
-178.012	800.000	-0.013	0.053
-176.998	38.588	-0.070	0.061
-175.983	30.593	0.100	0.085
-174.969	-200.000	0.061	0.268
-173.954	-200.000	0.012	0.160
-172.939	-79.478	0.139	0.047
-171.925	-34.880	0.215	0.116
-170.910	27.079	0.397	0.330
-169.896	-59.510	0.486	-0.207
-168.881	429.738	0.120	-0.257
-167.866	-22.833	-0.165	-0.099
-166.852	466.613	0.084	0.187
-165.837	800.000	0.058	0.171
-164.823	-71.360	-0.123	-0.045
-163.808	-98.599	0.356	-0.090
-162.793	-118.780	0.071	0.012
-161.779	800.000	-0.079	0.272
-160.764	-200.000	-0.043	0.345
-159.750	-153.502	0.105	-0.007
-158.735	171.472	-0.171	0.243
-157.720	103.852	0.156	0.181
-156.706	-35.152	0.159	-0.086
-155.691	15.353	0.042	-0.032
-154.677	290.389	-0.052	0.094
-153.662	-200.000	-0.019	0.384
-152.647	-200.000	0.003	-0.094
-151.633	-7.171	0.099	-0.067
-150.618	89.433	0.287	-0.316
-149.604	-31.293	0.339	-0.189
-148.589	-53.287	0.230	-0.104
-147.574	-101.319	-0.339	0.082
-146.560	199.116	0.083	0.126
-145.545	-160.107	-0.580	0.031
-144.531	-39.728	-0.148	0.076
-143.516	-35.948	-0.153	0.082
-142.502	66.024	0.033	0.033
-141.487	-103.163	-0.350	-0.082
-140.472	17.078	0.247	0.194
-139.458	800.000	0.077	0.310
-138.443	189.496	-0.042	0.063
-137.429	174.331	-0.047	0.067
-136.414	7.842	-0.240	-0.178
-135.399	-88.618	-0.385	-0.113
-134.385	216.872	0.113	-0.178
-133.370	-61.714	-0.347	0.144
-132.356	156.146	-0.088	0.120
-131.341	-200.000	-0.001	0.301
-130.326	84.239	-0.097	-0.105
-129.312	-200.000	-0.078	0.461
-128.297	-70.703	0.093	0.035
-127.283	146.430	0.070	-0.093
-126.268	-200.000	0.036	-0.480
-125.253	115.803	0.057	0.069
-124.239	132.019	-0.035	0.044
-123.224	128.076	0.131	-0.165
-122.210	-101.035	0.124	-0.030
-121.195	202.343	0.097	0.148
-120.180	55.964	-0.258	-0.247
-119.166	-37.834	0.261	-0.137
-118.151	375.961	-0.070	0.140
-117.137	63.228	-0.202	0.200
-116.122	128.297	-0.092	-0.116
-115.107	-150.446	0.314	-0.024
-114.093	-152.480	0.313	-0.022
-113.078	800.000	-0.033	0.121
-112.064	-200.000	0.041	-0.389
-111.049	377.781	-0.034	-0.068
-110.034	-24.071	-0.520	-0.307
-109.020	32.527	-0.512	0.437
-108.005	640.951	-0.083	0.209
-106.991	-53.742	0.032	-0.014
-105.976	-48.380	-0.202	0.096
-104.962	131.321	-0.105	-0.134
-103.947	85.758	-0.186	0.202
-102.932	800.000	-0.055	0.163
-101.918	-149.184	-0.316	0.025
-100.903	525.049	-0.089	0.206
-99.889	141.433	-0.134	0.175
-98.874	-200.000	-0.005	0.071
-97.859	379.025	-0.019	0.039
-96.845	5.631	-0.133	0.097
-95.830	114.292	0.206	0.248
-94.816	278.818	0.164	0.290
-93.801	68.937	-0.083	-0.084
-92.786	-200.000	-0.004	-0.071
-91.772	700.649	-0.144	0.373
-90.757	800.000	-0.068	0.243
-89.743	116.945	0.210	-0.255
-88.728	3.296	0.045	-0.032
-87.713	-155.384	-0.276	0.018
-86.699	-97.699	0.364	0.093
-85.684	-17.687	0.299	-0.186
-84.670	-38.136	-0.318	0.167
-83.655	123.520	-0.341	0.423
-82.640	109.758	0.094	-0.111
-81.626	54.629	-0.237	-0.226
-80.611	68.812	-0.204	-0.207
-79.597	-200.000	-0.003	0.423
-78.582	-177.037	-0.273	-0.007
-77.567	116.474	-0.121	-0.147
-76.553	-80.340	0.230	-0.076
-75.538	231.541	-0.174	0.281
-74.524	800.000	-0.140	-0.400
-73.509	-117.307	0.298	0.053
-72.494	-200.000	0.013	0.081
-71.480	-120.868	0.093	-0.016
-70.465	800.000	-0.079	-0.255
-69.451	-200.000	-0.037	0.285
-68.436	277.129	-0.084	-0.148
-67.422	800.000	0.024	0.084
-66.407	7.507	0.062	0.046
-65.392	23.269	0.087	0.070
-64.378	74.658	-0.139	0.144
-63.363	19.029	-0.199	0.157
-62.349	800.000	0.113	0.307
-61.334	114.397	-0.807	-0.969
-60.319	10.390	0.469	0.352
-59.305	-200.000	0.082	-1.134
-58.290	495.879	0.486	1.103
-57.276	-200.000	0.338	1.516
-56.261	-200.000	92.610	540.014
-55.246	527.206	1375.109	3196.533
-54.232	151.022	2600.547	3488.113
-53.217	107.752	2315.356	2719.006
-52.203	44.635	1926.814	1746.805
-51.188	38.420	1711.703	1504.138
-50.173	35.618	1665.900	1442.824
-49.159	51.878	1713.086	1607.842
-48.144	55.265	1730.761	1650.148
-47.130	38.113	1688.171	1480.899
-46.115	35.078	1673.314	1444.942
-45.100	34.998	1668.133	1439.812
-44.086	34.943	1665.631	1437.184
-43.071	34.945	1662.723	1434.633
-42.057	34.877	1660.519	1432.163
-41.042	34.876	1658.827	1430.637
-40.027	35.031	1656.390	1429.638
-39.013	34.898	1654.877	1427.283
-37.998	34.846	1653.386	1425.555
-36.984	34.921	1652.089	1424.940
-35.969	35.103	1650.678	1425.017
-34.954	35.028	1649.557	1423.438
-33.940	35.074	1647.165	1421.658
-32.925	35.108	1644.846	1419.852
-31.911	35.142	1643.057	1418.502
-30.896	34.970	1641.938	1416.204
-29.881	35.108	1639.535	1415.096
-28.867	35.107	1638.306	1413.977
-27.852	35.182	1636.551	1412.952
-26.838	35.018	1635.158	1410.485
-25.823	35.116	1634.172	1410.304
-24.809	35.139	1632.707	1409.150
-23.794	35.148	1631.131	1407.801
-22.779	35.106	1629.641	1406.151
-21.765	35.224	1627.551	1405.160
-20.750	35.076	1626.404	1403.030
-19.736	35.255	1624.621	1402.743
-18.721	35.137	1623.758	1401.082
-17.706	35.160	1621.948	1399.630
-16.692	35.107	1619.996	1397.504
-15.677	35.173	1618.743	1396.850
-14.663	35.143	1617.824	1395.784
-13.648	35.127	1616.235	1394.240
-12.633	35.132	1614.395	1392.630
-11.619	35.158	1612.663	1391.273
-10.604	35.220	1611.178	1390.388
-9.590	35.150	1609.931	1388.745
-8.575	35.108	1608.782	1387.399
-7.560	35.161	1607.455	1386.578
-6.546	35.060	1606.635	1385.088
-5.531	35.036	1605.837	1384.175
-4.517	35.198	1603.840	1383.565
-3.502	35.085	1603.080	1382.040
-2.487	35.222	1601.337	1381.471
-1.473	35.257	1590.887	1372.647
-0.458	33.216	1572.681	1342.420
0.556	30.025	1574.041	1314.938
1.571	27.900	1599.518	1320.754
2.586	27.432	1613.066	1328.409
3.600	23.595	1557.613	1255.540
4.615	12.702	1441.127	1089.838
5.629	3.447	1372.084	978.985
6.644	1.939	1363.611	963.331
7.659	1.855	1361.975	961.559
8.673	1.714	1360.934	959.848
9.688	1.683	1358.932	958.156
10.702	1.420	1355.838	954.238
11.717	4.961	1363.718	982.044
12.731	15.717	1384.086	1065.084
13.746	24.427	1398.046	1131.198
14.761	26.235	1400.750	1144.759
15.775	26.511	1400.297	1146.034
16.790	26.495	1400.662	1146.128
17.804	26.684	1399.309	1146.114
18.819	26.876	1399.145	1147.093
19.834	27.003	1398.809	1147.521
20.848	27.074	1397.527	1146.815
21.863	26.997	1396.740	1145.584
22.877	26.943	1396.205	1144.701
23.892	26.998	1394.681	1143.697
24.907	27.025	1394.276	1143.433
25.921	27.008	1393.414	1142.521
26.936	26.914	1392.347	1140.955
27.950	26.955	1391.533	1140.443
28.965	26.924	1389.983	1138.873
29.980	26.958	1388.939	1138.135
30.994	26.981	1387.423	1136.934
32.009	26.977	1386.663	1136.183
33.023	27.014	1385.309	1135.204
34.038	26.982	1384.233	1134.028
35.053	26.987	1383.437	1133.301
36.067	26.966	1382.703	1132.468
37.082	26.797	1381.786	1130.565
38.096	27.074	1380.625	1131.242
39.111	26.943	1379.953	1129.775
40.126	26.898	1379.344	1128.897
41.140	26.979	1378.718	1128.787
42.155	26.975	1378.770	1128.706
43.169	26.926	1378.628	1128.185
44.184	26.934	1378.269	1127.840
45.199	26.920	1377.649	1127.147
46.213	26.979	1377.104	1126.968
47.228	26.895	1376.202	1125.608
48.242	26.850	1375.286	1124.484
49.257	27.031	1373.288	1123.867
50.271	26.945	1371.860	1122.070
51.286	26.948	1370.561	1120.925
52.301	26.981	1369.888	1120.477
53.315	26.936	1369.037	1119.407
54.330	26.905	1368.476	1118.660
55.344	26.967	1367.003	1117.735
56.359	26.917	1365.865	1116.401
57.374	26.856	1364.957	1115.183
58.388	26.910	1364.439	1114.992
59.403	26.880	1364.428	1114.702
60.417	26.806	1363.699	1113.551
61.432	26.957	1362.616	1113.497
62.447	26.886	1362.331	1112.728
63.461	27.048	1360.468	1112.105
64.476	26.946	1359.579	1110.653
65.490	26.975	1358.245	1109.644
66.505	26.977	1357.466	1108.920
67.520	26.936	1355.448	1106.922
68.534	26.984	1354.459	1106.309
69.549	27.005	1353.523	1105.575
70.563	26.980	1352.911	1104.827
71.578	26.947	1352.126	1103.886
72.593	27.052	1351.081	1103.576
73.607	26.988	1350.413	1102.543
74.622	26.919	1350.010	1101.695
75.636	26.868	1349.450	1100.831
76.651	27.019	1348.121	1100.568
77.666	26.998	1347.930	1100.188
78.680	26.939	1347.622	1099.477
79.695	27.033	1346.141	1098.741
80.709	26.861	1345.991	1097.484
81.724	26.938	1344.672	1096.774
82.739	26.980	1343.864	1096.271
83.753	26.875	1343.152	1094.959
84.768	26.966	1341.912	1094.399
85.782	26.972	1340.908	1093.523
86.797	26.887	1340.051	1092.216
87.812	26.974	1338.646	1091.494
88.826	26.966	1337.550	1090.459
89.841	27.078	1336.341	1090.049
90.855	26.990	1335.578	1088.802
91.870	27.029	1334.632	1088.166
92.884	26.952	1333.838	1086.965
93.899	27.009	1333.226	1086.712
94.914	27.087	1332.484	1086.476
95.928	27.029	1331.689	1085.383
96.943	27.006	1331.074	1084.648
97.957	27.031	1330.342	1084.104
98.972	27.041	1329.422	1083.318
99.987	27.091	1328.379	1082.669
101.001	27.053	1327.315	1081.481
102.016	26.928	1326.821	1080.239
103.030	26.960	1326.053	1079.707
104.045	27.092	1324.450	1079.092
105.060	27.036	1323.999	1078.299
106.074	27.150	1323.084	1078.133
107.089	26.961	1322.447	1076.400
108.103	26.987	1321.084	1075.350
109.118	27.051	1320.170	1074.886
110.133	27.094	1318.870	1073.990
111.147	27.117	1317.321	1072.765
112.162	27.078	1316.622	1071.872
113.176	27.165	1315.011	1070.980
114.191	27.083	1314.713	1070.157
115.206	27.112	1313.358	1069.133
116.220	27.086	1312.749	1068.389
117.235	27.020	1311.933	1067.242
118.249	26.943	1310.715	1065.707
119.264	27.031	1309.926	1065.483
120.279	27.012	1309.278	1064.754
121.293	27.169	1308.621	1065.043
122.308	27.047	1307.832	1063.596
123.322	27.231	1306.604	1063.578
124.337	27.092	1306.324	1062.440
125.352	27.162	1305.150	1061.799
126.366	27.122	1304.579	1061.012
127.381	27.308	1303.095	1060.797
128.395	27.128	1302.426	1059.106
129.410	27.164	1301.724	1058.654
130.424	27.189	1301.237	1058.308
131.439	27.195	1300.266	1057.460
132.454	27.142	1299.944	1056.796
133.468	27.146	1299.092	1056.031
134.483	27.205	1298.241	1055.588
135.497	27.134	1297.575	1054.544
136.512	27.107	1296.159	1053.140
137.527	27.250	1294.902	1052.853
138.541	27.179	1294.083	1051.684
139.556	27.040	1292.788	1049.738
140.570	27.189	1291.807	1049.706
141.585	27.154	1290.731	1048.537
142.600	27.159	1289.877	1047.780
143.614	27.177	1288.967	1047.052
144.629	27.120	1287.731	1045.629
145.643	26.981	1287.340	1044.420
146.658	27.014	1285.923	1043.366
147.673	27.075	1285.086	1042.944
148.687	27.163	1284.056	1042.523
149.702	27.002	1282.976	1040.631
150.716	27.081	1281.714	1039.967
151.731	27.082	1280.730	1039.081
152.746	27.113	1279.877	1038.473
153.760	27.036	1278.663	1036.961
154.775	27.207	1277.998	1037.306
155.789	27.131	1277.158	1036.095
156.804	27.206	1275.669	1035.226
157.819	27.120	1275.090	1034.170
158.833	27.133	1274.300	1033.515
159.848	27.129	1273.771	1032.971
160.862	27.169	1273.027	1032.504
161.877	27.112	1272.491	1031.657
162.892	27.069	1271.543	1030.553
163.906	27.168	1270.309	1030.019
164.921	27.255	1269.749	1029.965
165.935	27.215	1269.323	1029.306
166.950	27.161	1268.579	1028.303
167.964	27.220	1267.860	1027.966
168.979	27.292	1267.139	1027.692
169.994	27.204	1266.961	1026.962
171.008	27.267	1266.118	1026.546
172.023	27.281	1265.220	1025.806
173.037	27.210	1264.632	1024.836
174.052	27.283	1264.041	1024.681
175.067	27.232	1263.094	1023.532
176.081	27.233	1262.355	1022.848
177.096	27.232	1261.269	1021.875
178.110	27.249	1260.472	1021.230
179.125	27.193	1259.732	1020.226
180.140	27.345	1258.393	1019.908
181.154	27.317	1257.390	1018.847
182.169	27.263	1256.263	1017.541
183.183	27.291	1255.669	1017.128
184.198	27.342	1254.317	1016.223
185.213	27.325	1253.481	1015.364
186.227	27.355	1252.827	1014.913
187.242	27.202	1252.310	1013.550
188.256	27.211	1251.357	1012.739
189.271	27.269	1250.502	1012.281
190.286	27.350	1249.583	1011.894
191.300	27.301	1248.919	1010.998
192.315	27.277	1248.041	1010.062
193.329	27.303	1248.009	1010.095
194.344	27.366	1247.708	1010.110
195.359	27.381	1247.013	1009.539
196.373	27.284	1246.562	1008.550
197.388	27.360	1245.967	1008.396
198.402	27.275	1245.942	1007.820
199.417	27.273	1245.458	1007.327
200.432	27.329	1244.785	1007.004
201.446	27.294	1244.472	1006.465
202.461	27.361	1243.392	1005.878
203.475	27.342	1242.410	1004.885
204.490	27.401	1241.058	1004.030
205.504	27.295	1240.343	1002.781
206.519	27.322	1239.908	1002.484
207.534	27.393	1239.048	1002.095
208.548	27.411	1237.952	1001.218
209.563	27.319	1237.267	1000.068
210.577	27.457	1236.181	999.860
211.592	27.442	1235.183	998.884
212.607	27.429	1234.699	998.332
213.621	27.453	1234.151	997.932
214.636	27.515	1233.085	997.320
215.650	27.523	1232.476	996.782
216.665	27.435	1231.479	995.407
217.680	27.455	1230.265	994.446
218.694	27.404	1229.926	993.805
219.709	27.496	1229.104	993.560
220.723	27.481	1228.294	992.730
221.738	27.441	1227.795	992.024
222.753	27.353	1227.136	990.926
223.767	27.337	1226.585	990.303
224.782	27.511	1225.893	990.606
225.796	27.502	1225.431	990.094
226.811	27.538	1224.713	989.623
227.826	27.527	1224.105	988.981
228.840	27.554	1223.237	988.341
229.855	27.610	1222.203	987.720
230.869	27.564	1221.967	987.197
231.884	27.482	1221.204	986.050
232.899	27.523	1220.687	985.767
233.913	27.523	1220.127	985.226
234.928	27.671	1219.321	985.286
235.942	27.779	1218.569	985.173
236.957	27.576	1217.999	983.533
237.972	27.576	1217.300	982.879
238.986	27.621	1216.844	982.668
240.001	27.558	1216.632	982.070
241.015	27.568	1215.738	981.316
242.030	27.729	1214.815	981.347
243.045	27.703	1213.887	980.375
244.059	27.680	1213.060	979.492
245.074	27.683	1212.809	979.221
246.088	27.799	1211.638	978.813
247.103	27.758	1211.094	978.066
248.117	27.664	1210.331	976.860
249.132	27.726	1209.265	976.243
250.147	27.648	1208.975	975.508
251.161	27.820	1207.956	975.520
252.176	27.700	1207.433	974.368
253.190	27.779	1206.382	973.855
254.205	27.883	1205.876	973.917
255.220	27.874	1205.199	973.232
256.234	27.803	1205.089	972.680
257.249	27.863	1204.428	972.381
258.263	27.851	1203.767	971.699
259.278	27.893	1203.200	971.378
260.293	27.908	1202.660	970.935
261.307	27.927	1202.138	970.526
262.322	27.872	1201.426	969.577
263.336	27.868	1200.579	968.784
264.351	27.854	1200.494	968.556
265.366	27.920	1199.560	968.067
266.380	27.867	1198.849	967.127
267.395	27.875	1198.277	966.620
268.409	27.726	1198.112	965.617
269.424	27.897	1196.729	965.318
270.439	27.774	1196.858	964.688
271.453	27.838	1195.960	964.218
272.468	27.838	1194.826	963.215
273.482	27.819	1194.472	962.747
274.497	28.038	1193.642	963.145
275.512	28.019	1193.349	962.722
276.526	28.078	1192.419	962.201
277.541	27.962	1191.910	961.095
278.555	28.019	1191.321	960.829
279.570	28.069	1190.334	960.213
280.585	27.929	1189.980	959.106
281.599	28.008	1189.170	958.786
282.614	27.947	1187.996	957.434
283.628	28.088	1186.909	957.212
284.643	28.092	1186.309	956.666
285.657	28.092	1185.560	955.973
286.672	28.012	1184.546	954.657
287.687	28.078	1184.177	954.616
288.701	28.115	1183.162	953.906
289.716	28.040	1182.784	953.127
290.730	28.186	1182.199	953.331
291.745	28.096	1181.363	952.108
292.760	28.106	1181.095	951.857
293.774	28.161	1180.663	951.714
294.789	28.098	1179.893	950.677
295.803	28.176	1179.057	950.328
296.818	28.131	1178.301	949.398
297.833	28.134	1177.999	949.086
298.847	28.271	1176.926	948.846
299.862	28.131	1176.832	947.964
300.876	28.179	1175.475	947.037
301.891	28.165	1175.129	946.598
302.906	28.361	1174.243	946.817
303.920	28.222	1173.586	945.486
304.935	28.182	1173.561	945.172
305.949	28.198	1172.781	944.544
306.964	28.279	1171.901	944.169
307.979	28.236	1171.294	943.377
308.993	28.286	1170.582	942.978
310.008	28.305	1169.974	942.500
311.022	28.208	1169.612	941.625
312.037	28.218	1168.158	940.425
313.052	28.284	1167.376	940.053
314.066	28.286	1166.646	939.388
315.081	28.406	1166.022	939.418
316.095	28.306	1165.335	938.272
317.110	28.336	1164.950	938.030
318.125	28.349	1164.314	937.502
319.139	28.394	1163.561	937.044
320.154	28.305	1162.939	936.007
321.168	28.233	1162.557	935.247
322.183	28.305	1162.112	935.172
323.197	28.348	1161.447	934.773
324.212	28.313	1160.657	933.877
325.227	28.528	1160.185	934.510
326.241	28.471	1159.642	933.703
327.256	28.476	1158.989	933.117
328.270	28.438	1157.803	931.889
329.285	28.476	1157.409	931.682
330.300	28.415	1156.671	930.695
331.314	28.455	1155.602	929.953
332.329	28.569	1154.981	929.950
333.343	28.568	1154.626	929.575
334.358	28.619	1153.529	928.870
335.373	28.634	1152.934	928.385
336.387	28.715	1152.076	928.022
337.402	28.664	1151.189	926.967
338.416	28.644	1150.827	926.492
339.431	28.597	1150.480	925.893
340.446	28.538	1149.764	924.938
341.460	28.621	1148.945	924.618
342.475	28.701	1148.422	924.514
343.489	28.678	1147.357	923.463
344.504	28.748	1146.199	922.800
345.519	28.783	1145.294	922.163
346.533	28.634	1145.235	921.290
347.548	28.766	1144.180	921.020
348.562	28.670	1143.442	919.860
349.577	28.587	1143.188	919.163
350.592	28.556	1142.010	917.976
351.606	28.671	1141.483	918.047
352.621	28.690	1141.166	917.807
353.635	28.725	1140.286	917.195
354.650	28.765	1139.648	916.796
355.665	28.770	1138.979	916.204
356.679	28.905	1138.435	916.360
357.694	28.752	1138.135	915.273
358.708	28.779	1137.014	914.426
359.723	28.812	1135.953	913.656
360.738	28.796	1135.343	913.002
361.752	28.906	1135.048	913.234
362.767	28.894	1134.903	912.973
363.781	28.899	1134.316	912.444
364.796	28.861	1133.510	911.532
365.810	28.881	1132.700	910.897
366.825	28.853	1132.357	910.401
367.840	28.999	1131.885	910.665
368.854	29.031	1131.034	910.055
369.869	28.940	1130.689	909.247
370.883	28.959	1129.932	908.653
371.898	28.981	1128.755	907.733
372.913	29.139	1128.243	908.022
373.927	29.021	1128.196	907.320
374.942	29.040	1127.458	906.743
375.956	28.984	1126.706	905.779
376.971	29.132	1126.410	906.190
377.986	29.081	1125.725	905.311
379.000	28.962	1125.362	904.355
380.015	29.162	1124.694	904.719
381.029	29.077	1124.064	903.716
382.044	28.994	1123.779	902.998
383.059	29.157	1122.625	902.788
384.073	29.313	1122.021	902.986
385.088	29.193	1121.114	901.592
386.102	29.209	1120.427	901.039
387.117	29.137	1119.771	900.080
388.132	29.013	1119.055	898.818
389.146	29.099	1117.852	898.192
390.161	29.244	1117.433	898.483
391.175	29.107	1117.481	897.773
392.190	29.257	1116.460	897.601
393.205	29.250	1115.497	896.713
394.219	29.041	1115.099	895.297
395.234	29.293	1114.313	895.815
396.248	29.314	1113.433	895.128
397.263	29.323	1112.478	894.328
398.278	29.238	1112.116	893.546
399.292	29.306	1111.582	893.364
400.307	29.368	1110.922	893.057
401.321	29.384	1110.260	892.523
402.336	29.168	1110.019	891.205
403.350	29.447	1108.836	891.526
404.365	29.440	1108.107	890.827
405.380	29.371	1107.352	889.807
406.394	29.336	1107.081	889.342
407.409	29.414	1105.713	888.537
408.423	29.330	1105.255	887.690
409.438	29.410	1104.469	887.362
410.453	29.604	1103.436	887.386
411.467	29.567	1103.094	886.854
412.482	29.576	1102.218	886.114
413.496	29.479	1101.896	885.313
414.511	29.451	1101.126	884.485
415.526	29.463	1101.085	884.431
416.540	29.489	1100.567	884.057
417.555	29.505	1099.563	883.251
418.569	29.488	1099.575	883.103
419.584	29.628	1099.179	883.372
420.599	29.589	1098.687	882.714
421.613	99.554	1317.803	1440.087
422.628	93.021	1349.705	1440.199
