DTS Sentinel unit serial number:	SN413079Multiplexer serial number:	ORYXHardware model number:	OX4-SRSoftware version number:	ORYX F/W v4.00 Oryx Data Collector v3.7.2.0data status	okinstallation	princeton_trtdifferential loss correction	single-endedforward channel	channel 2reverse channel	N/Adate	2019/09/17time	02:11:35forward acquisition time	60.00reverse acquisition time	0.00gamma	496.2192k internal	0.2328k external	0.2328temperature offset calibration	0.9977default loss term (dB/km)	0.3790temperature slope calibration	1.0000multiplexer offset coefficient	1.0000multiplexer slope coefficient	1.0000fibre end	0.00T internal ref (°C)	29.69T ext. ref 1 (°C)	0.12T ext. ref 2 (°C)	24.63length (m)	temperature (°C)	Stokes	anti-Stokes-747.200	53.723	-0.042	-0.040
-746.185	-200.000	-0.058	0.328
-745.171	-200.000	0.039	0.201
-744.156	278.114	0.160	0.287
-743.142	-136.105	0.226	-0.027
-742.127	303.614	-0.055	0.103
-741.112	702.700	0.118	-0.315
-740.098	-200.000	0.030	0.132
-739.083	-200.000	0.000	0.137
-738.069	-200.000	0.010	0.216
-737.054	170.234	0.245	0.353
-736.039	56.521	-0.139	-0.137
-735.025	-98.768	0.354	-0.091
-734.010	40.234	-0.248	-0.225
-732.996	-33.618	-0.193	-0.107
-731.981	-200.000	0.002	0.229
-730.966	-200.000	0.071	0.347
-729.952	-200.000	-0.027	-0.275
-728.937	93.649	0.251	-0.286
-727.923	25.082	-0.157	0.131
-726.908	-116.574	-0.308	-0.057
-725.894	75.976	-0.185	0.197
-724.879	800.000	0.061	-0.179
-723.864	97.009	-0.206	0.238
-722.850	-33.698	0.165	0.092
-721.835	11.702	0.214	-0.166
-720.821	-39.569	0.382	-0.202
-719.806	87.329	0.037	-0.042
-718.791	742.289	-0.048	-0.131
-717.777	-61.524	-0.197	0.083
-716.762	800.000	0.067	-0.209
-715.748	129.966	-0.110	-0.142
-714.733	-43.693	0.176	-0.089
-713.718	-90.534	-0.121	-0.035
-712.704	-200.000	0.042	-0.222
-711.689	331.579	0.028	-0.055
-710.675	405.981	0.029	0.062
-709.660	173.554	0.136	-0.197
-708.645	-70.825	0.325	-0.123
-707.631	-70.269	-0.329	-0.126
-706.616	-135.098	0.180	-0.022
-705.602	427.427	-0.117	-0.253
-704.587	-200.000	-0.040	-0.372
-703.572	-200.000	-0.013	-0.131
-702.558	800.000	-0.045	-0.178
-701.543	38.722	0.060	-0.054
-700.529	-200.000	0.010	-0.295
-699.514	-188.762	-0.320	0.004
-698.499	75.365	0.167	-0.178
-697.485	441.498	0.079	-0.173
-696.470	214.495	0.103	-0.165
-695.456	252.296	-0.169	-0.290
-694.441	-144.177	-0.224	0.021
-693.426	-91.249	0.076	-0.022
-692.412	-200.000	-0.078	-0.498
-691.397	-157.784	0.111	0.007
-690.383	-28.801	-0.227	0.131
-689.368	-145.567	-0.264	-0.024
-688.354	-3.390	0.059	0.041
-687.339	-86.707	0.137	0.042
-686.324	167.251	-0.108	-0.155
-685.310	-200.000	0.036	-0.291
-684.295	800.000	0.025	-0.103
-683.281	-200.000	-0.002	0.157
-682.266	-50.841	-0.174	-0.082
-681.251	-24.928	0.393	-0.234
-680.237	-29.758	0.292	0.168
-679.222	-200.000	0.205	-0.001
-678.208	-200.000	-0.004	0.133
-677.193	-106.058	-0.252	-0.057
-676.178	-200.000	0.022	-0.215
-675.164	-200.000	0.036	0.317
-674.149	193.338	-0.217	0.330
-673.135	-200.000	-0.007	-0.084
-672.120	-109.042	-0.132	0.028
-671.105	15.216	0.127	-0.100
-670.091	-34.231	-0.696	-0.384
-669.076	426.383	0.066	0.143
-668.062	420.114	-0.101	-0.217
-667.047	2.023	-0.133	-0.096
-666.032	221.720	-0.033	-0.054
-665.018	647.088	-0.030	-0.078
-664.003	205.910	-0.051	-0.079
-662.989	617.768	0.058	0.147
-661.974	74.143	0.107	-0.113
-660.959	575.484	0.151	-0.371
-659.945	-70.458	-0.307	-0.117
-658.930	241.261	0.014	0.023
-657.916	-89.350	-0.311	-0.092
-656.901	-99.216	-0.206	-0.052
-655.886	-200.000	0.044	-0.223
-654.872	-200.000	-0.022	0.162
-653.857	-170.878	-0.180	0.006
-652.843	-65.489	0.092	-0.037
-651.828	130.275	-0.264	-0.340
-650.814	2.876	0.210	0.153
-649.799	-29.089	0.139	-0.080
-648.784	-200.000	0.064	-0.492
-647.770	80.978	-0.313	0.340
-646.755	445.466	-0.132	-0.291
-645.741	130.273	0.065	-0.084
-644.726	800.000	-0.111	-0.311
-643.711	-65.386	-0.115	-0.047
-642.697	-123.077	-0.075	0.012
-641.682	186.714	0.086	0.129
-640.668	362.104	0.022	0.045
-639.653	127.823	0.022	0.028
-638.638	-150.361	-0.320	0.025
-637.624	-186.867	-0.087	-0.001
-636.609	-21.280	0.137	0.084
-635.595	14.038	-0.107	0.084
-634.580	-0.346	0.051	0.037
-633.565	-200.000	-0.041	-0.296
-632.551	141.401	-0.066	-0.088
-631.536	51.254	-0.109	-0.104
-630.522	248.624	0.115	0.195
-629.507	-141.224	0.429	0.044
-628.492	-120.292	0.221	-0.038
-627.478	-200.000	0.001	0.157
-626.463	145.877	-0.163	0.220
-625.449	116.336	-0.152	-0.187
-624.434	-34.718	0.129	-0.071
-623.419	800.000	-0.071	0.308
-622.405	13.196	0.075	0.058
-621.390	9.391	0.155	-0.117
-620.376	-178.354	0.251	0.006
-619.361	196.062	0.162	0.247
-618.346	66.286	0.174	0.177
-617.332	259.237	0.148	0.257
-616.317	-200.000	-0.001	0.090
-615.303	-200.000	-0.004	-0.232
-614.288	80.538	-0.076	0.083
-613.273	36.509	0.057	0.050
-612.259	393.257	0.079	0.165
-611.244	618.536	0.148	-0.373
-610.230	326.174	-0.197	-0.379
-609.215	127.638	0.106	0.135
-608.201	-131.351	-0.072	-0.010
-607.186	-75.886	-0.356	-0.127
-606.171	270.141	0.123	0.216
-605.157	518.399	-0.052	0.122
-604.142	800.000	-0.049	-0.164
-603.128	800.000	-0.092	-0.298
-602.113	-177.321	-0.129	0.003
-601.098	-17.417	0.145	0.091
-600.084	-100.360	-0.047	0.012
-599.069	-122.912	-0.321	-0.052
-598.055	7.995	-0.191	0.143
-597.040	-63.640	0.068	-0.028
-596.025	736.642	0.038	0.101
-595.011	381.049	0.098	0.202
-593.996	800.000	-0.012	-0.042
-592.982	-125.958	-0.081	0.012
-591.967	614.143	0.019	0.048
-590.952	-200.000	-0.010	0.083
-589.938	-99.169	0.274	-0.069
-588.923	-89.286	0.337	0.100
-587.909	-3.291	0.194	-0.135
-586.894	308.156	-0.111	0.207
-585.879	-138.557	-0.278	-0.031
-584.865	-117.925	-0.181	0.032
-583.850	648.820	-0.115	0.294
-582.836	-77.018	-0.208	0.073
-581.821	-200.000	-0.001	-0.110
-580.806	125.466	0.196	0.248
-579.792	379.006	0.065	0.134
-578.777	274.740	0.077	-0.136
-577.763	440.039	-0.207	-0.452
-576.748	124.816	-0.221	0.279
-575.733	392.724	-0.058	0.121
-574.719	594.210	-0.041	0.102
-573.704	151.934	-0.107	0.146
-572.690	-61.549	0.156	-0.066
-571.675	70.181	0.222	-0.230
-570.661	-29.526	-0.256	0.147
-569.646	266.787	-0.113	-0.197
-568.631	101.573	-0.295	0.344
-567.617	-26.718	0.078	0.046
-566.602	738.292	-0.034	-0.092
-565.588	181.103	-0.196	-0.289
-564.573	-36.955	-0.147	0.079
-563.558	313.572	0.092	-0.173
-562.544	5.407	-0.080	-0.059
-561.529	6.338	-0.361	-0.268
-560.515	-115.491	0.285	0.054
-559.500	168.546	-0.145	0.207
-558.485	788.335	0.060	-0.164
-557.471	542.547	0.193	-0.461
-556.456	-200.000	0.008	-0.273
-555.442	-24.238	0.095	-0.057
-554.427	68.661	0.309	0.317
-553.412	-130.738	-0.182	-0.025
-552.398	-16.692	-0.312	-0.198
-551.383	101.131	-0.070	-0.081
-550.369	118.536	-0.237	0.292
-549.354	-73.369	0.044	-0.016
-548.339	173.021	-0.158	0.227
-547.325	800.000	0.046	0.184
-546.310	68.881	0.060	0.062
-545.296	-47.760	-0.221	-0.107
-544.281	-144.534	0.122	0.011
-543.266	501.364	0.089	-0.205
-542.252	800.000	-0.120	0.382
-541.237	800.000	-0.058	0.197
-540.223	66.579	0.168	0.171
-539.208	273.278	-0.080	-0.140
-538.193	-41.418	0.270	-0.139
-537.179	149.381	-0.073	0.098
-536.164	-8.520	0.089	-0.060
-535.150	-38.342	0.074	-0.039
-534.135	800.000	-0.046	-0.158
-533.121	-125.751	-0.170	-0.026
-532.106	-182.017	0.448	-0.008
-531.091	-110.257	0.044	-0.009
-530.077	-113.386	-0.589	0.115
-529.062	-200.000	-0.052	0.295
-528.048	800.000	0.103	-0.317
-527.033	46.185	0.092	0.085
-526.018	-200.000	0.029	-0.287
-525.004	-171.317	-0.290	-0.010
-523.989	-154.177	-0.234	0.016
-522.975	-200.000	-0.018	0.141
-521.960	-71.564	-0.239	0.089
-520.945	-200.000	0.018	-0.167
-519.931	-42.208	0.207	-0.106
-518.916	108.361	-0.142	-0.169
-517.902	101.900	-0.065	-0.076
-516.887	10.652	-0.191	0.145
-515.872	-200.000	0.016	0.107
-514.858	-30.811	-0.319	-0.180
-513.843	175.318	0.120	-0.173
-512.829	213.981	-0.205	-0.324
-511.814	120.457	0.047	-0.058
-510.799	378.627	-0.048	0.098
-509.785	-99.789	-0.147	0.037
-508.770	800.000	-0.107	-0.386
-507.756	603.615	-0.075	-0.187
-506.741	-72.202	-0.209	0.077
-505.726	-200.000	-0.295	0.001
-504.712	-34.718	-0.114	-0.062
-503.697	-200.000	-0.022	0.232
-502.683	675.721	-0.039	-0.102
-501.668	-59.085	-0.286	0.123
-500.653	800.000	0.097	0.280
-499.639	-200.000	-0.005	-0.026
-498.624	-86.455	-0.163	-0.050
-497.610	285.034	-0.116	-0.209
-496.595	500.162	0.043	-0.099
-495.581	-28.222	-0.118	-0.068
-494.566	800.000	-0.068	-0.289
-493.551	426.362	0.090	0.195
-492.537	-200.000	-0.015	0.382
-491.522	217.363	0.122	0.194
-490.508	-48.595	0.211	0.101
-489.493	114.378	-0.074	-0.090
-488.478	-200.000	0.054	-0.325
-487.464	106.561	-0.069	-0.081
-486.449	198.655	0.101	0.154
-485.435	-200.000	0.009	-0.101
-484.420	5.535	0.272	0.200
-483.405	-200.000	-0.003	0.041
-482.391	190.789	0.187	0.280
-481.376	12.638	0.110	-0.085
-480.362	-115.537	-0.147	-0.027
-479.347	-129.317	0.039	-0.005
-478.332	-200.000	-0.251	-0.001
-477.318	14.133	-0.073	-0.057
-476.303	-67.527	-0.391	0.153
-475.289	-65.285	0.143	-0.057
-474.274	2.190	-0.055	-0.039
-473.259	362.513	-0.061	-0.121
-472.245	-44.284	-0.165	-0.083
-471.230	-73.815	0.281	-0.102
-470.216	17.790	0.165	0.131
-469.201	125.390	0.115	0.145
-468.186	9.763	0.164	-0.124
-467.172	800.000	0.047	0.194
-466.157	202.279	-0.039	-0.060
-465.143	-200.000	0.012	-0.071
-464.128	-133.563	0.068	-0.009
-463.113	69.118	-0.027	0.028
-462.099	-200.000	0.093	-0.000
-461.084	-56.169	-0.150	-0.066
-460.070	-10.229	-0.219	0.145
-459.055	-115.611	-0.160	0.030
-458.040	-200.000	0.013	0.119
-457.026	-200.000	-0.012	0.138
-456.011	-8.523	-0.126	0.084
-454.997	78.566	0.172	-0.183
-453.982	9.521	0.051	-0.038
-452.968	-80.215	0.215	-0.072
-451.953	107.430	-0.072	0.085
-450.938	-200.000	-0.000	-0.205
-449.924	471.609	-0.160	-0.360
-448.909	228.152	0.101	-0.163
-447.895	-200.000	0.032	-0.283
-446.880	37.977	0.201	0.178
-445.865	-200.000	0.005	-0.247
-444.851	-200.000	0.010	-0.729
-443.836	-155.751	0.348	0.022
-442.822	-11.817	-0.151	0.099
-441.807	-95.959	0.176	0.047
-440.792	800.000	-0.018	0.078
-439.778	-10.490	0.426	-0.281
-438.763	51.298	-0.253	-0.239
-437.749	-140.391	-0.323	0.034
-436.734	616.879	-0.127	0.318
-435.719	365.204	0.112	0.224
-434.705	-31.324	-0.192	-0.108
-433.690	-138.240	0.141	0.016
-432.676	-179.604	0.227	-0.005
-431.661	-200.000	0.036	0.287
-430.646	-147.743	-0.225	0.019
-429.632	-144.574	0.241	0.022
-428.617	-89.648	0.076	0.022
-427.603	-92.066	-0.058	0.016
-426.588	-2.811	-0.302	-0.210
-425.573	-60.579	0.117	-0.049
-424.559	-148.288	-0.367	0.030
-423.544	-52.700	-0.174	-0.080
-422.530	800.000	-0.142	-0.539
-421.515	2.517	-0.111	0.080
-420.500	540.980	-0.024	0.056
-419.486	-181.624	0.089	0.002
-418.471	800.000	0.136	-0.394
-417.457	-77.370	-0.239	-0.083
-416.442	-200.000	-0.011	0.243
-415.428	-121.892	-0.524	0.086
-414.413	-200.000	-0.057	-0.250
-413.398	-9.623	0.496	0.329
-412.384	79.289	-0.172	-0.183
-411.369	-200.000	-0.029	-0.361
-410.355	-200.000	0.027	-0.229
-409.340	-77.412	-0.521	0.180
-408.325	-69.476	-0.156	0.059
-407.311	278.552	0.152	-0.270
-406.296	-200.000	0.008	0.145
-405.282	313.306	0.107	0.200
-404.267	-56.132	0.130	0.058
-403.252	-200.000	-0.088	-0.428
-402.238	-11.410	0.227	0.149
-401.223	-149.183	-0.232	-0.018
-400.209	-131.634	0.320	0.042
-399.194	428.532	-0.111	0.239
-398.179	-83.529	0.275	0.087
-397.165	28.850	0.200	0.168
-396.150	-92.641	0.605	-0.169
-395.136	54.526	-0.272	-0.261
-394.121	-200.000	0.038	-0.240
-393.106	-64.459	0.136	0.055
-392.092	-200.000	-0.039	-0.377
-391.077	-200.000	-0.014	0.172
-390.063	8.681	0.018	-0.014
-389.048	15.596	0.133	0.104
-388.033	539.434	-0.050	0.119
-387.019	-200.000	0.002	-0.042
-386.004	402.373	0.069	0.144
-384.990	-200.000	-0.001	0.017
-383.975	-164.297	0.090	0.004
-382.960	8.960	-0.042	-0.031
-381.946	-54.234	-0.366	0.165
-380.931	64.582	-0.195	0.196
-379.917	-200.000	-0.008	-0.111
-378.902	-200.000	0.075	-0.346
-377.888	-200.000	-0.065	-0.319
-376.873	8.392	0.162	0.121
-375.858	23.542	0.067	0.054
-374.844	-93.642	0.215	-0.059
-373.829	93.656	-0.038	-0.043
-372.815	-67.240	0.294	-0.115
-371.800	-125.554	-0.127	-0.019
-370.785	-93.796	0.094	-0.026
-369.771	-84.121	-0.395	0.125
-368.756	-110.591	0.294	0.060
-367.742	-34.802	0.259	-0.140
-366.727	755.741	0.018	-0.048
-365.712	34.775	0.161	0.140
-364.698	-16.730	0.082	-0.051
-363.683	-101.533	-0.176	-0.042
-362.669	-200.000	-0.011	-0.086
-361.654	-200.000	0.022	0.164
-360.639	157.474	-0.101	0.139
-359.625	-200.000	0.077	0.555
-358.610	-41.959	0.082	0.042
-357.596	-128.141	0.728	0.103
-356.581	-89.646	-0.285	0.083
-355.566	376.579	-0.097	0.197
-354.552	-200.000	0.000	-0.001
-353.537	224.224	-0.252	0.404
-352.523	316.255	-0.033	0.061
-351.508	-50.797	-0.123	-0.057
-350.493	89.408	-0.167	-0.185
-349.479	404.448	-0.081	-0.170
-348.464	-134.570	0.285	-0.034
-347.450	85.225	-0.225	-0.245
-346.435	-200.000	0.003	0.159
-345.420	-59.296	0.038	0.016
-344.406	39.653	0.081	-0.072
-343.391	55.126	0.136	-0.130
-342.377	-143.280	-0.150	0.014
-341.362	-200.000	0.062	0.322
-340.348	686.034	-0.048	0.124
-339.333	280.277	-0.112	-0.199
-338.318	47.600	-0.192	0.177
-337.304	-174.039	-0.264	0.008
-336.289	17.066	-0.140	0.110
-335.275	-200.000	0.035	-0.206
-334.260	-108.254	-0.206	0.044
-333.245	-200.000	0.009	-0.307
-332.231	472.380	-0.064	-0.143
-331.216	167.094	-0.044	0.062
-330.202	-200.000	0.014	-0.150
-329.187	69.582	0.121	-0.123
-328.172	598.394	-0.101	0.247
-327.158	43.118	0.027	-0.025
-326.143	257.331	-0.054	-0.093
-325.129	-139.721	0.252	0.027
-324.114	85.309	0.171	0.186
-323.099	-117.675	0.275	-0.049
-322.085	78.529	-0.118	-0.125
-321.070	291.377	-0.119	-0.214
-320.056	-104.560	0.167	-0.038
-319.041	-2.032	-0.085	-0.059
-318.026	215.098	0.120	-0.189
-317.012	130.851	0.375	0.476
-315.997	-49.064	-0.165	0.078
-314.983	-127.917	0.195	0.028
-313.968	-116.297	0.193	0.035
-312.953	800.000	-0.138	0.391
-311.939	12.644	0.149	0.114
-310.924	486.388	-0.116	-0.262
-309.910	47.506	0.057	0.052
-308.895	-54.941	0.313	0.140
-307.880	-200.000	-0.040	0.176
-306.866	56.990	0.225	0.217
-305.851	-28.845	-0.520	0.296
-304.837	204.688	0.043	0.066
-303.822	-200.000	-0.016	0.217
-302.807	-51.178	-0.187	0.087
-301.793	210.662	-0.221	0.343
-300.778	-100.432	0.295	-0.072
-299.764	477.907	0.156	0.350
-298.749	-111.598	0.341	-0.069
-297.735	-126.201	-0.083	0.012
-296.720	-200.000	-0.005	-0.115
-295.705	800.000	-0.077	-0.328
-294.691	528.058	0.044	-0.102
-293.676	-32.473	-0.172	-0.095
-292.662	135.989	0.006	-0.008
-291.647	285.983	0.176	-0.314
-290.632	315.507	0.015	-0.028
-289.618	800.000	0.013	-0.047
-288.603	165.261	-0.036	0.050
-287.589	-200.000	0.051	-0.242
-286.574	-200.000	-0.022	0.235
-285.559	-11.011	-0.146	-0.095
-284.545	-140.306	0.241	-0.025
-283.530	-200.000	0.006	0.225
-282.516	-119.064	-0.270	0.047
-281.501	42.430	-0.249	0.224
-280.486	-64.521	0.128	0.051
-279.472	-200.000	-0.039	0.579
-278.457	25.652	-0.245	0.202
-277.443	-52.679	-0.133	-0.061
-276.428	-22.387	0.435	0.261
-275.413	135.651	-0.099	-0.127
-274.399	-93.835	-0.160	-0.043
-273.384	223.124	-0.201	0.320
-272.370	112.075	0.012	-0.014
-271.355	508.552	-0.135	0.310
-270.340	44.782	0.062	-0.057
-269.326	-200.000	0.033	-0.398
-268.311	-37.905	0.106	0.056
-267.297	-46.739	0.127	-0.062
-266.282	193.942	-0.041	0.062
-265.267	-122.815	-0.113	0.018
-264.253	41.323	0.062	0.055
-263.238	-200.000	-0.031	-0.325
-262.224	800.000	-0.032	-0.139
-261.209	-55.373	0.165	0.073
-260.195	-200.000	-0.039	0.179
-259.180	-85.655	0.393	0.121
-258.165	800.000	0.010	0.030
-257.151	-153.974	-0.208	-0.014
-256.136	25.046	0.036	-0.030
-255.122	-200.000	-0.026	0.127
-254.107	104.010	-0.179	-0.208
-253.092	-102.341	-0.057	0.014
-252.078	-158.007	-0.091	0.005
-251.063	-60.518	-0.160	0.067
-250.049	800.000	-0.089	-0.281
-249.034	15.922	0.150	-0.117
-248.019	-5.960	-0.062	0.042
-247.005	-128.254	-0.178	-0.025
-245.990	546.057	0.074	0.176
-244.976	800.000	-0.058	-0.218
-243.961	-154.284	0.262	0.017
-242.946	-25.300	0.421	0.246
-241.932	-128.920	-0.065	0.009
-240.917	53.257	0.177	-0.167
-239.903	163.253	-0.066	-0.091
-238.888	800.000	-0.041	0.162
-237.873	-200.000	-0.052	-0.285
-236.859	496.514	-0.117	-0.265
-235.844	-4.617	0.153	0.104
-234.830	-74.998	0.177	-0.063
-233.815	637.736	-0.043	-0.109
-232.800	-109.814	-0.154	-0.032
-231.786	437.203	0.065	-0.139
-230.771	189.690	0.166	-0.246
-229.757	-82.038	-0.321	0.104
-228.742	-35.487	0.194	0.104
-227.727	-21.102	0.204	-0.124
-226.713	-123.513	0.111	0.017
-225.698	304.827	0.118	-0.217
-224.684	-200.000	0.051	-0.245
-223.669	567.594	0.034	0.082
-222.655	330.164	-0.187	0.356
-221.640	0.836	-0.027	-0.019
-220.625	-200.000	0.005	-0.222
-219.611	-28.385	0.167	0.095
-218.596	800.000	-0.023	-0.071
-217.582	-200.000	-0.006	0.194
-216.567	69.554	0.299	0.304
-215.552	800.000	-0.114	-0.350
-214.538	67.882	-0.174	-0.175
-213.523	261.934	-0.063	-0.107
-212.509	-200.000	0.009	0.252
-211.494	143.316	-0.044	-0.058
-210.479	39.638	0.346	0.306
-209.465	-200.000	-0.019	0.097
-208.450	-200.000	0.011	-0.118
-207.436	800.000	-0.041	0.163
-206.421	-191.161	-0.082	0.001
-205.406	-71.094	0.357	-0.132
-204.392	522.351	0.101	-0.235
-203.377	115.987	-0.036	-0.043
-202.363	-85.563	-0.112	-0.034
-201.348	-96.566	-0.139	-0.036
-200.333	153.378	0.074	0.099
-199.319	-200.000	0.029	0.371
-198.304	-11.675	0.218	-0.141
-197.290	298.399	-0.115	0.208
-196.275	5.772	0.088	-0.065
-195.260	-200.000	0.013	0.207
-194.246	-143.213	0.294	-0.028
-193.231	800.000	0.100	0.296
-192.217	-72.824	0.157	-0.057
-191.202	42.390	-0.471	-0.423
-190.187	-170.560	0.348	-0.012
-189.173	122.168	-0.108	-0.132
-188.158	-141.496	0.085	-0.009
-187.144	-200.000	-0.058	-0.314
-186.129	-36.069	-0.314	0.167
-185.114	800.000	0.076	0.311
-184.100	40.856	0.232	-0.206
-183.085	427.856	-0.243	-0.517
-182.071	191.004	0.271	-0.402
-181.056	-200.000	0.046	-0.336
-180.042	-109.281	0.304	0.064
-179.027	800.000	-0.088	0.262
-178.012	-200.000	0.047	0.289
-176.998	-200.000	-0.026	0.174
-175.983	-74.606	0.149	-0.053
-174.969	-161.107	0.247	0.013
-173.954	-142.676	-0.266	0.026
-172.939	-119.850	0.375	-0.064
-171.925	-96.270	0.218	-0.057
-170.910	18.771	0.288	0.227
-169.896	308.948	0.110	0.203
-168.881	-200.000	0.019	0.229
-167.866	76.558	0.096	0.100
-166.852	53.297	0.167	0.158
-165.837	800.000	0.061	0.231
-164.823	21.820	0.053	0.043
-163.808	-200.000	-0.012	0.209
-162.793	1.966	-0.437	-0.310
-161.779	-85.715	0.303	0.093
-160.764	-200.000	-0.035	-0.173
-159.750	64.917	0.306	0.305
-158.735	-77.439	-0.168	0.057
-157.720	-183.232	-0.003	0.000
-156.706	142.632	-0.185	0.243
-155.691	-176.114	-0.214	-0.006
-154.677	-28.546	-0.148	0.084
-153.662	-23.155	-0.061	0.036
-152.647	14.831	-0.036	0.028
-151.633	-188.564	0.332	-0.004
-150.618	124.026	0.222	-0.275
-149.604	-200.000	-0.016	0.391
-148.589	-96.584	0.052	0.013
-147.574	-78.506	-0.073	0.025
-146.560	-48.608	0.209	0.099
-145.545	420.962	0.028	0.060
-144.531	155.092	0.233	-0.316
-143.516	-200.000	-0.001	-0.213
-142.502	435.106	-0.083	0.177
-141.487	-200.000	-0.051	0.276
-140.472	256.716	0.215	0.364
-139.458	-55.436	0.291	-0.129
-138.443	-133.391	0.052	-0.006
-137.429	45.939	-0.139	0.126
-136.414	-20.238	0.051	-0.031
-135.399	-176.278	0.400	-0.010
-134.385	-200.000	-0.036	-0.334
-133.370	515.090	0.062	-0.143
-132.356	-109.311	-0.107	0.022
-131.341	-200.000	0.013	0.360
-130.326	800.000	0.044	0.166
-129.312	-29.759	-0.215	-0.121
-128.297	50.665	0.221	-0.206
-127.283	-63.698	-0.236	0.095
-126.268	-200.000	-0.018	-0.175
-125.253	165.150	0.192	0.267
-124.239	-200.000	0.003	0.145
-123.224	-200.000	-0.034	0.241
-122.210	3.648	0.167	-0.120
-121.195	-200.000	-0.030	0.307
-120.180	-125.177	-0.065	-0.010
-119.166	116.171	-0.193	-0.232
-118.151	-118.828	-0.156	0.027
-117.137	173.910	0.085	-0.121
-116.122	339.020	-0.045	0.086
-115.107	-22.249	0.168	-0.100
-114.093	-159.410	0.229	0.013
-113.078	-73.797	-0.270	-0.096
-112.064	-200.000	-0.002	-0.102
-111.049	102.767	0.226	-0.260
-110.034	456.628	-0.103	0.224
-109.020	312.075	-0.205	0.378
-108.005	610.858	-0.124	0.305
-106.991	-24.619	0.160	-0.093
-105.976	-115.129	0.128	-0.024
-104.962	183.233	0.223	0.323
-103.947	-30.736	0.346	-0.192
-102.932	-200.000	-0.014	-0.158
-101.918	61.008	-0.061	-0.059
-100.903	78.400	0.160	0.168
-99.889	84.148	-0.181	-0.194
-98.874	27.315	0.180	-0.149
-97.859	-117.079	0.287	0.051
-96.845	167.712	0.295	0.413
-95.830	491.899	0.036	-0.082
-94.816	26.749	0.164	0.135
-93.801	-13.163	-0.257	-0.164
-92.786	6.478	-0.276	-0.201
-91.772	-82.757	-0.008	-0.003
-90.757	800.000	0.039	0.149
-89.743	174.185	0.239	0.339
-88.728	-200.000	-0.061	0.355
-87.713	800.000	-0.052	0.181
-86.699	79.579	0.150	0.158
-85.684	800.000	0.070	-0.222
-84.670	35.143	-0.173	-0.149
-83.655	-127.368	-0.506	-0.072
-82.640	-200.000	-0.039	-0.202
-81.626	-51.252	0.166	0.076
-80.611	351.497	-0.042	0.082
-79.597	3.546	0.068	-0.049
-78.582	77.588	-0.249	-0.260
-77.567	-200.000	-0.006	0.192
-76.553	-98.718	-0.033	0.008
-75.538	27.180	0.024	-0.020
-74.524	-118.768	0.098	-0.017
-73.509	-97.973	-0.129	0.033
-72.494	-54.352	0.269	0.120
-71.480	7.863	0.215	-0.158
-70.465	-107.625	0.045	-0.010
-69.451	800.000	0.106	-0.397
-68.436	-200.000	0.010	-0.092
-67.422	-45.877	-0.205	-0.100
-66.407	249.312	0.121	-0.202
-65.392	17.064	0.028	-0.022
-64.378	177.513	0.109	0.156
-63.363	357.172	0.144	0.281
-62.349	244.323	-0.016	-0.026
-61.334	4.443	-1.077	-0.775
-60.319	12.576	0.550	0.417
-59.305	800.000	-0.324	-1.030
-58.290	678.118	0.569	1.453
-57.276	460.440	0.656	1.435
-56.261	-200.000	107.585	585.961
-55.246	452.415	1470.954	3190.920
-54.232	147.631	2661.241	3517.590
-53.217	99.917	2289.711	2602.687
-52.203	38.644	1902.157	1664.754
-51.188	32.920	1690.557	1436.116
-50.173	30.289	1647.728	1380.142
-49.159	48.732	1700.943	1564.603
-48.144	49.239	1715.722	1581.962
-47.130	32.381	1674.040	1417.801
-46.115	29.797	1659.534	1386.126
-45.100	29.649	1654.660	1380.894
-44.086	29.551	1651.980	1377.870
-43.071	29.562	1649.616	1375.928
-42.057	29.558	1647.023	1373.676
-41.042	29.540	1644.774	1371.613
-40.027	29.549	1643.346	1370.432
-39.013	29.595	1640.690	1368.504
-37.998	29.603	1639.460	1367.488
-36.984	29.542	1638.239	1365.960
-35.969	29.702	1636.587	1365.714
-34.954	29.735	1635.020	1364.592
-33.940	29.664	1632.894	1362.245
-32.925	29.626	1631.699	1360.913
-31.911	29.734	1629.795	1360.063
-30.896	29.716	1628.024	1358.401
-29.881	29.705	1626.134	1356.686
-28.867	29.680	1624.809	1355.345
-27.852	29.765	1623.019	1354.424
-26.838	29.720	1621.458	1352.738
-25.823	29.647	1620.490	1351.341
-24.809	29.736	1619.283	1350.929
-23.794	29.674	1618.163	1349.486
-22.779	29.675	1616.544	1348.091
-21.765	29.636	1614.748	1346.255
-20.750	29.642	1613.262	1345.011
-19.736	29.744	1611.730	1344.421
-18.721	29.706	1610.314	1342.908
-17.706	29.696	1608.977	1341.665
-16.692	29.725	1607.427	1340.536
-15.677	29.762	1606.041	1339.595
-14.663	29.736	1604.827	1338.340
-13.648	29.781	1603.176	1337.235
-12.633	29.741	1601.678	1335.645
-11.619	29.748	1600.147	1334.365
-10.604	29.692	1598.864	1332.838
-9.590	29.699	1597.568	1331.753
-8.575	29.711	1596.423	1330.829
-7.560	29.810	1594.648	1330.013
-6.546	29.673	1594.604	1328.941
-5.531	29.584	1593.170	1327.047
-4.517	29.664	1592.343	1326.886
-3.502	29.738	1590.276	1325.641
-2.487	29.777	1588.984	1324.791
-1.473	29.464	1577.048	1312.560
-0.458	26.769	1558.643	1278.214
0.556	21.889	1559.648	1249.200
1.571	19.668	1583.866	1252.412
2.586	19.295	1597.563	1260.398
3.600	17.841	1544.596	1208.219
4.615	9.922	1434.499	1069.728
5.629	1.869	1368.495	969.364
6.644	0.252	1360.852	953.632
7.659	0.176	1359.642	952.220
8.673	-0.015	1358.624	950.214
9.688	0.067	1356.732	949.325
10.702	-0.075	1353.874	946.345
11.717	3.652	1359.606	973.807
12.731	12.289	1373.345	1038.386
13.746	17.475	1379.878	1076.103
14.761	17.293	1378.053	1073.436
15.775	16.258	1375.613	1064.914
16.790	15.209	1372.982	1056.175
17.804	14.487	1370.400	1049.553
18.819	14.060	1369.456	1046.047
19.834	13.919	1367.776	1043.787
20.848	13.605	1366.480	1040.733
21.863	13.310	1365.450	1038.004
22.877	13.206	1364.095	1036.233
23.892	13.176	1363.478	1035.482
24.907	13.216	1362.149	1034.636
25.921	13.118	1361.773	1033.643
26.936	13.193	1360.607	1033.136
27.950	13.284	1359.525	1032.790
28.965	13.327	1359.033	1032.595
29.980	13.316	1358.191	1031.796
30.994	13.401	1357.161	1031.450
32.009	13.457	1356.224	1030.994
33.023	13.392	1355.382	1029.860
34.038	13.413	1354.481	1029.216
35.053	13.472	1352.311	1027.840
36.067	13.324	1352.163	1026.717
37.082	13.396	1350.867	1026.091
38.096	13.410	1350.207	1025.584
39.111	13.364	1348.864	1024.191
40.126	13.270	1348.261	1023.057
41.140	13.234	1347.333	1022.040
42.155	13.086	1347.410	1021.096
43.169	13.175	1346.869	1021.141
44.184	13.190	1346.916	1021.181
45.199	13.149	1346.235	1020.324
46.213	13.198	1345.391	1019.895
47.228	13.284	1344.547	1019.694
48.242	13.298	1343.370	1018.799
49.257	13.285	1341.746	1017.399
50.271	13.194	1340.976	1016.163
51.286	13.363	1339.237	1015.795
52.301	13.259	1337.646	1013.859
53.315	13.193	1337.099	1012.949
54.330	13.211	1335.975	1012.118
55.344	13.193	1334.838	1011.060
56.359	13.236	1333.520	1010.233
57.374	13.061	1333.230	1008.858
58.388	13.194	1331.692	1008.416
59.403	13.063	1331.865	1007.656
60.417	13.150	1330.517	1007.075
61.432	13.109	1329.622	1006.058
62.447	13.013	1329.162	1005.036
63.461	12.989	1327.770	1003.751
64.476	13.061	1326.328	1003.011
65.490	13.035	1325.625	1002.229
66.505	13.141	1323.689	1001.322
67.520	13.120	1322.250	1000.016
68.534	13.072	1321.995	999.443
69.549	13.083	1320.439	998.249
70.563	13.098	1319.511	997.550
71.578	13.087	1318.201	996.401
72.593	12.944	1317.881	995.208
73.607	13.034	1316.776	994.833
74.622	12.977	1315.962	993.786
75.636	13.033	1314.876	993.212
76.651	13.075	1314.082	992.778
77.666	12.979	1313.657	991.794
78.680	13.084	1313.196	991.985
79.695	13.048	1312.108	990.862
80.709	13.118	1311.511	990.742
81.724	13.163	1310.434	990.110
82.739	13.174	1309.634	989.483
83.753	13.186	1308.806	988.843
84.768	13.339	1307.627	988.778
85.782	13.366	1306.210	987.784
86.797	13.341	1304.815	986.493
87.812	13.358	1303.871	985.791
88.826	13.304	1302.770	984.550
89.841	13.303	1301.574	983.554
90.855	13.339	1300.842	983.128
91.870	13.309	1299.998	982.222
92.884	13.331	1299.605	981.973
93.899	13.299	1298.887	981.151
94.914	13.388	1297.880	980.832
95.928	13.365	1297.228	980.116
96.943	13.390	1295.958	979.218
97.957	13.289	1294.842	977.688
98.972	13.307	1294.106	977.152
99.987	13.297	1293.175	976.309
101.001	13.294	1291.937	975.270
102.016	13.376	1290.893	974.879
103.030	13.425	1290.394	974.700
104.045	13.359	1288.932	973.122
105.060	13.366	1287.845	972.257
106.074	13.265	1286.726	970.733
107.089	13.190	1285.769	969.484
108.103	13.174	1284.268	968.176
109.118	13.207	1282.912	967.258
110.133	13.255	1281.454	966.353
111.147	13.139	1280.082	964.560
112.162	13.093	1279.292	963.612
113.176	13.178	1278.091	963.114
114.191	13.321	1277.175	963.170
115.206	13.276	1276.342	962.195
116.220	13.288	1274.816	961.032
117.235	13.308	1274.152	960.562
118.249	13.234	1272.989	959.171
119.264	13.278	1271.886	958.508
120.279	13.184	1270.801	957.063
121.293	13.225	1269.736	956.411
122.308	13.210	1268.359	955.206
123.322	13.154	1267.681	954.284
124.337	13.180	1266.505	953.466
125.352	13.191	1265.467	952.663
126.366	13.193	1264.255	951.678
127.381	13.159	1263.082	950.515
128.395	13.222	1262.122	950.075
129.410	13.232	1261.214	949.364
130.424	13.189	1260.464	948.468
131.439	13.174	1259.568	947.622
132.454	13.371	1258.074	947.543
133.468	13.249	1257.594	946.398
134.483	13.361	1256.841	946.387
135.497	13.197	1255.684	944.495
136.512	13.282	1254.303	943.862
137.527	13.238	1253.374	942.827
138.541	13.274	1251.795	941.758
139.556	13.357	1250.267	941.001
140.570	13.382	1249.413	940.416
141.585	13.418	1248.353	939.740
142.600	13.268	1247.827	938.406
143.614	13.407	1246.521	938.130
144.629	13.470	1244.994	937.257
145.643	13.455	1244.259	936.536
146.658	13.463	1242.637	935.277
147.673	13.367	1241.543	933.827
148.687	13.339	1240.370	932.705
149.702	13.273	1239.287	931.439
150.716	13.416	1237.632	930.914
151.731	13.317	1236.920	929.740
152.746	13.371	1235.527	928.913
153.760	13.342	1234.722	928.063
154.775	13.440	1233.604	927.693
155.789	13.453	1232.323	926.718
156.804	13.497	1231.413	926.199
157.819	13.580	1230.290	925.733
158.833	13.489	1229.560	924.598
159.848	13.597	1228.442	924.275
160.862	13.597	1227.524	923.503
161.877	13.526	1226.256	922.073
162.892	13.478	1225.406	921.086
163.906	13.420	1224.638	920.102
164.921	13.424	1224.130	919.664
165.935	13.487	1222.878	918.989
166.950	13.616	1221.700	918.739
167.964	13.521	1221.441	917.937
168.979	13.514	1220.538	917.137
169.994	13.534	1219.803	916.617
171.008	13.572	1219.074	916.194
172.023	13.694	1217.787	915.821
173.037	13.704	1217.105	915.284
174.052	13.639	1216.372	914.292
175.067	13.697	1215.287	913.714
176.081	13.584	1214.243	912.226
177.096	13.561	1213.879	911.747
178.110	13.723	1212.236	911.325
179.125	13.605	1211.211	909.823
180.140	13.713	1209.892	909.347
181.154	13.712	1208.639	908.318
182.169	13.684	1207.850	907.493
183.183	13.729	1206.608	906.725
184.198	13.702	1205.644	905.771
185.213	13.759	1204.275	904.973
186.227	13.726	1203.316	903.992
187.242	13.790	1202.157	903.393
188.256	13.865	1201.369	903.128
189.271	13.910	1200.136	902.365
190.286	13.642	1199.482	900.340
191.300	13.612	1198.500	899.360
192.315	13.639	1197.900	898.972
193.329	13.607	1197.360	898.317
194.344	13.618	1196.999	898.023
195.359	13.700	1196.210	897.799
196.373	13.865	1195.026	897.722
197.388	13.873	1194.702	897.445
198.402	13.954	1194.383	897.561
199.417	14.051	1193.198	897.116
200.432	14.082	1192.657	896.797
201.446	14.026	1191.733	895.718
202.461	13.981	1191.279	895.056
203.475	14.135	1189.749	894.658
204.490	14.121	1188.756	893.754
205.504	13.983	1187.813	892.225
206.519	14.020	1186.309	891.218
207.534	14.089	1185.136	890.625
208.548	13.989	1184.638	889.637
209.563	14.121	1183.121	889.124
210.577	14.248	1182.510	889.264
211.592	14.123	1181.520	887.778
212.607	14.206	1180.876	887.655
213.621	14.148	1180.079	886.670
214.636	14.145	1179.246	885.950
215.650	14.171	1178.636	885.548
216.665	14.332	1176.895	885.022
217.680	14.299	1176.167	884.217
218.694	14.260	1175.796	883.653
219.709	14.240	1174.841	882.753
220.723	14.245	1174.000	882.071
221.738	14.325	1173.496	882.039
222.753	14.277	1173.279	881.543
223.767	14.304	1172.120	880.737
224.782	14.330	1171.730	880.503
225.796	14.404	1170.934	880.216
226.811	14.440	1169.671	879.381
227.826	14.454	1169.187	879.011
228.840	14.422	1168.598	878.324
229.855	14.357	1167.518	877.091
230.869	14.497	1166.819	877.225
231.884	14.399	1165.884	875.930
232.899	14.340	1165.314	875.114
233.913	14.317	1164.830	874.549
234.928	14.309	1164.646	874.293
235.942	14.334	1163.284	873.326
236.957	14.405	1162.247	872.843
237.972	14.348	1161.953	872.246
238.986	14.405	1161.081	871.812
240.001	14.440	1160.150	871.218
241.015	14.462	1159.568	870.819
242.030	14.553	1158.420	870.355
243.045	14.384	1158.115	869.168
244.059	14.606	1156.771	869.238
245.074	14.477	1156.513	868.294
246.088	14.583	1155.039	867.662
247.103	14.527	1154.640	866.997
248.117	14.619	1154.140	867.020
249.132	14.670	1153.349	866.612
250.147	14.742	1152.746	866.455
251.161	14.944	1152.022	866.886
252.176	14.735	1151.533	865.358
253.190	14.904	1150.612	865.463
254.205	14.897	1150.119	864.980
255.220	14.906	1149.711	864.642
256.234	14.926	1148.940	864.087
257.249	14.968	1148.017	863.534
258.263	14.845	1147.852	862.700
259.278	14.993	1146.943	862.707
260.293	14.869	1146.384	861.567
261.307	14.942	1145.533	861.230
262.322	14.930	1145.517	861.080
263.336	15.108	1144.550	861.193
264.351	15.042	1144.024	860.381
265.366	15.012	1143.139	859.481
266.380	15.162	1142.279	859.529
267.395	15.082	1141.614	858.544
268.409	15.059	1140.781	857.722
269.424	15.037	1140.254	857.140
270.439	15.065	1139.846	856.900
271.453	14.981	1139.337	856.013
272.468	15.044	1138.202	855.403
273.482	15.015	1137.147	854.390
274.497	15.108	1136.687	854.444
275.512	15.107	1136.247	854.031
276.526	15.154	1135.249	853.445
277.541	15.110	1134.654	852.699
278.555	15.096	1134.025	852.080
279.570	15.169	1133.381	851.890
280.585	15.266	1132.613	851.728
281.599	15.157	1131.338	850.140
282.614	15.362	1130.353	850.368
283.628	15.229	1129.133	848.699
284.643	15.351	1128.507	848.772
285.657	15.249	1127.670	847.552
286.672	15.295	1126.855	847.098
287.687	15.354	1125.686	846.441
288.701	15.352	1125.186	845.978
289.716	15.350	1124.408	845.308
290.730	15.380	1124.000	845.077
291.745	15.436	1123.207	844.687
292.760	15.388	1122.258	843.662
293.774	15.366	1121.892	843.199
294.789	15.479	1121.853	843.662
295.803	15.559	1120.852	843.238
296.818	15.440	1120.006	841.930
297.833	15.430	1119.567	841.475
298.847	15.417	1118.610	840.618
299.862	15.403	1117.935	839.966
300.876	15.494	1116.866	839.541
301.891	15.553	1116.407	839.416
302.906	15.716	1115.130	839.195
303.920	15.625	1114.837	838.447
304.935	15.666	1114.519	838.341
305.949	15.737	1113.485	837.841
306.964	15.736	1112.948	837.356
307.979	15.580	1112.665	836.296
308.993	15.708	1111.364	835.878
310.008	15.807	1110.557	835.690
311.022	15.692	1110.073	834.683
312.037	15.732	1108.894	833.919
313.052	15.754	1108.205	833.434
314.066	15.687	1107.181	832.261
315.081	15.626	1106.200	831.148
316.095	15.627	1105.973	830.910
317.110	15.652	1105.139	830.332
318.125	15.682	1104.488	829.918
319.139	15.745	1103.563	829.462
320.154	15.680	1102.961	828.615
321.168	15.659	1102.719	828.256
322.183	15.678	1102.169	827.863
323.197	15.903	1101.008	828.022
324.212	15.717	1101.061	827.077
325.227	15.785	1100.147	826.652
326.241	15.846	1099.502	826.389
327.256	15.819	1098.647	825.542
328.270	15.766	1097.849	824.611
329.285	15.772	1097.283	824.139
330.300	15.944	1096.121	824.037
331.314	15.762	1095.031	822.255
332.329	15.702	1094.502	821.493
333.343	15.892	1093.492	821.590
334.358	15.967	1092.473	821.116
335.373	15.942	1091.820	820.430
336.387	15.980	1091.195	820.072
337.402	15.987	1090.273	819.344
338.416	16.052	1089.910	819.314
339.431	15.958	1089.513	818.487
340.446	15.953	1088.899	817.928
341.460	15.937	1088.355	817.371
342.475	16.102	1087.220	817.244
343.489	16.228	1086.259	817.060
344.504	16.252	1085.275	816.361
345.519	16.282	1084.093	815.546
346.533	16.315	1083.627	815.282
347.548	16.210	1083.153	814.347
348.562	16.317	1082.070	813.978
349.577	16.230	1081.461	813.029
350.592	16.254	1080.794	812.570
351.606	16.165	1079.832	811.347
352.621	16.221	1079.536	811.323
353.635	16.175	1078.900	810.550
354.650	16.213	1077.586	809.674
355.665	16.215	1077.046	809.209
356.679	16.239	1076.598	808.912
357.694	16.219	1076.145	808.406
358.708	16.362	1075.349	808.420
359.723	16.290	1074.806	807.594
360.738	16.348	1074.035	807.223
361.752	16.354	1073.356	806.669
362.767	16.361	1072.752	806.181
363.781	16.471	1071.937	806.017
364.796	16.492	1071.386	805.633
365.810	16.545	1071.135	805.628
366.825	16.600	1070.275	805.171
367.840	16.549	1070.183	804.786
368.854	16.624	1069.481	804.543
369.869	16.646	1068.849	804.100
370.883	16.507	1067.786	802.569
371.898	16.656	1067.413	802.924
372.913	16.515	1067.031	801.899
373.927	16.456	1066.547	801.187
374.942	16.615	1066.060	801.501
375.956	16.724	1064.980	801.133
376.971	16.709	1064.425	800.576
377.986	16.751	1063.699	800.158
379.000	16.834	1063.495	800.325
380.015	16.787	1062.581	799.344
381.029	16.847	1061.899	799.044
382.044	16.754	1061.946	798.568
383.059	16.842	1060.894	798.123
384.073	16.754	1060.203	797.119
385.088	16.887	1058.884	796.682
386.102	16.904	1058.023	796.044
387.117	16.864	1057.109	795.094
388.132	16.857	1056.436	794.487
389.146	16.772	1055.432	793.263
390.161	16.868	1054.706	793.095
391.175	16.757	1054.261	792.172
392.190	16.808	1053.868	792.044
393.205	16.871	1053.091	791.688
394.219	17.035	1051.979	791.544
395.234	16.888	1051.166	790.179
396.248	16.784	1050.471	789.101
397.263	16.855	1049.535	788.657
398.278	16.906	1048.325	787.919
399.292	16.918	1047.684	787.423
400.307	16.894	1046.993	786.722
401.321	16.998	1046.363	786.661
402.336	16.981	1045.754	786.054
403.350	16.959	1044.864	785.212
404.365	17.052	1044.134	785.023
405.380	17.062	1043.394	784.446
406.394	16.968	1042.898	783.571
407.409	17.110	1042.053	783.521
408.423	16.992	1041.768	782.690
409.438	17.121	1040.818	782.505
410.453	17.155	1040.114	782.063
411.467	17.288	1039.466	782.117
412.482	17.296	1038.368	781.257
413.496	17.227	1038.015	780.609
414.511	17.185	1037.893	780.252
415.526	17.355	1037.196	780.439
416.540	17.459	1036.703	780.479
417.555	17.398	1036.362	779.871
418.569	17.344	1035.875	779.188
419.584	17.423	1035.147	778.935
420.599	17.414	1034.880	778.626
421.613	103.476	1322.386	1469.728
422.628	94.816	1364.239	1469.821
