DTS Sentinel unit serial number:	SN413079Multiplexer serial number:	ORYXHardware model number:	OX4-SRSoftware version number:	ORYX F/W v4.00 Oryx Data Collector v3.7.2.0data status	okinstallation	princeton_trtdifferential loss correction	single-endedforward channel	channel 2reverse channel	N/Adate	2019/09/16time	21:15:35forward acquisition time	60.00reverse acquisition time	0.00gamma	496.2192k internal	0.2329k external	0.2329temperature offset calibration	0.9965default loss term (dB/km)	0.3790temperature slope calibration	1.0000multiplexer offset coefficient	1.0000multiplexer slope coefficient	1.0000fibre end	0.00T internal ref (°C)	31.73T ext. ref 1 (°C)	0.05T ext. ref 2 (°C)	25.51length (m)	temperature (°C)	Stokes	anti-Stokes-747.200	-109.626	-0.346	-0.073
-746.185	-200.000	0.131	-0.661
-745.171	83.589	-0.180	-0.197
-744.156	-114.261	-0.138	0.027
-743.142	284.616	0.104	-0.189
-742.127	630.920	-0.146	0.373
-741.112	-200.000	-0.031	0.264
-740.098	468.878	0.075	0.169
-739.083	62.916	-0.226	0.228
-738.069	-46.048	0.173	-0.086
-737.054	-127.759	-0.074	0.011
-736.039	-104.659	-0.511	0.119
-735.025	44.100	0.258	0.238
-734.010	800.000	-0.088	-0.308
-732.996	800.000	-0.102	-0.299
-731.981	24.648	0.210	0.175
-730.966	218.620	-0.055	-0.088
-729.952	12.027	-0.158	-0.123
-728.937	800.000	-0.084	0.247
-727.923	-44.168	-0.167	-0.085
-726.908	-43.148	-0.079	-0.040
-725.894	-34.182	-0.442	-0.244
-724.879	-200.000	0.020	-0.257
-723.864	-189.783	-0.549	0.006
-722.850	144.865	0.072	-0.097
-721.835	183.339	-0.090	0.134
-720.821	37.721	0.163	-0.145
-719.806	18.388	-0.225	0.181
-718.791	-129.416	0.198	-0.028
-717.777	800.000	-0.072	0.314
-716.762	-200.000	-0.019	0.189
-715.748	800.000	0.129	0.482
-714.733	-49.458	-0.352	-0.169
-713.718	800.000	-0.075	-0.210
-712.704	47.360	0.027	0.025
-711.689	-133.148	-0.379	-0.048
-710.675	-154.848	-0.496	-0.033
-709.660	-87.043	-0.227	-0.070
-708.645	-104.502	0.206	-0.048
-707.631	-154.645	-0.070	0.005
-706.616	-22.331	0.132	0.080
-705.602	-100.568	-0.046	0.011
-704.587	-97.691	-0.257	-0.067
-703.572	800.000	-0.132	-0.462
-702.558	-200.000	0.001	-0.103
-701.543	-99.618	0.397	-0.100
-700.529	-200.000	0.000	0.129
-699.514	800.000	0.062	0.258
-698.499	-103.411	-0.174	0.041
-697.485	26.603	-0.087	0.073
-696.470	275.160	0.057	0.101
-695.456	2.511	0.286	-0.209
-694.441	245.488	0.104	-0.176
-693.426	-50.274	0.086	-0.041
-692.412	-37.205	-0.202	0.109
-691.397	-95.041	0.104	-0.028
-690.383	-200.000	-0.002	-0.247
-689.368	2.633	-0.286	-0.209
-688.354	-110.946	0.275	0.057
-687.339	-45.431	-0.162	0.081
-686.324	800.000	-0.080	-0.230
-685.310	-8.884	-0.096	0.065
-684.295	-200.000	0.028	0.342
-683.281	386.462	0.087	-0.181
-682.266	-76.783	0.076	-0.027
-681.251	57.775	0.176	0.173
-680.237	-200.000	0.004	0.258
-679.222	-85.091	-0.155	-0.049
-678.208	-104.091	-0.077	-0.018
-677.193	4.725	-0.157	-0.116
-676.178	75.277	-0.182	-0.193
-675.164	-18.059	0.084	0.053
-674.149	-51.028	0.184	-0.087
-673.135	595.126	-0.058	-0.144
-672.120	-46.171	0.158	0.078
-671.105	-157.732	0.331	0.020
-670.091	-62.660	-0.081	0.034
-669.076	-51.732	-0.096	-0.045
-668.062	-200.000	0.066	-0.289
-667.047	800.000	-0.015	0.054
-666.032	800.000	-0.066	-0.269
-665.018	-21.819	-0.071	-0.044
-664.003	800.000	-0.096	-0.359
-662.989	800.000	0.076	-0.264
-661.974	163.317	-0.042	0.060
-660.959	800.000	-0.064	-0.229
-659.945	59.701	0.103	-0.102
-658.930	-110.701	0.126	-0.026
-657.916	271.091	0.048	-0.085
-656.901	203.486	-0.147	0.228
-655.886	19.544	-0.178	-0.144
-654.872	591.985	0.048	-0.118
-653.857	-1.887	-0.129	0.091
-652.843	-50.131	-0.071	0.034
-651.828	-95.377	0.165	-0.044
-650.814	20.983	0.193	-0.157
-649.799	-103.543	-0.478	-0.113
-648.784	569.199	0.086	-0.210
-647.770	800.000	0.093	-0.341
-646.755	-126.806	0.316	-0.047
-645.741	248.266	0.182	0.309
-644.726	-167.902	-0.438	0.017
-643.711	-200.000	-0.008	-0.155
-642.697	37.312	-0.246	-0.219
-641.682	178.120	0.094	-0.138
-640.668	115.650	-0.038	0.046
-639.653	11.899	0.091	0.071
-638.638	89.400	-0.185	-0.207
-637.624	800.000	-0.130	-0.405
-636.609	-200.000	-0.007	-0.078
-635.595	800.000	-0.047	-0.134
-634.580	-100.877	0.163	0.040
-633.565	-103.066	-0.126	0.030
-632.551	14.806	0.050	-0.039
-631.536	-38.672	0.139	0.074
-630.522	-200.000	-0.019	-0.370
-629.507	-108.594	-0.079	-0.017
-628.492	774.409	0.124	-0.340
-627.478	-16.392	-0.089	-0.057
-626.463	-30.997	-0.207	0.117
-625.449	-200.000	-0.029	0.165
-624.434	-200.000	0.002	-0.102
-623.419	800.000	0.072	-0.203
-622.405	-200.000	-0.005	0.119
-621.390	-63.385	0.518	0.214
-620.376	103.898	-0.151	0.178
-619.361	310.831	-0.070	-0.132
-618.346	26.042	0.125	-0.105
-617.332	18.688	0.135	-0.108
-616.317	-144.837	0.264	-0.024
-615.303	49.873	0.179	0.169
-614.288	175.448	-0.103	-0.149
-613.273	-135.573	-0.273	-0.033
-612.259	-200.000	0.030	0.137
-611.244	-2.857	0.358	0.251
-610.230	-7.197	0.058	0.039
-609.215	258.902	0.140	0.242
-608.201	800.000	-0.068	-0.276
-607.186	215.964	0.128	0.204
-606.171	800.000	-0.030	-0.109
-605.157	-177.751	0.218	0.005
-604.142	-164.524	-0.142	-0.006
-603.128	53.637	0.190	0.183
-602.113	800.000	0.049	0.177
-601.098	45.210	-0.425	-0.392
-600.084	661.738	0.102	0.263
-599.069	-159.439	0.089	0.005
-598.055	-44.243	0.184	-0.092
-597.040	-200.000	-0.025	0.192
-596.025	160.771	0.079	0.110
-595.011	638.467	0.068	-0.174
-593.996	-8.504	0.138	-0.093
-592.982	-33.597	0.107	0.059
-591.967	3.456	-0.148	0.108
-590.952	777.097	0.089	-0.243
-589.938	44.258	-0.119	-0.109
-588.923	137.818	0.110	-0.144
-587.909	-96.107	-0.131	-0.035
-586.894	-99.025	0.159	0.040
-585.879	385.932	0.151	0.311
-584.865	163.644	-0.155	-0.219
-583.850	-144.153	-0.048	-0.005
-582.836	-200.000	-0.015	0.179
-581.821	401.116	0.112	0.235
-580.806	105.082	0.209	-0.247
-579.792	800.000	-0.045	0.160
-578.777	-99.232	0.345	-0.087
-577.763	-100.616	0.207	0.051
-576.748	800.000	-0.137	-0.420
-575.733	60.296	-0.149	-0.147
-574.719	-34.331	-0.260	0.143
-573.704	278.417	0.076	0.136
-572.690	800.000	-0.077	-0.221
-571.675	-77.035	-0.107	-0.037
-570.661	166.814	0.313	0.444
-569.646	-20.774	0.223	-0.137
-568.631	349.000	-0.163	-0.323
-567.617	800.000	0.052	0.158
-566.602	-31.327	-0.198	-0.111
-565.588	-200.000	0.001	-0.157
-564.573	26.223	0.344	0.287
-563.558	486.300	0.092	0.210
-562.544	24.120	0.148	-0.122
-561.529	800.000	0.069	0.276
-560.515	-200.000	0.035	-0.221
-559.500	-200.000	-0.031	-0.194
-558.485	-120.449	-0.545	0.093
-557.471	-200.000	-0.011	-0.137
-556.456	-77.087	-0.158	-0.055
-555.442	-72.612	0.099	0.037
-554.427	-123.745	-0.437	0.069
-553.412	476.322	0.154	0.347
-552.398	-134.315	-0.281	0.034
-551.383	800.000	-0.133	0.566
-550.369	539.153	0.045	0.107
-549.354	-73.502	-0.274	0.100
-548.339	333.612	0.152	-0.294
-547.325	-14.399	-0.039	-0.025
-546.310	-38.252	-0.110	0.058
-545.296	-14.429	-0.299	-0.192
-544.281	161.764	-0.217	-0.303
-543.266	-200.000	0.008	-0.105
-542.252	-94.155	-0.269	0.074
-541.237	369.721	0.028	-0.056
-540.223	-3.343	0.285	-0.198
-539.208	-1.214	-0.126	0.089
-538.193	800.000	0.021	0.072
-537.179	-79.205	0.374	0.127
-536.164	-47.220	-0.097	0.047
-535.150	32.160	0.204	-0.176
-534.135	34.609	-0.151	0.132
-533.121	-163.356	-0.235	0.011
-532.106	800.000	0.036	-0.155
-531.091	-65.474	0.196	0.079
-530.077	800.000	0.019	-0.083
-529.062	338.393	-0.092	0.179
-528.048	165.615	0.017	-0.025
-527.033	427.596	-0.157	0.339
-526.018	-200.000	-0.031	-0.215
-525.004	45.638	-0.094	-0.087
-523.989	-19.938	-0.189	0.117
-522.975	-112.462	0.266	0.053
-521.960	639.523	-0.057	0.144
-520.945	165.041	-0.022	-0.032
-519.931	-200.000	0.006	-0.099
-518.916	277.738	0.158	-0.280
-517.902	-200.000	-0.080	-0.357
-516.887	800.000	0.079	-0.239
-515.872	510.251	0.028	-0.066
-514.858	-62.615	-0.337	-0.140
-513.843	222.774	-0.234	0.377
-512.829	98.938	-0.199	0.229
-511.814	86.152	-0.160	0.176
-510.799	800.000	-0.057	0.235
-509.785	45.954	-0.062	-0.057
-508.770	-200.000	-0.084	-0.432
-507.756	172.664	0.224	-0.322
-506.741	391.580	-0.123	0.254
-505.726	-200.000	0.024	-0.123
-504.712	698.578	-0.027	-0.070
-503.697	-200.000	-0.020	0.160
-502.683	800.000	-0.047	0.136
-501.668	800.000	0.106	0.299
-500.653	-127.703	0.255	-0.037
-499.639	-103.624	0.197	-0.046
-498.624	109.321	-0.235	0.281
-497.610	-85.025	0.139	0.044
-496.595	-114.126	-0.111	0.021
-495.581	800.000	-0.030	-0.104
-494.566	-200.000	-0.004	-0.161
-493.551	-114.259	-0.390	0.075
-492.537	-137.332	-0.265	-0.030
-491.522	81.226	0.177	0.191
-490.508	800.000	0.026	-0.101
-489.493	349.620	-0.134	-0.263
-488.478	-73.680	-0.212	0.077
-487.464	-64.829	0.253	0.102
-486.449	534.977	0.027	0.065
-485.435	-200.000	0.014	-0.151
-484.420	-200.000	-0.079	0.346
-483.405	83.299	-0.137	-0.148
-482.391	-92.878	-0.142	-0.040
-481.376	-53.932	-0.168	-0.076
-480.362	186.188	-0.063	-0.093
-479.347	23.797	0.156	0.129
-478.332	619.516	-0.060	0.150
-477.318	368.547	0.100	-0.202
-476.303	616.312	-0.090	0.225
-475.289	107.416	-0.086	-0.101
-474.274	-7.679	0.137	-0.092
-473.259	-200.000	-0.025	0.284
-472.245	-61.362	-0.219	-0.092
-471.230	-105.487	-0.266	-0.060
-470.216	367.562	-0.019	-0.038
-469.201	-200.000	0.092	-0.440
-468.186	-95.723	-0.165	-0.044
-467.172	-61.869	0.175	-0.073
-466.157	-200.000	-0.038	-0.177
-465.143	-12.264	0.149	0.097
-464.128	279.480	-0.254	0.451
-463.113	222.721	0.161	0.258
-462.099	800.000	0.063	-0.257
-461.084	-106.300	-0.204	-0.046
-460.070	653.809	0.028	-0.073
-459.055	-7.621	0.197	-0.133
-458.040	50.579	-0.137	-0.129
-457.026	134.288	-0.050	-0.065
-456.011	36.191	0.203	0.178
-454.997	-141.708	-0.183	-0.018
-453.982	281.218	0.069	-0.123
-452.968	-200.000	-0.024	0.156
-451.953	-200.000	-0.007	0.163
-450.938	-33.395	-0.233	0.129
-449.924	320.505	-0.050	-0.094
-448.909	800.000	0.099	0.310
-447.895	-113.301	-0.197	0.038
-446.880	-164.217	-0.202	0.009
-445.865	-25.752	0.303	-0.178
-444.851	-200.000	0.060	0.371
-443.836	13.913	-0.056	-0.043
-442.822	-16.386	0.159	0.100
-441.807	336.376	0.220	0.424
-440.792	267.693	0.177	0.309
-439.778	70.550	-0.056	-0.057
-438.763	-100.309	0.222	0.055
-437.749	-173.107	-0.264	0.008
-436.734	-92.745	-0.265	0.074
-435.719	-40.153	0.328	-0.170
-434.705	-200.000	0.017	-0.206
-433.690	723.384	0.153	0.406
-432.676	-46.161	0.042	0.021
-431.661	-82.087	0.170	0.055
-430.646	277.119	-0.079	0.140
-429.632	-24.310	-0.325	-0.193
-428.617	80.479	-0.180	-0.193
-427.603	-84.428	0.048	0.015
-426.588	-32.100	0.109	0.061
-425.573	-91.081	0.268	0.076
-424.559	240.271	0.094	-0.156
-423.544	591.820	-0.114	-0.279
-422.530	419.356	-0.146	0.311
-421.515	790.834	0.102	0.278
-420.500	257.227	-0.099	0.169
-419.486	-12.491	-0.151	0.098
-418.471	-48.121	-0.100	-0.048
-417.457	398.011	-0.186	0.388
-416.442	28.956	-0.151	0.127
-415.428	-116.230	-0.261	-0.048
-414.413	-149.351	-0.261	0.021
-413.398	587.630	-0.095	0.234
-412.384	-37.989	-0.191	-0.101
-411.369	301.965	0.228	0.418
-410.355	-173.395	0.258	-0.008
-409.340	-200.000	0.003	0.035
-408.325	-172.280	-0.216	-0.007
-407.311	292.384	-0.122	0.222
-406.296	-200.000	-0.003	0.071
-405.282	45.833	0.087	0.080
-404.267	-48.243	0.115	0.055
-403.252	-101.120	0.283	-0.069
-402.238	-68.711	0.440	0.169
-401.223	800.000	-0.061	0.183
-400.209	-88.829	0.366	-0.108
-399.194	800.000	0.049	0.174
-398.179	-111.317	0.115	-0.023
-397.165	-200.000	0.041	0.209
-396.150	-95.745	-0.210	0.056
-395.136	306.333	-0.030	0.056
-394.121	-33.422	-0.238	0.131
-393.106	800.000	0.095	0.320
-392.092	-39.367	-0.100	-0.052
-391.077	97.139	-0.105	-0.120
-390.063	-40.640	-0.174	-0.090
-389.048	-53.069	-0.040	0.018
-388.033	-31.666	0.039	0.022
-387.019	-183.625	-0.204	0.003
-386.004	-104.505	0.274	-0.063
-384.990	79.985	-0.175	-0.187
-383.975	141.130	0.203	-0.267
-382.960	800.000	0.099	-0.295
-381.946	-59.679	-0.193	-0.082
-380.931	-29.205	0.307	-0.175
-379.917	535.404	0.079	0.186
-378.902	109.626	0.056	-0.067
-377.888	15.844	-0.078	-0.061
-376.873	133.116	0.358	0.459
-375.858	143.971	0.097	-0.129
-374.844	-122.060	0.278	0.045
-373.829	-200.000	0.048	-0.227
-372.815	-76.793	0.150	-0.052
-371.800	-95.485	0.295	0.079
-370.785	800.000	-0.072	0.268
-369.771	-78.062	-0.204	-0.070
-368.756	157.741	-0.205	0.282
-367.742	695.815	0.120	0.312
-366.727	-200.000	0.017	0.095
-365.712	-200.000	0.006	0.238
-364.698	-120.650	0.242	-0.041
-363.683	-200.000	-0.013	0.272
-362.669	-200.000	-0.012	-0.246
-361.654	-87.843	0.471	0.141
-360.639	400.100	0.054	-0.112
-359.625	-35.156	0.121	-0.065
-358.610	-125.499	0.119	-0.018
-357.596	333.431	-0.126	-0.241
-356.581	800.000	-0.037	0.153
-355.566	-4.082	-0.351	0.241
-354.552	6.958	0.136	0.101
-353.537	195.477	-0.119	0.179
-352.523	133.848	0.129	-0.165
-351.508	10.802	0.140	-0.106
-350.493	178.792	0.018	-0.027
-349.479	-200.000	0.010	0.268
-348.464	12.386	-0.413	-0.316
-347.450	-28.910	-0.388	-0.221
-346.435	-14.701	-0.256	0.163
-345.420	75.806	-0.142	-0.149
-344.406	167.810	-0.215	-0.304
-343.391	-160.985	0.343	0.018
-342.377	41.040	-0.135	0.121
-341.362	53.617	-0.125	0.119
-340.348	97.981	0.186	-0.212
-339.333	-69.862	0.261	-0.099
-338.318	-164.609	0.190	-0.009
-337.304	222.516	0.048	0.077
-336.289	177.906	-0.032	0.047
-335.275	-200.000	0.013	-0.069
-334.260	44.353	0.243	0.221
-333.245	-40.657	0.203	0.104
-332.231	62.472	0.185	0.183
-331.216	189.102	0.051	-0.076
-330.202	236.123	-0.151	-0.248
-329.187	-30.931	0.133	-0.074
-328.172	-99.794	-0.270	0.067
-327.158	46.345	-0.113	-0.104
-326.143	800.000	0.062	-0.263
-325.129	-35.761	0.068	-0.037
-324.114	8.444	0.280	-0.208
-323.099	382.012	0.115	-0.233
-322.085	800.000	0.125	-0.432
-321.070	-51.815	0.245	0.113
-320.056	-33.237	0.201	0.110
-319.041	-200.000	-0.020	0.116
-318.026	208.942	0.145	-0.225
-317.012	-200.000	0.048	-0.239
-315.997	-200.000	0.010	0.550
-314.983	113.712	-0.176	0.212
-313.968	153.012	-0.141	-0.190
-312.953	143.270	0.104	0.137
-311.939	-200.000	0.068	-0.452
-310.924	800.000	-0.070	-0.275
-309.910	-200.000	0.032	-0.244
-308.895	434.553	0.107	-0.230
-307.880	624.984	0.104	-0.261
-306.866	-78.962	-0.155	0.052
-305.851	-200.000	0.002	-0.110
-304.837	-39.657	-0.068	-0.035
-303.822	19.177	0.299	0.238
-302.807	800.000	-0.034	-0.097
-301.793	-164.098	0.247	0.011
-300.778	305.259	0.138	0.254
-299.764	800.000	0.091	-0.251
-298.749	778.852	0.116	-0.313
-297.735	75.395	0.162	0.170
-296.720	800.000	-0.037	0.143
-295.705	-28.969	0.178	0.101
-294.691	10.882	-0.236	0.178
-293.676	310.449	-0.163	-0.302
-292.662	56.058	-0.120	-0.115
-291.647	-166.487	0.292	-0.012
-290.632	-18.356	0.182	0.112
-289.618	250.070	-0.186	-0.313
-288.603	-200.000	0.052	0.281
-287.589	800.000	0.082	-0.331
-286.574	96.697	-0.134	-0.151
-285.559	312.619	-0.125	-0.232
-284.545	40.302	0.137	0.122
-283.530	-200.000	0.004	-0.337
-282.516	-200.000	-0.030	-0.248
-281.501	235.986	-0.125	0.204
-280.486	-200.000	0.015	-0.084
-279.472	-130.628	-0.165	-0.022
-278.457	-156.333	0.358	0.022
-277.443	-96.926	-0.298	-0.077
-276.428	-81.648	-0.308	0.100
-275.413	800.000	-0.059	-0.168
-274.399	-25.938	-0.311	0.181
-273.384	574.313	0.183	0.442
-272.370	190.484	0.173	-0.257
-271.355	-31.047	-0.174	0.097
-270.340	800.000	-0.132	0.401
-269.326	-148.582	0.264	-0.021
-268.311	-41.048	-0.102	0.052
-267.297	150.699	0.110	0.148
-266.282	33.723	0.181	-0.156
-265.267	646.199	-0.114	-0.288
-264.253	-200.000	-0.043	0.406
-263.238	102.653	-0.223	-0.258
-262.224	-82.453	0.075	-0.024
-261.209	-52.114	-0.116	-0.053
-260.195	-55.882	0.107	-0.047
-259.180	-112.553	0.028	-0.005
-258.165	110.569	-0.151	-0.180
-257.151	800.000	0.071	-0.205
-256.136	208.125	0.051	0.079
-255.122	372.321	0.104	0.209
-254.107	98.658	0.154	0.176
-253.092	-200.000	-0.010	0.157
-252.078	-200.000	-0.012	0.273
-251.063	-12.144	-0.315	-0.204
-250.049	110.873	0.085	-0.101
-249.034	-200.000	-0.044	-0.311
-248.019	-72.048	0.251	0.092
-247.005	21.224	-0.208	-0.167
-245.990	224.353	0.237	-0.378
-244.976	111.389	-0.162	0.193
-243.961	-200.000	-0.007	0.215
-242.946	182.272	0.189	-0.276
-241.932	-79.715	0.151	-0.050
-240.917	575.390	-0.079	-0.191
-239.903	48.599	-0.129	-0.120
-238.888	259.653	0.060	-0.103
-237.873	-44.228	-0.336	-0.166
-236.859	-200.000	0.060	0.446
-235.844	797.234	0.120	-0.325
-234.830	800.000	0.059	0.177
-233.815	800.000	-0.163	0.485
-232.800	70.097	-0.115	0.117
-231.786	127.014	-0.264	0.330
-230.771	60.627	-0.293	-0.287
-229.757	800.000	-0.074	0.205
-228.742	-39.151	0.396	0.206
-227.727	298.325	-0.208	0.378
-226.713	-10.122	0.178	-0.117
-225.698	-68.925	-0.059	-0.023
-224.684	79.981	-0.044	-0.047
-223.669	-152.170	0.256	-0.018
-222.655	218.379	-0.092	-0.146
-221.640	-200.000	0.008	-0.192
-220.625	-20.295	-0.230	-0.140
-219.611	-29.949	-0.309	-0.174
-218.596	58.981	-0.025	0.025
-217.582	-146.837	-0.189	0.016
-216.567	-200.000	0.014	-0.231
-215.552	22.752	-0.151	-0.122
-214.538	-123.400	0.100	0.016
-213.523	-75.744	-0.010	0.004
-212.509	-141.052	0.148	-0.015
-211.494	30.545	-0.256	0.216
-210.479	-68.557	0.237	0.091
-209.465	-22.838	-0.102	0.061
-208.450	-53.006	-0.113	0.051
-207.436	14.295	0.084	-0.064
-206.421	-105.898	0.207	0.046
-205.406	-20.676	0.222	0.135
-204.392	-125.099	-0.178	-0.027
-203.377	-200.000	0.048	-0.433
-202.363	-12.823	0.072	-0.046
-201.348	-200.000	0.017	0.261
-200.333	800.000	0.132	0.435
-199.319	-111.229	-0.264	-0.053
-198.304	-30.327	0.088	0.049
-197.290	176.505	0.064	0.091
-196.275	-54.554	-0.364	-0.162
-195.260	-98.337	0.265	-0.067
-194.246	-26.836	0.074	0.043
-193.231	62.553	0.093	0.092
-192.217	277.540	-0.250	-0.439
-191.202	55.923	-0.073	0.070
-190.187	800.000	-0.061	-0.199
-189.173	-184.712	-0.351	-0.006
-188.158	-71.986	-0.188	-0.069
-187.144	-137.274	-0.120	-0.013
-186.129	-200.000	-0.048	0.212
-185.114	422.220	-0.045	-0.095
-184.100	235.768	-0.118	-0.193
-183.085	-173.677	-0.088	-0.003
-182.071	2.070	0.281	0.200
-181.056	139.721	0.103	0.134
-180.042	34.038	-0.036	0.031
-179.027	-50.983	-0.213	-0.099
-178.012	-62.922	0.083	0.034
-176.998	-200.000	-0.024	-0.219
-175.983	-83.297	0.044	0.014
-174.969	254.940	-0.203	-0.343
-173.954	-63.796	-0.174	0.070
-172.939	-94.570	0.460	0.123
-171.925	-156.797	0.287	0.017
-170.910	-54.903	0.135	0.060
-169.896	800.000	0.030	0.105
-168.881	800.000	-0.094	-0.255
-167.866	125.366	0.150	-0.187
-166.852	-27.574	0.260	0.149
-165.837	-200.000	0.038	0.369
-164.823	-200.000	-0.032	0.176
-163.808	-200.000	0.038	0.332
-162.793	202.785	-0.149	0.227
-161.779	741.888	0.117	0.310
-160.764	219.212	-0.074	-0.116
-159.750	206.513	-0.051	-0.078
-158.735	-79.605	0.185	0.062
-157.720	-18.191	-0.274	-0.169
-156.706	5.681	-0.105	0.077
-155.691	-9.576	-0.147	-0.096
-154.677	-45.329	0.194	-0.095
-153.662	277.583	0.055	0.097
-152.647	-11.026	0.291	-0.189
-151.633	-30.322	0.117	-0.065
-150.618	157.312	0.046	0.062
-149.604	800.000	0.112	0.403
-148.589	-200.000	-0.017	0.078
-147.574	798.010	-0.100	-0.272
-146.560	-114.783	-0.202	0.038
-145.545	448.815	-0.033	0.072
-144.531	-129.680	0.334	0.045
-143.516	-53.895	-0.081	0.037
-142.502	-200.000	-0.010	-0.224
-141.487	250.780	0.041	0.068
-140.472	27.379	0.162	-0.134
-139.458	-82.913	-0.227	-0.072
-138.443	-200.000	-0.018	0.212
-137.429	-111.131	0.176	-0.036
-136.414	-154.594	0.476	0.031
-135.399	-61.506	0.198	-0.082
-134.385	-200.000	-0.008	-0.104
-133.370	-21.764	-0.257	0.154
-132.356	49.635	-0.072	0.067
-131.341	393.343	0.096	-0.197
-130.326	246.315	-0.077	-0.128
-129.312	-200.000	0.001	-0.133
-128.297	-200.000	-0.000	-0.037
-127.283	0.202	-0.144	0.101
-126.268	-47.625	-0.173	0.083
-125.253	-200.000	-0.004	-0.144
-124.239	27.238	-0.230	0.190
-123.224	-74.396	-0.185	-0.065
-122.210	-22.517	-0.194	-0.116
-121.195	-200.000	0.011	-0.064
-120.180	22.577	0.169	0.136
-119.166	45.066	0.225	0.204
-118.151	-200.000	0.106	-0.525
-117.137	282.017	-0.091	0.160
-116.122	-109.648	0.161	-0.033
-115.107	0.903	0.083	0.058
-114.093	-173.761	0.302	0.009
-113.078	-11.400	0.032	0.021
-112.064	-96.730	0.249	0.064
-111.049	800.000	-0.049	-0.171
-110.034	-47.167	0.312	-0.150
-109.020	-37.335	0.339	-0.178
-108.005	800.000	0.060	0.169
-106.991	-86.637	0.286	0.086
-105.976	-148.604	0.568	0.045
-104.962	30.350	0.246	-0.207
-103.947	285.293	0.065	-0.116
-102.932	800.000	0.089	0.326
-101.918	279.954	-0.075	-0.132
-100.903	53.256	-0.096	-0.090
-99.889	-200.000	0.057	0.260
-98.874	800.000	-0.023	-0.069
-97.859	95.017	0.057	-0.064
-96.845	-65.913	0.105	-0.041
-95.830	-16.516	0.098	0.061
-94.816	279.444	-0.041	0.071
-93.801	20.934	0.063	-0.050
-92.786	234.300	-0.118	-0.190
-91.772	-200.000	-0.002	0.132
-90.757	-3.138	0.124	-0.085
-89.743	134.659	-0.076	-0.097
-88.728	341.220	-0.108	-0.207
-87.713	-26.552	0.169	-0.097
-86.699	-72.438	-0.121	0.044
-85.684	219.352	0.177	-0.277
-84.670	-200.000	-0.005	-0.233
-83.655	-29.057	0.043	0.024
-82.640	-200.000	0.009	0.077
-81.626	-200.000	-0.059	-0.711
-80.611	-41.040	0.357	0.181
-79.597	-30.711	0.190	0.106
-78.582	800.000	-0.021	-0.077
-77.567	-76.366	0.255	-0.088
-76.553	-60.100	-0.157	0.066
-75.538	800.000	-0.037	-0.133
-74.524	41.723	-0.046	0.041
-73.509	800.000	0.015	-0.056
-72.494	120.846	0.105	0.128
-71.480	-54.435	-0.176	-0.078
-70.465	-42.002	0.140	-0.070
-69.451	-200.000	-0.020	-0.166
-68.436	172.817	-0.195	-0.276
-67.422	-187.423	-0.309	-0.004
-66.407	-200.000	0.072	0.352
-65.392	239.191	-0.083	-0.136
-64.378	800.000	-0.116	0.341
-63.363	800.000	0.053	0.201
-62.349	-164.442	0.117	0.005
-61.334	162.591	-0.837	-1.151
-60.319	143.935	0.416	0.544
-59.305	-200.000	-0.174	-1.126
-58.290	760.148	0.317	0.842
-57.276	439.539	0.774	1.658
-56.261	-200.000	97.498	596.236
-55.246	539.165	1386.606	3234.501
-54.232	160.968	2562.023	3509.914
-53.217	106.788	2263.975	2634.980
-52.203	41.192	1891.790	1676.478
-51.188	35.018	1683.507	1445.397
-50.173	32.345	1639.912	1388.211
-49.159	50.319	1687.658	1563.512
-48.144	51.837	1703.662	1589.625
-47.130	34.707	1664.610	1426.623
-46.115	31.831	1651.285	1393.800
-45.100	31.694	1646.049	1388.306
-44.086	31.667	1643.563	1385.960
-43.071	31.711	1640.807	1383.899
-42.057	31.602	1638.842	1381.384
-41.042	31.616	1636.977	1379.862
-40.027	31.685	1635.138	1378.765
-39.013	31.673	1632.580	1376.465
-37.998	31.550	1631.598	1374.682
-36.984	31.644	1630.133	1374.079
-35.969	31.745	1628.223	1373.158
-34.954	31.782	1626.862	1372.229
-33.940	31.758	1624.871	1370.319
-32.925	31.795	1623.271	1369.185
-31.911	31.686	1621.636	1366.951
-30.896	31.708	1620.192	1365.843
-29.881	31.652	1618.400	1363.873
-28.867	31.718	1616.966	1363.085
-27.852	31.698	1615.309	1361.493
-26.838	31.731	1613.999	1360.570
-25.823	31.783	1612.208	1359.389
-24.809	31.792	1611.133	1358.491
-23.794	31.785	1609.346	1356.876
-22.779	31.671	1608.308	1355.124
-21.765	31.786	1606.487	1354.370
-20.750	31.702	1604.827	1352.308
-19.736	31.811	1604.092	1352.422
-18.721	31.788	1602.265	1350.663
-17.706	31.773	1600.558	1349.061
-16.692	31.769	1599.586	1348.162
-15.677	31.749	1598.081	1346.695
-14.663	31.793	1597.065	1346.098
-13.648	31.722	1595.733	1344.418
-12.633	31.726	1593.640	1342.626
-11.619	31.742	1592.184	1341.461
-10.604	31.736	1590.553	1339.994
-9.590	31.709	1589.742	1339.062
-8.575	31.796	1588.520	1338.598
-7.560	31.882	1586.904	1337.798
-6.546	31.732	1586.187	1336.071
-5.531	31.829	1584.791	1335.538
-4.517	31.857	1583.573	1334.653
-3.502	31.734	1582.425	1332.758
-2.487	31.829	1580.856	1332.064
-1.473	31.455	1568.706	1319.131
-0.458	28.429	1549.475	1281.788
0.556	22.801	1549.932	1248.942
1.571	20.400	1573.464	1250.523
2.586	19.925	1586.699	1257.479
3.600	18.078	1534.327	1202.881
4.615	10.165	1424.778	1064.991
5.629	1.984	1359.026	964.208
6.644	0.132	1350.561	946.475
7.659	0.128	1349.065	945.320
8.673	-0.037	1348.042	943.480
9.688	-0.003	1346.198	942.321
10.702	-0.120	1343.026	939.286
11.717	3.602	1349.303	966.941
12.731	12.417	1363.174	1032.378
13.746	17.520	1369.701	1069.360
14.761	17.288	1367.707	1066.255
15.775	16.310	1364.662	1057.666
16.790	15.228	1362.084	1048.802
17.804	14.410	1360.520	1042.391
18.819	13.887	1359.282	1038.081
19.834	13.818	1357.511	1036.208
20.848	13.572	1356.073	1033.482
21.863	13.328	1354.849	1030.942
22.877	13.052	1353.851	1028.371
23.892	12.997	1353.391	1027.588
24.907	13.016	1352.300	1026.787
25.921	13.042	1351.177	1026.007
26.936	13.070	1350.872	1025.857
27.950	13.132	1349.674	1025.242
28.965	13.175	1348.520	1024.537
29.980	13.224	1347.698	1024.129
30.994	13.321	1347.039	1024.138
32.009	13.344	1346.162	1023.519
33.023	13.271	1344.870	1021.999
34.038	13.235	1343.519	1020.657
35.053	13.195	1342.529	1019.570
36.067	13.204	1341.890	1019.052
37.082	13.178	1340.524	1017.760
38.096	13.261	1339.853	1017.673
39.111	13.214	1339.144	1016.755
40.126	13.171	1338.471	1015.889
41.140	13.218	1337.259	1015.170
42.155	13.115	1337.236	1014.431
43.169	13.011	1336.973	1013.499
44.184	13.042	1336.639	1013.350
45.199	12.986	1336.424	1012.753
46.213	13.142	1335.538	1012.946
47.228	13.126	1334.765	1012.177
48.242	13.197	1333.449	1011.518
49.257	13.226	1332.083	1010.572
50.271	13.098	1330.749	1008.692
51.286	13.143	1329.615	1008.013
52.301	13.259	1327.588	1007.098
53.315	13.201	1326.657	1005.951
54.330	13.150	1325.930	1004.994
55.344	13.137	1325.202	1004.278
56.359	13.107	1323.873	1003.001
57.374	13.151	1322.484	1002.122
58.388	13.059	1322.113	1001.201
59.403	13.056	1321.388	1000.543
60.417	13.076	1320.634	1000.001
61.432	13.000	1319.665	998.720
62.447	12.889	1318.732	997.255
63.461	12.918	1317.439	996.365
64.476	13.057	1315.750	995.840
65.490	12.988	1315.079	994.827
66.505	13.025	1313.753	993.955
67.520	12.939	1313.259	992.981
68.534	12.941	1311.956	991.916
69.549	12.962	1310.642	990.964
70.563	12.986	1309.595	990.225
71.578	12.902	1308.525	988.828
72.593	12.988	1307.295	988.324
73.607	12.825	1306.976	987.023
74.622	12.918	1305.535	986.403
75.636	12.924	1305.033	985.970
76.651	12.879	1304.583	985.271
77.666	12.881	1304.201	984.910
78.680	12.871	1303.729	984.404
79.695	12.979	1302.532	984.059
80.709	13.052	1301.287	983.466
81.724	13.000	1300.960	982.822
82.739	13.147	1299.906	982.814
83.753	13.148	1299.008	982.057
84.768	13.203	1297.964	981.507
85.782	13.254	1296.574	980.669
86.797	13.216	1295.797	979.773
87.812	13.135	1294.217	978.007
88.826	13.094	1293.417	977.076
89.841	13.222	1292.236	976.852
90.855	13.136	1291.205	975.477
91.870	13.221	1290.569	975.414
92.884	13.190	1289.662	974.458
93.899	13.337	1288.512	974.373
94.914	13.388	1287.729	973.991
95.928	13.352	1286.810	972.998
96.943	13.280	1286.047	971.911
97.957	13.295	1285.267	971.329
98.972	13.259	1284.149	970.185
99.987	13.309	1282.898	969.448
101.001	13.266	1282.235	968.607
102.016	13.297	1281.353	968.038
103.030	13.280	1280.571	967.258
104.045	13.305	1279.450	966.474
105.060	13.226	1278.391	965.130
106.074	13.129	1277.245	963.610
107.089	13.001	1276.034	961.864
108.103	13.034	1274.592	960.889
109.118	13.065	1272.911	959.717
110.133	13.081	1272.305	959.265
111.147	13.097	1270.869	958.189
112.162	13.079	1269.810	957.205
113.176	13.143	1268.800	956.728
114.191	13.185	1267.654	956.024
115.206	13.164	1266.484	954.936
116.220	13.142	1265.236	953.783
117.235	13.134	1264.357	952.987
118.249	13.085	1263.437	951.928
119.264	13.010	1262.393	950.624
120.279	13.049	1261.041	949.747
121.293	13.068	1260.246	949.177
122.308	13.128	1259.025	948.513
123.322	13.014	1258.310	947.236
124.337	13.081	1257.206	946.710
125.352	13.046	1255.984	945.502
126.366	13.029	1255.017	944.595
127.381	13.149	1254.048	944.468
128.395	13.153	1252.795	943.466
129.410	13.040	1252.156	942.254
130.424	13.165	1250.869	941.916
131.439	13.192	1250.363	941.603
132.454	13.141	1249.464	940.553
133.468	13.146	1248.942	940.108
134.483	13.190	1247.475	939.170
135.497	13.115	1246.863	938.197
136.512	13.143	1245.212	937.034
137.527	13.193	1244.293	936.543
138.541	13.194	1242.832	935.366
139.556	13.233	1241.355	934.391
140.570	13.242	1240.790	933.935
141.585	13.236	1239.493	932.842
142.600	13.224	1238.469	931.922
143.614	13.297	1237.423	931.462
144.629	13.367	1236.785	931.291
145.643	13.308	1235.597	929.986
146.658	13.368	1233.847	928.921
147.673	13.234	1232.724	927.240
148.687	13.310	1231.822	926.906
149.702	13.220	1230.144	925.061
150.716	13.247	1229.104	924.346
151.731	13.258	1228.201	923.650
152.746	13.281	1226.627	922.508
153.760	13.264	1225.967	921.835
154.775	13.360	1224.320	921.054
155.789	13.380	1223.541	920.494
156.804	13.343	1222.412	919.360
157.819	13.501	1221.157	919.210
158.833	13.399	1220.609	918.154
159.848	13.552	1219.206	917.861
160.862	13.499	1218.366	916.856
161.877	13.454	1217.457	915.843
162.892	13.283	1216.395	914.017
163.906	13.374	1215.160	913.511
164.921	13.410	1214.323	912.999
165.935	13.444	1213.542	912.516
166.950	13.442	1212.767	911.841
167.964	13.387	1212.419	911.198
168.979	13.381	1211.793	910.616
169.994	13.489	1210.501	910.155
171.008	13.439	1210.207	909.581
172.023	13.581	1209.506	909.754
173.037	13.562	1208.269	908.639
174.052	13.603	1207.532	908.229
175.067	13.468	1206.646	906.741
176.081	13.345	1205.700	905.275
177.096	13.478	1204.877	905.307
178.110	13.613	1203.420	904.871
179.125	13.466	1202.532	903.317
180.140	13.587	1201.177	902.881
181.154	13.622	1200.535	902.506
182.169	13.588	1198.853	900.978
183.183	13.672	1197.861	900.609
184.198	13.570	1196.655	899.072
185.213	13.621	1195.501	898.399
186.227	13.570	1194.620	897.383
187.242	13.787	1193.454	897.599
188.256	13.768	1192.500	896.701
189.271	13.784	1191.906	896.262
190.286	13.699	1190.899	894.969
191.300	13.526	1189.971	893.256
192.315	13.497	1188.882	892.208
193.329	13.564	1188.482	892.184
194.344	13.634	1187.948	892.084
195.359	13.612	1187.520	891.566
196.373	13.762	1186.754	891.715
197.388	13.710	1186.529	891.188
198.402	13.852	1185.710	891.260
199.417	13.973	1185.131	891.396
200.432	13.971	1184.259	890.647
201.446	13.957	1183.558	889.967
202.461	13.952	1182.430	889.010
203.475	14.046	1181.532	888.763
204.490	14.012	1180.429	887.672
205.504	13.985	1178.891	886.291
206.519	13.848	1177.978	884.796
207.534	13.906	1176.999	884.293
208.548	13.822	1176.114	883.103
209.563	13.930	1175.379	883.050
210.577	13.932	1174.553	882.358
211.592	13.947	1173.403	881.499
212.607	14.025	1172.751	881.342
213.621	14.019	1171.868	880.572
214.636	14.039	1171.232	880.121
215.650	14.103	1169.640	879.186
216.665	14.130	1168.865	878.665
217.680	14.099	1168.299	878.000
218.694	14.191	1167.571	877.862
219.709	14.108	1166.705	876.695
220.723	14.108	1166.144	876.196
221.738	14.118	1165.512	875.696
222.753	14.135	1164.617	875.035
223.767	14.252	1163.589	874.797
224.782	14.206	1163.322	874.278
225.796	14.332	1162.631	874.342
226.811	14.277	1162.044	873.538
227.826	14.302	1161.002	872.806
228.840	14.310	1160.388	872.311
229.855	14.246	1159.786	871.444
230.869	14.266	1158.932	870.830
231.884	14.142	1158.309	869.638
232.899	14.268	1157.420	869.550
233.913	14.297	1156.674	869.065
234.928	14.191	1156.063	867.976
235.942	14.226	1154.877	867.189
236.957	14.296	1154.210	866.977
237.972	14.297	1153.528	866.393
238.986	14.171	1152.992	865.259
240.001	14.205	1152.490	864.985
241.015	14.309	1151.419	864.645
242.030	14.315	1150.566	863.959
243.045	14.358	1149.544	863.336
244.059	14.329	1149.013	862.712
245.074	14.456	1148.345	862.788
246.088	14.402	1147.610	861.882
247.103	14.507	1146.372	861.420
248.117	14.477	1146.153	861.021
249.132	14.493	1145.402	860.465
250.147	14.582	1144.691	860.317
251.161	14.564	1144.232	859.800
252.176	14.738	1143.047	859.728
253.190	14.727	1142.626	859.280
254.205	14.775	1142.236	859.159
255.220	14.796	1141.811	858.872
256.234	14.841	1140.946	858.375
257.249	14.783	1140.369	857.568
258.263	14.805	1139.874	857.230
259.278	14.770	1139.079	856.380
260.293	14.862	1138.402	856.263
261.307	14.863	1137.898	855.815
262.322	14.749	1137.679	854.991
263.336	14.949	1136.528	855.074
264.351	14.960	1135.888	854.573
265.366	14.888	1135.527	853.858
266.380	15.005	1134.179	853.368
267.395	14.940	1134.042	852.856
268.409	14.929	1132.790	851.783
269.424	14.952	1132.103	851.306
270.439	14.992	1131.912	851.290
271.453	14.965	1131.330	850.641
272.468	14.955	1130.095	849.589
273.482	14.893	1129.390	848.666
274.497	14.866	1129.010	848.168
275.512	14.954	1127.882	847.692
276.526	14.981	1127.688	847.607
277.541	14.952	1127.164	846.993
278.555	15.032	1126.361	846.719
279.570	15.037	1125.739	846.203
280.585	15.138	1124.457	845.674
281.599	15.052	1123.957	844.791
282.614	15.182	1122.663	844.395
283.628	15.174	1121.619	843.496
284.643	15.178	1120.890	842.893
285.657	15.202	1120.075	842.325
286.672	15.222	1119.138	841.650
287.687	15.223	1117.977	840.707
288.701	15.182	1117.825	840.311
289.716	15.229	1116.522	839.494
290.730	15.239	1115.883	838.988
291.745	15.060	1115.821	837.973
292.760	15.139	1115.073	837.729
293.774	15.287	1114.318	837.829
294.789	15.283	1114.152	837.612
295.803	15.392	1112.934	837.164
296.818	15.315	1112.419	836.317
297.833	15.174	1111.894	835.147
298.847	15.297	1110.681	834.773
299.862	15.336	1110.051	834.420
300.876	15.369	1108.965	833.695
301.891	15.408	1108.802	833.692
302.906	15.445	1108.305	833.430
303.920	15.609	1107.028	833.208
304.935	15.490	1106.720	832.312
305.949	15.612	1105.906	832.233
306.964	15.499	1105.635	831.394
307.979	15.567	1104.472	830.783
308.993	15.610	1103.717	830.353
310.008	15.753	1102.513	830.078
311.022	15.779	1102.066	829.796
312.037	15.639	1101.823	828.851
313.052	15.519	1100.870	827.471
314.066	15.568	1099.840	826.863
315.081	15.562	1098.799	825.976
316.095	15.593	1097.986	825.447
317.110	15.562	1097.347	824.740
318.125	15.547	1097.030	824.358
319.139	15.596	1096.205	823.903
320.154	15.586	1095.558	823.296
321.168	15.586	1094.820	822.669
322.183	15.689	1094.372	822.762
323.197	15.672	1093.709	822.107
324.212	15.621	1092.698	821.027
325.227	15.583	1092.674	820.750
326.241	15.761	1091.649	820.776
327.256	15.620	1090.995	819.522
328.270	15.762	1089.529	819.041
329.285	15.751	1088.972	818.496
330.300	15.697	1088.174	817.561
331.314	15.602	1087.790	816.741
332.329	15.681	1086.655	816.199
333.343	15.647	1085.893	815.388
334.358	15.851	1084.689	815.401
335.373	15.719	1084.351	814.436
336.387	15.825	1083.459	814.209
337.402	15.702	1083.424	813.515
338.416	15.812	1081.998	812.905
339.431	15.820	1081.658	812.611
340.446	15.906	1080.989	812.456
341.460	15.938	1080.435	812.119
342.475	16.004	1079.238	811.466
343.489	15.954	1078.504	810.603
344.504	15.945	1077.666	809.858
345.519	16.156	1076.822	810.166
346.533	16.198	1075.713	809.461
347.548	16.120	1075.342	808.733
348.562	16.078	1074.471	807.808
349.577	16.035	1073.777	807.009
350.592	16.009	1073.242	806.408
351.606	16.077	1072.483	806.092
352.621	16.084	1071.570	805.369
353.635	16.132	1070.755	804.914
354.650	16.194	1070.266	804.773
355.665	16.082	1069.745	803.775
356.679	16.153	1068.866	803.381
357.694	16.140	1068.555	803.016
358.708	16.183	1067.567	802.408
359.723	16.168	1067.063	801.883
360.738	16.248	1066.126	801.490
361.752	16.234	1065.769	801.083
362.767	16.266	1065.476	800.944
363.781	16.272	1064.796	800.392
364.796	16.313	1064.440	800.245
365.810	16.331	1063.907	799.862
366.825	16.306	1063.339	799.244
367.840	16.403	1062.796	799.222
368.854	16.550	1061.874	799.153
369.869	16.512	1061.027	798.268
370.883	16.393	1060.461	797.212
371.898	16.362	1059.613	796.356
372.913	16.397	1059.192	796.134
373.927	16.416	1059.106	796.087
374.942	16.520	1057.726	795.468
375.956	16.564	1057.490	795.428
376.971	16.544	1057.318	795.133
377.986	16.468	1056.473	794.070
379.000	16.627	1055.761	794.211
380.015	16.557	1055.545	793.652
381.029	16.575	1054.649	792.994
382.044	16.757	1054.149	793.396
383.059	16.679	1053.467	792.451
384.073	16.656	1052.429	791.489
385.088	16.772	1051.224	791.057
386.102	16.713	1050.589	790.234
387.117	16.737	1049.464	789.427
388.132	16.744	1048.490	788.659
389.146	16.743	1047.733	788.014
390.161	16.639	1047.413	787.222
391.175	16.665	1046.583	786.650
392.190	16.638	1046.195	786.164
393.205	16.787	1045.300	786.112
394.219	16.761	1044.725	785.487
395.234	16.786	1043.733	784.790
396.248	16.835	1042.440	783.973
397.263	16.759	1041.533	782.873
398.278	16.760	1041.210	782.563
399.292	16.712	1040.561	781.786
400.307	16.665	1039.732	780.878
401.321	16.768	1038.861	780.627
402.336	16.949	1038.391	781.042
403.350	16.830	1037.297	779.602
404.365	16.809	1037.384	779.498
405.380	16.941	1035.711	778.781
406.394	16.878	1035.547	778.297
407.409	16.865	1035.090	777.825
408.423	16.934	1034.381	777.540
409.438	17.069	1033.558	777.470
410.453	17.046	1032.673	776.635
411.467	17.137	1032.021	776.490
412.482	17.183	1031.155	775.980
413.496	17.168	1030.691	775.494
414.511	17.186	1030.261	775.182
415.526	17.123	1029.997	774.627
416.540	17.283	1029.405	774.846
417.555	17.206	1028.892	774.037
418.569	17.172	1028.552	773.559
419.584	17.215	1028.352	773.536
420.599	17.216	1027.511	772.843
421.613	102.415	1319.124	1461.903
422.628	93.665	1361.592	1462.025
