DTS Sentinel unit serial number:	SN413079Multiplexer serial number:	ORYXHardware model number:	OX4-SRSoftware version number:	ORYX F/W v4.00 Oryx Data Collector v3.7.2.0data status	okinstallation	princeton_trtdifferential loss correction	single-endedforward channel	channel 2reverse channel	N/Adate	2019/09/19time	00:03:34forward acquisition time	60.00reverse acquisition time	0.00gamma	496.2192k internal	0.2352k external	0.2352temperature offset calibration	1.0016default loss term (dB/km)	0.3790temperature slope calibration	1.0000multiplexer offset coefficient	1.0000multiplexer slope coefficient	1.0000fibre end	0.00T internal ref (°C)	23.02T ext. ref 1 (°C)	0.74T ext. ref 2 (°C)	15.90length (m)	temperature (°C)	Stokes	anti-Stokes-747.200	145.672	-0.024	-0.032
-746.185	-47.557	-0.308	0.149
-745.171	612.369	0.086	-0.215
-744.156	11.687	0.226	-0.173
-743.142	619.939	-0.055	-0.137
-742.127	153.629	0.039	0.053
-741.112	-62.278	0.245	0.102
-740.098	495.373	0.085	-0.194
-739.083	633.439	0.045	-0.115
-738.069	800.000	-0.068	0.199
-737.054	35.535	-0.039	-0.034
-736.039	34.987	-0.272	0.238
-735.025	-200.000	0.002	-0.020
-734.010	-200.000	0.018	-0.151
-732.996	-200.000	-0.005	-0.236
-731.981	-123.645	-0.257	0.041
-730.966	60.317	0.074	-0.073
-729.952	720.564	-0.064	-0.170
-728.937	-111.975	-0.522	-0.105
-727.923	-200.000	-0.029	-0.174
-726.908	-12.186	0.241	-0.157
-725.894	190.098	-0.159	-0.237
-724.879	800.000	-0.050	-0.145
-723.864	214.496	0.129	-0.204
-722.850	800.000	0.090	-0.256
-721.835	-125.138	-0.327	-0.050
-720.821	431.979	-0.088	-0.191
-719.806	381.029	-0.136	-0.279
-718.791	-126.849	-0.250	0.037
-717.777	22.243	0.186	-0.152
-716.762	86.902	-0.277	0.305
-715.748	800.000	-0.014	-0.040
-714.733	800.000	-0.012	0.052
-713.718	154.968	0.111	0.152
-712.704	435.477	0.142	-0.307
-711.689	-160.524	-0.323	-0.017
-710.675	-120.219	0.344	-0.059
-709.660	113.291	-0.266	-0.321
-708.645	800.000	0.007	0.029
-707.631	-147.138	0.138	0.012
-706.616	-200.000	0.008	-0.128
-705.602	800.000	0.035	-0.109
-704.587	-53.925	-0.260	-0.118
-703.572	38.210	-0.179	-0.159
-702.558	-200.000	-0.006	-0.140
-701.543	142.726	-0.108	0.143
-700.529	123.012	0.222	-0.277
-699.514	-94.590	0.245	-0.066
-698.499	118.274	-0.044	-0.054
-697.485	-84.341	-0.068	0.022
-696.470	-40.041	0.178	-0.092
-695.456	-187.915	0.172	0.002
-694.441	376.939	0.033	0.068
-693.426	143.475	0.148	-0.196
-692.412	-200.000	0.010	-0.085
-691.397	-200.000	0.000	-0.293
-690.383	-20.848	0.214	-0.131
-689.368	7.445	-0.073	0.054
-688.354	-42.438	0.052	0.026
-687.339	-200.000	-0.038	0.180
-686.324	-200.000	-0.011	-0.059
-685.310	98.009	-0.198	0.226
-684.295	34.218	0.095	0.083
-683.281	800.000	-0.061	-0.264
-682.266	800.000	0.056	-0.236
-681.251	-200.000	0.024	-0.564
-680.237	219.458	0.084	-0.134
-679.222	187.309	-0.101	-0.149
-678.208	139.319	0.142	-0.186
-677.193	111.026	-0.157	-0.188
-676.178	33.395	0.305	-0.263
-675.164	38.644	0.249	-0.221
-674.149	111.962	-0.160	-0.193
-673.135	800.000	-0.123	-0.372
-672.120	800.000	0.140	-0.446
-671.105	-200.000	-0.011	0.137
-670.091	-200.000	-0.004	-0.113
-669.076	-200.000	-0.029	-0.189
-668.062	-40.406	0.339	-0.175
-667.047	12.526	-0.096	-0.073
-666.032	198.523	-0.072	0.109
-665.018	261.507	-0.047	-0.081
-664.003	-200.000	-0.021	0.291
-662.989	-38.034	-0.315	-0.166
-661.974	-35.743	0.557	0.300
-660.959	450.178	0.193	-0.424
-659.945	-63.872	-0.140	-0.057
-658.930	-53.533	-0.498	0.226
-657.916	-200.000	0.062	-0.357
-656.901	19.664	0.464	-0.371
-655.886	-200.000	-0.012	0.125
-654.872	106.846	0.276	-0.326
-653.857	-200.000	-0.023	0.111
-652.843	101.574	-0.133	0.154
-651.828	-33.695	-0.194	0.106
-650.814	-18.932	0.038	-0.024
-649.799	800.000	-0.055	-0.155
-648.784	800.000	-0.054	-0.204
-647.770	54.982	-0.431	-0.413
-646.755	216.437	-0.270	0.427
-645.741	-18.403	-0.170	0.106
-644.726	-155.359	-0.311	0.020
-643.711	126.267	-0.219	-0.276
-642.697	-32.305	0.107	-0.060
-641.682	133.635	0.095	-0.122
-640.668	-109.789	-0.026	0.005
-639.653	-200.000	-0.010	-0.089
-638.638	-8.708	0.169	0.113
-637.624	335.242	-0.051	-0.098
-636.609	98.697	-0.068	0.078
-635.595	-200.000	0.006	-0.261
-634.580	800.000	0.054	0.148
-633.565	-106.413	0.383	-0.085
-632.551	4.625	-0.021	0.015
-631.536	-23.455	0.201	-0.120
-630.522	-53.809	0.314	0.142
-629.507	-200.000	-0.002	0.020
-628.492	151.270	0.019	-0.026
-627.478	230.642	-0.114	-0.186
-626.463	-200.000	-0.045	0.288
-625.449	-92.910	-0.507	-0.141
-624.434	185.977	0.026	0.038
-623.419	-175.133	0.224	-0.006
-622.405	-76.034	-0.320	0.112
-621.390	-40.267	-0.149	0.077
-620.376	129.035	0.283	0.359
-619.361	-111.561	-0.107	0.022
-618.346	-200.000	-0.007	-0.190
-617.332	23.404	-0.157	0.128
-616.317	-200.000	-0.035	0.342
-615.303	-122.520	-0.022	-0.004
-614.288	-90.710	0.151	0.043
-613.273	-48.302	0.092	0.044
-612.259	-200.000	-0.031	-0.312
-611.244	-200.000	-0.005	0.082
-610.230	-200.000	0.023	-0.291
-609.215	261.146	-0.179	0.307
-608.201	510.834	-0.040	0.091
-607.186	125.813	-0.119	0.149
-606.171	95.010	-0.142	0.160
-605.157	-40.366	0.176	0.091
-604.142	-27.740	0.115	-0.066
-603.128	112.213	0.164	0.196
-602.113	-200.000	-0.012	0.272
-601.098	800.000	-0.098	-0.369
-600.084	-137.481	-0.144	-0.016
-599.069	25.355	-0.390	-0.322
-598.055	-22.367	0.137	0.082
-597.040	244.120	0.225	-0.374
-596.025	-83.667	0.095	-0.030
-595.011	259.669	-0.053	-0.091
-593.996	328.260	-0.067	-0.128
-592.982	-200.000	0.076	0.470
-591.967	602.119	0.090	0.221
-590.952	21.626	0.134	-0.108
-589.938	-181.201	-0.173	-0.003
-588.923	-65.939	-0.092	-0.037
-587.909	-1.325	0.222	0.155
-586.894	33.568	0.261	-0.225
-585.879	-200.000	0.047	-0.269
-584.865	-86.240	0.199	0.061
-583.850	800.000	0.103	-0.439
-582.836	-55.294	0.206	-0.092
-581.821	-141.746	-0.066	-0.007
-580.806	-200.000	-0.031	0.159
-579.792	-200.000	0.045	-0.313
-578.777	115.913	-0.004	-0.005
-577.763	-143.420	-0.193	0.018
-576.748	-173.456	-0.206	-0.006
-575.733	-15.532	-0.351	0.222
-574.719	-151.873	-0.042	0.003
-573.704	-23.542	-0.210	-0.125
-572.690	225.293	-0.078	0.126
-571.675	548.650	-0.194	-0.459
-570.661	12.060	0.138	0.105
-569.646	800.000	0.023	-0.065
-568.631	-56.509	-0.157	-0.069
-567.617	-124.845	0.091	-0.014
-566.602	182.823	0.208	-0.304
-565.588	-117.975	0.217	0.038
-564.573	-12.050	-0.053	-0.034
-563.558	-8.366	-0.154	0.102
-562.544	-200.000	0.002	-0.017
-561.529	-125.979	-0.231	-0.034
-560.515	144.149	-0.116	-0.154
-559.500	163.541	-0.137	-0.191
-558.485	-159.977	0.169	-0.009
-557.471	290.541	-0.116	0.209
-556.456	800.000	0.085	0.280
-555.442	-60.314	-0.293	-0.124
-554.427	-76.521	0.166	-0.058
-553.412	800.000	-0.090	-0.349
-552.398	-118.849	-0.028	-0.005
-551.383	101.712	-0.184	0.213
-550.369	369.979	0.050	-0.100
-549.354	27.779	0.191	0.159
-548.339	190.641	0.169	0.251
-547.325	-17.502	-0.120	0.074
-546.310	-15.368	-0.309	0.195
-545.296	-107.530	-0.104	0.023
-544.281	4.950	-0.141	0.103
-543.266	182.291	0.180	0.262
-542.252	-22.483	-0.297	-0.178
-541.237	800.000	0.060	0.212
-540.223	2.865	0.017	0.013
-539.208	800.000	-0.014	0.046
-538.193	-161.172	-0.263	-0.014
-537.179	64.930	-0.041	0.041
-536.164	146.211	-0.198	0.262
-535.150	800.000	0.013	-0.044
-534.135	-132.029	0.173	0.022
-533.121	137.006	0.132	0.170
-532.106	800.000	-0.062	-0.245
-531.091	-45.547	0.320	-0.157
-530.077	-200.000	-0.021	0.105
-529.062	800.000	0.087	-0.328
-528.048	559.753	0.088	-0.211
-527.033	-109.684	-0.277	0.058
-526.018	39.769	0.043	-0.038
-525.004	800.000	0.071	-0.220
-523.989	-53.031	0.190	-0.087
-522.975	-200.000	-0.018	0.141
-521.960	148.016	-0.302	0.403
-520.945	-172.807	0.221	0.007
-519.931	-175.800	0.439	0.012
-518.916	128.496	0.060	-0.076
-517.902	800.000	-0.137	-0.428
-516.887	145.429	0.141	0.186
-515.872	189.207	0.274	-0.406
-514.858	155.090	-0.043	-0.059
-513.843	-74.767	0.242	0.086
-512.829	-45.581	-0.085	-0.042
-511.814	54.317	0.077	0.073
-510.799	-200.000	-0.108	-0.595
-509.785	800.000	-0.119	-0.356
-508.770	-103.918	-0.289	-0.067
-507.756	-174.509	0.374	0.011
-506.741	-200.000	0.006	-0.035
-505.726	-134.575	-0.162	-0.020
-504.712	-140.196	0.245	-0.025
-503.697	-169.826	-0.203	-0.007
-502.683	800.000	0.068	0.239
-501.668	-200.000	0.004	0.044
-500.653	-200.000	0.010	0.381
-499.639	-71.247	-0.209	-0.078
-498.624	-93.272	0.197	0.054
-497.610	-45.645	0.252	-0.123
-496.595	267.963	0.013	-0.023
-495.581	-107.411	0.474	-0.103
-494.566	40.516	-0.275	-0.244
-493.551	146.600	-0.189	0.251
-492.537	337.755	-0.119	-0.229
-491.522	-116.520	-0.261	-0.048
-490.508	78.081	-0.146	-0.154
-489.493	-200.000	0.040	-0.491
-488.478	335.616	-0.121	0.233
-487.464	357.064	0.068	-0.134
-486.449	-101.316	-0.228	-0.055
-485.435	-73.559	-0.241	0.087
-484.420	-43.371	-0.023	-0.012
-483.405	88.947	0.180	0.198
-482.391	-200.000	0.029	0.237
-481.376	11.595	0.144	-0.109
-480.362	-34.468	-0.065	-0.035
-479.347	-90.232	-0.300	0.086
-478.332	800.000	0.035	0.128
-477.318	132.821	-0.064	-0.082
-476.303	-2.050	-0.321	0.223
-475.289	-144.988	0.416	0.037
-474.274	-25.311	0.266	-0.155
-473.259	254.545	0.049	-0.082
-472.245	185.885	0.248	-0.364
-471.230	-89.724	-0.078	-0.022
-470.216	-35.971	-0.085	0.046
-469.201	800.000	-0.055	0.165
-468.186	800.000	-0.100	0.302
-467.172	800.000	-0.057	0.232
-466.157	293.078	0.116	-0.209
-465.143	-200.000	0.028	-0.223
-464.128	270.135	0.100	-0.173
-463.113	608.264	0.104	0.256
-462.099	-110.826	0.164	-0.033
-461.084	54.717	-0.157	0.149
-460.070	347.596	0.046	-0.089
-459.055	-98.957	0.318	0.080
-458.040	121.206	-0.105	0.129
-457.026	800.000	0.055	-0.159
-456.011	-200.000	0.048	-0.230
-454.997	-181.458	0.143	-0.003
-453.982	-95.983	0.204	0.054
-452.968	284.758	0.149	-0.264
-451.953	-200.000	-0.001	-0.040
-450.938	121.001	0.032	-0.039
-449.924	117.176	0.084	-0.102
-448.909	29.973	0.218	0.183
-447.895	43.973	0.164	-0.148
-446.880	130.953	-0.166	0.210
-445.865	800.000	-0.007	-0.021
-444.851	-123.823	0.064	-0.010
-443.836	-52.798	-0.596	0.271
-442.822	195.701	0.042	0.063
-441.807	-53.317	-0.116	-0.052
-440.792	-102.224	-0.020	-0.005
-439.778	-84.703	-0.318	0.099
-438.763	-142.401	0.375	0.036
-437.749	53.525	0.035	0.033
-436.734	53.302	0.061	-0.057
-435.719	196.626	0.169	-0.254
-434.705	-9.369	0.028	0.018
-433.690	-11.651	-0.086	-0.056
-432.676	240.554	-0.059	-0.097
-431.661	-200.000	0.211	-0.001
-430.646	84.270	-0.090	0.097
-429.632	-55.494	0.331	0.146
-428.617	375.381	0.077	0.155
-427.603	-200.000	-0.004	0.153
-426.588	-38.152	-0.174	-0.091
-425.573	-130.932	-0.604	0.080
-424.559	94.886	-0.108	-0.121
-423.544	333.920	0.097	0.185
-422.530	170.772	0.109	0.154
-421.515	64.459	-0.144	0.143
-420.500	-25.239	-0.038	0.022
-419.486	188.826	-0.126	0.185
-418.471	800.000	-0.040	0.157
-417.457	800.000	-0.046	-0.166
-416.442	32.263	0.290	0.246
-415.428	127.649	0.115	-0.144
-414.413	552.254	-0.111	0.261
-413.398	-136.850	0.287	0.032
-412.384	-18.152	0.165	0.101
-411.369	-136.150	0.323	0.037
-410.355	444.907	0.060	0.130
-409.340	6.275	-0.372	-0.272
-408.325	-170.321	0.268	-0.009
-407.311	-126.834	-0.125	-0.018
-406.296	-82.172	-0.265	-0.085
-405.282	-200.000	-0.004	0.144
-404.267	-200.000	-0.010	0.209
-403.252	-145.099	-0.098	-0.009
-402.238	-35.821	0.084	0.045
-401.223	146.103	-0.191	-0.252
-400.209	800.000	0.067	0.247
-399.194	-150.154	0.198	-0.015
-398.179	-31.722	-0.145	-0.080
-397.165	-200.000	-0.005	0.105
-396.150	-200.000	-0.018	0.233
-395.136	121.933	-0.114	0.140
-394.121	-9.144	0.156	-0.103
-393.106	800.000	0.163	-0.492
-392.092	-108.689	0.443	-0.094
-391.077	-44.576	-0.316	-0.155
-390.063	235.370	-0.053	-0.086
-389.048	793.579	0.143	-0.388
-388.033	-151.478	-0.125	0.009
-387.019	330.039	0.202	-0.383
-386.004	-108.945	0.071	-0.015
-384.990	-40.842	0.108	-0.055
-383.975	-52.905	-0.117	-0.053
-382.960	90.596	0.249	0.274
-381.946	-200.000	0.025	0.355
-380.931	-200.000	-0.049	-0.463
-379.917	-136.356	-0.054	-0.006
-378.902	-200.000	-0.029	0.202
-377.888	800.000	-0.024	-0.083
-376.873	-54.237	0.219	0.098
-375.858	0.104	-0.060	-0.042
-374.844	4.194	0.096	-0.069
-373.829	52.361	0.113	0.106
-372.815	80.581	0.168	0.178
-371.800	800.000	0.019	-0.074
-370.785	646.923	0.065	-0.163
-369.771	-200.000	0.039	-0.287
-368.756	581.106	-0.117	0.282
-367.742	-200.000	-0.022	0.364
-366.727	-82.699	-0.280	-0.089
-365.712	-200.000	0.040	0.337
-364.698	-90.807	-0.022	-0.006
-363.683	-200.000	0.024	-0.167
-362.669	178.041	-0.212	0.304
-361.654	126.209	-0.132	0.164
-360.639	107.369	-0.201	0.235
-359.625	-200.000	0.014	0.187
-358.610	800.000	0.054	-0.198
-357.596	43.945	-0.217	0.196
-356.581	-106.798	0.261	0.057
-355.566	78.571	0.196	-0.206
-354.552	-83.905	-0.193	0.060
-353.537	800.000	-0.012	-0.047
-352.523	-200.000	0.057	0.253
-351.508	196.955	0.190	0.285
-350.493	634.266	-0.043	0.108
-349.479	403.771	0.098	-0.203
-348.464	-41.000	0.217	0.110
-347.450	112.161	-0.090	-0.107
-346.435	43.220	-0.023	0.021
-345.420	327.574	0.054	-0.102
-344.406	460.715	0.097	0.211
-343.391	-72.369	-0.318	-0.115
-342.377	-86.158	0.326	-0.099
-341.362	-7.546	-0.185	0.123
-340.348	-61.409	0.246	0.102
-339.333	-200.000	-0.050	-0.489
-338.318	-79.155	-0.154	-0.051
-337.304	-200.000	-0.040	0.203
-336.289	-200.000	0.205	0.000
-335.275	126.878	0.055	-0.068
-334.260	-200.000	-0.015	0.202
-333.245	-126.122	0.413	-0.061
-332.231	445.657	-0.052	-0.111
-331.216	325.808	-0.079	0.148
-330.202	800.000	0.029	0.089
-329.187	65.999	0.237	0.236
-328.172	800.000	0.035	-0.112
-327.158	420.556	-0.150	0.316
-326.143	247.624	-0.124	0.205
-325.129	139.307	0.149	-0.193
-324.114	681.120	-0.210	-0.536
-323.099	17.214	-0.244	0.190
-322.085	3.472	0.066	0.047
-321.070	19.025	0.210	-0.165
-320.056	-200.000	-0.033	0.238
-319.041	123.901	0.059	0.072
-318.026	-92.249	-0.102	-0.028
-317.012	-8.586	-0.107	0.070
-315.997	-175.353	-0.342	-0.009
-314.983	-63.750	0.257	-0.103
-313.968	-37.563	-0.083	-0.043
-312.953	1.045	-0.219	0.154
-311.939	367.769	-0.115	-0.229
-310.924	-200.000	0.065	0.329
-309.910	90.127	0.236	0.259
-308.895	311.954	0.154	-0.284
-307.880	107.565	-0.014	0.016
-306.866	138.401	0.312	0.402
-305.851	-200.000	-0.002	-0.169
-304.837	800.000	0.014	0.046
-303.822	279.310	-0.137	-0.240
-302.807	128.323	0.072	-0.090
-301.793	346.456	-0.171	0.330
-300.778	-81.672	-0.224	0.072
-299.764	-83.970	0.215	0.067
-298.749	-84.296	0.272	-0.084
-297.735	357.133	0.077	-0.150
-296.720	50.301	-0.167	0.155
-295.705	1.365	0.108	-0.076
-294.691	-200.000	-0.064	-0.284
-293.676	-182.839	0.134	-0.002
-292.662	195.808	-0.073	-0.110
-291.647	800.000	-0.042	0.147
-290.632	220.959	-0.195	0.307
-289.618	118.902	0.082	-0.100
-288.603	-26.798	0.042	-0.024
-287.589	-31.442	-0.155	-0.085
-286.574	800.000	0.107	0.327
-285.559	191.869	-0.229	0.339
-284.545	-0.151	-0.160	-0.112
-283.530	287.084	-0.053	0.094
-282.516	153.873	0.183	0.246
-281.501	-200.000	0.028	0.126
-280.486	467.840	-0.184	0.404
-279.472	449.819	0.039	0.085
-278.457	495.863	0.114	0.257
-277.443	123.031	0.223	-0.274
-276.428	-200.000	0.057	0.262
-275.413	-32.178	-0.344	0.188
-274.399	164.296	0.054	0.075
-273.384	-131.627	0.179	0.023
-272.370	267.236	0.166	0.284
-271.355	38.346	-0.248	-0.216
-270.340	-98.446	-0.309	0.077
-269.326	209.981	-0.054	-0.083
-268.311	525.515	0.014	0.032
-267.297	-28.120	-0.052	-0.030
-266.282	100.331	-0.028	0.032
-265.267	-200.000	-0.004	-0.338
-264.253	800.000	0.024	0.092
-263.238	-41.650	0.444	0.223
-262.224	-120.432	0.031	0.005
-261.209	86.555	0.122	-0.131
-260.195	437.339	-0.128	-0.272
-259.180	-120.132	0.100	-0.017
-258.165	-77.270	-0.113	-0.039
-257.151	308.852	-0.037	0.067
-256.136	47.841	-0.055	-0.050
-255.122	-73.834	0.224	-0.080
-254.107	800.000	0.072	-0.297
-253.092	800.000	-0.144	-0.459
-252.078	173.873	-0.157	0.221
-251.063	447.339	-0.123	0.264
-250.049	800.000	0.088	-0.355
-249.034	800.000	0.044	0.128
-248.019	800.000	0.044	-0.127
-247.005	-33.506	0.196	-0.106
-245.990	-96.501	-0.317	0.082
-244.976	252.901	-0.040	0.067
-243.961	91.034	-0.052	0.057
-242.946	-159.987	-0.316	0.017
-241.932	48.793	-0.248	-0.228
-240.917	-13.135	0.091	0.058
-239.903	-24.457	-0.193	-0.112
-238.888	-200.000	-0.008	0.148
-237.873	465.305	-0.156	0.342
-236.859	398.703	-0.055	-0.112
-235.844	-101.268	-0.177	0.042
-234.830	418.542	0.118	-0.247
-233.815	130.279	0.252	-0.316
-232.800	-13.474	-0.094	-0.060
-231.786	355.339	0.122	-0.238
-230.771	800.000	-0.058	0.246
-229.757	-22.578	0.200	-0.118
-228.742	-118.333	0.356	-0.062
-227.727	207.469	0.158	-0.240
-226.713	107.554	-0.189	0.219
-225.698	70.524	0.140	-0.141
-224.684	-45.513	-0.198	0.096
-223.669	-114.327	-0.260	0.049
-222.655	355.664	0.031	-0.061
-221.640	-200.000	-0.006	-0.242
-220.625	134.911	0.140	0.177
-219.611	-200.000	0.005	0.150
-218.596	-200.000	0.047	-0.319
-217.582	-157.340	-0.447	-0.026
-216.567	-182.777	-0.017	-0.000
-215.552	154.618	0.137	-0.183
-214.538	87.392	0.035	0.038
-213.523	-56.581	0.184	0.080
-212.509	266.747	-0.134	0.229
-211.494	-59.645	0.063	-0.026
-210.479	166.427	-0.226	-0.313
-209.465	-200.000	0.046	0.484
-208.450	-200.000	-0.002	0.067
-207.436	-75.328	0.068	0.024
-206.421	154.688	-0.093	-0.124
-205.406	383.210	-0.103	-0.207
-204.392	596.657	0.069	0.167
-203.377	-199.918	0.163	0.001
-202.363	139.995	-0.033	-0.043
-201.348	-139.999	-0.297	0.031
-200.333	284.001	0.267	0.469
-199.319	-140.994	-0.322	0.032
-198.304	-200.000	-0.007	0.368
-197.290	318.366	0.096	-0.178
-196.275	800.000	0.022	-0.076
-195.260	800.000	0.014	-0.039
-194.246	-200.000	-0.035	-0.166
-193.231	417.769	0.098	-0.205
-192.217	355.766	-0.147	0.287
-191.202	-48.809	-0.148	-0.069
-190.187	505.615	0.142	-0.321
-189.173	282.983	0.070	0.122
-188.158	-200.000	-0.018	0.167
-187.144	-133.358	-0.320	0.039
-186.129	-130.600	0.169	-0.022
-185.114	-83.956	-0.329	0.102
-184.100	206.280	0.093	0.142
-183.085	-83.247	-0.519	-0.163
-182.071	-200.000	0.017	0.147
-181.056	-67.571	-0.167	0.064
-180.042	-200.000	0.005	0.181
-179.027	165.423	-0.134	-0.185
-178.012	-191.760	-0.308	-0.003
-176.998	-84.757	0.237	-0.073
-175.983	-17.893	0.009	-0.006
-174.969	239.097	0.084	-0.137
-173.954	258.305	0.114	-0.192
-172.939	-200.000	-0.060	-0.258
-171.925	-82.294	0.534	-0.170
-170.910	31.992	-0.079	-0.066
-169.896	-200.000	0.060	-0.520
-168.881	-200.000	0.269	0.001
-167.866	-1.679	-0.062	-0.043
-166.852	-200.000	-0.027	-0.128
-165.837	73.299	0.296	-0.302
-164.823	-200.000	0.039	0.216
-163.808	-200.000	0.006	-0.123
-162.793	-105.035	-0.414	-0.092
-161.779	-200.000	0.018	-0.164
-160.764	15.105	0.121	0.092
-159.750	-45.995	0.576	0.277
-158.735	621.924	0.137	0.336
-157.720	-101.946	-0.232	0.055
-156.706	-47.043	0.196	0.093
-155.691	582.810	-0.064	0.153
-154.677	-53.559	0.054	0.024
-153.662	-13.124	0.165	0.104
-152.647	50.438	0.236	-0.217
-151.633	-37.323	0.033	0.017
-150.618	-165.487	0.156	-0.007
-149.604	-83.177	0.111	-0.035
-148.589	-150.247	-0.123	-0.009
-147.574	217.126	-0.056	0.087
-146.560	-200.000	0.029	0.189
-145.545	-114.948	-0.226	0.042
-144.531	173.238	-0.062	0.087
-143.516	800.000	-0.058	0.197
-142.502	180.313	0.112	0.159
-141.487	19.577	0.143	0.112
-140.472	-200.000	-0.005	0.245
-139.458	-200.000	-0.014	0.111
-138.443	-200.000	0.009	0.127
-137.429	-79.806	0.337	-0.111
-136.414	-46.710	-0.114	-0.054
-135.399	-77.346	0.174	0.059
-134.385	-50.188	-0.112	-0.052
-133.370	634.953	0.157	-0.389
-132.356	800.000	0.033	-0.114
-131.341	-94.789	-0.400	-0.106
-130.326	-146.833	0.236	0.020
-129.312	800.000	-0.128	0.521
-128.297	459.431	0.101	0.220
-127.283	-13.504	-0.241	0.152
-126.268	-132.595	-0.248	-0.031
-125.253	-97.245	0.396	0.101
-124.239	61.692	0.062	-0.060
-123.224	-73.498	0.113	0.040
-122.210	593.801	-0.142	-0.341
-121.195	18.354	-0.245	-0.190
-120.180	800.000	0.041	-0.126
-119.166	55.480	-0.139	0.131
-118.151	280.094	0.172	-0.299
-117.137	101.328	-0.185	-0.210
-116.122	-200.000	-0.060	-0.417
-115.107	304.121	-0.139	0.251
-114.093	85.703	0.147	-0.157
-113.078	140.726	0.257	0.331
-112.064	-80.009	0.377	0.123
-111.049	502.052	0.104	0.235
-110.034	-200.000	0.022	0.106
-109.020	-200.000	-0.012	-0.152
-108.005	-200.000	0.069	-0.414
-106.991	-200.000	0.044	0.280
-105.976	-44.920	0.144	0.070
-104.962	-50.498	-0.216	-0.099
-103.947	-200.000	0.001	-0.329
-102.932	-166.131	-0.172	-0.007
-101.918	-33.855	0.122	-0.065
-100.903	-27.252	-0.384	0.218
-99.889	-200.000	0.021	0.373
-98.874	138.954	-0.164	0.210
-97.859	-84.754	-0.248	0.076
-96.845	-200.000	0.014	0.437
-95.830	247.057	0.142	-0.234
-94.816	-4.784	-0.230	-0.154
-93.801	800.000	-0.069	-0.272
-92.786	534.801	0.112	0.258
-91.772	-98.198	-0.263	0.066
-90.757	434.826	0.138	0.291
-89.743	-29.823	-0.121	-0.067
-88.728	-100.508	-0.064	-0.015
-87.713	280.849	0.121	0.210
-86.699	-200.000	-0.009	-0.184
-85.684	51.582	0.101	-0.094
-84.670	112.374	0.040	-0.047
-83.655	-48.519	0.022	0.010
-82.640	-110.149	0.293	-0.059
-81.626	-122.967	0.477	-0.075
-80.611	-19.993	0.034	0.020
-79.597	-136.281	0.297	0.034
-78.582	376.045	0.125	-0.248
-77.567	-48.879	-0.162	-0.075
-76.553	763.861	-0.096	0.252
-75.538	12.761	0.177	0.133
-74.524	-124.266	0.220	-0.033
-73.509	119.852	0.136	-0.164
-72.494	-17.224	-0.351	-0.215
-71.480	96.615	0.182	-0.203
-70.465	26.622	-0.074	0.060
-69.451	-54.726	0.261	0.115
-68.436	800.000	0.025	-0.073
-67.422	267.831	-0.156	-0.265
-66.407	800.000	-0.139	0.381
-65.392	22.081	0.099	-0.078
-64.378	31.224	0.195	0.163
-63.363	114.473	-0.274	0.325
-62.349	154.103	-0.087	0.116
-61.334	672.231	-0.541	-1.361
-60.319	800.000	0.348	0.947
-59.305	501.083	-0.631	-1.415
-58.290	416.171	0.757	1.569
-57.276	521.838	0.696	1.586
-56.261	-200.000	128.783	693.372
-55.246	408.722	1620.146	3329.252
-54.232	137.813	2783.181	3539.770
-53.217	90.345	2299.871	2498.280
-52.203	32.241	1900.733	1592.363
-51.188	26.023	1695.865	1373.500
-50.173	23.986	1656.777	1326.613
-49.159	46.191	1727.871	1553.842
-48.144	43.442	1738.235	1542.147
-47.130	25.701	1689.291	1365.515
-46.115	23.166	1673.549	1333.653
-45.100	22.910	1668.509	1327.661
-44.086	22.933	1666.551	1326.222
-43.071	22.900	1663.539	1323.524
-42.057	22.860	1661.111	1321.241
-41.042	22.943	1659.522	1320.547
-40.027	22.911	1657.544	1318.681
-39.013	22.863	1655.741	1316.838
-37.998	22.824	1654.685	1315.651
-36.984	22.937	1653.358	1315.384
-35.969	23.038	1651.116	1314.301
-34.954	23.049	1649.564	1313.100
-33.940	23.065	1648.082	1311.982
-32.925	22.899	1646.723	1309.622
-31.911	22.983	1644.682	1308.566
-30.896	23.050	1643.220	1307.848
-29.881	22.955	1641.924	1306.060
-28.867	22.945	1640.645	1304.921
-27.852	23.011	1638.763	1303.860
-26.838	23.018	1637.604	1302.932
-25.823	23.110	1635.897	1302.204
-24.809	22.985	1635.221	1300.693
-23.794	23.053	1633.412	1299.703
-22.779	22.979	1632.253	1298.185
-21.765	23.070	1630.558	1297.453
-20.750	22.998	1628.853	1295.516
-19.736	23.086	1627.397	1294.955
-18.721	23.002	1626.466	1293.547
-17.706	23.094	1624.777	1292.823
-16.692	23.074	1622.985	1291.200
-15.677	23.057	1621.609	1289.932
-14.663	23.075	1620.820	1289.383
-13.648	23.086	1619.544	1288.396
-12.633	23.062	1617.857	1286.829
-11.619	22.960	1616.077	1284.617
-10.604	22.978	1615.047	1283.878
-9.590	23.087	1613.592	1283.463
-8.575	23.117	1611.856	1282.250
-7.560	23.118	1610.729	1281.312
-6.546	23.089	1610.020	1280.485
-5.531	23.049	1608.835	1279.205
-4.517	23.042	1607.551	1278.083
-3.502	23.107	1606.448	1277.619
-2.487	23.162	1604.906	1276.743
-1.473	22.531	1592.706	1262.464
-0.458	19.296	1572.779	1223.691
0.556	14.574	1573.704	1190.707
1.571	12.171	1597.145	1190.912
2.586	11.735	1609.369	1196.728
3.600	11.075	1555.009	1151.539
4.615	6.441	1450.540	1043.444
5.629	1.553	1393.957	971.486
6.644	0.831	1387.077	962.012
7.659	0.718	1386.017	960.473
8.673	0.747	1384.466	959.501
9.688	0.674	1382.591	957.655
10.702	0.529	1378.746	953.985
11.717	2.949	1381.839	971.360
12.731	9.280	1391.557	1018.310
13.746	15.195	1400.681	1062.514
14.761	17.168	1403.293	1076.920
15.775	16.720	1400.932	1072.178
16.790	15.714	1397.993	1063.474
17.804	14.903	1396.115	1056.826
18.819	14.554	1394.935	1053.637
19.834	14.492	1393.064	1051.741
20.848	14.112	1392.058	1048.489
21.863	13.857	1390.877	1045.903
22.877	13.627	1389.817	1043.567
23.892	13.573	1389.125	1042.611
24.907	13.651	1387.474	1041.775
25.921	13.660	1386.380	1040.916
26.936	13.699	1386.011	1040.788
27.950	13.730	1384.972	1040.114
28.965	13.893	1383.330	1039.811
29.980	13.833	1382.985	1039.083
30.994	13.823	1382.185	1038.327
32.009	13.861	1381.371	1037.859
33.023	13.860	1379.484	1036.344
34.038	13.843	1378.804	1035.633
35.053	13.903	1377.470	1034.917
36.067	13.845	1376.184	1033.498
37.082	13.817	1375.313	1032.576
38.096	13.900	1374.256	1032.207
39.111	13.726	1373.604	1030.544
40.126	13.745	1372.701	1029.898
41.140	13.675	1372.253	1029.032
42.155	13.631	1371.512	1028.113
43.169	13.619	1371.806	1028.167
44.184	13.671	1370.918	1027.738
45.199	13.679	1370.688	1027.522
46.213	13.698	1369.937	1026.982
47.228	13.661	1369.503	1026.343
48.242	13.748	1367.801	1025.510
49.257	13.781	1366.054	1024.313
50.271	13.718	1365.031	1023.067
51.286	13.685	1363.656	1021.745
52.301	13.782	1362.159	1021.128
53.315	13.742	1361.091	1019.991
54.330	13.760	1360.433	1019.518
55.344	13.706	1359.153	1018.140
56.359	13.718	1357.987	1017.250
57.374	13.575	1357.261	1015.739
58.388	13.653	1356.304	1015.412
59.403	13.727	1355.522	1015.189
60.417	13.698	1355.045	1014.561
61.432	13.551	1354.003	1012.791
62.447	13.556	1352.952	1011.951
63.461	13.591	1351.825	1011.228
64.476	13.577	1351.256	1010.630
65.490	13.581	1349.295	1009.097
66.505	13.578	1348.041	1008.051
67.520	13.511	1346.990	1006.770
68.534	13.701	1345.414	1006.654
69.549	13.516	1345.163	1005.254
70.563	13.633	1343.867	1004.911
71.578	13.652	1342.531	1003.936
72.593	13.461	1342.210	1002.451
73.607	13.630	1340.438	1002.058
74.622	13.467	1340.218	1000.820
75.636	13.469	1339.251	1000.026
76.651	13.547	1338.603	999.924
77.666	13.565	1337.948	999.452
78.680	13.479	1337.459	998.482
79.695	13.580	1336.653	998.397
80.709	13.556	1335.691	997.446
81.724	13.589	1334.602	996.747
82.739	13.652	1333.943	996.545
83.753	13.695	1332.449	995.598
84.768	13.739	1332.170	995.566
85.782	13.838	1330.658	994.942
86.797	13.687	1329.308	992.938
87.812	13.701	1327.820	991.823
88.826	13.722	1326.582	990.933
89.841	13.693	1326.149	990.350
90.855	13.698	1325.369	989.708
91.870	13.810	1323.891	989.185
92.884	13.739	1323.046	988.045
93.899	13.756	1322.367	987.551
94.914	13.727	1321.790	986.860
95.928	13.865	1320.661	986.753
96.943	13.862	1319.358	985.675
97.957	13.824	1318.659	984.835
98.972	13.789	1317.447	983.640
99.987	13.704	1316.879	982.622
101.001	13.729	1315.798	981.878
102.016	13.805	1314.431	981.219
103.030	13.750	1313.644	980.218
104.045	13.747	1312.858	979.532
105.060	13.789	1311.757	978.869
106.074	13.742	1310.629	977.666
107.089	13.632	1309.270	975.919
108.103	13.706	1307.592	975.016
109.118	13.692	1306.371	973.938
110.133	13.673	1305.250	972.902
111.147	13.760	1303.964	972.365
112.162	13.675	1302.668	970.817
113.176	13.695	1301.787	970.190
114.191	13.724	1300.367	969.215
115.206	13.757	1299.179	968.441
116.220	13.739	1298.501	967.744
117.235	13.667	1297.106	966.198
118.249	13.792	1296.048	966.051
119.264	13.689	1295.314	964.821
120.279	13.785	1293.835	964.191
121.293	13.710	1292.963	963.018
122.308	13.635	1291.876	961.690
123.322	13.713	1290.908	961.337
124.337	13.662	1290.152	960.395
125.352	13.771	1288.410	959.645
126.366	13.642	1287.298	957.983
127.381	13.654	1286.723	957.540
128.395	13.823	1284.784	956.986
129.410	13.643	1284.802	955.878
130.424	13.723	1283.668	955.408
131.439	13.772	1282.369	954.643
132.454	13.792	1281.270	953.856
133.468	13.657	1281.069	952.842
134.483	13.756	1279.577	952.220
135.497	13.791	1278.559	951.577
136.512	13.744	1277.328	950.307
137.527	13.818	1276.377	949.937
138.541	13.676	1275.075	948.075
139.556	13.757	1273.541	947.310
140.570	13.869	1272.432	947.043
141.585	13.830	1271.488	946.034
142.600	13.800	1270.030	944.697
143.614	13.882	1269.294	944.532
144.629	13.883	1268.083	943.552
145.643	13.927	1267.092	942.982
146.658	14.069	1265.284	942.354
147.673	13.892	1264.573	940.740
148.687	13.932	1263.134	939.813
149.702	13.841	1262.001	938.373
150.716	13.784	1260.532	936.877
151.731	13.929	1259.159	936.589
152.746	13.984	1258.237	936.129
153.760	13.899	1257.313	934.884
154.775	13.978	1255.945	934.229
155.789	14.042	1254.839	933.683
156.804	14.075	1253.637	932.891
157.819	14.047	1252.818	932.039
158.833	14.044	1251.982	931.321
159.848	14.044	1251.051	930.543
160.862	14.075	1249.977	929.834
161.877	14.089	1248.676	928.866
162.892	13.972	1247.674	927.384
163.906	14.071	1246.586	927.047
164.921	14.052	1245.890	926.340
165.935	14.065	1245.008	925.676
166.950	14.173	1243.820	925.312
167.964	14.046	1243.431	924.233
168.979	14.091	1242.450	923.673
169.994	14.164	1241.810	923.519
171.008	14.071	1241.382	922.602
172.023	14.313	1240.121	922.926
173.037	14.181	1239.395	921.572
174.052	14.349	1238.074	921.436
175.067	14.146	1237.682	919.942
176.081	14.195	1236.372	919.160
177.096	14.170	1235.434	918.241
178.110	14.120	1234.521	917.206
179.125	14.219	1232.967	916.513
180.140	14.089	1232.297	915.221
181.154	14.177	1230.819	914.527
182.169	14.180	1229.866	913.755
183.183	14.328	1228.631	913.567
184.198	14.263	1227.315	912.153
185.213	14.264	1226.281	911.308
186.227	14.349	1225.043	910.774
187.242	14.455	1223.734	910.297
188.256	14.434	1222.549	909.218
189.271	14.453	1221.667	908.589
190.286	14.319	1221.128	907.374
191.300	14.254	1220.318	906.340
192.315	14.267	1219.644	905.833
193.329	14.232	1218.982	905.070
194.344	14.142	1218.725	904.305
195.359	14.402	1217.338	904.609
196.373	14.430	1216.872	904.335
197.388	14.451	1216.741	904.270
198.402	14.457	1216.289	903.887
199.417	14.388	1215.526	902.865
200.432	14.504	1214.689	902.797
201.446	14.594	1213.795	902.535
202.461	14.680	1212.452	901.924
203.475	14.609	1211.691	900.895
204.490	14.644	1210.533	900.143
205.504	14.560	1209.490	898.833
206.519	14.537	1208.269	897.722
207.534	14.605	1206.976	897.051
208.548	14.642	1205.755	896.259
209.563	14.621	1205.234	895.680
210.577	14.543	1204.718	894.801
211.592	14.674	1203.788	894.732
212.607	14.767	1202.851	894.456
213.621	14.746	1201.774	893.463
214.636	14.756	1200.970	892.838
215.650	14.738	1200.163	892.067
216.665	14.815	1199.191	891.675
217.680	14.863	1197.834	890.842
218.694	14.816	1197.602	890.338
219.709	14.733	1196.782	889.210
220.723	14.871	1195.706	889.065
221.738	14.828	1194.931	888.183
222.753	14.779	1194.625	887.614
223.767	14.833	1193.634	887.085
224.782	14.872	1193.440	887.072
225.796	14.995	1192.429	886.895
226.811	14.958	1191.827	886.169
227.826	14.854	1191.184	885.066
228.840	14.919	1190.548	884.856
229.855	14.975	1189.948	884.630
230.869	14.995	1188.633	883.679
231.884	14.903	1187.797	882.496
232.899	14.953	1187.131	882.186
233.913	14.897	1186.589	881.407
234.928	14.899	1185.575	880.591
235.942	14.951	1184.867	880.257
236.957	15.018	1183.984	879.879
237.972	14.932	1183.448	878.948
238.986	14.942	1182.583	878.280
240.001	15.096	1181.718	878.368
241.015	14.914	1181.446	877.132
242.030	15.021	1180.256	876.734
243.045	14.945	1179.448	875.655
244.059	15.060	1178.566	875.526
245.074	15.108	1177.835	875.156
246.088	15.085	1177.187	874.476
247.103	15.151	1176.459	874.206
248.117	15.053	1176.084	873.337
249.132	15.235	1174.966	873.381
250.147	15.244	1173.941	872.588
251.161	15.287	1173.258	872.226
252.176	15.375	1172.505	872.044
253.190	15.344	1171.850	871.317
254.205	15.381	1170.827	870.675
255.220	15.291	1170.935	870.209
256.234	15.407	1170.017	870.055
257.249	15.410	1169.492	869.601
258.263	15.428	1168.435	868.829
259.278	15.461	1167.945	868.560
260.293	15.583	1167.428	868.732
261.307	15.446	1167.184	867.766
262.322	15.538	1166.259	867.473
263.336	15.544	1165.604	866.942
264.351	15.595	1164.824	866.545
265.366	15.628	1164.253	866.215
266.380	15.637	1163.486	865.617
267.395	15.622	1162.652	864.843
268.409	15.555	1161.873	863.840
269.424	15.623	1161.281	863.674
270.439	15.623	1160.484	863.005
271.453	15.672	1159.843	862.705
272.468	15.541	1159.339	861.580
273.482	15.659	1158.515	861.494
274.497	15.577	1157.843	860.499
275.512	15.680	1156.994	860.317
276.526	15.675	1156.281	859.689
277.541	15.717	1155.431	859.195
278.555	15.734	1155.046	858.918
279.570	15.651	1154.317	857.875
280.585	15.708	1153.192	857.255
281.599	15.669	1152.329	856.340
282.614	15.796	1151.203	856.075
283.628	15.740	1150.294	855.036
284.643	15.756	1149.669	854.576
285.657	15.656	1148.991	853.490
286.672	15.878	1147.807	853.662
287.687	15.836	1146.714	852.560
288.701	15.880	1146.122	852.268
289.716	15.848	1145.355	851.458
290.730	15.930	1144.217	850.953
291.745	15.927	1143.742	850.508
292.760	15.860	1143.057	849.584
293.774	15.907	1142.719	849.498
294.789	15.974	1141.988	849.216
295.803	15.965	1141.464	848.708
296.818	16.112	1140.605	848.734
297.833	15.976	1139.853	847.414
298.847	15.999	1139.072	846.872
299.862	16.076	1138.069	846.439
300.876	16.069	1137.572	845.961
301.891	15.952	1137.579	845.301
302.906	16.073	1136.577	845.089
303.920	16.194	1135.512	844.829
304.935	16.193	1134.805	844.223
305.949	16.351	1133.780	844.176
306.964	16.283	1133.507	843.558
307.979	16.236	1133.131	842.970
308.993	16.331	1132.053	842.568
310.008	16.195	1131.359	841.296
311.022	16.190	1130.571	840.612
312.037	16.332	1129.482	840.435
313.052	16.281	1128.483	839.362
314.066	16.194	1127.883	838.411
315.081	16.217	1127.075	837.852
316.095	16.211	1126.466	837.296
317.110	16.236	1125.668	836.751
318.125	16.287	1124.725	836.229
319.139	16.324	1123.779	835.632
320.154	16.370	1123.005	835.213
321.168	16.393	1122.204	834.658
322.183	16.309	1122.049	834.051
323.197	16.478	1121.436	834.357
324.212	16.326	1121.434	833.530
325.227	16.362	1120.166	832.690
326.241	16.321	1119.583	831.982
327.256	16.359	1119.215	831.822
328.270	16.498	1117.761	831.350
329.285	16.381	1117.093	830.205
330.300	16.494	1115.975	829.859
331.314	16.397	1115.154	828.699
332.329	16.459	1114.032	828.093
333.343	16.512	1113.393	827.808
334.358	16.371	1112.647	826.490
335.373	16.441	1112.051	826.315
336.387	16.595	1111.010	826.221
337.402	16.547	1110.540	825.562
338.416	16.586	1109.835	825.156
339.431	16.592	1109.307	824.717
340.446	16.602	1108.570	824.149
341.460	16.713	1107.551	823.856
342.475	16.738	1107.132	823.595
343.489	16.797	1105.879	822.877
344.504	16.779	1104.905	821.993
345.519	16.734	1104.029	821.046
346.533	16.730	1103.319	820.430
347.548	16.876	1102.487	820.443
348.562	16.819	1101.802	819.585
349.577	16.970	1101.092	819.715
350.592	16.825	1100.467	818.477
351.606	16.788	1100.109	817.960
352.621	16.787	1099.183	817.196
353.635	16.726	1098.795	816.539
354.650	16.766	1098.029	816.089
355.665	16.902	1096.898	815.833
356.679	16.768	1096.646	814.926
357.694	16.922	1096.036	815.142
358.708	16.786	1095.136	813.746
359.723	16.957	1094.083	813.712
360.738	16.982	1093.669	813.452
361.752	16.864	1093.066	812.367
362.767	17.056	1092.171	812.548
363.781	16.977	1091.988	811.962
364.796	17.090	1091.068	811.748
365.810	17.104	1090.732	811.491
366.825	16.965	1090.527	810.605
367.840	17.097	1089.517	810.411
368.854	17.039	1089.274	809.881
369.869	17.125	1088.136	809.377
370.883	17.122	1087.139	808.549
371.898	17.129	1086.908	808.337
372.913	17.092	1086.347	807.675
373.927	17.062	1085.745	807.009
374.942	17.274	1084.723	807.185
375.956	17.276	1084.385	806.875
376.971	17.313	1083.831	806.566
377.986	17.221	1083.239	805.616
379.000	17.205	1082.827	805.163
380.015	17.464	1082.035	805.732
381.029	17.460	1081.298	805.092
382.044	17.365	1080.767	804.176
383.059	17.421	1079.799	803.648
384.073	17.523	1078.877	803.371
385.088	17.529	1078.133	802.776
386.102	17.440	1077.474	801.794
387.117	17.345	1076.659	800.669
388.132	17.346	1075.363	799.641
389.146	17.470	1074.738	799.686
390.161	17.539	1073.684	799.157
391.175	17.457	1073.189	798.330
392.190	17.557	1072.586	798.283
393.205	17.459	1072.012	797.323
394.219	17.644	1070.978	797.352
395.234	17.544	1070.147	796.195
396.248	17.490	1069.489	795.380
397.263	17.542	1068.221	794.612
398.278	17.576	1067.687	794.302
399.292	17.530	1067.186	793.645
400.307	17.502	1066.269	792.762
401.321	17.518	1065.784	792.404
402.336	17.425	1065.123	791.410
403.350	17.539	1064.634	791.506
404.365	17.556	1063.906	790.975
405.380	17.605	1063.159	790.578
406.394	17.661	1062.056	789.949
407.409	17.688	1061.151	789.329
408.423	17.782	1060.608	789.291
409.438	17.698	1060.036	788.408
410.453	17.809	1059.381	788.361
411.467	17.842	1058.463	787.764
412.482	17.885	1058.076	787.602
413.496	17.875	1057.304	786.913
414.511	17.829	1056.704	786.183
415.526	17.938	1056.238	786.270
416.540	17.888	1055.724	785.588
417.555	17.959	1055.454	785.644
418.569	18.073	1054.718	785.549
419.584	17.998	1054.417	784.911
420.599	17.931	1053.683	783.988
421.613	110.179	1330.816	1492.271
422.628	101.586	1371.110	1492.352
