DTS Sentinel unit serial number:	SN413079Multiplexer serial number:	ORYXHardware model number:	OX4-SRSoftware version number:	ORYX F/W v4.00 Oryx Data Collector v3.7.2.0data status	okinstallation	princeton_trtdifferential loss correction	single-endedforward channel	channel 2reverse channel	N/Adate	2019/09/18time	15:19:35forward acquisition time	60.00reverse acquisition time	0.00gamma	496.2192k internal	0.2316k external	0.2316temperature offset calibration	0.9999default loss term (dB/km)	0.3790temperature slope calibration	1.0000multiplexer offset coefficient	1.0000multiplexer slope coefficient	1.0000fibre end	0.00T internal ref (°C)	35.69T ext. ref 1 (°C)	0.75T ext. ref 2 (°C)	33.17length (m)	temperature (°C)	Stokes	anti-Stokes-747.200	137.934	0.169	-0.225
-746.185	-104.520	0.084	0.020
-745.171	-200.000	-0.005	0.040
-744.156	-200.000	0.060	0.307
-743.142	-200.000	-0.104	0.575
-742.127	-200.000	0.024	0.369
-741.112	-76.123	-0.397	0.142
-740.098	300.772	0.093	0.174
-739.083	34.889	-0.146	0.129
-738.069	-200.000	0.026	0.530
-737.054	43.215	0.062	0.057
-736.039	-32.182	0.131	-0.074
-735.025	49.060	-0.139	0.132
-734.010	12.625	-0.104	0.081
-732.996	-150.437	-0.184	-0.014
-731.981	800.000	-0.027	0.091
-730.966	536.986	-0.019	-0.045
-729.952	237.856	0.088	0.148
-728.937	765.352	-0.005	0.013
-727.923	-200.000	0.012	-0.303
-726.908	-12.441	-0.253	-0.167
-725.894	-115.877	0.151	-0.029
-724.879	120.480	-0.102	0.129
-723.864	-200.000	-0.016	0.126
-722.850	-50.591	0.107	-0.051
-721.835	-200.000	-0.021	0.101
-720.821	201.144	-0.186	-0.290
-719.806	800.000	-0.008	-0.036
-718.791	-103.623	-0.163	-0.039
-717.777	-12.599	0.138	0.091
-716.762	-200.000	0.017	0.168
-715.748	-56.222	-0.220	0.099
-714.733	800.000	-0.076	-0.231
-713.718	-200.000	-0.029	-0.485
-712.704	-171.161	-0.332	0.011
-711.689	-150.247	-0.376	0.029
-710.675	57.165	0.210	-0.207
-709.660	800.000	-0.016	0.062
-708.645	-137.199	-0.035	-0.004
-707.631	-95.037	-0.132	0.036
-706.616	157.269	-0.220	-0.308
-705.602	-141.616	0.219	-0.022
-704.587	-137.610	-0.281	0.032
-703.572	60.337	0.187	0.187
-702.558	299.025	0.139	0.259
-701.543	-110.604	0.133	0.028
-700.529	170.430	0.105	-0.152
-699.514	-200.000	0.015	0.077
-698.499	38.278	-0.196	-0.177
-697.485	-200.000	0.009	0.158
-696.470	-109.440	-0.254	-0.054
-695.456	800.000	0.025	-0.088
-694.441	81.658	0.095	0.104
-693.426	-200.000	0.003	-0.308
-692.412	-200.000	0.014	-0.068
-691.397	-157.201	-0.038	0.002
-690.383	3.952	0.111	-0.082
-689.368	-200.000	-0.209	0.000
-688.354	-37.912	-0.135	0.073
-687.339	-72.236	-0.363	0.136
-686.324	-200.000	0.013	0.224
-685.310	739.566	-0.173	0.469
-684.295	772.483	0.107	0.295
-683.281	-124.607	-0.483	-0.076
-682.266	-9.453	-0.211	-0.142
-681.251	-200.000	-0.022	-0.272
-680.237	26.424	-0.255	-0.216
-679.222	-116.383	-0.047	0.009
-678.208	-131.230	-0.411	-0.055
-677.193	5.430	0.069	-0.051
-676.178	5.373	0.032	0.024
-675.164	-108.651	0.479	0.104
-674.149	608.019	-0.077	0.194
-673.135	44.267	0.148	-0.137
-672.120	-138.314	0.416	0.046
-671.105	-40.818	-0.216	-0.113
-670.091	208.288	0.059	-0.094
-669.076	-200.000	-0.009	-0.129
-668.062	-140.793	-0.105	0.011
-667.047	328.002	-0.084	0.162
-666.032	190.447	-0.109	0.166
-665.018	721.184	-0.074	0.198
-664.003	442.309	0.026	-0.058
-662.989	-200.000	0.010	-0.098
-661.974	486.494	-0.071	0.163
-660.959	-182.916	0.130	0.002
-659.945	800.000	0.045	0.183
-658.930	94.694	-0.096	-0.110
-657.916	-172.196	-0.149	-0.005
-656.901	218.128	0.115	-0.185
-655.886	-195.673	0.113	-0.001
-654.872	-86.919	-0.115	-0.035
-653.857	280.485	-0.128	-0.232
-652.843	-200.000	0.017	-0.225
-651.828	30.307	-0.322	-0.278
-650.814	595.750	-0.049	-0.122
-649.799	-133.792	-0.125	0.016
-648.784	-200.000	0.026	-0.248
-647.770	150.431	-0.274	0.376
-646.755	333.763	-0.089	0.174
-645.741	800.000	0.110	-0.367
-644.726	93.552	0.176	-0.201
-643.711	-200.000	0.079	-0.469
-642.697	508.198	0.056	-0.131
-641.682	-200.000	0.007	0.046
-640.668	-200.000	-0.031	0.198
-639.653	-200.000	-0.040	0.244
-638.638	-184.683	-0.129	-0.002
-637.624	-36.927	-0.062	-0.033
-636.609	-5.235	0.315	0.218
-635.595	-68.437	-0.129	0.050
-634.580	-200.000	0.006	-0.127
-633.565	-37.681	0.151	0.081
-632.551	88.131	-0.200	0.224
-631.536	663.399	-0.015	-0.039
-630.522	34.290	0.055	-0.049
-629.507	553.604	-0.053	-0.127
-628.492	64.428	0.176	0.179
-627.478	-194.155	-0.062	0.001
-626.463	539.504	-0.120	-0.287
-625.449	494.361	-0.051	0.117
-624.434	143.619	0.075	-0.101
-623.419	-107.382	-0.326	0.072
-622.405	-9.216	-0.102	0.069
-621.390	-200.000	-0.016	0.193
-620.376	569.942	-0.031	-0.076
-619.361	-200.000	0.009	-0.105
-618.346	-200.000	-0.013	0.106
-617.332	-200.000	0.050	-0.322
-616.317	-200.000	0.002	0.140
-615.303	-200.000	-0.036	-0.169
-614.288	-140.692	-0.051	-0.005
-613.273	-200.000	0.036	-0.313
-612.259	800.000	0.027	-0.113
-611.244	206.613	-0.182	-0.285
-610.230	-125.282	0.383	0.059
-609.215	92.972	-0.102	0.116
-608.201	61.851	0.043	0.043
-607.186	60.576	0.115	-0.114
-606.171	800.000	0.032	-0.094
-605.157	409.224	-0.064	0.136
-604.142	213.617	0.166	-0.265
-603.128	-55.349	-0.220	0.099
-602.113	43.669	-0.189	0.174
-601.098	800.000	-0.110	-0.352
-600.084	109.446	0.084	-0.102
-599.069	800.000	0.087	0.297
-598.055	-200.000	-0.012	-0.071
-597.040	636.860	0.188	-0.482
-596.025	51.499	-0.364	-0.348
-595.011	-35.941	0.099	0.054
-593.996	95.554	0.030	-0.035
-592.982	144.361	0.038	0.051
-591.967	-12.231	-0.244	0.161
-590.952	188.903	-0.038	-0.058
-589.938	800.000	-0.038	-0.155
-588.923	-34.590	0.203	-0.112
-587.909	227.222	0.207	-0.339
-586.894	-84.687	-0.086	-0.027
-585.879	268.054	0.136	-0.240
-584.865	-61.440	0.093	-0.039
-583.850	85.116	-0.206	-0.228
-582.836	800.000	-0.035	0.148
-581.821	-12.039	-0.212	0.140
-580.806	-130.175	-0.160	0.022
-579.792	66.854	0.175	-0.179
-578.777	22.440	0.227	-0.187
-577.763	800.000	0.074	0.234
-576.748	254.469	0.177	-0.305
-575.733	-75.360	0.263	-0.094
-574.719	800.000	-0.133	-0.382
-573.704	-200.000	0.035	-0.201
-572.690	19.410	-0.177	-0.143
-571.675	30.241	0.224	0.193
-570.661	112.305	0.050	0.061
-569.646	-73.109	-0.139	-0.051
-568.631	800.000	0.063	0.207
-567.617	-109.696	-0.400	0.085
-566.602	97.946	-0.101	-0.117
-565.588	-95.187	0.092	0.025
-564.573	419.028	-0.269	-0.580
-563.558	800.000	-0.059	-0.226
-562.544	98.631	-0.223	0.258
-561.529	-200.000	-0.018	-0.094
-560.515	623.039	0.054	-0.137
-559.500	-200.000	0.016	-0.352
-558.485	-38.480	-0.151	-0.081
-557.471	-29.775	-0.311	0.178
-556.456	-66.998	0.473	0.188
-555.442	800.000	-0.077	-0.223
-554.427	-200.000	-0.014	-0.067
-553.412	-39.457	-0.178	-0.094
-552.398	-200.000	0.057	-0.288
-551.383	800.000	0.015	-0.053
-550.369	-106.643	-0.327	0.073
-549.354	-8.363	-0.068	0.046
-548.339	-81.249	-0.125	0.041
-547.325	35.130	0.139	0.123
-546.310	-200.000	-0.023	0.310
-545.296	131.597	-0.066	-0.086
-544.281	-158.892	-0.229	0.013
-543.266	800.000	0.053	0.155
-542.252	103.189	0.166	-0.196
-541.237	-116.995	0.414	0.076
-540.223	-200.000	-0.041	-0.188
-539.208	-83.663	0.133	0.043
-538.193	61.728	-0.118	-0.119
-537.179	-73.679	-0.225	-0.082
-536.164	-52.024	0.085	-0.040
-535.150	-83.953	-0.320	0.102
-534.135	92.773	0.194	-0.220
-533.121	259.989	0.128	-0.222
-532.106	-200.000	-0.001	0.008
-531.091	725.299	0.162	0.433
-530.077	240.828	-0.129	-0.217
-529.062	800.000	0.027	-0.101
-528.048	323.485	0.049	0.093
-527.033	253.600	-0.080	-0.137
-526.018	-3.240	0.155	0.108
-525.004	473.601	0.078	0.177
-523.989	-105.316	0.187	-0.043
-522.975	-31.690	-0.177	0.100
-521.960	800.000	-0.089	0.259
-520.945	686.564	-0.114	0.298
-519.931	-200.000	-0.037	0.168
-518.916	-156.674	-0.115	-0.007
-517.902	-87.744	-0.061	0.018
-516.887	-200.000	-0.029	-0.214
-515.872	-78.561	-0.266	-0.091
-514.858	181.847	0.247	-0.365
-513.843	160.739	-0.101	-0.142
-512.829	-200.000	-0.040	0.425
-511.814	185.168	0.078	-0.117
-510.799	232.682	-0.075	0.124
-509.785	-102.846	0.378	-0.090
-508.770	-200.000	-0.033	-0.337
-507.756	-200.000	0.028	-0.133
-506.741	86.152	-0.148	0.163
-505.726	-131.255	0.283	0.038
-504.712	243.875	-0.128	0.216
-503.697	-123.595	0.164	-0.026
-502.683	111.467	0.049	0.059
-501.668	-200.000	-0.030	-0.203
-500.653	-160.125	0.284	-0.015
-499.639	-157.170	-0.062	-0.004
-498.624	17.281	0.241	-0.192
-497.610	323.912	0.154	-0.295
-496.595	483.749	-0.101	0.230
-495.581	-200.000	-0.001	0.263
-494.566	25.417	0.257	-0.214
-493.551	-200.000	0.002	0.070
-492.537	-200.000	0.006	0.107
-491.522	-200.000	-0.009	0.200
-490.508	151.628	-0.174	-0.238
-489.493	-44.331	0.240	-0.121
-488.478	-200.000	-0.013	-0.108
-487.464	-68.178	0.140	-0.055
-486.449	800.000	-0.027	0.095
-485.435	-188.768	0.332	0.004
-484.420	298.629	0.152	-0.280
-483.405	800.000	-0.032	-0.141
-482.391	-200.000	-0.005	0.191
-481.376	268.298	-0.028	0.049
-480.362	115.113	0.159	0.194
-479.347	234.963	-0.097	0.161
-478.332	243.294	0.102	0.171
-477.318	-25.758	-0.233	0.138
-476.303	156.944	0.116	-0.161
-475.289	-95.877	0.252	0.067
-474.274	497.571	-0.040	-0.093
-473.259	20.460	-0.020	0.016
-472.245	110.073	0.121	0.145
-471.230	-200.000	-0.043	0.241
-470.216	536.402	-0.063	-0.151
-469.201	-200.000	0.015	-0.220
-468.186	10.001	-0.078	-0.060
-467.172	800.000	0.095	0.279
-466.157	-200.000	-0.020	0.320
-465.143	-200.000	0.006	-0.231
-464.128	26.412	-0.151	0.127
-463.113	621.084	-0.135	0.339
-462.099	-200.000	0.001	-0.064
-461.084	-175.388	-0.089	0.002
-460.070	499.849	0.125	-0.289
-459.055	-95.330	-0.080	0.021
-458.040	-55.506	-0.310	-0.139
-457.026	-10.076	0.252	-0.167
-456.011	317.128	0.037	-0.070
-454.997	-68.984	-0.076	-0.029
-453.982	186.123	0.052	-0.077
-452.968	-75.522	-0.121	0.043
-451.953	-200.000	0.060	0.305
-450.938	-46.422	-0.201	0.099
-449.924	-20.623	0.180	0.111
-448.909	77.743	0.130	0.139
-447.895	-41.985	0.237	0.121
-446.880	-36.706	-0.300	0.162
-445.865	-94.961	0.158	0.043
-444.851	-200.000	-0.004	0.090
-443.836	497.585	0.135	0.312
-442.822	-0.989	-0.284	-0.202
-441.807	585.178	-0.139	0.342
-440.792	-56.501	-0.128	0.057
-439.778	800.000	0.021	-0.081
-438.763	506.618	-0.161	0.374
-437.749	-111.833	-0.302	0.061
-436.734	93.235	-0.062	-0.071
-435.719	140.406	-0.135	0.178
-434.705	-200.000	0.049	0.217
-433.690	120.791	0.148	0.185
-432.676	45.641	-0.208	-0.192
-431.661	-84.759	0.439	0.138
-430.646	-36.876	-0.233	0.125
-429.632	-200.000	-0.018	0.163
-428.617	14.260	0.046	-0.036
-427.603	800.000	0.076	-0.284
-426.588	800.000	-0.088	0.267
-425.573	-139.428	-0.201	-0.022
-424.559	208.861	0.089	0.139
-423.544	-9.854	-0.126	-0.084
-422.530	129.098	-0.131	-0.167
-421.515	-136.467	-0.171	-0.020
-420.500	-42.248	0.149	-0.076
-419.486	-176.195	-0.193	-0.005
-418.471	136.217	0.341	-0.445
-417.457	22.977	0.355	0.291
-416.442	29.496	-0.290	0.246
-415.428	-34.873	-0.115	0.063
-414.413	800.000	0.059	-0.175
-413.398	-131.793	0.092	0.012
-412.384	-29.810	0.133	0.076
-411.369	21.149	-0.305	0.247
-410.355	288.524	0.144	0.261
-409.340	-71.610	-0.074	-0.028
-408.325	158.648	-0.119	-0.165
-407.311	14.199	-0.019	0.015
-406.296	-200.000	-0.028	-0.175
-405.282	-200.000	-0.048	0.297
-404.267	-59.168	-0.378	0.163
-403.252	113.893	0.141	-0.171
-402.238	-53.020	0.382	0.175
-401.223	-81.790	-0.193	0.063
-400.209	620.792	0.092	-0.231
-399.194	800.000	-0.076	-0.216
-398.179	259.739	-0.127	-0.218
-397.165	-200.000	0.066	-0.365
-396.150	-104.145	-0.068	0.016
-395.136	614.003	0.049	0.124
-394.121	-99.231	-0.191	0.048
-393.106	-200.000	0.009	0.060
-392.092	-143.727	0.201	0.019
-391.077	109.919	0.049	0.059
-390.063	85.711	0.108	0.119
-389.048	-164.911	0.159	0.007
-388.033	418.511	0.027	-0.057
-387.019	19.634	0.212	-0.170
-386.004	424.487	0.102	0.219
-384.990	-10.265	0.289	-0.192
-383.975	-26.805	0.162	0.094
-382.960	9.140	0.226	0.171
-381.946	-7.359	-0.370	0.250
-380.931	82.731	0.195	0.212
-379.917	44.110	0.029	0.027
-378.902	86.122	-0.225	0.247
-377.888	-200.000	0.005	-0.063
-376.873	27.626	-0.184	-0.154
-375.858	-99.393	0.338	0.085
-374.844	-12.622	0.344	-0.224
-373.829	-20.579	-0.380	-0.233
-372.815	-69.243	-0.152	-0.058
-371.800	-37.719	0.280	-0.149
-370.785	-200.000	0.042	-0.236
-369.771	-200.000	0.033	0.208
-368.756	-200.000	0.030	0.218
-367.742	-97.485	0.103	-0.027
-366.727	-12.218	0.240	0.157
-365.712	-200.000	-0.014	0.105
-364.698	800.000	0.038	-0.144
-363.683	-95.354	-0.499	-0.134
-362.669	-200.000	-0.008	-0.267
-361.654	71.741	-0.046	-0.047
-360.639	-200.000	0.010	0.165
-359.625	229.633	0.074	-0.120
-358.610	-94.763	0.304	-0.082
-357.596	331.943	0.105	0.202
-356.581	-181.771	-0.208	0.004
-355.566	-104.603	-0.222	0.051
-354.552	181.431	0.104	0.153
-353.537	800.000	0.025	0.074
-352.523	121.187	-0.172	-0.213
-351.508	-200.000	-0.027	0.373
-350.493	128.985	0.128	0.162
-349.479	-137.395	-0.321	0.036
-348.464	138.695	0.134	-0.175
-347.450	-200.000	0.003	0.156
-346.435	142.751	-0.039	0.052
-345.420	-200.000	-0.029	-0.310
-344.406	28.714	0.128	0.108
-343.391	-177.599	-0.052	-0.001
-342.377	-200.000	-0.013	-0.188
-341.362	667.387	-0.025	0.065
-340.348	100.770	-0.098	0.113
-339.333	800.000	0.096	-0.319
-338.318	32.848	-0.172	-0.148
-337.304	310.636	-0.227	0.424
-336.289	-54.179	-0.067	0.030
-335.275	-159.936	-0.279	0.015
-334.260	103.841	-0.089	0.104
-333.245	42.447	0.251	0.227
-332.231	-200.000	-0.041	0.295
-331.216	-200.000	-0.038	-0.348
-330.202	-200.000	0.003	-0.141
-329.187	99.077	0.040	-0.046
-328.172	-93.350	0.136	0.038
-327.158	-200.000	0.167	-0.000
-326.143	-126.278	0.312	-0.046
-325.129	217.813	0.048	0.077
-324.114	-75.388	-0.252	-0.089
-323.099	-200.000	-0.053	-0.254
-322.085	-200.000	-0.048	0.260
-321.070	21.860	0.156	0.127
-320.056	-112.029	-0.097	0.019
-319.041	170.136	0.041	0.058
-318.026	-11.751	-0.197	-0.129
-317.012	-200.000	-0.004	0.241
-315.997	-52.225	-0.168	0.078
-314.983	-38.899	0.263	0.138
-313.968	800.000	-0.034	0.147
-312.953	-200.000	-0.009	0.169
-311.939	800.000	-0.056	-0.158
-310.924	116.924	0.086	-0.105
-309.910	12.697	-0.217	-0.167
-308.895	-108.551	-0.163	0.035
-307.880	131.489	-0.098	-0.126
-306.866	-55.727	-0.165	0.073
-305.851	-74.279	0.247	0.089
-304.837	170.093	0.150	-0.214
-303.822	-6.179	0.162	0.110
-302.807	-3.067	-0.043	0.030
-301.793	-200.000	0.018	-0.195
-300.778	139.579	0.202	-0.265
-299.764	373.381	-0.145	0.294
-298.749	-122.310	0.152	0.025
-297.735	161.798	-0.040	-0.055
-296.720	800.000	-0.067	-0.204
-295.705	-125.726	-0.040	-0.006
-294.691	187.437	0.239	0.355
-293.676	800.000	0.159	-0.442
-292.662	206.207	0.061	-0.095
-291.647	800.000	0.041	0.172
-290.632	-111.879	0.164	-0.033
-289.618	-200.000	0.002	-0.098
-288.603	-83.414	-0.022	-0.007
-287.589	202.135	0.099	0.151
-286.574	-166.998	-0.075	-0.003
-285.559	129.694	0.257	-0.327
-284.545	-123.818	0.238	0.037
-283.530	193.175	0.188	-0.283
-282.516	-54.733	-0.228	-0.103
-281.501	446.747	0.205	0.450
-280.486	800.000	0.088	0.346
-279.472	-68.357	0.171	-0.066
-278.457	123.799	0.105	-0.131
-277.443	800.000	-0.049	0.164
-276.428	460.312	-0.159	0.353
-275.413	-80.849	-0.337	-0.111
-274.399	221.494	0.063	-0.101
-273.384	30.246	0.308	-0.261
-272.370	43.093	0.275	-0.250
-271.355	-111.379	-0.161	-0.033
-270.340	144.359	-0.120	0.160
-269.326	-144.257	-0.182	0.017
-268.311	654.854	0.065	-0.167
-267.297	-200.000	-0.068	0.489
-266.282	-200.000	0.066	0.296
-265.267	-115.892	-0.072	-0.013
-264.253	-104.177	0.343	-0.079
-263.238	9.023	0.136	-0.102
-262.224	-71.794	-0.228	-0.085
-261.209	-48.517	0.133	0.064
-260.195	800.000	0.075	0.316
-259.180	-152.039	-0.215	0.016
-258.165	-200.000	-0.021	0.117
-257.151	78.230	0.181	-0.192
-256.136	-154.849	0.146	-0.010
-255.122	-200.000	0.001	-0.261
-254.107	-37.469	0.159	0.084
-253.092	-200.000	-0.022	-0.532
-252.078	81.084	-0.111	0.119
-251.063	-200.000	-0.000	0.059
-250.049	9.429	0.215	0.161
-249.034	800.000	0.085	0.232
-248.019	-95.005	-0.043	0.012
-247.005	45.262	-0.210	-0.192
-245.990	-200.000	-0.046	0.247
-244.976	117.298	0.133	0.162
-243.961	-200.000	0.015	-0.114
-242.946	-200.000	0.029	0.276
-241.932	30.372	-0.327	-0.278
-240.917	234.686	-0.098	0.161
-239.903	-41.349	-0.215	0.110
-238.888	-90.211	-0.204	-0.059
-237.873	800.000	0.083	-0.231
-236.859	-135.135	-0.474	-0.057
-235.844	231.612	0.210	0.342
-234.830	425.173	0.148	-0.316
-233.815	-47.457	0.232	-0.112
-232.800	61.990	0.171	-0.169
-231.786	-132.481	0.220	-0.028
-230.771	-200.000	-0.000	0.007
-229.757	-200.000	0.011	0.101
-228.742	94.366	0.174	0.196
-227.727	-200.000	0.026	0.130
-226.713	-200.000	0.021	-0.133
-225.698	-100.144	-0.524	0.129
-224.684	-67.372	-0.189	-0.074
-223.669	-155.236	0.345	0.022
-222.655	11.764	0.159	-0.121
-221.640	-57.926	0.260	-0.113
-220.625	800.000	-0.070	0.299
-219.611	32.454	0.112	0.096
-218.596	-190.269	-0.382	-0.004
-217.582	397.801	-0.166	-0.344
-216.567	-200.000	-0.028	-0.147
-215.552	-103.194	0.129	-0.030
-214.538	-90.137	0.138	0.040
-213.523	518.227	0.064	-0.148
-212.509	9.762	-0.279	0.210
-211.494	-200.000	0.015	0.133
-210.479	198.041	0.192	-0.291
-209.465	-176.976	-0.235	0.006
-208.450	-33.404	-0.301	0.165
-207.436	74.777	0.046	-0.048
-206.421	-200.000	0.013	0.242
-205.406	-79.678	0.207	0.069
-204.392	639.518	-0.141	0.357
-203.377	-47.715	-0.110	0.053
-202.363	105.325	-0.084	0.098
-201.348	8.322	0.178	-0.132
-200.333	-200.000	-0.031	0.200
-199.319	-116.911	-0.212	0.039
-198.304	800.000	-0.037	-0.102
-197.290	27.097	0.133	0.111
-196.275	54.216	-0.290	-0.276
-195.260	-200.000	0.075	0.393
-194.246	-105.386	-0.144	0.033
-193.231	483.859	-0.125	-0.281
-192.217	236.988	-0.148	-0.244
-191.202	800.000	0.047	0.150
-190.187	260.929	0.057	0.097
-189.173	-200.000	0.050	0.289
-188.158	-103.056	-0.056	0.013
-187.144	-89.251	0.330	-0.097
-186.129	143.800	-0.238	-0.314
-185.114	-36.420	0.201	0.108
-184.100	-200.000	0.016	0.152
-183.085	366.107	0.111	-0.221
-182.071	-42.030	0.091	0.046
-181.056	0.888	0.119	0.085
-180.042	800.000	-0.071	-0.239
-179.027	-85.703	-0.024	-0.007
-178.012	75.493	-0.157	0.164
-176.998	482.266	-0.023	-0.052
-175.983	-200.000	0.036	0.163
-174.969	800.000	0.053	-0.197
-173.954	-96.817	0.277	0.072
-172.939	21.503	-0.039	-0.031
-171.925	-84.203	-0.377	-0.118
-170.910	-159.344	-0.184	-0.010
-169.896	-43.592	0.289	0.144
-168.881	51.963	-0.140	-0.132
-167.866	800.000	0.080	-0.301
-166.852	-133.873	-0.393	-0.048
-165.837	-200.000	-0.026	-0.132
-164.823	29.829	-0.186	0.157
-163.808	-200.000	-0.034	0.190
-162.793	-53.021	-0.317	0.144
-161.779	-200.000	-0.033	0.266
-160.764	4.241	-0.156	-0.113
-159.750	328.120	-0.099	-0.189
-158.735	-137.056	-0.173	-0.020
-157.720	473.484	0.143	0.319
-156.706	-128.272	0.252	0.036
-155.691	-80.164	0.315	0.104
-154.677	-57.866	0.290	0.126
-153.662	1.922	0.036	-0.026
-152.647	-108.793	-0.108	0.023
-151.633	-200.000	-0.036	0.225
-150.618	-200.000	-0.008	0.069
-149.604	-68.279	0.247	0.095
-148.589	-151.188	-0.199	0.015
-147.574	-200.000	0.015	-0.346
-146.560	19.036	-0.219	-0.174
-145.545	219.343	-0.126	-0.200
-144.531	-40.808	-0.486	0.249
-143.516	-102.399	-0.023	-0.005
-142.502	20.596	-0.455	-0.364
-141.487	384.621	-0.166	-0.339
-140.472	-68.304	0.291	-0.112
-139.458	-200.000	-0.013	-0.077
-138.443	800.000	-0.124	-0.486
-137.429	-200.000	0.046	0.263
-136.414	-125.580	-0.206	0.031
-135.399	800.000	-0.024	0.094
-134.385	93.367	-0.166	0.186
-133.370	143.568	0.056	-0.074
-132.356	-45.066	0.017	-0.009
-131.341	111.966	0.189	0.226
-130.326	-6.317	-0.128	0.086
-129.312	312.185	-0.104	0.193
-128.297	525.087	0.082	-0.190
-127.283	-200.000	-0.020	0.159
-126.268	-60.083	-0.065	0.027
-125.253	85.716	-0.030	-0.033
-124.239	-90.329	-0.346	0.099
-123.224	-103.125	0.126	-0.030
-122.210	65.190	0.139	0.139
-121.195	-41.550	-0.208	0.106
-120.180	765.627	-0.106	0.284
-119.166	800.000	-0.061	-0.183
-118.151	-41.476	0.207	-0.105
-117.137	-200.000	0.007	-0.055
-116.122	94.434	0.241	-0.271
-115.107	-74.293	-0.067	-0.024
-114.093	641.638	0.018	0.044
-113.078	141.836	-0.034	0.045
-112.064	-70.274	-0.331	-0.124
-111.049	-92.957	0.188	0.052
-110.034	98.840	-0.067	-0.076
-109.020	-26.466	-0.177	0.102
-108.005	185.893	-0.053	0.078
-106.991	-159.359	-0.121	0.007
-105.976	-49.949	-0.117	0.055
-104.962	800.000	-0.085	-0.299
-103.947	-200.000	-0.043	0.223
-102.932	269.779	0.095	0.165
-101.918	800.000	0.078	0.232
-100.903	-66.335	0.042	0.017
-99.889	-138.469	0.286	0.031
-98.874	134.325	0.141	-0.180
-97.859	30.250	0.304	0.256
-96.845	-49.508	-0.195	-0.092
-95.830	487.873	-0.072	0.163
-94.816	34.807	0.135	-0.117
-93.801	-11.819	0.147	0.096
-92.786	-200.000	0.013	0.175
-91.772	-200.000	0.014	0.063
-90.757	800.000	0.046	0.183
-89.743	669.632	-0.095	-0.243
-88.728	-71.321	0.110	-0.041
-87.713	224.034	0.111	-0.178
-86.699	84.020	0.044	-0.048
-85.684	427.070	0.045	0.096
-84.670	-178.081	0.318	-0.007
-83.655	-110.357	-0.239	0.049
-82.640	-72.182	-0.017	-0.006
-81.626	320.790	0.095	-0.178
-80.611	-48.989	-0.052	-0.025
-79.597	12.887	-0.240	0.183
-78.582	800.000	0.017	-0.050
-77.567	8.617	0.049	0.037
-76.553	800.000	-0.026	-0.108
-75.538	603.874	0.067	0.164
-74.524	-105.272	0.305	0.069
-73.509	-44.582	-0.230	-0.113
-72.494	-200.000	0.085	-0.384
-71.480	800.000	-0.055	-0.156
-70.465	123.197	-0.120	0.149
-69.451	-200.000	0.006	0.094
-68.436	-5.821	-0.116	-0.078
-67.422	800.000	0.020	0.088
-66.407	135.882	0.325	0.418
-65.392	800.000	0.111	0.461
-64.378	5.373	0.288	0.210
-63.363	-27.142	0.362	-0.208
-62.349	-132.140	0.079	-0.010
-61.334	84.951	-0.930	-1.006
-60.319	45.295	0.363	0.331
-59.305	-200.000	-0.136	-1.044
-58.290	566.053	0.360	0.862
-57.276	800.000	0.565	1.830
-56.261	-200.000	91.880	530.988
-55.246	479.479	1420.762	3175.200
-54.232	145.179	2641.516	3485.501
-53.217	105.710	2354.490	2745.513
-52.203	45.003	1959.413	1779.495
-51.188	38.956	1743.153	1535.911
-50.173	36.136	1697.331	1473.955
-49.159	51.766	1743.092	1635.080
-48.144	54.706	1761.336	1674.912
-47.130	38.672	1719.424	1512.572
-46.115	35.730	1704.296	1476.650
-45.100	35.623	1699.324	1471.461
-44.086	35.531	1696.635	1468.371
-43.071	35.497	1694.254	1465.997
-42.057	35.451	1692.279	1463.879
-41.042	35.553	1689.943	1462.577
-40.027	35.530	1688.114	1460.761
-39.013	35.547	1685.858	1458.874
-37.998	35.507	1684.564	1457.400
-36.984	35.471	1683.351	1456.016
-35.969	35.729	1681.659	1456.451
-34.954	35.692	1680.027	1454.698
-33.940	35.739	1677.622	1452.917
-32.925	35.770	1675.779	1451.493
-31.911	35.698	1674.501	1449.782
-30.896	35.682	1672.464	1447.842
-29.881	35.746	1670.631	1446.685
-28.867	35.682	1668.892	1444.637
-27.852	35.679	1667.979	1443.767
-26.838	35.635	1666.547	1442.140
-25.823	35.704	1665.103	1441.352
-24.809	35.655	1663.396	1439.448
-23.794	35.767	1661.542	1438.628
-22.779	35.746	1660.179	1437.228
-21.765	35.705	1658.148	1435.110
-20.750	35.724	1656.853	1434.077
-19.736	35.739	1655.778	1433.201
-18.721	35.668	1654.347	1431.377
-17.706	35.739	1652.274	1430.052
-16.692	35.651	1650.837	1428.099
-15.677	35.647	1649.635	1426.973
-14.663	35.721	1647.883	1425.945
-13.648	35.726	1646.680	1424.885
-12.633	35.698	1645.168	1423.314
-11.619	35.728	1643.839	1422.332
-10.604	35.730	1642.275	1420.939
-9.590	35.746	1640.904	1419.812
-8.575	35.796	1639.381	1418.808
-7.560	35.655	1638.331	1416.804
-6.546	35.748	1636.669	1415.993
-5.531	35.747	1635.511	1414.928
-4.517	35.646	1634.782	1413.495
-3.502	35.646	1633.741	1412.545
-2.487	35.769	1631.846	1411.751
-1.473	35.821	1620.997	1402.687
-0.458	33.687	1602.069	1370.854
0.556	28.562	1601.682	1335.493
1.571	25.329	1623.851	1329.958
2.586	23.977	1636.235	1329.883
3.600	21.059	1582.068	1264.618
4.615	11.773	1466.683	1109.580
5.629	2.802	1395.957	997.857
6.644	0.893	1386.347	978.567
7.659	0.845	1384.938	977.174
8.673	0.637	1383.955	975.049
9.688	0.646	1382.587	974.056
10.702	0.436	1379.287	970.300
11.717	4.201	1386.119	999.322
12.731	13.046	1399.986	1066.609
13.746	17.890	1405.762	1102.269
14.761	17.438	1403.834	1097.742
15.775	16.698	1401.226	1090.837
16.790	15.589	1399.083	1081.935
17.804	14.844	1396.509	1075.062
18.819	14.437	1395.072	1071.242
19.834	14.193	1393.465	1068.349
20.848	13.881	1392.756	1065.708
21.863	13.622	1391.016	1062.624
22.877	13.346	1389.501	1059.605
23.892	13.434	1388.596	1059.382
24.907	13.384	1387.719	1058.298
25.921	13.377	1386.880	1057.519
26.936	13.412	1386.111	1057.065
27.950	13.497	1384.925	1056.608
28.965	13.447	1384.395	1055.793
29.980	13.531	1383.226	1055.342
30.994	13.606	1382.598	1055.248
32.009	13.633	1381.397	1054.411
33.023	13.650	1380.631	1053.838
34.038	13.633	1378.958	1052.362
35.053	13.532	1378.363	1051.171
36.067	13.587	1376.579	1050.070
37.082	13.566	1375.801	1049.250
38.096	13.626	1375.073	1048.983
39.111	13.611	1374.161	1048.098
40.126	13.509	1373.235	1046.656
41.140	13.521	1372.222	1045.863
42.155	13.358	1372.402	1044.879
43.169	13.431	1372.152	1045.061
44.184	13.440	1371.455	1044.495
45.199	13.435	1371.221	1044.189
46.213	13.390	1370.583	1043.325
47.228	13.435	1370.026	1043.095
48.242	13.557	1368.294	1042.450
49.257	13.508	1367.289	1041.286
50.271	13.548	1365.515	1040.093
51.286	13.568	1364.363	1039.249
52.301	13.505	1363.150	1037.842
53.315	13.456	1361.995	1036.564
54.330	13.400	1361.690	1035.888
55.344	13.458	1359.843	1034.755
56.359	13.405	1359.213	1033.851
57.374	13.414	1357.781	1032.723
58.388	13.370	1357.211	1031.928
59.403	13.344	1356.983	1031.498
60.417	13.450	1355.925	1031.263
61.432	13.350	1355.551	1030.264
62.447	13.426	1354.249	1029.656
63.461	13.421	1353.060	1028.634
64.476	13.358	1351.737	1027.144
65.490	13.260	1350.724	1025.677
66.505	13.392	1349.067	1025.146
67.520	13.404	1347.623	1024.031
68.534	13.462	1346.405	1023.375
69.549	13.461	1345.602	1022.668
70.563	13.411	1344.413	1021.361
71.578	13.300	1343.248	1019.701
72.593	13.310	1342.288	1018.946
73.607	13.351	1340.992	1018.125
74.622	13.315	1340.571	1017.494
75.636	13.201	1339.967	1016.247
76.651	13.256	1339.482	1016.124
77.666	13.316	1338.462	1015.626
78.680	13.253	1337.896	1014.723
79.695	13.306	1337.068	1014.328
80.709	13.306	1336.524	1013.828
81.724	13.409	1335.402	1013.519
82.739	13.420	1334.200	1012.582
83.753	13.407	1333.537	1011.910
84.768	13.525	1332.751	1011.946
85.782	13.571	1331.050	1010.845
86.797	13.391	1330.191	1009.004
87.812	13.500	1328.345	1008.178
88.826	13.484	1327.564	1007.402
89.841	13.492	1326.397	1006.472
90.855	13.509	1325.810	1006.043
91.870	13.556	1324.420	1005.184
92.884	13.502	1323.893	1004.367
93.899	13.644	1322.863	1004.359
94.914	13.658	1321.950	1003.661
95.928	13.572	1320.794	1002.178
96.943	13.683	1319.728	1001.945
97.957	13.597	1319.316	1001.025
98.972	13.642	1318.044	1000.244
99.987	13.554	1317.148	998.946
101.001	13.580	1316.080	998.204
102.016	13.506	1315.148	996.963
103.030	13.514	1314.422	996.373
104.045	13.522	1313.579	995.696
105.060	13.507	1312.440	994.655
106.074	13.389	1311.620	993.232
107.089	13.335	1309.744	991.403
108.103	13.373	1308.586	990.666
109.118	13.302	1307.398	989.252
110.133	13.431	1305.306	988.356
111.147	13.504	1304.187	987.855
112.162	13.448	1302.880	986.447
113.176	13.420	1302.299	985.749
114.191	13.376	1301.616	984.884
115.206	13.438	1300.268	984.145
116.220	13.395	1298.830	982.715
117.235	13.525	1297.236	982.192
118.249	13.469	1296.596	981.290
119.264	13.568	1295.157	980.702
120.279	13.489	1294.437	979.598
121.293	13.435	1293.155	978.227
122.308	13.402	1292.469	977.422
123.322	13.364	1291.553	976.421
124.337	13.481	1290.249	976.039
125.352	13.389	1289.081	974.526
126.366	13.418	1287.855	973.685
127.381	13.411	1286.833	972.785
128.395	13.451	1285.896	972.223
129.410	13.406	1285.012	971.206
130.424	13.528	1283.437	970.643
131.439	13.467	1282.901	969.797
132.454	13.601	1281.812	969.674
133.468	13.390	1281.243	967.921
134.483	13.509	1280.383	967.883
135.497	13.558	1279.085	967.102
136.512	13.585	1277.647	966.086
137.527	13.509	1276.289	964.529
138.541	13.581	1275.000	963.890
139.556	13.549	1273.956	962.829
140.570	13.591	1272.853	962.156
141.585	13.632	1271.579	961.346
142.600	13.616	1270.182	960.108
143.614	13.685	1269.432	959.856
144.629	13.700	1268.379	959.061
145.643	13.593	1267.236	957.494
146.658	13.601	1265.679	956.281
147.673	13.716	1264.050	955.627
148.687	13.632	1263.343	954.527
149.702	13.546	1262.364	953.204
150.716	13.506	1260.598	951.559
151.731	13.552	1259.147	950.646
152.746	13.560	1257.981	949.727
153.760	13.604	1256.442	948.728
154.775	13.577	1255.703	947.934
155.789	13.572	1254.871	947.192
156.804	13.667	1253.631	946.716
157.819	13.614	1253.145	945.965
158.833	13.793	1251.616	945.743
159.848	13.743	1250.902	944.835
160.862	13.725	1249.571	943.648
161.877	13.655	1247.969	941.957
162.892	13.627	1247.193	941.129
163.906	13.654	1246.115	940.383
164.921	13.673	1245.394	939.867
165.935	13.750	1244.580	939.604
166.950	13.692	1244.149	938.866
167.964	13.724	1243.688	938.616
168.979	13.794	1242.654	938.151
169.994	13.737	1241.609	936.955
171.008	13.639	1241.139	935.965
172.023	13.763	1239.962	935.695
173.037	13.944	1239.440	936.238
174.052	13.819	1238.458	934.706
175.067	13.775	1237.449	933.613
176.081	13.748	1236.244	932.472
177.096	13.821	1235.156	931.980
178.110	13.824	1233.616	930.750
179.125	13.813	1232.858	930.037
180.140	13.823	1231.718	929.151
181.154	13.863	1230.378	928.279
182.169	13.850	1229.429	927.412
183.183	13.989	1227.913	926.957
184.198	13.938	1226.963	925.874
185.213	13.916	1226.020	924.960
186.227	13.999	1224.748	924.377
187.242	13.951	1224.141	923.573
188.256	13.982	1222.891	922.723
189.271	14.077	1221.734	922.291
190.286	13.878	1220.989	920.548
191.300	13.945	1219.785	919.929
192.315	13.931	1219.402	919.479
193.329	13.924	1218.452	918.640
194.344	14.012	1217.831	918.580
195.359	13.966	1217.300	917.845
196.373	14.054	1216.799	917.871
197.388	14.067	1216.644	917.747
198.402	14.091	1216.064	917.359
199.417	14.237	1214.977	917.261
200.432	14.270	1214.231	916.802
201.446	14.246	1213.591	916.103
202.461	14.275	1212.625	915.451
203.475	14.266	1211.783	914.689
204.490	14.320	1210.324	913.802
205.504	14.174	1209.443	912.256
206.519	14.240	1208.172	911.575
207.534	14.280	1206.728	910.626
208.548	14.254	1206.114	909.938
209.563	14.243	1205.136	909.062
210.577	14.263	1204.433	908.557
211.592	14.339	1203.770	908.393
212.607	14.310	1202.538	907.224
213.621	14.399	1201.723	907.013
214.636	14.363	1200.642	905.924
215.650	14.360	1199.772	905.167
216.665	14.358	1199.075	904.555
217.680	14.448	1198.386	904.439
218.694	14.498	1197.445	903.924
219.709	14.368	1197.142	902.907
220.723	14.573	1195.667	902.827
221.738	14.493	1194.887	901.725
222.753	14.525	1194.364	901.424
223.767	14.523	1193.822	900.922
224.782	14.657	1192.972	900.925
225.796	14.565	1192.543	900.024
226.811	14.610	1191.686	899.539
227.826	14.560	1191.267	898.877
228.840	14.516	1190.407	897.910
229.855	14.581	1189.271	897.325
230.869	14.553	1188.282	896.347
231.884	14.482	1188.190	895.817
232.899	14.573	1187.115	895.414
233.913	14.662	1186.124	895.065
234.928	14.550	1185.871	894.195
235.942	14.596	1184.944	893.665
236.957	14.585	1184.161	892.938
237.972	14.708	1182.999	892.638
238.986	14.675	1182.399	891.931
240.001	14.613	1182.126	891.312
241.015	14.520	1181.110	889.974
242.030	14.591	1180.571	889.869
243.045	14.749	1179.364	889.722
244.059	14.762	1178.383	888.971
245.074	14.834	1177.756	888.801
246.088	14.860	1176.794	888.137
247.103	14.780	1176.254	887.226
248.117	14.864	1175.427	886.969
249.132	14.932	1174.645	886.661
250.147	14.873	1174.420	886.096
251.161	14.907	1173.333	885.380
252.176	14.907	1172.983	885.037
253.190	14.877	1172.272	884.263
254.205	14.998	1171.682	884.379
255.220	15.000	1171.297	884.024
256.234	15.081	1170.429	883.716
257.249	15.214	1169.390	883.557
258.263	15.050	1168.667	882.068
259.278	15.106	1167.783	881.615
260.293	15.088	1167.756	881.421
261.307	15.189	1166.796	881.151
262.322	15.294	1166.090	881.091
263.336	15.262	1165.284	880.237
264.351	15.100	1165.171	879.221
265.366	15.294	1164.221	879.445
266.380	15.157	1163.393	878.026
267.395	15.238	1162.751	877.886
268.409	15.196	1161.733	876.822
269.424	15.284	1161.295	876.872
270.439	15.168	1161.062	876.014
271.453	15.255	1160.238	875.771
272.468	15.171	1159.222	874.486
273.482	15.217	1158.500	874.101
274.497	15.286	1157.739	873.811
275.512	15.246	1157.389	873.261
276.526	15.315	1156.379	872.782
277.541	15.322	1155.542	872.110
278.555	15.400	1155.155	872.143
279.570	15.357	1154.269	871.178
280.585	15.383	1153.585	870.720
281.599	15.456	1152.272	870.028
282.614	15.437	1151.035	868.919
283.628	15.550	1149.744	868.452
284.643	15.508	1148.685	867.360
285.657	15.406	1148.495	866.609
286.672	15.533	1147.267	866.261
287.687	15.446	1146.743	865.341
288.701	15.542	1146.119	865.287
289.716	15.459	1145.322	864.183
290.730	15.572	1144.261	863.888
291.745	15.607	1143.810	863.653
292.760	15.616	1143.316	863.248
293.774	15.649	1142.363	862.622
294.789	15.609	1142.174	862.198
295.803	15.632	1141.344	861.611
296.818	15.610	1140.248	860.596
297.833	15.742	1139.471	860.610
298.847	15.667	1138.257	859.233
299.862	15.671	1137.771	858.811
300.876	15.661	1137.319	858.338
301.891	15.739	1136.440	857.999
302.906	15.748	1136.116	857.725
303.920	15.853	1135.188	857.484
304.935	15.864	1134.369	856.844
305.949	15.899	1133.851	856.558
306.964	15.791	1133.517	855.680
307.979	15.843	1132.490	855.089
308.993	15.866	1131.915	854.700
310.008	15.899	1130.839	853.978
311.022	16.031	1130.044	853.972
312.037	15.929	1129.329	852.838
313.052	15.875	1128.508	851.869
314.066	15.835	1127.756	851.027
315.081	15.852	1126.799	850.315
316.095	15.955	1125.802	850.007
317.110	15.942	1125.014	849.269
318.125	15.804	1124.918	848.426
319.139	16.012	1123.461	848.299
320.154	15.956	1122.826	847.461
321.168	15.861	1122.987	847.031
322.183	15.948	1122.341	846.909
323.197	15.915	1121.298	845.880
324.212	15.806	1120.863	844.927
325.227	16.010	1119.995	845.224
326.241	16.047	1119.253	844.776
327.256	16.034	1118.354	843.956
328.270	16.042	1117.677	843.409
329.285	15.894	1116.862	841.980
330.300	16.041	1115.802	841.841
331.314	16.080	1114.632	841.076
332.329	16.050	1114.239	840.560
333.343	16.002	1113.678	839.819
334.358	16.031	1112.477	838.984
335.373	16.166	1111.818	839.084
336.387	16.039	1111.038	837.792
337.402	16.249	1110.273	838.181
338.416	16.277	1109.595	837.737
339.431	16.229	1109.074	837.031
340.446	16.242	1108.585	836.652
341.460	16.320	1107.711	836.303
342.475	16.305	1106.644	835.353
343.489	16.256	1105.674	834.305
344.504	16.365	1104.551	833.921
345.519	16.353	1103.888	833.285
346.533	16.483	1102.976	833.165
347.548	16.455	1102.737	832.772
348.562	16.433	1102.032	832.060
349.577	16.405	1100.990	831.061
350.592	16.482	1099.917	830.556
351.606	16.364	1099.314	829.445
352.621	16.460	1098.405	829.160
353.635	16.386	1098.028	828.437
354.650	16.389	1097.438	827.933
355.665	16.426	1096.692	827.480
356.679	16.352	1096.454	826.864
357.694	16.517	1095.284	826.715
358.708	16.505	1094.893	826.288
359.723	16.488	1094.338	825.712
360.738	16.546	1093.479	825.274
361.752	16.561	1093.078	824.973
362.767	16.518	1092.451	824.215
363.781	16.617	1091.836	824.160
364.796	16.686	1091.189	823.937
365.810	16.664	1090.359	823.131
366.825	16.807	1089.536	823.130
367.840	16.697	1089.504	822.498
368.854	16.754	1088.881	822.233
369.869	16.806	1088.134	821.851
370.883	16.707	1087.185	820.580
371.898	16.761	1086.309	820.106
372.913	16.836	1085.650	819.897
373.927	16.793	1085.194	819.275
374.942	16.730	1084.839	818.628
375.956	16.877	1084.122	818.724
376.971	16.893	1083.573	818.319
377.986	16.921	1082.918	817.886
379.000	16.963	1082.406	817.629
380.015	17.027	1082.016	817.571
381.029	16.974	1081.293	816.693
382.044	17.001	1080.551	816.195
383.059	16.976	1080.137	815.685
384.073	16.961	1079.141	814.790
385.088	16.997	1078.196	814.177
386.102	16.990	1077.414	813.483
387.117	17.084	1076.165	812.918
388.132	16.933	1075.563	811.668
389.146	17.030	1074.512	811.269
390.161	17.014	1073.922	810.673
391.175	17.085	1072.993	810.238
392.190	17.147	1072.309	809.946
393.205	17.106	1071.563	809.114
394.219	17.095	1070.956	808.531
395.234	17.143	1070.175	808.101
396.248	17.137	1068.778	806.948
397.263	17.055	1067.858	805.792
398.278	17.067	1067.411	805.441
399.292	17.001	1066.879	804.655
400.307	17.073	1065.664	804.008
401.321	17.059	1065.401	803.672
402.336	17.075	1064.631	803.094
403.350	17.146	1064.092	802.953
404.365	17.198	1063.198	802.453
405.380	17.185	1062.339	801.670
406.394	17.358	1061.467	801.760
407.409	17.289	1060.925	800.955
408.423	17.395	1060.143	800.792
409.438	17.318	1059.319	799.733
410.453	17.356	1059.125	799.698
411.467	17.349	1058.576	799.181
412.482	17.376	1057.532	798.447
413.496	17.480	1056.686	798.224
414.511	17.464	1056.410	797.871
415.526	17.461	1056.265	797.676
416.540	17.511	1055.351	797.150
417.555	17.667	1054.853	797.434
418.569	17.526	1054.398	796.357
419.584	17.479	1053.933	795.718
420.599	17.499	1053.510	795.420
421.613	98.170	1314.018	1437.497
422.628	90.463	1351.974	1437.591
