DTS Sentinel unit serial number:	SN413079Multiplexer serial number:	ORYXHardware model number:	OX4-SRSoftware version number:	ORYX F/W v4.00 Oryx Data Collector v3.7.2.0data status	okinstallation	princeton_trtdifferential loss correction	single-endedforward channel	channel 2reverse channel	N/Adate	2019/09/13time	07:27:34forward acquisition time	60.00reverse acquisition time	0.00gamma	496.2192k internal	0.2337k external	0.2337temperature offset calibration	1.0196default loss term (dB/km)	0.3790temperature slope calibration	1.0000multiplexer offset coefficient	1.0000multiplexer slope coefficient	1.0000fibre end	0.00T internal ref (°C)	26.17T ext. ref 1 (°C)	4.19T ext. ref 2 (°C)	21.91length (m)	temperature (°C)	Stokes	anti-Stokes-747.200	121.561	0.090	0.113
-746.185	-127.260	0.345	0.051
-745.171	713.630	0.118	0.313
-744.156	-159.869	-0.409	0.023
-743.142	40.947	0.285	-0.258
-742.127	-200.000	-0.052	0.321
-741.112	61.474	-0.148	-0.148
-740.098	800.000	-0.107	0.299
-739.083	-200.000	0.026	0.155
-738.069	800.000	-0.113	0.356
-737.054	82.386	0.277	-0.302
-736.039	-39.435	-0.527	0.277
-735.025	179.273	0.072	-0.106
-734.010	-200.000	0.024	-0.360
-732.996	800.000	0.035	-0.138
-731.981	-200.000	-0.002	0.116
-730.966	34.016	0.029	0.025
-729.952	-200.000	-0.031	-0.248
-728.937	146.991	-0.111	-0.150
-727.923	46.586	-0.360	-0.335
-726.908	800.000	-0.029	-0.092
-725.894	800.000	-0.014	0.054
-724.879	-200.000	-0.009	-0.059
-723.864	132.710	-0.097	-0.125
-722.850	490.074	0.057	0.130
-721.835	-96.863	-0.384	-0.101
-720.821	-200.000	0.002	0.192
-719.806	108.027	0.079	0.095
-718.791	800.000	0.071	-0.264
-717.777	290.001	-0.133	-0.243
-716.762	166.553	0.059	0.084
-715.748	-0.763	0.195	-0.139
-714.733	-5.078	-0.223	0.154
-713.718	240.628	-0.090	-0.151
-712.704	-99.473	0.163	-0.041
-711.689	177.517	-0.243	-0.355
-710.675	75.495	0.217	0.229
-709.660	-46.361	0.207	-0.102
-708.645	-200.000	0.007	0.140
-707.631	-14.779	0.215	0.138
-706.616	-87.392	-0.138	-0.042
-705.602	67.605	-0.182	-0.186
-704.587	761.631	0.112	-0.304
-703.572	-44.910	0.198	-0.099
-702.558	-119.238	-0.110	-0.019
-701.543	-200.000	-0.012	0.062
-700.529	-144.813	0.171	0.016
-699.514	-9.160	0.351	-0.235
-698.499	800.000	-0.045	-0.161
-697.485	8.497	-0.173	-0.130
-696.470	28.041	0.142	-0.120
-695.456	-125.084	0.157	-0.024
-694.441	232.559	0.086	-0.141
-693.426	800.000	-0.022	-0.081
-692.412	-5.692	-0.133	0.092
-691.397	666.392	0.131	-0.338
-690.383	-47.845	-0.151	0.073
-689.368	244.400	0.109	0.183
-688.354	-101.167	-0.206	-0.050
-687.339	-128.125	0.358	0.051
-686.324	-105.153	-0.480	-0.110
-685.310	6.539	-0.195	-0.145
-684.295	123.980	0.079	-0.099
-683.281	-124.570	0.048	0.007
-682.266	40.923	0.155	-0.140
-681.251	-23.823	-0.220	0.132
-680.237	236.109	-0.162	0.269
-679.222	800.000	-0.047	0.137
-678.208	-200.000	-0.011	0.051
-677.193	-200.000	0.006	-0.218
-676.178	71.438	0.231	0.240
-675.164	54.150	-0.176	0.170
-674.149	-200.000	0.040	-0.183
-673.135	-47.999	0.054	0.026
-672.120	-139.474	-0.168	-0.018
-671.105	-45.274	-0.194	-0.097
-670.091	-58.352	-0.287	-0.125
-669.076	7.455	-0.086	-0.064
-668.062	-200.000	-0.008	-0.053
-667.047	42.557	-0.342	0.312
-666.032	-93.541	0.177	-0.049
-665.018	-200.000	-0.019	-0.286
-664.003	700.817	-0.148	0.391
-662.989	58.582	0.123	0.121
-661.974	-200.000	0.001	0.103
-660.959	305.704	-0.102	-0.191
-659.945	-27.215	0.084	-0.049
-658.930	-200.000	-0.026	-0.156
-657.916	124.751	0.185	-0.233
-656.901	-8.693	-0.174	-0.117
-655.886	120.175	0.154	-0.191
-654.872	-200.000	0.000	-0.132
-653.857	126.743	-0.033	0.042
-652.843	-88.584	-0.176	0.052
-651.828	54.875	0.122	-0.117
-650.814	69.394	-0.177	0.183
-649.799	161.225	-0.224	-0.314
-648.784	-126.764	-0.243	-0.036
-647.770	104.915	-0.166	0.196
-646.755	362.502	0.060	-0.121
-645.741	104.420	0.180	-0.212
-644.726	-24.914	-0.093	-0.055
-643.711	800.000	0.037	0.147
-642.697	-10.757	0.400	0.265
-641.682	483.832	0.066	-0.149
-640.668	28.499	-0.108	0.091
-639.653	41.111	-0.149	0.134
-638.638	219.367	-0.287	0.459
-637.624	191.801	-0.070	0.105
-636.609	-200.000	0.050	0.245
-635.595	800.000	-0.054	0.218
-634.580	-66.028	0.254	-0.101
-633.565	45.847	-0.125	-0.116
-632.551	-154.714	0.302	0.020
-631.536	431.400	-0.171	-0.370
-630.522	332.837	0.116	-0.224
-629.507	-62.242	-0.055	0.023
-628.492	512.886	-0.117	-0.273
-627.478	304.374	-0.072	0.134
-626.463	-78.748	-0.073	0.025
-625.449	30.326	0.203	0.173
-624.434	-128.648	0.191	-0.027
-623.419	57.013	0.077	0.075
-622.405	-58.120	0.143	0.062
-621.390	-200.000	-0.094	-0.436
-620.376	800.000	0.092	-0.267
-619.361	15.464	-0.394	-0.309
-618.346	379.534	-0.069	-0.142
-617.332	-200.000	0.017	0.194
-616.317	-6.877	-0.115	-0.078
-615.303	800.000	-0.074	-0.247
-614.288	-94.076	-0.438	0.120
-613.273	-200.000	-0.024	-0.116
-612.259	-63.500	-0.176	-0.072
-611.244	350.636	0.123	-0.243
-610.230	467.293	0.091	-0.204
-609.215	93.019	0.049	-0.056
-608.201	174.022	-0.050	0.072
-607.186	-122.528	-0.326	-0.053
-606.171	-200.000	-0.013	0.178
-605.157	29.029	0.220	0.187
-604.142	217.413	0.028	-0.045
-603.128	78.496	-0.065	-0.070
-602.113	-31.495	-0.233	0.131
-601.098	-200.000	-0.006	-0.264
-600.084	-77.309	0.259	-0.090
-599.069	-146.138	-0.231	-0.020
-598.055	-200.000	0.010	-0.101
-597.040	5.198	-0.092	0.068
-596.025	-200.000	-0.061	-0.301
-595.011	-157.745	-0.230	-0.014
-593.996	-156.725	-0.070	0.004
-592.982	-30.120	0.080	0.046
-591.967	-199.268	-0.280	-0.001
-590.952	-75.766	-0.071	-0.025
-589.938	304.089	0.118	-0.219
-588.923	221.551	-0.160	-0.256
-587.909	-89.955	0.231	0.067
-586.894	800.000	-0.032	-0.119
-585.879	102.072	-0.048	0.056
-584.865	73.064	0.159	-0.166
-583.850	462.653	-0.063	0.139
-582.836	61.607	0.086	-0.085
-581.821	800.000	0.015	-0.060
-580.806	-50.303	-0.316	0.149
-579.792	44.552	-0.135	-0.124
-578.777	800.000	-0.058	-0.240
-577.763	-73.118	0.071	-0.026
-576.748	320.550	0.088	-0.167
-575.733	-150.951	0.189	0.014
-574.719	471.736	0.031	0.070
-573.704	56.789	0.157	0.152
-572.690	-70.313	0.372	-0.141
-571.675	-200.000	-0.003	0.016
-570.661	-200.000	0.050	0.513
-569.646	-200.000	0.009	0.125
-568.631	-200.000	-0.005	0.113
-567.617	21.586	-0.119	-0.097
-566.602	283.884	-0.124	-0.222
-565.588	-200.000	0.008	0.240
-564.573	307.915	0.139	-0.259
-563.558	47.576	0.157	0.146
-562.544	-200.000	-0.053	0.311
-561.529	440.166	0.055	0.120
-560.515	76.796	-0.297	0.315
-559.500	-200.000	-0.025	0.128
-558.485	800.000	0.051	-0.169
-557.471	-51.340	-0.256	0.120
-556.456	151.926	0.168	-0.228
-555.442	97.338	-0.084	0.096
-554.427	800.000	-0.107	-0.455
-553.412	-111.097	-0.126	-0.026
-552.398	-19.085	-0.245	-0.152
-551.383	-110.754	-0.297	-0.061
-550.369	-92.740	0.319	-0.089
-549.354	800.000	-0.089	-0.297
-548.339	26.035	-0.251	0.209
-547.325	-200.000	0.009	0.121
-546.310	-59.195	-0.252	-0.108
-545.296	-200.000	0.010	0.053
-544.281	611.668	-0.120	0.299
-543.266	787.780	-0.060	-0.164
-542.252	800.000	0.080	0.247
-541.237	-200.000	0.067	-0.000
-540.223	-200.000	0.002	0.409
-539.208	-56.902	-0.186	0.082
-538.193	-29.761	0.394	-0.224
-537.179	167.971	0.198	0.281
-536.164	53.787	-0.225	0.215
-535.150	-104.426	-0.208	-0.048
-534.135	321.178	-0.049	0.094
-533.121	-61.466	-0.124	-0.052
-532.106	-200.000	-0.053	-0.286
-531.091	-108.795	0.074	-0.016
-530.077	-65.006	-0.253	-0.102
-529.062	4.780	-0.089	-0.065
-528.048	420.211	0.147	-0.314
-527.033	-134.034	-0.500	0.062
-526.018	-18.464	0.142	0.088
-525.004	-90.559	-0.146	-0.042
-523.989	800.000	0.014	0.052
-522.975	-35.521	-0.138	-0.075
-521.960	-196.711	-0.049	-0.000
-520.945	46.573	-0.213	0.197
-519.931	583.630	-0.151	-0.368
-518.916	143.601	0.155	-0.205
-517.902	-15.061	-0.187	0.119
-516.887	249.106	-0.147	-0.249
-515.872	-200.000	0.033	0.145
-514.858	-39.870	-0.122	-0.064
-513.843	-22.508	0.310	-0.187
-512.829	-143.760	0.065	0.006
-511.814	394.531	-0.094	-0.196
-510.799	533.842	0.040	-0.093
-509.785	-200.000	-0.066	-0.477
-508.770	0.768	0.233	-0.166
-507.756	800.000	0.115	0.343
-506.741	800.000	-0.038	-0.121
-505.726	52.855	0.202	0.192
-504.712	800.000	-0.069	-0.206
-503.697	-80.810	0.287	0.095
-502.683	800.000	0.120	0.450
-501.668	107.852	-0.214	-0.253
-500.653	-200.000	0.021	0.164
-499.639	-200.000	-0.036	0.266
-498.624	-29.506	-0.060	-0.034
-497.610	151.982	-0.153	0.208
-496.595	30.762	0.158	0.135
-495.581	-140.088	0.177	0.019
-494.566	723.152	-0.066	0.176
-493.551	268.915	-0.200	0.348
-492.537	58.507	-0.052	0.051
-491.522	-49.401	0.227	-0.108
-490.508	8.093	-0.209	-0.156
-489.493	-74.641	0.401	-0.143
-488.478	35.766	0.129	-0.112
-487.464	-77.924	0.296	0.101
-486.449	19.541	-0.060	-0.048
-485.435	-109.446	-0.059	-0.012
-484.420	-200.000	-0.002	0.161
-483.405	-10.872	-0.137	-0.090
-482.391	-200.000	0.131	0.586
-481.376	-70.242	0.348	0.131
-480.362	-75.970	0.034	0.012
-479.347	-41.697	0.282	-0.144
-478.332	-97.247	0.162	0.042
-477.318	79.201	0.159	0.170
-476.303	492.653	-0.054	0.123
-475.289	-200.000	-0.020	0.220
-474.274	125.122	0.207	0.260
-473.259	-200.000	0.007	0.223
-472.245	800.000	0.140	-0.457
-471.230	-88.489	0.539	0.160
-470.216	800.000	0.164	-0.463
-469.201	-200.000	0.020	-0.280
-468.186	-83.758	0.190	-0.060
-467.172	-200.000	-0.027	0.397
-466.157	-149.445	0.154	-0.012
-465.143	-51.874	-0.261	-0.121
-464.128	146.475	0.035	-0.047
-463.113	23.143	0.185	0.151
-462.099	8.022	-0.183	0.136
-461.084	85.842	-0.279	0.304
-460.070	-136.994	-0.111	0.013
-459.055	-121.498	0.451	0.074
-458.040	-101.316	-0.119	-0.029
-457.026	-65.756	0.265	-0.105
-456.011	800.000	-0.085	0.336
-454.997	123.064	0.144	0.179
-453.982	37.243	-0.267	0.235
-452.968	95.388	0.082	0.093
-451.953	800.000	-0.032	-0.127
-450.938	57.262	-0.064	-0.062
-449.924	800.000	-0.050	-0.173
-448.909	-171.075	-0.215	0.007
-447.895	-119.076	0.179	0.031
-446.880	-96.080	0.379	0.100
-445.865	-56.538	-0.186	-0.082
-444.851	-116.258	0.331	0.061
-443.836	-87.570	-0.190	0.057
-442.822	10.463	-0.124	-0.094
-441.807	354.798	-0.017	0.034
-440.792	241.434	0.156	-0.258
-439.778	-161.226	0.141	0.007
-438.763	-100.504	-0.410	0.101
-437.749	800.000	0.070	-0.274
-436.734	-54.975	-0.202	0.090
-435.719	-153.420	-0.183	-0.013
-434.705	-0.389	0.226	-0.159
-433.690	535.806	-0.115	0.270
-432.676	-78.079	0.099	0.034
-431.661	0.767	0.092	-0.066
-430.646	-89.353	0.124	-0.036
-429.632	-25.080	-0.304	0.179
-428.617	-68.929	-0.521	0.199
-427.603	179.081	0.154	0.224
-426.588	-57.369	0.083	-0.036
-425.573	-200.000	-0.026	0.302
-424.559	-46.922	-0.082	0.040
-423.544	-69.476	-0.228	0.087
-422.530	19.069	-0.215	-0.171
-421.515	-171.408	0.157	-0.005
-420.500	-118.291	0.056	-0.010
-419.486	425.654	-0.096	0.205
-418.471	210.445	-0.099	-0.155
-417.457	-143.012	0.274	-0.026
-416.442	-124.531	0.356	-0.055
-415.428	-139.456	-0.131	-0.014
-414.413	800.000	-0.190	-0.576
-413.398	3.894	0.186	-0.135
-412.384	621.831	-0.171	0.427
-411.369	-127.355	-0.101	-0.015
-410.355	-114.937	0.350	0.066
-409.340	-200.000	-0.006	0.072
-408.325	800.000	0.042	0.128
-407.311	142.008	0.224	0.294
-406.296	-175.880	-0.235	0.006
-405.282	129.583	0.077	0.098
-404.267	-200.000	-0.001	-0.116
-403.252	-65.398	0.307	-0.122
-402.238	-155.532	-0.348	0.022
-401.223	-106.944	-0.273	-0.060
-400.209	800.000	0.065	-0.231
-399.194	219.026	0.165	-0.261
-398.179	751.023	0.051	0.137
-397.165	-155.356	0.014	0.001
-396.150	-144.536	0.056	0.005
-395.136	0.450	0.341	0.241
-394.121	-131.562	-0.327	0.043
-393.106	-200.000	-0.032	-0.205
-392.092	144.728	0.183	-0.242
-391.077	245.691	0.059	-0.099
-390.063	-111.815	0.170	-0.034
-389.048	48.583	-0.189	-0.175
-388.033	-37.748	0.055	-0.029
-387.019	800.000	-0.164	0.512
-386.004	158.794	0.275	-0.378
-384.990	-86.571	-0.217	-0.066
-383.975	-111.860	0.308	-0.062
-382.960	-26.356	-0.157	0.091
-381.946	74.400	-0.004	0.004
-380.931	61.813	-0.185	0.183
-379.917	-137.415	-0.338	-0.038
-378.902	416.227	-0.048	-0.101
-377.888	74.801	-0.117	0.122
-376.873	-200.000	0.005	0.140
-375.858	800.000	-0.094	0.320
-374.844	245.223	-0.220	0.366
-373.829	800.000	-0.025	-0.072
-372.815	-73.575	0.388	0.140
-371.800	800.000	0.054	0.161
-370.785	27.214	0.281	-0.234
-369.771	-200.000	-0.027	-0.361
-368.756	800.000	0.054	0.171
-367.742	-125.646	-0.177	-0.027
-366.727	84.061	-0.278	-0.301
-365.712	5.541	-0.220	0.160
-364.698	-117.337	0.207	-0.037
-363.683	800.000	0.056	0.172
-362.669	-200.000	-0.011	-0.274
-361.654	-57.395	-0.119	0.052
-360.639	269.194	0.139	-0.242
-359.625	34.413	0.134	0.116
-358.610	283.679	-0.095	-0.170
-357.596	-43.362	0.192	-0.096
-356.581	341.487	-0.128	-0.248
-355.566	-88.419	-0.139	-0.041
-354.552	-124.789	0.044	-0.007
-353.537	248.814	-0.094	0.158
-352.523	-157.056	0.406	-0.024
-351.508	-14.371	0.223	-0.142
-350.493	-64.591	0.148	0.059
-349.479	33.473	0.162	0.139
-348.464	655.321	-0.041	-0.103
-347.450	61.681	0.178	-0.175
-346.435	227.180	0.052	-0.083
-345.420	-55.484	-0.119	0.053
-344.406	198.827	-0.236	-0.358
-343.391	-83.675	0.086	-0.027
-342.377	-34.544	0.037	-0.020
-341.362	800.000	-0.110	0.324
-340.348	-85.482	-0.322	0.099
-339.333	-200.000	0.007	0.129
-338.318	-167.499	0.270	0.011
-337.304	-170.941	0.259	0.009
-336.289	-89.997	0.166	0.048
-335.275	800.000	-0.038	-0.129
-334.260	-88.399	-0.286	0.085
-333.245	-200.000	0.011	0.202
-332.231	-101.344	0.311	-0.075
-331.216	-124.142	0.102	-0.016
-330.202	-156.090	0.176	0.011
-329.187	-200.000	0.080	-0.387
-328.172	-200.000	0.022	0.129
-327.158	-200.000	-0.038	-0.433
-326.143	-145.611	0.290	-0.026
-325.129	-107.209	-0.279	0.061
-324.114	224.398	0.189	0.302
-323.099	293.466	-0.072	-0.130
-322.085	79.103	0.373	-0.395
-321.070	-155.019	-0.306	0.020
-320.056	109.933	-0.048	-0.057
-319.041	-102.741	0.221	0.052
-318.026	173.503	-0.161	-0.229
-317.012	-200.000	-0.002	-0.186
-315.997	67.956	-0.169	0.171
-314.983	67.118	-0.049	0.050
-313.968	-155.329	-0.643	-0.041
-312.953	438.464	0.133	0.287
-311.939	-200.000	-0.004	0.312
-310.924	800.000	0.037	-0.124
-309.910	-34.762	0.183	-0.099
-308.895	586.098	-0.105	0.254
-307.880	-16.078	-0.201	0.126
-306.866	69.982	0.117	0.120
-305.851	544.107	0.120	-0.283
-304.837	-200.000	-0.021	-0.230
-303.822	-14.084	0.569	-0.362
-302.807	-67.905	0.123	0.047
-301.793	-56.055	-0.152	-0.067
-300.778	-72.115	-0.419	-0.154
-299.764	241.350	0.171	0.281
-298.749	-200.000	0.049	0.222
-297.735	-73.817	0.265	-0.095
-296.720	-86.760	0.239	0.072
-295.705	-123.663	0.227	-0.035
-294.691	-200.000	-0.008	0.338
-293.676	-200.000	-0.037	0.324
-292.662	248.646	-0.058	-0.097
-291.647	90.375	0.095	-0.105
-290.632	368.557	0.048	0.095
-289.618	559.358	-0.044	-0.105
-288.603	800.000	0.019	0.061
-287.589	-81.189	-0.010	-0.003
-286.574	-62.441	-0.303	0.124
-285.559	-164.096	-0.182	-0.008
-284.545	-81.135	0.201	0.066
-283.530	297.139	0.128	-0.231
-282.516	-145.541	0.260	0.023
-281.501	699.768	-0.039	0.102
-280.486	-13.871	0.046	0.029
-279.472	161.459	-0.016	-0.022
-278.457	80.753	0.120	-0.127
-277.443	75.293	0.151	0.157
-276.428	206.894	0.145	-0.223
-275.413	-183.566	0.079	0.001
-274.399	800.000	0.038	-0.120
-273.384	140.096	-0.311	-0.404
-272.370	-12.600	0.132	-0.085
-271.355	-134.176	-0.083	0.010
-270.340	-80.293	-0.133	0.044
-269.326	117.704	-0.133	0.161
-268.311	149.571	-0.103	-0.138
-267.297	156.084	0.074	0.100
-266.282	296.946	-0.088	-0.158
-265.267	88.669	-0.122	0.133
-264.253	44.268	-0.183	0.165
-263.238	-46.327	0.224	-0.109
-262.224	-200.000	-0.028	0.172
-261.209	-200.000	-0.025	-0.165
-260.195	-197.927	-0.231	-0.001
-259.180	272.699	0.120	0.209
-258.165	-41.185	-0.131	-0.067
-257.151	-200.000	0.049	0.373
-256.136	800.000	0.059	-0.221
-255.122	52.682	0.044	-0.041
-254.107	-32.225	-0.240	0.132
-253.092	-63.214	-0.123	-0.050
-252.078	93.245	0.062	-0.069
-251.063	10.561	0.044	0.033
-250.049	124.612	0.170	-0.211
-249.034	-157.220	-0.417	0.025
-248.019	23.749	0.251	-0.204
-247.005	131.441	0.130	0.165
-245.990	-146.198	0.029	-0.003
-244.976	-195.864	-0.317	0.002
-243.961	-200.000	-0.005	0.022
-242.946	-200.000	0.006	0.164
-241.932	40.125	0.101	0.090
-240.917	207.731	0.037	-0.058
-239.903	-200.000	-0.022	0.293
-238.888	659.642	0.017	-0.044
-237.873	81.793	0.259	0.276
-236.859	-51.011	0.085	-0.039
-235.844	72.113	-0.129	-0.132
-234.830	-45.928	0.327	-0.159
-233.815	-110.840	-0.198	0.040
-232.800	60.384	0.134	0.130
-231.786	21.012	-0.080	-0.064
-230.771	398.237	0.030	-0.063
-229.757	-117.852	-0.075	0.013
-228.742	-200.000	-0.001	-0.601
-227.727	99.426	0.133	0.151
-226.713	31.007	-0.112	-0.095
-225.698	-92.066	-0.150	0.042
-224.684	33.836	-0.187	-0.160
-223.669	-90.624	0.246	0.070
-222.655	-105.040	0.237	-0.053
-221.640	37.144	-0.212	0.185
-220.625	-42.880	-0.289	0.144
-219.611	-9.936	-0.191	-0.125
-218.596	-25.108	-0.102	-0.060
-217.582	800.000	0.047	0.158
-216.567	30.791	0.182	0.153
-215.552	-53.519	-0.061	-0.028
-214.538	-200.000	-0.051	-0.236
-213.523	-106.801	0.124	0.027
-212.509	-118.041	-0.275	0.048
-211.494	-142.395	0.251	0.024
-210.479	206.758	0.129	-0.198
-209.465	517.699	-0.229	0.527
-208.450	117.406	-0.143	0.174
-207.436	58.112	-0.112	0.108
-206.421	-148.794	-0.127	0.010
-205.406	-11.006	0.172	-0.112
-204.392	108.644	0.137	0.160
-203.377	-113.500	0.143	-0.028
-202.363	551.281	-0.063	0.148
-201.348	9.621	-0.175	-0.131
-200.333	167.035	0.036	-0.050
-199.319	-200.000	0.008	0.064
-198.304	73.626	-0.303	-0.312
-197.290	37.831	-0.014	0.012
-196.275	-86.932	0.435	0.131
-195.260	-73.682	0.061	-0.022
-194.246	196.565	0.135	-0.202
-193.231	47.966	-0.257	-0.236
-192.217	-102.947	0.291	-0.068
-191.202	-21.970	-0.192	0.115
-190.187	51.793	-0.236	-0.221
-189.173	-179.781	-0.218	-0.005
-188.158	-68.146	0.224	0.086
-187.144	-62.713	-0.298	0.121
-186.129	15.436	0.239	-0.185
-185.114	-200.000	-0.023	0.120
-184.100	32.964	0.171	-0.146
-183.085	-141.458	0.342	-0.034
-182.071	-146.128	0.279	0.024
-181.056	711.645	0.031	-0.081
-180.042	263.535	-0.115	-0.196
-179.027	-200.000	0.021	0.203
-178.012	49.983	0.182	0.169
-176.998	-200.000	-0.005	0.042
-175.983	20.921	-0.202	0.161
-174.969	619.885	0.070	-0.174
-173.954	38.765	-0.104	-0.091
-172.939	143.486	0.114	0.149
-171.925	703.079	-0.025	-0.066
-170.910	17.355	0.251	-0.196
-169.896	33.664	-0.258	0.220
-168.881	-136.913	-0.093	0.011
-167.866	-200.000	0.025	-0.113
-166.852	-6.021	-0.231	-0.155
-165.837	800.000	-0.105	-0.361
-164.823	29.805	-0.356	-0.298
-163.808	-200.000	-0.041	0.435
-162.793	418.981	0.121	0.254
-161.779	-141.659	-0.233	0.023
-160.764	800.000	0.059	-0.203
-159.750	447.927	-0.098	0.211
-158.735	-2.587	0.226	0.155
-157.720	308.832	0.089	0.164
-156.706	-200.000	0.038	0.413
-155.691	-200.000	-0.004	0.131
-154.677	800.000	-0.039	0.135
-153.662	-5.858	0.132	0.089
-152.647	-63.319	0.168	-0.068
-151.633	-38.315	0.101	0.052
-150.618	-200.000	-0.022	-0.170
-149.604	279.510	-0.029	0.050
-148.589	57.782	0.251	0.241
-147.574	-45.872	0.261	0.126
-146.560	164.942	-0.029	0.040
-145.545	-61.914	-0.304	0.125
-144.531	-168.842	-0.140	0.005
-143.516	-67.386	-0.363	0.140
-142.502	206.428	0.189	-0.288
-141.487	-157.977	-0.290	-0.017
-140.472	153.378	0.024	-0.032
-139.458	-200.000	-0.025	-0.330
-138.443	-200.000	-0.007	-0.065
-137.429	-200.000	0.002	0.107
-136.414	800.000	-0.013	-0.042
-135.399	-50.302	-0.092	-0.043
-134.385	53.102	-0.038	0.036
-133.370	800.000	-0.019	0.058
-132.356	-32.557	0.301	0.165
-131.341	272.565	0.213	0.368
-130.326	122.639	0.108	0.132
-129.312	800.000	-0.099	0.272
-128.297	-27.687	0.019	0.011
-127.283	271.784	-0.045	0.077
-126.268	-154.938	0.213	0.014
-125.253	45.845	0.036	0.032
-124.239	94.633	0.077	-0.085
-123.224	13.548	-0.106	-0.080
-122.210	-64.689	0.197	0.078
-121.195	800.000	0.051	0.201
-120.180	-200.000	0.043	0.332
-119.166	-200.000	-0.029	0.325
-118.151	17.032	0.250	0.194
-117.137	-200.000	-0.005	-0.021
-116.122	234.255	0.088	-0.142
-115.107	-126.381	-0.245	-0.036
-114.093	52.135	0.049	-0.046
-113.078	-48.733	-0.146	-0.069
-112.064	54.104	0.093	0.088
-111.049	-24.223	-0.177	0.104
-110.034	-180.483	0.174	0.004
-109.020	-99.849	-0.114	-0.028
-108.005	92.151	0.082	-0.090
-106.991	-69.118	-0.430	-0.162
-105.976	55.467	0.101	0.096
-104.962	81.653	-0.153	-0.162
-103.947	751.028	0.148	0.391
-102.932	-34.674	0.241	0.129
-101.918	543.345	-0.057	-0.133
-100.903	109.476	-0.284	0.334
-99.889	203.821	0.145	0.220
-98.874	-200.000	-0.010	0.169
-97.859	64.971	-0.195	0.193
-96.845	271.537	0.161	-0.277
-95.830	28.739	-0.116	-0.096
-94.816	39.305	0.101	-0.089
-93.801	50.375	0.159	0.148
-92.786	599.225	0.148	-0.359
-91.772	-179.507	-0.403	-0.009
-90.757	800.000	0.031	0.111
-89.743	-104.260	-0.289	0.066
-88.728	107.201	-0.144	-0.167
-87.713	-96.634	0.111	-0.028
-86.699	-200.000	0.008	0.051
-85.684	-114.609	0.343	0.064
-84.670	-200.000	-0.116	0.000
-83.655	800.000	-0.036	-0.104
-82.640	-28.697	0.179	0.101
-81.626	800.000	-0.032	-0.122
-80.611	86.727	0.113	0.122
-79.597	355.758	0.109	0.212
-78.582	233.989	-0.158	-0.254
-77.567	800.000	0.029	0.108
-76.553	-200.000	0.001	-0.136
-75.538	-55.040	0.142	0.062
-74.524	-200.000	-0.052	-0.434
-73.509	107.083	0.166	0.193
-72.494	-200.000	-0.022	0.122
-71.480	800.000	0.073	0.287
-70.465	140.713	0.072	-0.094
-69.451	-200.000	0.053	-0.298
-68.436	130.771	-0.141	-0.177
-67.422	-37.233	-0.157	-0.082
-66.407	-200.000	-0.018	0.247
-65.392	198.418	0.307	-0.459
-64.378	213.932	0.150	-0.233
-63.363	497.328	0.148	0.333
-62.349	800.000	-0.048	0.150
-61.334	31.975	-1.029	-0.867
-60.319	636.877	0.274	0.680
-59.305	603.831	-0.474	-1.152
-58.290	566.462	0.575	1.364
-57.276	633.273	0.625	1.548
-56.261	-200.000	117.034	651.424
-55.246	500.860	1549.675	3495.443
-54.232	172.596	2731.380	3842.225
-53.217	98.410	2300.078	2590.575
-52.203	35.161	1904.656	1631.046
-51.188	29.230	1696.651	1407.718
-50.173	26.864	1654.943	1355.402
-49.159	47.813	1713.202	1563.005
-48.144	46.322	1726.144	1563.425
-47.130	28.814	1683.371	1393.321
-46.115	26.274	1668.889	1362.158
-45.100	26.063	1664.414	1356.864
-44.086	26.054	1661.800	1354.617
-43.071	26.056	1658.936	1352.244
-42.057	26.030	1656.410	1349.938
-41.042	26.019	1654.085	1347.903
-40.027	26.051	1652.362	1346.686
-39.013	26.038	1650.864	1345.310
-37.998	26.005	1649.273	1343.721
-36.984	26.047	1647.686	1342.687
-35.969	26.080	1646.294	1341.742
-34.954	26.194	1644.723	1341.258
-33.940	26.203	1642.649	1339.578
-32.925	26.138	1641.251	1337.905
-31.911	26.190	1639.304	1336.644
-30.896	26.175	1637.639	1335.125
-29.881	26.147	1635.999	1333.530
-28.867	26.199	1634.610	1332.730
-27.852	26.208	1633.261	1331.640
-26.838	26.282	1631.225	1330.474
-25.823	26.292	1630.042	1329.529
-24.809	26.148	1629.431	1327.918
-23.794	26.208	1627.692	1326.887
-22.779	26.213	1625.920	1325.431
-21.765	26.213	1624.129	1323.914
-20.750	26.236	1622.340	1322.573
-19.736	26.109	1621.480	1320.890
-18.721	26.236	1620.406	1320.895
-17.706	26.167	1618.782	1319.010
-16.692	26.185	1616.898	1317.557
-15.677	26.204	1615.648	1316.625
-14.663	26.130	1614.355	1314.978
-13.648	26.249	1612.714	1314.456
-12.633	26.146	1611.881	1312.974
-11.619	26.155	1609.846	1311.328
-10.604	26.258	1607.945	1310.478
-9.590	26.110	1607.028	1308.603
-8.575	26.274	1605.018	1308.108
-7.560	26.236	1604.274	1307.170
-6.546	26.190	1603.379	1306.058
-5.531	26.210	1602.420	1305.367
-4.517	26.109	1601.224	1303.616
-3.502	26.131	1600.407	1303.058
-2.487	26.304	1598.078	1302.353
-1.473	26.012	1586.142	1290.485
-0.458	23.469	1567.393	1257.175
0.556	22.141	1569.497	1227.284
1.571	19.865	1594.638	1230.665
2.586	19.557	1606.633	1237.606
3.600	17.625	1552.147	1182.135
4.615	10.914	1444.995	1056.946
5.629	5.185	1385.153	977.304
6.644	4.180	1377.657	965.671
7.659	4.176	1376.552	964.784
8.673	4.173	1376.105	964.370
9.688	4.232	1374.084	963.232
10.702	4.161	1371.250	960.723
11.717	6.980	1376.041	981.510
12.731	14.384	1390.160	1037.766
13.746	20.847	1400.023	1085.444
14.761	22.526	1402.206	1097.511
15.775	22.051	1400.152	1092.852
16.790	21.120	1397.822	1085.149
17.804	20.350	1395.265	1078.285
18.819	20.034	1394.538	1075.665
19.834	20.027	1393.413	1074.659
20.848	19.985	1392.618	1073.693
21.863	19.671	1391.982	1071.160
22.877	19.554	1390.488	1069.192
23.892	19.498	1389.808	1068.228
24.907	19.473	1388.702	1067.128
25.921	19.581	1387.752	1066.968
26.936	19.604	1386.411	1065.986
27.950	19.620	1385.495	1065.287
28.965	19.746	1384.497	1065.204
29.980	19.857	1384.131	1065.511
30.994	19.947	1382.708	1064.876
32.009	19.939	1381.736	1063.984
33.023	19.924	1380.523	1062.861
34.038	19.791	1379.449	1061.123
35.053	19.611	1378.359	1059.091
36.067	19.741	1376.626	1058.459
37.082	19.724	1375.887	1057.695
38.096	19.858	1374.849	1057.624
39.111	19.791	1374.386	1056.765
40.126	19.725	1373.393	1055.500
41.140	19.343	1372.397	1052.309
42.155	19.260	1371.533	1051.049
43.169	19.195	1371.268	1050.359
44.184	19.190	1370.933	1049.979
45.199	19.284	1370.597	1050.200
46.213	19.439	1370.533	1051.002
47.228	19.668	1369.773	1051.719
48.242	19.749	1368.452	1051.107
49.257	19.675	1366.686	1049.210
50.271	19.613	1365.826	1048.077
51.286	19.602	1364.639	1047.010
52.301	19.665	1363.149	1046.156
53.315	19.402	1362.302	1043.818
54.330	19.352	1361.104	1042.504
55.344	19.366	1359.648	1041.383
56.359	19.241	1358.514	1039.670
57.374	19.299	1357.883	1039.443
58.388	19.114	1357.138	1037.669
59.403	19.094	1356.585	1037.033
60.417	19.137	1355.737	1036.552
61.432	19.103	1354.677	1035.446
62.447	18.921	1354.164	1033.863
63.461	18.854	1352.856	1032.375
64.476	18.897	1351.814	1031.742
65.490	18.913	1350.474	1030.729
66.505	18.964	1348.612	1029.522
67.520	19.017	1347.835	1029.150
68.534	19.050	1346.332	1028.109
69.549	19.032	1345.246	1027.085
70.563	18.894	1344.310	1025.457
71.578	18.821	1343.361	1024.203
72.593	18.751	1342.287	1022.881
73.607	18.750	1341.336	1022.056
74.622	18.813	1340.859	1021.977
75.636	18.767	1340.763	1021.540
76.651	18.833	1339.734	1021.057
77.666	18.925	1339.165	1021.084
78.680	18.954	1339.102	1021.117
79.695	19.083	1338.117	1021.040
80.709	19.126	1337.701	1020.887
81.724	19.266	1336.814	1020.949
82.739	19.387	1336.155	1021.072
83.753	19.486	1335.396	1020.984
84.768	19.732	1334.371	1021.564
85.782	19.840	1333.274	1021.271
86.797	19.875	1331.950	1020.376
87.812	19.664	1331.099	1018.388
88.826	19.676	1329.265	1016.968
89.841	19.711	1328.488	1016.491
90.855	19.805	1328.254	1016.772
91.870	19.896	1327.267	1016.460
92.884	19.877	1326.482	1015.656
93.899	19.928	1325.615	1015.206
94.914	19.950	1324.854	1014.659
95.928	19.961	1323.721	1013.766
96.943	19.913	1323.032	1012.871
97.957	19.745	1322.083	1011.069
98.972	19.789	1321.396	1010.714
99.987	19.783	1320.359	1009.796
101.001	19.759	1319.441	1008.866
102.016	19.902	1317.885	1008.419
103.030	19.811	1317.385	1007.417
104.045	19.816	1316.629	1006.778
105.060	19.688	1315.369	1004.979
106.074	19.332	1313.366	1001.294
107.089	19.060	1312.164	998.709
108.103	18.981	1310.571	996.954
109.118	18.996	1309.226	995.928
110.133	18.969	1308.207	994.909
111.147	18.966	1306.981	993.871
112.162	19.056	1305.634	993.279
113.176	19.104	1304.992	992.981
114.191	19.204	1304.184	992.854
115.206	19.194	1302.657	991.546
116.220	19.251	1301.054	990.565
117.235	19.180	1300.137	989.372
118.249	19.086	1299.185	988.019
119.264	18.938	1298.353	986.452
120.279	18.892	1297.585	985.516
121.293	18.882	1295.848	984.054
122.308	18.739	1294.460	982.093
123.322	18.777	1293.269	981.321
124.337	18.740	1292.854	980.706
125.352	18.794	1291.555	979.941
126.366	18.674	1290.478	978.355
127.381	18.696	1289.362	977.548
128.395	18.691	1288.595	976.848
129.410	18.639	1287.914	975.955
130.424	18.900	1286.680	976.411
131.439	19.019	1285.987	976.477
132.454	19.136	1285.009	976.309
133.468	19.081	1284.514	975.535
134.483	19.047	1284.020	974.886
135.497	19.110	1282.699	974.153
136.512	19.235	1281.098	973.552
137.527	19.291	1280.184	973.088
138.541	19.185	1279.127	971.601
139.556	19.338	1278.519	971.915
140.570	19.496	1276.925	971.512
141.585	19.538	1276.137	971.058
142.600	19.668	1274.942	970.797
143.614	19.711	1274.653	970.730
144.629	19.770	1273.375	970.001
145.643	19.648	1272.770	968.770
146.658	19.573	1271.160	967.039
147.673	19.485	1269.175	964.952
148.687	19.232	1267.738	962.361
149.702	19.283	1266.130	961.338
150.716	19.187	1264.726	959.653
151.731	19.283	1263.811	959.409
152.746	19.256	1263.057	958.601
153.760	19.257	1262.219	957.889
154.775	19.278	1261.136	957.098
155.789	19.473	1259.793	957.076
156.804	19.539	1259.157	956.874
157.819	19.606	1258.180	956.418
158.833	19.635	1257.607	956.059
159.848	19.845	1256.937	956.624
160.862	19.729	1255.973	955.163
161.877	19.491	1254.185	952.407
162.892	19.216	1252.938	949.862
163.906	19.173	1251.951	948.790
164.921	19.184	1250.845	947.930
165.935	19.276	1250.342	947.973
166.950	19.381	1249.736	948.002
167.964	19.507	1248.829	947.924
168.979	19.319	1248.151	946.297
169.994	19.291	1247.424	945.509
171.008	19.383	1246.474	945.205
172.023	19.610	1245.594	945.699
173.037	19.627	1245.529	945.657
174.052	19.650	1244.262	944.741
175.067	19.451	1242.618	942.322
176.081	19.196	1241.926	940.323
177.096	19.208	1240.893	939.521
178.110	19.370	1239.948	939.603
179.125	19.413	1238.538	938.689
180.140	19.565	1237.563	938.692
181.154	19.525	1237.189	938.105
182.169	19.638	1235.851	937.624
183.183	19.733	1234.603	937.107
184.198	19.769	1233.389	936.300
185.213	19.693	1232.614	935.217
186.227	19.811	1231.777	935.139
187.242	19.888	1230.990	934.873
188.256	19.935	1230.000	934.294
189.271	19.958	1229.279	933.787
190.286	19.798	1227.357	931.381
191.300	19.308	1226.916	928.323
192.315	19.216	1225.818	926.917
193.329	19.279	1225.000	926.556
194.344	19.315	1224.475	926.272
195.359	19.464	1223.874	926.532
196.373	19.617	1223.526	927.008
197.388	19.747	1222.909	927.156
198.402	19.939	1222.967	928.151
199.417	20.077	1222.237	928.254
200.432	20.191	1222.165	928.726
201.446	20.255	1221.734	928.661
202.461	20.423	1220.166	928.285
203.475	20.326	1219.290	927.017
204.490	20.032	1217.921	924.327
205.504	19.920	1216.202	922.343
206.519	19.843	1215.310	921.172
207.534	19.638	1214.306	919.239
208.548	19.818	1213.231	919.302
209.563	19.759	1212.422	918.293
210.577	19.764	1212.018	917.934
211.592	19.886	1210.830	917.602
212.607	20.111	1209.903	918.010
213.621	20.040	1209.513	917.254
214.636	20.028	1208.249	916.151
215.650	20.034	1207.534	915.559
216.665	20.193	1206.540	915.565
217.680	20.355	1205.920	915.869
218.694	20.268	1205.082	914.693
219.709	20.229	1204.036	913.612
220.723	20.187	1203.640	913.011
221.738	20.285	1202.380	912.486
222.753	20.218	1201.615	911.474
223.767	20.140	1201.619	910.987
224.782	20.256	1201.091	911.117
225.796	20.433	1200.299	911.366
226.811	20.325	1199.356	909.999
227.826	20.176	1198.323	908.354
228.840	20.190	1197.620	907.816
229.855	20.181	1196.844	907.098
230.869	20.203	1195.921	906.434
231.884	20.045	1195.261	905.030
232.899	19.885	1194.336	903.413
233.913	19.801	1193.537	902.293
234.928	19.833	1192.550	901.631
235.942	19.739	1192.124	900.739
236.957	19.738	1190.864	899.702
237.972	19.813	1190.261	899.555
238.986	19.841	1189.957	899.393
240.001	19.941	1188.870	899.013
241.015	20.085	1187.958	898.993
242.030	20.018	1187.410	898.150
243.045	20.154	1186.538	898.117
244.059	20.248	1185.747	897.922
245.074	20.147	1185.675	897.266
246.088	20.316	1184.772	897.375
247.103	20.440	1184.144	897.461
248.117	20.517	1183.595	897.367
249.132	20.755	1182.971	898.041
250.147	20.844	1182.876	898.347
251.161	21.133	1181.728	898.884
252.176	21.157	1181.352	898.642
253.190	21.090	1180.641	897.677
254.205	21.201	1180.206	897.839
255.220	21.244	1179.848	897.705
256.234	21.167	1179.170	896.717
257.249	21.151	1177.942	895.621
258.263	21.208	1177.552	895.540
259.278	21.138	1177.019	894.697
260.293	21.154	1176.177	894.057
261.307	21.197	1175.911	893.996
262.322	21.306	1174.893	893.703
263.336	21.299	1174.192	893.053
264.351	21.338	1173.467	892.624
265.366	21.396	1172.987	892.472
266.380	21.408	1172.030	891.729
267.395	21.170	1171.315	889.889
268.409	21.123	1170.299	888.801
269.424	20.971	1169.925	887.667
270.439	21.095	1169.137	887.621
271.453	20.989	1167.904	886.068
272.468	20.867	1167.236	884.862
273.482	20.804	1166.418	883.845
274.497	20.880	1165.920	883.771
275.512	20.967	1164.877	883.345
276.526	20.921	1164.014	882.379
277.541	20.940	1163.363	881.903
278.555	20.931	1163.123	881.600
279.570	21.135	1162.884	882.371
280.585	21.288	1162.006	882.401
281.599	21.312	1161.114	881.766
282.614	21.202	1159.509	879.915
283.628	21.037	1158.460	878.210
284.643	21.039	1157.259	877.232
285.657	20.976	1157.087	876.709
286.672	21.006	1155.912	875.889
287.687	21.018	1155.154	875.297
288.701	21.100	1154.322	875.003
289.716	21.088	1153.726	874.412
290.730	21.119	1152.899	873.863
291.745	21.265	1152.176	873.970
292.760	21.182	1151.459	872.930
293.774	21.205	1151.227	872.791
294.789	21.392	1150.605	873.179
295.803	21.265	1150.090	872.075
296.818	21.201	1149.181	870.993
297.833	21.090	1148.248	869.651
298.847	21.130	1147.253	869.021
299.862	21.171	1146.662	868.700
300.876	21.153	1146.285	868.250
301.891	21.267	1145.635	868.247
302.906	21.460	1144.783	868.483
303.920	21.520	1144.531	868.512
304.935	21.588	1144.128	868.468
305.949	21.833	1143.208	868.906
306.964	21.682	1142.583	867.609
307.979	21.513	1141.919	866.189
308.993	21.618	1140.656	865.673
310.008	21.539	1140.317	864.951
311.022	21.707	1139.585	865.147
312.037	21.660	1138.379	863.923
313.052	21.582	1137.066	862.467
314.066	21.265	1136.413	860.333
315.081	21.159	1135.212	858.825
316.095	21.065	1134.430	857.698
317.110	21.018	1133.702	856.841
318.125	21.131	1133.067	856.840
319.139	21.167	1132.323	856.377
320.154	21.201	1131.834	856.099
321.168	21.195	1130.977	855.343
322.183	21.183	1130.343	854.733
323.197	21.160	1130.016	854.294
324.212	21.281	1129.490	854.414
325.227	21.324	1128.914	854.112
326.241	21.251	1128.586	853.434
327.256	21.252	1127.478	852.524
328.270	21.262	1126.342	851.638
329.285	21.275	1125.226	850.781
330.300	21.220	1124.323	849.757
331.314	21.274	1123.157	849.061
332.329	21.186	1122.828	848.311
333.343	21.378	1121.911	848.476
334.358	21.496	1121.207	848.443
335.373	21.578	1120.451	848.189
336.387	21.505	1120.338	847.677
337.402	21.670	1119.276	847.595
338.416	21.718	1118.863	847.440
339.431	21.901	1117.972	847.573
340.446	21.981	1117.492	847.524
341.460	22.129	1117.016	847.801
342.475	22.150	1116.014	847.066
343.489	22.094	1115.236	846.130
344.504	22.195	1114.567	846.035
345.519	22.212	1113.746	845.419
346.533	22.305	1113.263	845.423
347.548	22.347	1112.400	844.895
348.562	22.195	1111.412	843.343
349.577	22.092	1109.945	841.661
350.592	21.853	1109.251	839.916
351.606	21.804	1108.259	838.856
352.621	21.538	1107.829	837.183
353.635	21.563	1106.989	836.595
354.650	21.770	1105.844	836.644
355.665	21.681	1105.436	835.837
356.679	21.802	1105.431	836.337
357.694	21.824	1104.599	835.738
358.708	21.920	1104.309	835.899
359.723	22.082	1102.978	835.590
360.738	21.993	1102.725	834.899
361.752	22.016	1101.860	834.283
362.767	22.067	1101.289	834.015
363.781	22.058	1100.870	833.582
364.796	22.125	1100.677	833.682
365.810	22.336	1100.166	834.221
366.825	22.404	1099.706	834.121
367.840	22.490	1099.015	833.930
368.854	22.588	1098.600	834.003
369.869	22.640	1097.675	833.473
370.883	22.477	1096.759	831.934
371.898	22.323	1095.933	830.509
372.913	22.297	1095.096	829.680
373.927	22.370	1094.989	829.868
374.942	22.493	1094.829	830.253
375.956	22.517	1093.587	829.349
376.971	22.478	1093.121	828.741
377.986	22.502	1093.018	828.700
379.000	22.570	1092.504	828.557
380.015	22.644	1092.138	828.554
381.029	22.795	1091.346	828.591
382.044	22.764	1090.253	827.542
383.059	22.725	1089.241	826.515
384.073	22.697	1088.638	825.856
385.088	22.788	1087.759	825.541
386.102	22.867	1086.288	824.721
387.117	22.492	1085.465	822.272
388.132	22.275	1084.570	820.512
389.146	22.296	1083.876	820.012
390.161	22.316	1083.124	819.462
391.175	22.360	1082.248	818.933
392.190	22.372	1082.033	818.753
393.205	22.551	1081.570	819.159
394.219	22.591	1080.483	818.452
395.234	22.485	1079.047	816.801
396.248	22.268	1078.525	815.326
397.263	22.347	1077.294	814.688
398.278	22.240	1076.431	813.472
399.292	22.183	1075.702	812.584
400.307	22.167	1074.928	811.854
401.321	22.168	1074.313	811.319
402.336	22.233	1073.335	810.812
403.350	22.150	1072.988	810.096
404.365	22.245	1072.471	810.068
405.380	22.488	1071.589	810.448
406.394	22.367	1071.331	809.628
407.409	22.522	1070.909	809.946
408.423	22.722	1070.090	810.174
409.438	22.990	1068.888	810.422
410.453	22.849	1068.887	809.705
411.467	23.020	1068.142	809.853
412.482	22.935	1068.043	809.315
413.496	23.153	1066.975	809.432
414.511	23.241	1065.970	809.001
415.526	23.277	1066.243	809.299
416.540	23.400	1065.511	809.237
417.555	23.243	1064.995	808.055
418.569	23.103	1063.924	806.533
419.584	23.084	1063.418	805.993
420.599	23.108	1063.369	805.992
421.613	157.923	1404.255	1797.013
422.628	145.351	1453.856	1797.088
