DTS Sentinel unit serial number:	SN413079Multiplexer serial number:	ORYXHardware model number:	OX4-SRSoftware version number:	ORYX F/W v4.00 Oryx Data Collector v3.7.2.0data status	okinstallation	princeton_trtdifferential loss correction	single-endedforward channel	channel 2reverse channel	N/Adate	2019/09/18time	20:27:34forward acquisition time	60.00reverse acquisition time	0.00gamma	496.2192k internal	0.2336k external	0.2336temperature offset calibration	1.0036default loss term (dB/km)	0.3790temperature slope calibration	1.0000multiplexer offset coefficient	1.0000multiplexer slope coefficient	1.0000fibre end	0.00T internal ref (°C)	28.44T ext. ref 1 (°C)	0.98T ext. ref 2 (°C)	19.25length (m)	temperature (°C)	Stokes	anti-Stokes-747.200	80.744	-0.082	-0.089
-746.185	800.000	0.094	0.264
-745.171	271.612	-0.206	0.365
-744.156	777.640	-0.095	0.260
-743.142	-101.211	0.176	-0.043
-742.127	-200.000	0.006	0.096
-741.112	-96.017	-0.152	0.041
-740.098	-200.000	-0.056	0.373
-739.083	182.681	-0.149	-0.220
-738.069	-200.000	0.090	0.601
-737.054	-92.649	-0.175	-0.049
-736.039	-16.030	-0.374	-0.239
-735.025	-42.492	0.297	-0.152
-734.010	3.126	-0.068	0.050
-732.996	254.392	-0.134	-0.230
-731.981	-77.735	-0.309	0.107
-730.966	-10.895	-0.221	0.146
-729.952	-40.368	-0.110	-0.057
-728.937	-200.000	-0.048	-0.297
-727.923	68.643	-0.210	0.216
-726.908	-102.592	-0.134	-0.032
-725.894	36.040	-0.158	0.139
-724.879	509.030	-0.124	0.289
-723.864	94.894	-0.100	-0.114
-722.850	-194.030	0.162	0.001
-721.835	-200.000	-0.007	0.048
-720.821	582.371	-0.027	0.067
-719.806	276.334	-0.181	0.323
-718.791	800.000	-0.108	-0.307
-717.777	86.029	0.147	-0.162
-716.762	-200.000	0.051	-0.416
-715.748	145.229	-0.135	-0.181
-714.733	-58.289	0.170	-0.074
-713.718	170.609	-0.044	0.064
-712.704	-200.000	0.008	0.121
-711.689	-81.425	0.078	-0.026
-710.675	-96.885	0.339	-0.089
-709.660	-35.783	-0.620	0.337
-708.645	-166.291	-0.404	0.017
-707.631	800.000	0.030	0.123
-706.616	-120.402	0.406	-0.069
-705.602	-66.633	0.199	-0.079
-704.587	-54.496	0.139	-0.063
-703.572	111.782	-0.099	0.119
-702.558	58.766	-0.227	0.223
-701.543	-200.000	-0.002	0.088
-700.529	-74.936	-0.140	0.050
-699.514	40.102	0.157	0.141
-698.499	307.521	0.233	-0.435
-697.485	-145.758	-0.268	-0.024
-696.470	-52.178	0.292	0.136
-695.456	36.370	-0.252	-0.223
-694.441	1.879	0.293	-0.212
-693.426	-137.811	-0.193	-0.022
-692.412	-200.000	0.006	0.114
-691.397	13.486	0.208	0.162
-690.383	98.523	0.179	-0.207
-689.368	227.284	0.060	0.098
-688.354	-84.447	-0.092	-0.029
-687.339	-59.021	0.177	-0.077
-686.324	-49.114	0.247	-0.118
-685.310	210.143	-0.012	-0.019
-684.295	800.000	-0.071	-0.252
-683.281	-93.179	-0.252	0.070
-682.266	-200.000	-0.069	-0.464
-681.251	-18.528	-0.337	-0.211
-680.237	-200.000	0.070	-0.417
-679.222	800.000	-0.126	-0.357
-678.208	-17.260	0.090	-0.057
-677.193	210.234	0.098	-0.154
-676.178	633.328	0.040	0.101
-675.164	-84.019	0.032	0.010
-674.149	-26.551	-0.384	0.225
-673.135	183.235	0.067	0.099
-672.120	139.753	0.130	0.171
-671.105	115.856	-0.052	-0.064
-670.091	1.739	0.218	0.158
-669.076	13.950	0.043	-0.034
-668.062	-43.322	0.082	0.042
-667.047	-186.345	-0.190	-0.003
-666.032	800.000	-0.186	-0.547
-665.018	31.904	0.130	-0.112
-664.003	-111.412	-0.388	0.079
-662.989	-22.370	-0.309	-0.187
-661.974	-119.865	0.232	-0.040
-660.959	-200.000	0.045	0.278
-659.945	-50.411	0.219	0.104
-658.930	74.992	-0.199	0.209
-657.916	-46.051	0.065	0.032
-656.901	241.223	-0.034	0.056
-655.886	-87.463	-0.282	0.086
-654.872	53.999	0.081	-0.078
-653.857	800.000	0.129	-0.375
-652.843	800.000	0.076	-0.313
-651.828	199.966	0.109	0.167
-650.814	800.000	-0.057	-0.202
-649.799	-97.388	0.136	0.035
-648.784	372.937	-0.097	-0.198
-647.770	-200.000	0.012	-0.297
-646.755	-200.000	-0.033	0.158
-645.741	168.390	-0.099	0.141
-644.726	31.401	-0.158	-0.136
-643.711	168.661	-0.272	-0.387
-642.697	-79.855	0.132	-0.045
-641.682	272.408	0.085	-0.151
-640.668	579.438	0.068	0.168
-639.653	-143.644	-0.147	-0.014
-638.638	45.366	-0.164	-0.151
-637.624	39.216	0.094	0.085
-636.609	63.829	-0.086	0.087
-635.595	-77.618	-0.226	0.078
-634.580	296.381	-0.085	0.156
-633.565	-200.000	-0.053	0.233
-632.551	-200.000	-0.005	0.266
-631.536	151.405	-0.114	-0.155
-630.522	-32.476	0.159	-0.088
-629.507	-18.012	0.079	-0.050
-628.492	43.037	-0.068	0.062
-627.478	800.000	-0.060	-0.235
-626.463	-176.345	-0.140	-0.004
-625.449	69.822	0.096	-0.099
-624.434	539.804	-0.068	-0.162
-623.419	-122.836	-0.307	-0.050
-622.405	394.335	0.123	-0.255
-621.390	105.712	-0.213	-0.252
-620.376	214.464	0.112	0.178
-619.361	-75.470	0.112	-0.040
-618.346	-107.018	-0.250	0.055
-617.332	-200.000	0.090	-0.661
-616.317	636.041	-0.070	0.177
-615.303	-154.845	0.227	0.015
-614.288	156.282	-0.085	-0.117
-613.273	-200.000	0.021	-0.183
-612.259	-200.000	-0.041	-0.347
-611.244	-28.691	0.163	0.094
-610.230	-200.000	-0.014	0.217
-609.215	-200.000	-0.008	0.080
-608.201	-180.659	0.265	0.005
-607.186	47.423	-0.148	0.137
-606.171	425.894	0.048	0.103
-605.157	-19.257	0.197	0.122
-604.142	-34.270	0.104	0.057
-603.128	-116.498	-0.187	-0.034
-602.113	-132.149	-0.094	0.012
-601.098	335.201	-0.075	-0.146
-600.084	-62.197	-0.204	-0.085
-599.069	-62.644	0.155	0.064
-598.055	174.079	0.123	0.178
-597.040	-17.879	-0.261	0.163
-596.025	-154.757	0.268	0.018
-595.011	229.198	-0.149	0.242
-593.996	25.284	0.040	0.033
-592.982	800.000	0.069	0.193
-591.967	800.000	-0.051	0.216
-590.952	-43.002	0.276	-0.140
-589.938	800.000	0.115	0.395
-588.923	552.669	0.057	0.137
-587.909	-48.883	-0.240	-0.115
-586.894	800.000	0.051	-0.195
-585.879	-65.367	-0.444	0.178
-584.865	14.856	0.131	0.102
-583.850	-60.914	-0.183	-0.077
-582.836	170.091	0.041	-0.059
-581.821	-31.400	-0.230	0.129
-580.806	-200.000	0.004	0.095
-579.792	-151.303	0.224	-0.017
-578.777	800.000	-0.059	0.165
-577.763	495.389	-0.069	0.157
-576.748	-200.000	-0.004	0.076
-575.733	373.497	0.198	-0.401
-574.719	-200.000	-0.035	-0.235
-573.704	-117.590	0.265	-0.048
-572.690	-200.000	-0.043	-0.211
-571.675	230.870	-0.056	-0.091
-570.661	235.522	-0.064	-0.105
-569.646	565.270	0.038	0.093
-568.631	471.825	0.052	-0.117
-567.617	113.567	-0.132	0.160
-566.602	-200.000	-0.051	-0.421
-565.588	-98.651	0.357	0.091
-564.573	-200.000	0.010	-0.102
-563.558	-18.784	-0.193	-0.120
-562.544	-200.000	0.018	0.103
-561.529	-44.932	0.184	-0.092
-560.515	-89.437	-0.307	-0.090
-559.500	110.939	-0.261	-0.314
-558.485	800.000	0.068	-0.212
-557.471	1.627	-0.360	0.258
-556.456	-61.296	-0.157	-0.066
-555.442	253.460	0.219	0.372
-554.427	-148.159	-0.081	0.007
-553.412	506.824	-0.067	-0.155
-552.398	-24.637	0.197	0.117
-551.383	-4.785	0.079	0.054
-550.369	24.197	-0.053	0.043
-549.354	-179.958	0.157	0.003
-548.339	-121.118	0.036	-0.006
-547.325	-200.000	-0.031	-0.167
-546.310	-4.749	-0.195	0.134
-545.296	-200.000	-0.006	-0.269
-544.281	445.636	0.037	0.081
-543.266	-3.956	-0.057	0.040
-542.252	90.804	-0.270	0.301
-541.237	-17.282	-0.204	0.128
-540.223	-80.440	0.454	-0.151
-539.208	-5.578	0.146	-0.100
-538.193	-143.863	-0.171	0.016
-537.179	61.809	0.409	-0.406
-536.164	143.540	0.056	-0.074
-535.150	800.000	0.043	-0.146
-534.135	-110.468	-0.236	-0.049
-533.121	477.733	0.046	-0.103
-532.106	800.000	-0.051	0.144
-531.091	-167.979	-0.344	-0.013
-530.077	235.494	0.041	0.068
-529.062	-100.232	0.093	-0.023
-528.048	130.468	-0.047	0.060
-527.033	-200.000	0.006	-0.160
-526.018	54.178	-0.046	-0.044
-525.004	-36.949	-0.216	0.115
-523.989	-111.680	0.052	0.011
-522.975	-186.466	-0.297	0.004
-521.960	-166.781	0.137	-0.006
-520.945	34.506	-0.376	-0.327
-519.931	-114.287	0.263	0.050
-518.916	378.717	-0.236	-0.480
-517.902	131.320	0.141	0.181
-516.887	800.000	0.053	-0.181
-515.872	-200.000	0.024	-0.150
-514.858	-110.611	-0.396	0.081
-513.843	44.783	0.172	-0.158
-512.829	8.254	0.220	-0.164
-511.814	80.371	0.031	0.033
-510.799	-17.822	-0.100	0.063
-509.785	-104.961	0.096	-0.022
-508.770	774.934	0.193	-0.524
-507.756	-47.514	-0.129	0.062
-506.741	325.283	0.058	-0.110
-505.726	-200.000	0.045	0.240
-504.712	-138.427	0.169	0.018
-503.697	-200.000	-0.007	-0.250
-502.683	117.659	0.093	-0.114
-501.668	-151.714	0.306	0.022
-500.653	12.697	0.068	0.052
-499.639	-23.491	0.175	-0.104
-498.624	800.000	0.140	-0.503
-497.610	56.829	-0.165	-0.160
-496.595	384.100	-0.139	-0.285
-495.581	-43.169	0.222	0.112
-494.566	51.221	-0.419	0.396
-493.551	122.390	-0.172	0.214
-492.537	-200.000	-0.046	0.464
-491.522	-104.149	-0.383	-0.089
-490.508	800.000	0.164	0.486
-489.493	280.238	-0.187	0.332
-488.478	137.836	-0.090	-0.117
-487.464	155.029	0.130	-0.177
-486.449	47.309	-0.179	-0.165
-485.435	-200.000	0.022	-0.232
-484.420	220.535	0.150	-0.239
-483.405	-19.369	-0.021	0.013
-482.391	-112.692	-0.487	-0.096
-481.376	-200.000	0.056	0.444
-480.362	-200.000	-0.054	0.272
-479.347	-62.528	0.137	0.057
-478.332	364.601	0.111	0.222
-477.318	239.209	0.048	0.080
-476.303	102.085	0.144	-0.168
-475.289	-200.000	0.018	0.334
-474.274	-162.991	0.171	-0.008
-473.259	-100.477	0.294	-0.072
-472.245	800.000	-0.040	0.120
-471.230	-95.077	-0.032	-0.009
-470.216	-200.000	-0.025	-0.266
-469.201	-62.157	-0.142	-0.059
-468.186	-108.230	-0.190	0.041
-467.172	-200.000	0.011	-0.223
-466.157	-48.785	0.287	0.137
-465.143	91.832	-0.210	-0.234
-464.128	384.978	-0.069	-0.141
-463.113	-38.794	0.128	0.067
-462.099	398.890	0.311	0.647
-461.084	-47.038	-0.254	-0.123
-460.070	116.308	0.075	-0.091
-459.055	208.558	0.077	-0.120
-458.040	-35.940	0.231	-0.124
-457.026	-133.971	-0.109	0.013
-456.011	-200.000	0.314	-0.000
-454.997	-95.992	-0.298	-0.079
-453.982	139.057	-0.163	0.212
-452.968	-200.000	0.004	-0.140
-451.953	800.000	-0.052	-0.226
-450.938	20.375	0.085	-0.068
-449.924	-23.890	-0.159	0.094
-448.909	-200.000	-0.048	-0.541
-447.895	355.566	0.078	0.155
-446.880	-200.000	-0.002	0.011
-445.865	-14.225	0.092	0.059
-444.851	8.099	-0.037	-0.027
-443.836	-80.119	-0.286	-0.095
-442.822	-200.000	-0.019	0.202
-441.807	-200.000	0.027	0.410
-440.792	-200.000	-0.005	-0.147
-439.778	800.000	0.088	0.353
-438.763	-23.673	-0.239	0.142
-437.749	461.570	0.118	0.261
-436.734	-3.448	-0.109	0.075
-435.719	-200.000	0.028	-0.124
-434.705	99.616	0.185	-0.212
-433.690	-130.631	0.304	-0.041
-432.676	173.069	-0.055	-0.078
-431.661	-111.284	-0.220	-0.045
-430.646	184.304	-0.043	-0.063
-429.632	130.176	0.047	-0.060
-428.617	359.163	0.018	0.036
-427.603	-90.110	0.354	-0.102
-426.588	-23.681	0.238	-0.142
-425.573	-200.000	-0.044	0.274
-424.559	-4.547	0.119	0.081
-423.544	-200.000	0.004	-0.057
-422.530	-128.226	-0.286	-0.040
-421.515	-18.765	0.090	0.056
-420.500	40.518	0.300	-0.268
-419.486	-66.169	0.251	-0.099
-418.471	-74.837	0.219	-0.078
-417.457	60.630	0.116	-0.114
-416.442	497.674	0.056	0.128
-415.428	-156.395	-0.210	0.013
-414.413	-194.076	0.038	0.000
-413.398	28.960	0.127	-0.107
-412.384	-156.269	-0.074	-0.005
-411.369	-149.147	-0.074	0.006
-410.355	140.212	0.179	-0.234
-409.340	800.000	-0.026	-0.090
-408.325	-135.332	0.291	-0.035
-407.311	-165.139	-0.336	-0.015
-406.296	137.650	-0.136	0.176
-405.282	364.232	0.158	-0.314
-404.267	19.288	-0.242	0.193
-403.252	46.222	0.340	-0.312
-402.238	229.289	-0.063	-0.103
-401.223	-94.475	0.240	0.065
-400.209	800.000	-0.103	-0.285
-399.194	-200.000	0.005	-0.229
-398.179	540.207	-0.090	-0.212
-397.165	399.560	0.070	-0.146
-396.150	-200.000	0.008	0.047
-395.136	800.000	-0.062	0.205
-394.121	-58.456	-0.390	0.168
-393.106	35.720	-0.196	0.171
-392.092	474.690	-0.074	0.165
-391.077	-100.141	0.121	-0.030
-390.063	284.725	0.105	-0.187
-389.048	-116.781	-0.094	-0.017
-388.033	258.046	-0.059	0.101
-387.019	-200.000	-0.045	0.288
-386.004	-30.535	-0.360	-0.202
-384.990	-200.000	0.004	0.226
-383.975	-65.387	-0.003	-0.001
-382.960	77.319	0.158	0.166
-381.946	301.439	0.027	0.049
-380.931	-72.459	0.205	0.075
-379.917	-28.284	0.253	0.145
-378.902	-200.000	-0.040	0.205
-377.888	-89.832	-0.408	0.118
-376.873	-93.299	0.099	0.027
-375.858	-149.046	-0.104	-0.008
-374.844	-131.554	0.196	0.026
-373.829	-86.405	0.262	-0.080
-372.815	800.000	-0.076	0.292
-371.800	221.476	0.124	0.197
-370.785	70.489	0.161	0.165
-369.771	-8.463	0.363	-0.242
-368.756	-81.059	-0.161	0.053
-367.742	55.252	-0.068	0.065
-366.727	-16.812	0.166	0.104
-365.712	-153.920	0.077	-0.005
-364.698	-138.826	0.167	0.018
-363.683	-200.000	0.017	0.190
-362.669	65.911	-0.085	0.085
-361.654	-90.682	0.539	-0.154
-360.639	-200.000	-0.068	-0.444
-359.625	-200.000	-0.041	-0.407
-358.610	349.123	-0.131	0.255
-357.596	19.760	0.081	-0.064
-356.581	520.230	0.103	-0.238
-355.566	134.595	0.038	0.048
-354.552	-105.944	-0.215	-0.048
-353.537	99.548	0.119	-0.136
-352.523	720.205	-0.137	-0.359
-351.508	-81.421	-0.091	-0.030
-350.493	144.144	-0.096	0.126
-349.479	-0.810	-0.054	-0.038
-348.464	13.472	-0.058	-0.045
-347.450	-108.760	0.216	0.046
-346.435	443.693	-0.092	0.199
-345.420	-140.684	0.261	-0.027
-344.406	-200.000	-0.030	-0.219
-343.391	473.061	0.154	-0.344
-342.377	-14.522	0.308	-0.196
-341.362	378.759	-0.053	0.107
-340.348	-9.675	-0.393	0.259
-339.333	-73.667	0.115	-0.041
-338.318	89.795	0.108	-0.119
-337.304	407.889	0.061	-0.127
-336.289	-108.747	-0.339	-0.072
-335.275	-33.557	-0.135	0.074
-334.260	255.835	-0.169	0.287
-333.245	107.091	0.266	-0.312
-332.231	363.718	0.099	-0.197
-331.216	18.792	0.207	-0.164
-330.202	219.972	0.217	-0.344
-329.187	-200.000	-0.023	-0.390
-328.172	-200.000	-0.021	0.258
-327.158	239.617	0.057	0.093
-326.143	-200.000	-0.012	0.210
-325.129	-200.000	-0.077	0.407
-324.114	-200.000	0.033	-0.156
-323.099	-87.429	0.188	0.056
-322.085	-3.560	0.166	0.114
-321.070	-68.303	-0.314	-0.120
-320.056	-136.810	0.252	-0.029
-319.041	639.392	-0.046	0.117
-318.026	58.669	-0.277	-0.269
-317.012	538.385	-0.065	0.153
-315.997	229.412	0.154	0.249
-314.983	71.995	0.178	0.183
-313.968	-28.420	0.302	0.172
-312.953	-128.188	0.090	0.013
-311.939	800.000	-0.052	0.157
-310.924	-146.409	0.208	-0.018
-309.910	-43.469	-0.369	-0.184
-308.895	-28.642	0.231	0.131
-307.880	-4.314	0.100	-0.068
-306.866	180.114	0.109	-0.158
-305.851	245.173	-0.160	-0.265
-304.837	800.000	0.035	0.122
-303.822	120.644	0.075	-0.092
-302.807	-62.642	0.174	-0.071
-301.793	129.926	0.265	-0.335
-300.778	672.781	-0.082	-0.210
-299.764	-44.977	-0.195	0.096
-298.749	92.300	0.194	0.216
-297.735	-200.000	-0.006	0.118
-296.720	295.308	-0.125	-0.225
-295.705	652.168	0.037	-0.094
-294.691	-100.585	-0.162	-0.039
-293.676	323.611	-0.104	0.196
-292.662	515.966	-0.154	0.354
-291.647	597.323	-0.071	0.175
-290.632	33.137	0.165	-0.141
-289.618	-77.076	-0.303	-0.104
-288.603	59.789	0.125	-0.122
-287.589	-200.000	0.031	-0.164
-286.574	-146.227	-0.105	0.009
-285.559	-94.753	0.240	-0.064
-284.545	-23.155	-0.257	0.153
-283.530	-131.628	0.083	0.011
-282.516	175.549	-0.307	-0.439
-281.501	10.038	-0.101	-0.075
-280.486	-10.641	0.088	0.057
-279.472	-73.899	0.192	0.069
-278.457	160.978	-0.077	0.106
-277.443	138.955	0.100	0.129
-276.428	-200.000	0.026	-0.179
-275.413	-87.677	-0.217	0.065
-274.399	-200.000	-0.025	0.190
-273.384	-60.687	-0.065	0.027
-272.370	-27.304	0.103	-0.059
-271.355	-200.000	-0.021	-0.311
-270.340	3.613	-0.126	-0.090
-269.326	-78.074	0.165	-0.056
-268.311	800.000	0.057	0.220
-267.297	-60.584	-0.363	0.152
-266.282	-69.346	-0.125	-0.047
-265.267	-200.000	0.027	-0.234
-264.253	-183.576	0.368	0.006
-263.238	-200.000	0.048	-0.292
-262.224	-136.532	-0.088	0.010
-261.209	308.629	0.052	0.096
-260.195	54.693	0.165	-0.157
-259.180	-200.000	0.022	0.147
-258.165	-200.000	0.008	-0.094
-257.151	-200.000	0.013	-0.244
-256.136	43.706	-0.303	0.273
-255.122	152.928	0.274	0.369
-254.107	-88.346	-0.308	-0.091
-253.092	800.000	-0.068	0.194
-252.078	-70.557	0.230	0.086
-251.063	-75.778	-0.173	0.060
-250.049	-200.000	-0.022	0.125
-249.034	79.586	-0.148	-0.156
-248.019	-63.295	-0.114	0.046
-247.005	-147.158	0.059	-0.005
-245.990	-48.147	-0.266	0.127
-244.976	-150.633	0.281	0.021
-243.961	-200.000	0.067	0.291
-242.946	800.000	-0.013	-0.054
-241.932	120.282	0.346	-0.422
-240.917	490.822	-0.120	-0.271
-239.903	62.567	-0.037	-0.036
-238.888	595.559	0.060	0.146
-237.873	122.708	0.173	0.213
-236.859	70.929	-0.051	0.052
-235.844	113.729	0.154	0.184
-234.830	46.243	-0.134	-0.122
-233.815	-179.963	-0.488	0.010
-232.800	159.589	0.072	0.098
-231.786	258.796	0.113	0.192
-230.771	192.811	0.177	0.264
-229.757	-57.143	-0.089	0.039
-228.742	-12.899	0.057	-0.037
-227.727	33.800	0.070	0.060
-226.713	-28.975	-0.173	0.098
-225.698	92.647	0.239	-0.265
-224.684	-200.000	0.030	0.248
-223.669	-200.000	0.003	-0.031
-222.655	256.086	-0.111	-0.187
-221.640	-115.004	-0.113	-0.021
-220.625	-145.380	0.210	0.019
-219.611	-45.014	-0.106	0.052
-218.596	99.457	0.096	-0.109
-217.582	800.000	-0.035	0.105
-216.567	-77.964	-0.075	0.026
-215.552	-179.869	0.309	-0.007
-214.538	150.898	0.204	0.272
-213.523	-163.624	-0.306	-0.014
-212.509	158.115	0.260	0.354
-211.494	-86.816	-0.226	-0.068
-210.479	-17.441	0.149	0.092
-209.465	33.505	-0.228	0.195
-208.450	502.311	-0.105	-0.238
-207.436	506.685	-0.208	0.473
-206.421	20.085	0.238	0.189
-205.406	800.000	-0.081	0.227
-204.392	428.828	0.095	-0.202
-203.377	77.801	-0.131	-0.137
-202.363	123.236	0.079	-0.097
-201.348	210.033	-0.324	0.500
-200.333	-106.824	0.318	0.069
-199.319	-102.482	0.084	-0.020
-198.304	-56.999	-0.272	0.118
-197.290	351.733	0.136	0.266
-196.275	-200.000	0.058	0.387
-195.260	-83.217	0.113	0.036
-194.246	-200.000	0.003	0.085
-193.231	-200.000	-0.039	0.286
-192.217	3.974	-0.054	-0.039
-191.202	238.260	-0.074	0.121
-190.187	-56.733	-0.285	-0.124
-189.173	230.282	-0.142	0.228
-188.158	33.014	0.075	-0.064
-187.144	579.895	0.071	0.172
-186.129	238.816	0.090	0.147
-185.114	138.701	-0.062	0.081
-184.100	177.662	-0.093	-0.133
-183.085	-30.000	-0.171	0.095
-182.071	15.381	-0.214	-0.165
-181.056	-154.289	0.275	-0.018
-180.042	-103.606	-0.103	-0.024
-179.027	-200.000	-0.020	0.347
-178.012	-200.000	0.016	0.170
-176.998	-152.934	-0.190	-0.013
-175.983	-200.000	0.032	0.240
-174.969	-19.980	0.050	-0.030
-173.954	-110.700	-0.228	0.046
-172.939	88.253	-0.025	-0.027
-171.925	-200.000	-0.005	-0.185
-170.910	-124.223	0.308	-0.047
-169.896	-121.231	0.098	0.016
-168.881	-70.378	0.163	-0.061
-167.866	800.000	0.045	-0.155
-166.852	13.891	-0.085	-0.065
-165.837	511.156	-0.160	-0.367
-164.823	655.749	0.111	0.280
-163.808	-143.244	0.191	0.018
-162.793	800.000	-0.129	-0.366
-161.779	-119.174	0.082	-0.014
-160.764	800.000	-0.032	0.107
-159.750	-111.377	-0.320	-0.064
-158.735	800.000	-0.036	0.137
-157.720	-93.014	-0.109	-0.030
-156.706	-7.409	0.252	0.167
-155.691	180.837	0.122	-0.176
-154.677	507.028	-0.175	0.398
-153.662	9.900	-0.072	0.053
-152.647	202.794	-0.106	0.161
-151.633	-200.000	-0.021	0.256
-150.618	-200.000	-0.005	0.071
-149.604	741.459	0.087	0.228
-148.589	800.000	-0.095	-0.259
-147.574	-200.000	-0.005	0.137
-146.560	422.436	-0.133	-0.280
-145.545	31.818	0.241	-0.204
-144.531	92.154	0.014	0.016
-143.516	-200.000	0.053	0.384
-142.502	224.433	0.031	0.049
-141.487	20.048	0.276	0.218
-140.472	-119.844	-0.144	-0.024
-139.458	95.024	0.125	-0.140
-138.443	191.764	-0.052	0.077
-137.429	240.574	0.139	0.228
-136.414	132.375	0.126	-0.160
-135.399	0.687	0.318	0.223
-134.385	-200.000	-0.051	-0.252
-133.370	-200.000	-0.020	0.290
-132.356	-200.000	-0.031	0.423
-131.341	-119.956	0.153	-0.026
-130.326	800.000	-0.110	0.337
-129.312	-62.961	0.180	-0.073
-128.297	-134.497	-0.257	0.031
-127.283	-23.120	-0.237	-0.140
-126.268	199.417	0.275	-0.413
-125.253	-66.164	-0.272	-0.106
-124.239	81.208	-0.177	-0.187
-123.224	13.233	-0.296	0.225
-122.210	160.163	0.275	0.375
-121.195	-200.000	0.038	0.369
-120.180	34.332	0.189	0.162
-119.166	-56.969	-0.139	0.060
-118.151	-109.137	0.090	-0.019
-117.137	274.799	0.172	-0.299
-116.122	-52.867	0.106	0.048
-115.107	-200.000	0.001	0.068
-114.093	-200.000	0.004	0.126
-113.078	74.563	0.281	0.289
-112.064	-93.181	-0.246	-0.067
-111.049	396.271	-0.066	0.135
-110.034	800.000	0.081	-0.258
-109.020	365.512	0.039	0.078
-108.005	182.144	-0.129	-0.186
-106.991	-19.025	0.171	-0.104
-105.976	-200.000	0.016	-0.284
-104.962	-200.000	-0.008	-0.390
-103.947	-22.817	-0.232	0.137
-102.932	-56.702	-0.185	-0.080
-101.918	234.182	0.152	-0.245
-100.903	800.000	0.073	0.278
-99.889	-67.802	0.139	-0.053
-98.874	117.206	-0.194	-0.233
-97.859	-52.610	-0.194	-0.088
-96.845	800.000	0.075	0.241
-95.830	66.448	0.210	0.209
-94.816	90.612	0.188	-0.206
-93.801	309.025	-0.077	0.141
-92.786	-200.000	0.026	0.114
-91.772	-91.459	-0.125	0.035
-90.757	165.537	0.179	-0.248
-89.743	800.000	0.030	-0.091
-88.728	-20.430	-0.216	-0.130
-87.713	201.701	0.114	-0.172
-86.699	-42.537	0.176	0.088
-85.684	-84.692	0.146	-0.045
-84.670	-0.450	-0.070	0.049
-83.655	-21.502	0.221	-0.132
-82.640	63.151	0.104	0.102
-81.626	479.819	-0.078	-0.174
-80.611	-117.607	-0.137	-0.024
-79.597	649.693	0.137	-0.344
-78.582	800.000	0.089	-0.286
-77.567	-200.000	0.069	0.379
-76.553	-6.598	-0.091	0.060
-75.538	247.288	0.164	-0.270
-74.524	0.322	-0.097	-0.068
-73.509	176.379	-0.156	-0.222
-72.494	-122.543	-0.124	-0.020
-71.480	148.311	0.100	0.131
-70.465	26.760	0.101	0.083
-69.451	99.270	-0.259	0.293
-68.436	197.682	0.150	0.224
-67.422	-71.811	-0.238	-0.087
-66.407	21.372	0.261	0.208
-65.392	12.591	-0.328	0.248
-64.378	148.130	0.164	0.216
-63.363	800.000	0.082	0.298
-62.349	361.690	-0.079	0.154
-61.334	60.720	-0.955	-0.925
-60.319	371.816	0.436	0.865
-59.305	800.000	-0.319	-1.181
-58.290	468.060	0.749	1.643
-57.276	551.477	0.674	1.581
-56.261	-200.000	112.890	667.189
-55.246	513.283	1475.454	3362.278
-54.232	152.035	2645.614	3526.920
-53.217	98.806	2273.465	2564.528
-52.203	37.454	1894.168	1641.634
-51.188	31.672	1689.470	1420.467
-50.173	29.125	1648.256	1366.884
-49.159	50.149	1702.934	1571.265
-48.144	49.386	1717.549	1578.945
-47.130	31.216	1675.901	1405.406
-46.115	28.559	1661.925	1373.760
-45.100	28.429	1656.895	1368.581
-44.086	28.385	1654.827	1366.488
-43.071	28.269	1652.203	1363.402
-42.057	28.252	1649.809	1361.248
-41.042	28.322	1647.500	1359.810
-40.027	28.315	1645.834	1358.328
-39.013	28.253	1644.295	1356.542
-37.998	28.217	1642.878	1355.054
-36.984	28.217	1641.382	1353.769
-35.969	28.405	1639.668	1353.689
-34.954	28.418	1638.661	1352.896
-33.940	28.354	1636.557	1350.638
-32.925	28.422	1634.616	1349.479
-31.911	28.428	1632.688	1347.879
-30.896	28.353	1631.619	1346.394
-29.881	28.422	1629.995	1345.508
-28.867	28.467	1628.424	1344.483
-27.852	28.449	1626.689	1342.864
-26.838	28.487	1625.350	1341.988
-25.823	28.478	1623.939	1340.705
-24.809	28.503	1622.561	1339.698
-23.794	28.369	1621.616	1337.884
-22.779	28.446	1620.073	1337.116
-21.765	28.450	1618.166	1335.524
-20.750	28.384	1616.323	1333.470
-19.736	28.478	1614.890	1332.916
-18.721	28.487	1613.637	1331.894
-17.706	28.499	1611.700	1330.327
-16.692	28.476	1610.856	1329.415
-15.677	28.487	1609.504	1328.323
-14.663	28.586	1607.895	1327.658
-13.648	28.515	1607.031	1326.382
-12.633	28.408	1605.980	1324.686
-11.619	28.532	1604.014	1323.909
-10.604	28.496	1602.360	1322.226
-9.590	28.490	1601.092	1321.090
-8.575	28.579	1599.891	1320.682
-7.560	28.587	1598.580	1319.607
-6.546	28.482	1597.837	1318.190
-5.531	28.496	1597.129	1317.650
-4.517	28.445	1595.520	1315.905
-3.502	28.510	1594.725	1315.663
-2.487	28.537	1592.981	1314.370
-1.473	27.890	1579.941	1298.954
-0.458	23.914	1558.475	1253.296
0.556	18.509	1557.013	1211.417
1.571	15.481	1578.811	1206.539
2.586	14.849	1590.431	1210.734
3.600	13.567	1537.424	1161.299
4.615	8.036	1432.475	1045.717
5.629	2.270	1371.913	965.097
6.644	1.083	1364.381	952.257
7.659	0.947	1363.900	950.984
8.673	0.962	1362.549	950.055
9.688	0.918	1360.505	948.264
10.702	0.818	1357.057	945.153
11.717	3.521	1360.848	964.633
12.731	10.420	1371.187	1015.218
13.746	16.076	1379.421	1056.778
14.761	17.593	1380.699	1067.176
15.775	16.996	1378.945	1061.987
16.790	16.010	1375.950	1053.424
17.804	15.180	1374.104	1046.734
18.819	14.857	1372.543	1043.441
19.834	14.500	1371.303	1040.175
20.848	14.463	1369.478	1038.468
21.863	14.244	1368.405	1036.204
22.877	13.934	1367.519	1033.507
23.892	13.930	1366.153	1032.359
24.907	13.907	1365.587	1031.701
25.921	13.994	1364.375	1031.230
26.936	13.822	1363.836	1029.667
27.950	14.002	1362.747	1029.870
28.965	14.014	1361.862	1029.186
29.980	14.138	1360.781	1029.041
30.994	14.122	1359.757	1028.078
32.009	14.100	1359.460	1027.626
33.023	14.041	1358.229	1026.241
34.038	14.131	1356.808	1025.633
35.053	14.056	1355.528	1024.110
36.067	14.119	1354.364	1023.528
37.082	14.007	1353.604	1022.177
38.096	14.057	1352.913	1021.873
39.111	14.137	1352.084	1021.643
40.126	14.106	1351.198	1020.694
41.140	13.971	1350.684	1019.390
42.155	13.950	1349.998	1018.653
43.169	13.803	1350.204	1017.817
44.184	13.878	1349.764	1017.855
45.199	13.904	1349.480	1017.709
46.213	13.900	1348.507	1016.858
47.228	14.038	1347.420	1016.793
48.242	14.092	1346.008	1015.968
49.257	13.974	1344.737	1014.197
50.271	13.979	1343.796	1013.430
51.286	13.986	1342.606	1012.487
52.301	13.984	1341.115	1011.259
53.315	14.014	1339.977	1010.495
54.330	13.940	1339.058	1009.261
55.344	13.945	1337.651	1008.143
56.359	13.830	1337.525	1007.263
57.374	13.862	1336.541	1006.627
58.388	13.891	1335.328	1005.797
59.403	13.763	1335.091	1004.757
60.417	13.862	1334.605	1004.902
61.432	13.829	1333.592	1003.846
62.447	13.952	1332.183	1003.439
63.461	13.895	1330.840	1002.001
64.476	13.805	1330.045	1000.767
65.490	13.873	1328.507	999.931
66.505	13.829	1327.038	998.475
67.520	13.887	1325.897	997.876
68.534	13.860	1324.850	996.834
69.549	13.896	1324.183	996.464
70.563	13.878	1322.838	995.253
71.578	13.865	1321.055	993.750
72.593	13.725	1320.903	992.709
73.607	13.830	1319.719	992.356
74.622	13.762	1318.993	991.315
75.636	13.827	1317.849	990.756
76.651	13.810	1317.516	990.321
77.666	13.827	1316.962	989.915
78.680	13.748	1316.899	989.307
79.695	13.807	1315.602	988.601
80.709	13.825	1314.983	988.154
81.724	13.956	1313.866	988.009
82.739	13.808	1313.625	986.856
83.753	13.894	1312.039	986.089
84.768	14.031	1310.906	985.965
85.782	14.030	1309.645	984.920
86.797	14.074	1308.457	984.200
87.812	13.904	1307.217	982.177
88.826	13.930	1306.195	981.474
89.841	13.990	1305.259	981.039
90.855	13.987	1304.222	980.158
91.870	14.166	1303.061	980.252
92.884	14.097	1302.015	978.970
93.899	14.128	1301.755	978.872
94.914	14.139	1301.010	978.289
95.928	14.079	1300.279	977.298
96.943	14.179	1298.571	976.519
97.957	14.072	1297.780	975.206
98.972	13.930	1297.217	973.868
99.987	14.126	1295.847	973.898
101.001	14.069	1295.059	972.887
102.016	14.045	1294.237	972.046
103.030	13.915	1293.900	970.947
104.045	14.055	1292.236	970.425
105.060	14.082	1290.955	969.537
106.074	13.964	1289.836	967.921
107.089	13.899	1288.539	966.487
108.103	13.945	1287.418	965.826
109.118	13.890	1286.145	964.466
110.133	14.023	1284.370	963.824
111.147	13.975	1283.206	962.586
112.162	13.897	1282.524	961.539
113.176	13.901	1281.093	960.403
114.191	13.985	1279.276	959.442
115.206	14.047	1278.706	959.289
116.220	14.015	1277.507	958.117
117.235	13.991	1276.504	957.143
118.249	13.960	1275.634	956.225
119.264	13.935	1274.507	955.151
120.279	13.982	1273.234	954.384
121.293	13.892	1272.214	953.017
122.308	13.979	1271.193	952.669
123.322	13.933	1270.032	951.453
124.337	13.925	1269.352	950.809
125.352	13.979	1268.094	950.093
126.366	13.853	1267.307	948.701
127.381	13.901	1266.370	948.191
128.395	13.928	1265.241	947.412
129.410	13.897	1264.197	946.369
130.424	14.000	1263.101	946.054
131.439	13.961	1262.565	945.344
132.454	14.083	1261.338	945.037
133.468	14.060	1260.341	944.074
134.483	14.027	1259.669	943.305
135.497	14.066	1258.829	942.813
136.512	14.031	1257.157	941.276
137.527	13.956	1256.116	939.992
138.541	13.982	1254.488	938.837
139.556	13.959	1253.570	937.933
140.570	14.066	1252.171	937.411
141.585	14.105	1250.884	936.580
142.600	14.122	1249.703	935.711
143.614	14.068	1249.354	935.062
144.629	14.072	1247.899	933.916
145.643	14.140	1246.465	933.139
146.658	14.087	1245.668	932.162
147.673	14.050	1244.203	930.780
148.687	13.998	1243.541	929.911
149.702	14.099	1241.866	929.141
150.716	14.128	1239.976	927.802
151.731	14.117	1239.421	927.247
152.746	14.172	1238.144	926.516
153.760	14.128	1236.890	925.249
154.775	14.225	1235.487	924.657
155.789	14.175	1235.184	924.071
156.804	14.220	1234.099	923.427
157.819	14.336	1232.580	922.851
158.833	14.271	1231.715	921.761
159.848	14.325	1231.083	921.506
160.862	14.277	1230.180	920.484
161.877	14.289	1228.528	919.232
162.892	14.219	1227.749	918.181
163.906	14.209	1227.327	917.732
164.921	14.275	1226.255	917.211
165.935	14.218	1225.407	916.184
166.950	14.274	1224.282	915.568
167.964	14.296	1223.622	915.115
168.979	14.298	1222.660	914.326
169.994	14.270	1222.329	913.840
171.008	14.361	1221.532	913.664
172.023	14.386	1220.543	912.979
173.037	14.511	1219.362	912.702
174.052	14.410	1219.013	911.807
175.067	14.341	1218.057	910.635
176.081	14.330	1216.782	909.542
177.096	14.392	1215.907	909.143
178.110	14.349	1214.884	908.066
179.125	14.424	1213.537	907.386
180.140	14.433	1212.256	906.397
181.154	14.397	1211.092	905.248
182.169	14.391	1210.352	904.582
183.183	14.518	1208.665	903.933
184.198	14.521	1207.835	903.244
185.213	14.487	1206.816	902.222
186.227	14.484	1205.451	901.104
187.242	14.524	1204.985	900.894
188.256	14.548	1203.546	899.866
189.271	14.575	1202.781	899.360
190.286	14.459	1201.523	897.718
191.300	14.492	1200.736	897.224
192.315	14.446	1200.304	896.575
193.329	14.468	1199.492	896.007
194.344	14.482	1199.033	895.662
195.359	14.562	1198.222	895.406
196.373	14.608	1197.750	895.223
197.388	14.587	1197.339	894.724
198.402	14.703	1196.236	894.441
199.417	14.687	1195.936	894.053
200.432	14.758	1194.752	893.465
201.446	14.761	1194.223	893.006
202.461	14.805	1193.276	892.457
203.475	14.845	1192.041	891.667
204.490	14.795	1190.638	890.272
205.504	14.687	1190.093	889.211
206.519	14.751	1188.076	887.963
207.534	14.756	1187.539	887.509
208.548	14.768	1186.516	886.734
209.563	14.633	1185.734	885.351
210.577	14.763	1184.618	885.131
211.592	14.785	1184.212	884.868
212.607	14.794	1183.351	884.192
213.621	14.922	1182.394	884.077
214.636	14.969	1181.352	883.468
215.650	14.934	1180.613	882.651
216.665	14.938	1179.447	881.724
217.680	15.095	1178.668	881.887
218.694	14.991	1178.061	880.808
219.709	15.005	1177.258	880.202
220.723	14.954	1176.589	879.358
221.738	15.053	1175.812	879.221
222.753	15.000	1174.901	878.180
223.767	15.038	1174.040	877.658
224.782	15.102	1173.423	877.457
225.796	15.178	1173.022	877.478
226.811	15.110	1172.626	876.749
227.826	15.051	1171.656	875.637
228.840	15.039	1171.042	875.038
229.855	15.121	1170.220	874.772
230.869	15.124	1169.890	874.462
231.884	15.082	1168.482	873.114
232.899	15.143	1167.531	872.644
233.913	15.153	1166.826	872.094
234.928	15.026	1166.693	871.255
235.942	14.996	1165.647	870.240
236.957	15.172	1164.836	870.472
237.972	15.230	1163.656	869.817
238.986	15.124	1163.437	869.025
240.001	15.141	1162.785	868.550
241.015	15.288	1161.613	868.357
242.030	15.175	1161.032	867.264
243.045	15.220	1160.200	866.800
244.059	15.194	1159.898	866.358
245.074	15.262	1158.771	865.792
246.088	15.323	1157.716	865.245
247.103	15.340	1157.023	864.738
248.117	15.234	1156.589	863.788
249.132	15.375	1156.100	864.075
250.147	15.450	1154.967	863.535
251.161	15.456	1153.840	862.650
252.176	15.395	1153.529	862.024
253.190	15.504	1152.864	862.011
254.205	15.609	1152.464	862.174
255.220	15.615	1151.632	861.508
256.234	15.567	1151.154	860.826
257.249	15.567	1150.415	860.197
258.263	15.613	1149.848	859.933
259.278	15.551	1149.129	859.002
260.293	15.601	1148.682	858.848
261.307	15.823	1147.652	859.137
262.322	15.689	1147.238	858.066
263.336	15.762	1146.457	857.779
264.351	15.744	1146.228	857.439
265.366	15.863	1145.399	857.349
266.380	15.797	1144.775	856.470
267.395	15.912	1143.622	856.118
268.409	15.880	1143.459	855.757
269.424	15.682	1142.926	854.277
270.439	15.812	1142.197	854.316
271.453	15.766	1141.731	853.659
272.468	15.814	1140.122	852.624
273.482	15.842	1139.095	851.921
274.497	15.800	1139.188	851.700
275.512	15.688	1138.573	850.600
276.526	15.802	1137.715	850.460
277.541	15.841	1136.974	850.029
278.555	15.810	1136.316	849.303
279.570	15.921	1135.471	849.157
280.585	15.942	1134.128	848.186
281.599	15.999	1133.845	848.182
282.614	15.945	1132.397	846.757
283.628	16.011	1131.130	846.064
284.643	16.016	1130.441	845.499
285.657	16.018	1129.630	844.825
286.672	16.011	1128.882	844.158
287.687	16.034	1127.963	843.513
288.701	16.131	1127.093	843.269
289.716	16.062	1126.379	842.315
290.730	15.981	1126.144	841.662
291.745	16.000	1125.484	841.191
292.760	16.234	1124.364	841.444
293.774	16.071	1124.294	840.508
294.789	16.146	1123.938	840.541
295.803	16.239	1122.521	839.869
296.818	16.120	1122.501	839.187
297.833	16.199	1121.200	838.533
298.847	16.204	1120.441	837.916
299.862	16.161	1119.852	837.189
300.876	16.214	1119.274	836.942
301.891	16.294	1118.420	836.628
302.906	16.213	1117.698	835.615
303.920	16.340	1116.966	835.618
304.935	16.344	1116.088	834.910
305.949	16.375	1115.529	834.569
306.964	16.515	1114.867	834.692
307.979	16.492	1114.001	833.857
308.993	16.341	1113.907	832.967
310.008	16.449	1112.616	832.460
311.022	16.527	1111.794	832.153
312.037	16.536	1111.096	831.605
313.052	16.409	1110.317	830.323
314.066	16.552	1109.065	830.015
315.081	16.448	1108.677	829.142
316.095	16.414	1107.774	828.226
317.110	16.459	1106.897	827.716
318.125	16.423	1106.420	827.110
319.139	16.439	1105.892	826.720
320.154	16.394	1105.414	826.072
321.168	16.501	1104.090	825.528
322.183	16.406	1104.121	825.015
323.197	16.493	1103.664	825.029
324.212	16.460	1102.823	824.165
325.227	16.459	1102.296	823.695
326.241	16.563	1101.268	823.357
327.256	16.563	1100.451	822.675
328.270	16.600	1099.550	822.106
329.285	16.637	1098.929	821.752
330.300	16.644	1097.816	820.879
331.314	16.582	1096.768	819.720
332.329	16.610	1095.929	819.157
333.343	16.619	1095.047	818.470
334.358	16.686	1094.247	818.123
335.373	16.805	1093.762	818.264
336.387	16.799	1092.665	817.342
337.402	16.664	1092.243	816.302
338.416	16.757	1091.581	816.182
339.431	16.793	1091.012	815.860
340.446	16.751	1090.611	815.287
341.460	16.730	1089.909	814.585
342.475	16.999	1088.362	814.649
343.489	16.812	1088.005	813.416
344.504	17.045	1086.626	813.427
345.519	17.001	1085.881	812.586
346.533	16.974	1085.190	811.868
347.548	17.029	1084.542	811.575
348.562	17.009	1083.639	810.732
349.577	16.984	1082.945	810.023
350.592	16.924	1082.440	809.286
351.606	16.852	1081.653	808.284
352.621	16.843	1080.980	807.668
353.635	16.834	1080.404	807.122
354.650	16.897	1079.697	806.820
355.665	16.996	1078.995	806.697
356.679	17.091	1078.381	806.615
357.694	17.096	1077.508	805.916
358.708	17.141	1076.866	805.581
359.723	17.064	1076.505	804.870
360.738	17.131	1075.653	804.480
361.752	17.006	1075.647	803.812
362.767	17.045	1074.835	803.318
363.781	17.232	1073.847	803.396
364.796	17.038	1073.698	802.297
365.810	17.235	1072.685	802.397
366.825	17.224	1072.206	801.916
367.840	17.260	1071.798	801.709
368.854	17.322	1070.792	801.180
369.869	17.368	1070.430	801.055
370.883	17.222	1069.407	799.529
371.898	17.310	1068.669	799.324
372.913	17.325	1068.473	799.177
373.927	17.457	1067.617	799.086
374.942	17.289	1067.568	798.188
375.956	17.369	1066.654	797.810
376.971	17.452	1066.157	797.755
377.986	17.407	1065.857	797.250
379.000	17.415	1065.308	796.804
380.015	17.439	1064.910	796.552
381.029	17.542	1063.885	796.194
382.044	17.586	1063.137	795.770
383.059	17.538	1062.270	794.827
384.073	17.638	1061.357	794.539
385.088	17.582	1060.648	793.678
386.102	17.700	1059.398	793.221
387.117	17.699	1058.359	792.368
388.132	17.529	1057.846	791.124
389.146	17.643	1056.904	790.878
390.161	17.568	1056.464	790.132
391.175	17.656	1055.392	789.666
392.190	17.593	1055.141	789.117
393.205	17.672	1053.986	788.550
394.219	17.825	1053.054	788.491
395.234	17.756	1052.457	787.654
396.248	17.647	1051.699	786.513
397.263	17.658	1050.669	785.727
398.278	17.705	1050.138	785.476
399.292	17.776	1048.935	784.832
400.307	17.566	1048.738	783.649
401.321	17.765	1047.809	783.801
402.336	17.682	1047.402	783.045
403.350	17.692	1047.177	782.853
404.365	17.816	1046.206	782.626
405.380	17.737	1045.449	781.629
406.394	17.862	1044.726	781.594
407.409	17.843	1043.836	780.769
408.423	17.771	1042.953	779.714
409.438	17.922	1042.319	779.860
410.453	17.993	1041.561	779.549
411.467	17.878	1041.394	778.827
412.482	18.077	1040.189	778.763
413.496	18.128	1039.554	778.454
414.511	18.022	1039.252	777.676
415.526	18.028	1038.712	777.228
416.540	18.077	1038.205	777.005
417.555	18.085	1037.927	776.765
418.569	18.069	1037.270	776.129
419.584	18.158	1036.772	776.095
420.599	18.142	1036.105	775.453
421.613	107.444	1325.308	1479.182
422.628	98.576	1367.409	1479.302
