DTS Sentinel unit serial number:	SN413079Multiplexer serial number:	ORYXHardware model number:	OX4-SRSoftware version number:	ORYX F/W v4.00 Oryx Data Collector v3.7.2.0data status	okinstallation	princeton_trtdifferential loss correction	single-endedforward channel	channel 2reverse channel	N/Adate	2019/09/16time	04:27:34forward acquisition time	60.00reverse acquisition time	0.00gamma	496.2192k internal	0.2335k external	0.2335temperature offset calibration	0.9975default loss term (dB/km)	0.3790temperature slope calibration	1.0000multiplexer offset coefficient	1.0000multiplexer slope coefficient	1.0000fibre end	0.00T internal ref (°C)	27.27T ext. ref 1 (°C)	10.82T ext. ref 2 (°C)	21.35length (m)	temperature (°C)	Stokes	anti-Stokes-747.200	-0.401	-0.407	0.290
-746.185	84.062	-0.339	0.373
-745.171	-164.659	0.136	0.006
-744.156	-16.173	-0.168	0.107
-743.142	80.639	-0.100	-0.108
-742.127	-47.398	-0.392	0.192
-741.112	46.732	-0.085	-0.079
-740.098	147.522	-0.142	0.192
-739.083	-200.000	0.001	-0.125
-738.069	-49.967	-0.380	0.181
-737.054	-34.373	-0.040	-0.022
-736.039	-200.000	0.045	0.424
-735.025	101.776	0.141	-0.166
-734.010	-200.000	-0.015	0.084
-732.996	-70.055	-0.205	0.079
-731.981	-200.000	-0.041	-0.269
-730.966	-200.000	-0.007	-0.082
-729.952	800.000	0.050	-0.203
-728.937	333.072	-0.202	-0.392
-727.923	76.826	-0.085	-0.090
-726.908	-28.877	-0.288	-0.166
-725.894	-101.050	-0.275	0.068
-724.879	-21.259	0.139	0.085
-723.864	-115.165	-0.123	0.023
-722.850	800.000	0.049	-0.200
-721.835	800.000	-0.049	-0.180
-720.821	92.382	0.165	-0.187
-719.806	-60.428	0.109	0.047
-718.791	53.671	0.075	-0.072
-717.777	800.000	-0.035	-0.111
-716.762	146.283	-0.111	0.150
-715.748	-120.732	0.183	-0.031
-714.733	-200.000	0.007	-0.296
-713.718	800.000	0.075	-0.248
-712.704	169.399	-0.076	0.109
-711.689	-33.947	-0.458	0.253
-710.675	-47.171	0.186	-0.091
-709.660	800.000	0.110	-0.346
-708.645	140.000	0.150	-0.198
-707.631	-200.000	-0.019	0.251
-706.616	85.962	-0.227	0.251
-705.602	-200.000	-0.003	-0.117
-704.587	71.377	-0.271	0.282
-703.572	-126.086	-0.233	-0.035
-702.558	40.343	0.258	0.233
-701.543	-38.810	-0.202	-0.107
-700.529	273.496	0.121	-0.214
-699.514	-174.321	-0.276	0.008
-698.499	800.000	0.066	-0.223
-697.485	101.259	-0.113	0.132
-696.470	-140.912	-0.356	0.037
-695.456	-115.129	0.298	0.057
-694.441	69.381	-0.048	0.049
-693.426	312.317	0.205	-0.386
-692.412	-38.109	-0.173	0.092
-691.397	41.467	-0.124	0.113
-690.383	-16.362	-0.295	-0.188
-689.368	800.000	0.115	0.353
-688.354	-200.000	0.008	-0.205
-687.339	-70.706	-0.079	0.030
-686.324	-74.807	-0.135	0.049
-685.310	-123.177	-0.009	-0.001
-684.295	-200.000	0.033	0.205
-683.281	197.085	-0.155	0.237
-682.266	-200.000	-0.038	-0.284
-681.251	-96.051	-0.129	-0.034
-680.237	-200.000	-0.035	0.289
-679.222	193.636	-0.244	0.371
-678.208	800.000	0.045	-0.133
-677.193	-109.385	0.115	0.024
-676.178	8.193	-0.237	-0.178
-675.164	558.775	-0.141	-0.340
-674.149	-75.938	0.184	0.065
-673.135	337.261	-0.090	0.175
-672.120	-200.000	0.046	-0.389
-671.105	134.417	0.030	0.039
-670.091	800.000	0.037	0.136
-669.076	60.138	-0.210	0.208
-668.062	2.331	0.134	0.097
-667.047	-48.380	-0.181	-0.087
-666.032	-119.744	0.122	0.021
-665.018	800.000	0.094	-0.264
-664.003	175.976	0.244	-0.354
-662.989	-75.122	-0.079	0.028
-661.974	53.518	0.075	0.072
-660.959	-80.860	0.085	0.028
-659.945	-73.027	0.271	0.100
-658.930	161.372	-0.103	-0.144
-657.916	-65.626	0.225	-0.090
-656.901	-119.539	-0.550	0.095
-655.886	23.588	0.145	0.119
-654.872	-49.803	0.097	0.046
-653.857	-18.207	-0.220	-0.138
-652.843	153.689	0.080	-0.110
-651.828	234.366	-0.127	-0.209
-650.814	800.000	0.107	-0.389
-649.799	125.628	0.168	-0.212
-648.784	-129.910	-0.134	-0.018
-647.770	-200.000	0.088	-0.474
-646.755	-200.000	0.002	0.247
-645.741	135.655	-0.233	0.304
-644.726	-123.100	-0.084	0.013
-643.711	542.484	0.092	-0.220
-642.697	-100.502	-0.052	-0.013
-641.682	-20.644	-0.188	0.116
-640.668	-200.000	0.052	-0.242
-639.653	800.000	0.031	-0.100
-638.638	-23.282	-0.467	-0.281
-637.624	-200.000	0.018	0.350
-636.609	51.232	-0.016	0.015
-635.595	17.836	0.134	-0.107
-634.580	-200.000	-0.123	0.582
-633.565	-200.000	-0.049	0.286
-632.551	-200.000	-0.018	0.083
-631.536	275.820	0.111	0.196
-630.522	-39.240	0.179	-0.094
-629.507	-85.227	0.367	0.115
-628.492	-200.000	0.048	0.296
-627.478	207.426	-0.099	-0.155
-626.463	-200.000	0.000	-0.348
-625.449	-87.212	-0.164	-0.050
-624.434	-52.542	0.295	-0.137
-623.419	-73.242	0.385	0.141
-622.405	78.097	-0.243	0.259
-621.390	-200.000	0.064	-0.299
-620.376	-51.909	-0.362	-0.168
-619.361	-65.413	0.166	0.067
-618.346	-104.151	0.016	-0.004
-617.332	269.038	-0.132	-0.231
-616.317	69.149	-0.136	-0.140
-615.303	61.696	-0.117	0.117
-614.288	258.782	0.271	-0.468
-613.273	139.381	0.194	-0.255
-612.259	-57.660	-0.281	0.123
-611.244	-200.000	-0.077	-0.340
-610.230	-200.000	-0.001	0.082
-609.215	800.000	0.138	-0.422
-608.201	800.000	0.025	0.094
-607.186	46.831	0.103	-0.095
-606.171	-8.594	0.538	0.361
-605.157	-200.000	0.017	0.204
-604.142	754.998	-0.026	0.070
-603.128	-200.000	0.001	-0.065
-602.113	61.746	0.077	-0.077
-601.098	203.241	0.001	-0.002
-600.084	-106.201	0.189	0.042
-599.069	-140.513	0.062	0.006
-598.055	-131.247	-0.185	-0.024
-597.040	607.010	-0.088	0.220
-596.025	95.239	-0.046	-0.052
-595.011	-43.342	-0.200	0.101
-593.996	800.000	-0.097	0.310
-592.982	800.000	-0.041	0.117
-591.967	56.826	0.047	0.046
-590.952	-91.116	0.182	0.052
-589.938	29.340	-0.172	0.146
-588.923	291.085	-0.064	-0.116
-587.909	166.588	0.048	-0.068
-586.894	800.000	-0.111	0.356
-585.879	84.512	-0.041	-0.045
-584.865	220.134	0.285	0.457
-583.850	-27.703	-0.241	0.140
-582.836	26.503	-0.245	0.205
-581.821	150.481	-0.138	-0.187
-580.806	-42.777	0.244	-0.124
-579.792	-56.746	-0.223	-0.098
-578.777	800.000	-0.093	-0.309
-577.763	138.266	-0.086	-0.113
-576.748	168.811	-0.183	-0.261
-575.733	190.759	-0.153	0.229
-574.719	-40.452	0.096	-0.050
-573.704	-46.385	0.166	-0.081
-572.690	-138.061	0.126	0.014
-571.675	-200.000	0.111	-0.499
-570.661	-200.000	0.028	0.330
-569.646	800.000	0.110	0.311
-568.631	-38.662	0.174	-0.092
-567.617	230.149	-0.156	0.254
-566.602	-181.485	0.284	-0.006
-565.588	-51.584	0.245	-0.114
-564.573	30.339	-0.295	-0.252
-563.558	-200.000	0.024	0.271
-562.544	-200.000	0.002	-0.085
-561.529	522.095	-0.138	0.324
-560.515	800.000	0.062	-0.236
-559.500	800.000	-0.027	-0.094
-558.485	262.317	-0.057	-0.099
-557.471	-23.204	-0.073	0.044
-556.456	-109.275	-0.353	-0.075
-555.442	-114.267	-0.267	0.051
-554.427	276.175	-0.020	-0.036
-553.412	190.657	-0.199	-0.298
-552.398	422.336	0.028	0.060
-551.383	98.580	0.105	0.121
-550.369	-39.631	0.135	0.070
-549.354	17.045	-0.196	0.155
-548.339	-200.000	0.008	-0.254
-547.325	-42.245	0.168	-0.086
-546.310	-9.182	-0.134	0.089
-545.296	536.042	0.081	-0.191
-544.281	-200.000	0.029	0.479
-543.266	131.036	-0.099	0.127
-542.252	-97.091	0.453	-0.118
-541.237	132.545	-0.054	-0.070
-540.223	-7.566	-0.176	-0.119
-539.208	-193.122	0.150	0.001
-538.193	74.192	0.162	0.170
-537.179	55.091	-0.050	-0.048
-536.164	23.614	0.061	0.050
-535.150	800.000	0.063	-0.206
-534.135	-30.839	-0.215	0.121
-533.121	-38.066	0.182	0.097
-532.106	-3.472	-0.183	-0.127
-531.091	800.000	0.109	-0.397
-530.077	258.722	-0.162	-0.278
-529.062	135.431	-0.030	-0.039
-528.048	754.536	0.055	0.148
-527.033	-108.708	-0.213	0.046
-526.018	-30.648	-0.176	0.099
-525.004	654.931	0.059	-0.152
-523.989	-20.388	0.213	-0.130
-522.975	-147.475	-0.056	-0.005
-521.960	-200.000	-0.042	0.295
-520.945	575.702	0.060	0.145
-519.931	178.562	-0.046	0.067
-518.916	-3.080	0.171	-0.119
-517.902	-200.000	0.062	-0.302
-516.887	-32.436	0.098	-0.055
-515.872	611.719	-0.068	0.170
-514.858	-200.000	0.026	-0.198
-513.843	17.137	0.459	-0.363
-512.829	800.000	0.091	-0.261
-511.814	-200.000	-0.001	0.230
-510.799	317.677	0.079	0.150
-509.785	128.187	0.043	0.054
-508.770	379.850	0.149	0.305
-507.756	-108.112	0.098	-0.021
-506.741	800.000	0.051	0.174
-505.726	-200.000	-0.005	-0.189
-504.712	48.623	0.041	0.039
-503.697	582.739	-0.130	-0.317
-502.683	-200.000	-0.014	0.268
-501.668	18.669	0.222	-0.177
-500.653	343.255	0.137	0.266
-499.639	-30.582	-0.128	0.072
-498.624	-14.411	0.269	-0.172
-497.610	-40.146	0.084	0.043
-496.595	-200.000	0.005	-0.121
-495.581	-163.240	-0.397	0.019
-494.566	-90.700	-0.139	-0.040
-493.551	-200.000	0.035	0.269
-492.537	116.763	0.132	-0.162
-491.522	132.057	0.105	-0.134
-490.508	-110.021	-0.242	0.050
-489.493	-35.868	0.361	0.195
-488.478	177.495	0.089	0.129
-487.464	760.023	0.113	0.305
-486.449	59.257	0.106	0.104
-485.435	98.555	-0.107	-0.123
-484.420	5.718	0.040	-0.030
-483.405	-200.000	-0.012	-0.096
-482.391	-44.240	-0.489	0.244
-481.376	223.393	-0.017	0.026
-480.362	-127.749	0.499	0.072
-479.347	275.308	-0.084	0.148
-478.332	204.793	0.045	0.070
-477.318	94.121	0.056	0.063
-476.303	-22.789	0.343	-0.206
-475.289	800.000	-0.058	-0.165
-474.274	787.105	0.115	0.313
-473.259	-147.165	-0.106	0.009
-472.245	-148.495	-0.109	0.009
-471.230	-62.384	0.014	-0.006
-470.216	-56.845	-0.130	-0.057
-469.201	575.930	0.026	0.064
-468.186	-111.425	0.122	-0.025
-467.172	114.302	-0.188	0.227
-466.157	5.705	0.130	0.095
-465.143	-47.727	-0.205	0.099
-464.128	-88.341	0.301	0.089
-463.113	332.271	-0.225	0.431
-462.099	69.503	-0.042	0.043
-461.084	-200.000	0.005	0.029
-460.070	719.692	0.049	0.130
-459.055	10.551	0.129	-0.097
-458.040	800.000	-0.032	-0.100
-457.026	800.000	0.045	-0.176
-456.011	800.000	0.047	-0.146
-454.997	-44.888	-0.271	-0.134
-453.982	384.734	-0.048	-0.097
-452.968	-117.475	-0.153	-0.027
-451.953	116.436	-0.069	-0.084
-450.938	86.976	-0.102	-0.112
-449.924	173.807	-0.130	0.186
-448.909	-200.000	0.032	-0.243
-447.895	28.354	0.225	0.189
-446.880	800.000	0.123	0.387
-445.865	800.000	-0.039	0.141
-444.851	181.894	-0.061	0.089
-443.836	-2.545	-0.330	-0.230
-442.822	-200.000	-0.004	-0.108
-441.807	-6.610	-0.204	-0.138
-440.792	313.988	-0.223	-0.417
-439.778	180.647	-0.148	-0.215
-438.763	59.915	0.038	0.037
-437.749	-50.720	0.227	0.106
-436.734	-200.000	-0.080	-0.490
-435.719	139.626	0.138	-0.181
-434.705	59.600	-0.200	-0.195
-433.690	78.963	-0.131	-0.140
-432.676	362.142	0.232	-0.462
-431.661	318.136	0.133	-0.250
-430.646	-57.428	-0.229	0.100
-429.632	3.726	0.188	0.136
-428.617	-200.000	0.072	-0.378
-427.603	-124.262	-0.104	-0.016
-426.588	-81.133	-0.278	0.091
-425.573	-34.970	-0.139	0.075
-424.559	93.521	0.088	-0.099
-423.544	-74.788	0.072	0.026
-422.530	-200.000	-0.052	0.405
-421.515	232.276	0.102	-0.166
-420.500	-91.106	0.304	-0.087
-419.486	107.732	0.126	0.149
-418.471	33.632	-0.185	0.160
-417.457	457.632	0.122	-0.270
-416.442	-94.456	-0.266	-0.072
-415.428	-200.000	0.013	-0.138
-414.413	-67.325	-0.135	-0.053
-413.398	64.308	-0.054	0.054
-412.384	-200.000	-0.040	0.302
-411.369	-29.911	0.024	-0.014
-410.355	370.204	-0.086	-0.172
-409.340	-109.099	-0.115	-0.024
-408.325	456.209	-0.089	0.195
-407.311	104.909	-0.092	-0.107
-406.296	59.026	0.181	0.177
-405.282	-7.087	-0.049	-0.033
-404.267	268.269	-0.083	0.144
-403.252	-200.000	-0.002	0.039
-402.238	37.171	-0.055	-0.048
-401.223	-200.000	0.022	0.143
-400.209	2.662	0.123	0.089
-399.194	-56.977	-0.163	0.071
-398.179	262.472	-0.079	0.136
-397.165	286.823	0.211	0.377
-396.150	-47.413	0.319	-0.154
-395.136	111.163	0.038	-0.046
-394.121	22.099	0.077	0.062
-393.106	-107.086	-0.162	-0.035
-392.092	73.779	-0.179	-0.186
-391.077	-157.836	-0.101	-0.006
-390.063	-200.000	0.006	0.124
-389.048	156.250	0.192	-0.262
-388.033	33.304	0.056	-0.049
-387.019	457.758	-0.126	-0.278
-386.004	17.508	-0.076	0.060
-384.990	163.051	0.092	0.129
-383.975	-90.961	0.313	0.089
-382.960	-200.000	-0.064	-0.300
-381.946	800.000	-0.141	0.399
-380.931	499.770	-0.080	0.184
-379.917	-75.798	0.278	0.098
-378.902	-200.000	0.003	0.080
-377.888	91.347	-0.090	0.100
-376.873	-200.000	0.017	-0.123
-375.858	-87.063	0.029	0.009
-374.844	-69.637	0.345	0.131
-373.829	-29.700	-0.170	0.096
-372.815	-135.382	0.117	0.014
-371.800	-51.871	0.458	-0.211
-370.785	-120.711	0.044	0.007
-369.771	800.000	-0.081	-0.253
-368.756	107.636	-0.176	0.208
-367.742	597.596	0.128	-0.314
-366.727	560.951	0.049	-0.116
-365.712	151.277	0.140	-0.189
-364.698	-85.095	0.361	0.112
-363.683	69.973	-0.297	-0.303
-362.669	800.000	-0.065	-0.192
-361.654	-87.561	-0.266	0.080
-360.639	-200.000	-0.001	0.401
-359.625	-76.421	0.221	-0.077
-358.610	17.092	-0.170	0.133
-357.596	132.714	0.203	-0.260
-356.581	800.000	-0.040	-0.128
-355.566	-200.000	-0.006	-0.394
-354.552	27.968	0.058	0.048
-353.537	-177.349	-0.320	0.008
-352.523	-135.219	0.126	-0.015
-351.508	-200.000	-0.005	-0.321
-350.493	103.078	-0.235	-0.272
-349.479	-142.232	0.106	0.010
-348.464	35.620	-0.088	0.076
-347.450	800.000	0.044	-0.169
-346.435	686.275	-0.080	-0.207
-345.420	-113.737	0.289	0.056
-344.406	-45.493	-0.252	0.123
-343.391	28.305	0.115	0.096
-342.377	-200.000	-0.023	0.222
-341.362	44.295	0.120	-0.109
-340.348	-135.192	-0.396	0.047
-339.333	-200.000	-0.013	0.115
-338.318	156.012	-0.043	0.059
-337.304	-34.587	-0.170	0.092
-336.289	-130.093	0.197	0.027
-335.275	317.822	0.158	-0.295
-334.260	-67.008	0.174	-0.068
-333.245	-48.188	0.305	0.145
-332.231	290.615	0.069	0.125
-331.216	-200.000	-0.020	0.287
-330.202	-134.273	0.291	-0.035
-329.187	-182.873	0.236	-0.004
-328.172	-77.713	0.259	0.089
-327.158	235.661	0.189	0.309
-326.143	-107.894	0.296	0.064
-325.129	322.253	-0.096	-0.181
-324.114	-33.277	0.336	0.184
-323.099	-200.000	-0.011	0.304
-322.085	-93.762	-0.148	0.040
-321.070	-123.456	-0.179	0.028
-320.056	758.532	0.077	-0.206
-319.041	-102.505	-0.176	0.042
-318.026	63.895	-0.142	-0.141
-317.012	47.677	0.084	-0.078
-315.997	-200.000	-0.032	-0.169
-314.983	-190.945	-0.291	-0.003
-313.968	-20.656	0.260	-0.158
-312.953	-172.228	0.240	-0.008
-311.939	-16.061	-0.313	-0.196
-310.924	48.615	0.107	-0.099
-309.910	-102.341	-0.209	0.050
-308.895	-99.704	-0.082	-0.020
-307.880	780.144	-0.057	-0.154
-306.866	-8.937	-0.316	0.209
-305.851	-200.000	-0.055	0.284
-304.837	-55.703	-0.163	0.072
-303.822	769.671	0.040	-0.108
-302.807	800.000	-0.088	0.287
-301.793	169.989	0.122	0.173
-300.778	303.652	-0.091	0.167
-299.764	-81.336	-0.124	0.040
-298.749	-95.510	0.449	0.119
-297.735	194.441	-0.082	-0.123
-296.720	-83.009	0.189	-0.060
-295.705	-200.000	-0.009	0.132
-294.691	44.022	-0.268	0.243
-293.676	279.154	-0.222	0.391
-292.662	-61.601	0.079	0.033
-291.647	59.830	0.331	-0.323
-290.632	8.755	-0.080	-0.060
-289.618	18.319	0.260	-0.205
-288.603	-30.192	0.316	0.177
-287.589	-83.235	0.173	-0.055
-286.574	-162.035	0.256	0.013
-285.559	644.827	-0.024	0.060
-284.545	-200.000	-0.013	-0.331
-283.530	201.511	0.096	-0.146
-282.516	-85.618	0.122	-0.037
-281.501	-29.206	-0.228	-0.129
-280.486	-119.016	-0.205	-0.035
-279.472	-59.022	-0.606	0.258
-278.457	721.849	0.069	-0.181
-277.443	188.421	0.184	-0.271
-276.428	-200.000	0.017	0.170
-275.413	-200.000	0.030	0.146
-274.399	247.491	-0.006	-0.011
-273.384	800.000	0.034	0.115
-272.370	-77.330	0.049	0.017
-271.355	436.973	-0.098	-0.210
-270.340	-200.000	0.018	0.123
-269.326	99.818	0.113	-0.129
-268.311	-200.000	0.010	0.064
-267.297	28.964	-0.104	-0.087
-266.282	-6.266	-0.184	0.124
-265.267	-19.200	0.017	-0.011
-264.253	-129.561	-0.295	-0.040
-263.238	-43.552	-0.171	-0.085
-262.224	30.289	-0.216	0.182
-261.209	-28.687	-0.232	0.132
-260.195	-84.762	0.202	0.063
-259.180	45.951	0.339	0.310
-258.165	-200.000	-0.029	-0.354
-257.151	-200.000	-0.006	0.190
-256.136	42.411	0.148	-0.133
-255.122	-7.940	-0.056	0.037
-254.107	296.685	-0.244	0.442
-253.092	-138.040	-0.139	0.015
-252.078	-200.000	-0.014	-0.138
-251.063	403.908	-0.121	0.250
-250.049	233.879	0.143	-0.232
-249.034	-69.696	-0.225	0.085
-248.019	800.000	0.072	0.224
-247.005	-97.368	-0.199	-0.051
-245.990	-106.629	0.123	-0.027
-244.976	800.000	0.031	0.121
-243.961	-200.000	0.021	0.244
-242.946	198.833	0.077	0.116
-241.932	46.255	-0.209	0.191
-240.917	-66.539	0.060	-0.023
-239.903	-7.706	-0.092	0.061
-238.888	-158.215	0.304	0.017
-237.873	78.265	-0.173	0.182
-236.859	800.000	0.085	0.338
-235.844	800.000	-0.063	0.241
-234.830	-200.000	0.080	-0.390
-233.815	153.446	-0.095	-0.128
-232.800	43.152	-0.121	0.109
-231.786	-113.643	0.055	0.010
-230.771	665.110	-0.068	-0.172
-229.757	-6.287	0.189	0.127
-228.742	3.721	-0.211	-0.151
-227.727	196.695	-0.127	0.191
-226.713	-200.000	0.047	0.224
-225.698	-145.649	0.307	-0.027
-224.684	-200.000	0.004	0.374
-223.669	8.807	-0.137	0.102
-222.655	209.463	-0.026	0.039
-221.640	-120.041	-0.125	0.021
-220.625	-115.302	-0.219	-0.041
-219.611	-200.000	-0.043	0.229
-218.596	-163.282	0.160	0.008
-217.582	-200.000	0.047	0.207
-216.567	800.000	0.086	-0.273
-215.552	192.450	0.146	-0.216
-214.538	-200.000	-0.035	-0.208
-213.523	208.722	0.036	0.056
-212.509	-28.224	0.154	-0.087
-211.494	-200.000	-0.034	-0.333
-210.479	25.126	-0.225	-0.184
-209.465	-67.817	0.271	-0.104
-208.450	515.735	-0.061	-0.140
-207.436	-200.000	0.007	-0.094
-206.421	228.208	-0.212	-0.340
-205.406	76.049	-0.242	-0.252
-204.392	715.801	0.071	-0.184
-203.377	253.881	-0.185	-0.312
-202.363	-88.188	-0.311	-0.092
-201.348	167.109	-0.035	-0.049
-200.333	-55.979	-0.169	0.074
-199.319	-184.787	0.182	-0.003
-198.304	388.361	0.074	0.151
-197.290	-38.323	0.107	-0.056
-196.275	800.000	-0.087	-0.322
-195.260	94.525	0.085	-0.095
-194.246	-111.669	0.257	0.051
-193.231	-170.898	-0.153	0.005
-192.217	-200.000	0.004	-0.188
-191.202	-61.229	-0.281	-0.117
-190.187	98.277	-0.046	0.053
-189.173	-93.682	-0.231	-0.063
-188.158	-112.717	-0.321	-0.063
-187.144	-99.335	-0.232	0.058
-186.129	-200.000	0.068	-0.440
-185.114	-200.000	-0.026	-0.147
-184.100	-86.710	0.264	0.079
-183.085	-88.953	0.110	0.032
-182.071	-96.641	0.093	-0.024
-181.056	-200.000	0.060	-0.282
-180.042	-172.981	-0.302	0.009
-179.027	-120.390	0.258	-0.043
-178.012	-151.586	0.402	0.029
-176.998	291.873	-0.139	0.250
-175.983	-72.362	0.433	0.157
-174.969	-10.152	0.131	-0.086
-173.954	800.000	-0.046	0.138
-172.939	-45.062	0.228	0.112
-171.925	-53.530	-0.140	0.063
-170.910	610.033	0.103	0.252
-169.896	56.637	0.049	0.047
-168.881	800.000	0.041	0.114
-167.866	-9.151	-0.180	-0.118
-166.852	43.056	-0.271	0.243
-165.837	-124.235	0.141	0.022
-164.823	-59.441	0.119	0.050
-163.808	-58.849	0.161	0.068
-162.793	281.693	-0.156	0.274
-161.779	41.089	-0.090	-0.080
-160.764	104.609	-0.179	-0.208
-159.750	98.859	-0.100	0.114
-158.735	-31.336	-0.331	0.183
-157.720	-200.000	0.016	0.236
-156.706	288.477	0.033	0.059
-155.691	461.459	-0.058	-0.127
-154.677	-108.653	0.116	-0.025
-153.662	-200.000	-0.011	0.342
-152.647	-155.249	-0.164	0.010
-151.633	-9.421	0.212	-0.139
-150.618	-200.000	0.004	-0.025
-149.604	-126.700	-0.104	-0.015
-148.589	-57.455	0.129	0.056
-147.574	36.859	0.230	0.199
-146.560	260.451	0.060	0.102
-145.545	37.033	0.128	0.111
-144.531	199.998	0.113	0.171
-143.516	-200.000	0.030	-0.165
-142.502	-108.653	0.086	0.018
-141.487	-71.827	0.190	0.070
-140.472	-200.000	0.007	-0.292
-139.458	-142.687	-0.248	-0.024
-138.443	238.513	0.208	-0.339
-137.429	32.822	0.131	0.111
-136.414	114.409	0.160	-0.191
-135.399	-2.139	0.168	0.116
-134.385	-200.000	0.006	-0.473
-133.370	331.545	-0.080	0.151
-132.356	117.963	-0.048	0.058
-131.341	-200.000	-0.040	-0.220
-130.326	-152.309	-0.209	0.015
-129.312	118.465	-0.173	-0.209
-128.297	-36.510	-0.234	-0.124
-127.283	-169.504	-0.228	-0.008
-126.268	120.145	0.313	-0.381
-125.253	112.118	-0.184	0.218
-124.239	-99.112	-0.154	-0.038
-123.224	60.456	0.182	0.177
-122.210	-200.000	-0.004	-0.128
-121.195	-139.017	0.352	0.037
-120.180	202.425	0.151	0.228
-119.166	-200.000	-0.051	0.229
-118.151	170.918	-0.075	0.106
-117.137	79.439	-0.280	-0.295
-116.122	-89.152	0.260	-0.075
-115.107	-80.040	-0.464	0.153
-114.093	18.727	0.052	0.041
-113.078	-165.636	-0.066	0.003
-112.064	-200.000	-0.025	-0.267
-111.049	39.126	0.274	-0.240
-110.034	-56.886	0.321	0.139
-109.020	800.000	-0.015	-0.045
-108.005	-108.175	-0.381	-0.081
-106.991	724.263	-0.023	0.061
-105.976	800.000	-0.072	0.252
-104.962	-150.364	-0.220	-0.017
-103.947	70.223	-0.260	0.263
-102.932	-92.539	0.120	0.033
-101.918	232.673	0.092	-0.149
-100.903	-200.000	-0.035	0.200
-99.889	-178.016	0.307	-0.007
-98.874	-49.451	-0.037	-0.017
-97.859	-124.787	0.199	-0.030
-96.845	-200.000	0.008	-0.153
-95.830	-168.426	-0.228	0.009
-94.816	8.817	0.100	-0.074
-93.801	127.246	0.163	-0.202
-92.786	-22.949	-0.045	-0.026
-91.772	-36.519	-0.096	0.050
-90.757	-43.908	0.340	-0.168
-89.743	48.772	0.053	-0.049
-88.728	-200.000	0.017	0.196
-87.713	103.093	-0.226	-0.259
-86.699	-200.000	-0.004	0.045
-85.684	-147.588	0.075	0.006
-84.670	74.785	0.064	0.066
-83.655	787.524	-0.171	0.460
-82.640	129.542	0.204	0.255
-81.626	1.147	0.179	0.126
-80.611	7.734	0.037	-0.027
-79.597	11.271	-0.134	-0.101
-78.582	40.875	0.189	-0.167
-77.567	-42.253	-0.139	-0.070
-76.553	177.199	0.164	0.234
-75.538	-98.062	0.171	-0.043
-74.524	-131.374	-0.117	0.015
-73.509	301.205	-0.104	-0.187
-72.494	-94.640	-0.388	-0.103
-71.480	-200.000	0.008	0.121
-70.465	591.456	-0.167	-0.404
-69.451	76.174	-0.096	0.099
-68.436	-200.000	-0.028	0.185
-67.422	-200.000	0.006	0.277
-66.407	-200.000	-0.012	0.260
-65.392	-200.000	0.031	-0.227
-64.378	-200.000	0.010	-0.134
-63.363	-142.276	-0.051	-0.005
-62.349	-62.753	-0.259	0.105
-61.334	-48.013	-1.037	-0.491
-60.319	-55.315	0.566	0.249
-59.305	304.661	-0.778	-1.412
-58.290	333.640	0.569	1.077
-57.276	444.680	0.770	1.652
-56.261	-200.000	115.071	645.289
-55.246	467.750	1510.924	3314.448
-54.232	146.111	2686.178	3524.877
-53.217	96.196	2289.924	2560.635
-52.203	36.148	1902.239	1638.682
-51.188	30.342	1695.120	1416.065
-50.173	27.973	1653.418	1363.526
-49.159	49.215	1708.305	1570.315
-48.144	47.996	1722.472	1574.054
-47.130	29.983	1681.393	1401.660
-46.115	27.343	1667.089	1369.839
-45.100	27.132	1662.202	1364.183
-44.086	27.083	1659.568	1361.600
-43.071	27.098	1656.871	1359.446
-42.057	27.118	1654.412	1357.528
-41.042	27.231	1652.267	1356.553
-40.027	27.188	1650.498	1354.729
-39.013	27.160	1648.407	1352.753
-37.998	27.123	1647.228	1351.450
-36.984	27.205	1645.266	1350.401
-35.969	27.213	1644.353	1349.656
-34.954	27.244	1643.146	1348.842
-33.940	27.204	1641.118	1346.829
-32.925	27.202	1639.633	1345.538
-31.911	27.174	1637.215	1343.297
-30.896	27.307	1635.142	1342.526
-29.881	27.223	1634.237	1341.109
-28.867	27.227	1632.403	1339.578
-27.852	27.306	1630.394	1338.457
-26.838	27.338	1628.627	1337.190
-25.823	27.265	1628.284	1336.320
-24.809	27.325	1626.761	1335.451
-23.794	27.158	1626.077	1333.615
-22.779	27.320	1623.725	1332.823
-21.765	27.265	1621.873	1330.848
-20.750	27.293	1620.956	1330.248
-19.736	27.317	1619.392	1329.083
-18.721	27.331	1618.132	1328.096
-17.706	27.300	1616.902	1326.812
-16.692	27.321	1615.125	1325.450
-15.677	27.389	1613.332	1324.426
-14.663	27.449	1611.730	1323.491
-13.648	27.336	1610.594	1321.682
-12.633	27.307	1609.189	1320.271
-11.619	27.237	1607.887	1318.641
-10.604	27.291	1606.051	1317.478
-9.590	27.338	1604.977	1316.885
-8.575	27.286	1603.859	1315.533
-7.560	27.327	1602.151	1314.377
-6.546	27.261	1601.567	1313.373
-5.531	27.230	1600.594	1312.298
-4.517	27.214	1599.406	1311.154
-3.502	27.254	1598.200	1310.400
-2.487	27.377	1596.460	1309.813
-1.473	27.019	1584.090	1297.050
-0.458	24.158	1565.102	1261.233
0.556	18.841	1566.854	1229.697
1.571	16.641	1591.041	1232.560
2.586	16.327	1603.913	1240.118
3.600	15.988	1553.043	1198.270
4.615	13.744	1455.654	1108.055
5.629	11.314	1401.558	1051.136
6.644	10.810	1394.383	1042.429
7.659	10.842	1393.416	1041.819
8.673	10.812	1392.162	1040.599
9.688	10.826	1389.922	1038.922
10.702	10.726	1386.672	1035.763
11.717	11.808	1388.392	1043.861
12.731	14.565	1393.250	1065.048
13.746	16.977	1396.659	1082.974
14.761	17.590	1396.248	1086.468
15.775	16.707	1393.771	1078.823
16.790	15.510	1391.530	1069.374
17.804	14.646	1389.470	1062.200
18.819	14.208	1387.438	1057.773
19.834	14.041	1386.033	1055.546
20.848	13.789	1384.754	1052.881
21.863	13.553	1383.798	1050.561
22.877	13.402	1382.290	1048.367
23.892	13.321	1381.256	1046.976
24.907	13.323	1380.124	1046.037
25.921	13.348	1379.659	1045.751
26.936	13.422	1378.752	1045.440
27.950	13.402	1377.362	1044.167
28.965	13.451	1376.276	1043.559
29.980	13.544	1375.504	1043.467
30.994	13.717	1373.978	1043.310
32.009	13.688	1373.014	1042.299
33.023	13.650	1371.720	1040.985
34.038	13.692	1370.086	1039.922
35.053	13.496	1369.329	1038.024
36.067	13.500	1368.046	1036.985
37.082	13.560	1366.982	1036.465
38.096	13.600	1366.093	1035.947
39.111	13.669	1365.460	1035.807
40.126	13.466	1364.523	1033.738
41.140	13.408	1363.451	1032.470
42.155	13.372	1362.904	1031.741
43.169	13.332	1362.138	1030.821
44.184	13.253	1362.723	1030.679
45.199	13.372	1361.859	1030.673
46.213	13.305	1361.627	1029.993
47.228	13.424	1360.645	1029.898
48.242	13.396	1359.435	1028.718
49.257	13.391	1358.154	1027.626
50.271	13.413	1356.467	1026.391
51.286	13.600	1354.594	1026.041
52.301	13.428	1353.744	1024.243
53.315	13.432	1352.864	1023.513
54.330	13.348	1352.170	1022.380
55.344	13.336	1350.891	1021.246
56.359	13.430	1349.448	1020.648
57.374	13.255	1349.056	1019.179
58.388	13.278	1348.294	1018.658
59.403	13.315	1347.716	1018.358
60.417	13.196	1346.917	1016.932
61.432	13.243	1346.018	1016.453
62.447	13.250	1344.958	1015.603
63.461	13.272	1343.688	1014.690
64.476	13.203	1342.687	1013.423
65.490	13.103	1341.492	1011.815
66.505	13.191	1340.025	1011.161
67.520	13.277	1338.389	1010.361
68.534	13.252	1337.446	1009.405
69.549	13.292	1336.688	1008.990
70.563	13.282	1335.389	1007.860
71.578	13.218	1334.842	1006.965
72.593	13.108	1333.875	1005.481
73.607	13.072	1333.467	1004.866
74.622	13.174	1332.137	1004.395
75.636	13.093	1332.067	1003.757
76.651	13.228	1330.603	1003.387
77.666	13.226	1330.250	1003.019
78.680	13.134	1329.766	1002.009
79.695	13.228	1328.865	1001.810
80.709	13.217	1328.195	1001.150
81.724	13.261	1327.508	1000.809
82.739	13.331	1326.719	1000.551
83.753	13.441	1325.488	1000.198
84.768	13.384	1324.547	999.056
85.782	13.533	1323.512	999.083
86.797	13.467	1322.545	997.866
87.812	13.328	1321.197	995.927
88.826	13.346	1319.897	994.968
89.841	13.445	1318.757	994.614
90.855	13.401	1317.771	993.516
91.870	13.497	1317.136	993.527
92.884	13.478	1315.530	992.114
93.899	13.544	1315.278	992.230
94.914	13.484	1315.251	991.761
95.928	13.684	1313.245	991.358
96.943	13.455	1312.877	989.624
97.957	13.466	1311.724	988.736
98.972	13.398	1310.750	987.506
99.987	13.465	1309.297	986.725
101.001	13.428	1308.950	986.151
102.016	13.533	1307.575	985.656
103.030	13.484	1306.989	984.833
104.045	13.523	1305.659	983.975
105.060	13.413	1304.757	982.560
106.074	13.346	1303.305	980.978
107.089	13.291	1301.754	979.399
108.103	13.308	1300.605	978.549
109.118	13.231	1299.366	977.075
110.133	13.280	1297.792	976.097
111.147	13.323	1296.790	975.512
112.162	13.360	1294.840	974.173
113.176	13.365	1294.015	973.497
114.191	13.410	1293.100	972.985
115.206	13.437	1291.916	972.170
116.220	13.366	1290.737	970.779
117.235	13.362	1289.818	969.980
118.249	13.267	1288.689	968.488
119.264	13.424	1287.528	968.449
120.279	13.327	1286.518	967.037
121.293	13.292	1285.410	965.912
122.308	13.289	1284.369	965.026
123.322	13.336	1283.230	964.358
124.337	13.309	1282.411	963.500
125.352	13.222	1281.176	961.982
126.366	13.231	1280.001	961.064
127.381	13.250	1278.610	960.049
128.395	13.284	1277.741	959.506
129.410	13.287	1276.431	958.455
130.424	13.307	1276.023	958.182
131.439	13.196	1275.766	957.258
132.454	13.440	1274.046	957.295
133.468	13.380	1273.382	956.369
134.483	13.295	1272.918	955.442
135.497	13.395	1271.268	954.697
136.512	13.444	1270.044	953.975
137.527	13.468	1268.757	953.059
138.541	13.444	1267.357	951.786
139.556	13.426	1266.006	950.584
140.570	13.481	1265.283	950.275
141.585	13.415	1264.015	948.860
142.600	13.629	1262.144	948.594
143.614	13.656	1261.778	948.389
144.629	13.662	1260.562	947.429
145.643	13.660	1259.118	946.248
146.658	13.561	1258.526	945.152
147.673	13.480	1256.717	943.249
148.687	13.574	1255.444	942.748
149.702	13.497	1254.654	941.630
150.716	13.359	1253.304	939.750
151.731	13.520	1252.181	939.739
152.746	13.543	1250.541	938.555
153.760	13.532	1249.422	937.573
154.775	13.558	1248.962	937.292
155.789	13.586	1247.582	936.330
156.804	13.652	1246.298	935.653
157.819	13.684	1245.178	934.914
158.833	13.701	1244.310	934.272
159.848	13.737	1243.415	933.723
160.862	13.714	1242.218	932.613
161.877	13.621	1241.355	931.358
162.892	13.716	1240.124	930.886
163.906	13.552	1239.477	929.398
164.921	13.618	1238.580	929.014
165.935	13.616	1237.533	928.131
166.950	13.755	1236.809	928.284
167.964	13.713	1235.948	927.326
168.979	13.704	1235.245	926.665
169.994	13.685	1234.731	926.089
171.008	13.618	1234.124	925.177
172.023	13.704	1233.073	924.791
173.037	13.821	1232.043	924.585
174.052	13.872	1231.162	924.128
175.067	13.686	1230.230	922.310
176.081	13.616	1229.181	921.055
177.096	13.676	1228.550	920.833
178.110	13.637	1227.660	919.866
179.125	13.763	1225.880	919.152
180.140	13.841	1224.210	918.249
181.154	13.778	1223.207	917.070
182.169	13.733	1222.394	916.130
183.183	13.922	1221.112	916.127
184.198	13.857	1220.183	914.993
185.213	13.893	1218.962	914.196
186.227	13.825	1218.264	913.214
187.242	13.954	1216.830	912.767
188.256	14.067	1215.761	912.509
189.271	14.219	1214.295	912.157
190.286	13.938	1213.684	910.080
191.300	13.680	1213.522	908.464
192.315	13.781	1212.520	908.189
193.329	13.778	1211.523	907.345
194.344	13.889	1211.080	907.539
195.359	13.818	1210.633	906.736
196.373	13.927	1210.590	907.214
197.388	14.042	1209.872	907.224
198.402	14.059	1209.202	906.738
199.417	14.038	1208.757	906.211
200.432	14.146	1207.477	905.755
201.446	14.236	1206.409	905.363
202.461	14.220	1206.030	904.915
203.475	14.279	1204.331	903.879
204.490	14.125	1203.274	902.171
205.504	14.166	1202.711	901.893
206.519	14.194	1200.979	900.662
207.534	14.126	1200.315	899.719
208.548	14.201	1199.286	899.272
209.563	14.205	1198.493	898.622
210.577	14.189	1197.578	897.769
211.592	14.209	1196.773	897.191
212.607	14.248	1195.875	896.652
213.621	14.276	1195.179	896.201
214.636	14.337	1193.697	895.340
215.650	14.293	1193.029	894.519
216.665	14.466	1191.928	894.543
217.680	14.364	1191.017	893.233
218.694	14.457	1190.657	893.382
219.709	14.410	1189.659	892.302
220.723	14.354	1189.525	891.823
221.738	14.391	1188.419	891.117
222.753	14.374	1187.567	890.306
223.767	14.466	1186.675	890.050
224.782	14.548	1186.242	890.087
225.796	14.638	1185.714	890.092
226.811	14.622	1184.852	889.279
227.826	14.438	1184.364	887.856
228.840	14.608	1183.105	887.733
229.855	14.537	1182.300	886.678
230.869	14.592	1181.298	886.136
231.884	14.448	1180.980	885.054
232.899	14.421	1180.572	884.530
233.913	14.437	1179.338	883.613
234.928	14.421	1178.893	883.113
235.942	14.432	1178.189	882.569
236.957	14.524	1177.391	882.376
237.972	14.464	1176.526	881.334
238.986	14.467	1176.001	880.882
240.001	14.445	1175.108	880.017
241.015	14.545	1174.260	879.830
242.030	14.542	1173.728	879.337
243.045	14.661	1172.698	879.116
244.059	14.637	1171.729	878.184
245.074	14.562	1171.247	877.354
246.088	14.740	1169.886	877.191
247.103	14.703	1169.247	876.440
248.117	14.768	1168.609	876.225
249.132	14.818	1167.784	875.788
250.147	14.987	1167.061	876.055
251.161	14.997	1166.669	875.737
252.176	15.008	1165.867	875.111
253.190	14.979	1165.547	874.643
254.205	15.030	1164.844	874.304
255.220	15.007	1164.610	873.931
256.234	14.924	1164.102	873.043
257.249	15.043	1162.675	872.515
258.263	15.143	1162.138	872.555
259.278	15.283	1161.151	872.465
260.293	15.145	1160.697	871.330
261.307	15.091	1160.715	870.986
262.322	15.126	1159.698	870.328
263.336	15.146	1159.338	870.082
264.351	15.225	1158.014	869.424
265.366	15.248	1157.750	869.264
266.380	15.437	1156.554	869.271
267.395	15.252	1155.882	867.729
268.409	15.141	1155.527	866.811
269.424	15.225	1154.428	866.347
270.439	15.111	1154.347	865.620
271.453	15.173	1153.507	865.235
272.468	15.151	1152.485	864.278
273.482	15.163	1151.701	863.676
274.497	15.168	1150.821	862.964
275.512	15.285	1150.359	863.142
276.526	15.318	1149.320	862.457
277.541	15.205	1149.238	861.739
278.555	15.242	1148.329	861.171
279.570	15.360	1147.496	861.075
280.585	15.407	1146.502	860.494
281.599	15.281	1146.246	859.581
282.614	15.387	1144.782	858.950
283.628	15.420	1143.445	858.040
284.643	15.370	1142.720	857.161
285.657	15.336	1141.920	856.314
286.672	15.496	1140.926	856.307
287.687	15.437	1140.306	855.465
288.701	15.488	1139.509	855.054
289.716	15.360	1139.061	853.988
290.730	15.404	1138.169	853.466
291.745	15.354	1137.548	852.672
292.760	15.493	1136.747	852.701
293.774	15.522	1136.697	852.735
294.789	15.543	1135.495	851.867
295.803	15.534	1134.897	851.298
296.818	15.562	1134.053	850.733
297.833	15.563	1133.310	850.105
298.847	15.541	1132.580	849.368
299.862	15.588	1131.612	848.807
300.876	15.626	1131.385	848.753
301.891	15.685	1130.462	848.281
302.906	15.617	1129.719	847.307
303.920	15.773	1129.023	847.495
304.935	15.838	1128.479	847.338
305.949	15.728	1127.767	846.175
306.964	15.797	1127.239	846.052
307.979	15.844	1126.402	845.585
308.993	15.788	1125.605	844.630
310.008	15.801	1124.776	843.998
311.022	15.812	1124.010	843.407
312.037	15.810	1122.943	842.518
313.052	15.841	1122.043	841.923
314.066	15.816	1121.137	841.045
315.081	15.726	1120.703	840.198
316.095	15.736	1119.571	839.323
317.110	15.787	1118.789	838.918
318.125	15.731	1118.594	838.417
319.139	15.829	1117.605	838.093
320.154	15.789	1116.730	837.162
321.168	15.694	1116.663	836.564
322.183	15.912	1115.500	836.699
323.197	15.754	1115.072	835.522
324.212	15.841	1114.604	835.527
325.227	15.788	1114.278	834.950
326.241	15.888	1113.307	834.640
327.256	15.898	1112.245	833.821
328.270	15.790	1111.270	832.483
329.285	15.840	1110.797	832.300
330.300	15.907	1109.802	831.815
331.314	15.863	1109.041	830.951
332.329	15.953	1107.407	830.096
333.343	16.023	1106.606	829.769
334.358	15.952	1106.077	828.952
335.373	15.970	1105.108	828.237
336.387	16.016	1104.600	828.013
337.402	16.050	1103.801	827.506
338.416	16.121	1102.910	827.113
339.431	16.099	1102.472	826.606
340.446	16.232	1101.736	826.629
341.460	16.258	1101.160	826.250
342.475	16.257	1100.555	825.721
343.489	16.380	1099.445	825.416
344.504	16.399	1098.430	824.670
345.519	16.373	1097.326	823.642
346.533	16.351	1096.753	823.035
347.548	16.428	1095.959	822.738
348.562	16.398	1095.381	822.088
349.577	16.409	1094.328	821.280
350.592	16.334	1093.496	820.217
351.606	16.379	1092.840	819.868
352.621	16.201	1092.521	818.693
353.635	16.275	1091.594	818.286
354.650	16.310	1090.791	817.783
355.665	16.347	1090.086	817.358
356.679	16.335	1089.987	817.154
357.694	16.485	1089.004	817.070
358.708	16.407	1088.372	816.146
359.723	16.336	1087.980	815.437
360.738	16.277	1087.089	814.414
361.752	16.566	1086.527	815.314
362.767	16.450	1086.046	814.324
363.781	16.452	1085.662	813.970
364.796	16.503	1084.993	813.642
365.810	16.605	1084.065	813.366
366.825	16.627	1083.773	813.181
367.840	16.655	1083.075	812.722
368.854	16.715	1082.499	812.504
369.869	16.600	1082.231	811.679
370.883	16.733	1080.675	811.079
371.898	16.641	1080.155	810.173
372.913	16.717	1079.530	809.999
373.927	16.818	1078.908	809.944
374.942	16.720	1078.436	809.047
375.956	16.695	1078.278	808.738
376.971	16.727	1077.565	808.287
377.986	16.863	1076.968	808.413
379.000	16.893	1075.995	807.753
380.015	16.903	1075.910	807.668
381.029	16.920	1074.806	806.845
382.044	16.927	1074.220	806.370
383.059	16.796	1074.117	805.598
384.073	17.036	1072.789	805.670
385.088	16.930	1071.992	804.496
386.102	16.987	1071.310	804.183
387.117	16.959	1069.853	802.889
388.132	16.866	1069.403	802.038
389.146	17.004	1068.251	801.755
390.161	16.918	1067.289	800.560
391.175	16.844	1066.788	799.761
392.190	16.914	1066.670	799.933
393.205	17.036	1065.621	799.651
394.219	16.851	1065.133	798.343
395.234	17.058	1063.800	798.244
396.248	17.094	1062.608	797.448
397.263	16.888	1061.896	795.877
398.278	16.879	1061.557	795.509
399.292	16.849	1060.868	794.784
400.307	16.922	1060.034	794.428
401.321	16.944	1059.021	793.705
402.336	16.948	1058.555	793.301
403.350	16.897	1058.131	792.674
404.365	16.871	1057.583	792.074
405.380	16.960	1056.420	791.551
406.394	17.094	1055.534	791.441
407.409	17.163	1055.108	791.370
408.423	17.134	1054.328	790.582
409.438	17.322	1053.413	790.702
410.453	17.368	1052.808	790.391
411.467	17.391	1052.354	790.084
412.482	17.447	1051.330	789.505
413.496	17.339	1050.934	788.640
414.511	17.314	1050.449	788.089
415.526	17.461	1049.729	788.159
416.540	17.507	1049.277	787.966
417.555	17.451	1048.872	787.329
418.569	17.441	1048.360	786.830
419.584	17.553	1047.903	786.933
420.599	17.519	1047.287	786.245
421.613	104.960	1325.895	1477.136
422.628	96.523	1366.433	1477.249
