DTS Sentinel unit serial number:	SN413079Multiplexer serial number:	ORYXHardware model number:	OX4-SRSoftware version number:	ORYX F/W v4.00 Oryx Data Collector v3.7.2.0data status	okinstallation	princeton_trtdifferential loss correction	single-endedforward channel	channel 2reverse channel	N/Adate	2019/09/10time	21:29:11forward acquisition time	60.00reverse acquisition time	0.00gamma	496.2192k internal	0.2330k external	0.2330temperature offset calibration	0.9943default loss term (dB/km)	0.3790temperature slope calibration	1.0000multiplexer offset coefficient	1.0000multiplexer slope coefficient	1.0000fibre end	0.00T internal ref (°C)	31.16T ext. ref 1 (°C)	-0.31T ext. ref 2 (°C)	24.36length (m)	temperature (°C)	Stokes	anti-Stokes-747.200	800.000	-0.091	-0.287
-746.185	-200.000	0.017	0.299
-745.171	290.089	0.037	0.067
-744.156	-71.870	-0.205	0.077
-743.142	288.215	0.063	0.115
-742.127	-173.872	-0.331	0.010
-741.112	-53.475	-0.280	-0.129
-740.098	68.660	-0.147	0.151
-739.083	26.237	-0.042	0.035
-738.069	800.000	0.161	0.466
-737.054	-200.000	-0.021	-0.166
-736.039	-200.000	-0.053	-0.244
-735.025	-118.406	0.267	0.048
-734.010	-200.000	-0.002	0.133
-732.996	-200.000	0.025	-0.268
-731.981	-80.278	-0.291	-0.098
-730.966	-108.747	-0.115	-0.025
-729.952	-200.000	-0.084	-0.525
-728.937	-200.000	-0.031	-0.176
-727.923	49.707	-0.192	-0.182
-726.908	55.607	-0.086	-0.084
-725.894	-75.180	0.118	0.042
-724.879	-96.329	-0.165	-0.044
-723.864	-200.000	0.022	0.161
-722.850	-200.000	0.080	-0.357
-721.835	800.000	-0.119	0.469
-720.821	-200.000	0.029	0.166
-719.806	151.591	0.170	-0.233
-718.791	84.699	0.092	-0.102
-717.777	108.524	-0.187	0.225
-716.762	168.006	0.180	-0.258
-715.748	-38.693	0.194	-0.103
-714.733	-200.000	-0.049	0.323
-713.718	-149.817	-0.073	-0.006
-712.704	-200.000	-0.002	-0.166
-711.689	-190.139	-0.338	0.004
-710.675	-75.709	-0.225	-0.080
-709.660	688.784	0.023	0.059
-708.645	-29.229	-0.405	0.233
-707.631	-16.703	0.083	0.053
-706.616	-135.921	0.235	-0.028
-705.602	-116.957	0.414	0.076
-704.587	7.550	0.351	0.264
-703.572	-9.064	0.147	-0.099
-702.558	800.000	0.142	-0.436
-701.543	595.102	-0.086	0.214
-700.529	409.358	0.075	-0.159
-699.514	106.108	-0.087	0.103
-698.499	548.551	0.123	-0.297
-697.485	800.000	-0.035	-0.134
-696.470	-6.364	0.217	0.149
-695.456	-29.297	-0.228	-0.131
-694.441	800.000	0.038	-0.112
-693.426	60.678	0.114	-0.114
-692.412	-9.516	-0.314	0.210
-691.397	81.143	0.237	0.257
-690.383	143.644	0.131	0.175
-689.368	101.108	0.023	-0.026
-688.354	-200.000	-0.046	0.337
-687.339	-200.000	0.081	-0.460
-686.324	-67.060	-0.313	0.124
-685.310	111.738	-0.234	-0.284
-684.295	195.972	0.009	0.013
-683.281	-108.587	0.343	-0.074
-682.266	75.680	0.195	-0.207
-681.251	248.698	0.107	0.183
-680.237	-176.254	0.178	0.005
-679.222	7.668	-0.193	0.145
-678.208	-74.841	-0.121	-0.044
-677.193	98.541	0.085	-0.099
-676.178	800.000	-0.073	0.215
-675.164	-59.069	0.454	0.197
-674.149	198.281	0.238	0.365
-673.135	-181.690	-0.035	-0.001
-672.120	-200.000	-0.005	0.053
-671.105	335.783	-0.081	0.157
-670.091	-156.996	0.330	0.020
-669.076	111.701	0.293	-0.355
-668.062	-28.182	-0.435	-0.252
-667.047	800.000	0.019	0.064
-666.032	261.002	-0.074	0.129
-665.018	504.353	-0.075	-0.174
-664.003	91.928	-0.069	0.078
-662.989	450.821	0.098	0.217
-661.974	-200.000	0.023	0.215
-660.959	593.308	-0.078	-0.193
-659.945	-149.937	0.548	-0.043
-658.930	800.000	0.038	0.137
-657.916	-200.000	0.013	-0.061
-656.901	-55.259	-0.121	-0.054
-655.886	93.559	0.040	0.046
-654.872	-76.299	-0.115	-0.041
-653.857	133.509	-0.086	0.111
-652.843	493.798	-0.079	-0.182
-651.828	-185.723	-0.084	-0.001
-650.814	-134.566	0.205	-0.025
-649.799	-200.000	0.013	0.272
-648.784	262.718	0.101	-0.176
-647.770	94.901	-0.171	0.195
-646.755	800.000	-0.082	0.277
-645.741	-200.000	-0.015	-0.390
-644.726	-107.733	-0.174	0.038
-643.711	-143.838	0.287	0.027
-642.697	40.996	0.110	-0.100
-641.682	-200.000	0.055	-0.276
-640.668	800.000	0.100	0.311
-639.653	-200.000	-0.006	-0.118
-638.638	145.526	-0.152	0.204
-637.624	452.245	0.066	0.146
-636.609	-134.704	-0.125	-0.015
-635.595	301.118	0.087	-0.161
-634.580	173.554	-0.297	0.429
-633.565	800.000	0.098	-0.311
-632.551	40.021	-0.105	-0.095
-631.536	800.000	-0.064	0.229
-630.522	-22.982	0.314	-0.190
-629.507	129.844	-0.110	-0.140
-628.492	-200.000	-0.064	-0.362
-627.478	-200.000	-0.056	-0.255
-626.463	642.313	-0.087	0.221
-625.449	3.007	0.068	-0.050
-624.434	219.080	-0.158	-0.254
-623.419	162.774	-0.209	0.294
-622.405	-102.626	-0.341	-0.082
-621.390	-84.499	0.174	-0.055
-620.376	-16.299	0.129	0.082
-619.361	800.000	0.025	0.104
-618.346	-142.284	-0.142	-0.014
-617.332	-100.197	0.191	0.048
-616.317	7.712	-0.263	-0.197
-615.303	-53.254	0.402	-0.185
-614.288	61.876	-0.246	-0.245
-613.273	-125.773	0.078	-0.012
-612.259	-167.379	-0.227	-0.009
-611.244	232.050	-0.143	0.235
-610.230	-107.749	0.190	0.042
-609.215	-76.801	0.293	0.103
-608.201	-200.000	-0.000	-0.051
-607.186	-200.000	0.014	0.132
-606.171	-200.000	-0.003	0.137
-605.157	191.688	-0.032	-0.049
-604.142	-200.000	0.030	-0.221
-603.128	104.550	-0.190	0.224
-602.113	-200.000	0.002	-0.083
-601.098	-38.184	-0.141	-0.075
-600.084	800.000	-0.131	-0.414
-599.069	-200.000	0.006	-0.061
-598.055	-6.692	-0.110	-0.075
-597.040	78.612	-0.193	-0.207
-596.025	76.935	0.061	-0.064
-595.011	-200.000	-0.003	-0.018
-593.996	-25.742	0.322	0.190
-592.982	706.911	0.076	-0.201
-591.967	114.893	0.172	-0.210
-590.952	-11.926	-0.192	-0.126
-589.938	-110.856	-0.379	-0.078
-588.923	-41.685	-0.137	-0.071
-587.909	-200.000	-0.046	0.294
-586.894	148.691	-0.094	0.127
-585.879	-127.817	-0.137	-0.020
-584.865	-4.964	0.244	-0.168
-583.850	-200.000	-0.034	-0.239
-582.836	187.259	-0.174	-0.260
-581.821	660.607	-0.152	-0.393
-580.806	-120.323	0.057	-0.010
-579.792	426.755	0.079	-0.171
-578.777	-200.000	-0.021	0.144
-577.763	800.000	0.101	-0.296
-576.748	362.883	0.149	-0.300
-575.733	-200.000	-0.019	0.104
-574.719	-200.000	-0.031	0.165
-573.704	-61.112	-0.219	-0.093
-572.690	-70.634	-0.200	0.076
-571.675	799.737	-0.172	-0.475
-570.661	639.839	-0.157	0.400
-569.646	644.561	-0.038	0.098
-568.631	235.312	-0.087	0.144
-567.617	-26.536	-0.156	0.091
-566.602	-200.000	-0.010	-0.074
-565.588	63.152	0.335	0.336
-564.573	-142.942	-0.365	-0.035
-563.558	164.631	0.075	0.105
-562.544	800.000	-0.054	0.180
-561.529	-200.000	-0.011	0.109
-560.515	-40.456	-0.025	0.013
-559.500	-103.779	-0.223	-0.052
-558.485	95.588	-0.241	-0.275
-557.471	190.821	0.094	-0.141
-556.456	-0.986	0.225	-0.159
-555.442	134.353	0.132	-0.171
-554.427	-106.704	0.284	0.063
-553.412	-50.586	-0.108	0.051
-552.398	89.487	0.139	0.155
-551.383	-200.000	0.030	0.291
-550.369	-46.966	-0.281	-0.137
-549.354	-141.002	0.114	-0.012
-548.339	186.290	0.161	-0.239
-547.325	90.654	0.176	0.197
-546.310	-200.000	-0.006	0.147
-545.296	38.857	0.105	-0.094
-544.281	-200.000	-0.011	-0.176
-543.266	800.000	-0.108	0.424
-542.252	-200.000	0.048	0.245
-541.237	59.513	-0.266	0.262
-540.223	37.634	-0.137	0.122
-539.208	800.000	-0.069	-0.299
-538.193	800.000	0.141	-0.421
-537.179	-42.835	0.295	-0.149
-536.164	-35.432	-0.360	0.195
-535.150	-200.000	-0.014	0.252
-534.135	-175.221	-0.196	0.005
-533.121	-43.938	-0.218	-0.110
-532.106	363.229	-0.016	-0.033
-531.091	-25.820	0.163	0.096
-530.077	-60.569	0.196	0.083
-529.062	-11.209	-0.110	-0.072
-528.048	92.507	-0.262	-0.295
-527.033	-150.192	0.283	-0.022
-526.018	201.558	-0.120	-0.184
-525.004	-200.000	-0.045	-0.231
-523.989	800.000	-0.087	-0.272
-522.975	-200.000	-0.014	-0.239
-521.960	-28.682	0.154	-0.088
-520.945	-85.603	0.232	0.072
-519.931	-200.000	0.017	0.307
-518.916	-51.104	-0.072	0.034
-517.902	-169.562	-0.541	-0.020
-516.887	-33.609	0.148	-0.081
-515.872	800.000	-0.010	-0.035
-514.858	58.510	-0.047	-0.046
-513.843	-200.000	-0.027	-0.194
-512.829	-157.754	-0.151	-0.009
-511.814	-200.000	-0.060	-0.307
-510.799	-200.000	0.008	0.311
-509.785	59.017	0.119	0.117
-508.770	-53.864	-0.106	-0.048
-507.756	53.222	0.126	-0.121
-506.741	800.000	-0.028	-0.081
-505.726	315.886	-0.068	0.129
-504.712	11.928	-0.074	-0.057
-503.697	-46.481	0.347	-0.170
-502.683	800.000	-0.069	-0.246
-501.668	654.310	-0.103	0.263
-500.653	-200.000	-0.027	0.192
-499.639	537.506	-0.139	-0.328
-498.624	-88.602	0.254	-0.075
-497.610	-94.680	0.027	0.007
-496.595	-200.000	-0.052	-0.254
-495.581	-200.000	-0.001	-0.007
-494.566	800.000	0.038	-0.115
-493.551	247.032	-0.045	-0.075
-492.537	-52.567	0.075	0.035
-491.522	-100.121	0.027	-0.007
-490.508	27.003	-0.180	-0.151
-489.493	278.477	0.077	-0.136
-488.478	800.000	-0.087	-0.346
-487.464	-129.642	-0.446	-0.061
-486.449	800.000	0.071	-0.204
-485.435	-200.000	-0.018	-0.309
-484.420	-119.354	-0.321	0.056
-483.405	-200.000	-0.029	-0.143
-482.391	-200.000	0.046	0.217
-481.376	11.980	-0.117	0.089
-480.362	-31.843	-0.295	0.165
-479.347	-86.500	-0.348	0.107
-478.332	70.097	0.295	0.304
-477.318	296.350	-0.063	-0.114
-476.303	-84.025	-0.137	-0.043
-475.289	782.311	-0.103	0.280
-474.274	-21.780	0.122	0.074
-473.259	800.000	-0.047	-0.183
-472.245	-41.332	0.142	-0.073
-471.230	800.000	0.040	-0.121
-470.216	-25.110	-0.046	0.027
-469.201	-143.475	-0.246	0.023
-468.186	8.888	-0.207	0.155
-467.172	43.959	0.146	-0.133
-466.157	-25.011	0.133	-0.078
-465.143	-148.545	-0.241	0.020
-464.128	46.905	-0.025	0.023
-463.113	115.992	0.102	0.125
-462.099	209.066	0.242	0.377
-461.084	31.244	0.101	-0.086
-460.070	158.121	0.067	-0.093
-459.055	800.000	0.049	0.194
-458.040	-200.000	0.082	0.388
-457.026	-97.236	0.238	-0.062
-456.011	-200.000	0.021	-0.180
-454.997	196.508	0.116	0.176
-453.982	678.817	0.049	0.127
-452.968	-48.595	-0.343	0.164
-451.953	-200.000	0.006	-0.142
-450.938	24.964	-0.171	-0.141
-449.924	172.211	-0.122	-0.174
-448.909	800.000	0.020	0.071
-447.895	-177.098	-0.373	-0.009
-446.880	366.681	0.027	0.054
-445.865	11.866	0.098	0.075
-444.851	116.382	0.061	0.074
-443.836	-4.534	0.091	-0.062
-442.822	-116.065	0.231	-0.043
-441.807	618.377	-0.120	0.301
-440.792	246.807	-0.186	-0.313
-439.778	578.564	0.057	-0.138
-438.763	-39.452	0.081	0.042
-437.749	-118.448	0.335	0.059
-436.734	265.079	-0.099	0.172
-435.719	800.000	-0.023	0.092
-434.705	1.379	0.070	-0.050
-433.690	-74.694	0.123	0.044
-432.676	41.651	-0.250	-0.225
-431.661	178.527	0.141	-0.205
-430.646	-54.655	0.192	-0.086
-429.632	-150.380	-0.257	-0.020
-428.617	117.450	0.044	0.054
-427.603	-200.000	0.006	0.181
-426.588	8.709	-0.065	0.049
-425.573	800.000	-0.057	-0.203
-424.559	-200.000	-0.024	0.129
-423.544	-200.000	0.028	-0.133
-422.530	-148.463	-0.108	-0.009
-421.515	126.484	-0.180	0.226
-420.500	-200.000	0.012	0.280
-419.486	-75.765	-0.129	0.046
-418.471	-200.000	0.028	-0.191
-417.457	-133.278	-0.452	-0.057
-416.442	18.912	-0.218	-0.173
-415.428	-200.000	-0.038	0.486
-414.413	-90.063	-0.475	-0.138
-413.398	203.008	-0.153	-0.235
-412.384	-97.922	-0.472	0.121
-411.369	-25.153	0.238	-0.140
-410.355	-110.610	0.325	-0.067
-409.340	89.909	-0.242	0.269
-408.325	461.129	-0.208	0.460
-407.311	257.318	-0.081	0.138
-406.296	-70.119	-0.213	-0.081
-405.282	256.612	-0.074	0.126
-404.267	-200.000	-0.039	0.249
-403.252	103.183	-0.075	0.088
-402.238	-47.730	-0.207	-0.100
-401.223	-109.458	0.101	-0.021
-400.209	171.887	-0.103	0.147
-399.194	-133.887	-0.255	0.032
-398.179	-200.000	0.009	0.126
-397.165	-118.063	-0.262	-0.046
-396.150	-126.092	0.167	-0.025
-395.136	-200.000	-0.041	-0.446
-394.121	-35.880	0.292	0.157
-393.106	150.291	0.085	0.114
-392.092	6.720	0.087	-0.065
-391.077	758.495	0.099	0.266
-390.063	111.713	-0.060	0.072
-389.048	-46.257	-0.057	-0.028
-388.033	236.387	0.109	-0.179
-387.019	-70.287	0.170	-0.064
-386.004	47.563	-0.062	0.057
-384.990	137.411	-0.044	-0.057
-383.975	-81.840	0.102	0.033
-382.960	-23.631	0.150	-0.089
-381.946	-147.556	-0.114	0.010
-380.931	-109.421	0.165	0.035
-379.917	-156.173	-0.298	0.019
-378.902	-17.276	0.255	0.159
-377.888	-120.606	-0.108	0.018
-376.873	-73.025	-0.162	-0.059
-375.858	-51.897	-0.113	-0.052
-374.844	-95.034	-0.285	-0.076
-373.829	9.056	-0.207	0.155
-372.815	-41.873	0.318	0.162
-371.800	5.083	0.382	-0.279
-370.785	-122.980	0.292	0.047
-369.771	294.720	0.075	-0.137
-368.756	49.105	-0.143	0.133
-367.742	-42.671	0.363	0.183
-366.727	800.000	0.066	0.243
-365.712	-50.151	0.279	0.131
-364.698	-59.373	0.207	0.088
-363.683	525.758	0.044	0.102
-362.669	-116.441	-0.249	-0.046
-361.654	224.173	0.238	0.381
-360.639	-137.240	0.185	-0.021
-359.625	-55.984	-0.192	-0.085
-358.610	800.000	0.066	0.257
-357.596	5.042	0.215	-0.157
-356.581	-200.000	-0.001	-0.061
-355.566	800.000	0.109	-0.361
-354.552	-2.691	-0.171	0.119
-353.537	-126.784	0.398	-0.058
-352.523	214.257	0.079	0.124
-351.508	115.263	0.145	0.176
-350.493	800.000	-0.092	0.363
-349.479	-200.000	0.035	0.189
-348.464	-77.795	-0.208	-0.071
-347.450	-200.000	0.011	0.119
-346.435	8.304	0.162	-0.121
-345.420	-29.632	-0.224	-0.127
-344.406	-98.944	0.220	-0.055
-343.391	372.976	-0.046	0.093
-342.377	67.224	-0.089	0.090
-341.362	-200.000	-0.067	0.368
-340.348	26.842	0.086	-0.071
-339.333	-200.000	0.014	-0.321
-338.318	-93.795	-0.236	-0.064
-337.304	598.356	-0.077	-0.190
-336.289	-200.000	-0.012	-0.261
-335.275	190.870	0.137	0.204
-334.260	-84.994	-0.041	0.013
-333.245	-200.000	0.014	-0.326
-332.231	191.580	0.083	0.123
-331.216	-165.758	0.366	0.016
-330.202	65.285	0.317	0.318
-329.187	800.000	0.015	0.045
-328.172	-108.121	0.344	0.074
-327.158	-200.000	0.049	-0.358
-326.143	-200.000	0.051	0.265
-325.129	41.539	0.347	0.311
-324.114	-146.436	0.165	0.014
-323.099	68.160	0.268	-0.272
-322.085	-91.309	0.156	-0.044
-321.070	-63.129	-0.217	0.089
-320.056	53.610	0.144	-0.137
-319.041	-72.179	-0.261	0.096
-318.026	134.412	0.136	0.175
-317.012	800.000	-0.099	0.277
-315.997	3.789	0.210	-0.152
-314.983	-200.000	0.056	-0.425
-313.968	800.000	-0.087	0.269
-312.953	523.262	0.097	0.225
-311.939	1.041	0.177	0.125
-310.924	417.569	-0.168	-0.356
-309.910	-130.391	0.194	0.026
-308.895	-164.132	0.430	-0.020
-307.880	-61.900	0.179	0.074
-306.866	-59.547	-0.295	-0.125
-305.851	-200.000	0.009	0.106
-304.837	256.893	-0.229	0.390
-303.822	-1.253	0.390	0.272
-302.807	144.238	-0.166	0.219
-301.793	14.325	0.054	0.041
-300.778	60.725	-0.168	-0.165
-299.764	800.000	0.068	-0.234
-298.749	800.000	0.040	-0.139
-297.735	-120.031	0.207	0.035
-296.720	331.311	0.052	-0.099
-295.705	70.744	-0.095	0.098
-294.691	-60.734	0.165	-0.069
-293.676	109.026	-0.113	-0.134
-292.662	-51.535	-0.364	0.168
-291.647	-62.090	0.206	-0.085
-290.632	-73.768	0.093	0.034
-289.618	-157.781	0.117	0.007
-288.603	-49.916	-0.117	0.055
-287.589	-131.281	-0.225	-0.029
-286.574	-81.040	0.190	0.062
-285.559	-87.749	0.258	-0.077
-284.545	248.859	0.042	0.071
-283.530	-200.000	-0.006	0.033
-282.516	67.464	-0.241	0.244
-281.501	800.000	0.040	-0.137
-280.486	-49.089	0.350	0.166
-279.472	800.000	-0.009	0.037
-278.457	-200.000	-0.005	0.227
-277.443	4.387	-0.075	0.054
-276.428	-61.813	0.511	-0.211
-275.413	52.866	-0.259	-0.244
-274.399	-32.983	0.299	-0.164
-273.384	-89.751	0.274	0.079
-272.370	35.644	0.245	0.213
-271.355	121.104	-0.077	0.095
-270.340	-200.000	0.025	0.133
-269.326	258.664	-0.106	0.180
-268.311	-200.000	0.002	0.045
-267.297	-200.000	-0.003	-0.033
-266.282	800.000	0.032	-0.089
-265.267	-169.200	-0.156	0.006
-264.253	-76.040	0.250	-0.087
-263.238	416.247	-0.183	0.385
-262.224	256.379	0.103	0.175
-261.209	-200.000	-0.031	-0.199
-260.195	4.199	0.098	0.071
-259.180	212.238	-0.186	-0.289
-258.165	550.941	0.082	-0.194
-257.151	7.426	-0.303	0.224
-256.136	46.829	-0.085	-0.078
-255.122	-117.629	0.160	-0.028
-254.107	-200.000	0.017	0.150
-253.092	280.794	-0.081	0.142
-252.078	768.309	0.224	0.601
-251.063	250.800	-0.095	-0.160
-250.049	34.753	-0.247	-0.214
-249.034	-78.221	0.281	-0.095
-248.019	173.108	-0.106	0.151
-247.005	-4.301	-0.317	-0.217
-245.990	67.623	0.121	0.122
-244.976	65.774	-0.154	-0.154
-243.961	-74.026	0.435	-0.156
-242.946	62.153	-0.074	0.073
-241.932	-140.834	0.298	-0.030
-240.917	-166.186	-0.233	-0.010
-239.903	104.786	-0.281	-0.327
-238.888	-200.000	-0.027	-0.423
-237.873	-42.185	0.402	0.203
-236.859	-72.942	-0.117	0.042
-235.844	-95.689	0.297	-0.078
-234.830	800.000	-0.053	-0.212
-233.815	800.000	-0.034	0.110
-232.800	-41.134	-0.157	0.080
-231.786	-200.000	0.008	-0.066
-230.771	-77.967	0.134	0.045
-229.757	-33.578	-0.140	0.076
-228.742	-200.000	-0.066	-0.310
-227.727	-29.199	0.235	0.133
-226.713	-73.425	0.047	-0.017
-225.698	-200.000	-0.006	0.214
-224.684	-147.653	0.235	0.019
-223.669	-200.000	-0.374	0.000
-222.655	-99.853	0.201	0.050
-221.640	-192.484	-0.329	0.003
-220.625	84.365	0.086	0.093
-219.611	-83.389	-0.271	0.086
-218.596	-85.223	-0.416	-0.128
-217.582	70.114	-0.305	-0.310
-216.567	-151.334	0.269	0.020
-215.552	-39.767	0.214	0.110
-214.538	389.574	-0.121	0.246
-213.523	-200.000	0.043	0.237
-212.509	9.509	0.128	0.096
-211.494	128.193	0.309	-0.388
-210.479	0.085	0.203	-0.143
-209.465	35.054	-0.103	0.089
-208.450	-21.361	0.087	0.052
-207.436	-91.582	0.193	-0.054
-206.421	-71.570	0.180	0.066
-205.406	-200.000	-0.041	0.357
-204.392	372.294	0.123	0.245
-203.377	-100.704	0.269	0.065
-202.363	-140.389	-0.139	-0.014
-201.348	-104.402	0.180	-0.041
-200.333	33.703	0.306	0.263
-199.319	-95.227	0.100	-0.026
-198.304	-200.000	-0.042	0.263
-197.290	22.645	0.130	0.105
-196.275	800.000	0.068	-0.259
-195.260	115.202	0.059	0.071
-194.246	50.670	0.111	0.103
-193.231	-200.000	0.016	0.253
-192.217	-128.621	0.319	-0.044
-191.202	-110.590	-0.112	0.023
-190.187	22.714	-0.201	-0.162
-189.173	800.000	0.021	-0.087
-188.158	-130.159	0.133	-0.018
-187.144	-84.688	-0.358	0.111
-186.129	-200.000	-0.028	-0.240
-185.114	319.104	0.045	0.085
-184.100	-9.493	-0.077	0.050
-183.085	-200.000	0.010	0.096
-182.071	-200.000	-0.012	0.164
-181.056	-101.297	0.103	0.025
-180.042	-179.671	-0.385	0.008
-179.027	95.855	-0.186	0.209
-178.012	43.740	-0.307	0.277
-176.998	563.781	0.045	-0.108
-175.983	30.698	0.067	0.057
-174.969	-79.317	-0.469	-0.157
-173.954	-46.873	-0.119	-0.057
-172.939	20.812	0.168	-0.134
-171.925	-200.000	0.023	-0.131
-170.910	-1.298	-0.114	-0.079
-169.896	-200.000	-0.023	-0.233
-168.881	171.465	-0.060	-0.084
-167.866	237.418	0.370	-0.604
-166.852	800.000	-0.074	-0.220
-165.837	84.894	0.147	-0.158
-164.823	-200.000	-0.001	0.268
-163.808	800.000	-0.024	0.095
-162.793	26.340	0.190	-0.157
-161.779	96.672	-0.150	0.169
-160.764	-20.896	-0.099	0.060
-159.750	545.320	0.067	0.157
-158.735	-160.154	0.115	0.006
-157.720	9.409	0.253	-0.188
-156.706	-185.682	-0.176	-0.003
-155.691	76.044	-0.136	0.141
-154.677	98.083	-0.068	-0.077
-153.662	-200.000	0.023	-0.240
-152.647	-176.572	0.331	0.008
-151.633	-43.097	0.191	-0.095
-150.618	25.977	0.208	-0.171
-149.604	109.425	-0.178	0.209
-148.589	395.033	-0.066	0.135
-147.574	-85.407	-0.424	-0.130
-146.560	-2.976	0.112	0.077
-145.545	-200.000	0.027	0.140
-144.531	800.000	0.114	0.431
-143.516	-101.766	-0.222	-0.053
-142.502	130.885	0.215	0.271
-141.487	0.808	-0.122	0.086
-140.472	194.951	0.085	0.127
-139.458	-71.707	-0.330	-0.121
-138.443	-179.479	0.093	-0.002
-137.429	189.840	-0.299	0.441
-136.414	279.745	-0.093	-0.163
-135.399	-108.791	-0.046	0.010
-134.385	362.590	-0.107	-0.212
-133.370	59.542	0.141	0.137
-132.356	-200.000	-0.021	0.123
-131.341	-114.136	0.325	-0.062
-130.326	36.614	-0.157	0.136
-129.312	-200.000	-0.016	-0.097
-128.297	-89.829	0.210	-0.060
-127.283	-164.067	0.223	0.010
-126.268	34.829	0.040	-0.034
-125.253	-87.300	-0.199	0.059
-124.239	181.266	0.129	0.187
-123.224	279.057	-0.089	-0.156
-122.210	800.000	-0.080	-0.222
-121.195	800.000	-0.112	-0.389
-120.180	38.645	0.145	-0.127
-119.166	48.057	0.171	0.157
-118.151	-5.689	0.063	0.042
-117.137	800.000	-0.055	-0.174
-116.122	-97.853	0.094	-0.024
-115.107	-13.438	-0.064	-0.041
-114.093	800.000	-0.090	-0.255
-113.078	-42.274	-0.183	-0.092
-112.064	-137.905	0.065	0.007
-111.049	-7.672	0.160	0.106
-110.034	19.447	0.244	-0.193
-109.020	-15.843	-0.291	-0.182
-108.005	426.986	-0.207	0.438
-106.991	-29.330	0.054	-0.030
-105.976	27.859	-0.271	0.224
-104.962	800.000	-0.059	0.170
-103.947	-34.880	-0.320	0.171
-102.932	110.363	-0.142	0.168
-101.918	296.970	0.179	0.322
-100.903	800.000	-0.073	-0.256
-99.889	-28.075	-0.187	0.106
-98.874	800.000	-0.033	0.134
-97.859	-200.000	0.430	-0.001
-96.845	45.396	0.076	0.069
-95.830	-12.548	-0.118	0.076
-94.816	-81.394	0.205	0.066
-93.801	70.703	-0.190	0.193
-92.786	76.501	-0.105	-0.109
-91.772	-71.594	0.306	0.112
-90.757	-200.000	0.037	0.330
-89.743	-106.225	-0.073	-0.016
-88.728	-48.720	-0.265	0.125
-87.713	800.000	-0.034	0.116
-86.699	330.361	0.113	-0.213
-85.684	-79.198	0.209	0.070
-84.670	129.273	-0.316	-0.395
-83.655	-117.455	-0.242	-0.043
-82.640	-200.000	-0.022	0.139
-81.626	278.117	-0.123	0.216
-80.611	342.309	0.070	0.135
-79.597	-120.440	0.272	-0.045
-78.582	-26.649	0.139	-0.080
-77.567	800.000	0.060	0.220
-76.553	-4.267	-0.404	-0.274
-75.538	-35.787	-0.239	0.127
-74.524	-200.000	-0.072	0.351
-73.509	-15.833	-0.093	-0.058
-72.494	289.931	0.045	-0.079
-71.480	-16.550	0.246	-0.153
-70.465	-173.492	0.283	0.008
-69.451	-52.653	0.259	0.117
-68.436	129.693	-0.349	-0.438
-67.422	13.218	0.229	0.174
-66.407	-200.000	-0.030	-0.193
-65.392	-22.200	0.148	-0.088
-64.378	-77.844	0.330	0.112
-63.363	-61.292	-0.418	0.173
-62.349	-103.065	0.343	-0.080
-61.334	119.854	-1.074	-1.305
-60.319	105.608	0.414	0.480
-59.305	368.533	-0.538	-1.066
-58.290	181.070	0.643	0.926
-57.276	486.972	0.472	1.054
-56.261	-200.000	99.163	615.567
-55.246	578.434	1419.711	3403.694
-54.232	188.802	2621.156	3843.967
-53.217	110.472	2275.097	2679.263
-52.203	40.672	1891.379	1670.436
-51.188	34.490	1679.858	1437.163
-50.173	31.806	1636.270	1380.086
-49.159	50.239	1684.841	1559.098
-48.144	51.488	1701.275	1583.562
-47.130	33.963	1660.976	1416.860
-46.115	31.282	1646.596	1384.697
-45.100	31.222	1641.359	1379.790
-44.086	31.141	1638.737	1376.934
-43.071	31.103	1636.227	1374.491
-42.057	31.044	1634.325	1372.406
-41.042	31.090	1632.197	1370.904
-40.027	31.009	1630.382	1368.729
-39.013	30.883	1628.368	1366.059
-37.998	31.009	1626.733	1365.554
-36.984	31.102	1625.108	1364.814
-35.969	31.207	1623.757	1364.393
-34.954	31.268	1621.885	1363.214
-33.940	31.142	1620.405	1361.000
-32.925	31.158	1618.911	1359.805
-31.911	31.205	1616.631	1358.176
-30.896	31.209	1614.505	1356.368
-29.881	31.161	1613.522	1355.135
-28.867	31.096	1611.963	1353.302
-27.852	31.075	1610.844	1352.155
-26.838	31.117	1609.114	1350.956
-25.823	31.160	1607.940	1350.226
-24.809	31.201	1606.329	1349.120
-23.794	31.150	1604.905	1347.501
-22.779	31.171	1603.764	1346.640
-21.765	31.209	1601.512	1344.972
-20.750	31.099	1600.640	1343.392
-19.736	31.212	1598.588	1342.432
-18.721	31.194	1597.157	1341.048
-17.706	31.142	1595.568	1339.285
-16.692	31.210	1593.942	1338.353
-15.677	31.147	1592.919	1336.994
-14.663	31.272	1591.273	1336.451
-13.648	31.148	1590.417	1334.793
-12.633	31.228	1588.228	1333.474
-11.619	31.151	1587.160	1331.976
-10.604	31.262	1585.161	1331.038
-9.590	31.222	1584.214	1329.906
-8.575	31.140	1583.292	1328.492
-7.560	31.206	1581.955	1327.785
-6.546	31.232	1580.629	1326.807
-5.531	31.170	1580.046	1325.822
-4.517	31.129	1578.709	1324.355
-3.502	31.185	1577.800	1323.942
-2.487	31.222	1575.895	1322.554
-1.473	30.818	1564.260	1309.893
-0.458	27.937	1543.983	1272.821
0.556	21.892	1544.828	1240.195
1.571	19.485	1568.418	1241.721
2.586	19.179	1581.863	1250.038
3.600	17.379	1529.583	1195.968
4.615	9.278	1420.982	1057.841
5.629	1.268	1356.556	959.309
6.644	-0.176	1348.153	944.207
7.659	-0.313	1347.026	942.477
8.673	-0.343	1345.120	940.868
9.688	-0.418	1343.297	939.044
10.702	-0.602	1340.327	935.732
11.717	2.507	1346.541	959.487
12.731	11.533	1363.739	1028.729
13.746	18.655	1375.442	1082.552
14.761	20.050	1377.445	1092.839
15.775	20.211	1376.416	1092.939
16.790	20.207	1376.219	1092.662
17.804	20.352	1375.978	1093.289
18.819	20.534	1375.323	1093.817
19.834	20.515	1375.107	1093.427
20.848	20.611	1374.171	1093.191
21.863	20.671	1373.602	1093.019
22.877	20.689	1372.194	1091.913
23.892	20.679	1371.566	1091.253
24.907	20.661	1370.708	1090.364
25.921	20.715	1369.503	1089.648
26.936	20.626	1368.840	1088.461
27.950	20.674	1367.688	1087.752
28.965	20.738	1366.357	1086.996
29.980	20.670	1364.482	1084.987
30.994	20.617	1364.229	1084.360
32.009	20.664	1362.469	1083.154
33.023	20.702	1361.372	1082.426
34.038	20.681	1360.453	1081.468
35.053	20.671	1359.751	1080.750
36.067	20.627	1358.644	1079.503
37.082	20.632	1357.709	1078.694
38.096	20.683	1356.996	1078.347
39.111	20.601	1355.847	1076.830
40.126	20.614	1355.391	1076.454
41.140	20.618	1354.565	1075.729
42.155	20.641	1354.201	1075.488
43.169	20.659	1354.150	1075.463
44.184	20.563	1354.447	1075.007
45.199	20.706	1353.473	1075.024
46.213	20.628	1352.801	1073.914
47.228	20.667	1351.780	1073.246
48.242	20.679	1350.498	1072.209
49.257	20.734	1349.200	1071.425
50.271	20.633	1348.005	1069.759
51.286	20.683	1346.467	1068.753
52.301	20.681	1345.289	1067.706
53.315	20.486	1345.208	1066.355
54.330	20.709	1343.445	1066.230
55.344	20.698	1342.457	1065.283
56.359	20.591	1341.785	1064.000
57.374	20.732	1340.333	1063.619
58.388	20.688	1340.019	1063.007
59.403	20.703	1339.255	1062.397
60.417	20.536	1339.408	1061.403
61.432	20.626	1338.206	1060.908
62.447	20.713	1337.420	1060.719
63.461	20.609	1336.163	1058.994
64.476	20.651	1335.277	1058.457
65.490	20.722	1333.550	1057.424
66.505	20.665	1332.134	1055.862
67.520	20.726	1331.172	1055.378
68.534	20.843	1329.807	1054.910
69.549	20.724	1329.105	1053.538
70.563	20.700	1328.521	1052.835
71.578	20.697	1327.433	1051.862
72.593	20.661	1326.729	1050.996
73.607	20.620	1326.150	1050.194
74.622	20.569	1324.919	1048.819
75.636	20.685	1324.452	1049.055
76.651	20.664	1324.251	1048.680
77.666	20.666	1323.263	1047.812
78.680	20.781	1322.283	1047.638
79.695	20.658	1321.726	1046.362
80.709	20.691	1321.195	1046.048
81.724	20.695	1320.317	1045.284
82.739	20.730	1318.892	1044.278
83.753	20.607	1318.617	1043.230
84.768	20.758	1316.920	1042.695
85.782	20.743	1315.673	1041.531
86.797	20.707	1314.667	1040.425
87.812	20.657	1313.405	1039.035
88.826	20.721	1312.484	1038.594
89.841	20.641	1311.542	1037.280
90.855	20.731	1310.069	1036.560
91.870	20.746	1309.649	1036.227
92.884	20.812	1308.612	1035.710
93.899	20.656	1308.441	1034.550
94.914	20.796	1307.433	1034.497
95.928	20.840	1306.315	1033.782
96.943	20.793	1305.820	1033.020
97.957	20.812	1304.838	1032.262
98.972	20.721	1304.074	1031.028
99.987	20.759	1302.913	1030.243
101.001	20.730	1302.093	1029.331
102.016	20.721	1301.149	1028.442
103.030	20.803	1299.999	1027.926
104.045	20.821	1299.280	1027.373
105.060	20.876	1298.112	1026.681
106.074	20.745	1297.269	1025.154
107.089	20.920	1296.062	1025.140
108.103	20.969	1294.301	1023.941
109.118	20.839	1293.833	1022.719
110.133	20.907	1292.377	1021.876
111.147	20.797	1291.270	1020.265
112.162	20.822	1290.549	1019.752
113.176	20.766	1289.309	1018.357
114.191	20.829	1288.251	1017.796
115.206	20.837	1287.701	1017.319
116.220	20.830	1286.299	1016.079
117.235	20.834	1285.277	1015.206
118.249	20.801	1284.540	1014.343
119.264	20.856	1283.211	1013.525
120.279	20.737	1282.754	1012.379
121.293	20.846	1281.367	1011.832
122.308	20.904	1280.217	1011.168
123.322	20.844	1279.122	1009.869
124.337	20.923	1279.034	1010.166
125.352	20.919	1277.654	1008.964
126.366	20.842	1277.076	1007.973
127.381	20.855	1275.962	1007.080
128.395	20.919	1275.018	1006.613
129.410	20.903	1274.120	1005.726
130.424	20.934	1273.529	1005.346
131.439	20.994	1272.332	1004.658
132.454	20.798	1271.766	1002.994
133.468	20.984	1270.531	1003.001
134.483	21.043	1270.049	1002.874
135.497	20.909	1269.415	1001.513
136.512	20.961	1268.239	1000.793
137.527	20.922	1266.959	999.471
138.541	20.904	1265.295	997.967
139.556	20.882	1264.372	997.025
140.570	20.852	1263.724	996.257
141.585	20.817	1262.320	994.864
142.600	20.926	1261.106	994.441
143.614	20.867	1260.467	993.509
144.629	20.767	1259.749	992.287
145.643	20.848	1258.285	991.503
146.658	20.820	1257.296	990.479
147.673	20.895	1256.130	989.900
148.687	20.770	1255.515	988.620
149.702	20.862	1253.864	987.751
150.716	20.803	1252.780	986.476
151.731	20.766	1251.973	985.544
152.746	20.870	1251.357	985.558
153.760	20.907	1249.902	984.539
154.775	20.798	1248.836	982.993
155.789	20.899	1248.059	982.865
156.804	20.868	1247.321	982.021
157.819	21.006	1245.934	981.619
158.833	20.949	1245.681	981.011
159.848	21.008	1244.606	980.410
160.862	20.979	1243.933	979.631
161.877	21.027	1242.942	979.034
162.892	20.827	1242.684	977.621
163.906	20.955	1241.631	977.423
164.921	21.027	1240.553	976.895
165.935	21.079	1239.810	976.513
166.950	21.001	1239.285	975.579
167.964	20.867	1239.418	974.845
168.979	21.013	1238.298	974.691
169.994	21.105	1237.457	974.461
171.008	21.005	1237.027	973.474
172.023	20.959	1236.304	972.563
173.037	20.955	1236.107	972.304
174.052	21.030	1234.642	971.483
175.067	21.116	1233.854	971.252
176.081	20.913	1233.163	969.495
177.096	20.918	1232.385	968.824
178.110	21.123	1231.045	968.823
179.125	21.041	1230.251	967.658
180.140	21.013	1229.779	967.045
181.154	21.026	1228.505	966.031
182.169	21.032	1227.010	964.805
183.183	21.055	1226.146	964.163
184.198	20.929	1225.760	963.082
185.213	21.041	1224.191	962.383
186.227	21.068	1223.037	961.535
187.242	20.985	1222.431	960.517
188.256	21.240	1221.245	960.904
189.271	21.105	1220.800	959.727
190.286	21.075	1220.224	959.027
191.300	20.998	1219.894	958.256
192.315	21.064	1219.428	958.169
193.329	21.080	1218.931	957.781
194.344	21.067	1218.189	957.042
195.359	21.094	1217.634	956.669
196.373	21.155	1217.063	956.471
197.388	21.010	1217.049	955.581
198.402	21.125	1216.083	955.366
199.417	21.048	1215.895	954.712
200.432	21.041	1215.139	953.997
201.446	21.118	1214.611	953.921
202.461	20.989	1214.249	952.843
203.475	21.148	1212.799	952.488
204.490	21.141	1211.788	951.573
205.504	21.119	1211.098	950.827
206.519	21.140	1209.948	949.953
207.534	21.138	1208.790	948.952
208.548	21.069	1208.160	947.998
209.563	21.043	1207.819	947.502
210.577	21.114	1206.963	947.135
211.592	21.267	1205.469	946.705
212.607	21.288	1205.010	946.378
213.621	21.283	1204.225	945.649
214.636	21.229	1203.653	944.827
215.650	21.262	1202.703	944.175
216.665	21.238	1201.516	943.030
217.680	21.192	1200.681	942.041
218.694	21.256	1199.909	941.696
219.709	21.243	1199.586	941.294
220.723	21.195	1198.907	940.417
221.738	21.156	1198.053	939.454
222.753	21.208	1197.398	939.138
223.767	21.184	1196.810	938.465
224.782	21.327	1196.053	938.555
225.796	21.454	1195.503	938.721
226.811	21.306	1195.122	937.546
227.826	21.269	1194.799	937.011
228.840	21.270	1194.007	936.312
229.855	21.310	1193.163	935.782
230.869	21.321	1192.434	935.185
231.884	21.391	1191.391	934.660
232.899	21.157	1191.332	933.281
233.913	21.309	1190.705	933.519
234.928	21.379	1189.971	933.235
235.942	21.392	1189.174	932.594
236.957	21.400	1188.669	932.160
237.972	21.331	1188.235	931.370
238.986	21.322	1187.551	930.704
240.001	21.496	1186.729	930.904
241.015	21.466	1186.093	930.163
242.030	21.483	1184.964	929.284
243.045	21.537	1184.076	928.789
244.059	21.445	1183.691	927.917
245.074	21.500	1182.742	927.385
246.088	21.495	1182.269	926.903
247.103	21.465	1181.382	925.970
248.117	21.501	1180.310	925.236
249.132	21.484	1179.959	924.788
250.147	21.588	1179.476	924.879
251.161	21.529	1178.563	923.769
252.176	21.491	1177.635	922.760
253.190	21.572	1177.074	922.668
254.205	21.543	1176.365	921.875
255.220	21.579	1175.949	921.657
256.234	21.542	1175.577	921.088
257.249	21.662	1174.829	921.055
258.263	21.578	1174.101	919.962
259.278	21.562	1173.557	919.368
260.293	21.683	1172.709	919.258
261.307	21.711	1172.416	919.095
262.322	21.630	1172.326	918.518
263.336	21.526	1171.703	917.403
264.351	21.607	1170.657	916.927
265.366	21.594	1169.849	916.146
266.380	21.674	1169.360	916.098
267.395	21.598	1168.582	915.010
268.409	21.574	1167.986	914.337
269.424	21.626	1167.491	914.140
270.439	21.554	1167.428	913.638
271.453	21.722	1166.047	913.349
272.468	21.629	1165.477	912.337
273.482	21.671	1164.921	912.039
274.497	21.770	1164.857	912.427
275.512	21.697	1164.176	911.428
276.526	21.683	1163.237	910.540
277.541	21.706	1162.275	909.826
278.555	21.714	1162.049	909.613
279.570	21.733	1161.122	908.904
280.585	21.621	1160.368	907.652
281.599	21.776	1159.466	907.668
282.614	21.732	1158.348	906.486
283.628	21.821	1157.677	906.342
284.643	21.775	1156.919	905.433
285.657	21.847	1156.049	905.042
286.672	21.840	1155.165	904.234
287.687	21.801	1154.607	903.513
288.701	21.964	1153.473	903.389
289.716	21.794	1153.183	902.207
290.730	21.699	1152.665	901.234
291.745	21.925	1151.822	901.656
292.760	21.948	1151.204	901.207
293.774	21.893	1150.685	900.438
294.789	21.816	1150.314	899.675
295.803	21.914	1149.748	899.657
296.818	21.959	1148.748	899.025
297.833	21.966	1148.304	898.633
298.847	21.917	1147.723	897.845
299.862	21.970	1146.375	896.983
300.876	22.045	1145.963	896.963
301.891	22.055	1145.510	896.584
302.906	22.086	1144.811	896.117
303.920	22.046	1144.272	895.407
304.935	22.074	1143.446	894.826
305.949	21.953	1143.163	893.910
306.964	22.131	1142.263	894.031
307.979	21.947	1141.740	892.607
308.993	22.068	1141.032	892.589
310.008	22.034	1140.219	891.705
311.022	22.099	1139.392	891.306
312.037	22.105	1138.986	890.940
313.052	22.024	1137.846	889.559
314.066	22.060	1137.126	889.101
315.081	22.073	1136.599	888.677
316.095	22.045	1136.156	888.112
317.110	22.107	1135.368	887.728
318.125	22.056	1134.720	886.887
319.139	22.220	1133.919	887.006
320.154	22.128	1133.446	886.096
321.168	22.255	1132.645	886.032
322.183	22.228	1132.135	885.420
323.197	22.022	1131.821	884.056
324.212	22.192	1131.382	884.493
325.227	22.286	1130.605	884.280
326.241	22.262	1129.817	883.462
327.256	22.142	1129.198	882.297
328.270	22.249	1128.437	882.161
329.285	22.200	1127.742	881.295
330.300	22.234	1126.960	880.777
331.314	22.259	1126.279	880.293
332.329	22.233	1125.262	879.291
333.343	22.312	1124.434	878.957
334.358	22.178	1123.916	877.807
335.373	22.322	1123.072	877.789
336.387	22.346	1122.016	877.005
337.402	22.288	1121.627	876.332
338.416	22.326	1121.321	876.206
339.431	22.287	1120.406	875.223
340.446	22.323	1120.010	875.011
341.460	22.408	1119.415	874.891
342.475	22.376	1118.249	873.743
343.489	22.344	1117.617	873.015
344.504	22.459	1116.691	872.784
345.519	22.423	1115.935	871.938
346.533	22.466	1115.326	871.600
347.548	22.395	1114.622	870.618
348.562	22.452	1113.875	870.242
349.577	22.449	1112.725	869.253
350.592	22.400	1112.313	868.612
351.606	22.450	1111.813	868.388
352.621	22.370	1111.443	867.629
353.635	22.614	1110.261	867.834
354.650	22.555	1109.668	867.001
355.665	22.434	1109.445	866.156
356.679	22.414	1108.736	865.427
357.694	22.540	1108.072	865.451
358.708	22.525	1107.495	864.849
359.723	22.487	1106.949	864.159
360.738	22.552	1105.911	863.592
361.752	22.489	1105.550	862.926
362.767	22.565	1105.137	862.899
363.781	22.619	1104.446	862.549
364.796	22.676	1103.759	862.213
365.810	22.676	1102.807	861.394
366.825	22.724	1102.760	861.515
367.840	22.597	1102.641	860.723
368.854	22.742	1101.495	860.459
369.869	22.810	1100.642	860.050
370.883	22.726	1099.954	859.025
371.898	22.651	1099.531	858.256
372.913	22.606	1099.108	857.632
373.927	22.751	1098.509	857.791
374.942	22.707	1098.059	857.150
375.956	22.736	1097.343	856.656
376.971	22.736	1097.018	856.326
377.986	22.669	1096.521	855.541
379.000	22.744	1095.867	855.319
380.015	22.712	1095.473	854.779
381.029	22.761	1094.493	854.173
382.044	22.722	1093.806	853.376
383.059	22.753	1093.489	853.204
384.073	22.846	1092.340	852.679
385.088	23.091	1091.672	853.264
386.102	22.807	1090.715	851.070
387.117	22.838	1090.143	850.700
388.132	22.918	1088.861	850.008
389.146	22.915	1088.513	849.646
390.161	22.914	1088.018	849.180
391.175	22.958	1087.509	848.922
392.190	22.907	1086.695	847.966
393.205	22.836	1086.083	847.071
394.219	22.965	1084.779	846.599
395.234	22.960	1084.214	846.056
396.248	22.868	1083.489	844.978
397.263	23.037	1082.467	844.911
398.278	22.959	1082.296	844.333
399.292	23.153	1081.157	844.295
400.307	23.133	1080.632	843.717
401.321	22.951	1080.326	842.533
402.336	23.019	1079.409	842.070
403.350	23.039	1078.779	841.596
404.365	22.983	1078.351	840.921
405.380	23.026	1077.357	840.275
406.394	23.031	1076.812	839.799
407.409	23.150	1076.110	839.744
408.423	23.147	1075.458	839.149
409.438	23.092	1074.480	838.049
410.453	23.173	1073.920	837.922
411.467	23.125	1073.167	837.035
412.482	23.164	1072.513	836.633
413.496	23.133	1071.855	835.901
414.511	23.247	1070.939	835.650
415.526	23.152	1071.105	835.258
416.540	23.254	1070.309	835.042
417.555	23.165	1070.151	834.427
418.569	23.264	1069.498	834.308
419.584	23.210	1069.282	833.811
420.599	23.352	1068.128	833.506
421.613	148.980	1399.486	1796.894
422.628	137.191	1447.764	1796.994
