DTS Sentinel unit serial number:	SN413079Multiplexer serial number:	ORYXHardware model number:	OX4-SRSoftware version number:	ORYX F/W v4.00 Oryx Data Collector v3.7.2.0data status	okinstallation	princeton_trtdifferential loss correction	single-endedforward channel	channel 2reverse channel	N/Adate	2019/09/17time	20:11:35forward acquisition time	60.00reverse acquisition time	0.00gamma	496.2192k internal	0.2334k external	0.2334temperature offset calibration	0.9985default loss term (dB/km)	0.3790temperature slope calibration	1.0000multiplexer offset coefficient	1.0000multiplexer slope coefficient	1.0000fibre end	0.00T internal ref (°C)	32.20T ext. ref 1 (°C)	0.22T ext. ref 2 (°C)	22.35length (m)	temperature (°C)	Stokes	anti-Stokes-747.200	33.238	-0.184	-0.160
-746.185	11.744	0.118	0.091
-745.171	11.231	-0.384	0.295
-744.156	5.492	0.136	-0.101
-743.142	-75.936	0.197	-0.070
-742.127	-120.643	-0.122	0.021
-741.112	97.619	-0.216	0.249
-740.098	-200.000	0.031	0.221
-739.083	-90.612	0.250	-0.073
-738.069	209.381	-0.227	0.357
-737.054	312.820	0.193	-0.364
-736.039	56.863	-0.174	-0.171
-735.025	-200.000	-0.011	0.236
-734.010	93.115	0.158	-0.179
-732.996	-200.000	-0.065	-0.434
-731.981	-94.141	-0.276	-0.076
-730.966	-65.831	0.147	0.059
-729.952	595.888	-0.114	-0.283
-728.937	35.756	-0.128	0.113
-727.923	-200.000	0.032	0.210
-726.908	6.500	-0.215	0.160
-725.894	-200.000	0.021	0.242
-724.879	-122.681	0.066	0.011
-723.864	-125.103	0.160	-0.025
-722.850	-80.087	0.027	0.009
-721.835	-167.578	-0.236	-0.009
-720.821	-200.000	-0.090	-0.000
-719.806	-65.126	-0.314	-0.127
-718.791	-200.000	0.011	0.216
-717.777	133.252	-0.191	0.247
-716.762	110.040	0.120	-0.144
-715.748	-94.729	0.194	-0.053
-714.733	185.841	-0.082	0.122
-713.718	-29.307	0.043	0.025
-712.704	39.773	0.086	0.078
-711.689	172.857	-0.242	-0.349
-710.675	-17.396	0.075	0.048
-709.660	-110.835	-0.129	0.027
-708.645	147.929	0.240	-0.325
-707.631	-200.000	0.020	0.183
-706.616	-37.143	0.094	-0.050
-705.602	-87.880	-0.198	0.060
-704.587	-178.175	0.183	0.004
-703.572	57.076	-0.144	-0.141
-702.558	-200.000	-0.011	-0.188
-701.543	-136.513	-0.188	0.022
-700.529	695.212	0.103	0.272
-699.514	408.914	-0.032	-0.068
-698.499	436.927	-0.150	0.328
-697.485	-125.184	0.311	0.048
-696.470	-82.331	-0.161	-0.053
-695.456	-100.938	0.420	0.104
-694.441	43.253	-0.082	0.075
-693.426	-107.122	0.149	0.033
-692.412	-136.834	-0.293	0.034
-691.397	-108.385	-0.070	0.015
-690.383	-96.457	-0.089	-0.024
-689.368	-54.333	0.165	0.075
-688.354	-200.000	-0.033	-0.203
-687.339	8.729	-0.214	-0.162
-686.324	52.398	0.154	0.147
-685.310	-100.946	-0.051	-0.013
-684.295	-200.000	0.024	-0.443
-683.281	320.864	-0.130	0.248
-682.266	-79.688	0.277	-0.094
-681.251	93.264	-0.174	0.197
-680.237	-42.890	-0.187	0.095
-679.222	-22.795	-0.195	-0.118
-678.208	-13.105	0.131	-0.086
-677.193	-200.000	0.013	0.249
-676.178	24.116	-0.086	-0.072
-675.164	301.125	-0.140	-0.259
-674.149	408.980	-0.137	-0.290
-673.135	184.829	-0.133	0.198
-672.120	-46.492	-0.243	-0.119
-671.105	790.065	-0.091	0.251
-670.091	-64.339	-0.175	-0.072
-669.076	283.022	0.212	-0.381
-668.062	576.625	-0.116	-0.284
-667.047	106.620	0.281	-0.334
-666.032	-31.924	0.076	0.043
-665.018	-71.099	-0.156	0.059
-664.003	-137.736	-0.124	0.014
-662.989	126.239	-0.069	0.087
-661.974	565.303	-0.149	0.361
-660.959	336.073	-0.047	0.091
-659.945	-21.391	-0.186	-0.114
-658.930	12.609	-0.159	0.123
-657.916	377.808	0.114	0.234
-656.901	-157.416	0.354	-0.021
-655.886	463.973	0.097	-0.218
-654.872	-45.429	-0.231	0.115
-653.857	-160.482	0.215	-0.012
-652.843	-40.410	-0.148	-0.077
-651.828	800.000	-0.113	-0.400
-650.814	800.000	0.016	0.071
-649.799	781.515	0.050	-0.137
-648.784	19.859	-0.110	-0.089
-647.770	612.602	0.044	-0.109
-646.755	-45.178	-0.237	0.118
-645.741	56.158	-0.172	0.167
-644.726	800.000	-0.043	-0.174
-643.711	-112.352	0.179	-0.036
-642.697	185.069	-0.088	-0.130
-641.682	19.599	0.176	-0.142
-640.668	580.879	-0.024	-0.060
-639.653	4.216	-0.060	-0.044
-638.638	-115.652	-0.143	0.027
-637.624	-95.997	-0.070	-0.019
-636.609	800.000	-0.125	0.422
-635.595	606.821	0.165	-0.411
-634.580	-35.674	-0.227	0.123
-633.565	-34.776	0.177	0.097
-632.551	-48.777	-0.016	-0.008
-631.536	-99.236	-0.212	-0.054
-630.522	-82.253	-0.273	0.089
-629.507	-152.544	0.094	0.007
-628.492	135.952	0.106	0.138
-627.478	800.000	0.103	0.343
-626.463	800.000	-0.134	-0.379
-625.449	-60.586	0.320	0.136
-624.434	152.477	0.028	-0.039
-623.419	-84.500	-0.243	-0.077
-622.405	206.399	0.035	0.055
-621.390	26.616	0.334	-0.280
-620.376	-139.170	0.079	-0.009
-619.361	2.047	-0.244	0.176
-618.346	84.269	-0.091	0.099
-617.332	-162.242	-0.325	0.016
-616.317	-96.802	-0.467	-0.123
-615.303	52.552	0.325	0.310
-614.288	-111.639	-0.158	0.032
-613.273	800.000	-0.016	0.052
-612.259	-200.000	-0.031	0.175
-611.244	-12.828	-0.180	0.117
-610.230	52.354	0.190	0.182
-609.215	-111.363	-0.267	0.055
-608.201	-200.000	-0.051	-0.247
-607.186	-12.415	-0.242	0.158
-606.171	-200.000	-0.032	-0.175
-605.157	12.434	-0.071	0.055
-604.142	95.238	0.084	-0.095
-603.128	-62.463	-0.252	-0.105
-602.113	-114.750	-0.156	-0.030
-601.098	-84.452	-0.036	-0.011
-600.084	220.709	0.019	0.030
-599.069	123.882	-0.059	-0.074
-598.055	13.495	-0.245	0.190
-597.040	-130.879	0.218	0.029
-596.025	21.428	-0.226	-0.183
-595.011	55.031	-0.099	0.096
-593.996	82.749	-0.311	0.338
-592.982	-58.485	0.175	-0.076
-591.967	218.866	-0.103	0.164
-590.952	716.002	-0.081	0.215
-589.938	-200.000	-0.000	0.125
-588.923	-16.824	-0.342	-0.216
-587.909	-200.000	0.017	0.212
-586.894	542.213	0.063	0.151
-585.879	346.715	0.089	0.174
-584.865	800.000	-0.013	0.041
-583.850	-27.845	0.096	0.056
-582.836	-121.775	0.217	-0.036
-581.821	63.259	0.014	-0.014
-580.806	-175.787	0.240	0.006
-579.792	-200.000	-0.013	0.074
-578.777	79.460	-0.093	-0.099
-577.763	-59.262	-0.189	-0.081
-576.748	70.372	-0.212	-0.218
-575.733	-200.000	-0.011	-0.130
-574.719	-162.521	0.208	0.010
-573.704	-200.000	-0.004	-0.079
-572.690	-65.065	-0.162	0.065
-571.675	-200.000	0.020	-0.166
-570.661	-118.223	-0.120	0.021
-569.646	-200.000	-0.023	-0.188
-568.631	9.652	0.135	0.102
-567.617	800.000	0.103	-0.388
-566.602	198.394	-0.123	0.187
-565.588	30.902	0.201	0.172
-564.573	244.629	-0.131	0.220
-563.558	-200.000	-0.006	-0.159
-562.544	-200.000	0.008	0.050
-561.529	177.471	-0.153	-0.223
-560.515	-16.925	0.082	0.052
-559.500	-111.322	-0.172	0.035
-558.485	800.000	0.126	-0.351
-557.471	-97.344	0.201	-0.052
-556.456	-200.000	0.077	-0.370
-555.442	800.000	0.031	-0.088
-554.427	-110.590	-0.208	0.043
-553.412	392.664	-0.047	0.097
-552.398	610.833	-0.082	0.205
-551.383	266.281	-0.075	0.130
-550.369	128.994	0.145	-0.185
-549.354	-200.000	-0.043	0.329
-548.339	-200.000	0.030	0.380
-547.325	78.275	0.142	-0.152
-546.310	800.000	-0.126	-0.397
-545.296	274.783	0.112	0.197
-544.281	800.000	0.068	0.212
-543.266	146.547	0.090	0.121
-542.252	800.000	-0.045	-0.188
-541.237	800.000	0.040	0.121
-540.223	-71.853	0.109	-0.041
-539.208	63.640	0.258	0.258
-538.193	58.988	-0.300	0.294
-537.179	2.151	-0.219	0.158
-536.164	-128.704	0.184	0.026
-535.150	58.711	-0.387	-0.379
-534.135	75.107	-0.122	-0.128
-533.121	152.951	-0.047	0.064
-532.106	-190.807	0.251	-0.003
-531.091	800.000	0.093	-0.392
-530.077	319.383	0.037	-0.070
-529.062	-49.695	0.139	0.066
-528.048	800.000	0.034	-0.125
-527.033	120.125	0.065	0.081
-526.018	389.220	0.087	0.180
-525.004	-73.701	0.484	0.176
-523.989	-119.126	-0.075	-0.013
-522.975	53.523	0.134	-0.128
-521.960	223.730	0.100	-0.161
-520.945	-200.000	0.037	0.164
-519.931	-149.362	0.127	-0.010
-518.916	-200.000	0.007	-0.051
-517.902	14.013	-0.061	0.047
-516.887	-200.000	-0.041	0.317
-515.872	2.044	0.068	0.049
-514.858	-63.377	0.139	0.057
-513.843	-93.559	-0.279	-0.077
-512.829	89.790	-0.106	-0.118
-511.814	-200.000	0.027	-0.210
-510.799	-200.000	-0.019	0.150
-509.785	400.359	0.084	-0.176
-508.770	192.952	-0.143	0.215
-507.756	-79.090	-0.370	0.125
-506.741	-37.350	0.352	0.187
-505.726	286.005	-0.048	0.087
-504.712	472.305	-0.130	-0.292
-503.697	-200.000	0.012	0.122
-502.683	494.726	0.142	-0.325
-501.668	-40.473	0.205	-0.106
-500.653	298.145	-0.110	0.201
-499.639	-200.000	-0.010	0.109
-498.624	141.653	0.139	-0.183
-497.610	-200.000	-0.024	0.189
-496.595	-6.969	0.230	-0.155
-495.581	-87.772	-0.274	0.082
-494.566	-136.170	-0.015	-0.002
-493.551	800.000	-0.029	0.099
-492.537	-200.000	-0.039	0.490
-491.522	-104.274	-0.154	-0.035
-490.508	63.616	0.147	-0.147
-489.493	-106.186	0.196	0.044
-488.478	-200.000	0.056	0.250
-487.464	-110.348	0.282	-0.058
-486.449	-126.002	0.244	0.036
-485.435	-16.759	-0.352	-0.222
-484.420	108.539	0.223	-0.265
-483.405	-78.678	-0.276	-0.094
-482.391	-154.597	-0.185	-0.012
-481.376	800.000	0.067	-0.265
-480.362	-200.000	0.021	-0.178
-479.347	349.919	-0.140	0.275
-478.332	-200.000	0.024	-0.218
-477.318	-71.643	0.277	0.103
-476.303	49.993	-0.101	-0.095
-475.289	455.622	0.080	-0.177
-474.274	-200.000	-0.019	0.208
-473.259	-200.000	0.000	0.016
-472.245	716.233	-0.042	0.112
-471.230	-83.063	0.307	0.098
-470.216	800.000	-0.008	0.033
-469.201	-35.355	-0.092	-0.050
-468.186	137.101	0.179	0.233
-467.172	-200.000	-0.008	0.149
-466.157	-124.636	-0.125	-0.019
-465.143	180.549	-0.207	0.302
-464.128	172.055	-0.158	-0.226
-463.113	-71.958	0.267	-0.099
-462.099	-200.000	-0.082	-0.404
-461.084	-200.000	-0.035	-0.192
-460.070	281.211	-0.053	-0.094
-459.055	-50.026	0.168	0.079
-458.040	800.000	-0.030	0.087
-457.026	-200.000	0.019	0.215
-456.011	-129.110	0.225	0.031
-454.997	46.687	-0.135	0.125
-453.982	62.248	-0.159	-0.158
-452.968	25.727	-0.107	0.089
-451.953	98.102	0.165	-0.189
-450.938	-200.000	-0.022	-0.205
-449.924	185.424	0.031	-0.046
-448.909	-78.477	0.227	0.077
-447.895	-52.298	-0.487	0.224
-446.880	409.233	-0.121	0.255
-445.865	-160.817	0.502	-0.026
-444.851	138.911	-0.124	0.162
-443.836	-30.850	-0.154	0.086
-442.822	-200.000	-0.043	0.218
-441.807	275.841	0.044	-0.078
-440.792	800.000	-0.046	-0.138
-439.778	227.610	0.119	-0.192
-438.763	800.000	-0.022	0.075
-437.749	-134.859	-0.181	-0.022
-436.734	-117.005	0.369	0.067
-435.719	-110.851	-0.252	0.052
-434.705	-93.920	0.098	-0.027
-433.690	-200.000	0.001	-0.059
-432.676	20.398	-0.096	-0.077
-431.661	9.202	-0.178	-0.134
-430.646	-84.097	-0.136	-0.043
-429.632	51.822	-0.234	0.222
-428.617	-24.710	0.095	0.056
-427.603	-200.000	0.013	-0.091
-426.588	83.337	-0.226	-0.244
-425.573	-200.000	0.020	-0.212
-424.559	-38.363	-0.077	-0.040
-423.544	800.000	0.069	-0.216
-422.530	102.177	-0.145	0.168
-421.515	487.215	-0.103	-0.234
-420.500	-200.000	0.020	0.154
-419.486	22.634	0.219	0.178
-418.471	219.475	-0.157	-0.249
-417.457	-200.000	0.043	0.413
-416.442	429.064	-0.115	0.248
-415.428	258.752	0.038	0.065
-414.413	-96.336	0.211	0.055
-413.398	-41.162	-0.215	-0.110
-412.384	800.000	-0.043	-0.174
-411.369	672.387	-0.111	-0.286
-410.355	-35.313	0.313	-0.169
-409.340	800.000	0.001	-0.004
-408.325	-77.698	0.049	-0.017
-407.311	-167.130	-0.337	0.014
-406.296	7.213	0.368	-0.273
-405.282	432.170	0.162	0.349
-404.267	800.000	-0.118	-0.325
-403.252	-15.189	-0.095	-0.060
-402.238	-200.000	0.026	-0.465
-401.223	244.945	0.083	-0.138
-400.209	-110.330	-0.064	0.013
-399.194	109.262	-0.039	-0.046
-398.179	-200.000	0.050	0.245
-397.165	-13.186	0.129	0.083
-396.150	558.174	0.164	-0.391
-395.136	-130.223	-0.111	-0.015
-394.121	207.763	-0.107	0.166
-393.106	86.263	-0.126	0.137
-392.092	-200.000	0.048	-0.366
-391.077	186.524	-0.244	0.361
-390.063	-166.424	-0.387	0.016
-389.048	267.359	0.096	0.166
-388.033	800.000	0.044	0.164
-387.019	349.073	0.154	-0.301
-386.004	-53.763	-0.277	-0.125
-384.990	800.000	-0.018	-0.062
-383.975	-131.808	-0.327	0.042
-382.960	-69.116	0.298	-0.114
-381.946	601.275	-0.070	0.173
-380.931	-139.039	-0.104	0.011
-379.917	-200.000	0.023	0.221
-378.902	96.039	0.163	0.184
-377.888	16.010	-0.225	-0.176
-376.873	767.069	0.141	0.380
-375.858	82.781	0.345	0.372
-374.844	-75.949	-0.507	-0.178
-373.829	13.946	0.188	-0.145
-372.815	59.548	-0.376	-0.368
-371.800	513.748	0.249	-0.575
-370.785	-200.000	0.007	-0.269
-369.771	-95.124	-0.183	-0.049
-368.756	-85.459	-0.303	-0.093
-367.742	800.000	-0.092	0.281
-366.727	30.436	-0.106	-0.090
-365.712	197.006	0.055	-0.084
-364.698	121.760	-0.104	0.129
-363.683	4.897	-0.073	-0.053
-362.669	-200.000	-0.013	0.195
-361.654	627.520	-0.073	0.182
-360.639	291.140	-0.163	-0.294
-359.625	-35.938	0.035	-0.019
-358.610	-80.344	-0.249	-0.082
-357.596	-200.000	-0.362	-0.002
-356.581	-107.875	-0.303	0.065
-355.566	-97.970	0.288	0.073
-354.552	352.316	0.165	-0.324
-353.537	28.388	0.118	-0.099
-352.523	223.455	-0.137	-0.219
-351.508	91.964	0.257	-0.286
-350.493	-88.083	-0.227	-0.067
-349.479	-93.427	-0.392	-0.107
-348.464	490.597	-0.085	-0.192
-347.450	35.037	0.065	0.056
-346.435	102.283	0.257	0.298
-345.420	528.474	0.100	0.234
-344.406	800.000	0.072	0.222
-343.391	800.000	-0.079	-0.292
-342.377	-28.576	0.233	-0.133
-341.362	-6.093	0.220	0.149
-340.348	87.704	-0.147	0.161
-339.333	79.219	-0.080	-0.085
-338.318	-110.900	-0.012	-0.002
-337.304	800.000	0.058	0.161
-336.289	-183.002	-0.163	0.003
-335.275	-81.854	0.142	0.046
-334.260	-89.712	-0.307	0.089
-333.245	800.000	-0.086	-0.308
-332.231	-141.241	0.154	-0.016
-331.216	438.271	0.100	-0.215
-330.202	-17.604	0.210	-0.130
-329.187	-190.231	0.066	-0.001
-328.172	-200.000	-0.024	0.161
-327.158	-151.218	-0.197	0.015
-326.143	-14.132	0.261	0.166
-325.129	554.478	0.094	0.223
-324.114	-48.093	0.102	0.049
-323.099	-200.000	-0.026	-0.657
-322.085	-35.216	-0.120	-0.065
-321.070	-152.894	0.121	0.008
-320.056	-71.177	0.156	-0.058
-319.041	-42.591	-0.197	0.099
-318.026	-200.000	0.006	0.135
-317.012	800.000	-0.112	0.456
-315.997	-45.228	0.350	0.172
-314.983	431.338	0.054	-0.116
-313.968	800.000	0.109	-0.310
-312.953	50.590	0.011	-0.010
-311.939	53.970	0.353	-0.335
-310.924	-5.200	0.085	-0.058
-309.910	191.283	-0.235	0.350
-308.895	-50.810	0.179	-0.083
-307.880	-56.062	-0.335	-0.147
-306.866	-200.000	-0.007	-0.202
-305.851	-1.254	-0.343	0.239
-304.837	-102.063	0.154	-0.037
-303.822	60.635	0.113	0.111
-302.807	800.000	0.088	-0.338
-301.793	-81.831	0.324	0.105
-300.778	123.270	-0.223	0.277
-299.764	19.197	0.335	0.266
-298.749	-200.000	0.008	-0.065
-297.735	225.098	-0.208	0.333
-296.720	268.908	0.106	0.184
-295.705	71.103	0.269	-0.275
-294.691	-5.942	-0.204	-0.138
-293.676	82.969	-0.124	0.133
-292.662	71.963	0.128	0.131
-291.647	380.982	-0.105	-0.213
-290.632	-200.000	0.054	-0.395
-289.618	-110.629	-0.039	0.008
-288.603	-87.169	-0.346	0.104
-287.589	800.000	0.025	0.076
-286.574	101.765	0.019	0.022
-285.559	-129.090	0.140	0.019
-284.545	-68.445	0.174	-0.067
-283.530	-200.000	-0.033	0.196
-282.516	800.000	-0.028	0.119
-281.501	-200.000	-0.097	0.436
-280.486	-95.352	-0.053	-0.014
-279.472	800.000	0.082	0.258
-278.457	-95.762	0.176	-0.046
-277.443	29.140	-0.130	-0.109
-276.428	800.000	0.031	0.093
-275.413	129.581	0.150	-0.189
-274.399	-142.175	0.438	0.043
-273.384	138.388	0.117	-0.151
-272.370	362.621	-0.074	0.146
-271.355	311.024	0.072	-0.133
-270.340	-200.000	-0.008	-0.068
-269.326	-200.000	-0.014	-0.320
-268.311	-8.007	0.236	-0.157
-267.297	53.419	0.104	0.099
-266.282	800.000	0.084	-0.319
-265.267	492.654	0.159	-0.360
-264.253	155.810	-0.119	-0.162
-263.238	491.575	-0.114	-0.257
-262.224	-148.679	-0.260	0.021
-261.209	206.060	-0.158	0.243
-260.195	-200.000	-0.059	0.308
-259.180	-200.000	0.041	0.230
-258.165	16.725	-0.137	-0.107
-257.151	483.226	0.094	-0.210
-256.136	441.268	-0.011	0.023
-255.122	-200.000	0.067	-0.290
-254.107	-3.500	-0.246	-0.169
-253.092	-10.813	0.304	-0.198
-252.078	-86.159	-0.150	-0.046
-251.063	132.697	-0.128	-0.163
-250.049	-113.811	-0.223	-0.043
-249.034	-30.847	0.270	0.151
-248.019	-200.000	-0.028	0.156
-247.005	42.270	-0.192	-0.172
-245.990	421.283	-0.086	0.181
-244.976	-4.868	-0.200	0.136
-243.961	800.000	-0.045	0.192
-242.946	59.142	-0.124	0.121
-241.932	157.632	-0.063	0.087
-240.917	2.643	0.361	0.258
-239.903	800.000	0.067	0.204
-238.888	6.100	-0.151	-0.111
-237.873	189.742	-0.174	0.258
-236.859	162.428	-0.091	0.126
-235.844	-200.000	0.019	0.211
-234.830	-8.318	-0.148	-0.098
-233.815	230.183	-0.104	0.167
-232.800	-200.000	-0.018	0.210
-231.786	326.891	0.052	-0.099
-230.771	59.382	-0.060	-0.058
-229.757	308.026	-0.031	0.056
-228.742	-200.000	0.030	0.150
-227.727	-44.594	-0.178	-0.088
-226.713	-71.960	0.446	-0.163
-225.698	-121.445	0.376	0.062
-224.684	-200.000	-0.047	-0.375
-223.669	8.281	0.154	0.114
-222.655	-176.326	-0.131	-0.003
-221.640	800.000	0.053	0.213
-220.625	153.483	-0.147	-0.198
-219.611	423.276	0.040	-0.085
-218.596	-200.000	-0.025	0.228
-217.582	20.363	-0.121	-0.096
-216.567	179.642	0.268	0.386
-215.552	-130.719	-0.333	-0.044
-214.538	-43.938	0.094	-0.047
-213.523	111.233	-0.131	-0.156
-212.509	-182.685	0.103	0.002
-211.494	800.000	0.006	0.021
-210.479	-29.566	0.181	-0.102
-209.465	171.916	0.139	0.197
-208.450	-200.000	0.060	0.305
-207.436	-12.317	-0.143	-0.092
-206.421	-155.627	0.391	0.025
-205.406	-60.309	-0.154	0.064
-204.392	-145.214	0.341	0.030
-203.377	366.614	-0.038	-0.076
-202.363	-200.000	0.060	0.268
-201.348	-131.681	0.278	-0.036
-200.333	262.666	-0.016	-0.027
-199.319	499.123	-0.142	0.323
-198.304	709.640	-0.132	-0.343
-197.290	241.220	-0.133	0.218
-196.275	-119.308	0.134	0.023
-195.260	30.512	0.031	-0.026
-194.246	383.358	0.132	0.267
-193.231	-9.277	-0.038	0.025
-192.217	-200.000	-0.010	-0.087
-191.202	201.715	0.074	-0.112
-190.187	-200.000	0.016	-0.428
-189.173	182.137	0.122	0.177
-188.158	-77.593	0.092	0.031
-187.144	-9.357	-0.186	-0.122
-186.129	-24.779	0.102	0.059
-185.114	-19.762	0.195	-0.119
-184.100	800.000	-0.066	-0.235
-183.085	-94.703	0.138	-0.037
-182.071	-200.000	0.004	-0.194
-181.056	-200.000	0.032	0.258
-180.042	-79.109	0.147	0.049
-179.027	-56.798	0.358	-0.156
-178.012	-15.928	0.057	-0.036
-176.998	-168.224	-0.040	0.002
-175.983	-71.506	0.099	0.036
-174.969	232.239	0.100	0.162
-173.954	800.000	0.052	0.175
-172.939	-200.000	0.001	0.033
-171.925	-56.879	-0.217	0.094
-170.910	-70.905	0.218	-0.081
-169.896	-200.000	0.077	0.462
-168.881	-97.680	0.161	0.041
-167.866	491.301	0.169	-0.379
-166.852	362.581	-0.042	-0.084
-165.837	100.289	0.335	0.382
-164.823	36.235	0.148	-0.128
-163.808	39.807	-0.122	0.108
-162.793	219.933	0.142	0.223
-161.779	34.123	-0.116	-0.099
-160.764	703.288	0.108	0.279
-159.750	31.532	0.111	0.094
-158.735	-200.000	0.006	-0.205
-157.720	800.000	-0.049	-0.211
-156.706	-5.393	0.328	-0.221
-155.691	-200.000	-0.007	-0.217
-154.677	-195.097	-0.176	-0.001
-153.662	800.000	0.083	-0.264
-152.647	146.829	0.092	0.121
-151.633	792.351	0.141	0.380
-150.618	-200.000	-0.048	0.315
-149.604	-200.000	-0.052	-0.537
-148.589	240.971	-0.077	-0.126
-147.574	-124.676	0.182	-0.028
-146.560	-172.283	0.080	-0.002
-145.545	-200.000	0.007	0.425
-144.531	-121.915	-0.181	-0.029
-143.516	-200.000	0.023	0.364
-142.502	-200.000	-0.032	-0.184
-141.487	-169.275	0.043	-0.002
-140.472	800.000	0.110	0.369
-139.458	800.000	0.102	0.276
-138.443	48.449	-0.078	-0.072
-137.429	56.279	-0.109	-0.103
-136.414	-152.596	0.214	0.015
-135.399	64.808	-0.154	-0.153
-134.385	121.135	-0.145	0.177
-133.370	103.599	0.265	0.305
-132.356	403.349	0.095	-0.196
-131.341	-171.349	-0.129	-0.004
-130.326	519.113	-0.103	-0.236
-129.312	113.759	-0.117	0.139
-128.297	-50.998	-0.297	-0.137
-127.283	-200.000	0.009	0.140
-126.268	21.123	0.302	0.240
-125.253	326.877	0.051	0.097
-124.239	-24.899	0.140	0.082
-123.224	201.687	-0.107	-0.161
-122.210	-200.000	0.039	-0.419
-121.195	11.626	0.107	0.080
-120.180	-179.044	-0.127	-0.003
-119.166	-130.429	-0.421	-0.056
-118.151	-200.000	-0.008	0.172
-117.137	-35.421	0.118	0.063
-116.122	73.633	-0.048	0.049
-115.107	-114.685	-0.334	0.063
-114.093	222.211	0.112	-0.177
-113.078	53.052	-0.128	0.121
-112.064	584.205	0.013	0.031
-111.049	8.521	-0.197	-0.145
-110.034	-35.637	-0.045	-0.024
-109.020	-132.155	0.256	0.033
-108.005	182.651	-0.050	-0.072
-106.991	61.490	0.119	0.117
-105.976	501.194	0.140	-0.318
-104.962	800.000	-0.152	-0.413
-103.947	-9.767	0.088	0.058
-102.932	-56.096	-0.237	-0.103
-101.918	-165.569	0.349	0.015
-100.903	-200.000	-0.013	0.074
-99.889	-200.000	-0.049	-0.282
-98.874	353.655	-0.086	0.168
-97.859	304.983	0.130	-0.237
-96.845	239.350	-0.107	-0.174
-95.830	192.935	-0.152	0.225
-94.816	-49.901	0.149	-0.069
-93.801	-200.000	0.008	0.058
-92.786	172.889	-0.193	0.273
-91.772	800.000	-0.059	-0.222
-90.757	-26.676	0.150	-0.086
-89.743	-104.463	-0.224	0.051
-88.728	-143.976	-0.178	-0.016
-87.713	800.000	-0.067	0.197
-86.699	-4.563	0.209	-0.142
-85.684	120.268	0.170	0.207
-84.670	100.017	0.175	-0.198
-83.655	552.811	-0.072	0.170
-82.640	16.707	0.471	-0.365
-81.626	311.546	0.188	0.346
-80.611	-200.000	-0.023	0.271
-79.597	263.489	-0.021	-0.035
-78.582	-200.000	0.046	0.279
-77.567	34.148	0.140	0.120
-76.553	192.307	-0.068	0.101
-75.538	183.754	0.101	-0.146
-74.524	92.786	0.154	-0.170
-73.509	252.966	0.120	0.200
-72.494	-171.325	-0.129	-0.004
-71.480	-56.289	-0.179	-0.078
-70.465	10.082	0.145	0.108
-69.451	177.398	0.127	0.181
-68.436	-114.470	-0.068	0.013
-67.422	-22.279	0.120	-0.071
-66.407	344.853	0.184	-0.353
-65.392	-150.756	0.192	0.014
-64.378	-27.604	0.410	0.233
-63.363	87.869	-0.180	-0.195
-62.349	186.649	0.095	0.139
-61.334	34.740	-1.081	-0.925
-60.319	285.039	0.072	0.126
-59.305	782.572	-0.363	-0.973
-58.290	504.226	0.553	1.252
-57.276	312.774	0.760	1.396
-56.261	-200.000	99.995	569.550
-55.246	490.617	1427.110	3194.697
-54.232	155.332	2608.550	3512.085
-53.217	104.653	2273.279	2620.204
-52.203	41.463	1896.671	1679.144
-51.188	35.480	1689.697	1450.807
-50.173	32.842	1646.512	1394.211
-49.159	50.414	1697.252	1569.426
-48.144	52.099	1712.506	1596.095
-47.130	34.996	1672.624	1432.297
-46.115	32.364	1658.401	1400.500
-45.100	32.161	1654.418	1395.572
-44.086	32.048	1651.530	1392.243
-43.071	32.193	1648.413	1390.630
-42.057	32.066	1646.409	1387.946
-41.042	32.117	1644.377	1386.552
-40.027	32.161	1642.240	1385.021
-39.013	31.996	1640.741	1382.485
-37.998	32.071	1639.088	1381.588
-36.984	32.172	1637.554	1380.989
-35.969	32.186	1635.959	1379.687
-34.954	32.266	1634.094	1378.646
-33.940	32.141	1632.647	1376.458
-32.925	32.206	1630.692	1375.231
-31.911	32.150	1629.514	1373.773
-30.896	32.175	1627.994	1372.616
-29.881	32.113	1626.120	1370.531
-28.867	32.241	1624.039	1369.653
-27.852	32.167	1622.930	1368.125
-26.838	32.164	1621.247	1366.632
-25.823	32.183	1619.905	1365.582
-24.809	32.249	1618.572	1364.883
-23.794	32.239	1616.937	1363.380
-22.779	32.189	1615.983	1362.161
-21.765	32.161	1614.230	1360.427
-20.750	32.215	1612.453	1359.266
-19.736	32.128	1611.628	1357.889
-18.721	32.246	1609.984	1357.298
-17.706	32.211	1608.791	1355.984
-16.692	32.186	1607.224	1354.433
-15.677	32.262	1605.598	1353.558
-14.663	32.302	1604.214	1352.625
-13.648	32.326	1602.508	1351.301
-12.633	32.215	1601.739	1349.804
-11.619	32.302	1599.601	1348.574
-10.604	32.190	1598.123	1346.471
-9.590	32.280	1597.176	1346.267
-8.575	32.372	1595.421	1345.390
-7.560	32.236	1594.403	1343.507
-6.546	32.317	1593.146	1342.969
-5.531	32.295	1592.489	1342.208
-4.517	32.264	1591.085	1340.748
-3.502	32.279	1590.003	1339.888
-2.487	32.335	1587.683	1338.281
-1.473	31.525	1575.453	1322.199
-0.458	27.287	1552.767	1273.509
0.556	20.414	1550.129	1226.820
1.571	17.091	1571.643	1219.903
2.586	16.295	1583.552	1223.272
3.600	14.697	1532.197	1172.280
4.615	8.320	1426.373	1049.423
5.629	1.780	1362.933	961.479
6.644	0.362	1355.021	946.911
7.659	0.222	1353.701	945.028
8.673	0.229	1352.519	944.166
9.688	0.087	1351.222	942.284
10.702	-0.010	1347.690	939.131
11.717	3.073	1352.327	961.582
12.731	10.620	1363.776	1017.086
13.746	16.208	1371.542	1057.921
14.761	17.048	1371.860	1063.335
15.775	16.352	1369.528	1057.078
16.790	15.342	1367.012	1048.732
17.804	14.558	1364.943	1042.156
18.819	14.102	1363.548	1038.152
19.834	13.778	1362.330	1035.112
20.848	13.668	1360.834	1033.199
21.863	13.458	1359.257	1030.602
22.877	13.264	1358.619	1028.820
23.892	13.193	1357.574	1027.494
24.907	13.265	1356.338	1026.914
25.921	13.170	1355.662	1025.724
26.936	13.285	1354.864	1025.741
27.950	13.300	1354.263	1025.290
28.965	13.413	1352.649	1024.676
29.980	13.490	1351.836	1024.448
30.994	13.379	1350.639	1022.762
32.009	13.452	1350.041	1022.670
33.023	13.472	1349.340	1022.171
34.038	13.464	1348.072	1021.072
35.053	13.315	1346.896	1019.176
36.067	13.403	1345.896	1018.867
37.082	13.401	1344.719	1017.877
38.096	13.378	1343.871	1017.001
39.111	13.451	1343.136	1016.804
40.126	13.299	1342.539	1015.330
41.140	13.183	1341.858	1014.014
42.155	13.237	1340.730	1013.401
43.169	13.255	1340.828	1013.494
44.184	13.203	1340.770	1013.046
45.199	13.359	1339.813	1013.189
46.213	13.203	1340.231	1012.459
47.228	13.255	1338.745	1011.562
48.242	13.323	1336.926	1010.514
49.257	13.351	1335.639	1009.624
50.271	13.296	1334.282	1008.175
51.286	13.353	1332.998	1007.458
52.301	13.286	1331.835	1006.085
53.315	13.250	1330.960	1005.113
54.330	13.344	1329.526	1004.515
55.344	13.330	1328.670	1003.696
56.359	13.263	1327.706	1002.472
57.374	13.199	1327.012	1001.469
58.388	13.174	1326.177	1000.603
59.403	13.198	1325.325	1000.013
60.417	13.149	1324.487	998.999
61.432	13.123	1324.076	998.439
62.447	13.111	1323.253	997.661
63.461	13.102	1321.927	996.518
64.476	13.064	1320.678	995.260
65.490	13.096	1319.348	994.361
66.505	13.164	1317.539	993.319
67.520	13.192	1316.364	992.513
68.534	13.153	1315.430	991.488
69.549	13.141	1314.505	990.632
70.563	13.204	1313.008	989.792
71.578	13.116	1312.314	988.655
72.593	13.004	1311.894	987.578
73.607	12.992	1310.931	986.699
74.622	13.107	1310.026	986.613
75.636	13.025	1309.299	985.491
76.651	13.025	1308.330	984.676
77.666	13.110	1307.875	984.750
78.680	12.967	1307.279	983.360
79.695	13.117	1306.397	983.504
80.709	13.047	1305.796	982.553
81.724	13.236	1304.454	982.575
82.739	13.157	1303.914	981.613
83.753	13.209	1303.168	981.276
84.768	13.303	1302.052	980.905
85.782	13.401	1300.468	980.205
86.797	13.299	1299.390	978.702
87.812	13.312	1297.950	977.610
88.826	13.233	1297.398	976.641
89.841	13.221	1296.568	975.858
90.855	13.308	1295.572	975.534
91.870	13.344	1294.412	974.786
92.884	13.324	1293.655	974.013
93.899	13.363	1293.138	973.768
94.914	13.429	1291.807	973.067
95.928	13.394	1291.536	972.569
96.943	13.405	1290.272	971.599
97.957	13.320	1289.289	970.273
98.972	13.347	1288.392	969.669
99.987	13.262	1287.661	968.536
101.001	13.436	1285.977	968.200
102.016	13.354	1285.459	967.248
103.030	13.398	1284.492	966.688
104.045	13.352	1284.273	966.172
105.060	13.308	1282.757	964.687
106.074	13.271	1281.510	963.447
107.089	13.302	1279.702	962.183
108.103	13.103	1278.763	960.239
109.118	13.173	1277.583	959.673
110.133	13.178	1276.145	958.537
111.147	13.164	1275.000	957.513
112.162	13.272	1273.544	956.961
113.176	13.329	1272.235	956.222
114.191	13.341	1271.664	955.774
115.206	13.173	1270.556	953.887
116.220	13.316	1269.105	953.537
117.235	13.234	1268.459	952.494
118.249	13.281	1267.506	951.965
119.264	13.265	1266.328	950.904
120.279	13.318	1264.924	950.070
121.293	13.182	1264.027	948.532
122.308	13.225	1263.134	948.027
123.322	13.168	1262.139	946.867
124.337	13.306	1260.886	946.637
125.352	13.176	1260.025	945.161
126.366	13.268	1258.867	944.733
127.381	13.296	1257.370	943.686
128.395	13.180	1256.715	942.451
129.410	13.274	1255.889	942.284
130.424	13.224	1255.541	941.652
131.439	13.299	1254.190	940.982
132.454	13.297	1253.300	940.219
133.468	13.315	1252.305	939.496
134.483	13.219	1251.944	938.598
135.497	13.328	1250.211	937.833
136.512	13.312	1248.743	936.556
137.527	13.272	1247.789	935.530
138.541	13.310	1246.553	934.740
139.556	13.401	1244.942	933.958
140.570	13.370	1244.473	933.352
141.585	13.399	1242.930	932.273
142.600	13.437	1241.711	931.491
143.614	13.468	1241.058	931.092
144.629	13.381	1239.940	929.682
145.643	13.418	1239.101	929.182
146.658	13.358	1237.566	927.611
147.673	13.349	1236.529	926.699
148.687	13.341	1235.313	925.665
149.702	13.229	1233.777	923.803
150.716	13.332	1232.530	923.361
151.731	13.368	1231.187	922.474
152.746	13.427	1229.940	921.791
153.760	13.529	1228.622	921.286
154.775	13.474	1227.590	920.129
155.789	13.480	1226.364	919.158
156.804	13.509	1225.044	918.251
157.819	13.454	1225.079	917.888
158.833	13.561	1223.981	917.578
159.848	13.536	1222.999	916.623
160.862	13.555	1221.878	915.808
161.877	13.571	1220.526	914.802
162.892	13.445	1219.484	913.244
163.906	13.483	1218.651	912.748
164.921	13.597	1217.603	912.510
165.935	13.551	1216.899	911.651
166.950	13.486	1216.010	910.546
167.964	13.546	1215.742	910.591
168.979	13.552	1214.971	909.968
169.994	13.663	1214.119	909.857
171.008	13.566	1213.192	908.550
172.023	13.624	1212.367	908.170
173.037	13.658	1211.776	907.833
174.052	13.702	1210.657	907.156
175.067	13.654	1209.414	905.882
176.081	13.521	1209.159	904.882
177.096	13.530	1208.036	904.015
178.110	13.557	1206.657	903.049
179.125	13.729	1205.288	902.878
180.140	13.668	1204.204	901.659
181.154	13.603	1203.670	900.822
182.169	13.721	1202.038	900.166
183.183	13.751	1200.833	899.342
184.198	13.812	1199.471	898.577
185.213	13.828	1198.306	897.708
186.227	13.852	1197.293	896.999
187.242	13.923	1195.976	896.316
188.256	13.780	1195.684	895.247
189.271	13.869	1194.771	894.964
190.286	13.721	1193.561	893.182
191.300	13.756	1192.680	892.630
192.315	13.602	1192.246	891.400
193.329	13.590	1191.744	890.883
194.344	13.697	1190.945	890.780
195.359	13.835	1190.575	891.165
196.373	13.802	1189.957	890.445
197.388	13.906	1189.387	890.497
198.402	14.015	1188.694	890.485
199.417	13.961	1188.194	889.745
200.432	14.141	1186.793	889.579
201.446	13.964	1186.526	888.351
202.461	14.124	1185.432	888.310
203.475	13.980	1184.893	887.056
204.490	14.151	1183.305	886.701
205.504	13.961	1182.241	884.816
206.519	14.006	1180.822	883.916
207.534	14.073	1179.855	883.469
208.548	14.028	1179.159	882.629
209.563	14.085	1177.953	881.952
210.577	14.044	1177.529	881.337
211.592	14.160	1176.238	880.910
212.607	14.135	1175.717	880.307
213.621	14.244	1174.503	879.897
214.636	14.193	1173.788	879.014
215.650	14.226	1173.209	878.679
216.665	14.326	1171.862	878.120
217.680	14.320	1170.949	877.326
218.694	14.271	1170.223	876.444
219.709	14.425	1169.191	876.407
220.723	14.349	1168.874	875.690
221.738	14.242	1167.901	874.320
222.753	14.394	1167.543	874.776
223.767	14.302	1166.955	873.775
224.782	14.311	1166.489	873.396
225.796	14.466	1165.475	873.373
226.811	14.376	1164.863	872.361
227.826	14.433	1164.025	871.957
228.840	14.379	1163.569	871.253
229.855	14.375	1162.999	870.729
230.869	14.363	1162.180	869.980
231.884	14.447	1161.209	869.614
232.899	14.490	1159.945	868.812
233.913	14.375	1159.498	867.801
234.928	14.335	1158.873	867.050
235.942	14.339	1158.221	866.506
236.957	14.423	1157.256	866.142
237.972	14.360	1156.619	865.265
238.986	14.373	1155.783	864.630
240.001	14.411	1155.273	864.366
241.015	14.551	1154.329	864.311
242.030	14.482	1153.188	863.023
243.045	14.510	1152.584	862.637
244.059	14.516	1151.683	861.919
245.074	14.512	1151.173	861.442
246.088	14.640	1150.135	861.248
247.103	14.569	1149.551	860.370
248.117	14.618	1148.996	860.127
249.132	14.728	1148.456	860.215
250.147	14.763	1147.566	859.653
251.161	14.733	1146.571	858.680
252.176	14.736	1146.522	858.580
253.190	14.812	1145.354	858.019
254.205	14.856	1144.922	857.848
255.220	14.760	1144.685	857.100
256.234	14.961	1143.643	857.274
257.249	14.861	1143.154	856.319
258.263	14.837	1142.527	855.651
259.278	14.908	1141.867	855.446
260.293	14.903	1141.284	854.904
261.307	15.016	1140.567	854.868
262.322	14.911	1139.944	853.791
263.336	14.997	1139.033	853.471
264.351	15.143	1138.567	853.795
265.366	14.987	1138.021	852.515
266.380	15.087	1137.080	852.242
267.395	15.003	1136.876	851.585
268.409	14.942	1135.782	850.382
269.424	15.058	1134.898	850.233
270.439	15.000	1134.664	849.687
271.453	15.015	1133.957	849.161
272.468	15.041	1132.940	848.456
273.482	15.014	1132.024	847.558
274.497	14.962	1132.013	847.208
275.512	15.074	1131.186	847.081
276.526	15.161	1130.294	846.781
277.541	15.055	1129.726	845.744
278.555	15.199	1128.869	845.756
279.570	15.283	1127.925	845.394
280.585	15.257	1127.267	844.699
281.599	15.232	1126.377	843.830
282.614	15.190	1125.553	842.925
283.628	15.164	1124.161	841.680
284.643	15.278	1123.357	841.575
285.657	15.197	1123.064	840.874
286.672	15.267	1121.895	840.275
287.687	15.264	1120.797	839.362
288.701	15.285	1120.241	838.980
289.716	15.471	1119.261	839.098
290.730	15.420	1118.626	838.293
291.745	15.318	1118.234	837.419
292.760	15.290	1117.783	836.867
293.774	15.401	1117.177	836.891
294.789	15.484	1116.405	836.653
295.803	15.363	1115.803	835.523
296.818	15.439	1114.889	835.147
297.833	15.487	1113.822	834.509
298.847	15.429	1113.412	833.839
299.862	15.588	1112.214	833.660
300.876	15.454	1111.967	832.733
301.891	15.527	1111.492	832.667
302.906	15.579	1110.787	832.323
303.920	15.552	1109.835	831.403
304.935	15.571	1109.214	830.959
305.949	15.691	1108.594	831.014
306.964	15.708	1107.917	830.516
307.979	15.685	1107.276	829.850
308.993	15.635	1106.695	829.092
310.008	15.708	1105.807	828.713
311.022	15.659	1104.873	827.700
312.037	15.728	1104.193	827.455
313.052	15.793	1103.327	827.054
314.066	15.735	1102.053	825.741
315.081	15.656	1101.777	825.074
316.095	15.632	1100.926	824.247
317.110	15.696	1100.082	823.855
318.125	15.722	1099.475	823.456
319.139	15.587	1098.683	822.128
320.154	15.549	1098.826	821.974
321.168	15.683	1097.457	821.535
322.183	15.752	1096.776	821.287
323.197	15.781	1096.409	821.081
324.212	15.679	1095.693	819.975
325.227	15.873	1095.157	820.447
326.241	15.831	1094.444	819.639
327.256	15.757	1093.847	818.758
328.270	15.883	1092.281	818.127
329.285	15.855	1091.563	817.381
330.300	15.787	1091.184	816.690
331.314	15.757	1090.401	815.888
332.329	15.928	1088.947	815.558
333.343	15.900	1088.325	814.883
334.358	15.914	1087.356	814.153
335.373	16.010	1086.927	814.223
336.387	15.960	1086.175	813.345
337.402	16.000	1085.189	812.732
338.416	16.068	1084.451	812.433
339.431	16.099	1084.022	812.191
340.446	16.059	1083.744	811.716
341.460	16.101	1083.117	811.376
342.475	16.166	1081.919	810.718
343.489	16.256	1080.829	810.266
344.504	16.217	1080.029	809.405
345.519	16.164	1079.319	808.547
346.533	16.336	1078.425	808.629
347.548	16.329	1077.992	808.200
348.562	16.244	1077.288	807.196
349.577	16.185	1076.664	806.371
350.592	16.181	1075.607	805.493
351.606	16.184	1074.881	804.892
352.621	16.093	1074.512	804.110
353.635	16.236	1073.857	804.229
354.650	16.224	1072.822	803.325
355.665	16.211	1072.452	802.916
356.679	16.218	1071.878	802.450
357.694	16.394	1070.862	802.454
358.708	16.333	1070.569	801.871
359.723	16.358	1069.644	801.227
360.738	16.327	1069.598	800.976
361.752	16.463	1068.343	800.608
362.767	16.428	1067.695	799.888
363.781	16.282	1067.826	799.224
364.796	16.531	1066.957	799.680
365.810	16.496	1066.322	798.968
366.825	16.468	1065.884	798.437
367.840	16.589	1065.225	798.445
368.854	16.542	1064.772	797.812
369.869	16.618	1063.780	797.354
370.883	16.482	1063.310	796.292
371.898	16.582	1061.983	795.698
372.913	16.632	1061.601	795.575
373.927	16.647	1061.213	795.286
374.942	16.631	1060.695	794.752
375.956	16.636	1060.141	794.288
376.971	16.607	1059.913	793.914
377.986	16.669	1059.012	793.458
379.000	16.641	1058.567	792.925
380.015	16.750	1058.077	792.996
381.029	16.851	1056.882	792.502
382.044	16.872	1056.492	792.240
383.059	16.732	1056.181	791.283
384.073	16.785	1055.422	790.891
385.088	16.923	1054.009	790.403
386.102	16.936	1052.958	789.605
387.117	16.788	1052.760	788.700
388.132	16.775	1051.558	787.671
389.146	16.782	1050.880	787.122
390.161	16.817	1049.968	786.532
391.175	16.855	1049.279	786.124
392.190	16.907	1048.545	785.746
393.205	16.874	1048.334	785.365
394.219	16.936	1047.321	784.823
395.234	16.874	1046.181	783.613
396.248	16.833	1045.409	782.774
397.263	16.898	1044.274	782.157
398.278	16.857	1043.879	781.605
399.292	16.920	1043.191	781.307
400.307	16.924	1042.254	780.556
401.321	16.907	1041.621	779.935
402.336	16.933	1041.001	779.523
403.350	16.972	1040.384	779.167
404.365	16.757	1040.237	778.002
405.380	16.933	1039.123	777.908
406.394	16.980	1038.775	777.796
407.409	16.965	1037.605	776.779
408.423	17.093	1036.977	776.827
409.438	17.182	1036.268	776.635
410.453	17.235	1035.425	776.179
411.467	17.188	1034.652	775.313
412.482	17.239	1034.233	775.162
413.496	17.159	1033.463	774.154
414.511	17.322	1032.563	774.152
415.526	17.331	1032.787	774.295
416.540	17.293	1032.185	773.603
417.555	17.237	1031.948	773.101
418.569	17.282	1031.619	772.991
419.584	17.333	1030.979	772.673
420.599	17.358	1030.255	772.175
421.613	103.659	1321.098	1464.094
422.628	94.887	1363.449	1464.206
