DTS Sentinel unit serial number:	SN413079Multiplexer serial number:	ORYXHardware model number:	OX4-SRSoftware version number:	ORYX F/W v4.00 Oryx Data Collector v3.7.2.0data status	okinstallation	princeton_trtdifferential loss correction	single-endedforward channel	channel 2reverse channel	N/Adate	2019/09/17time	22:07:35forward acquisition time	60.00reverse acquisition time	0.00gamma	496.2192k internal	0.2343k external	0.2343temperature offset calibration	0.9981default loss term (dB/km)	0.3790temperature slope calibration	1.0000multiplexer offset coefficient	1.0000multiplexer slope coefficient	1.0000fibre end	0.00T internal ref (°C)	25.87T ext. ref 1 (°C)	0.17T ext. ref 2 (°C)	18.80length (m)	temperature (°C)	Stokes	anti-Stokes-747.200	-90.835	0.104	0.030
-746.185	800.000	-0.140	0.392
-745.171	58.105	0.132	0.130
-744.156	95.392	0.219	-0.250
-743.142	235.671	0.043	0.072
-742.127	-72.593	-0.349	0.129
-741.112	-123.076	0.017	0.003
-740.098	-170.338	0.421	-0.015
-739.083	129.191	-0.171	0.218
-738.069	-59.037	-0.094	0.041
-737.054	-200.000	0.016	0.497
-736.039	135.548	-0.084	0.109
-735.025	170.647	0.180	0.258
-734.010	174.864	-0.258	-0.374
-732.996	800.000	-0.079	-0.228
-731.981	383.550	-0.016	-0.032
-730.966	46.805	0.182	-0.169
-729.952	-137.887	-0.227	0.025
-728.937	-200.000	-0.025	0.396
-727.923	-7.911	0.087	0.059
-726.908	-41.990	-0.352	-0.180
-725.894	-111.088	-0.377	0.077
-724.879	21.505	-0.178	0.145
-723.864	400.441	-0.175	-0.367
-722.850	800.000	-0.057	-0.200
-721.835	82.117	-0.189	-0.205
-720.821	206.561	-0.183	-0.285
-719.806	237.792	0.116	-0.192
-718.791	447.022	-0.067	-0.148
-717.777	41.890	-0.202	-0.183
-716.762	-200.000	0.008	0.057
-715.748	-66.129	0.087	0.035
-714.733	-85.115	0.238	-0.075
-713.718	-200.000	0.029	0.326
-712.704	800.000	-0.039	-0.125
-711.689	800.000	0.089	-0.328
-710.675	-87.548	-0.391	-0.118
-709.660	800.000	0.098	-0.370
-708.645	170.978	-0.103	-0.147
-707.631	-28.169	0.154	-0.089
-706.616	16.812	0.094	-0.074
-705.602	-8.842	-0.269	0.180
-704.587	658.502	0.068	-0.174
-703.572	19.268	-0.201	-0.161
-702.558	800.000	0.081	-0.286
-701.543	-200.000	-0.330	-0.001
-700.529	-99.400	-0.135	0.034
-699.514	95.882	0.133	-0.152
-698.499	264.977	0.109	0.190
-697.485	6.897	0.238	-0.177
-696.470	-200.000	0.028	-0.178
-695.456	-200.000	-0.022	-0.145
-694.441	-159.951	-0.057	-0.003
-693.426	-40.846	0.240	0.124
-692.412	51.466	-0.056	0.053
-691.397	-142.992	-0.201	0.019
-690.383	-1.712	-0.167	0.117
-689.368	-200.000	-0.002	-0.074
-688.354	-10.995	0.089	0.059
-687.339	126.193	0.113	-0.143
-686.324	117.303	-0.177	0.217
-685.310	-185.142	-0.183	0.003
-684.295	800.000	-0.088	-0.321
-683.281	-90.838	0.028	0.008
-682.266	-155.230	-0.428	0.028
-681.251	-15.198	0.161	0.103
-680.237	192.437	-0.137	-0.207
-679.222	22.109	0.281	0.229
-678.208	800.000	0.046	-0.147
-677.193	-75.254	0.181	-0.064
-676.178	420.638	-0.096	0.206
-675.164	-200.000	-0.001	0.238
-674.149	-112.875	0.178	-0.035
-673.135	150.623	-0.082	-0.111
-672.120	430.560	-0.023	-0.049
-671.105	-200.000	-0.040	-0.218
-670.091	11.825	0.104	-0.080
-669.076	-200.000	-0.039	-0.260
-668.062	-44.363	0.099	0.049
-667.047	-105.886	-0.342	-0.077
-666.032	-200.000	-0.047	-0.260
-665.018	-105.096	-0.135	-0.031
-664.003	-6.337	0.080	0.054
-662.989	-200.000	0.044	0.226
-661.974	800.000	-0.039	0.131
-660.959	-200.000	-0.028	-0.151
-659.945	-200.000	-0.036	-0.163
-658.930	527.051	0.042	-0.099
-657.916	-200.000	0.014	0.131
-656.901	-26.249	0.291	-0.170
-655.886	-200.000	-0.001	0.077
-654.872	80.830	0.021	-0.023
-653.857	563.977	-0.212	0.512
-652.843	80.089	0.318	0.341
-651.828	20.715	-0.143	0.115
-650.814	-200.000	-0.033	-0.272
-649.799	-23.766	0.354	0.212
-648.784	553.839	0.083	0.200
-647.770	-92.595	-0.435	0.122
-646.755	30.216	0.154	0.131
-645.741	-88.934	-0.204	-0.060
-644.726	271.382	-0.052	-0.091
-643.711	-200.000	-0.036	-0.220
-642.697	149.928	0.182	-0.247
-641.682	666.123	-0.089	0.229
-640.668	800.000	-0.027	-0.089
-639.653	-55.722	-0.025	0.011
-638.638	-44.040	0.282	0.141
-637.624	-200.000	0.007	0.044
-636.609	63.563	-0.289	-0.290
-635.595	-200.000	-0.036	-0.336
-634.580	255.642	-0.042	-0.072
-633.565	-200.000	-0.001	0.231
-632.551	37.078	0.287	-0.254
-631.536	-200.000	0.014	0.254
-630.522	91.862	-0.193	0.216
-629.507	154.149	0.130	-0.177
-628.492	-144.866	0.238	0.022
-627.478	-200.000	0.014	-0.271
-626.463	43.686	0.164	-0.149
-625.449	558.664	0.174	-0.420
-624.434	29.335	0.063	-0.053
-623.419	-85.115	0.145	-0.045
-622.405	80.286	-0.159	-0.170
-621.390	-200.000	-0.020	0.104
-620.376	-145.331	0.328	-0.029
-619.361	242.594	-0.024	-0.040
-618.346	-200.000	0.006	-0.222
-617.332	366.953	-0.108	-0.217
-616.317	-200.000	0.014	-0.106
-615.303	33.261	0.015	0.013
-614.288	38.714	0.127	-0.113
-613.273	30.752	0.273	0.233
-612.259	-24.135	-0.213	-0.127
-611.244	800.000	0.052	0.161
-610.230	184.642	0.163	0.240
-609.215	-200.000	-0.258	-0.001
-608.201	6.600	-0.113	0.084
-607.186	-23.892	0.064	-0.038
-606.171	-87.779	-0.289	-0.087
-605.157	365.712	0.199	-0.400
-604.142	-200.000	0.022	-0.101
-603.128	166.498	0.119	0.167
-602.113	800.000	-0.003	-0.012
-601.098	-200.000	0.036	-0.222
-600.084	-200.000	-0.012	0.263
-599.069	-124.855	-0.148	-0.023
-598.055	-200.000	-0.008	-0.120
-597.040	-200.000	-0.004	0.157
-596.025	284.360	0.128	-0.229
-595.011	-200.000	-0.001	0.020
-593.996	34.513	0.181	-0.157
-592.982	-2.105	0.098	0.068
-591.967	800.000	-0.103	-0.366
-590.952	57.503	-0.146	0.142
-589.938	193.370	-0.051	0.077
-588.923	34.632	0.154	0.134
-587.909	-76.961	-0.250	-0.087
-586.894	312.561	-0.069	0.130
-585.879	-114.872	0.128	0.024
-584.865	258.585	-0.012	-0.021
-583.850	-200.000	0.030	-0.218
-582.836	-52.055	0.282	-0.130
-581.821	-139.588	-0.262	-0.028
-580.806	-136.826	-0.082	0.009
-579.792	70.348	0.423	-0.435
-578.777	-41.210	-0.219	0.112
-577.763	135.626	-0.217	0.281
-576.748	800.000	-0.051	0.140
-575.733	232.650	0.066	-0.108
-574.719	-200.000	-0.054	-0.250
-573.704	-111.931	-0.240	-0.048
-572.690	444.237	0.135	-0.294
-571.675	-200.000	-0.032	0.542
-570.661	-169.732	-0.227	-0.008
-569.646	41.309	0.089	0.080
-568.631	800.000	0.096	0.269
-567.617	-200.000	0.007	0.041
-566.602	55.129	0.133	-0.127
-565.588	-200.000	-0.021	0.140
-564.573	24.514	-0.058	-0.047
-563.558	101.080	-0.187	0.217
-562.544	-145.000	-0.088	0.008
-561.529	800.000	0.076	-0.228
-560.515	-69.001	-0.305	0.117
-559.500	314.994	-0.182	0.341
-558.485	-86.611	0.153	-0.047
-557.471	383.342	0.073	-0.149
-556.456	-180.813	0.162	-0.003
-555.442	34.777	0.200	-0.174
-554.427	-200.000	-0.001	0.022
-553.412	-15.437	-0.416	0.264
-552.398	-200.000	0.030	-0.137
-551.383	75.215	-0.219	-0.229
-550.369	-116.392	-0.237	-0.043
-549.354	-68.716	-0.164	-0.063
-548.339	800.000	-0.092	0.367
-547.325	699.755	0.083	-0.217
-546.310	-200.000	-0.028	-0.176
-545.296	-200.000	0.012	0.108
-544.281	-200.000	0.017	0.087
-543.266	-27.236	0.330	0.191
-542.252	391.513	-0.117	-0.242
-541.237	112.541	-0.112	0.135
-540.223	-106.145	0.389	-0.087
-539.208	-200.000	0.055	0.300
-538.193	51.049	-0.171	0.161
-537.179	3.511	0.146	-0.105
-536.164	800.000	-0.052	0.189
-535.150	-124.687	0.295	-0.045
-534.135	96.402	0.066	0.076
-533.121	145.811	-0.057	-0.076
-532.106	-134.549	0.236	-0.029
-531.091	800.000	-0.051	0.188
-530.077	800.000	0.035	-0.099
-529.062	316.404	-0.088	0.165
-528.048	-44.833	0.090	0.044
-527.033	53.128	-0.144	0.137
-526.018	-95.179	0.198	-0.053
-525.004	29.990	-0.096	-0.081
-523.989	800.000	-0.139	-0.403
-522.975	-126.109	0.122	0.018
-521.960	-200.000	-0.036	-0.265
-520.945	323.776	-0.070	0.133
-519.931	448.911	-0.114	0.249
-518.916	302.281	-0.138	0.253
-517.902	-200.000	-0.014	-0.123
-516.887	127.808	-0.235	0.297
-515.872	134.239	0.116	-0.149
-514.858	292.279	-0.128	0.231
-513.843	-22.819	-0.378	-0.226
-512.829	530.731	0.178	-0.417
-511.814	-102.926	-0.036	-0.008
-510.799	460.959	-0.136	0.301
-509.785	130.814	-0.119	-0.151
-508.770	90.246	0.089	0.098
-507.756	800.000	0.080	-0.297
-506.741	24.886	-0.213	-0.175
-505.726	797.991	-0.089	-0.242
-504.712	629.392	-0.059	-0.147
-503.697	-107.083	0.369	-0.081
-502.683	46.528	-0.226	0.208
-501.668	-24.365	-0.235	0.139
-500.653	51.197	-0.112	-0.105
-499.639	-200.000	-0.023	-0.264
-498.624	-29.932	0.074	0.042
-497.610	321.567	0.096	-0.182
-496.595	145.155	-0.156	-0.206
-495.581	-79.029	-0.312	-0.105
-494.566	517.636	0.054	0.126
-493.551	201.415	-0.167	-0.255
-492.537	-200.000	0.053	0.297
-491.522	-84.609	-0.250	0.078
-490.508	-200.000	0.029	-0.150
-489.493	-11.693	0.098	0.064
-488.478	-35.362	-0.086	-0.047
-487.464	283.412	0.110	-0.196
-486.449	-200.000	-0.007	-0.095
-485.435	320.698	-0.091	0.170
-484.420	800.000	0.109	0.440
-483.405	66.843	0.198	-0.200
-482.391	-138.909	-0.218	0.023
-481.376	-157.161	0.180	-0.011
-480.362	-200.000	0.015	-0.226
-479.347	-34.725	-0.229	0.124
-478.332	93.279	-0.039	-0.043
-477.318	-132.493	0.070	-0.009
-476.303	619.795	0.067	0.168
-475.289	-59.736	0.222	0.094
-474.274	-185.843	0.163	0.002
-473.259	-71.067	-0.254	0.095
-472.245	54.757	-0.112	-0.107
-471.230	181.606	-0.060	-0.087
-470.216	270.765	0.121	-0.210
-469.201	233.795	0.086	-0.141
-468.186	-124.190	-0.357	0.055
-467.172	-200.000	-0.037	0.185
-466.157	-200.000	0.074	-0.350
-465.143	74.849	0.278	0.289
-464.128	37.731	-0.382	-0.336
-463.113	800.000	0.098	0.283
-462.099	-118.958	0.276	0.048
-461.084	-189.150	0.364	0.004
-460.070	800.000	-0.025	0.086
-459.055	-200.000	-0.023	0.450
-458.040	-66.381	0.156	0.062
-457.026	38.331	0.090	-0.080
-456.011	384.333	0.020	-0.040
-454.997	-200.000	0.020	-0.339
-453.982	-136.379	-0.148	-0.017
-452.968	-142.761	-0.332	-0.032
-451.953	-126.253	0.012	-0.002
-450.938	800.000	0.097	-0.287
-449.924	368.433	0.145	-0.289
-448.909	-200.000	0.004	-0.087
-447.895	800.000	0.090	0.259
-446.880	421.940	0.049	-0.105
-445.865	-41.313	0.108	0.055
-444.851	-15.405	-0.260	-0.164
-443.836	-89.563	0.060	0.018
-442.822	165.747	-0.127	0.178
-441.807	-120.869	0.652	0.109
-440.792	352.948	-0.235	0.462
-439.778	-27.526	0.449	0.258
-438.763	11.948	-0.171	0.130
-437.749	21.648	0.261	0.210
-436.734	-35.022	-0.120	0.065
-435.719	-47.655	0.131	0.063
-434.705	-200.000	0.009	0.340
-433.690	-101.878	-0.113	-0.027
-432.676	338.750	-0.051	0.098
-431.661	-42.017	-0.143	-0.073
-430.646	-200.000	-0.019	-0.170
-429.632	800.000	-0.103	0.293
-428.617	-33.810	-0.359	-0.196
-427.603	135.569	0.024	0.031
-426.588	458.058	-0.081	-0.179
-425.573	153.259	-0.004	0.006
-424.559	-35.237	0.179	-0.096
-423.544	58.691	0.137	0.133
-422.530	800.000	0.015	0.053
-421.515	-121.686	0.065	-0.011
-420.500	21.341	0.115	0.093
-419.486	-200.000	0.050	-0.234
-418.471	712.951	-0.057	-0.148
-417.457	-54.853	-0.206	0.092
-416.442	-75.955	0.145	-0.051
-415.428	-128.113	-0.091	0.013
-414.413	-68.237	0.438	-0.168
-413.398	-200.000	-0.074	0.529
-412.384	-200.000	-0.071	0.413
-411.369	-141.582	-0.148	0.015
-410.355	348.270	0.132	-0.258
-409.340	608.515	-0.232	0.572
-408.325	800.000	0.054	0.185
-407.311	-147.402	-0.049	-0.004
-406.296	-144.800	-0.141	0.013
-405.282	97.644	-0.103	-0.117
-404.267	-63.793	0.403	0.163
-403.252	241.335	0.131	-0.215
-402.238	25.887	-0.051	-0.042
-401.223	-200.000	0.026	-0.407
-400.209	22.257	0.272	-0.219
-399.194	-200.000	-0.020	-0.173
-398.179	-77.316	-0.342	-0.118
-397.165	-200.000	-0.003	-0.073
-396.150	-200.000	-0.000	-0.099
-395.136	275.576	0.070	-0.122
-394.121	-200.000	-0.003	0.113
-393.106	50.638	0.206	0.192
-392.092	14.742	-0.264	-0.204
-391.077	800.000	-0.115	-0.387
-390.063	-91.465	-0.065	-0.018
-389.048	49.299	-0.113	-0.105
-388.033	55.050	0.093	-0.089
-387.019	-200.000	-0.006	0.092
-386.004	-50.627	0.298	-0.139
-384.990	93.491	-0.110	-0.123
-383.975	-61.959	0.044	0.018
-382.960	800.000	-0.048	-0.200
-381.946	16.448	-0.088	0.069
-380.931	-200.000	-0.035	0.238
-379.917	-92.559	-0.237	-0.066
-378.902	-7.408	0.081	-0.054
-377.888	-200.000	0.017	0.142
-376.873	-161.763	-0.133	0.007
-375.858	-134.864	-0.186	-0.022
-374.844	-50.060	0.156	-0.073
-373.829	-200.000	-0.008	0.035
-372.815	634.183	0.021	-0.053
-371.800	-72.264	-0.192	0.070
-370.785	-74.450	0.287	-0.102
-369.771	-123.098	-0.200	0.032
-368.756	143.590	-0.087	-0.114
-367.742	-199.410	0.257	0.001
-366.727	-200.000	0.030	0.206
-365.712	800.000	0.113	-0.319
-364.698	-117.466	-0.150	-0.027
-363.683	-200.000	0.012	-0.085
-362.669	-15.139	-0.141	0.089
-361.654	177.330	-0.226	0.325
-360.639	72.493	0.083	-0.086
-359.625	218.206	0.024	-0.038
-358.610	-32.935	-0.046	-0.025
-357.596	-97.888	0.213	0.054
-356.581	38.840	0.253	0.223
-355.566	480.818	0.025	0.056
-354.552	-10.575	-0.179	0.117
-353.537	-108.319	0.131	0.028
-352.523	150.776	0.288	0.386
-351.508	-200.000	0.011	-0.317
-350.493	-131.253	0.190	0.025
-349.479	421.750	-0.063	0.133
-348.464	-65.747	-0.209	-0.083
-347.450	-200.000	-0.031	0.151
-346.435	-97.994	0.116	0.030
-345.420	-200.000	-0.001	-0.279
-344.406	-200.000	-0.009	0.100
-343.391	-3.187	0.164	-0.113
-342.377	-200.000	-0.018	-0.099
-341.362	-124.198	0.189	0.029
-340.348	-200.000	0.012	-0.175
-339.333	-200.000	0.070	-0.407
-338.318	-47.110	-0.083	-0.040
-337.304	-64.770	0.237	0.094
-336.289	-154.140	0.151	-0.010
-335.275	-92.671	-0.224	-0.062
-334.260	-88.196	-0.370	0.109
-333.245	-95.879	0.033	-0.009
-332.231	-200.000	-0.004	0.025
-331.216	800.000	0.039	0.165
-330.202	45.349	0.161	0.146
-329.187	-200.000	-0.005	0.186
-328.172	631.100	-0.120	-0.299
-327.158	-157.663	0.285	-0.017
-326.143	-86.764	-0.286	0.086
-325.129	105.748	0.083	0.096
-324.114	-200.000	0.013	-0.097
-323.099	198.594	0.062	0.093
-322.085	-76.483	0.239	0.083
-321.070	800.000	0.062	0.259
-320.056	557.581	-0.074	-0.176
-319.041	340.404	-0.086	-0.165
-318.026	800.000	0.146	0.421
-317.012	-200.000	-0.005	0.066
-315.997	-200.000	-0.015	-0.303
-314.983	800.000	-0.132	-0.378
-313.968	-200.000	-0.053	0.284
-312.953	317.100	-0.028	-0.052
-311.939	-82.319	0.115	-0.037
-310.924	-44.881	-0.206	-0.101
-309.910	240.879	-0.181	0.298
-308.895	-88.939	-0.107	-0.031
-307.880	42.499	-0.249	-0.223
-306.866	-4.711	0.275	-0.186
-305.851	77.582	-0.107	-0.112
-304.837	800.000	0.073	-0.290
-303.822	6.698	0.343	0.251
-302.807	-119.070	-0.175	-0.030
-301.793	110.080	-0.165	0.195
-300.778	2.169	0.154	-0.109
-299.764	-114.671	-0.061	-0.012
-298.749	800.000	-0.027	0.077
-297.735	418.549	-0.125	0.263
-296.720	-47.510	0.081	-0.039
-295.705	91.214	0.046	-0.050
-294.691	-118.695	-0.192	-0.033
-293.676	-178.631	0.165	0.004
-292.662	-68.238	0.035	-0.014
-291.647	800.000	0.034	-0.112
-290.632	181.982	-0.086	0.124
-289.618	-81.429	-0.140	0.045
-288.603	87.136	0.082	-0.089
-287.589	449.309	-0.095	-0.207
-286.574	96.076	0.157	0.176
-285.559	64.256	-0.362	0.358
-284.545	-81.913	-0.324	-0.104
-283.530	-200.000	0.056	-0.387
-282.516	800.000	0.047	-0.145
-281.501	-80.922	0.611	-0.199
-280.486	63.172	-0.141	-0.139
-279.472	15.410	-0.264	-0.203
-278.457	69.001	-0.187	-0.189
-277.443	123.185	0.081	-0.099
-276.428	21.016	-0.125	-0.100
-275.413	-38.920	-0.330	0.171
-274.399	-113.153	0.348	0.067
-273.384	99.849	-0.162	-0.185
-272.370	-7.620	0.169	0.113
-271.355	254.698	0.132	-0.221
-270.340	800.000	-0.054	0.211
-269.326	663.874	0.046	0.118
-268.311	65.800	-0.197	0.196
-267.297	72.782	-0.100	-0.103
-266.282	-46.680	-0.447	0.215
-265.267	-105.082	0.218	0.049
-264.253	38.614	-0.070	0.061
-263.238	-67.763	0.170	-0.065
-262.224	-123.960	-0.189	0.029
-261.209	-200.000	0.018	0.081
-260.195	-200.000	-0.013	0.150
-259.180	-200.000	-0.002	-0.038
-258.165	717.325	-0.118	-0.307
-257.151	-200.000	0.043	-0.210
-256.136	749.862	0.069	-0.183
-255.122	-60.094	-0.267	0.112
-254.107	64.845	-0.176	0.175
-253.092	42.414	-0.198	-0.177
-252.078	-200.000	0.003	0.144
-251.063	-200.000	-0.018	-0.151
-250.049	-69.922	0.138	0.052
-249.034	27.995	-0.302	0.250
-248.019	402.598	-0.096	-0.198
-247.005	-200.000	-0.018	-0.244
-245.990	-58.396	-0.180	-0.077
-244.976	79.754	0.194	0.205
-243.961	-7.202	-0.139	0.093
-242.946	-120.676	0.205	-0.034
-241.932	-200.000	0.005	0.134
-240.917	-175.707	-0.461	0.012
-239.903	-200.000	0.019	-0.167
-238.888	-127.047	0.345	-0.050
-237.873	-200.000	0.022	0.126
-236.859	137.325	0.182	0.234
-235.844	-80.888	-0.295	0.096
-234.830	-101.767	-0.024	-0.006
-233.815	-63.272	0.092	-0.037
-232.800	-75.543	0.037	0.013
-231.786	-200.000	0.006	-0.113
-230.771	54.199	0.083	-0.078
-229.757	-117.529	-0.070	-0.012
-228.742	76.273	0.039	0.041
-227.727	139.270	0.066	-0.085
-226.713	453.194	-0.131	0.284
-225.698	32.919	0.221	-0.188
-224.684	-200.000	0.006	-0.229
-223.669	8.066	0.026	-0.019
-222.655	-140.247	-0.225	-0.023
-221.640	54.652	0.302	0.286
-220.625	40.603	-0.119	-0.106
-219.611	3.907	0.136	-0.098
-218.596	70.501	0.191	0.194
-217.582	-200.000	-0.072	0.313
-216.567	274.142	0.209	0.363
-215.552	12.020	-0.022	0.017
-214.538	-133.211	0.339	-0.042
-213.523	-200.000	-0.011	0.188
-212.509	70.722	-0.168	0.170
-211.494	112.034	0.242	0.287
-210.479	-62.473	-0.163	-0.066
-209.465	-200.000	-0.103	0.486
-208.450	-44.068	-0.222	-0.109
-207.436	-200.000	0.031	-0.181
-206.421	-116.133	-0.222	-0.040
-205.406	-200.000	0.046	0.258
-204.392	54.771	0.121	-0.114
-203.377	198.525	0.124	0.186
-202.363	800.000	0.013	-0.053
-201.348	2.973	-0.219	-0.156
-200.333	-200.000	-0.025	0.203
-199.319	0.888	0.186	0.131
-198.304	-200.000	0.027	0.147
-197.290	-35.905	-0.191	-0.101
-196.275	-200.000	0.006	-0.231
-195.260	200.344	-0.204	0.307
-194.246	321.606	0.120	-0.224
-193.231	-91.118	0.096	-0.027
-192.217	3.287	-0.056	0.040
-191.202	19.439	-0.096	0.076
-190.187	145.257	0.202	-0.265
-189.173	800.000	-0.070	0.208
-188.158	78.056	0.281	0.294
-187.144	-200.000	0.004	0.082
-186.129	121.339	-0.136	0.166
-185.114	-28.121	0.092	-0.052
-184.100	-6.536	-0.134	-0.089
-183.085	68.964	-0.231	0.232
-182.071	-200.000	0.015	-0.237
-181.056	111.002	-0.179	-0.211
-180.042	190.019	0.126	-0.185
-179.027	-124.111	0.383	0.059
-178.012	68.557	-0.222	-0.223
-176.998	-200.000	-0.028	-0.151
-175.983	-200.000	-0.020	0.191
-174.969	-69.895	0.414	0.155
-173.954	800.000	0.062	0.194
-172.939	-200.000	0.003	0.125
-171.925	332.058	-0.060	0.112
-170.910	83.593	0.130	-0.139
-169.896	155.812	0.061	0.082
-168.881	-200.000	0.024	0.364
-167.866	135.427	0.207	-0.263
-166.852	74.472	0.021	0.021
-165.837	-39.960	0.094	0.048
-164.823	-50.644	0.307	0.142
-163.808	489.338	0.131	0.293
-162.793	800.000	0.095	0.369
-161.779	86.331	0.113	-0.122
-160.764	-200.000	-0.020	0.096
-159.750	-7.804	-0.050	0.033
-158.735	29.589	0.243	0.202
-157.720	-12.817	0.081	-0.052
-156.706	729.533	-0.026	-0.068
-155.691	-19.386	-0.086	-0.052
-154.677	-80.123	-0.057	0.019
-153.662	103.038	0.058	-0.066
-152.647	31.875	-0.082	-0.069
-151.633	-200.000	-0.001	-0.022
-150.618	-200.000	0.039	0.178
-149.604	474.231	-0.033	-0.073
-148.589	-70.134	-0.439	0.163
-147.574	323.105	-0.151	0.281
-146.560	-106.410	0.024	-0.005
-145.545	182.708	0.177	-0.255
-144.531	-78.610	0.233	0.078
-143.516	461.639	-0.061	-0.133
-142.502	-98.673	-0.247	0.062
-141.487	-94.762	0.157	0.042
-140.472	54.572	0.264	-0.248
-139.458	-200.000	-0.086	0.420
-138.443	800.000	-0.055	0.223
-137.429	12.474	-0.047	0.035
-136.414	239.575	-0.067	0.108
-135.399	668.596	-0.037	-0.092
-134.385	-30.870	0.071	0.039
-133.370	-88.290	0.221	-0.065
-132.356	800.000	0.021	-0.058
-131.341	3.287	-0.169	0.120
-130.326	800.000	0.028	-0.077
-129.312	197.149	0.109	0.162
-128.297	-18.884	-0.233	-0.142
-127.283	131.348	-0.124	0.156
-126.268	-200.000	0.060	-0.355
-125.253	-200.000	0.010	-0.071
-124.239	-78.130	0.329	-0.111
-123.224	212.542	0.090	-0.139
-122.210	-200.000	0.054	0.301
-121.195	-101.451	-0.146	0.035
-120.180	800.000	-0.069	-0.209
-119.166	-7.731	-0.266	-0.175
-118.151	-200.000	0.020	-0.123
-117.137	-90.235	0.264	-0.075
-116.122	4.190	-0.144	-0.103
-115.107	-200.000	0.004	-0.347
-114.093	800.000	0.036	0.116
-113.078	-152.350	0.123	0.009
-112.064	11.389	-0.111	-0.083
-111.049	-32.821	-0.061	-0.033
-110.034	-31.148	0.262	-0.144
-109.020	11.634	-0.194	-0.145
-108.005	-101.743	0.464	0.110
-106.991	140.366	-0.135	0.174
-105.976	-55.259	0.071	-0.031
-104.962	-51.524	0.124	0.056
-103.947	340.920	-0.050	0.095
-102.932	-0.785	0.202	0.139
-101.918	-109.632	-0.148	0.030
-100.903	-59.763	-0.060	0.025
-99.889	87.019	-0.141	0.152
-98.874	-200.000	0.066	0.000
-97.859	-72.516	0.286	-0.103
-96.845	-139.472	-0.230	0.024
-95.830	-200.000	-0.020	0.194
-94.816	-60.715	0.461	0.191
-93.801	58.030	-0.199	-0.190
-92.786	32.674	0.386	0.326
-91.772	-12.520	-0.116	-0.074
-90.757	-190.231	0.438	-0.005
-89.743	-200.000	0.023	-0.172
-88.728	-200.000	-0.004	-0.094
-87.713	-93.593	0.342	-0.092
-86.699	-200.000	0.023	0.103
-85.684	105.445	-0.118	0.136
-84.670	94.512	-0.215	0.239
-83.655	-200.000	-0.012	-0.249
-82.640	800.000	0.040	-0.147
-81.626	-74.293	-0.275	0.097
-80.611	39.440	-0.055	0.048
-79.597	-200.000	-0.040	0.182
-78.582	14.546	0.176	-0.134
-77.567	395.537	-0.033	-0.068
-76.553	-166.155	-0.241	0.010
-75.538	-13.277	0.108	-0.068
-74.524	139.765	-0.073	-0.094
-73.509	192.747	0.098	-0.145
-72.494	795.699	0.053	-0.143
-71.480	-151.051	0.121	-0.009
-70.465	-70.671	0.230	-0.085
-69.451	800.000	-0.088	-0.344
-68.436	20.852	-0.084	0.066
-67.422	-92.294	-0.304	-0.084
-66.407	-139.205	-0.178	0.019
-65.392	-200.000	-0.031	0.346
-64.378	-28.643	-0.252	-0.141
-63.363	-200.000	0.007	-0.056
-62.349	110.801	-0.201	-0.236
-61.334	15.411	-1.206	-0.922
-60.319	115.026	0.662	0.788
-59.305	332.061	-0.652	-1.226
-58.290	137.964	0.906	1.157
-57.276	538.840	0.575	1.333
-56.261	-200.000	118.684	612.433
-55.246	417.978	1523.499	3173.372
-54.232	148.260	2684.403	3531.307
-53.217	91.144	2261.090	2472.921
-52.203	34.194	1875.153	1593.286
-51.188	28.945	1671.474	1380.885
-50.173	26.698	1631.442	1331.270
-49.159	45.157	1694.105	1521.584
-48.144	44.084	1707.304	1525.313
-47.130	28.314	1662.151	1368.248
-46.115	25.935	1646.538	1337.714
-45.100	25.828	1641.673	1332.919
-44.086	25.797	1639.132	1330.573
-43.071	25.723	1636.753	1328.046
-42.057	25.756	1634.311	1326.251
-41.042	25.756	1632.788	1324.963
-40.027	25.788	1631.190	1323.847
-39.013	25.726	1628.925	1321.507
-37.998	25.751	1627.500	1320.480
-36.984	25.773	1626.046	1319.406
-35.969	25.769	1625.152	1318.603
-34.954	25.812	1623.475	1317.504
-33.940	25.837	1621.364	1315.923
-32.925	25.798	1619.755	1314.280
-31.911	25.860	1618.204	1313.416
-30.896	25.874	1616.676	1312.231
-29.881	25.831	1615.075	1310.562
-28.867	25.807	1613.645	1309.174
-27.852	25.807	1612.572	1308.255
-26.838	25.880	1611.021	1307.477
-25.823	25.973	1609.512	1306.868
-24.809	25.916	1608.426	1305.521
-23.794	25.899	1607.272	1304.415
-22.779	25.937	1605.785	1303.427
-21.765	25.838	1604.398	1301.534
-20.750	25.904	1602.590	1300.491
-19.736	25.988	1600.949	1299.719
-18.721	25.931	1599.518	1298.095
-17.706	25.929	1598.786	1297.434
-16.692	25.998	1596.335	1295.887
-15.677	25.948	1595.454	1294.763
-14.663	25.944	1594.342	1293.781
-13.648	25.935	1592.606	1292.255
-12.633	25.867	1590.969	1290.390
-11.619	25.932	1589.522	1289.628
-10.604	25.945	1587.795	1288.273
-9.590	25.874	1586.723	1286.841
-8.575	25.873	1585.307	1285.634
-7.560	25.888	1584.192	1284.784
-6.546	25.958	1582.948	1284.226
-5.531	25.994	1581.828	1283.523
-4.517	25.891	1581.034	1282.097
-3.502	25.855	1580.303	1281.197
-2.487	25.953	1578.191	1280.126
-1.473	25.506	1565.918	1266.974
-0.458	22.207	1546.383	1228.109
0.556	16.674	1547.238	1194.015
1.571	14.172	1570.255	1193.736
2.586	13.739	1582.047	1199.468
3.600	12.577	1529.186	1151.160
4.615	7.101	1424.526	1036.497
5.629	1.317	1365.603	957.152
6.644	0.292	1357.837	945.194
7.659	0.192	1356.886	943.821
8.673	0.131	1355.956	942.713
9.688	0.076	1354.191	941.054
10.702	-0.033	1350.804	937.937
11.717	2.880	1354.271	958.466
12.731	9.947	1365.276	1010.513
13.746	15.609	1373.690	1052.203
14.761	16.905	1374.215	1060.620
15.775	16.233	1372.522	1055.022
16.790	15.329	1369.655	1047.082
17.804	14.467	1367.555	1040.011
18.819	14.069	1366.515	1036.647
19.834	13.869	1365.372	1034.440
20.848	13.620	1363.924	1031.703
21.863	13.415	1362.685	1029.398
22.877	13.224	1361.620	1027.318
23.892	13.218	1360.064	1026.018
24.907	13.077	1359.767	1024.827
25.921	13.223	1358.523	1024.704
26.936	13.244	1357.866	1024.243
27.950	13.245	1357.099	1023.584
28.965	13.385	1355.521	1023.169
29.980	13.334	1354.742	1022.173
30.994	13.530	1353.623	1022.451
32.009	13.514	1353.056	1021.831
33.023	13.419	1351.858	1020.252
34.038	13.353	1350.682	1018.867
35.053	13.367	1349.772	1018.178
36.067	13.349	1348.031	1016.661
37.082	13.432	1347.253	1016.496
38.096	13.375	1346.361	1015.383
39.111	13.345	1345.481	1014.448
40.126	13.273	1344.962	1013.523
41.140	13.166	1344.508	1012.438
42.155	13.192	1343.543	1011.775
43.169	13.124	1343.933	1011.564
44.184	13.267	1343.121	1011.741
45.199	13.290	1342.820	1011.565
46.213	13.250	1342.054	1010.653
47.228	13.297	1341.092	1010.127
48.242	13.266	1340.162	1009.147
49.257	13.251	1338.623	1007.807
50.271	13.332	1337.338	1007.242
51.286	13.361	1335.831	1006.196
52.301	13.256	1334.537	1004.493
53.315	13.317	1333.792	1004.216
54.330	13.310	1332.461	1003.080
55.344	13.288	1331.317	1002.000
56.359	13.180	1330.426	1000.585
57.374	13.176	1329.922	1000.095
58.388	13.198	1329.008	999.450
59.403	13.148	1328.760	998.874
60.417	13.137	1327.504	997.779
61.432	13.145	1326.648	997.094
62.447	13.192	1325.307	996.278
63.461	13.104	1324.266	994.878
64.476	13.027	1323.988	994.116
65.490	13.030	1322.402	992.860
66.505	13.196	1320.493	992.331
67.520	13.170	1319.379	991.254
68.534	13.115	1318.634	990.274
69.549	13.164	1317.445	989.587
70.563	13.146	1316.094	988.377
71.578	13.145	1314.873	987.369
72.593	13.038	1314.150	986.100
73.607	13.073	1313.600	985.807
74.622	12.971	1312.560	984.331
75.636	13.046	1311.799	984.118
76.651	13.088	1311.065	983.731
77.666	12.996	1310.756	982.865
78.680	13.105	1309.960	982.833
79.695	13.109	1309.291	982.264
80.709	13.140	1308.130	981.491
81.724	13.251	1307.164	981.343
82.739	13.188	1306.976	980.738
83.753	13.246	1305.312	979.748
84.768	13.273	1304.850	979.475
85.782	13.342	1303.235	978.580
86.797	13.301	1302.210	977.481
87.812	13.270	1301.168	976.430
88.826	13.185	1300.045	974.998
89.841	13.248	1299.315	974.740
90.855	13.350	1298.120	974.358
91.870	13.371	1297.233	973.729
92.884	13.259	1296.701	972.586
93.899	13.426	1295.751	972.766
94.914	13.428	1294.927	972.073
95.928	13.296	1294.314	970.756
96.943	13.291	1293.291	969.871
97.957	13.336	1292.566	969.506
98.972	13.304	1291.084	968.120
99.987	13.347	1290.135	967.574
101.001	13.386	1289.028	966.888
102.016	13.443	1287.848	966.250
103.030	13.383	1286.863	965.075
104.045	13.286	1286.460	964.120
105.060	13.344	1284.790	963.121
106.074	13.156	1283.728	961.146
107.089	13.218	1282.215	960.289
108.103	13.155	1281.150	959.041
109.118	13.228	1279.593	958.216
110.133	13.127	1278.898	957.026
111.147	13.225	1277.361	956.353
112.162	13.324	1275.711	955.607
113.176	13.251	1274.362	954.092
114.191	13.211	1273.638	953.236
115.206	13.337	1272.677	953.158
116.220	13.337	1271.455	952.157
117.235	13.189	1270.808	950.738
118.249	13.285	1269.693	950.372
119.264	13.261	1268.028	948.904
120.279	13.227	1267.528	948.252
121.293	13.204	1266.620	947.356
122.308	13.187	1265.581	946.393
123.322	13.307	1264.312	946.050
124.337	13.137	1263.426	944.331
125.352	13.232	1262.218	943.889
126.366	13.244	1260.900	942.886
127.381	13.255	1259.832	942.069
128.395	13.194	1258.845	940.899
129.410	13.184	1258.029	940.147
130.424	13.215	1257.399	939.771
131.439	13.262	1256.558	939.328
132.454	13.262	1255.466	938.430
133.468	13.276	1254.747	937.889
134.483	13.237	1253.935	936.973
135.497	13.249	1252.578	935.947
136.512	13.261	1251.573	935.180
137.527	13.282	1249.769	933.868
138.541	13.225	1248.849	932.775
139.556	13.262	1247.840	932.151
140.570	13.301	1246.779	931.493
141.585	13.382	1245.460	930.883
142.600	13.437	1244.336	930.267
143.614	13.428	1243.335	929.385
144.629	13.467	1242.438	928.854
145.643	13.416	1241.256	927.601
146.658	13.526	1239.732	926.996
147.673	13.339	1238.933	925.269
148.687	13.367	1237.403	924.203
149.702	13.405	1235.708	923.068
150.716	13.410	1234.168	921.865
151.731	13.322	1233.561	920.839
152.746	13.385	1232.164	920.064
153.760	13.383	1231.101	919.177
154.775	13.444	1230.099	918.684
155.789	13.473	1229.161	918.068
156.804	13.441	1228.007	916.945
157.819	13.544	1226.900	916.607
158.833	13.610	1225.793	916.064
159.848	13.552	1225.250	915.260
160.862	13.492	1224.000	913.911
161.877	13.422	1222.705	912.479
162.892	13.467	1221.263	911.570
163.906	13.500	1220.547	911.135
164.921	13.519	1219.589	910.444
165.935	13.489	1219.199	909.908
166.950	13.539	1218.066	909.255
167.964	13.536	1217.676	908.868
168.979	13.598	1216.637	908.351
169.994	13.543	1216.564	907.916
171.008	13.628	1215.299	907.356
172.023	13.564	1214.684	906.465
173.037	13.609	1214.005	906.127
174.052	13.629	1212.791	905.248
175.067	13.512	1211.665	903.688
176.081	13.599	1210.491	903.210
177.096	13.563	1210.027	902.588
178.110	13.665	1208.477	901.903
179.125	13.601	1207.353	900.636
180.140	13.560	1206.331	899.576
181.154	13.672	1205.327	899.353
182.169	13.732	1203.607	898.313
183.183	13.645	1203.116	897.398
184.198	13.806	1201.231	896.781
185.213	13.871	1200.578	896.568
186.227	13.919	1199.062	895.613
187.242	13.779	1198.670	894.488
188.256	13.915	1197.451	894.234
189.271	13.822	1196.609	893.025
190.286	13.786	1195.659	892.041
191.300	13.657	1195.122	890.870
192.315	13.548	1194.363	889.636
193.329	13.809	1193.517	890.330
194.344	13.659	1193.072	889.116
195.359	13.741	1192.391	888.969
196.373	13.854	1191.626	888.926
197.388	13.889	1191.373	888.844
198.402	13.895	1191.116	888.607
199.417	13.950	1190.362	888.261
200.432	13.914	1189.262	887.170
201.446	14.100	1188.152	887.251
202.461	14.099	1187.014	886.322
203.475	14.091	1186.108	885.524
204.490	14.190	1185.001	885.143
205.504	14.013	1183.781	883.212
206.519	14.004	1183.023	882.525
207.534	14.028	1181.817	881.674
208.548	14.039	1180.908	880.975
209.563	14.059	1180.165	880.447
210.577	14.096	1179.134	879.795
211.592	14.085	1178.464	879.161
212.607	14.238	1177.411	879.103
213.621	14.210	1176.689	878.339
214.636	14.082	1175.547	876.734
215.650	14.253	1174.829	877.026
216.665	14.290	1173.794	876.371
217.680	14.282	1173.256	875.848
218.694	14.300	1172.317	875.166
219.709	14.268	1171.578	874.367
220.723	14.237	1170.976	873.678
221.738	14.304	1170.094	873.295
222.753	14.252	1169.197	872.274
223.767	14.229	1168.531	871.579
224.782	14.386	1168.231	872.098
225.796	14.395	1167.295	871.373
226.811	14.434	1166.478	870.887
227.826	14.407	1166.400	870.610
228.840	14.425	1165.120	869.671
229.855	14.354	1164.841	869.020
230.869	14.395	1163.783	868.366
231.884	14.261	1163.288	867.220
232.899	14.275	1162.178	866.389
233.913	14.354	1161.244	866.025
234.928	14.412	1160.489	865.687
235.942	14.355	1160.030	864.972
236.957	14.252	1159.426	863.914
237.972	14.388	1158.461	863.823
238.986	14.421	1157.768	863.401
240.001	14.370	1157.558	862.903
241.015	14.403	1156.387	862.124
242.030	14.450	1155.667	861.754
243.045	14.577	1154.752	861.653
244.059	14.502	1153.970	860.603
245.074	14.505	1153.320	860.060
246.088	14.601	1152.414	859.802
247.103	14.618	1151.497	859.127
248.117	14.654	1150.703	858.646
249.132	14.667	1150.167	858.235
250.147	14.788	1149.513	858.296
251.161	14.749	1148.808	857.491
252.176	14.805	1148.210	857.255
253.190	14.874	1147.096	856.704
254.205	14.857	1147.276	856.673
255.220	14.807	1146.721	855.927
256.234	14.909	1145.675	855.593
257.249	14.827	1145.223	854.763
258.263	14.902	1144.330	854.405
259.278	14.912	1143.722	853.922
260.293	14.956	1143.178	853.666
261.307	15.033	1142.648	853.589
262.322	15.018	1141.917	852.889
263.336	14.957	1141.484	852.178
264.351	14.984	1140.710	851.665
265.366	15.107	1139.774	851.514
266.380	15.075	1139.316	850.937
267.395	14.989	1138.472	849.794
268.409	15.014	1138.018	849.505
269.424	15.054	1137.103	848.952
270.439	15.029	1136.842	848.557
271.453	15.128	1135.923	848.297
272.468	15.100	1134.721	847.179
273.482	15.103	1133.883	846.494
274.497	15.012	1134.315	846.283
275.512	15.056	1133.338	845.703
276.526	15.102	1132.471	845.210
277.541	15.126	1131.704	844.688
278.555	15.119	1131.015	844.061
279.570	15.123	1130.313	843.484
280.585	15.240	1129.612	843.475
281.599	15.255	1128.320	842.508
282.614	15.285	1127.283	841.812
283.628	15.241	1126.260	840.752
284.643	15.185	1125.391	839.750
285.657	15.283	1124.569	839.551
286.672	15.206	1123.935	838.616
287.687	15.343	1122.673	838.286
288.701	15.269	1122.204	837.493
289.716	15.440	1121.090	837.442
290.730	15.364	1120.878	836.830
291.745	15.352	1120.343	836.299
292.760	15.384	1119.301	835.604
293.774	15.476	1118.756	835.583
294.789	15.379	1118.429	834.780
295.803	15.424	1117.575	834.290
296.818	15.426	1117.105	833.879
297.833	15.428	1116.272	833.192
298.847	15.417	1115.354	832.380
299.862	15.463	1114.497	831.892
300.876	15.520	1113.998	831.730
301.891	15.636	1113.171	831.611
302.906	15.543	1112.659	830.696
303.920	15.535	1112.423	830.408
304.935	15.665	1111.224	830.080
305.949	15.659	1110.701	829.589
306.964	15.715	1110.291	829.485
307.979	15.654	1109.142	828.252
308.993	15.754	1108.484	828.180
310.008	15.888	1107.225	827.824
311.022	15.756	1106.831	826.806
312.037	15.729	1106.366	826.257
313.052	15.735	1105.473	825.545
314.066	15.680	1104.562	824.523
315.081	15.691	1103.667	823.832
316.095	15.769	1102.793	823.491
317.110	15.737	1102.146	822.779
318.125	15.653	1101.538	821.839
319.139	15.701	1100.943	821.557
320.154	15.563	1100.561	820.528
321.168	15.567	1100.032	820.078
322.183	15.866	1098.708	820.476
323.197	15.821	1098.260	819.850
324.212	15.739	1097.718	818.973
325.227	15.719	1097.404	818.571
326.241	15.770	1096.521	818.089
327.256	15.771	1095.453	817.221
328.270	15.778	1094.500	816.473
329.285	15.960	1093.463	816.509
330.300	15.777	1093.041	815.235
331.314	15.838	1091.902	814.608
332.329	15.770	1091.092	813.602
333.343	15.843	1090.274	813.277
334.358	15.929	1089.341	812.922
335.373	15.997	1088.739	812.728
336.387	15.983	1088.082	812.102
337.402	16.010	1087.361	811.618
338.416	15.842	1086.812	810.330
339.431	16.037	1085.766	810.413
340.446	16.049	1085.212	809.989
341.460	16.144	1084.346	809.727
342.475	16.085	1083.823	808.981
343.489	16.209	1082.779	808.726
344.504	16.274	1082.114	808.468
345.519	16.186	1081.170	807.270
346.533	16.283	1080.224	806.953
347.548	16.259	1079.904	806.531
348.562	16.372	1078.597	806.021
349.577	16.257	1078.180	805.088
350.592	16.170	1077.433	804.048
351.606	16.346	1076.310	803.976
352.621	16.229	1076.032	803.141
353.635	16.184	1075.556	802.501
354.650	16.262	1074.781	802.219
355.665	16.297	1073.926	801.676
356.679	16.292	1073.565	801.316
357.694	16.367	1072.424	800.748
358.708	16.360	1071.864	800.227
359.723	16.420	1071.481	800.151
360.738	16.334	1070.814	799.176
361.752	16.350	1070.673	799.074
362.767	16.420	1069.466	798.433
363.781	16.423	1069.271	798.233
364.796	16.434	1068.494	797.634
365.810	16.498	1068.039	797.525
366.825	16.475	1067.290	796.787
367.840	16.468	1067.142	796.573
368.854	16.504	1066.469	796.171
369.869	16.586	1065.473	795.744
370.883	16.621	1064.450	795.070
371.898	16.683	1063.944	794.917
372.913	16.550	1063.464	793.862
373.927	16.610	1062.912	793.660
374.942	16.523	1062.678	793.008
375.956	16.588	1062.161	792.856
376.971	16.611	1061.374	792.306
377.986	16.563	1060.673	791.489
379.000	16.723	1059.890	791.580
380.015	16.828	1059.376	791.617
381.029	16.753	1058.780	790.753
382.044	16.924	1058.030	790.919
383.059	16.803	1057.692	790.034
384.073	16.750	1056.775	789.031
385.088	16.852	1055.668	788.609
386.102	16.760	1055.056	787.656
387.117	16.976	1053.474	787.407
388.132	16.798	1052.887	786.071
389.146	16.855	1052.463	785.952
390.161	16.818	1051.626	785.084
391.175	16.880	1051.037	784.864
392.190	16.861	1050.520	784.321
393.205	16.943	1049.744	784.048
394.219	16.835	1049.218	783.090
395.234	16.902	1048.175	782.553
396.248	16.973	1046.942	781.886
397.263	16.956	1045.856	780.931
398.278	16.954	1045.481	780.573
399.292	16.919	1044.619	779.699
400.307	16.787	1044.470	778.913
401.321	16.938	1043.542	778.843
402.336	16.966	1042.831	778.370
403.350	16.969	1042.058	777.738
404.365	17.029	1041.516	777.540
405.380	17.026	1040.636	776.804
406.394	16.972	1040.265	776.208
407.409	17.037	1039.373	775.774
408.423	17.183	1038.262	775.543
409.438	17.242	1037.621	775.263
410.453	17.236	1037.245	774.888
411.467	17.210	1036.340	774.024
412.482	17.254	1035.694	773.673
413.496	17.315	1034.906	773.293
414.511	17.344	1034.817	773.290
415.526	17.305	1034.310	772.663
416.540	17.302	1033.741	772.160
417.555	17.345	1033.167	771.856
418.569	17.339	1032.851	771.524
419.584	17.294	1032.127	770.714
420.599	17.453	1031.459	770.863
421.613	107.353	1327.018	1484.483
422.628	98.303	1370.053	1484.561
