DTS Sentinel unit serial number:	SN413079Multiplexer serial number:	ORYXHardware model number:	OX4-SRSoftware version number:	ORYX F/W v4.00 Oryx Data Collector v3.7.2.0data status	okinstallation	princeton_trtdifferential loss correction	single-endedforward channel	channel 2reverse channel	N/Adate	2019/09/14time	10:23:34forward acquisition time	60.00reverse acquisition time	0.00gamma	496.2192k internal	0.2316k external	0.2316temperature offset calibration	1.0139default loss term (dB/km)	0.3790temperature slope calibration	1.0000multiplexer offset coefficient	1.0000multiplexer slope coefficient	1.0000fibre end	0.00T internal ref (°C)	34.42T ext. ref 1 (°C)	4.15T ext. ref 2 (°C)	32.83length (m)	temperature (°C)	Stokes	anti-Stokes-747.200	-44.508	-0.147	-0.074
-746.185	735.894	-0.158	0.430
-745.171	21.158	0.425	0.350
-744.156	390.197	0.107	-0.225
-743.142	-197.420	0.327	-0.002
-742.127	-39.920	0.177	0.093
-741.112	-120.002	0.398	0.069
-740.098	800.000	-0.021	0.078
-739.083	800.000	-0.038	0.125
-738.069	-200.000	-0.011	0.185
-737.054	800.000	-0.080	0.250
-736.039	-139.400	-0.083	-0.009
-735.025	440.212	0.049	-0.108
-734.010	-114.632	0.134	0.026
-732.996	452.838	0.018	0.040
-731.981	-186.386	0.163	-0.002
-730.966	368.663	-0.136	-0.279
-729.952	-88.902	-0.344	-0.103
-728.937	-74.072	-0.185	0.068
-727.923	-200.000	-0.069	-0.350
-726.908	-41.891	-0.131	-0.068
-725.894	-200.000	0.030	0.272
-724.879	71.245	-0.241	-0.253
-723.864	351.991	0.080	0.161
-722.850	0.873	-0.164	-0.119
-721.835	800.000	0.033	0.100
-720.821	-200.000	-0.023	-0.274
-719.806	-8.951	-0.141	-0.095
-718.791	-179.795	0.340	-0.007
-717.777	161.000	-0.055	0.077
-716.762	-163.811	0.244	0.012
-715.748	-171.114	0.251	0.009
-714.733	-113.131	-0.247	-0.049
-713.718	800.000	0.038	-0.137
-712.704	231.163	-0.122	-0.202
-711.689	-200.000	0.011	0.294
-710.675	32.184	0.131	-0.114
-709.660	-200.000	0.063	0.318
-708.645	-200.000	0.023	-0.139
-707.631	-200.000	-0.036	-0.238
-706.616	525.925	0.118	0.280
-705.602	35.604	-0.305	0.271
-704.587	-122.971	-0.107	-0.017
-703.572	-200.000	0.031	-0.189
-702.558	107.121	0.213	0.257
-701.543	136.990	-0.287	-0.380
-700.529	-30.879	-0.115	-0.066
-699.514	-78.645	-0.147	-0.051
-698.499	73.001	-0.357	-0.377
-697.485	-108.056	-0.201	-0.044
-696.470	-43.832	-0.217	-0.111
-695.456	-138.086	-0.117	-0.013
-694.441	-141.598	-0.054	0.005
-693.426	-76.470	0.066	-0.023
-692.412	800.000	0.021	-0.079
-691.397	-49.080	-0.166	-0.081
-690.383	-200.000	-0.012	0.246
-689.368	-200.000	-0.342	0.001
-688.354	800.000	-0.029	0.117
-687.339	-200.000	0.004	-0.077
-686.324	800.000	0.070	0.207
-685.310	-141.479	0.363	0.037
-684.295	800.000	-0.099	0.356
-683.281	-200.000	-0.003	0.170
-682.266	-126.087	0.169	-0.026
-681.251	174.283	0.046	-0.068
-680.237	557.163	0.087	-0.212
-679.222	225.811	0.051	0.083
-678.208	-148.788	-0.301	0.025
-677.193	-9.816	0.148	-0.100
-676.178	-145.704	0.227	-0.020
-675.164	385.654	0.124	-0.260
-674.149	800.000	-0.012	0.051
-673.135	-115.538	-0.212	-0.040
-672.120	274.900	-0.290	-0.518
-671.105	-152.871	-0.182	-0.013
-670.091	25.761	-0.284	-0.239
-669.076	-200.000	0.063	-0.423
-668.062	59.750	0.165	-0.165
-667.047	211.064	0.121	0.193
-666.032	60.166	0.055	-0.055
-665.018	-48.592	0.311	-0.151
-664.003	-25.585	0.214	0.128
-662.989	205.716	-0.337	-0.529
-661.974	31.346	-0.120	-0.104
-660.959	24.478	-0.073	-0.061
-659.945	-200.000	-0.037	0.163
-658.930	50.355	0.145	-0.138
-657.916	800.000	0.036	-0.116
-656.901	85.686	-0.203	0.226
-655.886	-94.941	0.201	0.055
-654.872	671.413	-0.032	0.083
-653.857	-46.826	0.306	-0.151
-652.843	625.205	-0.090	0.229
-651.828	256.294	0.198	-0.343
-650.814	-33.262	0.227	-0.127
-649.799	217.997	0.051	0.082
-648.784	-200.000	-0.005	0.254
-647.770	800.000	-0.051	0.202
-646.755	54.357	-0.081	0.079
-645.741	-200.000	-0.005	-0.073
-644.726	-200.000	-0.023	-0.177
-643.711	125.225	0.074	-0.094
-642.697	424.573	0.110	-0.239
-641.682	-200.000	0.022	-0.278
-640.668	256.220	0.186	-0.322
-639.653	-200.000	-0.019	-0.222
-638.638	189.793	-0.135	-0.204
-637.624	-200.000	0.031	0.155
-636.609	320.296	0.218	0.418
-635.595	800.000	0.049	-0.144
-634.580	-1.893	-0.267	0.189
-633.565	76.449	-0.184	0.196
-632.551	150.056	0.055	-0.075
-631.536	210.158	-0.131	0.207
-630.522	138.905	-0.112	-0.148
-629.507	800.000	-0.032	-0.129
-628.492	-17.704	0.031	-0.020
-627.478	383.128	-0.099	-0.206
-626.463	176.572	-0.157	0.230
-625.449	15.433	-0.203	-0.160
-624.434	-178.373	-0.107	0.003
-623.419	-90.999	-0.334	-0.097
-622.405	-21.737	-0.171	0.105
-621.390	120.947	-0.168	-0.211
-620.376	374.829	0.066	0.135
-619.361	98.286	0.198	-0.230
-618.346	572.882	0.119	-0.292
-617.332	-33.401	0.205	0.114
-616.317	-200.000	0.023	0.139
-615.303	670.825	0.066	0.172
-614.288	66.951	0.225	0.231
-613.273	-27.886	0.255	-0.149
-612.259	182.032	-0.155	0.231
-611.244	-200.000	0.010	-0.229
-610.230	81.681	0.052	0.056
-609.215	146.092	-0.169	-0.229
-608.201	147.599	0.146	-0.198
-607.186	-14.577	-0.387	0.251
-606.171	800.000	0.025	0.071
-605.157	94.201	0.171	-0.195
-604.142	394.402	0.043	0.091
-603.128	-31.562	0.304	-0.172
-602.113	-200.000	-0.001	-0.074
-601.098	-177.195	0.154	-0.004
-600.084	419.975	0.063	0.136
-599.069	-165.874	0.172	0.007
-598.055	-67.901	0.369	-0.145
-597.040	216.257	0.127	-0.204
-596.025	-55.303	-0.116	-0.052
-595.011	116.025	0.137	-0.169
-593.996	-200.000	0.028	-0.331
-592.982	230.250	-0.110	0.182
-591.967	33.371	-0.101	0.088
-590.952	90.598	0.042	0.048
-589.938	-200.000	-0.014	-0.064
-588.923	800.000	0.051	0.204
-587.909	-113.743	0.035	0.007
-586.894	800.000	0.044	0.126
-585.879	800.000	0.071	0.235
-584.865	-200.000	-0.002	0.144
-583.850	11.231	-0.102	-0.079
-582.836	1.582	0.072	0.052
-581.821	307.991	-0.155	0.292
-580.806	3.729	-0.079	0.058
-579.792	-77.158	0.392	0.137
-578.777	-200.000	0.001	0.077
-577.763	800.000	0.092	0.274
-576.748	-14.616	-0.093	0.060
-575.733	173.940	0.079	0.115
-574.719	42.318	-0.286	-0.262
-573.704	-200.000	-0.036	-0.344
-572.690	-77.049	0.060	0.021
-571.675	800.000	0.068	0.297
-570.661	68.344	-0.050	0.052
-569.646	800.000	0.137	0.468
-568.631	4.845	0.237	-0.176
-567.617	-200.000	-0.190	0.001
-566.602	-200.000	0.023	-0.192
-565.588	-200.000	0.050	-0.283
-564.573	9.082	-0.090	0.068
-563.558	-58.982	0.187	-0.081
-562.544	78.285	0.202	0.217
-561.529	249.904	-0.053	-0.090
-560.515	179.016	0.149	-0.218
-559.500	-33.392	-0.392	-0.218
-558.485	-200.000	-0.045	-0.490
-557.471	43.132	0.048	0.044
-556.456	-200.000	-0.045	-0.488
-555.442	96.913	0.166	-0.192
-554.427	-200.000	-0.002	0.052
-553.412	-19.649	-0.109	-0.068
-552.398	800.000	-0.117	-0.406
-551.383	-159.215	-0.018	-0.001
-550.369	60.916	-0.268	-0.267
-549.354	-32.263	0.248	-0.139
-548.339	25.178	0.261	-0.218
-547.325	-200.000	0.015	0.106
-546.310	-200.000	0.023	0.279
-545.296	800.000	-0.115	-0.343
-544.281	-172.181	0.161	0.005
-543.266	800.000	-0.119	0.375
-542.252	86.919	0.201	-0.224
-541.237	561.724	-0.140	0.341
-540.223	0.504	-0.093	0.067
-539.208	-116.799	-0.071	-0.013
-538.193	-117.758	-0.139	-0.025
-537.179	281.503	-0.044	-0.080
-536.164	800.000	-0.044	0.189
-535.150	-183.559	-0.240	0.004
-534.135	-106.601	0.038	0.009
-533.121	-200.000	0.033	-0.363
-532.106	-193.654	-0.174	0.001
-531.091	800.000	0.060	-0.198
-530.077	-156.945	0.265	0.016
-529.062	-79.659	-0.134	0.045
-528.048	-93.752	-0.093	0.026
-527.033	314.255	0.102	-0.193
-526.018	461.143	0.063	-0.140
-525.004	86.520	-0.150	-0.166
-523.989	-200.000	0.009	-0.188
-522.975	174.383	-0.112	-0.163
-521.960	-200.000	-0.026	-0.340
-520.945	-120.999	0.190	0.032
-519.931	-63.004	-0.072	0.030
-518.916	182.595	-0.065	-0.096
-517.902	-31.077	-0.184	0.104
-516.887	-200.000	0.002	-0.145
-515.872	7.856	0.215	-0.162
-514.858	-62.228	-0.164	0.069
-513.843	-123.505	-0.333	0.053
-512.829	-200.000	-0.011	-0.080
-511.814	-50.876	0.123	-0.058
-510.799	-109.216	-0.159	-0.034
-509.785	75.062	-0.224	0.237
-508.770	372.031	-0.097	0.198
-507.756	-200.000	0.002	0.017
-506.741	-30.449	0.139	-0.079
-505.726	579.889	-0.136	0.333
-504.712	-200.000	0.015	-0.206
-503.697	798.915	-0.070	0.194
-502.683	413.129	-0.124	0.265
-501.668	-200.000	-0.021	-0.115
-500.653	135.650	-0.203	-0.265
-499.639	263.573	-0.172	0.299
-498.624	-103.624	0.208	-0.049
-497.610	-160.610	0.208	0.011
-496.595	800.000	-0.114	0.345
-495.581	244.415	-0.104	-0.175
-494.566	-97.070	-0.310	0.081
-493.551	14.034	-0.222	0.174
-492.537	524.768	0.097	0.228
-491.522	212.532	-0.247	0.392
-490.508	-197.512	0.190	-0.001
-489.493	800.000	-0.121	-0.369
-488.478	-200.000	-0.010	0.126
-487.464	-111.145	-0.336	0.069
-486.449	-131.319	0.018	0.002
-485.435	-200.000	0.014	0.226
-484.420	511.943	-0.088	0.205
-483.405	-200.000	0.090	0.546
-482.391	-114.414	0.255	-0.049
-481.376	360.230	0.043	-0.086
-480.362	-101.710	-0.308	0.075
-479.347	110.368	-0.229	0.275
-478.332	-200.000	-0.000	-0.058
-477.318	-47.733	0.114	0.055
-476.303	800.000	-0.051	-0.171
-475.289	-22.035	-0.059	0.036
-474.274	800.000	-0.060	-0.190
-473.259	85.006	0.034	0.037
-472.245	-200.000	0.046	-0.370
-471.230	-200.000	-0.005	0.211
-470.216	-146.203	0.175	0.015
-469.201	149.667	0.202	-0.274
-468.186	-95.819	0.103	-0.027
-467.172	-150.516	-0.102	-0.008
-466.157	-38.964	-0.117	0.062
-465.143	-1.571	-0.086	-0.060
-464.128	62.985	0.068	0.069
-463.113	86.538	-0.076	0.083
-462.099	34.622	0.421	0.369
-461.084	800.000	-0.066	0.194
-460.070	-7.318	-0.220	0.149
-459.055	152.900	0.064	-0.088
-458.040	-145.452	-0.079	-0.007
-457.026	-97.553	-0.109	0.028
-456.011	37.177	-0.141	-0.125
-454.997	-79.989	0.158	-0.053
-453.982	-22.766	-0.059	0.036
-452.968	146.975	-0.067	-0.091
-451.953	-200.000	0.036	0.238
-450.938	-200.000	-0.001	-0.143
-449.924	800.000	-0.055	0.162
-448.909	800.000	0.142	0.444
-447.895	-15.234	-0.193	-0.123
-446.880	4.412	0.286	0.210
-445.865	-200.000	0.036	-0.321
-444.851	402.165	0.022	0.045
-443.836	-200.000	-0.019	-0.108
-442.822	800.000	-0.046	-0.177
-441.807	37.928	-0.204	0.182
-440.792	-170.188	0.205	-0.007
-439.778	-95.616	-0.038	0.010
-438.763	-200.000	-0.020	0.121
-437.749	12.703	-0.266	0.205
-436.734	-129.388	0.061	0.008
-435.719	681.728	-0.128	-0.335
-434.705	-200.000	-0.040	0.308
-433.690	10.446	0.161	-0.123
-432.676	103.050	-0.119	0.140
-431.661	85.770	-0.141	-0.155
-430.646	-26.577	0.083	0.049
-429.632	800.000	0.083	-0.231
-428.617	193.221	0.284	0.430
-427.603	53.359	0.096	-0.092
-426.588	95.534	0.143	0.164
-425.573	-94.971	-0.075	-0.020
-424.559	182.383	0.128	-0.190
-423.544	800.000	-0.016	-0.052
-422.530	225.930	0.203	0.329
-421.515	83.770	-0.208	0.227
-420.500	776.749	0.098	0.267
-419.486	-68.211	-0.154	-0.060
-418.471	-4.754	0.240	-0.165
-417.457	188.032	0.112	0.167
-416.442	800.000	-0.135	-0.385
-415.428	26.194	0.233	-0.194
-414.413	32.240	-0.320	-0.276
-413.398	210.860	0.051	-0.080
-412.384	800.000	-0.060	-0.202
-411.369	297.211	-0.094	-0.172
-410.355	-143.301	-0.120	-0.012
-409.340	800.000	-0.078	-0.272
-408.325	205.151	-0.143	0.223
-407.311	-200.000	0.038	0.314
-406.296	-158.268	0.122	-0.007
-405.282	5.819	0.195	0.144
-404.267	-64.245	-0.326	0.133
-403.252	-58.504	0.071	-0.031
-402.238	-200.000	0.020	0.124
-401.223	-200.000	-0.002	-0.243
-400.209	-55.101	-0.058	0.026
-399.194	-143.936	-0.356	-0.034
-398.179	-200.000	-0.002	-0.116
-397.165	-39.204	0.191	-0.100
-396.150	-84.117	-0.198	-0.063
-395.136	-170.278	-0.274	-0.010
-394.121	-134.326	-0.106	-0.013
-393.106	-12.554	0.103	-0.067
-392.092	-93.413	-0.136	0.038
-391.077	-47.030	-0.149	-0.073
-390.063	800.000	0.063	-0.194
-389.048	1.684	-0.169	0.122
-388.033	149.364	0.203	0.275
-387.019	-128.359	-0.267	-0.038
-386.004	-65.997	-0.064	-0.026
-384.990	-164.944	0.096	-0.004
-383.975	-200.000	-0.002	-0.059
-382.960	-200.000	0.008	0.134
-381.946	-110.759	0.291	0.060
-380.931	-200.000	0.030	-0.149
-379.917	38.735	0.018	-0.016
-378.902	-29.530	-0.200	-0.114
-377.888	-200.000	0.002	0.079
-376.873	314.375	-0.128	-0.240
-375.858	95.685	0.077	-0.088
-374.844	57.602	0.115	-0.112
-373.829	-109.168	-0.349	0.074
-372.815	-70.213	0.215	0.082
-371.800	800.000	-0.086	0.338
-370.785	-95.169	0.155	0.042
-369.771	-125.461	0.070	-0.011
-368.756	-61.827	-0.063	-0.026
-367.742	99.808	-0.096	0.111
-366.727	-114.999	-0.134	0.026
-365.712	-200.000	-0.023	-0.328
-364.698	332.944	-0.041	0.080
-363.683	177.284	-0.246	-0.358
-362.669	-4.238	0.133	0.092
-361.654	-40.363	-0.392	0.203
-360.639	-166.253	-0.063	0.003
-359.625	-89.702	0.211	-0.062
-358.610	185.830	0.157	0.233
-357.596	-34.904	0.129	0.070
-356.581	800.000	-0.091	0.362
-355.566	-97.356	-0.250	0.065
-354.552	-160.369	0.083	-0.004
-353.537	-200.000	0.088	0.000
-352.523	-176.522	-0.219	-0.006
-351.508	136.753	-0.136	-0.178
-350.493	800.000	-0.092	-0.323
-349.479	468.194	-0.069	-0.155
-348.464	25.697	-0.170	0.141
-347.450	92.691	0.209	0.236
-346.435	800.000	0.087	-0.258
-345.420	800.000	0.047	-0.204
-344.406	234.389	0.165	-0.270
-343.391	326.764	0.155	0.295
-342.377	-200.000	-0.370	-0.000
-341.362	-170.628	-0.154	-0.005
-340.348	17.885	-0.246	-0.195
-339.333	-80.059	0.165	0.055
-338.318	6.959	-0.131	-0.097
-337.304	147.387	0.146	-0.196
-336.289	43.667	0.118	0.107
-335.275	800.000	-0.042	0.128
-334.260	-200.000	-0.029	0.274
-333.245	5.695	-0.139	-0.102
-332.231	-94.907	-0.127	-0.034
-331.216	82.927	0.031	0.034
-330.202	-110.893	-0.326	0.067
-329.187	190.472	0.045	-0.068
-328.172	-200.000	0.046	-0.247
-327.158	-200.000	0.048	0.227
-326.143	-43.443	0.095	0.048
-325.129	76.333	0.114	0.120
-324.114	800.000	0.121	0.441
-323.099	601.884	0.013	0.032
-322.085	-125.236	-0.239	-0.036
-321.070	539.652	0.129	-0.306
-320.056	-69.979	-0.115	0.044
-319.041	-6.077	0.221	-0.150
-318.026	144.071	0.376	-0.500
-317.012	-200.000	0.010	-0.043
-315.997	800.000	0.097	0.341
-314.983	88.804	0.067	-0.074
-313.968	-200.000	0.006	-0.124
-312.953	-82.876	-0.311	-0.100
-311.939	800.000	-0.096	-0.316
-310.924	-187.454	-0.155	-0.002
-309.910	71.594	0.152	0.157
-308.895	456.569	0.073	-0.162
-307.880	36.722	0.154	-0.135
-306.866	-200.000	0.000	-0.038
-305.851	323.809	0.077	-0.147
-304.837	111.566	0.161	-0.193
-303.822	-108.621	-0.193	0.041
-302.807	-56.976	-0.166	-0.073
-301.793	-78.945	0.430	0.146
-300.778	800.000	0.077	0.272
-299.764	-200.000	0.024	-0.335
-298.749	-74.348	-0.149	0.053
-297.735	-136.992	-0.112	0.013
-296.720	568.937	0.119	-0.289
-295.705	800.000	-0.086	0.260
-294.691	83.769	0.075	-0.081
-293.676	139.309	0.142	-0.186
-292.662	263.938	0.047	0.082
-291.647	-165.640	0.323	-0.014
-290.632	355.643	-0.109	0.215
-289.618	-124.165	0.106	-0.016
-288.603	161.593	0.229	0.319
-287.589	43.453	-0.150	0.136
-286.574	-200.000	-0.024	-0.116
-285.559	297.019	0.098	0.179
-284.545	178.341	-0.128	0.185
-283.530	355.176	0.327	-0.648
-282.516	-145.787	-0.547	-0.048
-281.501	378.769	0.077	0.157
-280.486	76.341	0.090	0.095
-279.472	271.199	0.065	-0.114
-278.457	-200.000	-0.056	-0.370
-277.443	99.167	0.148	0.170
-276.428	475.242	-0.095	0.214
-275.413	118.098	0.069	-0.085
-274.399	26.899	-0.239	0.199
-273.384	-93.508	0.145	0.040
-272.370	98.107	-0.091	0.104
-271.355	175.461	0.030	-0.043
-270.340	25.929	0.150	0.124
-269.326	106.193	-0.024	0.028
-268.311	-200.000	-0.057	0.272
-267.297	12.939	0.226	-0.174
-266.282	114.101	0.165	0.199
-265.267	-115.985	0.302	-0.056
-264.253	144.656	0.106	0.141
-263.238	800.000	-0.141	0.413
-262.224	-196.809	0.273	0.002
-261.209	-163.131	0.080	-0.004
-260.195	-104.255	-0.231	0.053
-259.180	45.104	-0.349	0.319
-258.165	-200.000	-0.022	-0.231
-257.151	-47.360	0.284	-0.137
-256.136	-41.177	-0.234	0.120
-255.122	0.639	0.222	-0.158
-254.107	201.712	0.058	0.089
-253.092	800.000	-0.076	0.219
-252.078	-200.000	-0.036	-0.194
-251.063	553.293	-0.103	0.245
-250.049	268.254	0.163	0.284
-249.034	800.000	0.077	0.262
-248.019	-99.764	-0.043	0.011
-247.005	114.856	-0.225	0.273
-245.990	-104.537	-0.299	-0.069
-244.976	97.936	0.227	0.259
-243.961	800.000	0.070	-0.225
-242.946	-74.259	0.310	0.111
-241.932	800.000	0.103	-0.285
-240.917	-200.000	0.038	-0.334
-239.903	353.004	-0.085	0.168
-238.888	-155.849	-0.237	0.015
-237.873	-200.000	-0.014	0.360
-236.859	800.000	0.078	0.222
-235.844	419.481	-0.133	0.283
-234.830	-16.453	0.146	0.092
-233.815	67.606	0.129	-0.131
-232.800	-200.000	0.004	0.140
-231.786	-200.000	-0.016	0.211
-230.771	-200.000	-0.010	0.226
-229.757	-120.877	0.100	-0.017
-228.742	-200.000	0.012	-0.149
-227.727	43.230	0.127	0.116
-226.713	-110.399	-0.293	-0.060
-225.698	-37.085	0.323	-0.172
-224.684	83.131	0.108	0.117
-223.669	-145.158	0.114	0.010
-222.655	800.000	-0.098	0.295
-221.640	-200.000	-0.059	-0.335
-220.625	-200.000	-0.053	0.289
-219.611	-139.504	0.099	-0.011
-218.596	134.153	0.092	0.118
-217.582	184.175	-0.079	0.115
-216.567	547.281	-0.002	-0.005
-215.552	23.517	0.070	0.057
-214.538	191.191	-0.150	0.224
-213.523	-62.018	-0.181	-0.075
-212.509	77.846	0.303	0.321
-211.494	-200.000	0.326	-0.001
-210.479	361.571	-0.095	0.190
-209.465	-44.390	0.355	-0.176
-208.450	-12.205	0.200	-0.130
-207.436	-200.000	-0.063	-0.394
-206.421	-14.677	0.260	-0.166
-205.406	624.812	0.043	-0.107
-204.392	54.897	0.114	0.109
-203.377	278.197	0.045	-0.080
-202.363	-200.000	0.011	-0.120
-201.348	800.000	0.073	-0.261
-200.333	278.892	0.125	-0.221
-199.319	49.228	-0.262	-0.244
-198.304	-97.851	-0.134	0.034
-197.290	522.291	0.064	-0.148
-196.275	-81.182	-0.212	-0.069
-195.260	-200.000	-0.005	0.217
-194.246	-39.999	0.145	-0.075
-193.231	-31.726	-0.205	0.114
-192.217	-39.236	-0.077	0.040
-191.202	-137.936	-0.387	0.043
-190.187	-87.041	0.308	-0.093
-189.173	-0.732	0.365	-0.256
-188.158	-95.479	-0.455	0.121
-187.144	-17.614	-0.158	0.099
-186.129	226.656	0.153	-0.246
-185.114	86.652	-0.010	0.011
-184.100	61.868	-0.253	0.250
-183.085	-183.794	0.052	-0.001
-182.071	21.042	0.059	-0.048
-181.056	-100.992	0.368	-0.089
-180.042	292.324	-0.037	0.067
-179.027	-90.602	-0.141	0.040
-178.012	-97.692	0.230	0.059
-176.998	-109.676	0.417	-0.087
-175.983	-146.352	-0.236	-0.020
-174.969	-200.000	0.000	-0.099
-173.954	-111.302	0.234	-0.047
-172.939	129.562	0.088	0.111
-171.925	549.722	-0.102	-0.241
-170.910	-67.513	0.207	-0.080
-169.896	287.819	0.071	-0.127
-168.881	-142.210	-0.094	0.009
-167.866	-200.000	0.005	-0.036
-166.852	-131.329	0.033	0.004
-165.837	800.000	-0.054	0.164
-164.823	-200.000	-0.050	-0.341
-163.808	88.614	0.201	-0.221
-162.793	164.221	0.094	0.132
-161.779	86.249	0.102	-0.111
-160.764	651.302	-0.045	0.115
-159.750	-59.259	0.065	-0.028
-158.735	800.000	0.024	0.073
-157.720	-121.999	0.409	-0.067
-156.706	120.821	0.228	0.280
-155.691	27.462	-0.376	-0.313
-154.677	-200.000	0.027	0.203
-153.662	180.716	-0.111	0.161
-152.647	157.012	-0.079	0.108
-151.633	-175.167	-0.330	-0.009
-150.618	51.304	-0.011	0.010
-149.604	406.141	-0.075	-0.157
-148.589	235.923	0.115	0.189
-147.574	-74.536	0.154	-0.055
-146.560	102.547	-0.132	-0.153
-145.545	800.000	-0.028	-0.098
-144.531	-140.206	0.130	0.014
-143.516	550.518	0.092	-0.218
-142.502	-163.639	-0.064	0.003
-141.487	57.628	0.229	-0.221
-140.472	-28.438	0.176	0.100
-139.458	-47.018	0.103	-0.050
-138.443	9.268	-0.102	0.076
-137.429	-39.350	-0.181	-0.094
-136.414	367.603	-0.091	-0.182
-135.399	9.838	-0.034	-0.025
-134.385	-81.085	-0.201	-0.066
-133.370	800.000	0.048	-0.157
-132.356	-47.102	0.218	0.105
-131.341	-200.000	0.193	0.000
-130.326	-46.857	0.338	-0.163
-129.312	33.838	-0.212	0.183
-128.297	800.000	0.160	0.453
-127.283	-200.000	-0.011	-0.534
-126.268	317.664	0.194	-0.363
-125.253	46.199	-0.093	-0.085
-124.239	-71.959	0.064	-0.023
-123.224	-126.993	-0.249	0.036
-122.210	216.121	-0.088	0.138
-121.195	-198.267	-0.129	-0.001
-120.180	172.254	-0.097	0.138
-119.166	265.114	0.060	0.103
-118.151	-31.635	-0.238	-0.132
-117.137	72.956	0.261	-0.269
-116.122	642.604	0.106	-0.268
-115.107	-65.732	0.277	-0.110
-114.093	228.396	-0.218	-0.351
-113.078	-142.854	-0.040	-0.004
-112.064	-200.000	0.026	0.194
-111.049	165.155	-0.089	-0.124
-110.034	261.601	0.047	0.080
-109.020	-153.662	0.281	0.019
-108.005	39.459	-0.248	-0.219
-106.991	51.452	0.118	-0.110
-105.976	-134.016	-0.173	-0.021
-104.962	76.038	-0.139	0.145
-103.947	-17.905	-0.130	-0.081
-102.932	306.893	0.081	0.149
-101.918	-86.981	0.208	0.063
-100.903	393.763	-0.018	0.038
-99.889	-12.093	0.185	-0.120
-98.874	-200.000	-0.000	0.145
-97.859	-61.224	0.123	0.051
-96.845	448.005	0.063	-0.136
-95.830	333.465	0.136	-0.261
-94.816	-200.000	-0.035	-0.191
-93.801	93.133	0.185	0.207
-92.786	259.117	-0.177	0.301
-91.772	-122.642	0.138	-0.022
-90.757	-56.056	-0.167	0.074
-89.743	-15.349	-0.147	0.093
-88.728	211.067	-0.125	-0.194
-87.713	426.130	0.129	-0.274
-86.699	-69.710	-0.259	-0.098
-85.684	-68.623	-0.304	-0.116
-84.670	716.561	0.116	-0.304
-83.655	-179.678	-0.221	-0.005
-82.640	-200.000	-0.005	-0.147
-81.626	800.000	0.035	0.133
-80.611	200.349	-0.177	0.268
-79.597	-200.000	-0.017	0.211
-78.582	-10.943	-0.162	0.106
-77.567	-154.985	-0.169	-0.011
-76.553	244.213	0.098	0.162
-75.538	66.657	0.097	0.098
-74.524	-103.746	-0.344	-0.079
-73.509	-74.998	-0.067	-0.024
-72.494	-200.000	-0.005	0.078
-71.480	800.000	-0.100	0.281
-70.465	800.000	0.059	0.231
-69.451	-72.456	-0.183	0.067
-68.436	800.000	-0.037	0.142
-67.422	107.518	-0.226	-0.266
-66.407	111.664	0.144	0.172
-65.392	-200.000	0.014	0.146
-64.378	-160.875	-0.154	-0.008
-63.363	-200.000	-0.071	0.339
-62.349	-79.115	0.280	-0.094
-61.334	117.314	-0.900	-1.091
-60.319	-89.050	0.816	0.238
-59.305	-200.000	-0.045	-0.588
-58.290	236.279	0.558	0.910
-57.276	524.282	0.645	1.496
-56.261	-200.000	93.408	540.608
-55.246	606.059	1388.617	3412.273
-54.232	183.038	2633.826	3834.770
-53.217	113.329	2344.282	2805.030
-52.203	44.003	1950.883	1763.003
-51.188	37.736	1733.262	1517.651
-50.173	34.891	1687.108	1455.564
-49.159	50.751	1734.789	1619.474
-48.144	54.049	1752.474	1661.376
-47.130	37.305	1709.413	1493.221
-46.115	34.491	1694.351	1458.520
-45.100	34.228	1689.763	1452.509
-44.086	34.355	1686.565	1450.670
-43.071	34.258	1683.989	1447.659
-42.057	34.189	1682.080	1445.435
-41.042	34.204	1680.124	1443.813
-40.027	34.250	1678.094	1442.355
-39.013	34.204	1675.700	1439.897
-37.998	34.269	1673.981	1438.852
-36.984	34.354	1672.802	1438.424
-35.969	34.405	1671.611	1437.730
-34.954	34.415	1669.896	1436.273
-33.940	34.406	1668.002	1434.520
-32.925	34.461	1665.769	1432.953
-31.911	34.401	1664.253	1431.142
-30.896	34.422	1662.215	1429.487
-29.881	34.415	1660.670	1428.051
-28.867	34.449	1659.295	1427.069
-27.852	34.469	1657.233	1425.389
-26.838	34.369	1656.193	1423.689
-25.823	34.489	1654.856	1423.382
-24.809	34.566	1653.113	1422.399
-23.794	34.438	1651.990	1420.423
-22.779	34.401	1650.685	1418.968
-21.765	34.495	1648.518	1417.750
-20.750	34.359	1646.969	1415.351
-19.736	34.508	1644.938	1414.653
-18.721	34.516	1643.771	1413.649
-17.706	34.438	1642.168	1411.642
-16.692	34.505	1640.449	1410.599
-15.677	34.407	1639.546	1409.047
-14.663	34.417	1638.195	1407.899
-13.648	34.456	1636.374	1406.568
-12.633	34.425	1635.015	1405.113
-11.619	34.476	1633.140	1403.824
-10.604	34.456	1631.856	1402.516
-9.590	34.507	1630.145	1401.365
-8.575	34.456	1629.174	1400.101
-7.560	34.373	1628.102	1398.519
-6.546	34.439	1626.749	1397.781
-5.531	34.418	1626.149	1397.058
-4.517	34.401	1624.608	1395.550
-3.502	34.485	1623.618	1395.264
-2.487	34.544	1621.532	1393.844
-1.473	34.600	1611.045	1385.178
-0.458	32.669	1592.290	1355.130
0.556	30.794	1593.261	1325.997
1.571	28.352	1618.250	1328.981
2.586	27.417	1630.786	1332.319
3.600	23.462	1574.909	1258.546
4.615	13.489	1458.927	1099.840
5.629	5.457	1392.184	998.340
6.644	4.262	1383.177	984.216
7.659	4.101	1381.863	982.172
8.673	4.042	1381.185	981.228
9.688	4.195	1379.022	980.574
10.702	4.090	1376.298	977.888
11.717	7.550	1383.103	1004.554
12.731	16.450	1399.517	1073.135
13.746	21.429	1406.977	1110.453
14.761	20.942	1404.933	1105.659
15.775	19.998	1402.120	1097.369
16.790	18.912	1399.344	1088.223
17.804	18.059	1397.392	1081.216
18.819	17.726	1395.684	1077.693
19.834	17.422	1394.880	1075.055
20.848	17.302	1393.251	1072.951
21.863	17.061	1391.953	1070.335
22.877	16.852	1391.370	1068.475
23.892	16.956	1389.647	1067.712
24.907	16.896	1389.368	1067.029
25.921	16.965	1388.106	1066.399
26.936	16.907	1386.959	1065.056
27.950	17.016	1385.956	1064.874
28.965	17.028	1385.251	1064.318
29.980	17.238	1383.783	1064.412
30.994	17.150	1383.323	1063.408
32.009	17.279	1381.663	1062.848
33.023	17.257	1381.169	1062.234
34.038	17.025	1380.032	1059.821
35.053	17.175	1378.155	1059.222
36.067	17.005	1377.365	1057.456
37.082	17.109	1376.245	1057.153
38.096	17.091	1375.446	1056.335
39.111	17.086	1374.517	1055.494
40.126	17.134	1373.064	1054.584
41.140	16.821	1372.254	1051.923
42.155	16.773	1371.600	1051.035
43.169	16.706	1371.711	1050.607
44.184	16.743	1371.600	1050.660
45.199	16.746	1371.146	1050.240
46.213	16.868	1370.597	1050.481
47.228	16.941	1369.675	1050.132
48.242	17.097	1368.040	1049.750
49.257	16.860	1367.204	1047.555
50.271	17.003	1365.106	1046.737
51.286	16.966	1364.038	1045.598
52.301	16.975	1362.633	1044.480
53.315	16.757	1361.960	1042.533
54.330	16.781	1360.730	1041.645
55.344	16.785	1358.970	1040.232
56.359	16.814	1358.130	1039.672
57.374	16.796	1357.561	1039.038
58.388	16.685	1356.105	1037.149
59.403	16.645	1355.754	1036.547
60.417	16.692	1355.169	1036.295
61.432	16.600	1354.601	1035.205
62.447	16.552	1353.475	1033.957
63.461	16.628	1351.653	1032.940
64.476	16.552	1350.831	1031.756
65.490	16.526	1349.608	1030.572
66.505	16.639	1348.046	1029.979
67.520	16.588	1347.327	1029.023
68.534	16.672	1345.833	1028.303
69.549	16.619	1344.901	1027.179
70.563	16.510	1344.081	1025.801
71.578	16.430	1342.994	1024.397
72.593	16.509	1341.834	1023.896
73.607	16.464	1341.107	1022.978
74.622	16.530	1339.894	1022.361
75.636	16.514	1339.790	1022.097
76.651	16.526	1338.799	1021.321
77.666	16.419	1338.844	1020.621
78.680	16.505	1338.007	1020.410
79.695	16.623	1337.152	1020.382
80.709	16.645	1336.457	1019.891
81.724	16.744	1335.925	1019.995
82.739	16.816	1334.735	1019.427
83.753	16.961	1333.395	1019.185
84.768	16.934	1333.138	1018.733
85.782	17.162	1331.717	1018.929
86.797	17.090	1330.319	1017.334
87.812	17.003	1329.312	1015.956
88.826	16.893	1327.873	1014.108
89.841	16.962	1327.340	1014.024
90.855	17.094	1326.085	1013.766
91.870	17.067	1325.379	1012.974
92.884	17.097	1324.330	1012.263
93.899	17.183	1323.353	1011.934
94.914	17.186	1323.078	1011.654
95.928	17.147	1322.122	1010.601
96.943	17.119	1321.192	1009.635
97.957	17.162	1319.772	1008.718
98.972	17.133	1318.944	1007.823
99.987	17.044	1317.941	1006.438
101.001	17.159	1316.849	1006.199
102.016	17.100	1316.273	1005.320
103.030	17.109	1315.115	1004.399
104.045	17.116	1314.217	1003.664
105.060	16.958	1312.607	1001.412
106.074	16.953	1311.032	1000.095
107.089	16.710	1309.736	997.583
108.103	16.656	1308.419	996.178
109.118	16.633	1307.156	994.989
110.133	16.780	1305.511	994.513
111.147	16.707	1304.394	993.145
112.162	16.796	1303.227	992.691
113.176	16.816	1302.551	992.205
114.191	16.771	1301.483	991.044
115.206	16.930	1300.147	990.864
116.220	16.803	1298.462	988.755
117.235	16.783	1297.823	988.064
118.249	16.881	1296.642	987.645
119.264	16.699	1295.741	985.815
120.279	16.627	1294.549	984.404
121.293	16.797	1293.118	984.213
122.308	16.632	1292.039	982.350
123.322	16.576	1291.804	981.758
124.337	16.469	1290.754	980.249
125.352	16.549	1289.070	979.347
126.366	16.555	1288.404	978.793
127.381	16.539	1286.739	977.347
128.395	16.603	1285.907	976.998
129.410	16.648	1284.868	976.380
130.424	16.737	1284.051	976.187
131.439	16.721	1283.178	975.345
132.454	16.730	1282.022	974.432
133.468	16.869	1281.263	974.567
134.483	16.839	1280.801	973.960
135.497	16.800	1279.636	972.763
136.512	16.776	1278.348	971.561
137.527	16.738	1277.289	970.451
138.541	16.869	1275.586	969.819
139.556	16.860	1274.717	969.023
140.570	16.883	1273.621	968.235
141.585	17.044	1272.485	968.205
142.600	17.054	1271.477	967.409
143.614	17.136	1270.537	967.075
144.629	17.144	1269.493	966.242
145.643	17.111	1267.945	964.792
146.658	16.982	1267.098	963.327
147.673	17.020	1265.352	962.129
148.687	16.927	1264.064	960.541
149.702	16.789	1262.913	958.798
150.716	16.787	1261.132	957.353
151.731	16.830	1259.861	956.545
152.746	16.826	1258.976	955.764
153.760	16.871	1257.796	955.039
154.775	16.903	1257.005	954.532
155.789	16.986	1255.150	953.509
156.804	17.049	1254.811	953.516
157.819	17.106	1253.857	953.032
158.833	17.054	1252.968	951.978
159.848	17.290	1251.972	952.461
160.862	17.144	1251.234	950.998
161.877	17.053	1249.759	949.284
162.892	17.001	1248.609	948.033
163.906	16.923	1247.618	946.764
164.921	16.905	1247.211	946.268
165.935	16.946	1246.079	945.553
166.950	17.045	1245.391	945.498
167.964	17.148	1244.291	945.153
168.979	17.042	1244.012	944.272
169.994	16.931	1243.428	943.126
171.008	17.123	1242.464	943.378
172.023	17.119	1241.504	942.541
173.037	17.226	1241.049	942.706
174.052	17.214	1239.708	941.538
175.067	17.114	1238.665	940.112
176.081	17.001	1237.503	938.520
177.096	17.060	1236.567	938.053
178.110	16.984	1235.730	936.913
179.125	16.911	1234.906	935.803
180.140	17.083	1233.607	935.689
181.154	17.105	1232.129	934.602
182.169	17.162	1230.795	933.822
183.183	17.215	1230.347	933.691
184.198	17.392	1228.437	933.132
185.213	17.322	1227.850	932.217
186.227	17.209	1226.822	930.736
187.242	17.404	1225.506	930.720
188.256	17.393	1224.436	929.769
189.271	17.621	1223.710	930.379
190.286	17.384	1222.382	927.997
191.300	17.078	1221.717	925.740
192.315	16.914	1221.066	924.270
193.329	17.037	1220.231	924.227
194.344	17.075	1219.640	923.902
195.359	17.119	1219.315	923.814
196.373	17.161	1218.826	923.592
197.388	17.467	1218.016	924.555
198.402	17.588	1217.544	924.776
199.417	17.590	1217.282	924.504
200.432	17.645	1216.864	924.401
201.446	17.669	1215.613	923.504
202.461	17.757	1214.854	923.320
203.475	17.684	1214.131	922.291
204.490	17.591	1212.534	920.497
205.504	17.582	1210.880	919.110
206.519	17.574	1209.413	917.872
207.534	17.525	1208.451	916.797
208.548	17.411	1208.038	915.787
209.563	17.537	1206.913	915.535
210.577	17.499	1206.043	914.589
211.592	17.529	1205.536	914.284
212.607	17.707	1204.653	914.488
213.621	17.721	1203.164	913.353
214.636	17.702	1202.657	912.784
215.650	17.682	1201.465	911.690
216.665	17.698	1200.804	911.194
217.680	17.813	1199.765	910.941
218.694	17.874	1198.935	910.555
219.709	17.859	1198.370	909.965
220.723	17.842	1197.581	909.194
221.738	17.739	1196.738	907.928
222.753	17.883	1196.040	908.082
223.767	17.801	1195.292	906.997
224.782	17.813	1195.023	906.778
225.796	17.965	1194.217	906.895
226.811	17.921	1193.792	906.256
227.826	17.892	1192.748	905.228
228.840	17.841	1191.700	904.083
229.855	17.898	1191.179	903.912
230.869	17.946	1189.924	903.132
231.884	17.804	1189.444	901.937
232.899	17.804	1188.477	901.123
233.913	17.711	1187.893	900.110
234.928	17.772	1186.966	899.650
235.942	17.748	1186.111	898.797
236.957	17.735	1185.353	898.073
237.972	17.793	1184.577	897.712
238.986	17.817	1183.996	897.319
240.001	17.695	1183.533	896.245
241.015	17.818	1182.039	895.682
242.030	17.939	1181.754	896.020
243.045	18.003	1180.758	895.524
244.059	17.903	1180.206	894.503
245.074	17.990	1179.201	894.117
246.088	17.991	1178.534	893.535
247.103	18.088	1177.604	893.257
248.117	18.130	1177.145	893.051
249.132	18.298	1176.713	893.522
250.147	18.421	1175.896	893.462
251.161	18.446	1175.118	892.922
252.176	18.436	1174.597	892.398
253.190	18.607	1174.011	892.761
254.205	18.588	1173.465	892.167
255.220	18.493	1172.747	891.051
256.234	18.602	1171.903	890.896
257.249	18.626	1171.371	890.535
258.263	18.643	1170.646	889.993
259.278	18.619	1170.086	889.369
260.293	18.594	1169.515	888.723
261.307	18.582	1169.166	888.318
262.322	18.693	1168.423	888.252
263.336	18.822	1167.249	887.947
264.351	18.769	1166.783	887.240
265.366	18.748	1166.295	886.683
266.380	18.711	1165.672	885.939
267.395	18.638	1164.571	884.647
268.409	18.575	1164.119	883.900
269.424	18.610	1163.311	883.390
270.439	18.721	1162.562	883.314
271.453	18.669	1161.624	882.253
272.468	18.522	1160.996	880.946
273.482	18.466	1160.202	879.974
274.497	18.495	1159.921	879.834
275.512	18.581	1158.774	879.328
276.526	18.610	1158.094	878.880
277.541	18.553	1157.390	877.980
278.555	18.578	1156.667	877.481
279.570	18.626	1156.270	877.346
280.585	18.848	1155.060	877.486
281.599	18.912	1153.959	876.899
282.614	18.719	1153.004	875.109
283.628	18.657	1152.224	874.127
284.643	18.795	1151.284	874.034
285.657	18.849	1150.268	873.464
286.672	18.880	1149.067	872.629
287.687	18.821	1148.258	871.642
288.701	18.833	1147.774	871.258
289.716	18.798	1147.100	870.488
290.730	18.747	1146.533	869.724
291.745	18.814	1145.784	869.418
292.760	18.908	1144.791	869.064
293.774	19.007	1144.452	869.230
294.789	18.993	1144.151	868.852
295.803	18.839	1143.779	867.714
296.818	18.921	1142.449	867.041
297.833	18.819	1142.119	866.200
298.847	18.955	1140.723	865.750
299.862	18.909	1139.904	864.819
300.876	19.040	1139.225	864.887
301.891	18.984	1138.938	864.314
302.906	19.174	1138.193	864.627
303.920	19.177	1137.423	863.978
304.935	19.239	1136.676	863.645
305.949	19.318	1136.101	863.527
306.964	19.357	1135.538	863.218
307.979	19.179	1134.833	861.717
308.993	19.092	1134.080	860.633
310.008	19.337	1133.072	861.015
311.022	19.240	1132.537	860.049
312.037	19.257	1131.363	859.165
313.052	19.163	1130.608	858.048
314.066	19.101	1129.465	856.795
315.081	19.083	1128.957	856.243
316.095	19.048	1127.833	855.144
317.110	19.145	1127.216	855.080
318.125	19.068	1126.592	854.149
319.139	18.949	1126.093	853.107
320.154	19.097	1125.131	853.036
321.168	19.143	1124.686	852.853
322.183	19.082	1124.049	851.988
323.197	19.212	1123.156	851.883
324.212	19.200	1122.653	851.364
325.227	19.144	1122.363	850.795
326.241	19.240	1121.298	850.381
327.256	19.229	1120.971	850.005
328.270	19.080	1119.987	848.452
329.285	19.220	1118.462	847.908
330.300	19.202	1117.750	847.204
331.314	19.149	1116.747	846.111
332.329	19.212	1115.894	845.699
333.343	19.324	1115.128	845.594
334.358	19.299	1114.265	844.741
335.373	19.301	1113.639	844.201
336.387	19.431	1113.073	844.336
337.402	19.423	1112.151	843.520
338.416	19.511	1111.843	843.640
339.431	19.501	1111.246	843.066
340.446	19.627	1110.233	842.837
341.460	19.572	1109.964	842.292
342.475	19.728	1108.867	842.142
343.489	19.744	1108.202	841.642
344.504	19.793	1106.970	840.872
345.519	19.742	1106.344	840.072
346.533	19.794	1105.778	839.823
347.548	19.936	1104.751	839.655
348.562	19.817	1103.761	838.253
349.577	19.720	1103.214	837.290
350.592	19.620	1102.086	835.877
351.606	19.568	1101.221	834.896
352.621	19.435	1100.759	833.831
353.635	19.451	1100.079	833.318
354.650	19.586	1099.422	833.399
355.665	19.565	1098.777	832.735
356.679	19.829	1097.531	832.988
357.694	19.713	1097.679	832.468
358.708	19.814	1096.667	832.112
359.723	19.929	1096.098	832.162
360.738	19.807	1095.573	831.103
361.752	19.813	1095.034	830.649
362.767	19.772	1094.464	829.943
363.781	19.715	1094.358	829.520
364.796	19.894	1093.385	829.564
365.810	20.104	1092.600	829.900
366.825	20.126	1092.065	829.528
367.840	20.133	1091.769	829.263
368.854	20.154	1091.510	829.095
369.869	20.033	1091.121	828.144
370.883	20.058	1089.695	827.107
371.898	20.070	1088.822	826.431
372.913	20.122	1087.941	825.939
373.927	20.097	1087.576	825.470
374.942	20.228	1086.943	825.537
375.956	20.204	1086.523	825.030
376.971	20.175	1085.880	824.334
377.986	20.261	1085.640	824.488
379.000	20.367	1084.971	824.408
380.015	20.449	1084.135	824.092
381.029	20.434	1083.636	823.567
382.044	20.335	1083.032	822.564
383.059	20.378	1082.300	822.142
384.073	20.468	1081.176	821.637
385.088	20.438	1080.518	820.922
386.102	20.339	1080.255	820.183
387.117	20.293	1078.519	818.574
388.132	20.200	1077.361	817.187
389.146	20.183	1076.585	816.448
390.161	20.163	1075.970	815.813
391.175	20.240	1075.241	815.552
392.190	20.234	1074.726	815.060
393.205	20.519	1073.834	815.650
394.219	20.435	1073.224	814.719
395.234	20.359	1072.041	813.391
396.248	20.222	1071.322	812.133
397.263	20.196	1070.152	811.053
398.278	20.265	1069.233	810.608
399.292	20.278	1068.208	809.821
400.307	20.251	1067.817	809.326
401.321	20.236	1067.150	808.680
402.336	20.215	1066.716	808.180
403.350	20.299	1066.118	808.048
404.365	20.228	1065.268	807.003
405.380	20.301	1064.759	806.882
406.394	20.355	1064.261	806.687
407.409	20.372	1063.270	805.940
408.423	20.520	1062.370	805.873
409.438	20.642	1061.813	805.947
410.453	20.720	1061.193	805.765
411.467	20.649	1060.609	804.923
412.482	20.703	1059.741	804.442
413.496	20.834	1059.057	804.455
414.511	20.865	1058.556	804.148
415.526	20.860	1058.471	803.987
416.540	20.832	1058.190	803.577
417.555	20.811	1057.179	802.640
418.569	20.753	1056.584	801.848
419.584	20.847	1056.174	801.900
420.599	20.836	1055.590	801.333
421.613	151.053	1402.368	1787.166
422.628	138.646	1452.914	1787.302
