DTS Sentinel unit serial number:	SN413079Multiplexer serial number:	ORYXHardware model number:	OX4-SRSoftware version number:	ORYX F/W v4.00 Oryx Data Collector v3.7.2.0data status	okinstallation	princeton_trtdifferential loss correction	single-endedforward channel	channel 2reverse channel	N/Adate	2019/09/18time	13:31:35forward acquisition time	60.00reverse acquisition time	0.00gamma	496.2192k internal	0.2319k external	0.2319temperature offset calibration	0.9994default loss term (dB/km)	0.3790temperature slope calibration	1.0000multiplexer offset coefficient	1.0000multiplexer slope coefficient	1.0000fibre end	0.00T internal ref (°C)	34.25T ext. ref 1 (°C)	0.62T ext. ref 2 (°C)	31.05length (m)	temperature (°C)	Stokes	anti-Stokes-747.200	-151.242	-0.164	-0.012
-746.185	-101.703	-0.145	-0.036
-745.171	-198.712	0.277	0.002
-744.156	267.165	-0.153	0.270
-743.142	-108.059	-0.325	0.071
-742.127	-200.000	0.003	0.411
-741.112	-74.260	-0.177	-0.065
-740.098	-92.193	0.197	-0.056
-739.083	-81.311	-0.147	0.049
-738.069	167.575	-0.098	0.140
-737.054	514.858	0.122	0.287
-736.039	-121.245	-0.170	0.029
-735.025	-26.877	-0.148	0.087
-734.010	47.916	-0.261	-0.247
-732.996	-149.101	0.123	0.010
-731.981	800.000	0.076	-0.224
-730.966	-39.209	-0.305	0.162
-729.952	-200.000	0.030	-0.241
-728.937	626.230	-0.059	0.152
-727.923	-66.056	-0.026	0.011
-726.908	181.414	-0.237	-0.353
-725.894	-56.729	0.031	0.014
-724.879	-200.000	-0.024	0.251
-723.864	5.228	0.120	0.090
-722.850	-38.669	-0.221	-0.118
-721.835	-23.198	-0.066	-0.040
-720.821	-95.928	-0.144	-0.039
-719.806	0.063	-0.276	0.199
-718.791	-200.000	0.019	-0.414
-717.777	111.421	-0.226	-0.275
-716.762	-135.042	-0.132	0.016
-715.748	-88.993	0.325	0.097
-714.733	-200.000	-0.033	0.286
-713.718	-80.667	0.188	-0.063
-712.704	-144.889	-0.392	-0.036
-711.689	-21.570	-0.042	-0.026
-710.675	217.225	0.104	0.167
-709.660	-136.450	-0.164	-0.019
-708.645	-200.000	-0.014	-0.163
-707.631	800.000	0.032	-0.138
-706.616	-200.000	0.011	-0.201
-705.602	800.000	0.043	-0.122
-704.587	111.420	-0.271	0.330
-703.572	-126.403	-0.019	-0.003
-702.558	95.345	0.066	0.076
-701.543	-200.000	0.042	0.318
-700.529	-73.536	0.279	0.103
-699.514	800.000	-0.100	0.286
-698.499	-200.000	0.004	0.174
-697.485	387.639	-0.067	0.140
-696.470	330.735	0.008	0.016
-695.456	750.550	0.131	0.356
-694.441	-19.411	-0.146	0.091
-693.426	458.752	-0.081	-0.181
-692.412	488.715	0.081	-0.187
-691.397	148.801	0.119	-0.163
-690.383	490.884	-0.133	-0.307
-689.368	-20.851	-0.246	-0.152
-688.354	140.823	-0.035	-0.046
-687.339	15.256	0.043	-0.034
-686.324	100.463	-0.121	0.142
-685.310	-200.000	-0.043	-0.469
-684.295	-72.936	-0.122	-0.045
-683.281	800.000	-0.014	-0.047
-682.266	189.175	-0.148	0.224
-681.251	-99.760	-0.094	0.024
-680.237	679.238	-0.051	-0.133
-679.222	84.592	0.162	0.179
-678.208	-34.910	-0.216	0.119
-677.193	82.155	-0.224	-0.245
-676.178	-169.216	0.209	0.008
-675.164	23.408	-0.366	0.303
-674.149	-200.000	-0.002	-0.111
-673.135	29.623	0.198	-0.170
-672.120	-25.042	0.317	0.190
-671.105	-46.355	-0.297	0.147
-670.091	-200.000	-0.044	0.213
-669.076	-68.125	0.135	-0.053
-668.062	-98.827	0.146	0.037
-667.047	-17.627	-0.103	-0.065
-666.032	-100.330	-0.153	-0.038
-665.018	-200.000	-0.018	-0.500
-664.003	371.733	0.065	-0.134
-662.989	-200.000	-0.049	-0.458
-661.974	-200.000	-0.043	0.290
-660.959	-200.000	0.020	-0.125
-659.945	687.230	-0.077	0.202
-658.930	727.658	0.131	-0.353
-657.916	72.070	-0.185	-0.194
-656.901	34.304	0.123	-0.108
-655.886	-134.889	-0.059	0.007
-654.872	-200.000	0.034	-0.446
-653.857	-200.000	-0.000	0.006
-652.843	-200.000	0.023	0.217
-651.828	-2.993	0.277	0.195
-650.814	38.360	0.262	-0.235
-649.799	452.064	0.155	-0.346
-648.784	223.040	0.189	0.306
-647.770	-200.000	-0.003	-0.029
-646.755	-129.956	0.271	-0.037
-645.741	-200.000	-0.098	0.597
-644.726	26.690	-0.262	-0.221
-643.711	-200.000	0.015	-0.251
-642.697	-116.894	0.575	0.106
-641.682	122.292	-0.290	-0.365
-640.668	592.199	0.051	-0.126
-639.653	800.000	-0.028	-0.114
-638.638	800.000	0.025	-0.089
-637.624	800.000	-0.065	0.195
-636.609	-200.000	-0.028	-0.417
-635.595	-14.113	0.333	0.217
-634.580	181.470	0.028	0.042
-633.565	539.994	-0.136	0.326
-632.551	-196.346	-0.279	-0.002
-631.536	-73.503	0.182	0.067
-630.522	5.439	-0.023	0.017
-629.507	-24.276	0.204	0.123
-628.492	-53.636	0.241	0.111
-627.478	727.431	-0.080	-0.214
-626.463	-102.580	-0.264	0.064
-625.449	-200.000	0.015	0.121
-624.434	17.454	0.153	0.122
-623.419	-161.783	-0.204	0.010
-622.405	68.187	-0.124	-0.127
-621.390	238.826	-0.070	0.116
-620.376	-118.668	0.004	-0.001
-619.361	-200.000	-0.005	0.078
-618.346	-32.854	0.177	-0.099
-617.332	-63.879	-0.321	-0.132
-616.317	185.187	-0.201	0.301
-615.303	-200.000	0.029	-0.203
-614.288	130.984	0.099	0.128
-613.273	-200.000	0.038	-0.223
-612.259	-200.000	0.056	-0.413
-611.244	487.206	-0.143	-0.328
-610.230	377.967	-0.053	-0.110
-609.215	800.000	0.079	-0.281
-608.201	-111.735	-0.122	-0.025
-607.186	-80.242	-0.101	0.034
-606.171	153.515	0.122	0.168
-605.157	566.996	0.069	-0.169
-604.142	-67.925	-0.126	-0.050
-603.128	-160.432	0.298	-0.016
-602.113	-36.578	-0.038	0.020
-601.098	126.898	0.083	0.106
-600.084	619.171	0.048	-0.122
-599.069	110.801	0.178	-0.216
-598.055	232.439	-0.027	0.045
-597.040	10.904	0.091	-0.070
-596.025	800.000	-0.100	-0.305
-595.011	35.662	0.144	0.127
-593.996	134.724	0.166	0.216
-592.982	86.223	0.169	0.188
-591.967	2.909	0.065	0.048
-590.952	-200.000	0.006	0.365
-589.938	-52.977	-0.110	-0.051
-588.923	800.000	0.048	0.186
-587.909	-7.036	-0.166	-0.113
-586.894	267.832	-0.059	0.105
-585.879	66.750	-0.025	0.026
-584.865	-116.802	-0.253	-0.047
-583.850	-70.517	0.175	-0.066
-582.836	800.000	-0.091	-0.259
-581.821	-45.601	-0.124	0.062
-580.806	-200.000	0.005	-0.217
-579.792	-149.995	0.275	0.022
-578.777	20.232	-0.095	-0.078
-577.763	24.768	0.273	-0.228
-576.748	-200.000	-0.029	0.284
-575.733	166.575	-0.055	-0.079
-574.719	800.000	-0.096	0.308
-573.704	669.978	-0.009	0.022
-572.690	35.115	0.187	-0.165
-571.675	135.951	0.139	0.182
-570.661	-200.000	-0.017	-0.212
-569.646	-21.396	-0.254	-0.156
-568.631	-118.765	0.096	0.017
-567.617	42.121	0.024	0.022
-566.602	45.846	-0.158	0.147
-565.588	51.260	0.131	-0.125
-564.573	74.331	0.209	-0.220
-563.558	145.966	0.046	-0.062
-562.544	-96.260	0.347	-0.092
-561.529	133.311	0.173	-0.225
-560.515	-147.810	0.172	-0.014
-559.500	800.000	-0.092	-0.265
-558.485	40.493	0.194	0.176
-557.471	-200.000	0.004	-0.084
-556.456	-8.632	0.299	0.202
-555.442	800.000	0.092	0.307
-554.427	190.571	-0.038	-0.058
-553.412	-200.000	0.050	-0.492
-552.398	52.502	-0.260	-0.249
-551.383	-124.532	0.509	0.080
-550.369	-184.447	-0.403	-0.007
-549.354	65.934	0.122	0.124
-548.339	150.713	0.177	0.241
-547.325	-153.752	-0.185	-0.013
-546.310	-23.615	0.140	-0.084
-545.296	12.801	0.124	0.096
-544.281	-200.000	0.017	-0.110
-543.266	-117.755	0.219	-0.040
-542.252	154.376	0.183	0.253
-541.237	156.302	-0.193	0.267
-540.223	88.717	0.104	0.116
-539.208	461.029	0.168	0.375
-538.193	-0.169	0.104	0.074
-537.179	-200.000	-0.028	0.315
-536.164	39.926	-0.262	-0.236
-535.150	-40.283	0.201	-0.105
-534.135	800.000	0.092	0.265
-533.121	-73.994	0.230	0.084
-532.106	442.882	0.090	-0.197
-531.091	58.454	0.181	0.179
-530.077	-81.666	0.061	-0.020
-529.062	-112.526	-0.366	0.073
-528.048	657.319	-0.058	-0.149
-527.033	73.048	-0.070	-0.074
-526.018	160.626	0.020	-0.028
-525.004	136.415	0.120	-0.157
-523.989	-45.954	0.120	-0.059
-522.975	21.389	-0.050	-0.041
-521.960	76.329	-0.054	0.058
-520.945	14.139	-0.134	-0.104
-519.931	-60.185	0.119	-0.051
-518.916	166.900	0.082	-0.116
-517.902	-9.483	0.177	0.118
-516.887	-140.528	0.663	0.069
-515.872	-200.000	0.004	0.091
-514.858	800.000	-0.065	0.265
-513.843	193.949	-0.087	-0.132
-512.829	268.882	0.116	0.203
-511.814	-139.970	-0.277	-0.029
-510.799	96.373	-0.055	0.064
-509.785	-175.480	0.024	-0.001
-508.770	168.350	-0.149	-0.212
-507.756	-19.772	-0.099	0.061
-506.741	168.598	-0.085	-0.122
-505.726	800.000	0.037	0.151
-504.712	69.259	-0.133	-0.138
-503.697	-88.852	-0.060	-0.018
-502.683	720.133	-0.060	0.159
-501.668	-23.204	0.165	-0.100
-500.653	-118.666	0.153	-0.027
-499.639	-154.482	-0.083	0.006
-498.624	-87.839	-0.361	0.109
-497.610	73.668	-0.065	-0.068
-496.595	-72.991	-0.297	0.109
-495.581	277.316	-0.117	-0.208
-494.566	-200.000	-0.011	0.243
-493.551	-165.945	-0.337	0.014
-492.537	-57.889	0.339	0.148
-491.522	-21.437	0.538	0.329
-490.508	-200.000	0.051	-0.239
-489.493	-90.996	0.097	0.028
-488.478	417.169	-0.216	0.461
-487.464	74.402	-0.081	-0.085
-486.449	-46.077	-0.400	0.197
-485.435	19.984	0.337	0.272
-484.420	-198.346	0.179	-0.001
-483.405	528.009	0.108	-0.256
-482.391	28.085	-0.307	-0.260
-481.376	18.929	-0.237	0.191
-480.362	-169.678	0.201	0.007
-479.347	43.330	0.215	0.197
-478.332	38.575	0.097	0.087
-477.318	291.139	0.142	0.258
-476.303	-177.511	-0.182	-0.004
-475.289	-76.800	0.114	0.040
-474.274	-74.005	0.083	0.030
-473.259	151.827	0.083	0.113
-472.245	-75.087	0.317	-0.113
-471.230	84.175	0.185	-0.202
-470.216	800.000	-0.158	0.544
-469.201	-187.075	-0.296	-0.004
-468.186	-75.518	0.150	0.053
-467.172	-200.000	0.000	0.096
-466.157	-120.024	0.046	0.008
-465.143	-159.614	0.154	-0.009
-464.128	-135.331	-0.226	0.027
-463.113	-10.455	-0.168	-0.111
-462.099	-18.262	0.258	0.161
-461.084	800.000	-0.069	0.210
-460.070	16.726	0.111	0.088
-459.055	469.985	0.146	-0.329
-458.040	-200.000	0.005	0.327
-457.026	-200.000	0.031	-0.291
-456.011	-95.873	-0.093	0.025
-454.997	-45.785	0.135	-0.067
-453.982	41.041	0.436	-0.394
-452.968	-200.000	-0.019	0.117
-451.953	-141.937	-0.478	0.048
-450.938	452.372	-0.037	-0.082
-449.924	-200.000	0.021	-0.269
-448.909	-200.000	-0.036	0.331
-447.895	117.218	0.067	0.083
-446.880	20.902	-0.217	-0.176
-445.865	-200.000	0.013	-0.132
-444.851	800.000	-0.163	-0.458
-443.836	-101.026	-0.186	0.046
-442.822	-84.755	-0.668	-0.210
-441.807	-200.000	0.051	0.284
-440.792	644.391	0.006	-0.016
-439.778	-136.416	0.098	-0.011
-438.763	112.262	0.156	0.189
-437.749	-113.817	0.201	-0.039
-436.734	-200.000	0.070	-0.322
-435.719	130.680	0.112	0.144
-434.705	625.269	-0.048	0.120
-433.690	-200.000	-0.010	-0.072
-432.676	-94.417	-0.113	0.031
-431.661	-27.053	-0.395	0.230
-430.646	190.728	-0.144	0.216
-429.632	-175.744	0.072	-0.002
-428.617	800.000	-0.045	-0.156
-427.603	-59.799	-0.347	-0.149
-426.588	29.268	-0.408	0.346
-425.573	-200.000	-0.014	-0.071
-424.559	-127.451	-0.320	-0.047
-423.544	-65.173	-0.157	-0.063
-422.530	-200.000	0.031	0.389
-421.515	-111.008	-0.239	-0.049
-420.500	-91.187	0.087	-0.025
-419.486	-200.000	-0.041	-0.258
-418.471	-132.227	-0.248	-0.032
-417.457	-99.686	0.286	-0.072
-416.442	800.000	0.074	0.277
-415.428	-58.400	0.285	-0.124
-414.413	88.823	-0.089	-0.099
-413.398	-7.547	-0.076	-0.051
-412.384	353.765	0.053	0.105
-411.369	-35.260	-0.249	-0.135
-410.355	121.638	0.147	-0.183
-409.340	-15.725	-0.372	-0.237
-408.325	42.110	-0.156	0.141
-407.311	-147.161	-0.312	0.027
-406.296	-200.000	0.064	-0.438
-405.282	-154.439	-0.399	-0.027
-404.267	45.862	0.395	-0.365
-403.252	51.974	-0.269	0.255
-402.238	227.118	0.193	0.313
-401.223	526.804	0.094	-0.221
-400.209	-119.329	-0.396	-0.069
-399.194	-18.944	0.236	0.147
-398.179	-66.389	0.258	0.102
-397.165	-200.000	0.072	0.319
-396.150	-60.882	-0.171	-0.072
-395.136	-125.966	0.073	0.011
-394.121	494.340	-0.048	0.110
-393.106	105.831	0.094	0.112
-392.092	-200.000	0.063	-0.303
-391.077	-42.569	-0.142	-0.072
-390.063	775.990	-0.076	-0.206
-389.048	-49.176	0.045	0.021
-388.033	-17.175	-0.156	-0.098
-387.019	-70.266	-0.005	0.002
-386.004	-114.361	-0.305	-0.059
-384.990	720.692	-0.108	0.287
-383.975	-200.000	0.031	0.198
-382.960	-152.364	0.091	-0.007
-381.946	578.259	0.060	0.147
-380.931	-110.379	-0.321	-0.066
-379.917	371.332	-0.150	-0.304
-378.902	-18.768	-0.233	-0.145
-377.888	-200.000	-0.029	0.352
-376.873	45.740	-0.127	-0.117
-375.858	-74.370	0.371	-0.133
-374.844	-147.201	-0.339	-0.029
-373.829	-2.237	-0.158	-0.111
-372.815	609.842	-0.034	0.084
-371.800	46.243	0.066	-0.061
-370.785	89.132	0.169	-0.188
-369.771	-40.497	0.133	-0.069
-368.756	597.514	-0.079	0.195
-367.742	-68.684	0.122	-0.047
-366.727	26.018	-0.189	-0.157
-365.712	542.148	0.076	-0.180
-364.698	-200.000	-0.010	-0.105
-363.683	-200.000	-0.053	0.245
-362.669	-98.341	0.294	-0.075
-361.654	-167.957	0.340	0.013
-360.639	800.000	0.084	-0.333
-359.625	109.813	0.057	0.068
-358.610	-169.017	0.450	-0.017
-357.596	-97.878	0.183	-0.047
-356.581	52.824	0.145	-0.138
-355.566	-35.062	0.072	0.039
-354.552	559.094	0.116	0.278
-353.537	-56.481	-0.316	0.140
-352.523	-113.498	-0.223	0.043
-351.508	-133.801	0.089	-0.011
-350.493	800.000	-0.053	-0.157
-349.479	-91.094	-0.336	-0.096
-348.464	800.000	0.095	0.410
-347.450	97.371	-0.091	0.104
-346.435	800.000	-0.052	-0.150
-345.420	-200.000	-0.010	-0.081
-344.406	413.576	0.139	0.294
-343.391	227.280	-0.208	0.337
-342.377	-66.159	0.178	-0.071
-341.362	-56.957	0.089	-0.039
-340.348	-55.427	-0.109	0.049
-339.333	-198.347	-0.089	-0.001
-338.318	42.476	0.154	0.140
-337.304	-153.755	-0.112	-0.008
-336.289	-9.533	-0.064	-0.043
-335.275	800.000	-0.062	-0.192
-334.260	-132.261	0.085	-0.011
-333.245	252.785	-0.096	0.163
-332.231	-200.000	-0.052	0.316
-331.216	-57.543	0.207	-0.090
-330.202	45.377	0.153	-0.141
-329.187	338.856	-0.112	-0.216
-328.172	28.518	0.350	-0.295
-327.158	-200.000	0.023	0.203
-326.143	-200.000	0.063	-0.293
-325.129	800.000	0.042	0.157
-324.114	-181.723	-0.310	0.006
-323.099	169.851	-0.102	0.145
-322.085	800.000	0.128	0.397
-321.070	65.426	0.237	0.239
-320.056	188.594	-0.125	0.186
-319.041	163.711	-0.048	-0.067
-318.026	101.537	0.081	-0.094
-317.012	-127.137	0.236	-0.034
-315.997	-114.387	-0.299	-0.057
-314.983	-200.000	-0.008	-0.272
-313.968	800.000	0.038	-0.136
-312.953	240.569	-0.180	-0.299
-311.939	800.000	0.067	-0.264
-310.924	-200.000	0.027	-0.216
-309.910	-122.154	-0.116	-0.019
-308.895	-200.000	-0.054	0.354
-307.880	-200.000	-0.003	-0.086
-306.866	-200.000	-0.018	0.367
-305.851	-43.901	-0.459	-0.230
-304.837	-28.180	-0.245	-0.141
-303.822	-75.683	0.043	0.015
-302.807	-19.510	0.178	0.109
-301.793	52.145	-0.119	0.113
-300.778	-5.543	-0.084	0.057
-299.764	800.000	0.022	-0.079
-298.749	53.827	0.138	-0.132
-297.735	-62.800	0.157	0.065
-296.720	-69.427	-0.071	0.027
-295.705	-200.000	0.006	-0.244
-294.691	-200.000	0.023	-0.232
-293.676	405.242	0.161	-0.337
-292.662	197.169	0.104	0.158
-291.647	72.749	-0.249	0.258
-290.632	-169.982	-0.445	0.016
-289.618	-135.427	-0.205	-0.024
-288.603	-106.229	0.127	-0.028
-287.589	322.818	0.218	0.413
-286.574	-124.706	0.128	0.020
-285.559	-200.000	-0.095	-0.500
-284.545	-200.000	-0.257	-0.001
-283.530	-141.095	-0.177	0.018
-282.516	-200.000	-0.018	0.218
-281.501	-153.324	-0.347	-0.024
-280.486	-13.536	-0.303	-0.195
-279.472	800.000	0.078	0.230
-278.457	-34.483	0.202	-0.110
-277.443	-200.000	0.008	0.196
-276.428	-123.919	0.048	-0.007
-275.413	-200.000	-0.007	-0.158
-274.399	30.871	-0.094	0.080
-273.384	285.453	0.104	-0.186
-272.370	83.265	-0.161	-0.175
-271.355	-32.769	0.102	-0.056
-270.340	-171.704	0.375	0.012
-269.326	-9.651	-0.366	-0.243
-268.311	25.044	0.189	0.156
-267.297	-119.528	-0.203	-0.035
-266.282	-177.549	0.217	-0.005
-265.267	-79.542	-0.345	0.116
-264.253	59.599	-0.080	0.078
-263.238	-156.846	-0.041	0.003
-262.224	325.686	0.093	0.177
-261.209	-61.980	-0.228	-0.094
-260.195	542.626	-0.084	0.200
-259.180	-106.509	0.161	0.036
-258.165	267.685	0.141	-0.245
-257.151	42.793	-0.078	0.070
-256.136	-77.234	-0.134	0.046
-255.122	-46.254	0.208	-0.102
-254.107	-200.000	-0.008	0.347
-253.092	-54.227	-0.112	0.050
-252.078	83.715	0.061	0.067
-251.063	800.000	0.155	0.441
-250.049	-14.151	0.175	0.112
-249.034	-141.594	-0.208	-0.021
-248.019	-200.000	-0.038	-0.240
-247.005	800.000	0.064	-0.264
-245.990	-200.000	-0.043	-0.581
-244.976	-94.297	0.056	-0.015
-243.961	103.215	-0.142	-0.165
-242.946	-200.000	-0.046	-0.272
-241.932	-88.606	0.137	-0.040
-240.917	353.998	0.100	-0.197
-239.903	35.511	-0.084	0.073
-238.888	-200.000	0.007	0.265
-237.873	130.505	-0.016	-0.021
-236.859	-95.578	0.167	0.045
-235.844	101.584	-0.098	0.113
-234.830	-200.000	-0.036	0.199
-233.815	735.630	-0.132	-0.352
-232.800	-200.000	-0.066	-0.471
-231.786	-26.625	0.392	-0.228
-230.771	-200.000	-0.019	-0.095
-229.757	568.205	-0.083	0.199
-228.742	475.624	0.094	0.211
-227.727	-200.000	0.014	0.126
-226.713	187.119	-0.184	0.272
-225.698	51.789	0.196	0.185
-224.684	-200.000	0.024	0.316
-223.669	-14.405	-0.163	0.104
-222.655	129.746	0.131	-0.166
-221.640	131.151	0.152	-0.194
-220.625	-97.136	-0.224	0.058
-219.611	-47.222	-0.369	0.178
-218.596	19.814	0.230	0.183
-217.582	7.073	0.113	-0.084
-216.567	53.564	0.190	-0.181
-215.552	111.325	0.150	0.179
-214.538	-200.000	-0.071	-0.340
-213.523	800.000	-0.047	0.150
-212.509	-108.842	0.148	0.031
-211.494	1.239	-0.302	-0.215
-210.479	-173.597	-0.259	-0.008
-209.465	-71.645	-0.268	0.099
-208.450	-110.863	-0.251	0.051
-207.436	572.966	0.184	0.445
-206.421	-68.118	0.241	-0.093
-205.406	-200.000	-0.003	-0.128
-204.392	15.707	0.252	0.196
-203.377	-29.692	-0.224	-0.126
-202.363	320.940	-0.166	0.312
-201.348	-200.000	0.038	0.196
-200.333	-42.559	-0.096	-0.048
-199.319	800.000	-0.076	-0.292
-198.304	19.458	0.091	-0.072
-197.290	326.744	0.125	0.237
-196.275	-200.000	0.006	0.418
-195.260	-16.095	-0.220	-0.138
-194.246	1.988	0.328	0.234
-193.231	-97.362	0.223	-0.058
-192.217	-200.000	0.005	-0.170
-191.202	-6.735	-0.221	0.149
-190.187	413.517	-0.187	-0.394
-189.173	800.000	-0.072	0.222
-188.158	-110.192	0.390	-0.081
-187.144	90.307	0.155	0.172
-186.129	124.578	-0.138	0.172
-185.114	205.593	0.056	-0.086
-184.100	-14.298	-0.305	0.194
-183.085	-8.789	0.089	-0.059
-182.071	-64.935	-0.224	-0.089
-181.056	-80.361	-0.093	0.031
-180.042	-22.021	-0.102	0.061
-179.027	-200.000	0.001	-0.279
-178.012	-93.644	0.534	-0.146
-176.998	-112.466	-0.266	0.053
-175.983	-200.000	-0.012	-0.081
-174.969	800.000	-0.113	-0.373
-173.954	126.847	-0.084	0.105
-172.939	265.872	0.158	-0.273
-171.925	-200.000	0.039	0.261
-170.910	77.884	-0.231	0.243
-169.896	800.000	0.039	-0.135
-168.881	183.930	0.108	-0.159
-167.866	-151.739	-0.249	0.018
-166.852	-200.000	-0.022	-0.241
-165.837	-14.283	-0.157	0.100
-164.823	-90.572	-0.073	0.021
-163.808	-90.924	0.281	0.080
-162.793	-39.735	0.376	0.195
-161.779	800.000	0.084	-0.305
-160.764	28.193	0.193	0.161
-159.750	646.275	0.081	-0.204
-158.735	29.091	0.099	0.083
-157.720	278.104	-0.071	-0.125
-156.706	-200.000	0.016	0.110
-155.691	-200.000	0.022	0.270
-154.677	618.370	0.085	0.211
-153.662	-99.410	0.112	0.028
-152.647	-200.000	-0.015	-0.140
-151.633	-128.407	0.376	-0.053
-150.618	-200.000	0.016	-0.097
-149.604	159.697	0.153	0.211
-148.589	-68.292	-0.048	0.019
-147.574	800.000	-0.071	0.221
-146.560	-82.526	0.108	0.035
-145.545	-64.047	0.280	-0.113
-144.531	87.031	0.167	0.182
-143.516	79.037	-0.231	0.245
-142.502	-112.493	0.164	-0.032
-141.487	6.830	0.230	-0.169
-140.472	800.000	0.031	0.113
-139.458	-87.740	-0.338	0.101
-138.443	173.730	0.111	0.159
-137.429	-200.000	-0.008	0.159
-136.414	503.425	-0.045	0.104
-135.399	-71.808	-0.081	0.030
-134.385	1.177	-0.083	0.059
-133.370	289.420	-0.031	-0.055
-132.356	123.187	-0.121	0.150
-131.341	-82.418	0.248	-0.080
-130.326	-200.000	-0.060	-0.340
-129.312	800.000	0.058	-0.181
-128.297	122.521	0.180	-0.222
-127.283	15.156	-0.152	-0.118
-126.268	-9.254	0.167	-0.110
-125.253	-143.060	0.148	0.014
-124.239	-200.000	0.003	0.013
-123.224	800.000	0.060	0.221
-122.210	-200.000	0.045	-0.252
-121.195	-132.087	-0.101	0.013
-120.180	-200.000	-0.025	-0.177
-119.166	-200.000	0.001	-0.058
-118.151	-84.586	0.307	0.096
-117.137	-121.555	-0.263	0.043
-116.122	196.784	0.018	0.028
-115.107	5.674	0.268	-0.196
-114.093	201.848	-0.136	-0.207
-113.078	-200.000	0.038	0.296
-112.064	37.017	-0.118	0.103
-111.049	-200.000	0.039	0.241
-110.034	800.000	0.049	0.141
-109.020	-94.929	0.223	0.060
-108.005	153.092	-0.026	0.035
-106.991	-26.566	-0.311	-0.180
-105.976	-88.173	-0.029	-0.009
-104.962	516.415	0.062	-0.143
-103.947	-200.000	0.041	-0.278
-102.932	-93.282	-0.233	-0.064
-101.918	92.224	0.084	-0.093
-100.903	800.000	0.008	-0.025
-99.889	-200.000	0.042	0.357
-98.874	181.300	0.093	0.135
-97.859	-200.000	-0.007	0.143
-96.845	-200.000	-0.004	0.042
-95.830	231.416	-0.096	-0.155
-94.816	-200.000	0.005	-0.290
-93.801	80.634	0.059	-0.063
-92.786	-51.899	-0.153	-0.070
-91.772	679.937	-0.097	-0.249
-90.757	220.374	-0.175	0.276
-89.743	800.000	0.111	-0.410
-88.728	-105.620	0.137	0.031
-87.713	-200.000	0.041	-0.213
-86.699	-39.207	0.086	-0.045
-85.684	-184.279	0.196	-0.003
-84.670	-12.916	-0.291	-0.187
-83.655	800.000	-0.030	-0.127
-82.640	393.592	-0.048	-0.098
-81.626	800.000	0.127	0.372
-80.611	54.658	0.033	-0.031
-79.597	0.434	-0.124	0.087
-78.582	-55.996	0.338	-0.148
-77.567	800.000	-0.147	-0.444
-76.553	-200.000	0.010	-0.100
-75.538	-1.769	-0.028	0.019
-74.524	38.158	-0.240	-0.211
-73.509	400.383	-0.126	-0.261
-72.494	-68.321	-0.280	-0.107
-71.480	17.809	-0.270	-0.212
-70.465	-2.073	0.114	0.079
-69.451	478.399	-0.234	-0.523
-68.436	-43.457	-0.136	-0.068
-67.422	-66.182	0.126	-0.049
-66.407	84.634	0.166	-0.179
-65.392	362.844	0.105	-0.207
-64.378	800.000	-0.009	-0.035
-63.363	-79.124	0.257	0.086
-62.349	-25.396	0.066	0.038
-61.334	164.818	-0.688	-0.956
-60.319	-14.222	0.335	0.212
-59.305	-200.000	-0.070	-0.579
-58.290	132.006	0.804	1.020
-57.276	219.265	0.868	1.368
-56.261	-200.000	95.967	546.862
-55.246	505.629	1422.808	3246.753
-54.232	144.368	2657.236	3493.654
-53.217	104.309	2352.923	2726.845
-52.203	43.478	1959.558	1764.025
-51.188	37.383	1744.109	1522.451
-50.173	34.750	1699.364	1463.207
-49.159	50.573	1747.453	1627.863
-48.144	53.303	1764.257	1664.657
-47.130	37.132	1721.359	1500.414
-46.115	34.293	1706.487	1465.586
-45.100	34.099	1701.568	1459.823
-44.086	34.054	1699.324	1457.493
-43.071	34.115	1696.092	1455.130
-42.057	34.068	1693.875	1452.808
-41.042	34.098	1691.230	1450.711
-40.027	34.219	1689.564	1450.145
-39.013	34.136	1687.477	1447.664
-37.998	34.043	1685.611	1445.300
-36.984	34.110	1684.454	1444.764
-35.969	34.177	1682.953	1443.922
-34.954	34.346	1681.000	1443.470
-33.940	34.371	1678.711	1441.642
-32.925	34.252	1677.254	1439.428
-31.911	34.115	1675.647	1436.961
-30.896	34.252	1673.836	1436.382
-29.881	34.238	1671.838	1434.509
-28.867	34.301	1670.073	1433.411
-27.852	34.254	1668.816	1431.918
-26.838	34.253	1667.516	1430.740
-25.823	34.258	1666.001	1429.422
-24.809	34.309	1664.712	1428.638
-23.794	34.333	1663.106	1427.388
-22.779	34.289	1661.611	1425.719
-21.765	34.230	1659.749	1423.620
-20.750	34.222	1658.887	1422.766
-19.736	34.304	1656.739	1421.482
-18.721	34.316	1655.574	1420.515
-17.706	34.247	1653.695	1418.331
-16.692	34.332	1651.687	1417.186
-15.677	34.213	1651.005	1415.657
-14.663	34.240	1649.441	1414.461
-13.648	34.271	1647.549	1413.015
-12.633	34.299	1646.371	1412.150
-11.619	34.314	1644.859	1410.915
-10.604	34.297	1642.873	1409.025
-9.590	34.223	1642.131	1407.786
-8.575	34.347	1640.338	1407.108
-7.560	34.232	1639.868	1405.800
-6.546	34.326	1638.043	1404.877
-5.531	34.306	1637.043	1403.810
-4.517	34.323	1635.646	1402.682
-3.502	34.316	1634.593	1401.677
-2.487	34.384	1632.848	1400.623
-1.473	34.259	1622.011	1390.359
-0.458	31.759	1601.964	1355.067
0.556	26.412	1601.538	1318.696
1.571	23.626	1624.800	1317.087
2.586	22.450	1637.744	1318.663
3.600	20.026	1583.962	1257.666
4.615	11.394	1468.471	1107.510
5.629	2.594	1399.684	998.401
6.644	0.797	1389.834	979.654
7.659	0.594	1388.788	977.512
8.673	0.591	1387.292	976.355
9.688	0.509	1385.963	974.801
10.702	0.343	1382.751	971.389
11.717	4.132	1389.433	1000.497
12.731	12.910	1403.454	1067.549
13.746	17.655	1409.768	1103.040
14.761	17.462	1406.785	1099.362
15.775	16.582	1404.902	1092.115
16.790	15.561	1401.985	1083.169
17.804	14.771	1399.730	1076.245
18.819	14.354	1398.625	1072.617
19.834	14.040	1396.945	1069.210
20.848	13.721	1395.917	1066.281
21.863	13.558	1394.512	1064.067
22.877	13.415	1393.189	1062.046
23.892	13.302	1392.337	1060.574
24.907	13.338	1391.401	1060.003
25.921	13.302	1390.763	1059.190
26.936	13.446	1389.510	1059.061
27.950	13.382	1388.837	1058.044
28.965	13.430	1387.914	1057.554
29.980	13.447	1386.661	1056.618
30.994	13.593	1385.967	1056.923
32.009	13.508	1384.956	1055.521
33.023	13.486	1383.974	1054.536
34.038	13.582	1382.213	1053.714
35.053	13.541	1381.016	1052.447
36.067	13.514	1380.235	1051.589
37.082	13.490	1379.315	1050.643
38.096	13.513	1378.345	1049.956
39.111	13.432	1377.913	1049.019
40.126	13.522	1376.780	1048.632
41.140	13.440	1376.279	1047.643
42.155	13.346	1375.585	1046.425
43.169	13.365	1375.178	1046.140
44.184	13.332	1374.864	1045.604
45.199	13.341	1374.636	1045.394
46.213	13.416	1374.000	1045.293
47.228	13.458	1372.773	1044.529
48.242	13.417	1371.805	1043.444
49.257	13.455	1370.574	1042.656
50.271	13.473	1368.694	1041.245
51.286	13.525	1367.155	1040.310
52.301	13.393	1366.253	1038.698
53.315	13.340	1365.240	1037.506
54.330	13.329	1364.445	1036.741
55.344	13.413	1362.799	1035.926
56.359	13.360	1361.528	1034.538
57.374	13.389	1361.064	1034.271
58.388	13.359	1360.180	1033.321
59.403	13.341	1359.661	1032.725
60.417	13.317	1358.628	1031.698
61.432	13.358	1357.362	1030.900
62.447	13.222	1357.045	1029.720
63.461	13.249	1355.976	1028.990
64.476	13.260	1354.537	1027.873
65.490	13.223	1353.153	1026.501
66.505	13.328	1351.284	1025.645
67.520	13.239	1350.491	1024.403
68.534	13.271	1349.345	1023.640
69.549	13.362	1348.084	1023.154
70.563	13.361	1347.360	1022.511
71.578	13.153	1346.587	1020.545
72.593	13.205	1345.414	1019.887
73.607	13.238	1344.252	1019.121
74.622	13.226	1343.846	1018.647
75.636	13.259	1342.847	1018.003
76.651	13.284	1341.917	1017.361
77.666	13.212	1341.429	1016.461
78.680	13.217	1341.183	1016.216
79.695	13.209	1339.834	1015.052
80.709	13.252	1339.274	1014.805
81.724	13.309	1338.307	1014.332
82.739	13.367	1336.706	1013.381
83.753	13.352	1336.058	1012.714
84.768	13.519	1334.758	1012.655
85.782	13.473	1333.592	1011.403
86.797	13.392	1332.616	1010.075
87.812	13.385	1331.145	1008.832
88.826	13.301	1330.142	1007.471
89.841	13.448	1328.566	1007.083
90.855	13.358	1328.717	1006.560
91.870	13.476	1327.039	1005.915
92.884	13.499	1325.967	1005.156
93.899	13.470	1325.682	1004.671
94.914	13.572	1324.775	1004.516
95.928	13.551	1323.687	1003.473
96.943	13.532	1323.023	1002.764
97.957	13.395	1322.332	1001.327
98.972	13.545	1320.827	1001.000
99.987	13.493	1319.706	999.752
101.001	13.453	1318.881	998.798
102.016	13.446	1318.193	998.143
103.030	13.536	1316.870	997.595
104.045	13.536	1316.177	996.980
105.060	13.463	1314.794	995.406
106.074	13.380	1313.695	993.992
107.089	13.341	1312.469	992.742
108.103	13.354	1310.963	991.593
109.118	13.313	1309.827	990.397
110.133	13.440	1308.242	989.874
111.147	13.386	1306.859	988.418
112.162	13.290	1305.947	987.065
113.176	13.457	1304.681	987.019
114.191	13.465	1303.691	986.226
115.206	13.459	1302.490	985.197
116.220	13.487	1300.983	984.134
117.235	13.409	1300.187	982.982
118.249	13.393	1299.515	982.293
119.264	13.410	1298.336	981.415
120.279	13.398	1297.188	980.390
121.293	13.387	1296.043	979.375
122.308	13.402	1295.067	978.639
123.322	13.374	1293.915	977.517
124.337	13.377	1293.027	976.775
125.352	13.272	1291.736	975.092
126.366	13.350	1290.574	974.590
127.381	13.377	1289.945	974.187
128.395	13.426	1288.363	973.198
129.410	13.382	1287.511	972.207
130.424	13.472	1286.904	972.193
131.439	13.454	1285.944	971.273
132.454	13.453	1284.977	970.451
133.468	13.344	1283.940	968.945
134.483	13.511	1283.059	969.172
135.497	13.496	1282.223	968.365
136.512	13.381	1281.148	966.798
137.527	13.554	1279.159	966.219
138.541	13.557	1277.892	965.197
139.556	13.521	1276.276	963.680
140.570	13.564	1275.635	963.361
141.585	13.530	1274.395	962.139
142.600	13.508	1273.041	960.906
143.614	13.676	1272.419	961.327
144.629	13.619	1271.261	960.037
145.643	13.584	1270.166	958.923
146.658	13.535	1268.851	957.561
147.673	13.531	1267.349	956.322
148.687	13.576	1265.782	955.312
149.702	13.421	1265.040	953.774
150.716	13.543	1263.151	952.965
151.731	13.545	1262.642	952.511
152.746	13.473	1261.362	951.049
153.760	13.627	1259.638	950.549
154.775	13.582	1258.655	949.463
155.789	13.580	1257.532	948.522
156.804	13.631	1256.251	947.765
157.819	13.696	1255.038	947.132
158.833	13.790	1254.149	946.914
159.848	13.672	1253.893	945.967
160.862	13.696	1252.370	944.868
161.877	13.694	1250.987	943.731
162.892	13.642	1250.323	942.849
163.906	13.662	1248.964	941.859
164.921	13.609	1248.464	941.096
165.935	13.629	1247.472	940.379
166.950	13.757	1246.796	940.511
167.964	13.580	1246.033	938.848
168.979	13.719	1245.143	938.881
169.994	13.671	1244.573	938.096
171.008	13.702	1243.893	937.675
172.023	13.822	1243.050	937.638
173.037	13.807	1242.372	936.959
174.052	13.840	1240.994	936.022
175.067	13.802	1240.052	935.014
176.081	13.755	1239.064	933.924
177.096	13.733	1238.749	933.481
178.110	13.759	1236.901	932.148
179.125	13.759	1235.876	931.294
180.140	13.826	1234.478	930.537
181.154	13.877	1233.612	930.084
182.169	13.904	1232.267	929.138
183.183	13.819	1230.917	927.562
184.198	13.920	1230.026	927.374
185.213	13.875	1229.048	926.305
186.227	14.024	1227.721	926.052
187.242	13.946	1226.764	924.817
188.256	13.935	1226.038	924.123
189.271	13.878	1225.118	923.033
190.286	13.835	1223.900	921.793
191.300	13.725	1223.100	920.501
192.315	13.829	1222.411	920.476
193.329	13.798	1221.869	919.816
194.344	13.840	1221.248	919.498
195.359	13.984	1220.190	919.419
196.373	13.967	1219.600	918.798
197.388	14.052	1219.335	918.987
198.402	14.118	1218.822	918.886
199.417	14.171	1217.484	918.089
200.432	14.263	1216.639	917.874
201.446	14.229	1216.653	917.615
202.461	14.201	1215.580	916.573
203.475	14.203	1214.414	915.623
204.490	14.227	1213.477	914.969
205.504	14.229	1212.034	913.812
206.519	14.338	1210.483	913.159
207.534	14.242	1209.527	911.827
208.548	14.204	1208.608	910.846
209.563	14.150	1208.199	910.162
210.577	14.179	1207.319	909.578
211.592	14.247	1206.377	909.159
212.607	14.410	1204.970	908.906
213.621	14.356	1204.488	908.169
214.636	14.270	1203.973	907.231
215.650	14.302	1202.612	906.301
216.665	14.401	1201.239	905.725
217.680	14.322	1200.670	904.786
218.694	14.348	1200.345	904.600
219.709	14.433	1199.113	904.056
220.723	14.351	1198.299	902.915
221.738	14.345	1197.825	902.447
222.753	14.416	1196.985	902.118
223.767	14.586	1195.827	902.087
224.782	14.538	1195.532	901.522
225.796	14.637	1194.727	901.369
226.811	14.502	1194.531	900.412
227.826	14.515	1193.537	899.657
228.840	14.649	1192.427	899.462
229.855	14.437	1192.063	897.965
230.869	14.452	1191.091	897.234
231.884	14.545	1190.069	896.884
232.899	14.684	1188.939	896.701
233.913	14.482	1189.069	895.633
234.928	14.472	1188.592	895.141
235.942	14.553	1187.334	894.552
236.957	14.527	1187.062	894.128
237.972	14.473	1186.235	893.133
238.986	14.654	1184.846	892.981
240.001	14.467	1184.709	891.798
241.015	14.580	1183.309	891.265
242.030	14.596	1182.811	890.899
243.045	14.590	1182.365	890.454
244.059	14.765	1181.125	890.370
245.074	14.775	1180.107	889.582
246.088	14.675	1179.337	888.389
247.103	14.661	1178.944	887.937
248.117	14.805	1177.846	887.796
249.132	14.746	1177.246	886.953
250.147	14.839	1176.590	886.877
251.161	14.852	1176.025	886.438
252.176	14.958	1174.644	885.884
253.190	14.886	1174.590	885.380
254.205	15.094	1173.758	885.777
255.220	15.034	1173.371	885.088
256.234	15.029	1172.930	884.651
257.249	15.033	1171.791	883.733
258.263	15.014	1171.564	883.387
259.278	15.031	1170.879	882.882
260.293	15.074	1170.125	882.461
261.307	15.088	1169.704	882.140
262.322	15.134	1168.925	881.714
263.336	15.225	1167.971	881.398
264.351	15.131	1167.743	880.651
265.366	15.211	1166.919	880.373
266.380	15.170	1165.867	879.284
267.395	15.217	1165.452	879.139
268.409	15.203	1164.242	878.079
269.424	15.179	1163.835	877.570
270.439	15.246	1163.382	877.498
271.453	15.219	1162.357	876.507
272.468	15.216	1161.592	875.838
273.482	15.155	1160.834	874.870
274.497	15.128	1160.786	874.613
275.512	15.348	1159.605	874.796
276.526	15.353	1158.506	873.913
277.541	15.271	1158.047	873.063
278.555	15.301	1157.455	872.695
279.570	15.281	1156.628	871.893
280.585	15.375	1155.834	871.702
281.599	15.578	1154.469	871.651
282.614	15.411	1153.962	870.326
283.628	15.394	1152.413	868.991
284.643	15.396	1151.969	868.589
285.657	15.266	1151.582	867.548
286.672	15.418	1150.039	867.096
287.687	15.486	1149.422	866.906
288.701	15.464	1148.412	865.955
289.716	15.470	1147.614	865.304
290.730	15.505	1146.785	864.786
291.745	15.493	1146.543	864.462
292.760	15.555	1145.624	864.016
293.774	15.581	1145.137	863.705
294.789	15.636	1144.518	863.442
295.803	15.695	1143.421	862.841
296.818	15.636	1142.979	862.130
297.833	15.538	1142.390	861.106
298.847	15.658	1141.275	860.802
299.862	15.687	1140.658	860.408
300.876	15.611	1139.863	859.344
301.891	15.705	1139.093	859.171
302.906	15.777	1138.275	858.844
303.920	15.757	1137.841	858.340
304.935	15.801	1137.285	858.069
305.949	15.901	1136.519	857.925
306.964	15.886	1136.065	857.431
307.979	15.857	1134.993	856.396
308.993	15.846	1134.337	855.769
310.008	15.806	1133.632	854.958
311.022	15.780	1133.019	854.291
312.037	15.889	1131.717	853.782
313.052	15.936	1130.720	853.196
314.066	15.899	1130.067	852.440
315.081	15.875	1129.367	851.715
316.095	15.862	1128.729	851.094
317.110	15.985	1127.352	850.599
318.125	15.932	1126.918	849.928
319.139	15.849	1126.738	849.301
320.154	15.959	1125.900	849.148
321.168	15.869	1125.116	848.028
322.183	15.855	1124.926	847.738
323.197	15.901	1124.024	847.215
324.212	15.950	1122.812	846.473
325.227	15.941	1122.667	846.241
326.241	16.018	1121.882	845.964
327.256	16.022	1120.968	845.217
328.270	15.993	1120.369	844.547
329.285	15.948	1119.353	843.480
330.300	15.985	1118.090	842.640
331.314	15.916	1117.354	841.668
332.329	15.962	1116.206	840.955
333.343	16.076	1115.457	840.889
334.358	15.963	1114.685	839.669
335.373	16.019	1113.903	839.281
336.387	16.158	1113.005	839.221
337.402	16.052	1112.383	838.153
338.416	16.210	1111.496	838.193
339.431	16.262	1110.699	837.779
340.446	16.273	1110.201	837.384
341.460	16.292	1109.650	836.987
342.475	16.306	1108.872	836.396
343.489	16.320	1107.834	835.610
344.504	16.461	1106.593	835.297
345.519	16.304	1106.341	834.254
346.533	16.368	1105.394	833.785
347.548	16.441	1104.809	833.628
348.562	16.468	1103.866	832.978
349.577	16.429	1102.827	831.929
350.592	16.239	1102.743	830.855
351.606	16.500	1101.713	831.289
352.621	16.330	1101.154	829.955
353.635	16.350	1100.344	829.373
354.650	16.432	1099.482	829.050
355.665	16.389	1098.799	828.251
356.679	16.392	1098.330	827.841
357.694	16.481	1097.357	827.470
358.708	16.517	1097.033	827.329
359.723	16.445	1096.248	826.311
360.738	16.427	1096.303	826.193
361.752	16.502	1095.249	825.691
362.767	16.483	1094.936	825.288
363.781	16.516	1094.167	824.795
364.796	16.662	1093.208	824.714
365.810	16.618	1092.851	824.157
366.825	16.613	1092.156	823.532
367.840	16.717	1091.427	823.415
368.854	16.770	1090.849	823.166
369.869	16.742	1089.742	822.122
370.883	16.705	1089.221	821.477
371.898	16.730	1088.511	820.989
372.913	16.591	1087.883	819.771
373.927	16.787	1087.665	820.481
374.942	16.760	1086.948	819.737
375.956	16.858	1086.086	819.487
376.971	16.881	1085.731	819.258
377.986	16.912	1085.256	818.979
379.000	16.922	1084.697	818.534
380.015	16.974	1083.815	818.043
381.029	16.889	1083.322	817.189
382.044	16.911	1082.855	816.870
383.059	16.977	1081.803	816.326
384.073	17.003	1081.270	815.975
385.088	16.977	1080.146	814.930
386.102	16.975	1079.190	814.126
387.117	17.035	1078.395	813.740
388.132	17.013	1077.263	812.711
389.146	16.841	1076.976	811.600
390.161	16.907	1076.146	811.216
391.175	16.960	1075.333	810.786
392.190	16.926	1075.173	810.434
393.205	17.000	1073.742	809.632
394.219	17.099	1072.890	809.392
395.234	17.044	1071.958	808.354
396.248	17.122	1070.601	807.630
397.263	17.004	1069.966	806.522
398.278	17.130	1069.281	806.531
399.292	16.972	1068.752	805.311
400.307	17.062	1068.123	805.194
401.321	17.034	1067.581	804.580
402.336	17.074	1066.723	804.049
403.350	17.110	1066.032	803.628
404.365	17.206	1065.118	803.324
405.380	17.173	1064.657	802.750
406.394	17.145	1063.966	802.023
407.409	17.217	1062.810	801.423
408.423	17.350	1062.204	801.518
409.438	17.216	1061.560	800.332
410.453	17.319	1061.195	800.472
411.467	17.356	1060.088	799.738
412.482	17.460	1059.279	799.550
413.496	17.469	1058.400	798.854
414.511	17.540	1057.991	798.811
415.526	17.645	1057.429	798.806
416.540	17.597	1057.100	798.263
417.555	17.505	1057.112	797.770
418.569	17.517	1056.275	797.125
419.584	17.582	1055.668	796.899
420.599	17.404	1055.504	795.874
421.613	99.349	1316.876	1445.624
422.628	91.594	1354.925	1445.730
