DTS Sentinel unit serial number:	SN413079Multiplexer serial number:	ORYXHardware model number:	OX4-SRSoftware version number:	ORYX F/W v4.00 Oryx Data Collector v3.7.2.0data status	okinstallation	princeton_trtdifferential loss correction	single-endedforward channel	channel 2reverse channel	N/Adate	2019/09/15time	05:15:35forward acquisition time	60.00reverse acquisition time	0.00gamma	496.2192k internal	0.2326k external	0.2326temperature offset calibration	1.0032default loss term (dB/km)	0.3790temperature slope calibration	1.0000multiplexer offset coefficient	1.0000multiplexer slope coefficient	1.0000fibre end	0.00T internal ref (°C)	30.62T ext. ref 1 (°C)	4.77T ext. ref 2 (°C)	25.45length (m)	temperature (°C)	Stokes	anti-Stokes-747.200	-200.000	-0.011	0.135
-746.185	151.916	-0.193	0.266
-745.171	-200.000	0.052	-0.230
-744.156	31.243	-0.163	0.141
-743.142	403.421	0.066	-0.139
-742.127	-123.504	0.052	0.008
-741.112	412.348	-0.092	-0.197
-740.098	5.221	0.110	0.082
-739.083	595.133	-0.115	0.287
-738.069	53.176	-0.211	0.204
-737.054	64.068	-0.150	-0.152
-736.039	-37.046	-0.238	-0.128
-735.025	164.286	0.202	-0.288
-734.010	257.872	-0.175	-0.303
-732.996	-200.000	-0.037	-0.297
-731.981	-200.000	-0.009	0.071
-730.966	-120.989	0.138	0.023
-729.952	206.815	0.019	-0.029
-728.937	-200.000	0.007	-0.106
-727.923	-165.315	-0.188	-0.008
-726.908	-6.154	0.281	0.194
-725.894	-59.815	-0.323	-0.139
-724.879	118.556	-0.110	-0.137
-723.864	6.831	-0.365	-0.274
-722.850	43.223	-0.042	0.039
-721.835	800.000	-0.036	-0.114
-720.821	-81.787	-0.029	0.009
-719.806	181.397	-0.248	-0.367
-718.791	-2.190	-0.091	-0.064
-717.777	479.942	0.052	-0.118
-716.762	201.711	-0.057	0.089
-715.748	270.725	-0.027	-0.048
-714.733	102.746	0.092	-0.108
-713.718	-16.760	-0.223	0.142
-712.704	-200.000	0.003	-0.152
-711.689	800.000	-0.092	-0.301
-710.675	-141.086	0.249	-0.026
-709.660	-200.000	-0.043	0.257
-708.645	258.798	-0.111	0.193
-707.631	554.422	-0.121	0.292
-706.616	269.199	0.038	-0.067
-705.602	-83.720	0.124	-0.040
-704.587	-200.000	0.073	-0.354
-703.572	44.496	0.133	-0.123
-702.558	-95.641	0.356	0.096
-701.543	-24.435	0.162	0.097
-700.529	-69.755	0.150	-0.058
-699.514	772.275	0.069	0.190
-698.499	-200.000	0.026	-0.383
-697.485	-200.000	0.022	-0.099
-696.470	61.741	-0.410	-0.411
-695.456	31.577	-0.146	-0.126
-694.441	-116.042	-0.019	0.003
-693.426	-183.170	0.226	-0.004
-692.412	-99.468	-0.292	-0.074
-691.397	151.619	-0.154	0.211
-690.383	-97.900	-0.305	-0.079
-689.368	-61.712	0.394	-0.166
-688.354	180.636	-0.035	0.052
-687.339	53.434	0.021	-0.021
-686.324	72.260	-0.078	-0.082
-685.310	-185.692	-0.294	-0.004
-684.295	42.661	0.138	0.127
-683.281	47.581	0.178	-0.167
-682.266	59.068	-0.318	0.315
-681.251	-200.000	-0.007	0.088
-680.237	-118.338	0.108	-0.019
-679.222	-69.805	-0.205	0.079
-678.208	451.078	0.140	-0.311
-677.193	-200.000	-0.011	-0.062
-676.178	448.390	0.050	-0.110
-675.164	43.654	0.136	0.125
-674.149	-115.276	0.271	-0.052
-673.135	-41.583	0.293	0.151
-672.120	120.774	-0.137	-0.171
-671.105	-128.799	0.244	0.035
-670.091	-49.505	-0.313	-0.150
-669.076	27.347	0.071	0.060
-668.062	76.363	-0.103	-0.110
-667.047	182.580	-0.160	-0.237
-666.032	-200.000	0.027	0.174
-665.018	-122.530	-0.172	-0.028
-664.003	-42.595	-0.166	0.085
-662.989	773.917	-0.117	0.320
-661.974	800.000	0.056	0.171
-660.959	99.464	-0.042	-0.049
-659.945	-9.354	-0.214	-0.144
-658.930	74.607	-0.135	0.143
-657.916	43.511	-0.104	-0.095
-656.901	-200.000	0.043	0.207
-655.886	-46.833	0.315	-0.155
-654.872	93.851	-0.404	-0.461
-653.857	-86.333	-0.116	-0.036
-652.843	35.057	-0.158	-0.139
-651.828	-32.279	0.099	0.055
-650.814	800.000	-0.056	0.171
-649.799	232.070	0.161	-0.266
-648.784	-58.819	-0.280	0.122
-647.770	37.494	0.110	0.098
-646.755	614.902	-0.069	-0.174
-645.741	-91.378	0.131	0.038
-644.726	10.202	0.106	0.081
-643.711	-96.359	0.205	-0.054
-642.697	-61.389	-0.434	-0.183
-641.682	136.526	0.179	-0.235
-640.668	-78.281	0.227	0.078
-639.653	27.575	-0.113	0.095
-638.638	250.649	0.073	0.124
-637.624	493.535	-0.048	0.112
-636.609	43.025	-0.072	-0.066
-635.595	195.924	0.074	-0.113
-634.580	-46.742	-0.105	-0.052
-633.565	163.876	-0.111	0.157
-632.551	124.063	-0.076	0.095
-631.536	800.000	0.034	-0.108
-630.522	161.123	0.150	0.210
-629.507	143.543	-0.214	0.286
-628.492	318.411	0.101	-0.192
-627.478	-200.000	0.030	-0.242
-626.463	-62.353	-0.122	0.051
-625.449	-137.138	-0.037	-0.004
-624.434	144.824	-0.142	0.191
-623.419	800.000	-0.053	-0.191
-622.405	-200.000	0.020	-0.180
-621.390	-144.388	0.251	-0.023
-620.376	264.085	0.101	0.176
-619.361	800.000	-0.018	-0.053
-618.346	-36.242	-0.305	0.165
-617.332	-162.875	-0.029	-0.001
-616.317	228.179	-0.127	-0.207
-615.303	800.000	-0.023	0.069
-614.288	70.691	-0.093	-0.097
-613.273	-62.816	-0.165	0.069
-612.259	704.001	0.079	-0.209
-611.244	800.000	-0.084	-0.270
-610.230	800.000	-0.075	-0.224
-609.215	-200.000	0.004	-0.081
-608.201	46.789	-0.135	0.126
-607.186	-200.000	-0.033	0.202
-606.171	-86.496	-0.008	0.002
-605.157	-53.232	0.142	0.065
-604.142	59.691	0.287	0.284
-603.128	45.755	0.215	0.199
-602.113	43.215	-0.209	-0.192
-601.098	-160.321	0.216	-0.012
-600.084	-200.000	0.019	0.096
-599.069	800.000	0.007	-0.024
-598.055	228.398	0.158	-0.258
-597.040	498.862	-0.101	-0.232
-596.025	-49.576	-0.105	-0.050
-595.011	800.000	0.047	0.190
-593.996	-14.597	0.139	0.090
-592.982	-200.000	0.008	0.077
-591.967	547.952	-0.188	-0.451
-590.952	269.525	-0.136	-0.239
-589.938	800.000	0.067	0.218
-588.923	39.319	-0.139	0.124
-587.909	-200.000	0.045	-0.301
-586.894	800.000	-0.071	0.230
-585.879	29.963	-0.157	-0.134
-584.865	340.766	-0.017	-0.033
-583.850	-26.354	-0.274	0.161
-582.836	-200.000	-0.003	0.196
-581.821	-84.491	0.298	-0.094
-580.806	-140.061	-0.109	0.012
-579.792	-69.042	-0.098	-0.038
-578.777	178.565	-0.095	0.139
-577.763	-159.389	-0.565	0.032
-576.748	-200.000	0.008	-0.233
-575.733	-200.000	-0.026	0.420
-574.719	-38.802	0.137	0.072
-573.704	800.000	-0.044	-0.124
-572.690	60.930	-0.161	-0.160
-571.675	87.496	0.145	0.160
-570.661	-71.427	-0.206	0.077
-569.646	-76.986	-0.136	0.048
-568.631	-64.453	0.275	0.112
-567.617	-14.286	0.237	0.153
-566.602	448.281	-0.149	-0.330
-565.588	178.401	-0.084	0.123
-564.573	171.189	-0.097	-0.140
-563.558	211.405	-0.111	0.175
-562.544	-108.876	0.335	0.072
-561.529	-200.000	0.054	-0.384
-560.515	140.198	-0.277	0.366
-559.500	-200.000	0.035	-0.230
-558.485	49.155	-0.085	-0.080
-557.471	-16.512	-0.226	0.143
-556.456	-29.565	-0.237	0.135
-555.442	-81.528	-0.060	0.020
-554.427	-77.584	-0.242	0.084
-553.412	424.502	-0.106	0.229
-552.398	-200.000	-0.011	0.110
-551.383	-130.762	-0.272	-0.037
-550.369	800.000	-0.036	-0.142
-549.354	37.982	0.248	-0.221
-548.339	-82.543	0.245	-0.080
-547.325	658.716	0.146	0.376
-546.310	38.500	0.084	0.075
-545.296	800.000	0.031	-0.107
-544.281	-133.569	0.274	-0.034
-543.266	-87.452	-0.231	0.070
-542.252	-200.000	0.016	0.283
-541.237	800.000	0.010	-0.032
-540.223	-200.000	-0.018	0.242
-539.208	-3.961	0.368	0.255
-538.193	-200.000	0.022	-0.448
-537.179	-39.208	0.256	-0.134
-536.164	-200.000	-0.004	0.143
-535.150	40.083	-0.184	0.165
-534.135	-71.269	0.278	-0.104
-533.121	66.897	0.103	0.105
-532.106	-75.902	0.135	0.048
-531.091	-113.959	0.065	-0.013
-530.077	800.000	0.098	-0.334
-529.062	-90.574	0.119	-0.034
-528.048	263.981	-0.036	-0.063
-527.033	-200.000	0.014	-0.150
-526.018	-14.729	0.026	-0.017
-525.004	-200.000	-0.046	-0.347
-523.989	-3.867	-0.213	-0.148
-522.975	-192.256	-0.375	-0.004
-521.960	786.283	-0.046	0.125
-520.945	49.430	0.098	0.092
-519.931	-147.785	-0.208	0.017
-518.916	800.000	0.023	0.083
-517.902	229.257	-0.062	0.102
-516.887	-89.923	-0.235	0.069
-515.872	-200.000	-0.012	0.179
-514.858	-153.383	-0.111	0.008
-513.843	-200.000	0.001	-0.057
-512.829	236.597	0.098	0.161
-511.814	21.058	-0.215	0.174
-510.799	-101.289	-0.080	-0.019
-509.785	-53.926	0.182	0.083
-508.770	-200.000	-0.067	-0.347
-507.756	767.413	-0.094	-0.256
-506.741	-39.430	0.071	-0.037
-505.726	800.000	-0.051	-0.214
-504.712	781.840	0.149	-0.406
-503.697	40.982	-0.051	0.046
-502.683	-147.144	-0.144	0.012
-501.668	-77.094	-0.542	0.189
-500.653	-200.000	0.011	0.069
-499.639	-109.367	-0.269	-0.057
-498.624	293.615	-0.164	0.299
-497.610	-4.586	0.161	-0.111
-496.595	175.123	-0.029	0.042
-495.581	-35.423	-0.074	0.040
-494.566	-200.000	-0.029	0.182
-493.551	104.693	0.092	-0.108
-492.537	117.520	0.084	-0.103
-491.522	52.476	-0.183	-0.175
-490.508	800.000	0.045	-0.154
-489.493	-200.000	0.050	-0.314
-488.478	800.000	-0.019	-0.059
-487.464	116.800	0.245	-0.300
-486.449	138.833	0.056	0.073
-485.435	275.600	-0.077	0.137
-484.420	65.056	0.068	0.069
-483.405	-38.348	-0.213	-0.113
-482.391	73.889	-0.200	-0.209
-481.376	-151.117	-0.393	0.029
-480.362	652.027	0.049	0.126
-479.347	306.165	0.079	-0.147
-478.332	-107.138	-0.251	0.055
-477.318	-200.000	-0.028	0.441
-476.303	-11.888	0.163	-0.107
-475.289	484.908	-0.092	-0.210
-474.274	-84.322	-0.048	0.015
-473.259	800.000	0.018	0.068
-472.245	-71.557	-0.292	0.109
-471.230	773.497	0.083	0.225
-470.216	293.523	0.213	-0.389
-469.201	147.885	0.114	-0.154
-468.186	-59.927	-0.101	0.043
-467.172	310.409	-0.078	-0.146
-466.157	-94.009	0.045	-0.012
-465.143	-43.779	0.286	0.144
-464.128	-200.000	0.030	-0.145
-463.113	-194.402	0.269	-0.002
-462.099	-107.313	-0.095	0.021
-461.084	-142.440	-0.432	0.042
-460.070	591.807	-0.100	0.245
-459.055	-51.470	0.248	-0.115
-458.040	563.695	0.131	-0.315
-457.026	-200.000	-0.018	-0.211
-456.011	-200.000	0.042	-0.199
-454.997	369.968	0.194	0.392
-453.982	-180.829	-0.110	-0.002
-452.968	20.874	0.043	-0.035
-451.953	-200.000	-0.046	-0.345
-450.938	-200.000	-0.005	-0.108
-449.924	-82.959	0.373	-0.120
-448.909	800.000	-0.059	-0.229
-447.895	-15.966	-0.334	0.212
-446.880	323.121	-0.150	0.286
-445.865	-17.700	-0.163	0.102
-444.851	-62.752	-0.187	0.077
-443.836	-90.550	-0.387	0.111
-442.822	-36.908	0.155	-0.083
-441.807	800.000	-0.037	-0.132
-440.792	202.770	0.156	-0.240
-439.778	800.000	-0.102	-0.413
-438.763	277.581	0.070	0.124
-437.749	-74.630	-0.145	0.052
-436.734	287.249	-0.051	-0.091
-435.719	-200.000	-0.013	-0.302
-434.705	61.226	0.049	0.048
-433.690	-200.000	-0.007	-0.552
-432.676	-125.982	0.056	0.008
-431.661	800.000	-0.082	-0.310
-430.646	-25.392	0.168	0.099
-429.632	800.000	-0.034	-0.133
-428.617	800.000	0.053	-0.180
-427.603	9.987	0.239	0.181
-426.588	-28.537	-0.334	0.192
-425.573	-139.578	-0.239	-0.025
-424.559	-159.935	0.159	0.009
-423.544	-166.486	-0.121	-0.005
-422.530	-132.257	0.135	-0.017
-421.515	680.974	0.151	-0.393
-420.500	49.958	0.211	0.199
-419.486	-37.912	0.028	-0.015
-418.471	35.312	0.135	0.118
-417.457	89.389	0.177	0.196
-416.442	0.227	-0.243	0.172
-415.428	-94.625	-0.150	0.041
-414.413	-55.131	-0.178	-0.080
-413.398	283.257	-0.090	0.161
-412.384	9.253	-0.075	0.056
-411.369	-200.000	0.064	-0.328
-410.355	-89.492	0.305	0.089
-409.340	256.639	-0.114	0.195
-408.325	17.784	-0.075	0.059
-407.311	8.797	0.209	0.157
-406.296	641.386	-0.133	-0.336
-405.282	-57.176	0.008	-0.004
-404.267	232.293	-0.160	-0.261
-403.252	-101.656	0.414	0.100
-402.238	626.957	-0.144	0.361
-401.223	321.028	-0.054	-0.103
-400.209	-142.676	0.161	0.016
-399.194	2.015	-0.104	0.075
-398.179	800.000	0.035	-0.141
-397.165	454.146	-0.075	0.166
-396.150	53.248	0.299	0.285
-395.136	94.681	0.126	0.142
-394.121	-113.834	0.293	-0.057
-393.106	-144.288	0.336	-0.031
-392.092	-115.786	-0.254	-0.047
-391.077	-200.000	-0.002	0.097
-390.063	363.065	-0.199	-0.397
-389.048	-109.078	-0.104	0.022
-388.033	113.074	0.015	-0.018
-387.019	-200.000	0.029	0.143
-386.004	-112.769	0.276	0.055
-384.990	-81.835	-0.109	-0.035
-383.975	-200.000	0.005	0.174
-382.960	-161.259	-0.138	0.007
-381.946	800.000	-0.073	0.239
-380.931	-77.350	0.158	0.054
-379.917	158.627	-0.043	0.059
-378.902	129.457	-0.123	0.156
-377.888	-200.000	0.014	-0.285
-376.873	-200.000	-0.035	-0.187
-375.858	-200.000	0.028	0.275
-374.844	149.928	0.121	0.163
-373.829	-139.737	0.323	0.034
-372.815	565.054	0.166	0.399
-371.800	304.071	-0.038	0.070
-370.785	29.848	0.179	-0.152
-369.771	-81.185	0.262	0.086
-368.756	-11.816	-0.139	0.090
-367.742	342.458	0.185	-0.360
-366.727	-200.000	0.010	-0.320
-365.712	34.426	-0.151	0.131
-364.698	-200.000	-0.021	0.168
-363.683	-38.406	-0.264	0.139
-362.669	800.000	-0.064	-0.192
-361.654	-200.000	0.017	-0.216
-360.639	94.460	0.037	0.042
-359.625	800.000	0.152	-0.455
-358.610	800.000	0.094	-0.391
-357.596	-88.724	-0.135	0.040
-356.581	794.858	0.113	0.308
-355.566	50.996	0.189	0.178
-354.552	692.511	0.155	-0.404
-353.537	52.142	-0.113	0.107
-352.523	-105.788	0.212	0.048
-351.508	185.534	-0.029	0.043
-350.493	550.823	-0.097	0.230
-349.479	0.837	0.204	0.145
-348.464	16.616	0.351	0.275
-347.450	800.000	0.069	-0.208
-346.435	35.681	0.214	-0.187
-345.420	-200.000	-0.015	0.181
-344.406	153.198	-0.117	-0.159
-343.391	188.374	0.069	0.102
-342.377	265.974	0.133	0.230
-341.362	158.914	0.062	-0.085
-340.348	800.000	-0.025	-0.072
-339.333	282.651	-0.103	0.184
-338.318	-174.738	0.190	0.005
-337.304	-133.010	0.085	0.011
-336.289	-104.759	0.204	0.047
-335.275	684.727	-0.047	-0.121
-334.260	5.669	-0.290	-0.213
-333.245	-110.277	-0.087	-0.018
-332.231	-125.912	0.293	0.044
-331.216	-42.055	-0.244	-0.124
-330.202	800.000	0.042	0.130
-329.187	800.000	0.116	0.378
-328.172	-200.000	-0.062	-0.341
-327.158	-200.000	0.019	0.338
-326.143	188.990	-0.066	0.098
-325.129	214.753	-0.147	0.232
-324.114	136.164	-0.044	0.057
-323.099	461.845	-0.109	0.241
-322.085	800.000	-0.046	0.164
-321.070	220.189	-0.192	0.306
-320.056	-66.895	0.126	0.050
-319.041	-36.676	0.349	0.186
-318.026	-112.438	0.199	-0.039
-317.012	-72.796	0.180	-0.066
-315.997	-141.080	-0.104	-0.011
-314.983	-200.000	-0.040	-0.199
-313.968	238.010	0.051	-0.084
-312.953	800.000	-0.040	-0.129
-311.939	228.675	0.066	0.107
-310.924	-124.515	0.213	-0.033
-309.910	-78.430	-0.223	0.076
-308.895	-112.519	-0.117	-0.023
-307.880	-200.000	0.030	-0.156
-306.866	-6.732	-0.177	0.119
-305.851	-200.000	-0.009	0.053
-304.837	-99.074	0.069	0.017
-303.822	165.828	-0.077	0.108
-302.807	126.404	0.027	-0.033
-301.793	-76.280	-0.436	-0.152
-300.778	691.548	-0.037	0.096
-299.764	40.653	0.173	0.154
-298.749	-200.000	-0.037	-0.328
-297.735	312.023	-0.132	-0.246
-296.720	800.000	0.091	-0.346
-295.705	-66.479	0.371	0.146
-294.691	526.345	-0.125	0.291
-293.676	-118.211	-0.279	0.049
-292.662	-4.764	-0.142	0.097
-291.647	140.891	0.205	0.268
-290.632	-136.724	0.362	0.041
-289.618	29.915	0.220	-0.186
-288.603	-92.856	-0.178	0.049
-287.589	45.066	0.294	-0.269
-286.574	-126.813	-0.157	-0.023
-285.559	10.609	0.185	-0.140
-284.545	54.649	-0.221	-0.211
-283.530	800.000	0.087	0.275
-282.516	800.000	-0.111	0.334
-281.501	-131.867	0.095	0.012
-280.486	649.337	0.052	0.132
-279.472	-78.518	-0.114	0.039
-278.457	18.136	0.145	-0.115
-277.443	-107.854	-0.261	0.056
-276.428	800.000	-0.129	-0.420
-275.413	-22.444	0.284	0.170
-274.399	-119.754	-0.205	-0.035
-273.384	-78.756	-0.132	0.045
-272.370	628.842	-0.151	-0.377
-271.355	160.524	-0.065	0.090
-270.340	90.124	0.112	-0.124
-269.326	800.000	-0.009	-0.025
-268.311	-89.118	-0.206	-0.060
-267.297	-137.949	0.237	0.026
-266.282	-200.000	-0.002	-0.111
-265.267	55.238	0.152	-0.146
-264.253	131.221	-0.140	0.178
-263.238	-34.103	0.175	0.095
-262.224	224.901	0.036	-0.057
-261.209	-124.140	-0.071	-0.011
-260.195	-36.804	0.072	0.038
-259.180	565.046	0.190	-0.455
-258.165	16.478	0.283	-0.221
-257.151	-49.223	-0.182	0.086
-256.136	-31.311	-0.296	0.165
-255.122	-200.000	-0.000	-0.056
-254.107	-16.615	-0.288	-0.180
-253.092	86.575	-0.176	-0.192
-252.078	264.382	-0.171	-0.295
-251.063	-86.940	0.266	-0.080
-250.049	-200.000	0.024	-0.286
-249.034	109.485	0.245	0.290
-248.019	-181.146	-0.320	0.006
-247.005	459.553	0.098	-0.215
-245.990	-28.881	-0.151	-0.086
-244.976	-40.160	-0.143	-0.074
-243.961	321.850	0.247	0.464
-242.946	108.642	0.042	-0.049
-241.932	16.847	0.229	0.179
-240.917	92.260	0.219	0.245
-239.903	636.950	-0.108	0.272
-238.888	674.274	0.166	0.426
-237.873	94.440	-0.248	-0.278
-236.859	-91.821	0.220	0.062
-235.844	235.219	-0.343	0.561
-234.830	800.000	0.036	0.157
-233.815	-132.595	0.123	-0.016
-232.800	-101.011	0.337	0.082
-231.786	-200.000	0.012	-0.198
-230.771	-34.425	-0.155	0.084
-229.757	-151.688	0.195	0.014
-228.742	349.178	-0.066	-0.129
-227.727	800.000	0.050	-0.155
-226.713	169.024	-0.151	-0.213
-225.698	-115.020	-0.124	0.023
-224.684	-135.177	0.251	-0.030
-223.669	-155.772	0.316	0.020
-222.655	30.518	-0.070	-0.059
-221.640	58.628	0.211	0.205
-220.625	-61.949	-0.082	0.034
-219.611	-28.440	-0.305	-0.174
-218.596	775.195	0.090	-0.243
-217.582	433.091	0.190	-0.407
-216.567	-200.000	-0.003	0.194
-215.552	-21.361	-0.245	-0.148
-214.538	149.456	-0.049	-0.065
-213.523	144.979	-0.210	0.277
-212.509	-36.052	-0.380	0.203
-211.494	101.919	0.064	-0.074
-210.479	-32.059	-0.343	0.190
-209.465	72.165	0.145	-0.149
-208.450	-11.291	-0.155	0.101
-207.436	14.480	-0.043	0.033
-206.421	35.696	-0.053	0.046
-205.406	653.245	-0.050	0.127
-204.392	-200.000	-0.017	0.268
-203.377	462.625	-0.103	0.226
-202.363	-79.524	-0.321	-0.107
-201.348	-200.000	0.039	-0.244
-200.333	-5.293	0.323	0.219
-199.319	800.000	-0.061	0.169
-198.304	-200.000	0.049	0.345
-197.290	-68.417	0.151	0.058
-196.275	161.413	-0.147	0.202
-195.260	-21.289	0.196	0.118
-194.246	-200.000	-0.025	-0.186
-193.231	187.992	-0.167	-0.246
-192.217	-115.951	0.511	-0.094
-191.202	-2.005	0.393	-0.273
-190.187	-200.000	-0.034	0.315
-189.173	567.914	0.075	-0.179
-188.158	17.329	-0.137	0.107
-187.144	-132.015	0.286	0.037
-186.129	-135.055	-0.146	-0.017
-185.114	-30.032	-0.160	0.090
-184.100	12.166	0.165	0.125
-183.085	-142.166	0.275	0.027
-182.071	800.000	0.052	0.219
-181.056	-135.192	-0.207	-0.025
-180.042	-25.447	-0.028	0.016
-179.027	-200.000	-0.018	0.082
-178.012	800.000	-0.065	0.227
-176.998	343.171	-0.207	-0.400
-175.983	309.450	0.091	-0.169
-174.969	-94.994	-0.084	0.022
-173.954	-27.398	0.200	0.115
-172.939	-83.992	0.226	-0.071
-171.925	128.716	-0.056	-0.070
-170.910	310.663	-0.131	0.242
-169.896	-81.964	0.113	0.037
-168.881	-118.237	0.135	-0.024
-167.866	464.781	0.057	-0.126
-166.852	-44.162	0.238	0.118
-165.837	4.549	-0.277	-0.200
-164.823	-200.000	0.016	0.266
-163.808	-93.596	0.185	0.050
-162.793	-148.009	0.193	0.016
-161.779	800.000	0.041	0.145
-160.764	206.181	-0.176	0.270
-159.750	-200.000	-0.048	-0.286
-158.735	51.598	0.284	0.266
-157.720	2.279	-0.101	-0.072
-156.706	-142.296	0.172	-0.017
-155.691	-200.000	0.015	0.309
-154.677	-65.932	0.249	-0.098
-153.662	800.000	0.058	-0.232
-152.647	376.649	-0.089	-0.179
-151.633	-65.012	-0.159	0.063
-150.618	-155.012	-0.194	-0.013
-149.604	22.904	0.202	0.163
-148.589	800.000	-0.076	0.230
-147.574	105.465	-0.242	-0.281
-146.560	289.907	0.037	0.067
-145.545	30.383	0.293	-0.246
-144.531	-197.460	-0.205	0.001
-143.516	282.542	-0.087	0.154
-142.502	-200.000	-0.012	0.151
-141.487	64.551	0.128	0.127
-140.472	800.000	0.047	0.161
-139.458	-200.000	-0.019	0.237
-138.443	-183.655	0.154	-0.003
-137.429	-60.656	-0.177	0.074
-136.414	-200.000	-0.014	-0.201
-135.399	-172.663	-0.350	0.011
-134.385	72.927	-0.370	0.381
-133.370	522.425	0.048	0.112
-132.356	-127.863	-0.146	-0.021
-131.341	68.092	-0.231	-0.233
-130.326	-86.518	0.072	0.022
-129.312	42.634	-0.182	-0.163
-128.297	213.058	-0.084	-0.130
-127.283	590.002	-0.090	-0.218
-126.268	248.776	0.099	0.165
-125.253	40.896	-0.247	0.220
-124.239	800.000	0.034	0.137
-123.224	373.193	0.092	-0.184
-122.210	-160.708	0.368	-0.019
-121.195	-28.811	-0.186	-0.105
-120.180	-72.728	-0.367	0.133
-119.166	-200.000	-0.070	0.321
-118.151	800.000	-0.057	-0.181
-117.137	91.398	-0.135	0.150
-116.122	216.801	-0.127	-0.198
-115.107	192.168	-0.093	-0.137
-114.093	90.908	-0.197	0.218
-113.078	355.179	0.170	-0.332
-112.064	-200.000	-0.004	-0.119
-111.049	800.000	0.050	-0.204
-110.034	590.918	-0.105	0.256
-109.020	423.973	0.166	0.351
-108.005	-9.491	-0.307	0.202
-106.991	-200.000	0.019	0.197
-105.976	605.953	0.075	-0.185
-104.962	-200.000	-0.030	-0.287
-103.947	-200.000	0.029	-0.192
-102.932	-200.000	0.006	0.025
-101.918	-200.000	0.064	0.359
-100.903	245.537	-0.134	0.222
-99.889	227.361	0.138	-0.221
-98.874	759.808	-0.138	-0.368
-97.859	-83.090	0.169	-0.053
-96.845	-200.000	-0.021	-0.158
-95.830	-114.869	-0.191	0.036
-94.816	421.773	0.148	-0.312
-93.801	141.180	0.036	0.047
-92.786	-30.694	-0.255	0.142
-91.772	52.183	0.249	0.233
-90.757	-200.000	-0.004	0.124
-89.743	414.041	0.088	0.185
-88.728	-134.247	-0.323	0.039
-87.713	413.037	-0.111	0.232
-86.699	25.208	-0.187	0.152
-85.684	-6.059	-0.222	-0.149
-84.670	800.000	0.022	0.089
-83.655	75.047	0.120	0.124
-82.640	193.481	0.041	0.060
-81.626	494.734	0.123	-0.278
-80.611	531.942	0.094	0.219
-79.597	800.000	0.091	0.296
-78.582	-86.915	0.081	-0.024
-77.567	35.358	0.584	-0.503
-76.553	-200.000	-0.038	0.176
-75.538	132.716	-0.078	-0.099
-74.524	-126.624	-0.318	-0.046
-73.509	-71.418	-0.204	0.075
-72.494	-83.041	0.417	0.132
-71.480	-3.768	-0.055	-0.037
-70.465	326.259	-0.165	-0.311
-69.451	-41.871	0.253	0.128
-68.436	-200.000	0.005	0.111
-67.422	-99.063	-0.223	-0.055
-66.407	-86.005	-0.026	-0.008
-65.392	-11.677	-0.062	0.040
-64.378	-136.741	0.265	0.030
-63.363	-2.649	-0.181	0.124
-62.349	-114.454	0.305	-0.057
-61.334	68.293	-0.842	-0.847
-60.319	17.642	0.442	0.345
-59.305	538.296	-0.510	-1.189
-58.290	414.782	0.495	1.035
-57.276	379.897	0.837	1.685
-56.261	-200.000	103.004	589.170
-55.246	551.973	1436.796	3387.010
-54.232	186.140	2632.282	3843.283
-53.217	108.808	2280.271	2675.107
-52.203	39.769	1896.765	1670.591
-51.188	33.748	1685.192	1438.718
-50.173	31.249	1641.597	1382.968
-49.159	49.846	1692.975	1566.540
-48.144	50.622	1708.911	1587.052
-47.130	33.469	1668.117	1421.820
-46.115	30.752	1653.476	1389.046
-45.100	30.579	1648.495	1383.518
-44.086	30.534	1646.381	1381.352
-43.071	30.535	1643.481	1378.876
-42.057	30.550	1641.013	1376.859
-41.042	30.547	1639.019	1375.110
-40.027	30.487	1636.959	1372.884
-39.013	30.492	1635.522	1371.657
-37.998	30.430	1634.298	1370.120
-36.984	30.605	1632.398	1369.764
-35.969	30.549	1630.943	1368.077
-34.954	30.682	1629.497	1367.790
-33.940	30.614	1628.393	1366.308
-32.925	30.598	1626.222	1364.315
-31.911	30.683	1624.528	1363.463
-30.896	30.699	1622.578	1361.887
-29.881	30.605	1621.569	1360.302
-28.867	30.652	1619.067	1358.487
-27.852	30.632	1617.854	1357.274
-26.838	30.581	1616.256	1355.509
-25.823	30.643	1614.993	1354.845
-24.809	30.753	1613.615	1354.434
-23.794	30.602	1612.523	1352.368
-22.779	30.661	1610.580	1351.113
-21.765	30.668	1609.162	1349.917
-20.750	30.652	1607.418	1348.286
-19.736	30.610	1606.403	1347.078
-18.721	30.712	1604.889	1346.496
-17.706	30.614	1603.392	1344.477
-16.692	30.636	1601.740	1343.198
-15.677	30.646	1600.498	1342.173
-14.663	30.668	1599.260	1341.240
-13.648	30.633	1597.990	1339.869
-12.633	30.584	1596.248	1338.004
-11.619	30.660	1594.825	1337.307
-10.604	30.721	1593.308	1336.420
-9.590	30.623	1592.023	1334.584
-8.575	30.625	1591.149	1333.808
-7.560	30.700	1589.485	1332.899
-6.546	30.694	1589.166	1332.536
-5.531	30.572	1587.869	1330.521
-4.517	30.678	1585.768	1329.468
-3.502	30.582	1585.405	1328.424
-2.487	30.668	1583.321	1327.241
-1.473	30.368	1571.735	1315.348
-0.458	27.686	1552.617	1280.499
0.556	23.511	1553.894	1250.061
1.571	21.161	1578.386	1252.803
2.586	20.745	1591.631	1260.195
3.600	18.688	1537.957	1203.186
4.615	11.590	1431.512	1073.339
5.629	5.656	1371.093	990.518
6.644	4.856	1363.337	979.796
7.659	4.740	1362.262	978.209
8.673	4.736	1361.972	977.890
9.688	4.747	1359.410	976.032
10.702	4.716	1356.490	973.654
11.717	7.368	1361.789	994.014
12.731	14.377	1374.566	1047.456
13.746	18.743	1381.229	1079.960
14.761	18.675	1379.984	1078.465
15.775	17.667	1377.407	1070.033
16.790	16.656	1374.317	1061.200
17.804	15.841	1372.250	1054.409
18.819	15.486	1370.731	1050.925
19.834	15.310	1369.482	1048.775
20.848	14.992	1368.188	1045.702
21.863	14.735	1367.623	1043.571
22.877	14.583	1366.227	1041.466
23.892	14.624	1365.223	1040.867
24.907	14.640	1364.142	1040.049
25.921	14.556	1363.474	1038.922
26.936	14.601	1362.715	1038.535
27.950	14.738	1360.957	1037.955
28.965	14.796	1360.384	1037.787
29.980	14.816	1359.276	1036.972
30.994	14.935	1358.002	1036.645
32.009	15.015	1356.812	1036.141
33.023	14.920	1356.112	1034.926
34.038	14.948	1354.625	1033.873
35.053	14.819	1353.032	1031.768
36.067	14.758	1352.095	1030.587
37.082	14.870	1351.009	1030.357
38.096	14.759	1350.745	1029.381
39.111	14.808	1349.705	1028.800
40.126	14.771	1348.785	1027.781
41.140	14.609	1348.321	1026.341
42.155	14.525	1347.274	1024.937
43.169	14.537	1347.103	1024.790
44.184	14.551	1346.460	1024.298
45.199	14.544	1346.483	1024.182
46.213	14.583	1345.928	1023.902
47.228	14.664	1344.953	1023.569
48.242	14.769	1343.693	1023.163
49.257	14.697	1342.177	1021.476
50.271	14.740	1340.941	1020.712
51.286	14.669	1339.738	1019.270
52.301	14.736	1338.542	1018.678
53.315	14.632	1337.731	1017.338
54.330	14.667	1335.904	1016.072
55.344	14.560	1335.038	1014.672
56.359	14.603	1333.872	1013.955
57.374	14.542	1333.395	1013.134
58.388	14.526	1332.344	1012.150
59.403	14.460	1332.093	1011.468
60.417	14.560	1331.051	1011.192
61.432	14.484	1330.362	1010.123
62.447	14.481	1329.068	1009.032
63.461	14.375	1328.031	1007.511
64.476	14.367	1326.918	1006.530
65.490	14.437	1326.566	1006.596
66.505	14.459	1324.357	1004.966
67.520	14.364	1323.805	1003.886
68.534	14.457	1322.430	1003.315
69.549	14.442	1321.492	1002.421
70.563	14.450	1320.394	1001.549
71.578	14.346	1318.949	999.742
72.593	14.299	1318.076	998.709
73.607	14.296	1317.446	998.126
74.622	14.351	1316.669	997.779
75.636	14.435	1315.850	997.572
76.651	14.291	1315.574	996.413
77.666	14.282	1314.693	995.602
78.680	14.350	1314.359	995.670
79.695	14.399	1313.306	995.074
80.709	14.490	1312.835	995.170
81.724	14.504	1311.938	994.487
82.739	14.564	1311.259	994.246
83.753	14.717	1309.848	993.999
84.768	14.662	1309.368	993.218
85.782	14.750	1308.117	992.701
86.797	14.765	1306.870	991.758
87.812	14.654	1306.021	990.367
88.826	14.623	1304.526	988.961
89.841	14.689	1303.714	988.649
90.855	14.764	1302.817	988.329
91.870	14.684	1302.054	987.187
92.884	14.834	1300.874	987.089
93.899	14.935	1299.846	986.818
94.914	14.858	1299.337	985.891
95.928	14.908	1298.606	985.543
96.943	14.909	1297.588	984.689
97.957	14.815	1296.635	983.327
98.972	14.777	1295.823	982.398
99.987	14.845	1294.653	981.825
101.001	14.811	1293.594	980.736
102.016	14.828	1292.657	980.037
103.030	14.844	1291.634	979.273
104.045	14.795	1290.885	978.328
105.060	14.662	1289.831	976.668
106.074	14.546	1288.346	974.778
107.089	14.501	1286.527	973.052
108.103	14.462	1285.173	971.717
109.118	14.520	1284.214	971.240
110.133	14.522	1283.015	970.258
111.147	14.510	1281.535	968.985
112.162	14.518	1280.394	968.081
113.176	14.611	1279.218	967.649
114.191	14.657	1278.233	967.084
115.206	14.573	1277.110	965.663
116.220	14.576	1275.746	964.565
117.235	14.541	1275.072	963.766
118.249	14.671	1273.202	963.018
119.264	14.655	1272.537	962.336
120.279	14.461	1271.965	960.699
121.293	14.503	1270.856	960.020
122.308	14.548	1269.630	959.269
123.322	14.457	1268.739	957.989
124.337	14.419	1267.915	957.060
125.352	14.424	1266.501	955.936
126.366	14.538	1265.347	955.634
127.381	14.439	1264.743	954.529
128.395	14.551	1263.266	953.971
129.410	14.513	1262.965	953.443
130.424	14.487	1261.845	952.363
131.439	14.611	1260.694	952.117
132.454	14.584	1259.930	951.299
133.468	14.665	1258.907	950.905
134.483	14.619	1258.266	950.076
135.497	14.717	1256.870	949.497
136.512	14.598	1255.891	947.998
137.527	14.641	1254.642	947.214
138.541	14.681	1252.801	945.968
139.556	14.579	1251.788	944.542
140.570	14.723	1250.909	944.607
141.585	14.843	1249.545	944.174
142.600	14.718	1248.769	942.795
143.614	14.879	1247.464	942.639
144.629	14.898	1246.819	942.170
145.643	14.851	1245.714	940.988
146.658	14.784	1244.171	939.364
147.673	14.886	1242.556	938.633
148.687	14.756	1241.857	937.294
149.702	14.739	1240.584	936.155
150.716	14.721	1239.068	934.827
151.731	14.593	1238.225	933.394
152.746	14.653	1236.666	932.471
153.760	14.713	1235.857	932.110
154.775	14.905	1234.451	932.038
155.789	14.925	1233.547	931.384
156.804	14.821	1232.711	930.092
157.819	14.902	1231.441	929.505
158.833	14.989	1230.702	929.349
159.848	14.899	1230.053	928.272
160.862	15.015	1228.758	927.859
161.877	14.912	1227.357	926.149
162.892	14.765	1226.437	924.560
163.906	14.791	1225.652	924.028
164.921	14.866	1224.882	923.781
165.935	14.966	1223.795	923.432
166.950	14.863	1223.289	922.400
167.964	14.799	1222.418	921.309
168.979	14.866	1221.782	921.116
169.994	14.914	1221.137	920.811
171.008	14.871	1220.274	919.844
172.023	14.921	1219.541	919.488
173.037	15.054	1218.542	919.383
174.052	15.132	1217.814	919.177
175.067	14.940	1216.789	917.271
176.081	14.914	1215.951	916.417
177.096	14.870	1214.915	915.314
178.110	14.945	1214.045	914.988
179.125	15.014	1212.562	914.167
180.140	14.939	1211.381	912.785
181.154	15.075	1210.357	912.672
182.169	15.065	1209.100	911.593
183.183	15.010	1208.362	910.655
184.198	15.122	1207.085	910.219
185.213	15.039	1206.204	909.027
186.227	15.220	1204.418	908.580
187.242	15.304	1203.281	908.097
188.256	15.204	1202.631	906.983
189.271	15.353	1201.538	906.887
190.286	15.102	1200.617	904.756
191.300	14.915	1200.164	903.326
192.315	14.871	1198.745	901.939
193.329	14.941	1198.337	901.926
194.344	14.989	1197.765	901.676
195.359	15.055	1197.003	901.376
196.373	15.096	1196.909	901.448
197.388	15.202	1196.539	901.662
198.402	15.269	1196.228	901.707
199.417	15.347	1195.407	901.430
200.432	15.487	1194.384	901.329
201.446	15.529	1193.645	900.917
202.461	15.526	1192.835	900.209
203.475	15.482	1191.993	899.256
204.490	15.515	1190.361	898.121
205.504	15.400	1189.097	896.476
206.519	15.400	1188.239	895.751
207.534	15.360	1187.162	894.643
208.548	15.417	1186.243	894.179
209.563	15.373	1185.260	893.122
210.577	15.459	1183.923	892.495
211.592	15.454	1183.591	892.140
212.607	15.528	1182.978	891.988
213.621	15.608	1182.181	891.733
214.636	15.512	1181.114	890.345
215.650	15.494	1180.391	889.622
216.665	15.472	1179.499	888.754
217.680	15.675	1178.217	888.784
218.694	15.690	1177.166	887.992
219.709	15.597	1177.015	887.309
220.723	15.659	1176.301	887.020
221.738	15.660	1175.179	886.098
222.753	15.722	1174.528	885.856
223.767	15.669	1173.859	884.993
224.782	15.800	1173.104	885.038
225.796	15.837	1172.478	884.680
226.811	15.859	1171.855	884.249
227.826	15.682	1171.317	882.833
228.840	15.741	1170.332	882.325
229.855	15.760	1169.371	881.618
230.869	15.785	1168.513	881.028
231.884	15.671	1167.823	879.833
232.899	15.775	1166.866	879.575
233.913	15.555	1166.684	878.213
234.928	15.512	1166.160	877.517
235.942	15.548	1165.098	876.825
236.957	15.683	1164.063	876.676
237.972	15.733	1163.346	876.317
238.986	15.756	1162.915	876.033
240.001	15.678	1162.190	875.004
241.015	15.761	1161.290	874.681
242.030	15.752	1160.704	874.116
243.045	15.736	1159.864	873.322
244.059	15.875	1158.809	873.170
245.074	15.894	1158.229	872.754
246.088	15.890	1157.811	872.341
247.103	15.905	1156.710	871.515
248.117	15.943	1156.351	871.363
249.132	16.058	1155.441	871.195
250.147	16.187	1154.640	871.177
251.161	16.130	1154.436	870.656
252.176	16.233	1153.143	870.134
253.190	16.334	1152.716	870.252
254.205	16.354	1152.086	869.804
255.220	16.312	1151.869	869.348
256.234	16.362	1150.919	868.811
257.249	16.341	1150.169	868.058
258.263	16.343	1149.620	867.578
259.278	16.388	1148.945	867.225
260.293	16.297	1148.558	866.389
261.307	16.381	1147.911	866.252
262.322	16.401	1147.544	866.003
263.336	16.429	1146.238	865.083
264.351	16.574	1145.686	865.334
265.366	16.597	1144.658	864.597
266.380	16.472	1144.419	863.703
267.395	16.523	1143.027	862.836
268.409	16.534	1142.278	862.251
269.424	16.472	1142.101	861.724
270.439	16.413	1142.105	861.351
271.453	16.502	1141.011	860.903
272.468	16.437	1139.291	859.199
273.482	16.463	1138.793	858.876
274.497	16.319	1138.613	857.935
275.512	16.433	1137.882	857.887
276.526	16.508	1137.031	857.547
277.541	16.588	1136.114	857.186
278.555	16.508	1135.595	856.314
279.570	16.671	1134.800	856.465
280.585	16.617	1134.325	855.757
281.599	16.716	1133.309	855.415
282.614	16.646	1131.936	853.947
283.628	16.594	1131.082	852.969
284.643	16.610	1130.174	852.288
285.657	16.640	1129.331	851.729
286.672	16.672	1128.167	850.938
287.687	16.722	1127.388	850.526
288.701	16.702	1127.029	850.076
289.716	16.753	1125.936	849.430
290.730	16.632	1125.522	848.438
291.745	16.566	1124.994	847.634
292.760	16.723	1124.235	847.775
293.774	16.745	1123.785	847.472
294.789	16.893	1123.143	847.649
295.803	16.831	1121.952	846.366
296.818	16.774	1121.589	845.734
297.833	16.814	1120.776	845.248
298.847	16.784	1120.058	844.482
299.862	16.817	1118.848	843.658
300.876	16.788	1118.820	843.417
301.891	16.783	1118.436	843.030
302.906	16.931	1117.609	843.065
303.920	16.982	1116.801	842.637
304.935	17.057	1115.747	842.136
305.949	17.046	1116.043	842.229
306.964	17.074	1115.042	841.541
307.979	17.111	1114.068	840.914
308.993	17.042	1113.284	839.905
310.008	17.096	1112.253	839.322
311.022	17.163	1111.731	839.182
312.037	17.121	1110.894	838.270
313.052	17.141	1109.941	837.575
314.066	16.951	1109.128	835.951
315.081	16.923	1108.234	835.068
316.095	16.903	1107.766	834.543
317.110	16.982	1107.006	834.282
318.125	17.021	1106.020	833.656
319.139	16.913	1105.456	832.629
320.154	16.967	1104.846	832.360
321.168	17.115	1104.277	832.587
322.183	17.132	1103.550	832.045
323.197	16.903	1103.325	830.683
324.212	16.997	1102.800	830.671
325.227	17.103	1101.971	830.493
326.241	17.051	1101.114	829.518
327.256	17.144	1100.313	829.298
328.270	17.154	1099.284	828.497
329.285	17.042	1098.624	827.379
330.300	17.081	1097.786	826.865
331.314	17.151	1096.705	826.320
332.329	17.058	1096.002	825.263
333.343	17.252	1094.855	825.271
334.358	17.279	1094.268	824.887
335.373	17.371	1093.274	824.511
336.387	17.329	1092.674	823.780
337.402	17.459	1091.846	823.713
338.416	17.316	1091.758	822.881
339.431	17.330	1090.703	822.083
340.446	17.424	1090.748	822.495
341.460	17.563	1089.697	822.301
342.475	17.628	1088.531	821.663
343.489	17.546	1087.774	820.622
344.504	17.565	1087.173	820.189
345.519	17.631	1085.994	819.543
346.533	17.685	1085.655	819.477
347.548	17.590	1085.031	818.476
348.562	17.694	1083.840	818.002
349.577	17.585	1083.384	817.063
350.592	17.536	1082.492	816.086
351.606	17.497	1081.912	815.390
352.621	17.544	1080.805	814.708
353.635	17.412	1080.408	813.706
354.650	17.507	1079.706	813.556
355.665	17.548	1078.690	812.918
356.679	17.529	1078.259	812.429
357.694	17.540	1077.920	812.156
358.708	17.635	1077.071	811.892
359.723	17.677	1076.644	811.702
360.738	17.721	1075.831	811.228
361.752	17.648	1075.399	810.480
362.767	17.665	1074.751	810.000
363.781	17.737	1074.031	809.728
364.796	17.875	1073.351	809.800
365.810	17.787	1073.546	809.458
366.825	17.946	1072.000	808.972
367.840	17.897	1071.843	808.551
368.854	18.013	1071.384	808.682
369.869	18.092	1070.474	808.300
370.883	17.931	1069.701	806.883
371.898	17.879	1068.973	806.017
372.913	17.819	1068.845	805.565
373.927	17.923	1068.094	805.420
374.942	17.982	1067.604	805.256
375.956	18.082	1066.817	805.060
376.971	18.053	1066.093	804.309
377.986	18.077	1065.662	804.022
379.000	18.125	1065.113	803.765
380.015	18.098	1064.437	803.054
381.029	18.226	1063.991	803.248
382.044	18.190	1063.396	802.562
383.059	18.184	1062.530	801.806
384.073	18.068	1062.070	800.848
385.088	18.227	1061.119	800.802
386.102	18.068	1060.155	799.262
387.117	18.170	1058.985	798.784
388.132	18.209	1057.902	798.079
389.146	18.128	1057.217	797.116
390.161	18.019	1056.265	795.818
391.175	18.097	1056.062	795.959
392.190	18.336	1054.756	796.013
393.205	18.208	1054.436	795.107
394.219	18.196	1053.663	794.397
395.234	18.218	1052.715	793.714
396.248	18.239	1051.673	792.956
397.263	18.215	1050.479	791.875
398.278	18.103	1050.109	791.008
399.292	18.096	1049.436	790.400
400.307	18.060	1048.758	789.653
401.321	18.145	1047.997	789.400
402.336	18.082	1047.454	788.632
403.350	18.182	1046.555	788.348
404.365	18.185	1045.968	787.850
405.380	18.218	1045.666	787.702
406.394	18.213	1044.864	787.007
407.409	18.446	1043.657	787.096
408.423	18.434	1043.490	786.847
409.438	18.423	1042.769	786.182
410.453	18.525	1041.978	785.985
411.467	18.635	1041.269	785.884
412.482	18.576	1040.240	784.767
413.496	18.664	1040.051	784.959
414.511	18.728	1039.154	784.506
415.526	18.749	1038.688	784.182
416.540	18.737	1038.980	784.275
417.555	18.752	1037.576	783.215
418.569	18.749	1037.299	782.921
419.584	18.810	1036.726	782.700
420.599	18.566	1036.585	781.410
421.613	150.734	1402.068	1796.180
422.628	137.705	1455.303	1796.276
