DTS Sentinel unit serial number:	SN413079Multiplexer serial number:	ORYXHardware model number:	OX4-SRSoftware version number:	ORYX F/W v4.00 Oryx Data Collector v3.7.2.0data status	okinstallation	princeton_trtdifferential loss correction	single-endedforward channel	channel 2reverse channel	N/Adate	2019/09/16time	23:51:34forward acquisition time	60.00reverse acquisition time	0.00gamma	496.2192k internal	0.2329k external	0.2329temperature offset calibration	0.9974default loss term (dB/km)	0.3790temperature slope calibration	1.0000multiplexer offset coefficient	1.0000multiplexer slope coefficient	1.0000fibre end	0.00T internal ref (°C)	29.62T ext. ref 1 (°C)	0.09T ext. ref 2 (°C)	23.91length (m)	temperature (°C)	Stokes	anti-Stokes-747.200	-98.766	-0.323	0.083
-746.185	800.000	-0.138	0.477
-745.171	133.583	-0.302	0.393
-744.156	-39.540	-0.458	0.242
-743.142	-51.768	-0.229	0.107
-742.127	144.490	-0.067	-0.090
-741.112	800.000	0.072	0.224
-740.098	-63.784	-0.318	0.131
-739.083	2.553	-0.343	0.250
-738.069	626.132	-0.079	0.200
-737.054	192.058	0.051	0.077
-736.039	-36.801	-0.115	0.062
-735.025	182.083	0.090	0.133
-734.010	-29.761	-0.184	-0.105
-732.996	243.366	-0.115	0.194
-731.981	800.000	-0.090	0.326
-730.966	-21.422	0.104	0.064
-729.952	13.764	0.128	0.100
-728.937	-128.078	0.197	-0.028
-727.923	331.510	-0.111	-0.216
-726.908	-200.000	-0.017	0.079
-725.894	-16.160	-0.286	-0.183
-724.879	-175.045	-0.302	0.008
-723.864	193.423	-0.119	0.181
-722.850	800.000	-0.132	0.402
-721.835	-6.530	-0.193	-0.132
-720.821	-104.205	0.303	-0.071
-719.806	67.664	-0.180	0.185
-718.791	-3.793	0.239	0.167
-717.777	5.363	-0.252	0.187
-716.762	-115.413	-0.301	0.057
-715.748	-100.295	-0.307	-0.077
-714.733	311.619	-0.084	0.159
-713.718	-85.701	-0.378	-0.118
-712.704	-69.772	-0.134	-0.051
-711.689	800.000	0.029	-0.128
-710.675	512.317	0.151	-0.353
-709.660	-200.000	-0.028	-0.241
-708.645	282.681	0.137	0.247
-707.631	800.000	-0.051	-0.214
-706.616	-13.377	-0.214	-0.140
-705.602	-157.544	0.123	-0.007
-704.587	305.194	0.129	-0.241
-703.572	179.305	0.069	0.101
-702.558	100.304	0.240	-0.280
-701.543	385.249	-0.147	0.305
-700.529	-12.612	-0.352	-0.231
-699.514	623.711	-0.104	-0.263
-698.499	-200.000	0.027	-0.133
-697.485	-117.488	-0.254	-0.046
-696.470	-200.000	0.012	-0.292
-695.456	24.195	0.238	0.198
-694.441	-200.000	-0.001	-0.086
-693.426	103.968	-0.052	-0.062
-692.412	-24.831	0.256	0.153
-691.397	-200.000	0.009	0.343
-690.383	10.208	0.052	0.039
-689.368	13.058	-0.175	0.136
-688.354	-87.487	0.138	-0.042
-687.339	-8.900	-0.058	-0.039
-686.324	55.541	-0.169	-0.165
-685.310	-137.120	0.134	-0.015
-684.295	-82.631	-0.342	0.111
-683.281	13.523	0.195	-0.152
-682.266	-121.575	-0.345	-0.058
-681.251	31.955	-0.124	0.107
-680.237	800.000	-0.079	-0.227
-679.222	-71.723	0.114	-0.043
-678.208	153.251	-0.075	0.103
-677.193	-6.859	-0.202	-0.138
-676.178	504.092	-0.036	0.083
-675.164	166.966	-0.097	-0.138
-674.149	-200.000	-0.023	-0.194
-673.135	-154.509	-0.057	-0.004
-672.120	156.979	0.045	0.063
-671.105	-102.500	0.330	-0.079
-670.091	-42.907	0.173	0.088
-669.076	-109.915	-0.107	-0.023
-668.062	-200.000	-0.018	-0.147
-667.047	160.661	-0.168	-0.235
-666.032	-200.000	0.007	-0.064
-665.018	53.133	-0.123	-0.118
-664.003	-125.526	-0.228	0.035
-662.989	19.686	-0.158	-0.127
-661.974	-200.000	-0.013	-0.163
-660.959	518.733	0.060	0.141
-659.945	800.000	-0.098	-0.294
-658.930	-112.533	-0.244	0.049
-657.916	-124.805	-0.170	-0.026
-656.901	800.000	-0.065	0.279
-655.886	-51.251	0.342	0.161
-654.872	-200.000	0.068	0.306
-653.857	-26.285	0.248	0.146
-652.843	182.125	0.074	0.110
-651.828	22.811	-0.088	-0.073
-650.814	-56.796	0.199	0.088
-649.799	68.589	0.094	-0.097
-648.784	-200.000	-0.006	-0.178
-647.770	41.485	-0.140	-0.127
-646.755	-200.000	-0.120	0.000
-645.741	-200.000	0.002	0.069
-644.726	-68.575	-0.187	0.073
-643.711	6.012	-0.302	0.225
-642.697	198.728	0.286	-0.439
-641.682	800.000	-0.078	-0.333
-640.668	194.822	-0.190	-0.289
-639.653	508.930	-0.193	0.451
-638.638	-76.541	0.197	-0.069
-637.624	201.704	0.114	-0.176
-636.609	-129.217	0.329	0.046
-635.595	-117.221	-0.293	0.053
-634.580	-200.000	0.001	-0.408
-633.565	-200.000	0.002	-0.133
-632.551	-135.232	-0.150	-0.018
-631.536	-119.060	-0.309	0.054
-630.522	-56.624	-0.325	-0.144
-629.507	-200.000	0.005	0.231
-628.492	800.000	0.127	0.405
-627.478	-200.000	-0.018	0.243
-626.463	-200.000	-0.021	0.182
-625.449	-12.166	0.122	-0.080
-624.434	113.195	-0.089	-0.108
-623.419	-24.639	-0.218	-0.130
-622.405	-145.173	-0.566	-0.051
-621.390	232.010	-0.107	0.176
-620.376	-200.000	-0.009	-0.050
-619.361	74.606	0.158	-0.166
-618.346	-200.000	-0.011	0.151
-617.332	593.676	0.185	0.457
-616.317	16.966	0.036	0.028
-615.303	-43.635	-0.027	-0.013
-614.288	-134.644	0.416	-0.051
-613.273	45.663	0.147	-0.136
-612.259	-9.745	-0.137	-0.091
-611.244	-127.886	-0.201	0.029
-610.230	-10.111	-0.306	-0.204
-609.215	48.962	0.142	0.134
-608.201	-53.466	-0.208	-0.095
-607.186	531.601	-0.172	-0.407
-606.171	-200.000	0.009	-0.219
-605.157	-48.166	0.134	-0.065
-604.142	-107.054	-0.239	-0.053
-603.128	310.413	0.080	-0.151
-602.113	-91.239	0.234	0.067
-601.098	150.196	0.261	0.354
-600.084	800.000	-0.055	0.236
-599.069	-150.182	-0.029	0.002
-598.055	75.009	0.165	0.174
-597.040	-146.680	0.276	0.024
-596.025	9.649	0.152	-0.116
-595.011	243.599	0.125	-0.210
-593.996	-200.000	-0.022	0.158
-592.982	-101.434	0.178	0.043
-591.967	36.975	-0.214	-0.190
-590.952	700.932	-0.032	-0.085
-589.938	800.000	0.064	-0.237
-588.923	-119.148	-0.203	-0.035
-587.909	40.985	-0.256	0.231
-586.894	800.000	-0.031	-0.111
-585.879	245.067	0.035	0.058
-584.865	-158.048	0.244	-0.014
-583.850	-132.302	0.148	-0.019
-582.836	-61.935	-0.149	0.062
-581.821	22.895	0.199	0.163
-580.806	139.031	-0.101	0.133
-579.792	-18.244	0.139	-0.087
-578.777	-22.153	-0.169	-0.103
-577.763	-108.962	0.410	-0.087
-576.748	-53.416	0.118	-0.054
-575.733	-93.112	0.408	0.114
-574.719	-160.338	-0.277	-0.015
-573.704	-96.394	0.193	0.051
-572.690	-39.480	-0.165	-0.086
-571.675	-10.816	-0.190	0.125
-570.661	103.840	-0.307	0.361
-569.646	76.011	-0.263	0.278
-568.631	40.497	-0.140	-0.126
-567.617	-127.893	-0.037	-0.005
-566.602	-42.489	-0.232	0.118
-565.588	-78.976	0.194	0.066
-564.573	-71.901	0.136	-0.051
-563.558	-70.824	-0.196	0.074
-562.544	-200.000	0.063	0.381
-561.529	-4.095	-0.039	-0.027
-560.515	800.000	0.081	0.284
-559.500	800.000	0.023	-0.069
-558.485	800.000	0.082	-0.236
-557.471	81.954	0.214	-0.232
-556.456	253.437	-0.068	-0.116
-555.442	20.932	-0.104	-0.084
-554.427	-118.540	-0.224	0.040
-553.412	-82.303	0.356	-0.116
-552.398	800.000	0.029	0.127
-551.383	-49.902	-0.408	-0.194
-550.369	-95.703	-0.146	0.039
-549.354	-70.877	0.267	-0.101
-548.339	7.079	0.072	0.054
-547.325	-53.102	-0.224	0.103
-546.310	800.000	0.058	-0.218
-545.296	-23.254	0.143	-0.086
-544.281	301.691	0.231	-0.427
-543.266	-200.000	-0.061	0.281
-542.252	-200.000	0.038	0.196
-541.237	760.564	-0.107	-0.289
-540.223	273.931	-0.086	-0.152
-539.208	-148.819	0.202	0.016
-538.193	687.008	0.081	0.211
-537.179	-200.000	0.000	0.142
-536.164	-30.331	0.134	-0.076
-535.150	175.659	-0.178	-0.258
-534.135	488.044	-0.088	-0.202
-533.121	-87.498	-0.211	0.064
-532.106	717.245	-0.027	-0.073
-531.091	301.820	-0.032	0.059
-530.077	-200.000	-0.074	0.366
-529.062	-167.306	-0.368	-0.015
-528.048	800.000	-0.051	-0.173
-527.033	508.665	-0.038	0.089
-526.018	800.000	-0.080	0.324
-525.004	128.352	0.086	-0.110
-523.989	559.314	0.068	-0.163
-522.975	800.000	0.016	-0.063
-521.960	98.588	0.100	0.115
-520.945	186.453	-0.092	-0.137
-519.931	-200.000	-0.012	0.161
-518.916	-61.782	0.149	0.062
-517.902	519.875	-0.117	0.274
-516.887	-200.000	0.000	0.309
-515.872	800.000	-0.120	0.342
-514.858	-2.027	0.171	0.120
-513.843	299.803	0.029	0.053
-512.829	-30.220	0.223	0.127
-511.814	677.840	-0.122	-0.318
-510.799	584.645	0.102	0.251
-509.785	800.000	0.053	0.171
-508.770	-112.718	0.249	0.049
-507.756	144.865	0.187	0.250
-506.741	-163.526	-0.179	-0.008
-505.726	322.317	0.056	-0.106
-504.712	-114.789	0.189	-0.036
-503.697	800.000	-0.014	-0.039
-502.683	27.518	0.155	-0.130
-501.668	-200.000	-0.006	0.093
-500.653	148.661	-0.069	-0.094
-499.639	19.218	0.177	-0.142
-498.624	659.111	-0.099	-0.255
-497.610	35.752	-0.292	0.256
-496.595	-200.000	-0.020	0.219
-495.581	-200.000	-0.040	-0.233
-494.566	800.000	-0.070	0.262
-493.551	-48.085	-0.123	-0.059
-492.537	-44.762	0.300	0.149
-491.522	800.000	-0.129	-0.366
-490.508	-20.591	0.107	-0.066
-489.493	-200.000	0.038	-0.222
-488.478	-137.031	-0.122	0.014
-487.464	428.960	-0.064	-0.137
-486.449	75.752	0.144	-0.152
-485.435	160.979	-0.299	-0.416
-484.420	-58.005	-0.144	0.063
-483.405	-96.815	0.461	-0.121
-482.391	-158.402	0.123	-0.007
-481.376	-42.700	-0.069	0.035
-480.362	144.095	0.114	-0.151
-479.347	79.756	0.195	-0.209
-478.332	-15.611	0.098	-0.062
-477.318	9.445	-0.340	-0.257
-476.303	800.000	0.119	0.328
-475.289	-25.295	0.298	0.175
-474.274	32.549	-0.027	0.023
-473.259	-10.674	-0.333	0.220
-472.245	-165.281	0.145	-0.006
-471.230	-25.609	-0.211	0.124
-470.216	-35.859	0.283	0.153
-469.201	13.780	-0.148	0.115
-468.186	88.344	0.119	0.131
-467.172	-45.886	-0.405	-0.199
-466.157	-200.000	0.034	-0.164
-465.143	17.287	0.064	0.050
-464.128	-63.065	-0.330	-0.136
-463.113	-82.162	-0.042	-0.014
-462.099	-50.846	0.306	-0.143
-461.084	515.567	0.031	-0.073
-460.070	-107.408	0.090	0.020
-459.055	106.418	0.094	0.111
-458.040	228.053	-0.089	-0.144
-457.026	-155.338	-0.354	0.023
-456.011	-111.593	-0.197	0.040
-454.997	11.574	-0.231	-0.176
-453.982	-10.855	0.365	0.240
-452.968	24.772	0.274	-0.226
-451.953	-144.744	-0.178	-0.016
-450.938	-81.248	0.282	0.093
-449.924	-174.199	0.174	-0.005
-448.909	-107.553	0.383	0.084
-447.895	325.562	0.074	-0.141
-446.880	96.393	0.175	-0.199
-445.865	-200.000	-0.019	-0.281
-444.851	-66.929	-0.015	-0.006
-443.836	21.008	0.265	0.214
-442.822	-113.888	-0.093	-0.018
-441.807	-200.000	0.004	0.268
-440.792	800.000	-0.064	0.178
-439.778	800.000	0.058	0.180
-438.763	-23.794	-0.219	0.131
-437.749	-200.000	0.036	-0.193
-436.734	800.000	-0.048	0.176
-435.719	800.000	-0.138	0.591
-434.705	-77.333	-0.492	0.170
-433.690	54.174	-0.358	0.343
-432.676	475.186	0.094	0.211
-431.661	2.837	0.174	0.126
-430.646	-200.000	0.003	-0.212
-429.632	411.193	-0.084	-0.177
-428.617	44.458	0.157	-0.144
-427.603	-92.420	-0.420	-0.117
-426.588	133.215	-0.083	-0.106
-425.573	125.681	0.142	-0.178
-424.559	98.192	-0.089	0.102
-423.544	-200.000	0.016	-0.145
-422.530	282.210	0.115	-0.206
-421.515	-154.392	-0.273	-0.018
-420.500	-55.548	0.302	-0.134
-419.486	-200.000	0.016	-0.097
-418.471	-200.000	-0.023	0.326
-417.457	48.550	0.074	-0.069
-416.442	-7.544	-0.042	0.028
-415.428	-61.312	-0.282	-0.118
-414.413	191.726	-0.031	0.046
-413.398	800.000	-0.064	0.201
-412.384	72.309	0.029	0.030
-411.369	35.021	-0.147	-0.128
-410.355	-200.000	0.011	0.072
-409.340	134.438	0.138	-0.178
-408.325	-200.000	-0.063	0.387
-407.311	367.920	-0.067	-0.135
-406.296	800.000	0.034	-0.108
-405.282	-200.000	0.010	0.079
-404.267	-52.510	-0.272	-0.125
-403.252	-200.000	-0.021	-0.325
-402.238	449.940	-0.015	0.033
-401.223	132.244	-0.155	-0.198
-400.209	-27.919	0.260	-0.150
-399.194	-200.000	0.019	0.154
-398.179	-116.607	0.132	0.024
-397.165	-85.090	-0.345	-0.107
-396.150	155.782	0.151	0.206
-395.136	-200.000	-0.009	0.097
-394.121	107.362	-0.150	-0.178
-393.106	-10.425	-0.139	0.091
-392.092	-138.501	0.275	-0.030
-391.077	-98.956	-0.122	0.031
-390.063	-25.974	-0.346	0.202
-389.048	33.311	-0.139	0.120
-388.033	-17.279	-0.214	-0.134
-387.019	20.882	-0.077	0.062
-386.004	53.391	0.269	0.256
-384.990	672.310	0.117	0.302
-383.975	-163.772	0.271	0.013
-382.960	643.486	0.071	-0.179
-381.946	-25.299	-0.146	0.086
-380.931	-94.017	0.322	0.088
-379.917	-135.289	0.180	0.021
-378.902	-16.426	-0.300	-0.189
-377.888	104.720	-0.075	0.088
-376.873	-65.366	-0.095	0.038
-375.858	346.577	-0.169	-0.331
-374.844	800.000	-0.103	0.356
-373.829	534.966	-0.062	-0.145
-372.815	108.169	-0.081	-0.096
-371.800	13.331	-0.119	-0.091
-370.785	443.955	0.144	-0.312
-369.771	144.441	0.070	0.093
-368.756	-34.060	0.034	-0.019
-367.742	379.562	-0.091	-0.186
-366.727	-84.568	0.163	-0.051
-365.712	-200.000	0.013	-0.141
-364.698	218.598	-0.187	-0.297
-363.683	677.007	0.157	0.405
-362.669	12.286	0.189	0.144
-361.654	118.857	0.007	0.009
-360.639	-200.000	-0.041	-0.362
-359.625	-166.071	0.376	0.016
-358.610	-56.267	-0.169	-0.074
-357.596	-200.000	-0.044	-0.265
-356.581	108.119	0.038	0.045
-355.566	143.766	-0.179	0.237
-354.552	791.936	0.055	-0.151
-353.537	-116.174	-0.187	-0.034
-352.523	-84.103	-0.179	0.057
-351.508	-92.302	-0.190	-0.053
-350.493	202.462	-0.153	-0.235
-349.479	32.342	0.285	-0.244
-348.464	-96.394	0.269	0.071
-347.450	-158.415	-0.085	-0.005
-346.435	-166.790	0.105	-0.004
-345.420	78.699	-0.117	0.124
-344.406	561.307	0.102	-0.246
-343.391	230.356	-0.200	-0.324
-342.377	-86.736	-0.112	0.034
-341.362	-200.000	-0.003	0.081
-340.348	61.235	0.234	-0.230
-339.333	-145.967	0.324	-0.028
-338.318	211.624	-0.214	-0.334
-337.304	-108.009	0.382	-0.082
-336.289	707.614	-0.070	-0.183
-335.275	118.152	0.077	-0.094
-334.260	397.444	0.155	0.321
-333.245	504.980	0.053	-0.123
-332.231	21.056	-0.208	-0.167
-331.216	731.596	-0.118	-0.312
-330.202	800.000	-0.063	-0.174
-329.187	-8.995	-0.155	-0.103
-328.172	-105.873	-0.249	-0.056
-327.158	-30.707	0.183	0.103
-326.143	80.408	-0.182	-0.194
-325.129	210.263	0.154	0.239
-324.114	196.896	0.131	-0.198
-323.099	800.000	0.032	0.108
-322.085	-200.000	-0.041	0.226
-321.070	-200.000	0.015	-0.157
-320.056	48.760	-0.184	0.171
-319.041	27.677	-0.102	-0.085
-318.026	-38.652	0.236	-0.124
-317.012	800.000	0.042	0.139
-315.997	-200.000	0.014	-0.279
-314.983	-114.490	0.157	-0.030
-313.968	-200.000	0.006	0.454
-312.953	621.655	0.065	0.161
-311.939	36.512	-0.235	0.206
-310.924	800.000	0.105	0.315
-309.910	-82.687	0.185	0.059
-308.895	157.047	0.190	0.260
-307.880	413.990	-0.090	0.189
-306.866	10.794	-0.122	0.092
-305.851	129.097	0.163	0.206
-304.837	35.469	0.086	0.075
-303.822	-200.000	-0.014	-0.114
-302.807	783.170	0.051	0.139
-301.793	-57.436	0.213	0.093
-300.778	-100.682	-0.297	0.073
-299.764	-75.577	0.102	-0.036
-298.749	-19.671	-0.386	-0.237
-297.735	19.377	-0.185	-0.147
-296.720	800.000	-0.070	-0.293
-295.705	800.000	-0.033	-0.135
-294.691	-167.022	0.441	0.018
-293.676	27.993	-0.177	-0.147
-292.662	-200.000	-0.025	0.198
-291.647	-156.030	-0.106	-0.007
-290.632	109.151	-0.017	0.020
-289.618	-5.069	-0.294	0.200
-288.603	800.000	0.057	0.171
-287.589	0.421	0.176	-0.124
-286.574	-135.905	-0.239	-0.028
-285.559	94.215	-0.042	0.047
-284.545	180.764	0.244	0.355
-283.530	-200.000	0.043	0.218
-282.516	293.303	-0.228	-0.412
-281.501	-129.509	-0.520	0.071
-280.486	375.113	0.130	0.262
-279.472	105.400	0.287	0.335
-278.457	-29.688	0.197	0.111
-277.443	-70.840	-0.264	0.098
-276.428	-48.844	-0.084	0.040
-275.413	-53.263	-0.150	0.068
-274.399	-200.000	-0.027	-0.464
-273.384	800.000	-0.040	0.161
-272.370	-80.209	0.388	-0.128
-271.355	-200.000	0.005	0.237
-270.340	-12.395	-0.296	-0.191
-269.326	-134.523	0.083	-0.010
-268.311	-9.898	-0.159	-0.105
-267.297	240.058	-0.037	0.060
-266.282	12.240	0.153	0.116
-265.267	800.000	0.055	0.172
-264.253	-200.000	-0.006	-0.252
-263.238	31.986	-0.247	0.210
-262.224	-114.450	0.387	0.073
-261.209	229.891	0.177	0.286
-260.195	578.022	-0.105	-0.253
-259.180	-9.784	0.192	-0.126
-258.165	374.639	-0.102	0.206
-257.151	-200.000	0.019	0.252
-256.136	-200.000	-0.037	-0.246
-255.122	-40.036	0.196	-0.101
-254.107	660.674	0.082	0.208
-253.092	3.304	0.085	-0.061
-252.078	-6.981	0.231	0.155
-251.063	-200.000	0.007	0.169
-250.049	-110.429	0.260	0.053
-249.034	-54.139	0.094	-0.042
-248.019	6.766	-0.129	0.094
-247.005	-170.602	-0.091	0.003
-245.990	-97.955	0.120	0.031
-244.976	338.841	0.116	0.223
-243.961	730.159	-0.125	-0.330
-242.946	-34.356	0.114	0.062
-241.932	-200.000	-0.004	0.106
-240.917	-120.432	-0.140	0.023
-239.903	-200.000	0.001	-0.410
-238.888	800.000	0.097	-0.268
-237.873	287.216	0.120	0.214
-236.859	213.327	-0.153	0.239
-235.844	-179.103	0.209	0.005
-234.830	281.378	-0.084	0.148
-233.815	-200.000	0.032	-0.252
-232.800	-200.000	0.016	0.103
-231.786	-166.535	0.087	0.004
-230.771	-200.000	-0.005	0.064
-229.757	-84.654	0.110	0.034
-228.742	1.048	0.259	-0.183
-227.727	199.769	0.065	0.098
-226.713	-200.000	0.000	-0.073
-225.698	-129.678	-0.127	0.017
-224.684	472.093	0.060	0.134
-223.669	-39.213	0.195	-0.101
-222.655	82.386	-0.065	-0.069
-221.640	313.915	0.061	0.114
-220.625	19.963	0.087	0.069
-219.611	55.056	0.222	0.212
-218.596	-91.473	0.014	-0.004
-217.582	-199.621	-0.170	-0.001
-216.567	-131.171	-0.057	-0.007
-215.552	-159.408	0.185	-0.010
-214.538	-200.000	-0.000	-0.064
-213.523	800.000	-0.067	-0.189
-212.509	212.785	0.103	0.160
-211.494	-39.068	0.111	0.057
-210.479	-200.000	0.062	0.303
-209.465	-25.655	-0.223	-0.130
-208.450	-200.000	-0.015	-0.071
-207.436	413.083	-0.132	-0.278
-206.421	-200.000	0.017	-0.207
-205.406	-136.865	0.428	-0.048
-204.392	800.000	0.049	-0.187
-203.377	-106.506	-0.150	0.033
-202.363	-135.583	-0.462	-0.054
-201.348	800.000	0.036	-0.132
-200.333	-117.409	-0.214	0.038
-199.319	301.412	-0.064	-0.116
-198.304	92.277	-0.125	0.139
-197.290	-30.643	0.082	-0.046
-196.275	-200.000	0.011	-0.271
-195.260	-200.000	0.011	0.275
-194.246	317.824	0.124	-0.231
-193.231	-156.464	0.196	0.012
-192.217	-38.058	-0.124	0.065
-191.202	-200.000	-0.009	-0.104
-190.187	80.632	0.146	-0.155
-189.173	-152.262	-0.166	-0.012
-188.158	-200.000	0.014	-0.080
-187.144	-22.547	0.240	-0.143
-186.129	393.083	0.042	0.087
-185.114	105.010	-0.075	-0.087
-184.100	-200.000	0.031	-0.294
-183.085	-85.649	-0.102	0.031
-182.071	-149.265	0.121	-0.009
-181.056	25.855	-0.090	0.074
-180.042	800.000	-0.094	0.312
-179.027	293.681	0.031	0.056
-178.012	-142.584	0.097	0.009
-176.998	-47.363	0.253	-0.121
-175.983	136.509	0.232	-0.298
-174.969	-104.560	0.284	-0.064
-173.954	77.772	0.027	-0.029
-172.939	-84.542	-0.276	-0.086
-171.925	800.000	-0.030	0.108
-170.910	-200.000	-0.016	-0.330
-169.896	-56.141	0.162	0.071
-168.881	-56.255	0.054	-0.024
-167.866	630.124	0.075	0.188
-166.852	800.000	0.077	0.291
-165.837	103.057	0.087	0.100
-164.823	-33.663	-0.235	-0.128
-163.808	-156.144	0.086	0.005
-162.793	-200.000	0.031	0.185
-161.779	3.571	0.159	0.114
-160.764	-86.199	-0.539	0.164
-159.750	-200.000	-0.034	0.434
-158.735	-26.088	0.255	0.148
-157.720	-200.000	-0.008	0.130
-156.706	800.000	0.071	0.226
-155.691	689.755	-0.083	-0.213
-154.677	800.000	-0.059	0.218
-153.662	800.000	0.059	-0.193
-152.647	338.371	-0.135	0.259
-151.633	206.428	0.126	-0.193
-150.618	674.251	-0.036	-0.092
-149.604	-70.604	0.314	-0.117
-148.589	8.673	-0.171	-0.127
-147.574	-200.000	0.055	-0.396
-146.560	800.000	-0.060	0.245
-145.545	144.402	0.302	0.397
-144.531	-89.444	-0.156	0.045
-143.516	16.703	0.175	-0.136
-142.502	281.158	-0.037	0.065
-141.487	112.164	0.116	0.138
-140.472	87.135	-0.215	0.234
-139.458	111.312	-0.153	0.181
-138.443	-76.112	0.220	-0.076
-137.429	36.916	0.263	-0.229
-136.414	-142.899	-0.542	0.052
-135.399	-81.786	0.160	0.052
-134.385	10.507	0.216	-0.162
-133.370	123.124	-0.050	-0.061
-132.356	177.513	-0.146	-0.209
-131.341	121.335	-0.170	0.209
-130.326	-200.000	0.000	0.055
-129.312	-13.662	0.155	0.099
-128.297	-124.373	0.307	-0.047
-127.283	571.482	-0.088	-0.210
-126.268	413.127	0.045	-0.094
-125.253	800.000	0.076	0.272
-124.239	-85.526	-0.636	-0.195
-123.224	-200.000	-0.004	-0.059
-122.210	-138.862	-0.104	0.011
-121.195	-63.823	0.192	-0.077
-120.180	253.004	0.121	-0.202
-119.166	-4.028	-0.155	0.106
-118.151	-200.000	-0.072	0.317
-117.137	177.807	-0.035	0.050
-116.122	264.776	-0.171	0.293
-115.107	549.958	0.041	0.096
-114.093	17.880	-0.232	-0.182
-113.078	294.903	0.020	0.036
-112.064	-200.000	-0.025	0.290
-111.049	-53.331	0.202	0.091
-110.034	-51.644	-0.303	-0.139
-109.020	524.887	0.086	0.198
-108.005	-38.293	0.135	0.070
-106.991	153.282	0.119	0.160
-105.976	153.140	-0.145	0.195
-104.962	-200.000	-0.091	0.441
-103.947	-175.391	-0.238	0.006
-102.932	-200.000	0.009	0.118
-101.918	-60.817	-0.281	0.117
-100.903	147.145	0.043	0.057
-99.889	-23.100	-0.288	0.171
-98.874	50.331	-0.188	-0.174
-97.859	255.658	-0.156	-0.262
-96.845	70.001	0.204	0.207
-95.830	800.000	0.008	0.023
-94.816	135.654	0.043	0.055
-93.801	19.554	0.095	0.075
-92.786	-101.269	0.090	0.022
-91.772	-87.357	-0.038	-0.011
-90.757	-127.364	0.150	-0.022
-89.743	-90.834	-0.072	-0.020
-88.728	33.674	-0.085	0.073
-87.713	-200.000	0.002	0.132
-86.699	108.245	-0.138	0.161
-85.684	800.000	-0.027	0.080
-84.670	-101.418	0.163	-0.039
-83.655	-200.000	0.008	-0.186
-82.640	711.032	-0.090	-0.233
-81.626	557.845	0.045	-0.107
-80.611	800.000	-0.114	0.389
-79.597	-113.233	0.255	-0.049
-78.582	-40.300	0.294	0.150
-77.567	-48.396	0.246	0.116
-76.553	-130.542	-0.180	-0.024
-75.538	118.766	0.170	-0.207
-74.524	199.207	-0.099	0.149
-73.509	-22.593	0.345	0.204
-72.494	-90.823	0.209	0.059
-71.480	15.575	-0.248	-0.191
-70.465	-83.157	0.188	-0.059
-69.451	308.207	-0.159	0.292
-68.436	-16.767	-0.240	0.149
-67.422	-44.835	0.431	0.211
-66.407	-133.918	-0.261	0.032
-65.392	50.222	0.282	0.261
-64.378	-81.936	0.156	-0.050
-63.363	-104.913	-0.262	0.059
-62.349	483.920	-0.124	0.276
-61.334	16.378	-1.042	-0.807
-60.319	340.588	0.424	0.811
-59.305	-200.000	-0.063	-1.168
-58.290	140.485	0.884	1.145
-57.276	524.175	0.697	1.606
-56.261	-200.000	108.701	594.637
-55.246	449.441	1482.351	3204.140
-54.232	146.992	2668.565	3518.253
-53.217	99.900	2283.155	2593.082
-52.203	38.690	1895.237	1657.813
-51.188	32.906	1684.603	1429.856
-50.173	30.224	1642.063	1373.859
-49.159	48.983	1695.706	1560.464
-48.144	49.639	1710.756	1579.183
-47.130	32.337	1669.189	1412.276
-46.115	29.805	1653.772	1380.310
-45.100	29.585	1648.991	1374.624
-44.086	29.473	1646.709	1371.836
-43.071	29.490	1644.130	1369.758
-42.057	29.421	1641.629	1367.116
-41.042	29.473	1639.650	1365.797
-40.027	29.518	1637.474	1364.262
-39.013	29.477	1635.732	1362.456
-37.998	29.487	1633.942	1360.981
-36.984	29.612	1632.565	1360.700
-35.969	29.660	1631.473	1360.090
-34.954	29.689	1629.796	1358.852
-33.940	29.617	1628.055	1356.816
-32.925	29.612	1626.264	1355.238
-31.911	29.706	1624.313	1354.243
-30.896	29.559	1623.204	1352.192
-29.881	29.637	1621.081	1350.937
-28.867	29.609	1619.797	1349.605
-27.852	29.589	1618.620	1348.432
-26.838	29.554	1617.099	1346.852
-25.823	29.635	1615.341	1345.928
-24.809	29.617	1614.225	1344.809
-23.794	29.646	1612.947	1343.907
-22.779	29.644	1611.309	1342.472
-21.765	29.573	1609.714	1340.577
-20.750	29.541	1608.042	1338.893
-19.736	29.665	1606.699	1338.623
-18.721	29.609	1605.158	1336.878
-17.706	29.694	1603.353	1335.940
-16.692	29.634	1601.883	1334.230
-15.677	29.710	1600.930	1333.929
-14.663	29.716	1599.670	1332.870
-13.648	29.650	1598.081	1331.020
-12.633	29.701	1596.665	1330.153
-11.619	29.598	1595.336	1328.251
-10.604	29.593	1593.840	1326.917
-9.590	29.733	1592.392	1326.663
-8.575	29.716	1590.939	1325.277
-7.560	29.628	1590.374	1324.123
-6.546	29.724	1589.035	1323.647
-5.531	29.661	1588.055	1322.324
-4.517	29.679	1586.404	1321.026
-3.502	29.599	1585.201	1319.401
-2.487	29.742	1583.783	1319.188
-1.473	29.318	1572.003	1306.320
-0.458	26.432	1552.838	1270.111
0.556	21.331	1553.497	1239.758
1.571	19.191	1576.727	1242.764
2.586	18.736	1590.209	1249.968
3.600	17.110	1537.654	1197.093
4.615	9.578	1427.744	1061.946
5.629	1.721	1363.280	964.294
6.644	0.129	1355.506	948.680
7.659	0.151	1353.654	947.438
8.673	0.082	1353.061	946.505
9.688	-0.011	1351.341	944.637
10.702	-0.093	1347.655	941.466
11.717	3.495	1353.902	968.297
12.731	11.997	1367.975	1032.018
13.746	17.355	1374.078	1070.342
14.761	17.269	1372.567	1068.531
15.775	16.243	1369.857	1059.886
16.790	15.186	1367.446	1051.300
17.804	14.416	1365.121	1044.594
18.819	14.082	1363.659	1041.291
19.834	13.827	1362.627	1038.811
20.848	13.584	1361.219	1036.131
21.863	13.340	1360.206	1033.743
22.877	13.172	1358.700	1031.453
23.892	13.104	1357.786	1030.244
24.907	13.111	1357.017	1029.618
25.921	13.105	1356.215	1028.881
26.936	13.172	1355.537	1028.688
27.950	13.171	1354.730	1027.979
28.965	13.263	1353.482	1027.516
29.980	13.251	1352.571	1026.658
30.994	13.423	1351.506	1026.823
32.009	13.471	1350.591	1026.337
33.023	13.331	1350.084	1024.996
34.038	13.335	1348.771	1023.929
35.053	13.291	1347.615	1022.689
36.067	13.280	1346.404	1021.615
37.082	13.264	1345.556	1020.783
38.096	13.336	1344.645	1020.440
39.111	13.363	1344.023	1020.050
40.126	13.280	1343.147	1018.783
41.140	13.156	1342.334	1017.311
42.155	13.138	1341.972	1016.834
43.169	13.079	1342.198	1016.551
44.184	13.093	1341.646	1016.133
45.199	13.173	1340.796	1015.890
46.213	13.208	1340.471	1015.767
47.228	13.187	1339.949	1015.151
48.242	13.240	1338.082	1013.978
49.257	13.230	1336.864	1012.903
50.271	13.196	1335.573	1011.625
51.286	13.332	1333.971	1011.153
52.301	13.259	1333.081	1009.945
53.315	13.169	1332.221	1008.653
54.330	13.182	1330.794	1007.560
55.344	13.207	1329.704	1006.801
56.359	13.237	1328.475	1005.963
57.374	13.164	1327.844	1004.954
58.388	13.129	1326.981	1004.000
59.403	13.115	1326.054	1003.120
60.417	13.034	1325.868	1002.404
61.432	13.103	1324.690	1001.841
62.447	13.055	1323.680	1000.700
63.461	13.103	1321.897	999.553
64.476	13.042	1321.465	998.768
65.490	12.913	1320.748	997.358
66.505	13.157	1318.651	997.156
67.520	13.129	1317.243	995.836
68.534	13.109	1316.458	995.033
69.549	13.069	1315.711	994.144
70.563	13.027	1314.554	992.927
71.578	13.021	1313.300	991.857
72.593	12.944	1312.614	990.784
73.607	12.902	1312.059	990.027
74.622	12.913	1310.908	989.135
75.636	13.015	1310.119	989.065
76.651	12.996	1309.352	988.288
77.666	13.023	1308.810	987.952
78.680	12.984	1308.525	987.416
79.695	12.976	1307.894	986.805
80.709	12.975	1306.591	985.725
81.724	13.128	1305.785	985.944
82.739	13.158	1304.378	984.975
83.753	13.177	1303.973	984.693
84.768	13.345	1302.620	984.584
85.782	13.245	1301.629	983.157
86.797	13.294	1300.445	982.463
87.812	13.185	1299.637	981.122
88.826	13.289	1297.894	980.333
89.841	13.207	1297.465	979.438
90.855	13.189	1296.559	978.563
91.870	13.314	1295.722	978.581
92.884	13.332	1294.734	977.859
93.899	13.414	1293.415	977.256
94.914	13.431	1292.990	976.952
95.928	13.318	1292.929	976.149
96.943	13.345	1291.589	975.211
97.957	13.290	1290.355	973.871
98.972	13.325	1289.424	973.288
99.987	13.231	1288.223	971.743
101.001	13.272	1287.197	971.125
102.016	13.304	1286.496	970.697
103.030	13.311	1285.628	969.999
104.045	13.316	1284.585	969.155
105.060	13.250	1283.348	967.746
106.074	13.198	1281.800	966.188
107.089	13.162	1280.564	964.962
108.103	13.115	1279.379	963.711
109.118	13.151	1277.874	962.699
110.133	13.162	1276.545	961.681
111.147	13.032	1275.955	960.393
112.162	13.279	1273.880	960.181
113.176	13.147	1273.228	958.839
114.191	13.209	1272.354	958.452
115.206	13.208	1271.080	957.407
116.220	13.073	1270.194	955.869
117.235	13.177	1268.699	955.262
118.249	13.170	1268.066	954.661
119.264	13.257	1266.680	954.037
120.279	13.244	1265.396	952.910
121.293	13.245	1264.158	951.898
122.308	13.167	1263.317	950.729
123.322	13.068	1262.751	949.652
124.337	13.100	1261.843	949.069
125.352	13.171	1260.097	948.081
126.366	13.140	1258.909	946.922
127.381	13.140	1258.127	946.251
128.395	13.234	1256.874	945.767
129.410	13.267	1255.964	945.185
130.424	13.179	1255.185	944.010
131.439	13.138	1254.477	943.161
132.454	13.214	1253.490	942.769
133.468	13.243	1252.519	942.119
134.483	13.256	1251.745	941.531
135.497	13.159	1250.740	940.138
136.512	13.248	1249.288	939.468
137.527	13.174	1248.003	937.998
138.541	13.193	1246.326	936.762
139.556	13.308	1245.145	936.443
140.570	13.182	1244.767	935.364
141.585	13.276	1243.598	934.934
142.600	13.237	1242.572	933.859
143.614	13.402	1241.113	933.612
144.629	13.453	1240.094	933.054
145.643	13.350	1239.055	931.608
146.658	13.482	1237.438	931.051
147.673	13.383	1236.049	929.366
148.687	13.239	1235.235	927.867
149.702	13.265	1233.930	926.948
150.716	13.264	1232.640	925.891
151.731	13.393	1231.568	925.726
152.746	13.353	1230.511	924.626
153.760	13.377	1229.099	923.618
154.775	13.396	1228.134	922.918
155.789	13.430	1227.182	922.308
156.804	13.411	1226.154	921.351
157.819	13.487	1225.377	921.108
158.833	13.500	1224.214	920.221
159.848	13.545	1223.554	919.896
160.862	13.611	1222.440	919.341
161.877	13.487	1221.329	917.741
162.892	13.391	1220.164	916.253
163.906	13.368	1219.406	915.474
164.921	13.347	1218.659	914.715
165.935	13.486	1217.632	914.628
166.950	13.522	1217.104	914.354
167.964	13.526	1216.077	913.520
168.979	13.430	1215.658	912.599
169.994	13.507	1215.015	912.457
171.008	13.484	1214.120	911.576
172.023	13.534	1213.192	911.073
173.037	13.723	1212.186	911.278
174.052	13.580	1211.653	910.014
175.067	13.580	1210.771	909.268
176.081	13.577	1209.209	908.001
177.096	13.553	1208.420	907.195
178.110	13.570	1206.917	906.079
179.125	13.515	1206.071	905.066
180.140	13.665	1205.021	905.012
181.154	13.701	1203.916	904.302
182.169	13.657	1202.588	902.985
183.183	13.737	1201.304	902.374
184.198	13.764	1200.339	901.718
185.213	13.810	1198.763	900.704
186.227	13.764	1197.953	899.764
187.242	13.852	1197.046	899.481
188.256	13.865	1196.458	899.029
189.271	13.869	1195.164	898.001
190.286	13.815	1193.849	896.641
191.300	13.610	1193.291	895.034
192.315	13.562	1193.066	894.530
193.329	13.647	1191.957	894.076
194.344	13.668	1191.411	893.701
195.359	13.697	1190.587	893.160
196.373	13.830	1190.293	893.577
197.388	13.934	1189.354	893.349
198.402	13.845	1189.502	892.905
199.417	13.938	1188.894	892.867
200.432	13.952	1187.845	892.079
201.446	13.970	1187.163	891.583
202.461	14.093	1185.922	891.231
203.475	14.092	1184.788	890.294
204.490	13.956	1183.800	888.745
205.504	13.953	1182.169	887.428
206.519	13.969	1180.976	886.537
207.534	13.943	1179.964	885.560
208.548	13.905	1179.219	884.719
209.563	14.027	1178.647	884.863
210.577	13.910	1178.100	883.749
211.592	14.045	1177.072	883.622
212.607	14.041	1175.929	882.661
213.621	14.057	1175.116	882.060
214.636	14.096	1174.053	881.388
215.650	14.175	1172.792	880.787
216.665	14.182	1172.056	880.191
217.680	14.222	1171.615	879.994
218.694	14.190	1170.791	879.128
219.709	14.234	1169.888	878.601
220.723	14.246	1169.084	877.987
221.738	14.271	1168.638	877.703
222.753	14.187	1167.783	876.539
223.767	14.285	1166.774	876.224
224.782	14.307	1166.218	875.844
225.796	14.308	1165.655	875.348
226.811	14.373	1165.055	875.164
227.826	14.384	1164.018	874.363
228.840	14.374	1163.520	873.859
229.855	14.342	1162.641	872.954
230.869	14.364	1161.954	872.477
231.884	14.246	1161.330	871.315
232.899	14.315	1160.527	870.992
233.913	14.208	1159.766	869.786
234.928	14.200	1159.345	869.351
235.942	14.327	1158.130	869.029
236.957	14.224	1157.394	867.859
237.972	14.370	1156.769	868.078
238.986	14.237	1156.183	866.868
240.001	14.337	1155.621	866.888
241.015	14.376	1154.077	865.859
242.030	14.437	1153.581	865.723
243.045	14.440	1152.859	865.124
244.059	14.373	1152.270	864.258
245.074	14.466	1151.295	863.928
246.088	14.475	1150.500	863.305
247.103	14.531	1149.774	862.972
248.117	14.510	1149.445	862.541
249.132	14.725	1148.281	862.700
250.147	14.716	1148.173	862.496
251.161	14.727	1147.314	861.832
252.176	14.817	1146.064	861.282
253.190	14.863	1146.018	861.409
254.205	14.895	1145.160	860.850
255.220	14.842	1144.397	859.930
256.234	14.779	1144.226	859.399
257.249	14.784	1143.399	858.728
258.263	14.766	1142.992	858.256
259.278	14.814	1142.339	857.933
260.293	15.012	1141.294	858.090
261.307	14.932	1140.988	857.375
262.322	14.968	1140.050	856.779
263.336	15.083	1139.057	856.546
264.351	15.008	1138.840	855.919
265.366	15.086	1138.197	855.761
266.380	15.146	1137.155	855.205
267.395	15.114	1136.495	854.475
268.409	14.951	1136.076	853.251
269.424	14.974	1135.460	852.831
270.439	15.031	1134.818	852.564
271.453	15.087	1133.688	851.923
272.468	14.994	1133.432	851.182
273.482	15.030	1132.515	850.600
274.497	15.000	1132.011	849.996
275.512	15.120	1130.865	849.668
276.526	15.005	1130.972	849.089
277.541	15.066	1129.500	848.217
278.555	15.094	1128.932	847.860
279.570	15.107	1128.239	847.329
280.585	15.064	1127.946	846.814
281.599	15.188	1126.931	846.607
282.614	15.195	1125.673	845.620
283.628	15.186	1124.310	844.478
284.643	15.177	1123.969	844.100
285.657	15.250	1122.725	843.461
286.672	15.051	1122.133	841.939
287.687	15.230	1120.984	841.902
288.701	15.295	1120.417	841.726
289.716	15.223	1119.849	840.867
290.730	15.253	1118.723	840.097
291.745	15.340	1118.611	840.376
292.760	15.295	1118.198	839.764
293.774	15.475	1116.812	839.551
294.789	15.467	1116.476	839.182
295.803	15.323	1116.502	838.409
296.818	15.360	1115.260	837.586
297.833	15.482	1114.259	837.368
298.847	15.410	1113.593	836.434
299.862	15.458	1112.723	835.947
300.876	15.488	1112.125	835.572
301.891	15.514	1111.670	835.284
302.906	15.523	1111.122	834.846
303.920	15.594	1110.140	834.387
304.935	15.661	1109.359	834.057
305.949	15.596	1109.084	833.456
306.964	15.730	1108.077	833.288
307.979	15.611	1107.674	832.320
308.993	15.658	1106.900	831.897
310.008	15.578	1106.244	830.935
311.022	15.590	1105.560	830.410
312.037	15.743	1104.681	830.430
313.052	15.657	1103.579	829.103
314.066	15.620	1102.890	828.332
315.081	15.683	1101.636	827.624
316.095	15.508	1101.311	826.448
317.110	15.556	1100.592	826.073
318.125	15.611	1099.762	825.646
319.139	15.584	1099.106	824.945
320.154	15.606	1098.583	824.588
321.168	15.578	1098.006	823.944
322.183	15.738	1097.067	823.954
323.197	15.661	1096.808	823.308
324.212	15.679	1096.131	822.813
325.227	15.707	1095.602	822.481
326.241	15.756	1094.645	821.930
327.256	15.776	1093.920	821.412
328.270	15.776	1093.000	820.645
329.285	15.795	1092.260	820.113
330.300	15.715	1091.225	818.871
331.314	15.862	1090.273	818.801
332.329	15.736	1089.528	817.556
333.343	15.802	1088.759	817.226
334.358	15.892	1087.850	816.910
335.373	15.896	1086.887	816.135
336.387	15.879	1086.390	815.606
337.402	15.865	1086.145	815.281
338.416	16.065	1084.854	815.208
339.431	16.106	1084.162	814.816
340.446	16.004	1083.786	813.964
341.460	16.066	1083.441	813.934
342.475	16.110	1082.205	813.147
343.489	16.147	1081.371	812.628
344.504	16.126	1080.497	811.797
345.519	16.194	1079.523	811.319
346.533	16.271	1079.089	811.294
347.548	16.152	1078.373	810.110
348.562	16.269	1077.498	809.941
349.577	16.099	1077.037	808.709
350.592	16.049	1076.062	807.666
351.606	16.112	1075.409	807.408
352.621	16.209	1074.313	806.977
353.635	15.993	1074.292	805.855
354.650	16.156	1073.138	805.698
355.665	16.169	1072.583	805.270
356.679	16.265	1071.649	804.956
357.694	16.251	1071.204	804.483
358.708	16.198	1070.440	803.586
359.723	16.282	1070.201	803.736
360.738	16.294	1069.583	803.258
361.752	16.423	1068.912	803.298
362.767	16.259	1068.435	802.088
363.781	16.350	1067.669	801.874
364.796	16.359	1067.381	801.628
365.810	16.508	1066.629	801.702
366.825	16.512	1065.750	800.988
367.840	16.561	1065.386	800.875
368.854	16.449	1065.112	800.066
369.869	16.489	1064.376	799.632
370.883	16.461	1063.496	798.771
371.898	16.407	1062.705	797.852
372.913	16.466	1062.040	797.560
373.927	16.533	1061.447	797.356
374.942	16.603	1061.094	797.354
375.956	16.641	1060.655	797.130
376.971	16.617	1059.856	796.345
377.986	16.830	1058.649	796.370
379.000	16.713	1058.569	795.692
380.015	16.717	1058.151	795.323
381.029	16.805	1057.512	795.188
382.044	16.836	1056.585	794.567
383.059	16.826	1056.023	794.024
384.073	16.816	1055.134	793.241
385.088	16.851	1053.797	792.326
386.102	16.722	1053.694	791.578
387.117	16.868	1052.098	790.989
388.132	16.761	1051.570	790.024
389.146	16.646	1050.986	788.979
390.161	16.651	1050.491	788.560
391.175	16.751	1049.657	788.330
392.190	16.810	1049.101	788.116
393.205	16.917	1048.086	787.785
394.219	16.889	1047.299	786.989
395.234	16.978	1046.221	786.524
396.248	16.866	1045.311	785.252
397.263	16.850	1044.623	784.591
398.278	16.835	1043.717	783.771
399.292	16.783	1043.031	782.946
400.307	16.812	1042.583	782.674
401.321	16.874	1041.510	782.086
402.336	16.808	1041.073	781.383
403.350	16.806	1040.353	780.768
404.365	16.797	1040.110	780.473
405.380	16.894	1039.477	780.378
406.394	16.975	1038.203	779.723
407.409	16.998	1037.738	779.410
408.423	17.102	1036.896	779.186
409.438	17.180	1036.206	778.955
410.453	17.180	1035.599	778.430
411.467	17.201	1034.725	777.801
412.482	17.259	1034.113	777.537
413.496	17.306	1033.255	777.038
414.511	17.232	1033.031	776.463
415.526	17.387	1032.559	776.749
416.540	17.391	1031.914	776.214
417.555	17.411	1031.624	776.018
418.569	17.277	1031.257	775.059
419.584	17.367	1030.601	774.912
420.599	17.374	1030.251	774.609
421.613	103.707	1322.465	1470.342
422.628	94.904	1365.011	1470.461
