DTS Sentinel unit serial number:	SN413079Multiplexer serial number:	ORYXHardware model number:	OX4-SRSoftware version number:	ORYX F/W v4.00 Oryx Data Collector v3.7.2.0data status	okinstallation	princeton_trtdifferential loss correction	single-endedforward channel	channel 2reverse channel	N/Adate	2019/09/12time	18:19:48forward acquisition time	15.00reverse acquisition time	0.00gamma	496.2192k internal	0.2324k external	0.2324temperature offset calibration	1.0125default loss term (dB/km)	0.3790temperature slope calibration	1.0000multiplexer offset coefficient	1.0000multiplexer slope coefficient	1.0000fibre end	0.00T internal ref (°C)	33.44T ext. ref 1 (°C)	2.90T ext. ref 2 (°C)	28.12length (m)	temperature (°C)	Stokes	anti-Stokes-747.200	-200.000	-0.080	-0.440
-746.185	-39.149	0.557	-0.296
-745.171	-109.275	0.351	0.075
-744.156	-54.574	0.391	-0.179
-743.142	-185.998	0.731	0.011
-742.127	4.847	0.592	0.439
-741.112	-134.666	-0.794	0.098
-740.098	-200.000	-0.008	0.366
-739.083	5.235	-0.708	0.527
-738.069	-67.218	-0.263	-0.105
-737.054	-137.597	1.118	0.127
-736.039	145.928	0.594	-0.804
-735.025	-200.000	0.083	-0.401
-734.010	-140.903	0.248	-0.026
-732.996	-29.023	-0.659	0.381
-731.981	71.207	-0.098	0.103
-730.966	127.126	-0.479	-0.613
-729.952	800.000	0.255	-0.833
-728.937	-71.165	-0.263	-0.100
-727.923	-158.371	0.557	-0.033
-726.908	800.000	-0.187	-0.757
-725.894	-91.305	0.349	-0.101
-724.879	-165.027	-0.444	-0.020
-723.864	309.601	-0.368	-0.694
-722.850	0.052	-0.212	0.152
-721.835	-177.108	-0.244	-0.006
-720.821	-183.961	-0.209	0.004
-719.806	-62.130	-0.914	-0.385
-718.791	-82.772	0.351	-0.114
-717.777	-200.000	0.048	0.385
-716.762	796.577	-0.150	-0.418
-715.748	-145.952	-0.436	0.039
-714.733	-103.880	-0.414	-0.098
-713.718	-149.583	0.286	0.023
-712.704	-97.560	0.415	0.109
-711.689	-200.000	0.536	-0.002
-710.675	576.823	-0.228	-0.562
-709.660	-200.000	-0.190	-0.847
-708.645	-200.000	-0.083	-0.724
-707.631	800.000	-0.171	0.711
-706.616	-73.936	-0.676	0.247
-705.602	-200.000	-0.009	-0.185
-704.587	262.878	-0.140	-0.245
-703.572	800.000	-0.216	-0.652
-702.558	750.672	-0.334	-0.908
-701.543	-10.877	0.551	-0.367
-700.529	800.000	-0.156	-0.438
-699.514	-143.099	0.585	-0.057
-698.499	162.626	-0.397	0.562
-697.485	3.299	0.300	-0.220
-696.470	-87.619	0.446	-0.136
-695.456	158.715	0.307	0.429
-694.441	-111.296	-0.301	0.062
-693.426	326.352	-0.301	-0.581
-692.412	-151.571	-1.074	0.080
-691.397	-187.041	0.600	0.008
-690.383	-66.990	0.723	0.288
-689.368	-47.662	-0.121	-0.059
-688.354	800.000	-0.135	0.453
-687.339	201.790	0.280	0.434
-686.324	261.890	0.150	0.262
-685.310	-126.911	0.294	0.044
-684.295	-55.597	-0.401	-0.181
-683.281	-71.716	0.484	-0.182
-682.266	-43.144	-0.184	0.094
-681.251	131.684	0.412	0.533
-680.237	75.410	0.494	-0.525
-679.222	161.944	-0.422	0.595
-678.208	144.206	-0.265	-0.356
-677.193	35.940	0.494	-0.437
-676.178	-78.886	-0.292	-0.100
-675.164	5.335	-0.678	-0.503
-674.149	-200.000	0.064	1.423
-673.135	230.080	0.173	0.285
-672.120	-200.000	0.092	-0.701
-671.105	800.000	0.042	-0.154
-670.091	55.185	-0.116	0.113
-669.076	-200.000	0.073	0.509
-668.062	107.018	-0.354	-0.423
-667.047	800.000	-0.079	0.342
-666.032	-200.000	0.013	0.711
-665.018	-200.000	-0.072	-0.388
-664.003	-200.000	-0.053	0.439
-662.989	491.250	-0.400	-0.922
-661.974	-125.083	-0.666	0.103
-660.959	598.714	-0.125	0.312
-659.945	-130.522	-0.801	0.109
-658.930	100.866	-0.089	-0.104
-657.916	-131.098	-1.125	-0.151
-656.901	-55.669	-0.402	0.181
-655.886	18.444	-0.234	0.188
-654.872	-114.015	-0.234	-0.046
-653.857	-119.867	-0.649	0.112
-652.843	-13.533	-0.484	0.315
-651.828	-30.789	0.548	-0.311
-650.814	55.195	0.441	0.428
-649.799	-69.071	-0.432	-0.167
-648.784	800.000	-0.164	0.547
-647.770	81.132	0.008	-0.008
-646.755	-0.311	0.742	0.530
-645.741	-200.000	-0.044	0.838
-644.726	-55.096	0.885	-0.400
-643.711	152.429	0.173	0.238
-642.697	259.384	0.127	0.220
-641.682	800.000	-0.110	-0.316
-640.668	-99.197	-0.698	0.177
-639.653	800.000	0.176	0.725
-638.638	-161.544	-0.411	0.021
-637.624	-200.000	0.065	0.396
-636.609	14.314	-0.092	-0.072
-635.595	-200.000	-0.004	0.063
-634.580	56.732	-0.544	-0.532
-633.565	-200.000	0.246	-0.000
-632.551	-70.528	0.976	0.371
-631.536	272.800	-0.278	-0.494
-630.522	112.467	-0.480	0.584
-629.507	-112.235	-0.577	-0.116
-628.492	800.000	0.082	-0.257
-627.478	93.581	0.297	0.338
-626.463	88.604	0.227	0.254
-625.449	354.956	-0.388	-0.775
-624.434	-54.571	0.338	-0.154
-623.419	-200.000	0.052	-0.371
-622.405	27.732	0.334	0.283
-621.390	-116.777	-1.036	-0.191
-620.376	800.000	0.175	0.719
-619.361	171.607	-0.465	0.671
-618.346	97.038	-0.419	-0.483
-617.332	9.407	0.095	0.072
-616.317	76.249	0.433	0.461
-615.303	-46.769	-0.597	0.293
-614.288	-106.977	0.358	-0.080
-613.273	-200.000	0.092	0.507
-612.259	800.000	0.211	-0.781
-611.244	600.902	-0.053	0.133
-610.230	464.311	-0.258	-0.579
-609.215	800.000	0.037	-0.119
-608.201	-44.078	-0.272	0.137
-607.186	47.363	0.586	0.548
-606.171	-200.000	-0.085	-0.405
-605.157	-43.935	0.426	0.215
-604.142	8.382	0.337	0.255
-603.128	564.669	-0.217	0.528
-602.113	-117.786	-0.745	-0.134
-601.098	-200.000	0.089	0.599
-600.084	800.000	-0.060	-0.254
-599.069	128.964	-0.390	0.499
-598.055	-8.163	0.611	-0.413
-597.040	800.000	0.091	-0.260
-596.025	179.307	0.468	-0.687
-595.011	-87.379	0.558	-0.170
-593.996	-41.638	0.681	-0.351
-592.982	800.000	0.035	0.137
-591.967	-200.000	0.023	-0.627
-590.952	-119.837	-0.153	-0.026
-589.938	-200.000	-0.001	0.888
-588.923	-200.000	0.094	-0.450
-587.909	-73.737	-1.122	0.410
-586.894	16.878	-0.772	0.614
-585.879	-39.456	0.968	-0.509
-584.865	136.744	0.717	0.939
-583.850	-24.064	0.499	0.299
-582.836	176.958	-0.575	0.839
-581.821	-112.172	-0.660	0.133
-580.806	-80.818	-0.521	-0.174
-579.792	-23.921	0.031	-0.018
-578.777	504.165	-0.262	-0.607
-577.763	-200.000	0.085	-0.650
-576.748	-13.857	1.094	0.710
-575.733	-42.020	-0.434	0.223
-574.719	149.601	-0.457	-0.620
-573.704	-104.676	0.743	0.172
-572.690	-200.000	0.042	0.328
-571.675	451.108	0.159	-0.353
-570.661	609.724	-0.069	0.172
-569.646	65.529	0.279	0.283
-568.631	-6.348	-0.330	-0.226
-567.617	66.649	-0.468	-0.477
-566.602	-36.656	0.394	-0.212
-565.588	-8.995	0.519	-0.348
-564.573	100.327	-0.130	0.151
-563.558	-12.226	-0.705	0.462
-562.544	-82.357	-0.624	-0.203
-561.529	-92.030	0.752	-0.213
-560.515	-200.000	0.077	-0.444
-559.500	-106.394	1.010	-0.226
-558.485	-200.000	-0.187	-0.836
-557.471	-110.145	-0.217	-0.045
-556.456	-91.755	0.119	-0.034
-555.442	758.975	-0.042	0.114
-554.427	-200.000	0.137	-0.698
-553.412	-200.000	-0.007	0.472
-552.398	-11.257	-0.170	-0.112
-551.383	-46.196	0.657	0.324
-550.369	34.593	-0.192	-0.168
-549.354	-200.000	-0.037	0.296
-548.339	-200.000	0.141	0.700
-547.325	659.804	-0.070	0.180
-546.310	161.527	0.129	0.181
-545.296	-99.534	-0.535	-0.135
-544.281	-116.338	-0.277	-0.051
-543.266	-83.540	-1.144	0.367
-542.252	-200.000	0.016	0.596
-541.237	-200.000	0.063	0.323
-540.223	800.000	-0.232	-0.810
-539.208	209.680	-0.201	-0.316
-538.193	800.000	-0.270	0.769
-537.179	28.180	-0.347	-0.294
-536.164	800.000	-0.104	0.289
-535.150	96.133	0.380	-0.435
-534.135	-62.416	0.707	-0.294
-533.121	208.779	-0.616	-0.965
-532.106	-7.493	0.356	0.241
-531.091	-200.000	0.062	0.288
-530.077	-55.693	0.601	-0.269
-529.062	-182.227	0.463	0.009
-528.048	102.423	0.374	0.437
-527.033	11.464	0.453	-0.348
-526.018	257.298	-0.314	0.540
-525.004	65.667	0.407	0.412
-523.989	-200.000	-0.156	-0.844
-522.975	-21.961	0.677	0.411
-521.960	-200.000	0.109	1.025
-520.945	-42.900	0.706	0.359
-519.931	-100.781	0.866	-0.213
-518.916	10.506	-0.719	0.548
-517.902	800.000	-0.057	0.165
-516.887	96.867	0.707	0.811
-515.872	549.359	0.170	0.407
-514.858	-128.793	-0.686	-0.097
-513.843	-200.000	0.096	0.627
-512.829	-157.591	-1.221	-0.073
-511.814	155.482	0.321	0.442
-510.799	-144.252	-0.581	0.054
-509.785	-71.754	0.437	-0.163
-508.770	-115.331	-1.401	-0.265
-507.756	-74.025	0.298	-0.108
-506.741	-57.355	-0.576	0.253
-505.726	654.237	0.085	0.219
-504.712	-118.706	0.384	-0.068
-503.697	-200.000	0.284	-0.000
-502.683	8.361	-0.581	0.437
-501.668	-200.000	-0.045	-0.294
-500.653	-107.287	-0.221	-0.049
-499.639	-117.174	0.043	0.008
-498.624	-164.668	0.646	-0.029
-497.610	83.338	-0.284	0.309
-496.595	625.841	-0.265	0.669
-495.581	6.857	0.332	0.247
-494.566	800.000	0.111	-0.406
-493.551	-113.449	-0.249	0.049
-492.537	-62.583	0.645	-0.267
-491.522	158.780	-0.249	0.346
-490.508	-200.000	0.113	0.663
-489.493	-200.000	0.023	0.489
-488.478	-136.847	-1.083	-0.124
-487.464	800.000	-0.228	-0.643
-486.449	-136.281	0.271	0.032
-485.435	-131.232	-0.711	-0.094
-484.420	-24.526	0.774	0.460
-483.405	203.563	-0.524	0.809
-482.391	-16.054	0.299	-0.190
-481.376	-175.707	-0.791	-0.021
-480.362	-121.909	-0.584	0.096
-479.347	800.000	-0.301	1.046
-478.332	137.890	-0.130	0.171
-477.318	-72.188	-0.531	-0.197
-476.303	329.280	0.442	0.849
-475.289	-144.100	0.584	-0.055
-474.274	57.573	0.145	-0.142
-473.259	447.003	0.322	0.707
-472.245	-45.519	-0.755	0.374
-471.230	286.137	-0.057	0.103
-470.216	4.819	-0.208	0.152
-469.201	222.495	-0.412	0.662
-468.186	168.884	-0.187	-0.266
-467.172	800.000	-0.183	-0.633
-466.157	-46.378	-0.321	-0.157
-465.143	614.264	-0.231	-0.577
-464.128	95.257	-0.389	-0.443
-463.113	-200.000	-0.071	0.944
-462.099	215.246	0.305	-0.483
-461.084	32.853	0.314	0.271
-460.070	84.509	-0.309	0.337
-459.055	-47.492	0.524	-0.254
-458.040	630.544	-0.229	-0.579
-457.026	-148.341	-0.592	-0.049
-456.011	179.208	0.413	-0.603
-454.997	800.000	0.090	-0.368
-453.982	-102.414	0.114	-0.027
-452.968	-34.533	0.531	-0.290
-451.953	178.102	0.419	0.610
-450.938	55.700	0.443	0.429
-449.924	331.788	0.341	0.656
-448.909	392.208	-0.285	-0.590
-447.895	-187.380	0.686	0.009
-446.880	-36.049	0.592	0.319
-445.865	800.000	0.260	0.956
-444.851	527.981	0.227	-0.534
-443.836	411.849	0.430	-0.910
-442.822	-73.618	-0.669	-0.243
-441.807	359.561	0.384	-0.766
-440.792	-200.000	-0.049	-0.500
-439.778	800.000	0.166	-0.634
-438.763	-200.000	0.022	-0.341
-437.749	-200.000	-0.123	0.751
-436.734	-51.348	0.449	-0.209
-435.719	23.018	-0.256	-0.209
-434.705	-121.204	-0.427	0.071
-433.690	-200.000	0.033	0.903
-432.676	-67.818	0.194	-0.076
-431.661	-200.000	0.035	-0.325
-430.646	-50.846	0.358	-0.168
-429.632	-88.015	0.563	0.169
-428.617	-57.823	-0.452	0.197
-427.603	-56.607	-0.840	-0.371
-426.588	-200.000	-0.029	0.338
-425.573	-124.766	-0.645	0.099
-424.559	440.764	-0.209	0.456
-423.544	614.579	0.357	-0.891
-422.530	40.466	0.505	-0.453
-421.515	12.637	-0.151	-0.116
-420.500	-92.517	0.396	-0.111
-419.486	483.986	0.154	0.348
-418.471	268.813	-0.165	-0.288
-417.457	-117.752	0.501	-0.090
-416.442	800.000	0.241	-0.937
-415.428	127.258	-0.476	0.602
-414.413	-94.515	-0.282	0.076
-413.398	-200.000	0.025	-0.292
-412.384	786.447	0.285	0.778
-411.369	-22.591	0.421	-0.254
-410.355	-86.998	0.230	-0.070
-409.340	37.188	-0.427	-0.377
-408.325	-200.000	0.010	-0.055
-407.311	-67.310	-0.550	-0.216
-406.296	-34.665	-0.220	-0.120
-405.282	54.189	0.340	0.326
-404.267	-94.732	-0.872	0.236
-403.252	5.958	-0.138	-0.102
-402.238	-83.165	-0.306	-0.098
-401.223	-13.886	-0.142	0.092
-400.209	800.000	0.126	0.506
-399.194	-200.000	-0.053	1.139
-398.179	-81.236	0.717	-0.236
-397.165	25.689	0.828	0.687
-396.150	-200.000	-0.034	0.450
-395.136	800.000	-0.151	0.525
-394.121	800.000	-0.077	0.324
-393.106	800.000	-0.213	-0.752
-392.092	33.050	0.275	0.238
-391.077	82.771	-0.445	0.481
-390.063	-48.545	0.044	0.021
-389.048	46.480	0.611	0.564
-388.033	541.555	-0.189	-0.449
-387.019	44.063	0.556	-0.507
-386.004	319.430	-0.303	-0.573
-384.990	-36.054	-0.810	-0.436
-383.975	783.007	0.139	0.380
-382.960	-114.856	-0.408	-0.077
-381.946	-152.804	-0.589	0.042
-380.931	800.000	0.107	0.303
-379.917	-40.500	-0.195	-0.101
-378.902	-200.000	-0.045	-0.377
-377.888	-5.637	0.429	0.293
-376.873	-35.980	-0.698	-0.376
-375.858	319.285	-0.599	-1.131
-374.844	-200.000	0.192	-1.006
-373.829	-102.830	0.302	-0.071
-372.815	38.229	-0.455	0.403
-371.800	-71.070	0.292	0.109
-370.785	311.374	-0.182	-0.339
-369.771	800.000	-0.064	-0.273
-368.756	800.000	0.236	0.772
-367.742	-200.000	0.053	0.468
-366.727	193.043	-0.035	-0.053
-365.712	59.769	0.374	0.367
-364.698	-31.701	-0.466	0.260
-363.683	726.606	-0.181	0.481
-362.669	800.000	0.025	0.088
-361.654	108.117	-0.097	-0.115
-360.639	762.662	-0.219	-0.590
-359.625	-43.020	-0.731	-0.369
-358.610	-18.703	0.482	0.299
-357.596	-58.162	-0.874	0.379
-356.581	-172.738	-0.615	0.019
-355.566	-12.763	0.472	-0.306
-354.552	-200.000	-0.063	-0.962
-353.537	489.377	-0.314	-0.714
-352.523	-200.000	-0.060	-0.527
-351.508	-200.000	0.076	0.893
-350.493	-175.723	0.407	0.011
-349.479	-81.261	0.392	-0.128
-348.464	-31.499	-0.333	-0.186
-347.450	-110.455	-0.242	-0.050
-346.435	800.000	0.122	0.474
-345.420	-61.077	-0.509	0.214
-344.406	800.000	0.221	0.701
-343.391	-107.813	0.431	-0.093
-342.377	-200.000	0.131	-0.673
-341.362	55.715	-0.473	-0.456
-340.348	-153.675	0.766	0.052
-339.333	19.366	-0.409	0.327
-338.318	54.410	-0.254	0.243
-337.304	-49.329	0.263	-0.125
-336.289	10.482	0.299	0.226
-335.275	201.670	0.264	0.404
-334.260	800.000	0.121	-0.437
-333.245	-174.279	-0.380	-0.011
-332.231	800.000	-0.103	0.408
-331.216	-200.000	-0.078	-0.502
-330.202	173.081	-0.348	0.498
-329.187	-88.182	0.976	-0.290
-328.172	188.056	-0.109	0.162
-327.158	-8.887	-0.295	-0.197
-326.143	284.011	0.560	0.999
-325.129	-200.000	0.006	-0.310
-324.114	9.117	-0.620	-0.465
-323.099	-189.719	-0.462	-0.005
-322.085	-1.959	-0.339	0.237
-321.070	-200.000	0.108	0.714
-320.056	-61.521	0.432	0.180
-319.041	-105.366	0.599	0.135
-318.026	-200.000	-0.022	-0.760
-317.012	18.772	0.332	0.264
-315.997	-120.465	-0.514	-0.087
-314.983	-153.468	-0.644	-0.044
-313.968	-41.021	0.350	0.180
-312.953	-15.402	0.615	-0.390
-311.939	154.182	0.144	0.196
-310.924	800.000	0.107	0.336
-309.910	-97.932	-0.507	0.130
-308.895	-65.092	-1.092	-0.437
-307.880	-150.886	-0.138	-0.010
-306.866	-82.352	-0.256	-0.083
-305.851	-40.454	0.715	0.369
-304.837	-45.852	0.481	-0.236
-303.822	-131.789	1.008	0.131
-302.807	744.494	0.158	-0.422
-301.793	-200.000	-0.016	-0.208
-300.778	-49.382	0.562	-0.266
-299.764	74.947	-0.900	-0.940
-298.749	-56.433	0.577	0.254
-297.735	-190.865	-0.652	-0.007
-296.720	-200.000	-0.015	0.214
-295.705	-92.527	0.275	0.077
-294.691	276.885	-0.301	-0.531
-293.676	477.901	-0.415	0.931
-292.662	-200.000	-0.073	-0.443
-291.647	-133.782	-0.531	0.066
-290.632	-200.000	0.104	-0.699
-289.618	-143.090	-0.510	0.049
-288.603	20.885	0.305	0.245
-287.589	342.840	-0.233	0.453
-286.574	-26.925	0.212	0.123
-285.559	800.000	0.065	-0.190
-284.545	697.211	-0.234	-0.611
-283.530	-98.984	0.827	0.208
-282.516	380.793	-0.296	-0.603
-281.501	800.000	0.127	-0.401
-280.486	49.514	-0.676	0.631
-279.472	-200.000	-0.029	0.166
-278.457	118.020	-0.432	0.528
-277.443	800.000	-0.126	-0.354
-276.428	10.710	-0.198	0.150
-275.413	800.000	-0.280	-0.797
-274.399	800.000	0.141	-0.595
-273.384	158.251	0.306	0.421
-272.370	684.235	-0.251	-0.650
-271.355	318.598	0.158	0.296
-270.340	-117.499	0.911	0.163
-269.326	165.072	0.393	0.550
-268.311	128.289	0.168	0.212
-267.297	-200.000	0.056	-0.538
-266.282	-76.088	-0.601	-0.210
-265.267	595.828	0.207	0.508
-264.253	800.000	-0.133	0.535
-263.238	-40.377	0.969	-0.499
-262.224	388.102	0.622	-1.276
-261.209	800.000	0.034	-0.096
-260.195	9.933	0.146	0.110
-259.180	-200.000	-0.015	0.430
-258.165	-200.000	-0.019	-0.390
-257.151	-83.969	0.133	-0.042
-256.136	-27.160	-0.436	0.252
-255.122	-1.644	0.284	0.198
-254.107	-81.008	-0.319	-0.105
-253.092	-107.816	0.732	0.158
-252.078	-151.238	-0.383	0.028
-251.063	149.072	-0.373	0.499
-250.049	-200.000	0.001	-0.280
-249.034	610.404	-0.080	0.198
-248.019	-200.000	0.047	-0.478
-247.005	-82.808	-1.038	-0.332
-245.990	-200.000	0.006	0.490
-244.976	456.919	-0.499	-1.097
-243.961	-200.000	-0.169	1.023
-242.946	-200.000	0.072	-0.527
-241.932	800.000	0.292	1.039
-240.917	-200.000	0.005	0.360
-239.903	10.232	-0.135	0.101
-238.888	800.000	0.151	-0.541
-237.873	-200.000	0.090	-0.589
-236.859	86.480	-0.769	0.840
-235.844	-77.029	-0.169	-0.058
-234.830	-95.706	-0.384	0.102
-233.815	-54.050	-0.172	0.077
-232.800	-53.370	-0.550	0.249
-231.786	-183.832	0.809	0.014
-230.771	112.128	0.083	-0.099
-229.757	-136.776	-0.842	-0.096
-228.742	-200.000	0.018	-0.456
-227.727	419.902	0.217	-0.460
-226.713	-200.000	-0.086	-0.419
-225.698	-5.435	0.528	-0.358
-224.684	-200.000	0.060	0.434
-223.669	800.000	-0.102	0.382
-222.655	276.900	0.341	0.599
-221.640	-85.744	-0.995	-0.305
-220.625	307.715	-0.280	-0.516
-219.611	123.136	-0.418	-0.517
-218.596	-69.303	0.329	-0.125
-217.582	-90.088	-0.370	0.107
-216.567	430.264	0.173	-0.370
-215.552	-200.000	0.019	-0.361
-214.538	140.165	-0.227	-0.296
-213.523	21.926	-0.955	-0.770
-212.509	86.948	-0.467	-0.510
-211.494	-55.468	-0.473	0.210
-210.479	-200.000	0.090	-0.852
-209.465	-142.219	1.201	0.118
-208.450	556.533	0.327	0.779
-207.436	-200.000	-0.018	-0.474
-206.421	287.678	-0.047	-0.085
-205.406	-100.193	0.387	-0.095
-204.392	800.000	-0.046	0.136
-203.377	-83.447	0.330	-0.104
-202.363	-75.444	-0.993	-0.350
-201.348	357.154	-0.480	-0.946
-200.333	-60.258	0.236	-0.100
-199.319	-88.397	-0.980	0.289
-198.304	0.523	0.859	0.607
-197.290	88.511	-0.120	-0.131
-196.275	-200.000	0.148	-0.652
-195.260	-60.721	0.218	-0.091
-194.246	-14.640	-0.540	-0.343
-193.231	407.262	0.305	0.638
-192.217	61.628	0.530	-0.521
-191.202	-12.784	0.731	-0.471
-190.187	113.284	0.635	-0.761
-189.173	443.905	0.398	0.862
-188.158	-68.110	-0.375	-0.144
-187.144	-53.583	0.447	0.202
-186.129	27.747	-0.234	-0.195
-185.114	130.213	0.938	-1.186
-184.100	-64.879	-0.107	-0.043
-183.085	-99.636	0.265	-0.066
-182.071	737.951	0.053	0.141
-181.056	-57.817	0.225	-0.097
-180.042	-200.000	0.052	0.838
-179.027	-54.976	0.843	0.375
-178.012	-200.000	-0.014	0.323
-176.998	33.293	0.180	0.154
-175.983	-72.273	0.213	0.078
-174.969	39.744	0.060	0.053
-173.954	-78.772	0.744	-0.251
-172.939	-200.000	0.302	-1.380
-171.925	800.000	-0.135	0.487
-170.910	51.567	0.486	0.456
-169.896	693.693	-0.377	-0.977
-168.881	78.571	0.305	0.322
-167.866	57.102	0.476	0.458
-166.852	800.000	0.109	0.342
-165.837	-30.372	-0.560	-0.314
-164.823	800.000	-0.059	-0.231
-163.808	124.836	-0.318	0.395
-162.793	800.000	-0.116	0.390
-161.779	31.339	-0.538	0.456
-160.764	-200.000	-0.092	-0.988
-159.750	-35.883	0.408	-0.218
-158.735	124.208	0.157	-0.195
-157.720	-64.867	0.570	-0.228
-156.706	73.265	0.239	0.247
-155.691	-123.067	0.372	-0.059
-154.677	68.525	0.866	-0.876
-153.662	252.680	0.085	-0.142
-152.647	28.700	-0.194	0.162
-151.633	-120.983	-0.333	-0.055
-150.618	106.282	0.341	0.398
-149.604	-38.822	0.902	0.469
-148.589	237.650	-0.474	0.776
-147.574	39.753	-0.546	0.483
-146.560	-98.080	-0.983	-0.249
-145.545	392.171	0.091	0.186
-144.531	-70.054	-0.532	0.200
-143.516	-98.193	0.350	-0.089
-142.502	-38.384	0.207	0.108
-141.487	-54.387	-0.441	0.197
-140.472	106.411	-0.355	-0.415
-139.458	55.965	0.660	-0.631
-138.443	-70.001	0.593	0.223
-137.429	-200.000	-0.010	0.473
-136.414	-1.450	-0.499	0.347
-135.399	-4.118	0.482	-0.329
-134.385	-165.831	-0.622	0.026
-133.370	-66.569	0.409	-0.160
-132.356	-77.840	0.978	-0.333
-131.341	800.000	0.252	-1.018
-130.326	28.834	-0.265	0.221
-129.312	-71.313	0.428	0.158
-128.297	221.958	0.287	-0.455
-127.283	-18.207	-0.521	0.321
-126.268	-200.000	-0.088	0.611
-125.253	100.250	-0.110	0.125
-124.239	214.696	-0.359	-0.561
-123.224	61.410	0.384	0.376
-122.210	87.208	-0.374	-0.408
-121.195	-49.457	-0.845	0.397
-120.180	96.253	-0.152	-0.172
-119.166	34.949	-0.300	0.259
-118.151	-158.743	-0.184	-0.010
-117.137	167.103	-0.041	-0.058
-116.122	354.932	-0.338	-0.661
-115.107	74.448	-0.451	0.467
-114.093	-61.994	0.548	-0.226
-113.078	-69.176	-0.318	-0.120
-112.064	800.000	0.154	-0.577
-111.049	800.000	-0.219	0.839
-110.034	24.967	0.542	0.443
-109.020	-112.386	-0.663	0.131
-108.005	800.000	0.060	-0.215
-106.991	94.488	0.253	0.283
-105.976	421.163	0.291	0.614
-104.962	-200.000	0.021	0.394
-103.947	-188.480	0.264	-0.003
-102.932	-200.000	-0.086	1.687
-101.918	279.653	0.191	0.336
-100.903	-200.000	-0.077	0.401
-99.889	-39.221	0.161	0.083
-98.874	-17.455	-0.822	-0.509
-97.859	19.823	0.340	0.270
-96.845	-19.062	0.333	-0.204
-95.830	-73.610	-0.083	0.030
-94.816	-68.927	-0.266	-0.101
-93.801	85.869	-0.466	-0.504
-92.786	58.987	-0.356	-0.344
-91.772	94.747	-0.903	1.011
-90.757	426.296	0.316	0.670
-89.743	-25.123	-0.343	-0.200
-88.728	-101.443	-0.622	-0.149
-87.713	-96.068	-0.594	0.155
-86.699	-200.000	0.049	0.360
-85.684	-1.437	0.752	-0.522
-84.670	-180.195	0.440	0.009
-83.655	-200.000	0.027	0.305
-82.640	18.819	0.113	-0.089
-81.626	-200.000	0.167	0.828
-80.611	127.253	0.196	-0.245
-79.597	538.609	-0.512	-1.196
-78.582	243.697	-0.070	0.115
-77.567	-64.626	-0.637	0.254
-76.553	191.702	-0.193	-0.285
-75.538	-200.000	0.021	0.190
-74.524	399.651	-0.374	0.770
-73.509	-185.012	0.740	0.011
-72.494	751.376	0.142	-0.376
-71.480	726.692	0.226	0.593
-70.465	-125.950	0.473	-0.070
-69.451	800.000	-0.023	-0.090
-68.436	-159.067	0.589	-0.033
-67.422	25.009	-0.403	-0.329
-66.407	-200.000	-0.117	1.213
-65.392	-114.521	-0.969	0.183
-64.378	82.457	0.429	0.458
-63.363	-15.684	-0.610	0.383
-62.349	-93.108	0.413	-0.113
-61.334	167.808	-0.994	-1.389
-60.319	214.228	0.146	0.226
-59.305	291.438	0.142	0.253
-58.290	800.000	0.470	1.274
-57.276	-200.000	0.079	0.981
-56.261	-200.000	95.523	571.889
-55.246	642.793	1373.457	3440.081
-54.232	198.645	2553.355	3840.187
-53.217	112.332	2258.402	2683.794
-52.203	42.714	1886.815	1688.271
-51.188	36.801	1678.230	1457.240
-50.173	34.361	1633.314	1400.281
-49.159	52.505	1683.155	1578.692
-48.144	53.324	1699.333	1599.909
-47.130	36.276	1659.279	1436.646
-46.115	33.517	1644.663	1403.538
-45.100	33.515	1639.622	1399.168
-44.086	33.522	1636.168	1396.211
-43.071	33.435	1634.214	1393.848
-42.057	33.256	1631.123	1389.842
-41.042	33.258	1630.320	1389.122
-40.027	33.323	1627.483	1387.121
-39.013	33.157	1626.912	1385.369
-37.998	33.184	1624.877	1383.777
-36.984	33.331	1623.467	1383.597
-35.969	33.399	1621.980	1382.767
-34.954	33.486	1619.982	1381.644
-33.940	33.633	1617.277	1380.349
-32.925	33.529	1616.417	1378.810
-31.911	33.239	1615.273	1375.672
-30.896	33.517	1613.055	1375.746
-29.881	33.521	1611.289	1374.213
-28.867	33.384	1610.093	1372.142
-27.852	33.359	1608.143	1370.250
-26.838	33.336	1607.342	1369.341
-25.823	33.227	1605.467	1366.903
-24.809	33.435	1603.673	1366.825
-23.794	33.281	1603.472	1365.489
-22.779	33.442	1601.226	1364.684
-21.765	33.550	1599.448	1363.892
-20.750	33.350	1597.977	1361.145
-19.736	33.400	1596.930	1360.559
-18.721	33.379	1595.644	1359.258
-17.706	33.567	1594.239	1359.355
-16.692	33.712	1590.095	1356.804
-15.677	33.383	1592.010	1356.023
-14.663	33.463	1589.440	1354.356
-13.648	33.465	1588.773	1353.746
-12.633	33.354	1586.460	1350.930
-11.619	33.500	1584.695	1350.417
-10.604	33.640	1582.885	1349.819
-9.590	33.604	1581.545	1348.367
-8.575	33.547	1580.852	1347.316
-7.560	33.569	1580.242	1346.898
-6.546	33.441	1579.190	1345.038
-5.531	33.737	1577.365	1345.527
-4.517	33.490	1575.267	1341.936
-3.502	33.587	1574.536	1341.948
-2.487	33.501	1573.038	1340.010
-1.473	32.840	1562.651	1326.462
-0.458	30.264	1542.350	1291.279
0.556	27.571	1542.520	1258.814
1.571	25.008	1565.638	1259.578
2.586	24.451	1577.547	1265.102
3.600	21.607	1524.913	1203.265
4.615	12.504	1415.032	1058.146
5.629	4.455	1349.562	959.533
6.644	2.890	1342.098	944.517
7.659	2.786	1341.404	943.311
8.673	2.980	1340.404	943.716
9.688	2.944	1338.680	942.193
10.702	2.770	1333.766	937.589
11.717	6.108	1342.853	964.403
12.731	15.376	1361.310	1034.992
13.746	23.563	1373.838	1095.186
14.761	25.998	1375.864	1111.737
15.775	25.977	1376.494	1112.014
16.790	26.080	1375.734	1111.936
17.804	26.410	1374.607	1112.961
18.819	26.628	1374.618	1114.211
19.834	26.829	1373.646	1114.558
20.848	26.546	1373.791	1112.842
21.863	26.831	1371.807	1112.882
22.877	26.573	1371.694	1111.108
23.892	26.740	1369.535	1110.288
24.907	26.846	1368.926	1110.345
25.921	26.775	1369.498	1110.273
26.936	26.731	1366.882	1107.786
27.950	26.770	1365.894	1107.123
28.965	26.855	1365.712	1107.400
29.980	26.966	1363.985	1106.577
30.994	26.698	1363.297	1104.290
32.009	26.679	1362.469	1103.401
33.023	26.682	1361.896	1102.864
34.038	26.780	1360.109	1101.911
35.053	26.653	1359.552	1100.593
36.067	26.834	1357.840	1100.207
37.082	26.670	1357.574	1098.901
38.096	27.012	1356.426	1099.943
39.111	27.112	1355.168	1099.434
40.126	26.730	1354.733	1096.671
41.140	26.649	1355.335	1096.573
42.155	26.804	1353.886	1096.235
43.169	26.809	1354.496	1096.663
44.184	27.001	1353.220	1096.698
45.199	26.774	1354.049	1095.899
46.213	26.606	1352.561	1093.582
47.228	26.910	1351.528	1094.485
48.242	26.784	1351.024	1093.217
49.257	26.943	1349.182	1092.590
50.271	26.701	1348.371	1090.380
51.286	26.746	1346.734	1089.228
52.301	26.869	1345.309	1088.720
53.315	26.717	1345.177	1087.603
54.330	26.598	1344.519	1086.260
55.344	26.787	1343.161	1086.203
56.359	27.004	1341.547	1086.100
57.374	26.935	1340.701	1084.903
58.388	26.775	1341.186	1084.246
59.403	26.936	1339.565	1083.800
60.417	26.807	1339.135	1082.588
61.432	26.970	1338.228	1082.728
62.447	26.928	1337.355	1081.678
63.461	26.926	1336.251	1080.676
64.476	27.235	1334.472	1080.981
65.490	26.886	1334.136	1078.536
66.505	27.198	1332.191	1078.718
67.520	26.864	1331.866	1076.378
68.534	26.809	1330.462	1074.823
69.549	26.966	1330.059	1075.334
70.563	26.842	1329.871	1074.352
71.578	27.029	1328.493	1074.253
72.593	27.111	1326.526	1073.051
73.607	27.215	1325.927	1073.086
74.622	26.983	1325.339	1071.147
75.636	27.014	1325.000	1070.959
76.651	27.161	1324.096	1070.999
77.666	27.048	1323.196	1069.513
78.680	27.027	1323.776	1069.763
79.695	26.906	1322.716	1068.098
80.709	27.029	1321.632	1067.854
81.724	27.053	1320.964	1067.357
82.739	27.204	1320.483	1067.759
83.753	27.057	1319.187	1065.760
84.768	26.898	1319.137	1064.690
85.782	26.932	1316.647	1062.786
86.797	27.211	1315.491	1063.391
87.812	27.015	1314.378	1061.249
88.826	26.920	1314.100	1060.378
89.841	26.794	1312.490	1058.250
90.855	27.158	1311.330	1059.341
91.870	27.103	1310.922	1058.599
92.884	27.240	1309.613	1058.245
93.899	27.019	1309.460	1056.743
94.914	26.898	1309.158	1055.699
95.928	27.165	1307.604	1055.907
96.943	26.858	1307.381	1053.851
97.957	27.163	1306.161	1054.544
98.972	27.243	1304.582	1053.635
99.987	27.126	1304.490	1052.789
101.001	27.188	1303.906	1052.585
102.016	27.276	1302.806	1052.116
103.030	27.192	1301.658	1050.610
104.045	27.139	1300.986	1049.669
105.060	27.147	1299.914	1048.757
106.074	27.159	1298.495	1047.586
107.089	27.095	1297.779	1046.545
108.103	27.078	1297.805	1046.377
109.118	27.217	1296.640	1046.147
110.133	27.107	1295.127	1044.200
111.147	27.265	1293.264	1043.510
112.162	27.413	1292.078	1043.311
113.176	27.340	1291.583	1042.401
114.191	27.395	1290.634	1041.856
115.206	27.235	1289.637	1040.049
116.220	27.268	1288.280	1039.050
117.235	27.301	1287.717	1038.688
118.249	27.152	1288.004	1037.978
119.264	27.357	1285.666	1037.175
120.279	27.419	1285.327	1037.159
121.293	27.516	1283.880	1036.451
122.308	26.987	1284.710	1034.016
123.322	27.374	1283.771	1035.372
124.337	27.255	1283.396	1034.305
125.352	27.151	1281.558	1032.141
126.366	27.567	1279.583	1032.816
127.381	27.332	1279.709	1031.491
128.395	27.300	1279.063	1030.698
129.410	27.127	1276.879	1027.872
130.424	27.298	1277.241	1029.038
131.439	27.394	1276.993	1029.290
132.454	27.478	1274.695	1027.822
133.468	27.383	1273.933	1026.583
134.483	27.452	1274.391	1027.245
135.497	27.086	1273.861	1024.664
136.512	27.059	1272.922	1023.668
137.527	27.606	1269.911	1024.230
138.541	27.442	1269.777	1023.110
139.556	27.455	1269.295	1022.703
140.570	27.413	1267.931	1021.280
141.585	27.217	1266.449	1018.899
142.600	27.256	1265.779	1018.483
143.614	27.282	1263.879	1017.010
144.629	27.329	1263.798	1017.119
145.643	27.254	1263.035	1015.997
146.658	27.122	1262.544	1014.774
147.673	27.134	1261.227	1013.692
148.687	27.139	1259.943	1012.602
149.702	27.537	1257.394	1012.672
150.716	27.247	1258.129	1011.565
151.731	27.175	1257.223	1010.345
152.746	27.354	1256.649	1010.790
153.760	27.294	1254.645	1008.756
154.775	27.503	1253.837	1009.172
155.789	27.546	1252.721	1008.425
156.804	27.407	1251.832	1006.849
157.819	27.338	1251.648	1006.230
158.833	27.462	1250.690	1006.060
159.848	27.250	1251.072	1005.104
160.862	27.309	1249.793	1004.315
161.877	27.504	1247.744	1003.656
162.892	27.129	1248.358	1001.989
163.906	27.264	1248.320	1002.615
164.921	27.626	1246.121	1002.755
165.935	27.473	1245.478	1001.304
166.950	27.553	1244.711	1001.040
167.964	27.608	1244.145	1000.800
168.979	27.631	1244.441	1001.074
169.994	27.448	1243.687	999.376
171.008	27.551	1242.343	998.769
172.023	27.363	1242.111	997.466
173.037	27.478	1241.290	997.348
174.052	27.646	1240.136	997.248
175.067	27.348	1240.433	995.769
176.081	27.712	1238.518	996.136
177.096	27.412	1238.311	994.243
178.110	27.606	1236.396	993.672
179.125	27.478	1236.173	992.708
180.140	27.714	1234.141	992.276
181.154	27.571	1234.378	991.596
182.169	27.570	1232.337	989.864
183.183	27.625	1232.047	989.843
184.198	27.567	1230.804	988.445
185.213	27.654	1230.595	988.660
186.227	27.827	1228.612	987.912
187.242	27.730	1227.763	986.620
188.256	27.688	1227.754	986.301
189.271	27.682	1226.924	985.510
190.286	27.757	1226.054	985.128
191.300	27.743	1225.777	984.747
192.315	27.798	1225.396	984.650
193.329	27.796	1223.417	982.960
194.344	27.786	1223.753	983.087
195.359	27.844	1223.890	983.423
196.373	27.661	1223.407	981.963
197.388	27.802	1222.875	982.208
198.402	27.932	1222.159	982.246
199.417	27.710	1222.802	981.483
200.432	27.731	1222.023	980.883
201.446	27.819	1220.499	980.044
202.461	27.838	1220.215	979.833
203.475	28.048	1219.331	980.160
204.490	27.895	1219.007	978.996
205.504	27.819	1216.862	976.780
206.519	27.836	1216.291	976.327
207.534	28.002	1215.297	976.326
208.548	27.734	1214.645	974.286
209.563	27.463	1214.424	972.575
210.577	28.002	1212.773	974.041
211.592	27.662	1212.792	972.159
212.607	27.802	1211.851	972.061
213.621	28.020	1210.828	972.318
214.636	27.989	1210.869	972.099
215.650	27.990	1209.340	970.789
216.665	28.179	1208.687	971.186
217.680	28.098	1206.961	969.281
218.694	28.082	1206.499	968.739
219.709	27.902	1206.118	967.397
220.723	27.875	1206.222	967.250
221.738	28.180	1204.309	967.241
222.753	27.897	1203.887	965.324
223.767	27.960	1203.681	965.404
224.782	28.308	1202.141	965.919
225.796	28.113	1203.656	966.021
226.811	28.144	1201.810	964.621
227.826	27.808	1202.187	963.062
228.840	27.941	1201.092	962.803
229.855	28.065	1200.764	963.108
230.869	27.992	1199.444	961.580
231.884	27.938	1199.610	961.343
232.899	27.794	1198.229	959.394
233.913	28.002	1197.659	959.945
234.928	28.108	1196.824	959.748
235.942	28.170	1195.696	959.085
236.957	28.286	1196.026	959.871
237.972	28.076	1195.200	958.021
238.986	28.258	1193.920	957.867
240.001	28.145	1194.747	957.849
241.015	28.074	1194.081	956.864
242.030	28.492	1191.834	957.161
243.045	28.348	1191.285	955.879
244.059	28.095	1191.664	954.779
245.074	28.393	1190.259	955.123
246.088	28.477	1189.568	954.923
247.103	28.237	1189.729	953.719
248.117	28.452	1186.987	952.552
249.132	28.458	1186.943	952.464
250.147	28.518	1187.113	952.826
251.161	28.577	1185.594	951.829
252.176	28.500	1185.557	951.317
253.190	28.247	1185.171	949.612
254.205	28.390	1184.172	949.466
255.220	28.413	1183.346	948.841
256.234	28.617	1182.800	949.373
257.249	28.506	1182.099	948.155
258.263	28.517	1180.916	947.176
259.278	28.473	1181.294	947.167
260.293	28.710	1179.881	947.176
261.307	28.573	1179.460	946.046
262.322	28.313	1179.729	944.838
263.336	28.617	1178.692	945.492
264.351	28.681	1178.298	945.421
265.366	28.439	1177.515	943.461
266.380	28.606	1176.123	943.122
267.395	28.366	1176.270	941.923
268.409	28.324	1175.705	941.172
269.424	28.548	1174.645	941.387
270.439	28.314	1175.531	940.815
271.453	28.519	1173.697	940.314
272.468	28.728	1172.155	940.066
273.482	28.574	1171.917	939.003
274.497	28.630	1171.966	939.244
275.512	28.771	1171.063	939.159
276.526	28.578	1171.126	938.139
277.541	28.819	1169.563	938.038
278.555	28.675	1170.446	937.926
279.570	28.594	1169.509	936.679
280.585	28.763	1168.706	936.813
281.599	28.703	1166.972	935.036
282.614	28.513	1167.039	934.040
283.628	28.946	1165.217	934.701
284.643	28.457	1164.832	931.825
285.657	28.829	1163.482	932.547
286.672	28.469	1162.791	930.085
287.687	28.806	1161.586	930.749
288.701	28.670	1161.879	930.210
289.716	28.896	1161.188	930.720
290.730	28.828	1160.981	930.125
291.745	28.721	1159.517	928.329
292.760	28.586	1158.998	927.151
293.774	28.689	1158.716	927.362
294.789	28.581	1159.713	927.532
295.803	28.906	1158.022	927.738
296.818	28.624	1157.218	925.591
297.833	28.891	1156.855	926.564
298.847	29.127	1155.608	926.674
299.862	28.703	1155.166	924.101
300.876	29.026	1154.143	924.827
301.891	28.824	1153.895	923.529
302.906	29.126	1152.845	924.125
303.920	28.883	1152.907	922.873
304.935	28.970	1152.483	922.888
305.949	28.820	1151.790	921.498
306.964	29.092	1150.209	921.513
307.979	29.267	1149.120	921.437
308.993	29.120	1148.724	920.300
310.008	29.059	1148.728	919.919
311.022	29.277	1147.126	919.642
312.037	28.996	1147.119	918.153
313.052	28.948	1146.127	917.041
314.066	29.318	1145.126	918.000
315.081	29.075	1143.656	915.530
316.095	29.012	1144.188	915.561
317.110	28.950	1143.843	914.898
318.125	29.044	1143.259	914.816
319.139	28.975	1143.523	914.605
320.154	29.274	1141.605	914.470
321.168	29.115	1141.021	913.135
322.183	29.115	1140.401	912.560
323.197	29.033	1139.413	911.278
324.212	29.317	1139.320	912.530
325.227	29.079	1138.744	910.810
326.241	29.557	1137.557	912.146
327.256	29.406	1137.139	910.985
328.270	28.988	1137.517	909.140
329.285	29.623	1135.116	910.269
330.300	29.328	1135.383	908.949
331.314	29.353	1134.456	908.249
332.329	29.321	1133.972	907.624
333.343	29.298	1133.361	906.942
334.358	29.286	1132.893	906.428
335.373	29.343	1131.895	905.832
336.387	29.359	1130.973	905.093
337.402	29.643	1130.216	905.795
338.416	28.989	1130.346	902.614
339.431	29.399	1129.506	903.871
340.446	29.579	1128.100	903.549
341.460	29.448	1127.975	902.727
342.475	29.568	1127.423	902.792
343.489	29.096	1126.958	900.032
344.504	29.523	1124.863	900.361
345.519	29.527	1125.387	900.723
346.533	29.804	1123.379	900.386
347.548	29.573	1122.873	898.774
348.562	29.673	1122.020	898.497
349.577	29.397	1122.563	897.511
350.592	29.597	1120.740	896.946
351.606	29.721	1119.855	896.759
352.621	29.542	1119.632	895.634
353.635	29.716	1118.500	895.493
354.650	29.521	1119.037	894.895
355.665	29.435	1117.613	893.265
356.679	29.826	1117.638	895.097
357.694	29.695	1117.223	894.052
358.708	29.918	1115.483	893.658
359.723	29.679	1115.417	892.373
360.738	29.706	1114.218	891.463
361.752	29.419	1115.861	891.313
362.767	29.563	1114.528	890.864
363.781	29.743	1113.301	890.670
364.796	29.735	1112.808	890.156
365.810	29.510	1113.575	889.608
366.825	29.400	1112.053	887.786
367.840	29.584	1111.472	888.128
368.854	29.827	1110.748	888.640
369.869	29.850	1110.882	888.779
370.883	29.848	1109.084	887.253
371.898	29.804	1108.696	886.651
372.913	29.890	1108.069	886.484
373.927	29.991	1107.308	886.279
374.942	30.133	1106.228	886.014
375.956	29.997	1106.749	885.705
376.971	30.138	1105.716	885.472
377.986	30.082	1105.658	885.082
379.000	29.956	1105.126	883.975
380.015	30.149	1103.774	883.733
381.029	29.905	1103.619	882.370
382.044	29.983	1103.405	882.493
383.059	30.297	1101.654	882.506
384.073	29.826	1102.476	880.847
385.088	30.297	1100.289	881.259
386.102	30.238	1099.749	880.467
387.117	30.038	1099.097	878.919
388.132	30.026	1098.036	877.935
389.146	30.193	1097.081	877.885
390.161	30.098	1097.544	877.726
391.175	30.205	1095.506	876.525
392.190	30.215	1095.406	876.418
393.205	30.167	1094.822	875.643
394.219	30.025	1094.591	874.712
395.234	30.080	1093.472	873.997
396.248	30.303	1092.768	874.408
397.263	30.013	1092.264	872.562
398.278	30.359	1091.167	873.239
399.292	30.322	1091.156	872.976
400.307	30.395	1090.473	872.697
401.321	30.383	1089.153	871.506
402.336	30.341	1088.846	870.986
403.350	30.010	1089.376	869.780
404.365	30.568	1087.360	870.709
405.380	30.287	1087.140	869.139
406.394	30.440	1086.234	869.055
407.409	30.408	1085.656	868.363
408.423	30.522	1085.060	868.342
409.438	30.246	1085.124	867.030
410.453	30.375	1083.858	866.541
411.467	30.350	1082.939	865.613
412.482	30.170	1083.404	865.068
413.496	30.213	1081.876	863.971
414.511	30.432	1081.350	864.494
415.526	30.444	1081.310	864.442
416.540	30.315	1079.720	862.496
417.555	30.397	1079.206	862.388
418.569	30.292	1079.789	862.289
419.584	30.435	1079.316	862.502
420.599	30.524	1078.301	862.027
421.613	152.071	1406.576	1793.733
422.628	140.253	1454.469	1793.792
