DTS Sentinel unit serial number:	SN413079Multiplexer serial number:	ORYXHardware model number:	OX4-SRSoftware version number:	ORYX F/W v4.00 Oryx Data Collector v3.7.2.0data status	okinstallation	princeton_trtdifferential loss correction	single-endedforward channel	channel 2reverse channel	N/Adate	2019/09/15time	12:03:35forward acquisition time	60.00reverse acquisition time	0.00gamma	496.2192k internal	0.2315k external	0.2315temperature offset calibration	1.0012default loss term (dB/km)	0.3790temperature slope calibration	1.0000multiplexer offset coefficient	1.0000multiplexer slope coefficient	1.0000fibre end	0.00T internal ref (°C)	34.44T ext. ref 1 (°C)	5.05T ext. ref 2 (°C)	30.49length (m)	temperature (°C)	Stokes	anti-Stokes-747.200	496.423	0.108	-0.251
-746.185	712.159	0.184	0.495
-745.171	-200.000	0.012	0.229
-744.156	-70.884	0.228	0.087
-743.142	-12.819	0.142	-0.094
-742.127	800.000	0.064	0.236
-741.112	-157.808	-0.073	-0.004
-740.098	8.360	0.107	0.082
-739.083	-200.000	-0.038	0.229
-738.069	-200.000	-0.078	0.356
-737.054	800.000	0.100	-0.308
-736.039	-138.264	-0.364	-0.041
-735.025	-94.112	-0.489	0.136
-734.010	315.526	0.037	-0.071
-732.996	-3.535	-0.145	-0.102
-731.981	-5.731	-0.239	-0.166
-730.966	129.641	-0.054	0.069
-729.952	-143.429	-0.105	0.010
-728.937	800.000	0.118	-0.444
-727.923	-200.000	-0.020	-0.454
-726.908	15.888	-0.084	0.067
-725.894	373.735	-0.103	-0.213
-724.879	417.444	0.058	-0.126
-723.864	-120.846	-0.086	-0.015
-722.850	-64.533	-0.435	0.179
-721.835	-85.993	-0.265	0.083
-720.821	-9.551	-0.164	0.111
-719.806	211.147	-0.022	0.035
-718.791	-40.461	-0.218	0.115
-717.777	96.976	-0.112	-0.130
-716.762	800.000	0.046	0.175
-715.748	196.928	-0.204	-0.315
-714.733	50.302	-0.110	-0.105
-713.718	358.488	-0.132	0.266
-712.704	115.688	-0.226	-0.280
-711.689	72.985	0.065	0.069
-710.675	-200.000	-0.068	0.389
-709.660	124.742	-0.100	-0.128
-708.645	60.534	0.148	-0.149
-707.631	-127.783	0.063	-0.009
-706.616	178.222	0.209	0.308
-705.602	348.820	-0.115	0.230
-704.587	-200.000	-0.014	-0.557
-703.572	-200.000	-0.020	-0.113
-702.558	-8.488	0.101	-0.069
-701.543	29.158	-0.255	-0.219
-700.529	-49.214	0.198	-0.096
-699.514	20.319	-0.156	0.127
-698.499	299.059	-0.044	0.083
-697.485	49.010	-0.193	-0.184
-696.470	-3.570	0.141	0.099
-695.456	184.952	-0.092	0.139
-694.441	631.642	-0.054	-0.137
-693.426	555.540	0.102	0.248
-692.412	-39.313	-0.131	-0.069
-691.397	-121.603	0.527	-0.088
-690.383	-7.910	-0.366	0.250
-689.368	-118.840	-0.379	-0.067
-688.354	-200.000	0.018	0.082
-687.339	800.000	-0.022	-0.078
-686.324	-190.952	-0.288	-0.003
-685.310	-82.124	0.193	0.064
-684.295	-90.821	0.181	-0.053
-683.281	800.000	0.078	0.333
-682.266	45.528	0.129	-0.120
-681.251	800.000	-0.041	0.164
-680.237	-200.000	-0.011	-0.165
-679.222	158.615	-0.058	0.082
-678.208	-7.928	-0.102	0.070
-677.193	-200.000	0.040	0.195
-676.178	-200.000	0.002	-0.034
-675.164	-129.695	0.211	0.029
-674.149	340.427	0.119	0.235
-673.135	-44.845	0.065	-0.033
-672.120	800.000	0.084	0.246
-671.105	-147.597	0.219	0.019
-670.091	-71.408	-0.576	-0.218
-669.076	800.000	0.034	-0.105
-668.062	800.000	-0.056	-0.199
-667.047	48.248	0.120	-0.113
-666.032	102.358	0.086	-0.102
-665.018	-76.170	-0.170	-0.061
-664.003	143.988	0.047	0.064
-662.989	-85.065	-0.326	-0.103
-661.974	398.413	0.109	-0.231
-660.959	329.578	-0.122	-0.237
-659.945	260.026	0.063	-0.111
-658.930	800.000	0.034	-0.106
-657.916	9.687	0.156	0.120
-656.901	-130.972	-0.429	-0.058
-655.886	61.205	0.146	0.146
-654.872	-51.919	0.261	-0.123
-653.857	-200.000	0.065	-0.349
-652.843	-200.000	0.021	0.106
-651.828	769.147	0.033	-0.091
-650.814	520.247	0.106	0.251
-649.799	230.890	-0.101	0.166
-648.784	-29.027	0.106	0.061
-647.770	234.653	-0.068	-0.114
-646.755	-158.876	-0.527	-0.030
-645.741	-200.000	-0.047	-0.306
-644.726	-53.126	0.157	-0.073
-643.711	-94.610	0.094	0.026
-642.697	-200.000	0.006	-0.049
-641.682	800.000	-0.040	0.144
-640.668	91.352	-0.109	0.123
-639.653	83.764	0.147	-0.162
-638.638	-97.471	0.159	-0.042
-637.624	-60.760	0.322	0.138
-636.609	-88.568	-0.159	0.048
-635.595	627.946	0.109	0.278
-634.580	800.000	-0.044	0.176
-633.565	-67.216	0.258	-0.102
-632.551	-30.330	0.268	-0.154
-631.536	263.618	0.241	-0.423
-630.522	-200.000	-0.040	-0.263
-629.507	-95.002	-0.115	0.032
-628.492	617.728	0.149	-0.377
-627.478	-72.170	0.030	-0.011
-626.463	113.042	-0.026	-0.032
-625.449	800.000	0.071	0.260
-624.434	-200.000	-0.022	0.123
-623.419	229.046	0.165	0.271
-622.405	-144.228	-0.037	-0.003
-621.390	231.375	0.026	-0.044
-620.376	800.000	-0.068	0.207
-619.361	-71.231	0.329	-0.125
-618.346	-0.972	-0.105	0.075
-617.332	-151.417	-0.238	-0.018
-616.317	-135.467	0.340	-0.041
-615.303	-200.000	0.042	0.303
-614.288	-35.657	0.310	0.170
-613.273	16.590	-0.287	-0.229
-612.259	142.327	0.194	0.259
-611.244	72.620	-0.065	-0.069
-610.230	7.473	0.070	0.053
-609.215	-40.425	-0.134	0.070
-608.201	-118.673	0.301	0.053
-607.186	-120.957	0.528	-0.090
-606.171	-40.758	0.303	-0.158
-605.157	171.236	0.101	0.146
-604.142	64.071	0.287	-0.291
-603.128	67.493	-0.157	0.161
-602.113	2.763	0.110	0.080
-601.098	334.906	-0.066	-0.128
-600.084	501.107	0.058	0.134
-599.069	448.252	0.051	-0.113
-598.055	-147.401	-0.112	-0.010
-597.040	-81.065	0.206	-0.069
-596.025	-179.219	0.360	-0.008
-595.011	-188.716	-0.508	0.006
-593.996	-111.875	0.189	0.038
-592.982	-200.000	-0.035	0.270
-591.967	107.186	-0.086	-0.103
-590.952	651.200	0.049	-0.126
-589.938	800.000	0.045	-0.164
-588.923	-69.151	-0.181	0.070
-587.909	-51.449	0.034	-0.016
-586.894	800.000	0.018	0.067
-585.879	57.397	0.099	-0.098
-584.865	-200.000	0.018	0.188
-583.850	-200.000	-0.004	-0.101
-582.836	-200.000	-0.002	-0.168
-581.821	169.169	0.159	0.229
-580.806	-200.000	0.030	-0.188
-579.792	-93.230	0.067	0.019
-578.777	136.676	0.128	0.169
-577.763	-103.915	0.077	-0.018
-576.748	466.343	-0.037	-0.084
-575.733	306.751	0.079	0.147
-574.719	-61.589	0.201	-0.085
-573.704	-125.611	0.163	0.025
-572.690	232.827	-0.245	-0.406
-571.675	-200.000	-0.026	-0.494
-570.661	-200.000	0.026	0.227
-569.646	-3.180	-0.218	-0.153
-568.631	-154.202	0.147	0.010
-567.617	98.329	0.228	-0.264
-566.602	205.636	0.058	-0.091
-565.588	342.166	-0.146	-0.287
-564.573	52.399	0.167	-0.160
-563.558	261.232	-0.146	0.255
-562.544	295.112	-0.123	0.227
-561.529	67.794	-0.273	-0.281
-560.515	-200.000	-0.004	0.224
-559.500	-114.033	-0.245	0.048
-558.485	-40.915	-0.247	0.129
-557.471	-111.412	0.356	-0.073
-556.456	-173.003	-0.280	-0.009
-555.442	-35.274	-0.097	-0.053
-554.427	-121.995	-0.158	0.026
-553.412	-157.533	-0.306	0.018
-552.398	-40.171	0.161	0.084
-551.383	51.206	-0.121	0.115
-550.369	-76.831	-0.128	-0.045
-549.354	-200.000	0.031	-0.175
-548.339	281.670	-0.063	-0.113
-547.325	-200.000	-0.037	0.225
-546.310	-128.694	0.177	-0.025
-545.296	800.000	0.092	0.261
-544.281	-200.000	-0.158	-0.000
-543.266	-200.000	0.013	-0.308
-542.252	-84.524	-0.255	0.081
-541.237	-200.000	-0.026	-0.270
-540.223	679.239	-0.030	-0.079
-539.208	-106.846	0.085	0.019
-538.193	-112.817	-0.305	0.061
-537.179	58.074	-0.097	0.095
-536.164	-148.460	0.154	-0.013
-535.150	-148.512	-0.421	-0.035
-534.135	-70.733	0.229	0.087
-533.121	207.424	0.218	-0.341
-532.106	61.205	-0.032	0.032
-531.091	-200.000	0.028	-0.245
-530.077	-71.787	-0.039	-0.015
-529.062	-78.132	-0.160	0.055
-528.048	109.397	-0.231	-0.278
-527.033	-22.157	0.173	-0.105
-526.018	137.853	0.141	-0.186
-525.004	153.178	-0.147	0.202
-523.989	189.913	0.072	-0.108
-522.975	103.330	-0.140	-0.165
-521.960	-26.166	0.197	-0.116
-520.945	74.715	-0.130	0.137
-519.931	33.698	0.109	0.095
-518.916	-141.717	-0.330	-0.033
-517.902	-9.565	-0.133	0.089
-516.887	111.800	-0.255	-0.309
-515.872	146.433	0.123	0.165
-514.858	-169.846	-0.260	-0.009
-513.843	74.995	-0.030	-0.032
-512.829	-83.395	-0.073	0.024
-511.814	-120.844	0.137	0.023
-510.799	55.127	0.070	0.068
-509.785	-15.141	0.159	0.102
-508.770	-57.473	0.192	0.085
-507.756	270.932	0.127	-0.224
-506.741	-200.000	-0.061	-0.287
-505.726	40.358	-0.139	0.126
-504.712	-200.000	-0.022	0.193
-503.697	-143.737	-0.207	0.020
-502.683	-15.432	-0.145	-0.093
-501.668	-92.615	0.105	0.030
-500.653	701.737	0.046	-0.122
-499.639	-200.000	-0.028	0.150
-498.624	-118.436	-0.223	0.040
-497.610	659.498	0.048	0.123
-496.595	800.000	-0.039	-0.168
-495.581	524.394	0.079	0.187
-494.566	-38.552	-0.130	-0.069
-493.551	-119.737	0.206	-0.036
-492.537	354.953	0.083	-0.165
-491.522	249.543	0.115	0.195
-490.508	162.114	-0.135	0.189
-489.493	-109.889	0.142	0.030
-488.478	-24.430	-0.269	-0.161
-487.464	-200.000	0.132	0.001
-486.449	-43.909	0.347	0.175
-485.435	-124.216	0.182	0.029
-484.420	800.000	0.084	0.309
-483.405	-130.278	-0.308	0.042
-482.391	88.500	0.162	0.181
-481.376	253.012	0.085	-0.146
-480.362	239.164	-0.199	-0.332
-479.347	-101.534	-0.359	0.088
-478.332	-200.000	-0.058	0.365
-477.318	-138.829	0.189	-0.021
-476.303	48.739	-0.230	-0.216
-475.289	18.312	0.158	-0.126
-474.274	21.727	0.118	-0.096
-473.259	144.738	0.093	-0.125
-472.245	307.558	0.164	0.306
-471.230	-200.000	0.013	0.173
-470.216	-122.034	-0.216	-0.036
-469.201	-200.000	-0.018	-0.184
-468.186	-77.786	-0.343	0.119
-467.172	-38.982	-0.136	0.072
-466.157	18.264	0.299	-0.239
-465.143	800.000	0.065	-0.198
-464.128	-112.431	-0.036	-0.007
-463.113	-119.231	0.080	0.014
-462.099	118.917	0.187	-0.232
-461.084	-140.010	-0.255	0.027
-460.070	-52.326	-0.053	0.024
-459.055	230.193	-0.207	0.339
-458.040	316.383	-0.117	-0.221
-457.026	198.774	0.257	0.395
-456.011	352.417	-0.213	0.423
-454.997	-61.287	0.187	0.079
-453.982	-57.907	-0.433	0.190
-452.968	-84.951	0.120	0.038
-451.953	204.862	-0.049	-0.076
-450.938	-110.715	0.261	-0.054
-449.924	-61.859	-0.138	0.058
-448.909	-113.921	0.049	0.010
-447.895	-50.099	0.205	-0.097
-446.880	107.833	0.107	0.127
-445.865	800.000	0.030	0.127
-444.851	800.000	-0.027	0.101
-443.836	-6.330	-0.088	0.060
-442.822	294.160	0.127	0.232
-441.807	-86.149	0.195	-0.060
-440.792	-200.000	-0.004	-0.022
-439.778	150.814	0.212	0.288
-438.763	255.326	0.114	0.195
-437.749	86.620	-0.170	-0.188
-436.734	40.749	0.162	-0.146
-435.719	-95.818	0.251	0.067
-434.705	-105.337	-0.236	0.054
-433.690	218.096	0.056	-0.089
-432.676	274.921	-0.063	-0.112
-431.661	-126.068	0.146	-0.022
-430.646	800.000	0.124	0.346
-429.632	99.092	-0.126	0.146
-428.617	800.000	0.077	-0.231
-427.603	165.856	0.105	-0.149
-426.588	-200.000	-0.045	0.262
-425.573	83.903	-0.075	0.082
-424.559	-200.000	0.023	-0.188
-423.544	123.989	0.034	-0.043
-422.530	62.372	0.164	0.164
-421.515	-60.307	-0.106	0.045
-420.500	120.580	0.168	-0.209
-419.486	-185.773	-0.291	-0.004
-418.471	-63.038	0.356	-0.147
-417.457	4.438	-0.268	0.197
-416.442	-132.488	-0.156	0.020
-415.428	91.787	0.377	0.425
-414.413	461.367	-0.186	0.414
-413.398	209.235	0.116	-0.181
-412.384	-200.000	-0.018	0.138
-411.369	235.665	0.124	0.204
-410.355	98.291	0.270	0.311
-409.340	800.000	0.028	0.088
-408.325	-135.222	-0.139	-0.017
-407.311	-200.000	0.030	0.220
-406.296	-49.262	0.154	0.074
-405.282	-93.608	0.245	-0.068
-404.267	-200.000	-0.009	-0.156
-403.252	129.693	-0.085	0.109
-402.238	153.746	-0.088	-0.120
-401.223	-92.350	0.233	-0.066
-400.209	-144.270	-0.193	0.018
-399.194	-125.835	-0.101	-0.015
-398.179	-200.000	0.043	0.194
-397.165	-200.000	0.036	-0.215
-396.150	109.111	0.272	-0.325
-395.136	-200.000	0.038	0.193
-394.121	571.235	-0.011	0.027
-393.106	-94.013	0.283	0.078
-392.092	233.236	-0.225	-0.370
-391.077	-114.336	-0.383	0.074
-390.063	-200.000	0.021	0.161
-389.048	122.291	-0.153	0.191
-388.033	-200.000	-0.004	-0.234
-387.019	26.199	0.300	-0.251
-386.004	309.162	0.067	-0.125
-384.990	126.305	-0.134	-0.169
-383.975	-200.000	-0.011	-0.251
-382.960	43.558	0.308	-0.282
-381.946	1.197	-0.108	-0.078
-380.931	-4.187	0.194	0.134
-379.917	176.745	0.130	-0.189
-378.902	494.364	-0.092	0.210
-377.888	562.835	-0.054	0.131
-376.873	53.177	0.130	0.124
-375.858	126.473	-0.172	-0.217
-374.844	424.800	-0.047	0.101
-373.829	4.896	-0.236	0.173
-372.815	-200.000	-0.017	-0.102
-371.800	-160.853	-0.353	0.019
-370.785	-48.430	-0.251	0.121
-369.771	-108.480	0.176	0.038
-368.756	-95.246	-0.195	-0.053
-367.742	-200.000	-0.007	0.124
-366.727	-174.349	-0.137	0.004
-365.712	-159.121	-0.451	0.025
-364.698	-29.154	-0.030	-0.017
-363.683	-200.000	-0.027	-0.451
-362.669	-133.562	0.264	-0.033
-361.654	32.912	0.245	-0.212
-360.639	800.000	0.046	0.173
-359.625	800.000	-0.080	-0.321
-358.610	-83.256	0.369	0.118
-357.596	800.000	0.105	-0.390
-356.581	127.261	0.067	0.085
-355.566	623.966	0.062	-0.156
-354.552	330.072	-0.152	0.291
-353.537	28.309	0.113	-0.095
-352.523	-28.429	-0.231	-0.133
-351.508	304.735	-0.072	-0.133
-350.493	140.985	-0.129	-0.170
-349.479	-200.000	-0.024	-0.376
-348.464	56.833	-0.287	-0.279
-347.450	-200.000	0.001	0.167
-346.435	-34.889	0.309	0.169
-345.420	-49.559	-0.447	-0.212
-344.406	-102.637	0.389	-0.093
-343.391	560.812	0.130	-0.314
-342.377	168.791	-0.073	0.104
-341.362	185.603	-0.241	0.357
-340.348	-172.804	0.217	0.007
-339.333	-99.726	-0.187	0.047
-338.318	800.000	-0.079	-0.282
-337.304	-100.009	-0.218	0.054
-336.289	71.181	-0.150	-0.156
-335.275	20.905	-0.066	-0.053
-334.260	-200.000	0.008	-0.170
-333.245	33.931	0.289	0.251
-332.231	-200.000	-0.006	0.134
-331.216	60.384	0.089	0.088
-330.202	-76.521	0.208	0.073
-329.187	-200.000	-0.009	0.089
-328.172	800.000	0.084	0.322
-327.158	-133.212	0.284	-0.036
-326.143	767.233	0.070	-0.191
-325.129	-136.569	-0.216	-0.025
-324.114	590.035	-0.129	-0.316
-323.099	39.361	0.023	-0.021
-322.085	-200.000	0.009	-0.164
-321.070	-189.391	0.083	-0.001
-320.056	707.504	0.133	-0.351
-319.041	400.215	-0.061	0.127
-318.026	-169.666	-0.022	-0.001
-317.012	172.830	-0.093	-0.134
-315.997	54.641	-0.065	-0.063
-314.983	-200.000	0.007	0.111
-313.968	-12.862	0.087	0.056
-312.953	-53.609	-0.391	-0.178
-311.939	-100.791	-0.079	-0.019
-310.924	-12.438	-0.185	0.121
-309.910	24.954	0.426	-0.352
-308.895	123.929	0.020	0.025
-307.880	-144.783	-0.341	-0.031
-306.866	29.059	-0.114	-0.096
-305.851	-49.449	-0.273	0.130
-304.837	164.063	-0.080	-0.113
-303.822	32.583	0.219	0.188
-302.807	-148.334	0.178	-0.015
-301.793	43.012	-0.112	0.102
-300.778	683.835	0.135	0.352
-299.764	-60.994	-0.232	0.098
-298.749	-200.000	-0.015	0.184
-297.735	-24.713	-0.256	0.151
-296.720	-77.088	-0.074	-0.026
-295.705	-92.512	0.027	0.008
-294.691	-86.062	0.272	0.084
-293.676	800.000	-0.048	0.199
-292.662	800.000	0.045	0.158
-291.647	-140.895	-0.083	-0.009
-290.632	325.853	0.064	0.122
-289.618	-35.464	0.021	-0.011
-288.603	34.647	0.008	-0.007
-287.589	197.406	-0.012	-0.018
-286.574	80.160	0.112	-0.120
-285.559	800.000	0.062	0.210
-284.545	338.825	-0.063	0.122
-283.530	-195.115	-0.031	0.000
-282.516	-52.479	-0.175	-0.080
-281.501	-200.000	0.005	-0.345
-280.486	-13.849	0.062	0.040
-279.472	-82.696	0.334	0.107
-278.457	-152.175	-0.273	-0.020
-277.443	800.000	-0.040	-0.128
-276.428	2.747	-0.328	-0.237
-275.413	-31.219	0.236	-0.132
-274.399	236.170	-0.187	-0.307
-273.384	-14.801	0.171	-0.109
-272.370	91.279	0.212	-0.237
-271.355	162.078	0.054	-0.076
-270.340	-200.000	0.007	0.114
-269.326	800.000	-0.071	0.241
-268.311	-155.011	-0.271	-0.018
-267.297	542.839	-0.042	0.100
-266.282	99.493	0.041	0.047
-265.267	-141.702	-0.249	0.025
-264.253	-120.733	-0.138	-0.023
-263.238	-200.000	0.014	0.216
-262.224	-152.734	0.519	-0.037
-261.209	9.257	-0.270	0.203
-260.195	-99.212	-0.041	-0.010
-259.180	254.639	-0.086	-0.147
-258.165	482.469	0.094	0.212
-257.151	-200.000	-0.068	0.345
-256.136	-74.937	0.254	-0.091
-255.122	68.619	-0.028	-0.029
-254.107	67.966	-0.014	0.015
-253.092	-53.091	-0.200	0.091
-252.078	277.673	-0.102	-0.181
-251.063	405.443	-0.226	-0.474
-250.049	68.653	0.129	-0.132
-249.034	-85.674	-0.459	0.142
-248.019	-29.990	-0.128	-0.072
-247.005	-68.954	-0.093	0.036
-245.990	143.983	-0.159	-0.211
-244.976	-102.593	0.358	0.085
-243.961	-115.395	0.105	-0.020
-242.946	800.000	-0.040	-0.166
-241.932	-200.000	-0.000	0.178
-240.917	228.435	-0.027	0.044
-239.903	-200.000	-0.024	-0.130
-238.888	800.000	-0.064	0.178
-237.873	316.663	-0.208	0.390
-236.859	353.788	-0.030	0.060
-235.844	-181.699	-0.352	0.007
-234.830	-45.820	-0.266	0.131
-233.815	296.338	0.077	0.140
-232.800	-200.000	0.015	-0.105
-231.786	-0.293	-0.157	0.111
-230.771	-49.829	0.270	-0.127
-229.757	71.724	-0.163	0.169
-228.742	-200.000	-0.016	0.239
-227.727	69.261	-0.169	0.173
-226.713	-190.063	-0.142	0.002
-225.698	-200.000	-0.491	0.002
-224.684	75.460	-0.194	0.203
-223.669	-122.694	0.322	0.052
-222.655	318.683	0.037	0.069
-221.640	-200.000	0.008	-0.149
-220.625	-56.146	0.323	-0.143
-219.611	-80.073	-0.320	0.107
-218.596	-40.284	-0.016	0.008
-217.582	-185.719	0.314	-0.005
-216.567	-200.000	0.010	0.099
-215.552	35.266	0.012	0.011
-214.538	-100.337	0.068	-0.017
-213.523	-200.000	-0.002	0.026
-212.509	-200.000	0.001	0.018
-211.494	230.957	0.066	-0.107
-210.479	-200.000	0.033	-0.240
-209.465	-92.270	-0.154	0.043
-208.450	-89.944	-0.204	0.059
-207.436	-94.409	-0.123	0.033
-206.421	-60.428	0.218	-0.092
-205.406	-200.000	0.189	-0.000
-204.392	800.000	0.086	0.252
-203.377	224.216	0.127	0.203
-202.363	-34.910	0.423	-0.229
-201.348	-36.770	0.375	-0.200
-200.333	442.525	-0.172	0.373
-199.319	46.166	-0.132	0.122
-198.304	-200.000	0.049	0.355
-197.290	-200.000	-0.031	-0.322
-196.275	-44.005	-0.335	-0.167
-195.260	9.107	-0.224	0.168
-194.246	-200.000	0.008	-0.137
-193.231	-28.538	-0.241	-0.138
-192.217	17.058	-0.139	-0.110
-191.202	-6.128	0.139	0.094
-190.187	-200.000	-0.028	-0.226
-189.173	800.000	-0.074	-0.212
-188.158	454.831	0.021	-0.047
-187.144	-200.000	0.024	0.280
-186.129	67.983	-0.049	-0.050
-185.114	236.047	0.138	0.227
-184.100	16.808	0.189	-0.149
-183.085	525.273	-0.073	-0.170
-182.071	-200.000	0.001	0.092
-181.056	69.637	-0.075	-0.076
-180.042	-110.982	0.174	-0.035
-179.027	-200.000	0.026	-0.144
-178.012	547.238	-0.103	-0.245
-176.998	-200.000	0.022	0.334
-175.983	-133.589	0.122	-0.015
-174.969	-200.000	0.011	-0.195
-173.954	-200.000	0.014	-0.135
-172.939	-200.000	-0.023	0.172
-171.925	-92.496	-0.315	-0.088
-170.910	-50.934	-0.218	-0.102
-169.896	-0.041	0.102	-0.072
-168.881	252.891	-0.135	-0.228
-167.866	-200.000	-0.006	0.421
-166.852	-68.532	0.140	0.054
-165.837	54.792	0.256	0.245
-164.823	800.000	0.096	-0.312
-163.808	-16.200	0.235	-0.148
-162.793	111.595	0.107	0.127
-161.779	268.639	0.150	0.260
-160.764	189.891	0.070	0.103
-159.750	-52.869	-0.186	-0.085
-158.735	262.218	-0.101	0.173
-157.720	72.377	0.281	0.290
-156.706	-113.385	0.168	0.033
-155.691	-119.872	-0.370	0.063
-154.677	-153.221	0.348	0.024
-153.662	-200.000	-0.032	0.256
-152.647	-200.000	0.031	-0.158
-151.633	-62.793	0.197	-0.081
-150.618	28.647	-0.092	0.077
-149.604	-29.687	0.189	-0.107
-148.589	41.278	0.076	-0.068
-147.574	229.928	0.167	-0.270
-146.560	-200.000	0.019	0.225
-145.545	58.270	0.293	-0.284
-144.531	28.856	-0.316	-0.265
-143.516	-109.299	-0.331	0.069
-142.502	-80.513	0.295	0.097
-141.487	48.460	0.189	0.175
-140.472	-119.796	-0.427	-0.073
-139.458	-200.000	0.019	-0.257
-138.443	-30.840	-0.080	0.045
-137.429	477.430	-0.068	-0.153
-136.414	-88.692	0.201	-0.059
-135.399	729.948	-0.163	-0.430
-134.385	-200.000	-0.043	-0.369
-133.370	-62.882	-0.040	0.017
-132.356	-0.200	-0.092	-0.065
-131.341	800.000	0.088	-0.275
-130.326	-49.902	0.337	-0.158
-129.312	55.583	-0.061	-0.058
-128.297	-15.171	0.097	0.061
-127.283	-113.101	0.484	-0.095
-126.268	-200.000	0.009	0.228
-125.253	-200.000	0.024	-0.275
-124.239	800.000	0.057	-0.193
-123.224	34.493	-0.199	-0.172
-122.210	-48.661	-0.233	0.111
-121.195	135.218	-0.154	0.198
-120.180	59.415	0.162	-0.158
-119.166	-200.000	-0.069	0.624
-118.151	-191.562	-0.216	0.002
-117.137	-200.000	0.048	0.416
-116.122	-47.346	0.160	0.077
-115.107	800.000	0.134	-0.396
-114.093	204.066	-0.231	0.354
-113.078	-29.598	0.177	0.100
-112.064	-119.583	0.140	0.024
-111.049	-200.000	0.020	0.099
-110.034	403.223	0.152	0.316
-109.020	-143.033	-0.106	-0.010
-108.005	-101.633	0.157	0.038
-106.991	42.345	0.133	-0.120
-105.976	-2.460	-0.188	0.130
-104.962	-104.917	-0.200	0.045
-103.947	-99.160	0.098	-0.025
-102.932	-103.112	0.116	0.027
-101.918	758.071	-0.051	0.136
-100.903	228.805	-0.069	0.111
-99.889	40.665	-0.153	0.136
-98.874	-200.000	0.057	0.333
-97.859	-66.256	0.150	0.059
-96.845	-135.365	-0.298	-0.035
-95.830	-151.848	0.050	-0.004
-94.816	-200.000	0.117	0.685
-93.801	6.774	0.100	-0.074
-92.786	-61.478	-0.197	-0.082
-91.772	50.356	-0.041	-0.038
-90.757	-127.712	0.530	-0.076
-89.743	800.000	-0.079	0.238
-88.728	356.370	-0.091	-0.179
-87.713	302.840	0.070	-0.128
-86.699	14.701	0.229	0.177
-85.684	27.147	0.375	-0.311
-84.670	40.945	0.152	-0.135
-83.655	-128.257	0.218	-0.031
-82.640	-132.591	-0.065	0.008
-81.626	-63.150	0.139	-0.056
-80.611	-200.000	0.027	0.219
-79.597	380.254	0.049	-0.099
-78.582	1.943	0.080	0.057
-77.567	52.118	0.306	-0.288
-76.553	-33.848	-0.223	-0.121
-75.538	404.728	0.037	0.077
-74.524	15.398	0.121	0.094
-73.509	-96.610	0.162	0.042
-72.494	800.000	0.016	0.047
-71.480	72.790	0.322	-0.332
-70.465	-63.039	-0.188	0.077
-69.451	9.788	0.127	-0.095
-68.436	736.393	-0.127	-0.336
-67.422	-200.000	0.014	-0.063
-66.407	148.153	0.120	0.160
-65.392	313.761	-0.049	0.091
-64.378	-200.000	0.043	0.198
-63.363	-135.265	0.165	-0.020
-62.349	-66.537	0.204	0.080
-61.334	199.937	-0.752	-1.139
-60.319	-24.820	0.622	0.365
-59.305	364.853	-0.334	-0.664
-58.290	202.491	0.679	1.033
-57.276	743.339	0.689	1.827
-56.261	-200.000	96.383	564.378
-55.246	640.215	1385.571	3478.794
-54.232	187.919	2604.645	3837.727
-53.217	114.967	2307.617	2777.260
-52.203	44.069	1919.423	1735.830
-51.188	37.785	1706.665	1495.331
-50.173	34.927	1660.973	1433.855
-49.159	51.567	1709.168	1602.348
-48.144	55.017	1726.863	1645.090
-47.130	37.341	1683.658	1471.579
-46.115	34.584	1667.928	1437.048
-45.100	34.431	1663.355	1431.904
-44.086	34.309	1660.890	1428.811
-43.071	34.306	1658.340	1426.534
-42.057	34.272	1656.028	1424.233
-41.042	34.275	1653.854	1422.334
-40.027	34.409	1651.336	1421.112
-39.013	34.311	1649.355	1418.621
-37.998	34.266	1648.230	1417.263
-36.984	34.408	1646.766	1417.003
-35.969	34.442	1644.704	1415.424
-34.954	34.486	1643.852	1414.960
-33.940	34.488	1641.576	1412.959
-32.925	34.424	1639.990	1411.062
-31.911	34.445	1637.981	1409.437
-30.896	34.309	1636.819	1407.373
-29.881	34.419	1634.860	1406.446
-28.867	34.383	1633.635	1405.071
-27.852	34.404	1631.943	1403.713
-26.838	34.344	1630.242	1401.752
-25.823	34.492	1628.570	1401.349
-24.809	34.513	1627.316	1400.371
-23.794	34.477	1626.147	1399.040
-22.779	34.487	1624.597	1397.726
-21.765	34.463	1622.628	1395.802
-20.750	34.458	1620.873	1394.200
-19.736	34.438	1619.678	1392.971
-18.721	34.437	1618.735	1392.093
-17.706	34.491	1616.937	1390.891
-16.692	34.455	1614.942	1388.854
-15.677	34.483	1613.404	1387.683
-14.663	34.547	1612.163	1387.022
-13.648	34.488	1611.056	1385.585
-12.633	34.484	1609.210	1383.915
-11.619	34.518	1607.751	1382.856
-10.604	34.525	1606.368	1381.659
-9.590	34.531	1604.641	1380.162
-8.575	34.370	1603.958	1378.357
-7.560	34.394	1602.630	1377.331
-6.546	34.463	1601.443	1376.758
-5.531	34.472	1600.125	1375.632
-4.517	34.425	1598.916	1374.199
-3.502	34.435	1598.093	1373.510
-2.487	34.474	1596.501	1372.372
-1.473	34.429	1585.094	1362.188
-0.458	31.977	1566.216	1328.578
0.556	27.333	1566.532	1296.255
1.571	24.874	1590.029	1297.776
2.586	24.386	1603.894	1305.408
3.600	21.945	1551.477	1245.333
4.615	13.621	1441.467	1101.817
5.629	6.339	1376.652	1005.800
6.644	5.196	1367.991	992.124
7.659	5.056	1366.797	990.279
8.673	4.984	1365.605	988.871
9.688	4.954	1364.190	987.567
10.702	4.816	1361.775	984.859
11.717	8.303	1368.440	1011.721
12.731	16.100	1382.197	1071.540
13.746	19.770	1387.546	1098.958
14.761	18.574	1383.718	1088.245
15.775	17.319	1381.081	1078.124
16.790	16.266	1378.415	1069.276
17.804	15.608	1375.556	1062.804
18.819	15.121	1374.521	1058.832
19.834	14.803	1373.418	1055.879
20.848	14.536	1372.065	1053.063
21.863	14.316	1370.926	1050.710
22.877	14.239	1369.466	1049.012
23.892	14.159	1369.040	1048.085
24.907	14.092	1368.256	1046.975
25.921	14.155	1367.062	1046.363
26.936	14.205	1365.878	1045.678
27.950	14.330	1364.739	1045.500
28.965	14.318	1364.348	1045.033
29.980	14.380	1363.129	1044.390
30.994	14.464	1361.743	1043.763
32.009	14.465	1360.807	1042.960
33.023	14.384	1360.030	1041.769
34.038	14.373	1358.154	1040.167
35.053	14.286	1356.896	1038.569
36.067	14.371	1355.391	1037.855
37.082	14.289	1354.795	1036.798
38.096	14.425	1353.435	1036.513
39.111	14.387	1353.405	1036.160
40.126	14.331	1352.294	1034.872
41.140	14.216	1350.877	1032.977
42.155	14.053	1350.727	1031.763
43.169	14.120	1350.760	1032.115
44.184	14.064	1350.111	1031.177
45.199	14.034	1349.867	1030.714
46.213	14.245	1349.063	1031.314
47.228	14.399	1347.954	1031.331
48.242	14.329	1346.861	1029.969
49.257	14.333	1345.566	1028.914
50.271	14.298	1344.081	1027.473
51.286	14.318	1342.928	1026.619
52.301	14.250	1341.480	1025.007
53.315	14.251	1340.345	1024.053
54.330	14.176	1339.574	1022.913
55.344	14.155	1338.054	1021.531
56.359	14.215	1336.780	1020.837
57.374	14.187	1336.319	1020.222
58.388	14.075	1335.477	1018.805
59.403	13.986	1335.138	1017.913
60.417	14.126	1333.768	1017.632
61.432	14.033	1333.605	1016.851
62.447	13.972	1332.249	1015.355
63.461	13.957	1330.907	1014.146
64.476	14.102	1330.005	1014.254
65.490	14.018	1329.057	1012.929
66.505	13.982	1327.676	1011.570
67.520	14.009	1325.965	1010.342
68.534	13.907	1325.719	1009.443
69.549	13.963	1324.894	1009.064
70.563	14.076	1323.421	1008.541
71.578	13.958	1321.904	1006.578
72.593	13.981	1320.859	1005.835
73.607	13.867	1320.730	1004.961
74.622	13.861	1319.763	1004.097
75.636	13.837	1319.357	1003.554
76.651	13.819	1318.574	1002.760
77.666	13.852	1317.881	1002.347
78.680	13.930	1317.631	1002.537
79.695	13.962	1316.781	1001.991
80.709	13.994	1315.946	1001.463
81.724	14.026	1315.038	1000.877
82.739	14.210	1313.934	1001.053
83.753	14.172	1313.333	1000.276
84.768	14.368	1311.903	1000.281
85.782	14.311	1311.231	999.335
86.797	14.304	1309.993	998.259
87.812	14.173	1309.038	996.659
88.826	14.185	1307.778	995.686
89.841	14.385	1306.180	995.578
90.855	14.262	1305.705	994.389
91.870	14.207	1305.462	993.790
92.884	14.341	1303.984	993.378
93.899	14.328	1303.146	992.572
94.914	14.386	1302.399	992.258
95.928	14.518	1301.115	991.976
96.943	14.408	1300.520	990.783
97.957	14.319	1299.296	989.233
98.972	14.376	1298.273	988.708
99.987	14.388	1297.413	988.035
101.001	14.286	1296.711	986.810
102.016	14.333	1295.549	986.113
103.030	14.291	1294.611	985.064
104.045	14.278	1294.035	984.465
105.060	14.240	1292.649	983.099
106.074	14.154	1291.193	981.395
107.089	14.038	1289.521	979.353
108.103	14.089	1288.009	978.419
109.118	14.021	1287.332	977.419
110.133	14.011	1286.063	976.313
111.147	14.013	1284.559	975.096
112.162	14.154	1283.467	975.008
113.176	14.092	1282.417	973.757
114.191	14.287	1280.829	973.607
115.206	14.079	1280.372	971.959
116.220	14.186	1279.187	971.595
117.235	14.149	1277.768	970.218
118.249	14.075	1277.096	969.192
119.264	14.181	1275.721	968.676
120.279	14.056	1274.689	967.082
121.293	14.043	1273.815	966.257
122.308	14.118	1272.811	965.843
123.322	13.999	1271.858	964.347
124.337	14.040	1270.840	963.726
125.352	13.984	1269.832	962.553
126.366	14.055	1268.215	961.652
127.381	14.064	1267.560	961.123
128.395	13.983	1266.690	959.910
129.410	14.086	1265.439	959.471
130.424	14.058	1264.661	958.637
131.439	14.218	1263.570	958.644
132.454	14.163	1263.379	958.102
133.468	14.153	1261.927	956.858
134.483	14.156	1261.421	956.406
135.497	14.165	1260.219	955.461
136.512	14.201	1259.113	954.743
137.527	14.159	1257.885	953.488
138.541	14.263	1256.230	952.743
139.556	14.363	1254.551	951.959
140.570	14.271	1254.146	951.039
141.585	14.327	1252.898	950.328
142.600	14.330	1251.600	949.281
143.614	14.411	1251.033	949.228
144.629	14.414	1249.770	948.199
145.643	14.383	1248.674	947.107
146.658	14.311	1247.402	945.650
147.673	14.311	1246.038	944.535
148.687	14.272	1244.577	943.124
149.702	14.134	1243.558	941.486
150.716	14.195	1242.115	940.652
151.731	14.085	1241.198	939.256
152.746	14.204	1239.731	938.734
153.760	14.318	1238.194	938.132
154.775	14.308	1237.764	937.662
155.789	14.473	1236.412	937.484
156.804	14.364	1235.595	936.171
157.819	14.362	1234.480	935.230
158.833	14.538	1233.649	935.507
159.848	14.562	1232.516	934.698
160.862	14.544	1231.585	933.810
161.877	14.444	1230.519	932.360
162.892	14.374	1229.084	930.798
163.906	14.332	1228.696	930.187
164.921	14.339	1227.653	929.352
165.935	14.378	1227.004	928.997
166.950	14.443	1226.329	928.768
167.964	14.438	1225.378	927.937
168.979	14.356	1224.736	926.910
169.994	14.400	1223.910	926.452
171.008	14.434	1223.065	925.915
172.023	14.414	1222.340	925.177
173.037	14.570	1221.564	925.374
174.052	14.639	1220.092	924.557
175.067	14.449	1219.338	922.852
176.081	14.359	1218.703	921.791
177.096	14.463	1217.662	921.495
178.110	14.551	1216.604	921.100
179.125	14.537	1215.441	920.060
180.140	14.487	1214.265	918.812
181.154	14.590	1212.948	918.306
182.169	14.626	1211.919	917.641
183.183	14.568	1211.107	916.627
184.198	14.584	1209.667	915.541
185.213	14.669	1208.435	914.996
186.227	14.661	1207.463	914.135
187.242	14.730	1206.810	913.936
188.256	14.711	1205.531	912.782
189.271	14.838	1204.644	912.727
190.286	14.636	1203.907	910.984
191.300	14.507	1202.425	909.081
192.315	14.553	1201.694	908.696
193.329	14.383	1201.680	907.679
194.344	14.586	1200.310	907.667
195.359	14.570	1200.247	907.452
196.373	14.736	1199.591	907.782
197.388	14.733	1199.822	907.858
198.402	14.843	1198.372	907.276
199.417	14.893	1198.211	907.347
200.432	15.022	1197.363	907.323
201.446	14.949	1196.728	906.365
202.461	15.068	1195.293	905.841
203.475	15.077	1194.296	905.056
204.490	15.080	1192.877	903.916
205.504	14.888	1192.123	902.232
206.519	14.959	1190.907	901.611
207.534	14.882	1189.666	900.178
208.548	14.822	1188.742	899.078
209.563	14.831	1188.365	898.763
210.577	14.974	1187.093	898.486
211.592	15.005	1186.484	898.113
212.607	15.053	1185.500	897.545
213.621	15.122	1184.588	897.145
214.636	15.118	1183.874	896.508
215.650	15.046	1182.964	895.353
216.665	15.101	1181.940	894.794
217.680	15.127	1181.178	894.273
218.694	15.179	1180.470	893.934
219.709	15.170	1179.654	893.189
220.723	15.195	1178.555	892.411
221.738	15.088	1178.232	891.520
222.753	15.321	1177.138	891.851
223.767	15.178	1176.679	890.668
224.782	15.331	1176.194	891.031
225.796	15.383	1175.295	890.549
226.811	15.259	1174.477	889.195
227.826	15.226	1174.295	888.804
228.840	15.200	1173.611	888.064
229.855	15.219	1172.872	887.528
230.869	15.202	1171.793	886.543
231.884	15.244	1171.145	886.198
232.899	15.216	1169.998	885.106
233.913	15.311	1169.163	884.897
234.928	15.200	1168.561	883.773
235.942	15.211	1167.660	883.075
236.957	15.210	1166.917	882.428
237.972	15.212	1166.136	881.770
238.986	15.219	1165.447	881.208
240.001	15.300	1164.609	880.922
241.015	15.311	1163.881	880.352
242.030	15.289	1163.173	879.623
243.045	15.307	1162.705	879.288
244.059	15.270	1162.170	878.611
245.074	15.435	1160.842	878.392
246.088	15.410	1160.248	877.733
247.103	15.462	1159.645	877.471
248.117	15.544	1158.707	877.110
249.132	15.665	1157.894	877.053
250.147	15.711	1157.507	876.917
251.161	15.804	1156.513	876.576
252.176	15.774	1156.076	876.010
253.190	15.844	1155.399	875.783
254.205	15.804	1155.139	875.300
255.220	15.921	1154.379	875.257
256.234	15.868	1153.742	874.420
257.249	15.889	1153.096	873.963
258.263	15.857	1152.028	872.910
259.278	15.905	1151.450	872.643
260.293	16.005	1151.118	872.829
261.307	15.993	1150.774	872.429
262.322	15.931	1150.077	871.505
263.336	15.986	1149.483	871.259
264.351	15.959	1148.877	870.586
265.366	15.927	1147.977	869.663
266.380	16.080	1147.321	869.878
267.395	15.944	1146.334	868.350
268.409	15.930	1145.483	867.557
269.424	15.940	1145.338	867.420
270.439	16.003	1144.323	866.900
271.453	15.999	1143.584	866.244
272.468	15.817	1142.761	864.608
273.482	15.837	1142.436	864.390
274.497	15.908	1141.253	863.779
275.512	15.949	1140.975	863.704
276.526	15.996	1139.611	862.837
277.541	16.031	1138.740	862.281
278.555	15.964	1138.727	861.852
279.570	16.063	1138.036	861.756
280.585	16.203	1136.561	861.279
281.599	16.210	1135.778	860.643
282.614	16.154	1134.837	859.569
283.628	16.132	1133.679	858.505
284.643	16.157	1133.290	858.264
285.657	16.173	1132.146	857.399
286.672	16.177	1131.411	856.788
287.687	16.136	1130.734	855.994
288.701	16.247	1129.970	855.899
289.716	16.145	1129.082	854.636
290.730	16.191	1128.301	854.200
291.745	16.299	1127.731	854.243
292.760	16.244	1126.823	853.200
293.774	16.373	1126.574	853.587
294.789	16.325	1125.867	852.733
295.803	16.349	1125.225	852.295
296.818	16.310	1124.688	851.617
297.833	16.218	1123.868	850.457
298.847	16.148	1123.306	849.600
299.862	16.252	1122.360	849.335
300.876	16.273	1121.489	848.705
301.891	16.500	1120.641	849.129
302.906	16.415	1120.131	848.241
303.920	16.526	1119.356	848.134
304.935	16.573	1118.611	847.730
305.949	16.658	1117.893	847.536
306.964	16.767	1116.809	847.184
307.979	16.625	1116.470	846.143
308.993	16.516	1116.069	845.222
310.008	16.777	1114.935	845.592
311.022	16.569	1114.511	844.157
312.037	16.534	1114.152	843.636
313.052	16.603	1112.797	842.878
314.066	16.390	1111.842	841.022
315.081	16.400	1110.892	840.278
316.095	16.511	1109.847	839.965
317.110	16.332	1109.536	838.766
318.125	16.480	1108.591	838.710
319.139	16.469	1108.200	838.284
320.154	16.485	1107.263	837.581
321.168	16.545	1106.756	837.422
322.183	16.440	1106.474	836.612
323.197	16.585	1105.767	836.720
324.212	16.550	1104.839	835.773
325.227	16.650	1104.332	835.812
326.241	16.615	1103.518	834.946
327.256	16.593	1102.671	834.124
328.270	16.638	1101.832	833.637
329.285	16.582	1100.900	832.583
330.300	16.622	1100.068	832.078
331.314	16.661	1099.045	831.423
332.329	16.647	1098.043	830.518
333.343	16.657	1097.205	829.860
334.358	16.822	1096.497	830.061
335.373	16.678	1095.938	828.858
336.387	16.751	1094.969	828.412
337.402	16.826	1094.151	828.086
338.416	16.869	1093.504	827.731
339.431	16.827	1093.308	827.308
340.446	16.829	1092.911	826.943
341.460	17.006	1091.942	826.997
342.475	17.090	1090.884	826.532
343.489	17.086	1089.857	825.665
344.504	17.072	1089.121	824.962
345.519	17.152	1088.121	824.521
346.533	17.213	1087.455	824.241
347.548	17.175	1086.492	823.254
348.562	17.118	1086.102	822.606
349.577	17.079	1085.052	821.550
350.592	17.090	1084.097	820.811
351.606	16.944	1083.707	819.734
352.621	16.990	1082.571	819.023
353.635	16.958	1082.247	818.553
354.650	17.006	1081.669	818.274
355.665	17.119	1080.484	817.851
356.679	17.022	1080.494	817.321
357.694	17.123	1079.699	817.132
358.708	17.157	1079.188	816.834
359.723	17.148	1078.648	816.311
360.738	17.099	1078.017	815.527
361.752	17.231	1077.380	815.605
362.767	17.224	1076.720	814.999
363.781	17.173	1076.526	814.538
364.796	17.325	1075.396	814.338
365.810	17.340	1075.317	814.279
366.825	17.427	1074.528	814.023
367.840	17.374	1074.150	813.413
368.854	17.518	1073.207	813.315
369.869	17.423	1072.765	812.456
370.883	17.433	1071.633	811.574
371.898	17.353	1070.918	810.578
372.913	17.446	1070.436	810.584
373.927	17.499	1069.994	810.429
374.942	17.669	1069.376	810.698
375.956	17.544	1068.846	809.631
376.971	17.635	1068.114	809.436
377.986	17.485	1067.617	808.277
379.000	17.518	1067.535	808.301
380.015	17.613	1066.944	808.231
381.029	17.736	1066.150	808.143
382.044	17.783	1065.435	807.749
383.059	17.709	1064.667	806.745
384.073	17.674	1063.997	806.003
385.088	17.625	1063.375	805.230
386.102	17.781	1061.854	804.741
387.117	17.725	1060.974	803.739
388.132	17.619	1060.006	802.438
389.146	17.570	1059.190	801.518
390.161	17.617	1058.931	801.471
391.175	17.683	1057.681	800.762
392.190	17.770	1057.215	800.751
393.205	17.771	1056.686	800.279
394.219	17.721	1055.993	799.451
395.234	17.836	1054.339	798.667
396.248	17.761	1053.555	797.653
397.263	17.698	1052.938	796.819
398.278	17.624	1052.084	795.757
399.292	17.673	1051.371	795.377
400.307	17.606	1050.959	794.679
401.321	17.633	1050.223	794.180
402.336	17.648	1049.751	793.823
403.350	17.655	1048.810	793.073
404.365	17.615	1048.521	792.598
405.380	17.759	1047.406	792.354
406.394	17.846	1046.667	792.129
407.409	17.819	1046.226	791.600
408.423	18.054	1045.008	791.698
409.438	18.035	1044.653	791.272
410.453	18.018	1044.172	790.760
411.467	18.027	1043.548	790.260
412.482	18.162	1042.395	789.939
413.496	18.049	1041.849	788.935
414.511	18.151	1041.441	789.025
415.526	18.145	1041.275	788.802
416.540	18.173	1040.644	788.383
417.555	18.275	1039.953	788.259
418.569	18.137	1039.453	787.173
419.584	18.044	1039.590	786.781
420.599	18.236	1038.814	787.007
421.613	147.561	1400.068	1790.186
422.628	134.846	1452.704	1790.290
