DTS Sentinel unit serial number:	SN413079Multiplexer serial number:	ORYXHardware model number:	OX4-SRSoftware version number:	ORYX F/W v4.00 Oryx Data Collector v3.7.2.0data status	okinstallation	princeton_trtdifferential loss correction	single-endedforward channel	channel 2reverse channel	N/Adate	2019/09/15time	13:35:35forward acquisition time	60.00reverse acquisition time	0.00gamma	496.2192k internal	0.2305k external	0.2305temperature offset calibration	0.9987default loss term (dB/km)	0.3790temperature slope calibration	1.0000multiplexer offset coefficient	1.0000multiplexer slope coefficient	1.0000fibre end	0.00T internal ref (°C)	37.73T ext. ref 1 (°C)	4.83T ext. ref 2 (°C)	35.01length (m)	temperature (°C)	Stokes	anti-Stokes-747.200	-156.835	-0.425	0.027
-746.185	-200.000	0.089	0.410
-745.171	800.000	-0.073	-0.224
-744.156	-116.101	0.258	-0.049
-743.142	-49.741	0.093	-0.045
-742.127	-200.000	-0.070	0.412
-741.112	583.264	-0.192	0.480
-740.098	800.000	-0.102	0.304
-739.083	530.679	-0.067	-0.162
-738.069	800.000	0.069	-0.220
-737.054	-25.553	-0.284	0.171
-736.039	800.000	-0.027	-0.102
-735.025	31.170	0.206	0.180
-734.010	230.103	-0.132	-0.220
-732.996	338.579	-0.032	-0.064
-731.981	144.354	-0.155	-0.211
-730.966	-200.000	0.119	-0.564
-729.952	-200.000	0.003	-0.032
-728.937	-90.812	0.245	-0.072
-727.923	800.000	0.076	0.254
-726.908	-200.000	0.063	0.317
-725.894	494.468	0.193	-0.452
-724.879	800.000	0.111	-0.467
-723.864	51.665	0.157	-0.151
-722.850	70.328	0.147	-0.154
-721.835	3.809	-0.192	0.143
-720.821	-111.757	-0.278	-0.057
-719.806	-164.442	0.227	-0.011
-718.791	800.000	-0.099	-0.341
-717.777	-103.664	-0.442	-0.105
-716.762	208.624	-0.045	0.071
-715.748	168.922	-0.167	-0.242
-714.733	118.589	-0.106	-0.133
-713.718	800.000	0.072	-0.207
-712.704	83.148	-0.143	0.158
-711.689	69.311	-0.128	0.134
-710.675	-155.348	-0.095	-0.006
-709.660	39.799	-0.195	-0.178
-708.645	-162.682	0.236	-0.012
-707.631	95.549	-0.107	-0.124
-706.616	22.592	-0.297	0.247
-705.602	74.123	0.085	-0.091
-704.587	-47.602	-0.408	0.201
-703.572	-142.496	-0.138	-0.014
-702.558	24.683	-0.059	-0.050
-701.543	-65.083	-0.240	-0.099
-700.529	78.440	0.198	-0.215
-699.514	-200.000	-0.059	-0.321
-698.499	58.201	-0.083	-0.083
-697.485	-37.589	-0.302	-0.164
-696.470	189.519	-0.128	0.195
-695.456	-16.950	-0.179	-0.115
-694.441	-82.798	-0.089	0.029
-693.426	-24.125	0.343	-0.208
-692.412	421.758	-0.045	0.099
-691.397	-104.153	-0.377	0.089
-690.383	-200.000	-0.018	-0.086
-689.368	405.762	0.035	0.076
-688.354	-92.865	-0.258	0.073
-687.339	9.538	-0.122	-0.094
-686.324	-102.211	-0.331	0.081
-685.310	88.280	0.048	0.055
-684.295	334.997	0.090	0.178
-683.281	75.069	-0.079	-0.085
-682.266	202.767	0.061	0.096
-681.251	-200.000	-0.030	0.269
-680.237	-15.485	0.350	-0.227
-679.222	-51.066	-0.252	-0.120
-678.208	188.023	-0.100	-0.151
-677.193	35.713	0.165	-0.147
-676.178	-94.401	-0.182	-0.050
-675.164	-200.000	-0.013	0.140
-674.149	-32.597	-0.382	-0.216
-673.135	109.066	-0.243	-0.295
-672.120	342.699	0.123	-0.245
-671.105	-162.631	0.166	-0.008
-670.091	-200.000	0.007	-0.212
-669.076	130.934	0.210	-0.273
-668.062	264.384	-0.056	0.099
-667.047	-82.124	-0.018	-0.006
-666.032	-200.000	-0.063	-0.461
-665.018	48.384	-0.094	-0.089
-664.003	-100.633	-0.281	0.070
-662.989	56.195	0.186	0.183
-661.974	-200.000	-0.014	0.123
-660.959	456.725	-0.088	-0.197
-659.945	-183.297	-0.289	0.005
-658.930	-167.846	-0.201	0.008
-657.916	-200.000	0.005	0.103
-656.901	61.963	-0.249	-0.252
-655.886	63.071	-0.174	-0.177
-654.872	135.561	-0.133	0.175
-653.857	-165.916	0.214	0.009
-652.843	-12.824	-0.116	-0.077
-651.828	417.243	-0.021	0.045
-650.814	299.247	0.127	-0.236
-649.799	98.540	-0.230	0.269
-648.784	-200.000	-0.013	-0.077
-647.770	44.417	-0.277	-0.258
-646.755	-76.885	-0.098	0.035
-645.741	-200.000	0.035	-0.162
-644.726	-114.333	-0.125	0.024
-643.711	-55.255	-0.228	0.104
-642.697	309.252	-0.203	-0.385
-641.682	-2.223	0.201	-0.143
-640.668	-182.572	-0.047	-0.001
-639.653	135.716	-0.317	-0.419
-638.638	-78.875	0.099	-0.034
-637.624	-200.000	-0.011	0.138
-636.609	800.000	0.058	-0.223
-635.595	54.414	-0.139	0.135
-634.580	-95.696	0.145	0.039
-633.565	-200.000	0.013	-0.266
-632.551	105.251	-0.192	0.230
-631.536	-46.770	0.171	-0.085
-630.522	-21.158	-0.252	-0.156
-629.507	-25.455	-0.292	-0.175
-628.492	745.678	0.170	-0.463
-627.478	-18.622	-0.250	0.158
-626.463	-3.862	0.056	-0.040
-625.449	-98.910	-0.101	-0.026
-624.434	3.491	-0.213	0.157
-623.419	730.517	0.066	-0.180
-622.405	74.565	-0.242	-0.258
-621.390	237.670	0.096	-0.162
-620.376	-74.096	-0.106	-0.039
-619.361	168.289	-0.113	0.163
-618.346	800.000	-0.054	0.170
-617.332	31.757	-0.318	0.277
-616.317	-63.895	-0.116	0.048
-615.303	-184.956	0.070	0.001
-614.288	800.000	0.038	0.147
-613.273	-20.159	-0.252	0.157
-612.259	-3.117	0.312	-0.221
-611.244	-0.193	-0.126	-0.091
-610.230	15.169	-0.250	-0.199
-609.215	-200.000	-0.010	-0.139
-608.201	49.714	0.179	-0.171
-607.186	-38.042	0.266	-0.143
-606.171	303.708	0.111	-0.208
-605.157	-53.332	0.111	0.052
-604.142	302.011	-0.162	0.302
-603.128	-200.000	-0.086	-0.411
-602.113	3.143	-0.124	-0.092
-601.098	97.261	-0.267	-0.310
-600.084	28.402	-0.134	-0.115
-599.069	-140.234	-0.288	0.030
-598.055	-152.359	0.320	0.023
-597.040	797.137	0.118	-0.330
-596.025	-200.000	0.015	-0.256
-595.011	39.311	0.132	-0.120
-593.996	276.796	0.062	0.111
-592.982	31.378	-0.128	0.111
-591.967	800.000	-0.064	-0.199
-590.952	800.000	-0.096	-0.369
-589.938	22.697	0.314	-0.260
-588.923	-44.328	0.249	0.126
-587.909	-18.775	-0.225	-0.142
-586.894	56.675	-0.213	0.210
-585.879	-112.455	-0.098	-0.020
-584.865	-200.000	-0.068	0.369
-583.850	526.804	0.092	0.220
-582.836	567.212	0.034	-0.082
-581.821	800.000	-0.081	-0.273
-580.806	-65.102	-0.331	-0.135
-579.792	155.223	0.234	0.325
-578.777	24.021	0.227	0.189
-577.763	-101.283	0.302	0.075
-576.748	153.904	-0.085	-0.118
-575.733	-200.000	-0.023	-0.241
-574.719	-188.170	0.352	0.005
-573.704	360.270	-0.143	-0.289
-572.690	56.860	0.182	0.179
-571.675	101.783	0.034	-0.040
-570.661	-112.129	-0.387	0.079
-569.646	-54.813	0.153	0.070
-568.631	-200.000	-0.060	0.269
-567.617	-200.000	-0.030	0.256
-566.602	-200.000	-0.083	-0.400
-565.588	148.817	0.067	-0.091
-564.573	-90.019	-0.216	-0.064
-563.558	-66.273	-0.162	-0.065
-562.544	800.000	0.078	0.268
-561.529	-78.313	-0.341	-0.118
-560.515	559.930	0.026	0.063
-559.500	-200.000	-0.028	0.177
-558.485	103.603	0.168	0.199
-557.471	-22.163	0.111	0.068
-556.456	228.849	0.316	-0.521
-555.442	136.084	-0.155	-0.204
-554.427	-60.988	0.010	-0.004
-553.412	800.000	0.066	0.215
-552.398	54.444	-0.090	0.087
-551.383	32.545	0.194	-0.169
-550.369	-54.271	0.168	0.077
-549.354	-92.786	0.042	0.012
-548.339	452.604	-0.025	0.055
-547.325	-200.000	-0.154	0.000
-546.310	68.588	0.175	0.181
-545.296	-152.723	0.142	-0.010
-544.281	-130.755	-0.159	-0.022
-543.266	-30.265	-0.236	-0.135
-542.252	800.000	0.107	-0.324
-541.237	-162.223	-0.264	-0.013
-540.223	-200.000	0.004	0.090
-539.208	157.341	-0.150	-0.209
-538.193	104.962	0.088	-0.105
-537.179	-120.373	-0.258	0.044
-536.164	36.167	0.222	0.197
-535.150	-200.000	-0.034	0.227
-534.135	48.223	-0.276	-0.260
-533.121	-9.416	-0.244	-0.165
-532.106	69.118	-0.212	0.220
-531.091	800.000	0.061	-0.213
-530.077	800.000	0.112	-0.456
-529.062	362.169	-0.049	0.099
-528.048	-82.684	-0.269	0.088
-527.033	-109.940	0.130	0.027
-526.018	124.743	-0.102	0.129
-525.004	-200.000	-0.061	0.439
-523.989	800.000	-0.034	-0.115
-522.975	21.753	-0.072	0.059
-521.960	135.893	-0.327	0.430
-520.945	800.000	-0.059	0.219
-519.931	-200.000	-0.055	0.366
-518.916	-35.905	-0.114	0.062
-517.902	-200.000	0.069	0.333
-516.887	128.112	0.103	0.132
-515.872	297.113	0.207	0.384
-514.858	800.000	-0.060	-0.231
-513.843	-61.037	0.367	-0.156
-512.829	-56.776	0.286	0.128
-511.814	-135.124	0.129	0.016
-510.799	-187.708	-0.077	-0.001
-509.785	31.134	0.216	-0.187
-508.770	-138.726	-0.278	-0.031
-507.756	-111.900	-0.223	-0.045
-506.741	-81.128	-0.110	-0.037
-505.726	-200.000	-0.069	0.363
-504.712	-35.419	-0.185	-0.101
-503.697	-128.178	0.214	-0.031
-502.683	640.980	-0.035	0.091
-501.668	-70.345	0.318	-0.122
-500.653	-200.000	0.026	-0.348
-499.639	782.715	-0.027	-0.074
-498.624	-28.930	0.292	-0.169
-497.610	-200.000	0.003	0.129
-496.595	30.811	0.279	-0.241
-495.581	-200.000	0.072	-0.431
-494.566	31.172	0.107	0.092
-493.551	-146.669	0.055	0.005
-492.537	97.979	0.262	-0.304
-491.522	267.541	0.211	-0.372
-490.508	-200.000	-0.008	0.145
-489.493	-32.966	-0.203	0.113
-488.478	50.426	-0.171	-0.163
-487.464	-200.000	0.073	-0.349
-486.449	-99.176	0.254	-0.065
-485.435	-200.000	0.042	0.254
-484.420	-200.000	-0.100	0.562
-483.405	-61.022	0.195	-0.083
-482.391	-42.726	-0.062	-0.032
-481.376	-96.164	-0.208	-0.056
-480.362	58.912	0.162	0.160
-479.347	-200.000	0.001	0.224
-478.332	-70.055	-0.149	0.057
-477.318	-55.286	0.231	0.104
-476.303	-11.666	0.241	0.159
-475.289	-16.912	-0.130	0.083
-474.274	15.104	0.156	0.123
-473.259	229.495	0.100	0.164
-472.245	-200.000	-0.011	0.195
-471.230	-6.734	-0.242	0.166
-470.216	57.069	-0.233	-0.229
-469.201	-124.446	0.235	0.037
-468.186	-79.971	0.123	0.042
-467.172	-200.000	0.054	0.248
-466.157	36.004	0.255	-0.226
-465.143	-200.000	0.070	0.312
-464.128	659.163	-0.246	0.636
-463.113	1.363	-0.051	0.037
-462.099	-200.000	0.000	-0.058
-461.084	-135.775	-0.342	-0.041
-460.070	-200.000	0.009	-0.088
-459.055	14.508	0.031	0.024
-458.040	800.000	-0.062	0.230
-457.026	-44.199	0.193	-0.098
-456.011	-200.000	-0.001	-0.179
-454.997	800.000	0.021	-0.075
-453.982	-75.638	-0.268	-0.096
-452.968	0.050	0.292	-0.210
-451.953	-200.000	0.035	-0.232
-450.938	-83.856	0.391	0.125
-449.924	-39.312	0.084	0.044
-448.909	10.599	-0.201	0.154
-447.895	-47.010	0.146	0.072
-446.880	-149.040	-0.226	-0.018
-445.865	-200.000	-0.025	-0.205
-444.851	-17.924	0.191	-0.121
-443.836	0.892	-0.387	0.279
-442.822	800.000	0.070	-0.280
-441.807	-200.000	0.067	-0.359
-440.792	53.707	-0.274	-0.264
-439.778	-52.518	0.095	-0.044
-438.763	-38.367	-0.244	0.130
-437.749	-125.691	-0.271	0.041
-436.734	800.000	-0.069	-0.205
-435.719	511.609	-0.045	0.106
-434.705	-200.000	0.014	0.275
-433.690	-63.303	-0.160	0.066
-432.676	12.734	-0.142	0.110
-431.661	-40.088	0.084	-0.044
-430.646	-200.000	-0.013	-0.084
-429.632	160.284	0.066	-0.092
-428.617	2.727	-0.134	-0.098
-427.603	-141.085	-0.219	0.023
-426.588	-26.291	0.095	0.056
-425.573	604.818	0.052	-0.130
-424.559	-147.845	0.319	0.027
-423.544	-101.340	0.348	0.085
-422.530	129.792	0.245	0.315
-421.515	800.000	-0.076	-0.304
-420.500	-128.919	0.214	-0.030
-419.486	241.864	0.098	0.164
-418.471	-75.018	0.163	0.059
-417.457	-200.000	0.004	-0.251
-416.442	248.327	-0.065	-0.111
-415.428	-8.685	-0.139	0.094
-414.413	-115.971	0.118	0.022
-413.398	-30.591	-0.341	0.194
-412.384	-14.175	0.343	-0.222
-411.369	232.909	-0.092	0.152
-410.355	18.256	0.259	0.207
-409.340	-200.000	-0.010	-0.488
-408.325	-47.274	0.058	-0.028
-407.311	-91.937	-0.158	-0.045
-406.296	-9.601	0.096	-0.064
-405.282	-28.334	0.050	-0.029
-404.267	-129.927	-0.126	-0.017
-403.252	17.101	0.164	-0.130
-402.238	-82.382	-0.076	-0.025
-401.223	154.251	-0.241	0.332
-400.209	-108.232	0.213	-0.046
-399.194	594.961	-0.033	0.082
-398.179	128.304	0.127	0.162
-397.165	505.442	0.090	-0.209
-396.150	82.099	0.088	0.096
-395.136	230.564	-0.115	0.189
-394.121	800.000	0.067	-0.247
-393.106	352.370	0.175	0.347
-392.092	800.000	0.085	-0.315
-391.077	-120.132	-0.435	-0.075
-390.063	-200.000	0.050	0.370
-389.048	-95.563	-0.361	0.097
-388.033	-200.000	0.027	-0.377
-387.019	800.000	0.017	-0.067
-386.004	-71.096	0.222	0.084
-384.990	-16.611	0.090	0.057
-383.975	-127.631	-0.429	0.062
-382.960	-200.000	-0.044	0.305
-381.946	45.177	0.171	0.158
-380.931	-169.061	-0.032	0.001
-379.917	246.477	-0.132	-0.223
-378.902	169.862	0.098	-0.141
-377.888	118.508	-0.161	0.199
-376.873	-35.380	-0.216	-0.118
-375.858	-52.244	-0.120	0.056
-374.844	-47.098	-0.043	0.021
-373.829	-65.890	0.155	-0.062
-372.815	-153.378	-0.113	0.008
-371.800	583.531	-0.173	0.425
-370.785	39.083	0.075	0.068
-369.771	62.552	-0.117	0.117
-368.756	39.441	-0.114	0.103
-367.742	-82.437	-0.134	-0.044
-366.727	36.766	-0.114	-0.101
-365.712	578.838	-0.117	0.286
-364.698	-46.644	0.132	0.065
-363.683	12.939	0.310	-0.241
-362.669	-141.413	-0.379	-0.039
-361.654	157.411	0.078	-0.108
-360.639	-43.539	0.082	0.041
-359.625	-53.626	0.134	-0.061
-358.610	800.000	0.007	0.019
-357.596	-52.689	0.155	0.072
-356.581	-110.802	-0.382	-0.079
-355.566	232.032	-0.109	0.179
-354.552	450.604	0.155	0.344
-353.537	800.000	-0.041	-0.161
-352.523	33.440	-0.126	0.110
-351.508	-98.675	-0.119	-0.030
-350.493	-137.741	0.051	-0.006
-349.479	-129.573	0.140	-0.019
-348.464	34.980	0.134	-0.117
-347.450	0.477	0.162	-0.116
-346.435	4.948	0.280	-0.206
-345.420	311.583	0.078	0.147
-344.406	48.027	-0.169	0.158
-343.391	800.000	0.135	0.387
-342.377	-56.947	0.252	0.112
-341.362	95.980	0.069	0.079
-340.348	-200.000	-0.049	-0.358
-339.333	215.014	0.135	0.214
-338.318	89.361	0.033	-0.037
-337.304	-36.526	-0.222	-0.120
-336.289	348.289	0.085	-0.167
-335.275	-200.000	0.000	0.024
-334.260	800.000	-0.112	-0.401
-333.245	-157.595	-0.385	-0.023
-332.231	-179.892	0.443	0.010
-331.216	-200.000	-0.025	0.205
-330.202	-200.000	-0.024	0.108
-329.187	-200.000	-0.011	-0.292
-328.172	-200.000	0.078	0.380
-327.158	800.000	-0.033	-0.127
-326.143	480.582	-0.095	0.215
-325.129	-75.406	0.046	0.016
-324.114	31.401	0.083	0.071
-323.099	-200.000	-0.022	0.129
-322.085	-62.368	-0.154	-0.064
-321.070	456.593	0.126	0.281
-320.056	116.794	-0.052	0.063
-319.041	37.518	-0.162	0.144
-318.026	-40.303	-0.290	0.151
-317.012	-44.229	0.062	-0.031
-315.997	238.333	0.147	-0.244
-314.983	-83.717	0.247	0.079
-313.968	-200.000	-0.014	0.269
-312.953	-37.098	-0.185	0.099
-311.939	-168.370	0.282	0.011
-310.924	10.159	0.030	0.023
-309.910	27.853	0.252	-0.213
-308.895	74.462	-0.159	-0.167
-307.880	488.255	0.070	0.159
-306.866	63.502	0.082	-0.082
-305.851	-200.000	-0.018	0.146
-304.837	6.172	-0.236	0.175
-303.822	-62.262	0.170	0.071
-302.807	181.045	0.079	-0.116
-301.793	121.636	-0.138	0.172
-300.778	-161.425	-0.105	0.005
-299.764	-161.051	0.167	-0.009
-298.749	-31.557	0.322	0.181
-297.735	135.228	0.119	-0.154
-296.720	34.221	-0.125	-0.109
-295.705	-38.719	-0.271	-0.143
-294.691	229.872	-0.129	0.211
-293.676	-200.000	0.039	-0.273
-292.662	-73.247	-0.200	-0.073
-291.647	800.000	-0.036	-0.108
-290.632	415.518	0.037	-0.079
-289.618	-21.732	-0.192	0.117
-288.603	759.685	0.098	0.266
-287.589	62.857	0.118	-0.118
-286.574	8.272	0.155	-0.117
-285.559	-14.423	0.114	-0.074
-284.545	800.000	0.018	-0.063
-283.530	800.000	0.013	0.055
-282.516	15.801	-0.186	-0.146
-281.501	155.747	0.069	0.095
-280.486	11.104	-0.244	-0.186
-279.472	-156.232	0.154	0.010
-278.457	-144.715	-0.128	0.012
-277.443	161.374	-0.110	0.153
-276.428	561.086	-0.145	-0.351
-275.413	488.835	0.079	0.181
-274.399	-35.020	-0.357	0.195
-273.384	-113.820	-0.461	0.090
-272.370	701.222	0.045	0.119
-271.355	537.246	0.058	0.137
-270.340	233.632	-0.123	0.202
-269.326	-200.000	-0.021	0.372
-268.311	43.473	-0.099	0.091
-267.297	-154.295	-0.117	0.008
-266.282	63.979	0.007	-0.007
-265.267	800.000	-0.033	-0.103
-264.253	800.000	0.046	0.170
-263.238	-111.850	0.171	-0.035
-262.224	-113.573	0.215	0.042
-261.209	-109.064	-0.234	0.050
-260.195	155.048	-0.070	0.096
-259.180	147.192	0.203	-0.273
-258.165	-141.107	0.134	-0.014
-257.151	800.000	-0.018	-0.070
-256.136	-138.849	-0.287	0.031
-255.122	-93.953	0.161	-0.044
-254.107	-147.625	-0.310	-0.026
-253.092	3.594	-0.103	-0.075
-252.078	258.481	0.075	0.128
-251.063	-200.000	0.006	0.167
-250.049	-111.853	0.047	0.009
-249.034	-63.227	0.159	-0.065
-248.019	-133.417	-0.206	-0.026
-247.005	800.000	0.112	-0.328
-245.990	-37.788	-0.145	-0.077
-244.976	-200.000	-0.029	-0.341
-243.961	-193.561	-0.183	0.002
-242.946	-49.235	0.071	0.034
-241.932	-200.000	0.001	0.113
-240.917	-200.000	-0.006	-0.221
-239.903	115.246	-0.171	-0.208
-238.888	-105.871	-0.036	0.008
-237.873	800.000	-0.060	-0.248
-236.859	107.229	0.070	0.083
-235.844	-200.000	0.014	-0.240
-234.830	10.837	0.132	-0.101
-233.815	219.047	0.130	-0.208
-232.800	199.205	-0.074	0.113
-231.786	-165.109	0.259	-0.011
-230.771	-116.582	0.102	0.019
-229.757	13.492	-0.179	0.139
-228.742	800.000	-0.063	0.235
-227.727	263.603	-0.137	0.237
-226.713	-124.310	0.383	-0.060
-225.698	-94.254	-0.196	0.053
-224.684	-43.250	-0.106	0.054
-223.669	-154.222	-0.076	-0.005
-222.655	-2.771	0.298	-0.208
-221.640	42.482	-0.071	-0.064
-220.625	-62.063	0.258	-0.107
-219.611	-200.000	-0.062	-0.284
-218.596	113.154	0.223	0.270
-217.582	-38.645	-0.036	-0.019
-216.567	-120.573	0.229	-0.039
-215.552	74.290	-0.099	-0.104
-214.538	302.573	0.080	0.148
-213.523	-200.000	-0.006	-0.296
-212.509	51.573	-0.058	-0.055
-211.494	216.406	0.124	0.197
-210.479	-92.928	0.219	-0.061
-209.465	489.523	0.092	-0.210
-208.450	788.223	0.042	-0.115
-207.436	5.310	-0.128	0.094
-206.421	-66.482	-0.365	-0.145
-205.406	-200.000	-0.047	-0.260
-204.392	533.644	0.215	0.508
-203.377	-148.945	-0.119	0.010
-202.363	160.010	0.154	0.214
-201.348	-90.617	0.205	-0.059
-200.333	-11.158	0.176	0.115
-199.319	-180.538	0.190	-0.004
-198.304	800.000	-0.014	0.053
-197.290	140.260	0.179	-0.235
-196.275	-15.091	0.060	-0.038
-195.260	6.504	0.031	0.023
-194.246	800.000	-0.096	0.284
-193.231	-200.000	0.018	0.250
-192.217	-18.524	0.389	0.242
-191.202	-99.536	0.301	0.075
-190.187	659.265	0.086	0.221
-189.173	-200.000	-0.016	0.266
-188.158	-102.677	0.226	-0.054
-187.144	436.956	0.158	-0.342
-186.129	-200.000	0.051	0.290
-185.114	-135.132	-0.165	-0.020
-184.100	166.115	-0.155	0.218
-183.085	44.713	-0.082	-0.075
-182.071	136.234	-0.200	0.260
-181.056	26.190	-0.107	0.089
-180.042	-162.751	0.353	-0.017
-179.027	206.208	0.156	0.242
-178.012	89.061	-0.207	-0.230
-176.998	200.898	-0.205	-0.314
-175.983	-117.362	-0.112	0.020
-174.969	180.201	0.128	-0.188
-173.954	-103.440	0.232	-0.054
-172.939	-73.871	0.306	0.111
-171.925	-200.000	-0.031	0.277
-170.910	-77.522	0.296	0.102
-169.896	-200.000	0.052	-0.260
-168.881	50.817	0.317	0.298
-167.866	-73.484	-0.073	-0.027
-166.852	-104.863	0.060	0.014
-165.837	-116.406	0.138	0.025
-164.823	-131.190	0.166	-0.022
-163.808	-3.884	-0.320	-0.221
-162.793	-98.077	0.298	-0.076
-161.779	-60.428	0.085	-0.036
-160.764	-93.564	-0.317	-0.087
-159.750	800.000	-0.080	0.265
-158.735	50.503	0.172	-0.162
-157.720	78.791	-0.114	-0.122
-156.706	-200.000	-0.000	-0.022
-155.691	-8.043	0.223	0.149
-154.677	268.892	-0.103	-0.181
-153.662	-136.371	-0.097	0.011
-152.647	44.167	0.248	0.226
-151.633	-121.229	0.131	-0.022
-150.618	-84.905	-0.215	0.067
-149.604	800.000	-0.068	0.211
-148.589	-70.654	0.276	-0.104
-147.574	-78.634	-0.106	0.036
-146.560	-26.079	-0.366	0.214
-145.545	-2.572	-0.291	0.203
-144.531	71.388	0.109	0.112
-143.516	32.126	0.178	-0.153
-142.502	800.000	0.067	-0.246
-141.487	181.738	-0.211	-0.308
-140.472	800.000	0.071	-0.199
-139.458	279.836	0.122	-0.216
-138.443	-200.000	-0.001	0.244
-137.429	-28.969	0.064	-0.037
-136.414	800.000	0.097	0.353
-135.399	-200.000	0.024	0.408
-134.385	65.173	0.040	-0.040
-133.370	-52.030	-0.166	-0.077
-132.356	-160.118	-0.419	-0.023
-131.341	97.026	-0.042	0.048
-130.326	-200.000	0.027	0.129
-129.312	706.440	-0.038	0.099
-128.297	24.841	-0.036	-0.030
-127.283	-200.000	-0.029	-0.297
-126.268	-118.931	-0.202	0.035
-125.253	55.224	0.080	0.077
-124.239	-52.132	0.322	-0.149
-123.224	-200.000	0.005	-0.327
-122.210	-200.000	0.020	0.389
-121.195	-160.572	0.199	0.011
-120.180	180.929	0.150	-0.219
-119.166	37.260	-0.338	-0.297
-118.151	350.888	0.063	-0.124
-117.137	-148.748	0.186	-0.015
-116.122	-200.000	0.013	-0.137
-115.107	139.958	0.034	-0.044
-114.093	26.127	0.137	0.113
-113.078	-108.164	0.039	-0.008
-112.064	-131.746	0.104	-0.014
-111.049	-200.000	0.009	0.175
-110.034	800.000	0.109	-0.302
-109.020	-200.000	0.020	0.289
-108.005	-192.174	0.306	0.003
-106.991	-102.235	-0.194	0.046
-105.976	412.080	-0.176	0.372
-104.962	-124.122	-0.241	0.038
-103.947	171.197	0.097	-0.138
-102.932	-89.464	0.158	-0.046
-101.918	223.025	0.077	0.123
-100.903	157.407	-0.062	0.085
-99.889	110.893	0.197	-0.235
-98.874	-200.000	-0.028	-0.136
-97.859	120.194	-0.260	0.320
-96.845	-88.385	0.288	0.085
-95.830	800.000	0.007	0.029
-94.816	-200.000	0.011	0.113
-93.801	800.000	0.026	0.111
-92.786	-57.755	-0.250	-0.109
-91.772	-105.878	-0.251	-0.056
-90.757	-148.779	0.221	0.018
-89.743	800.000	0.011	-0.039
-88.728	111.745	0.069	-0.083
-87.713	-160.005	-0.223	-0.012
-86.699	-200.000	0.067	-0.371
-85.684	92.224	-0.073	-0.081
-84.670	9.993	-0.203	-0.153
-83.655	-181.846	-0.145	0.003
-82.640	-135.206	-0.217	0.026
-81.626	-169.152	0.305	0.011
-80.611	-130.447	0.284	0.038
-79.597	299.208	0.119	0.217
-78.582	-200.000	0.041	0.199
-77.567	800.000	-0.035	-0.150
-76.553	-93.657	0.266	0.073
-75.538	-2.063	-0.103	0.072
-74.524	-118.224	-0.232	-0.041
-73.509	-200.000	0.076	0.345
-72.494	-71.430	0.162	0.060
-71.480	-9.600	-0.124	-0.082
-70.465	800.000	0.062	-0.185
-69.451	-56.137	0.306	0.135
-68.436	110.531	-0.138	0.165
-67.422	618.080	0.054	-0.135
-66.407	-200.000	-0.009	-0.228
-65.392	800.000	0.077	0.292
-64.378	-36.870	0.210	0.112
-63.363	30.922	-0.098	0.083
-62.349	-91.409	-0.371	-0.105
-61.334	36.098	-0.839	-0.732
-60.319	-99.616	0.336	0.084
-59.305	800.000	-0.268	-0.764
-58.290	461.360	0.361	0.797
-57.276	485.822	0.692	1.563
-56.261	-200.000	84.764	502.772
-55.246	523.972	1394.798	3249.013
-54.232	181.935	2621.047	3823.859
-53.217	112.729	2364.126	2836.294
-52.203	46.524	1968.687	1809.586
-51.188	40.856	1754.279	1567.883
-50.173	38.140	1709.339	1506.740
-49.159	52.858	1749.336	1656.992
-48.144	56.496	1768.044	1703.016
-47.130	40.899	1728.348	1544.802
-46.115	37.853	1713.925	1508.327
-45.100	37.657	1709.359	1502.731
-44.086	37.610	1706.565	1499.857
-43.071	37.622	1703.877	1497.522
-42.057	37.600	1701.776	1495.447
-41.042	37.525	1699.592	1492.897
-40.027	37.556	1697.594	1491.318
-39.013	37.580	1695.371	1489.492
-37.998	37.537	1694.150	1488.034
-36.984	37.698	1692.649	1487.881
-35.969	37.728	1691.259	1486.831
-34.954	37.762	1689.110	1485.141
-33.940	37.689	1687.642	1483.240
-32.925	37.725	1685.617	1481.672
-31.911	37.786	1683.933	1480.595
-30.896	37.738	1682.348	1478.776
-29.881	37.668	1680.662	1476.705
-28.867	37.763	1679.206	1476.092
-27.852	37.774	1677.774	1474.853
-26.838	37.766	1676.126	1473.286
-25.823	37.755	1674.798	1471.977
-24.809	37.728	1673.671	1470.729
-23.794	37.658	1672.021	1468.687
-22.779	37.740	1670.259	1467.704
-21.765	37.716	1669.034	1466.385
-20.750	37.713	1666.670	1464.231
-19.736	37.711	1665.472	1463.102
-18.721	37.804	1664.184	1462.614
-17.706	37.706	1662.771	1460.574
-16.692	37.766	1661.359	1459.731
-15.677	37.837	1659.763	1458.802
-14.663	37.899	1658.484	1458.083
-13.648	37.845	1656.986	1456.301
-12.633	37.767	1655.810	1454.630
-11.619	37.750	1653.640	1452.542
-10.604	37.739	1652.075	1451.025
-9.590	37.803	1650.584	1450.136
-8.575	37.716	1649.630	1448.590
-7.560	37.808	1648.143	1447.912
-6.546	37.737	1647.111	1446.419
-5.531	37.817	1646.022	1445.997
-4.517	37.690	1645.153	1444.235
-3.502	37.779	1643.683	1443.552
-2.487	37.794	1642.304	1442.392
-1.473	37.863	1631.327	1433.202
-0.458	35.730	1612.395	1400.991
0.556	30.511	1611.563	1365.945
1.571	27.787	1635.162	1365.479
2.586	26.964	1648.959	1370.666
3.600	23.789	1595.358	1302.754
4.615	14.565	1479.800	1145.252
5.629	6.383	1410.189	1037.558
6.644	4.976	1401.314	1021.722
7.659	4.853	1399.437	1019.461
8.673	4.748	1398.519	1018.012
9.688	4.743	1396.513	1016.431
10.702	4.598	1394.064	1013.615
11.717	8.229	1402.091	1043.134
12.731	16.551	1417.073	1108.966
13.746	20.041	1421.729	1135.424
14.761	18.468	1417.058	1121.312
15.775	17.064	1413.897	1109.540
16.790	15.961	1410.852	1099.858
17.804	15.100	1408.907	1092.628
18.819	14.679	1407.505	1088.694
19.834	14.402	1406.319	1085.878
20.848	14.205	1404.595	1083.168
21.863	13.964	1403.062	1080.323
22.877	13.849	1402.087	1078.728
23.892	13.735	1401.533	1077.468
24.907	13.705	1400.653	1076.504
25.921	13.807	1399.187	1075.943
26.936	13.812	1398.767	1075.558
27.950	13.859	1397.840	1075.048
28.965	13.869	1396.854	1074.264
29.980	13.961	1395.339	1073.598
30.994	14.061	1394.141	1073.228
32.009	14.092	1392.401	1071.993
33.023	14.020	1391.406	1070.666
34.038	13.954	1390.341	1069.327
35.053	13.953	1388.722	1067.980
36.067	13.943	1387.703	1067.039
37.082	13.943	1386.542	1066.053
38.096	14.003	1386.030	1065.950
39.111	13.979	1385.168	1065.036
40.126	13.871	1384.439	1063.692
41.140	13.826	1383.077	1062.261
42.155	13.686	1382.303	1060.677
43.169	13.640	1383.167	1060.952
44.184	13.599	1382.614	1060.171
45.199	13.655	1381.662	1059.708
46.213	13.652	1381.429	1059.414
47.228	13.844	1380.106	1059.530
48.242	13.808	1379.319	1058.602
49.257	13.734	1377.658	1056.768
50.271	13.885	1375.875	1056.266
51.286	13.897	1374.776	1055.403
52.301	13.842	1373.489	1053.971
53.315	13.702	1372.544	1052.268
54.330	13.760	1371.312	1051.595
55.344	13.694	1369.953	1050.046
56.359	13.749	1368.864	1049.463
57.374	13.729	1368.177	1048.720
58.388	13.658	1367.184	1047.416
59.403	13.580	1367.011	1046.695
60.417	13.670	1365.746	1046.202
61.432	13.713	1364.610	1045.511
62.447	13.492	1364.854	1044.210
63.461	13.484	1363.140	1042.756
64.476	13.578	1361.720	1042.175
65.490	13.458	1360.808	1040.626
66.505	13.492	1358.898	1039.286
67.520	13.601	1357.865	1039.087
68.534	13.643	1356.459	1038.188
69.549	13.599	1355.666	1037.211
70.563	13.531	1354.766	1036.005
71.578	13.601	1353.005	1035.004
72.593	13.452	1352.303	1033.447
73.607	13.394	1351.840	1032.635
74.622	13.459	1350.780	1032.143
75.636	13.493	1350.118	1031.756
76.651	13.519	1349.484	1031.345
77.666	13.521	1348.778	1030.725
78.680	13.560	1348.184	1030.421
79.695	13.465	1347.662	1029.340
80.709	13.549	1346.860	1029.159
81.724	13.670	1345.752	1028.972
82.739	13.753	1344.730	1028.613
83.753	13.795	1343.994	1028.221
84.768	13.788	1343.249	1027.515
85.782	13.865	1341.977	1026.928
86.797	13.871	1340.834	1025.999
87.812	13.817	1339.544	1024.592
88.826	13.840	1338.244	1023.649
89.841	13.827	1337.557	1022.950
90.855	13.835	1336.550	1022.140
91.870	13.833	1335.636	1021.340
92.884	13.830	1334.872	1020.642
93.899	13.888	1333.965	1020.218
94.914	13.960	1333.205	1019.986
95.928	13.978	1332.387	1019.380
96.943	13.933	1331.325	1018.203
97.957	13.857	1329.977	1016.614
98.972	13.954	1328.972	1016.353
99.987	13.909	1327.854	1015.131
101.001	13.838	1327.016	1013.969
102.016	13.805	1326.311	1013.141
103.030	13.877	1324.892	1012.402
104.045	13.876	1324.022	1011.645
105.060	13.882	1322.806	1010.659
106.074	13.830	1321.127	1008.974
107.089	13.590	1320.242	1006.750
108.103	13.729	1318.268	1005.999
109.118	13.667	1317.268	1004.768
110.133	13.689	1316.322	1004.093
111.147	13.696	1314.353	1002.547
112.162	13.641	1313.366	1001.373
113.176	13.689	1312.073	1000.587
114.191	13.664	1311.508	999.917
115.206	13.689	1310.411	999.145
116.220	13.730	1308.614	997.931
117.235	13.651	1307.895	996.820
118.249	13.744	1306.647	996.336
119.264	13.713	1305.254	995.004
120.279	13.615	1304.348	993.636
121.293	13.674	1303.243	993.060
122.308	13.576	1302.488	991.807
123.322	13.512	1301.463	990.559
124.337	13.597	1300.004	989.865
125.352	13.576	1299.256	989.086
126.366	13.539	1298.242	988.008
127.381	13.600	1297.142	987.445
128.395	13.611	1296.054	986.594
129.410	13.660	1294.878	985.901
130.424	13.702	1294.083	985.460
131.439	13.550	1293.731	984.203
132.454	13.673	1292.424	983.852
133.468	13.693	1291.874	983.465
134.483	13.798	1290.650	983.069
135.497	13.776	1289.888	982.271
136.512	13.721	1288.632	980.898
137.527	13.685	1287.278	979.568
138.541	13.800	1285.592	978.881
139.556	13.938	1284.408	978.702
140.570	13.938	1283.315	977.784
141.585	13.856	1282.265	976.417
142.600	13.989	1281.147	976.258
143.614	13.890	1280.734	975.278
144.629	14.105	1279.035	975.161
145.643	13.872	1278.305	973.148
146.658	13.919	1276.623	972.059
147.673	13.857	1275.336	970.629
148.687	13.775	1273.808	968.901
149.702	13.745	1272.672	967.779
150.716	13.717	1271.322	966.503
151.731	13.844	1270.146	966.260
152.746	13.790	1268.936	964.943
153.760	13.721	1268.135	963.844
154.775	13.906	1266.838	963.850
155.789	13.937	1265.603	963.007
156.804	13.853	1264.552	961.629
157.819	13.929	1263.421	961.129
158.833	14.041	1262.990	961.363
159.848	14.059	1261.755	960.444
160.862	13.977	1260.928	959.254
161.877	13.870	1259.883	957.759
162.892	13.863	1258.493	956.576
163.906	13.838	1257.855	955.860
164.921	13.835	1256.754	954.925
165.935	13.907	1255.891	954.595
166.950	13.918	1255.118	953.987
167.964	14.000	1254.541	953.937
168.979	13.982	1253.788	953.175
169.994	14.034	1252.753	952.600
171.008	13.999	1252.224	951.917
172.023	14.126	1251.148	951.739
173.037	14.165	1250.223	951.176
174.052	13.973	1249.578	949.503
175.067	14.134	1248.060	949.186
176.081	13.939	1247.391	947.477
177.096	14.075	1246.248	947.300
178.110	14.000	1245.464	946.196
179.125	14.033	1243.817	945.048
180.140	14.084	1242.837	944.510
181.154	14.141	1241.975	944.095
182.169	14.182	1240.425	943.062
183.183	14.147	1239.049	941.736
184.198	14.130	1237.917	940.699
185.213	14.261	1236.661	940.400
186.227	14.249	1235.880	939.656
187.242	14.315	1234.491	938.888
188.256	14.310	1234.125	938.499
189.271	14.329	1232.764	937.488
190.286	14.136	1231.546	935.393
191.300	14.072	1230.718	934.322
192.315	14.058	1229.555	933.278
193.329	13.966	1229.673	932.766
194.344	14.062	1228.636	932.439
195.359	14.060	1228.375	932.147
196.373	14.198	1227.999	932.551
197.388	14.239	1227.586	932.386
198.402	14.308	1226.972	932.224
199.417	14.464	1226.218	932.438
200.432	14.547	1225.362	932.171
201.446	14.638	1224.276	931.766
202.461	14.639	1223.206	930.879
203.475	14.536	1222.691	929.827
204.490	14.543	1221.153	928.616
205.504	14.501	1219.897	927.343
206.519	14.343	1218.732	925.499
207.534	14.339	1217.645	924.569
208.548	14.473	1216.526	924.380
209.563	14.510	1215.482	923.713
210.577	14.455	1214.736	922.758
211.592	14.508	1214.263	922.613
212.607	14.585	1213.552	922.417
213.621	14.571	1212.551	921.494
214.636	14.644	1211.846	921.281
215.650	14.617	1210.413	919.961
216.665	14.740	1209.557	919.907
217.680	14.805	1208.857	919.648
218.694	14.850	1207.958	919.131
219.709	14.605	1207.798	917.584
220.723	14.676	1206.518	916.921
221.738	14.629	1206.082	916.250
222.753	14.763	1204.981	916.065
223.767	14.652	1204.349	914.893
224.782	14.782	1203.756	915.077
225.796	14.815	1203.157	914.721
226.811	14.796	1202.555	914.080
227.826	14.817	1201.167	913.058
228.840	14.691	1200.913	912.094
229.855	14.746	1199.795	911.462
230.869	14.823	1199.065	911.250
231.884	14.837	1197.992	910.428
232.899	14.687	1197.572	909.211
233.913	14.640	1196.840	908.323
234.928	14.659	1196.128	907.802
235.942	14.624	1195.173	906.809
236.957	14.780	1194.062	906.735
237.972	14.750	1193.520	906.077
238.986	14.680	1193.218	905.390
240.001	14.758	1192.196	904.955
241.015	14.867	1191.224	904.730
242.030	14.842	1190.469	903.938
243.045	14.836	1189.576	903.149
244.059	14.939	1188.549	902.846
245.074	14.922	1188.326	902.504
246.088	14.873	1187.490	901.527
247.103	15.041	1186.247	901.405
248.117	15.149	1185.590	901.407
249.132	15.217	1185.196	901.397
250.147	15.209	1184.648	900.854
251.161	15.296	1183.828	900.617
252.176	15.284	1183.077	899.905
253.190	15.439	1181.998	899.833
254.205	15.346	1181.784	899.096
255.220	15.409	1181.562	899.184
256.234	15.331	1181.082	898.318
257.249	15.444	1179.882	897.933
258.263	15.415	1178.906	896.956
259.278	15.314	1178.814	896.268
260.293	15.410	1178.253	896.274
261.307	15.470	1177.425	895.886
262.322	15.524	1176.579	895.448
263.336	15.508	1176.307	895.080
264.351	15.507	1175.281	894.213
265.366	15.564	1174.580	893.903
266.380	15.561	1174.121	893.459
267.395	15.553	1173.252	892.674
268.409	15.487	1171.957	891.262
269.424	15.451	1171.823	890.890
270.439	15.452	1171.270	890.398
271.453	15.501	1170.407	889.920
272.468	15.509	1169.108	888.899
273.482	15.487	1168.402	888.163
274.497	15.422	1168.240	887.621
275.512	15.421	1167.456	886.942
276.526	15.545	1166.661	886.911
277.541	15.533	1165.736	886.070
278.555	15.550	1165.351	885.788
279.570	15.602	1164.393	885.254
280.585	15.629	1163.603	884.714
281.599	15.690	1162.814	884.360
282.614	15.677	1161.900	883.518
283.628	15.772	1160.062	882.540
284.643	15.705	1159.242	881.487
285.657	15.756	1158.537	881.139
286.672	15.766	1157.426	880.271
287.687	15.793	1156.711	879.791
288.701	15.613	1156.402	878.533
289.716	15.710	1155.284	878.114
290.730	15.632	1154.696	877.181
291.745	15.721	1154.056	877.083
292.760	15.724	1153.641	876.706
293.774	15.717	1153.074	876.158
294.789	16.003	1151.921	876.697
295.803	15.916	1151.643	875.952
296.818	15.812	1150.702	874.622
297.833	15.838	1149.784	873.979
298.847	15.984	1148.704	873.837
299.862	15.909	1147.906	872.766
300.876	15.893	1147.167	872.046
301.891	15.967	1146.848	872.107
302.906	16.081	1145.842	871.857
303.920	16.058	1145.698	871.552
304.935	16.088	1145.372	871.379
305.949	16.102	1144.351	870.597
306.964	16.089	1143.679	869.944
307.979	16.116	1142.838	869.363
308.993	16.016	1142.253	868.327
310.008	16.178	1141.296	868.355
311.022	16.165	1140.338	867.486
312.037	16.090	1139.921	866.704
313.052	16.088	1138.546	865.572
314.066	16.095	1137.565	864.788
315.081	16.057	1136.701	863.857
316.095	16.136	1135.811	863.508
317.110	15.956	1135.480	862.262
318.125	15.987	1134.566	861.648
319.139	16.072	1133.761	861.396
320.154	16.018	1133.364	860.744
321.168	16.012	1132.708	860.138
322.183	16.134	1131.972	860.124
323.197	16.066	1131.603	859.423
324.212	16.178	1130.673	859.210
325.227	16.202	1130.302	858.973
326.241	16.124	1129.944	858.227
327.256	16.040	1129.124	857.100
328.270	16.180	1127.845	856.766
329.285	16.211	1126.890	856.120
330.300	16.147	1126.207	855.203
331.314	16.155	1125.230	854.427
332.329	16.245	1124.098	853.948
333.343	16.289	1122.901	853.186
334.358	16.244	1122.388	852.490
335.373	16.324	1121.955	852.490
336.387	16.442	1120.862	852.180
337.402	16.383	1120.460	851.500
338.416	16.322	1120.109	850.854
339.431	16.514	1118.764	850.720
340.446	16.481	1118.268	850.103
341.460	16.487	1117.884	849.765
342.475	16.564	1117.062	849.455
343.489	16.636	1115.998	848.931
344.504	16.614	1115.274	848.194
345.519	16.637	1114.326	847.512
346.533	16.682	1112.974	846.634
347.548	16.781	1112.424	846.634
348.562	16.615	1111.670	845.157
349.577	16.751	1110.877	845.161
350.592	16.499	1110.403	843.467
351.606	16.426	1109.891	842.641
352.621	16.540	1108.780	842.289
353.635	16.601	1108.201	842.079
354.650	16.661	1107.285	841.608
355.665	16.502	1106.871	840.427
356.679	16.545	1106.160	840.029
357.694	16.550	1105.603	839.554
358.708	16.615	1104.945	839.303
359.723	16.668	1104.239	838.955
360.738	16.589	1103.316	837.787
361.752	16.726	1102.753	837.964
362.767	16.713	1102.679	837.770
363.781	16.782	1101.804	837.373
364.796	16.874	1100.887	837.055
365.810	16.972	1100.361	837.063
366.825	16.970	1099.919	836.644
367.840	17.008	1099.446	836.398
368.854	17.024	1098.942	836.018
369.869	17.030	1098.001	835.258
370.883	17.008	1096.991	834.308
371.898	16.902	1096.291	833.179
372.913	16.980	1095.848	833.153
373.927	16.933	1095.282	832.421
374.942	17.095	1094.589	832.612
375.956	17.027	1093.866	831.654
376.971	17.058	1093.292	831.300
377.986	17.102	1092.605	830.918
379.000	17.267	1092.335	831.445
380.015	17.298	1091.797	831.115
381.029	17.215	1091.017	830.042
382.044	17.243	1090.420	829.653
383.059	17.272	1089.560	829.066
384.073	17.270	1088.692	828.322
385.088	17.273	1087.875	827.640
386.102	17.247	1087.177	826.910
387.117	17.137	1086.204	825.561
388.132	17.048	1085.562	824.570
389.146	17.026	1084.200	823.354
390.161	17.137	1083.562	823.337
391.175	17.185	1082.424	822.632
392.190	17.215	1082.070	822.432
393.205	17.335	1081.296	822.351
394.219	17.366	1080.292	821.668
395.234	17.327	1079.528	820.826
396.248	17.359	1078.385	820.035
397.263	17.253	1077.801	819.008
398.278	17.221	1077.069	818.226
399.292	17.120	1076.385	817.147
400.307	17.120	1075.527	816.427
401.321	17.213	1074.778	816.233
402.336	17.179	1074.132	815.504
403.350	17.224	1073.681	815.308
404.365	17.286	1072.987	815.005
405.380	17.240	1072.272	814.167
406.394	17.379	1071.341	814.054
407.409	17.443	1070.406	813.577
408.423	17.397	1069.989	812.970
409.438	17.547	1069.621	813.335
410.453	17.553	1068.600	812.514
411.467	17.637	1068.086	812.454
412.482	17.702	1066.865	811.764
413.496	17.647	1066.456	811.118
414.511	17.558	1066.151	810.389
415.526	17.752	1065.568	810.798
416.540	17.770	1065.188	810.523
417.555	17.684	1064.555	809.559
418.569	17.824	1064.216	809.897
419.584	17.827	1063.506	809.300
420.599	17.721	1063.101	808.416
421.613	142.635	1399.421	1776.464
422.628	131.031	1448.420	1776.578
