DTS Sentinel unit serial number:	SN413079Multiplexer serial number:	ORYXHardware model number:	OX4-SRSoftware version number:	ORYX F/W v4.00 Oryx Data Collector v3.7.2.0data status	okinstallation	princeton_trtdifferential loss correction	single-endedforward channel	channel 2reverse channel	N/Adate	2019/09/11time	18:05:10forward acquisition time	60.00reverse acquisition time	0.00gamma	496.2192k internal	0.2285k external	0.2285temperature offset calibration	1.0027default loss term (dB/km)	0.3790temperature slope calibration	1.0000multiplexer offset coefficient	1.0000multiplexer slope coefficient	1.0000fibre end	0.00T internal ref (°C)	44.03T ext. ref 1 (°C)	1.16T ext. ref 2 (°C)	38.99length (m)	temperature (°C)	Stokes	anti-Stokes-747.200	-200.000	-0.033	-0.161
-746.185	-71.981	-0.322	0.123
-745.171	-142.622	-0.302	-0.030
-744.156	674.818	0.107	0.284
-743.142	420.196	0.079	0.175
-742.127	-200.000	-0.055	0.370
-741.112	-167.363	0.299	-0.012
-740.098	-98.205	0.121	0.032
-739.083	-200.000	0.017	0.079
-738.069	-138.147	-0.241	-0.027
-737.054	511.819	0.082	-0.197
-736.039	656.811	-0.144	-0.381
-735.025	2.051	0.212	0.157
-734.010	-73.999	-0.397	0.148
-732.996	311.305	-0.119	-0.228
-731.981	-200.000	-0.047	-0.285
-730.966	44.618	-0.309	0.292
-729.952	-70.267	-0.132	0.051
-728.937	536.119	-0.073	0.178
-727.923	9.047	0.166	0.129
-726.908	13.383	0.107	0.085
-725.894	-27.722	-0.338	-0.201
-724.879	-200.000	-0.001	0.148
-723.864	-27.248	-0.263	0.157
-722.850	234.491	-0.076	-0.129
-721.835	-200.000	0.011	-0.147
-720.821	377.636	-0.150	-0.315
-719.806	-157.636	-0.339	-0.021
-718.791	278.342	-0.136	-0.248
-717.777	264.261	-0.134	-0.240
-716.762	800.000	-0.054	-0.193
-715.748	-29.765	0.142	-0.083
-714.733	-2.165	-0.061	-0.044
-713.718	-200.000	-0.077	-0.395
-712.704	-57.059	0.224	-0.101
-711.689	122.870	0.077	-0.099
-710.675	121.862	0.159	-0.204
-709.660	-29.404	-0.099	0.058
-708.645	-200.000	-0.016	0.318
-707.631	-200.000	-0.067	-0.308
-706.616	99.860	0.095	-0.112
-705.602	93.890	-0.174	-0.203
-704.587	54.380	-0.309	-0.305
-703.572	-22.201	0.079	0.049
-702.558	258.940	0.166	0.294
-701.543	-67.466	-0.122	-0.049
-700.529	-200.000	-0.061	-0.279
-699.514	200.767	-0.313	-0.493
-698.499	244.183	-0.015	-0.025
-697.485	4.999	-0.237	0.179
-696.470	485.091	-0.131	0.306
-695.456	106.547	0.108	-0.131
-694.441	-11.005	-0.066	-0.044
-693.426	36.859	0.105	-0.095
-692.412	259.619	-0.214	0.379
-691.397	21.094	-0.105	0.087
-690.383	-44.164	-0.462	-0.237
-689.368	34.613	0.046	-0.041
-688.354	223.205	-0.077	0.128
-687.339	-9.011	-0.310	0.213
-686.324	266.731	0.118	0.212
-685.310	-55.774	-0.306	-0.140
-684.295	35.804	0.133	0.119
-683.281	-42.359	-0.359	0.188
-682.266	-58.191	-0.116	0.052
-681.251	165.761	-0.113	-0.164
-680.237	102.009	-0.118	0.141
-679.222	-14.862	-0.173	-0.114
-678.208	-47.442	-0.217	-0.108
-677.193	-86.881	-0.272	-0.085
-676.178	800.000	-0.051	-0.220
-675.164	147.326	-0.148	-0.203
-674.149	-200.000	0.043	-0.284
-673.135	-102.948	0.108	0.026
-672.120	-200.000	-0.029	-0.289
-671.105	23.684	0.212	0.178
-670.091	-76.020	0.401	0.145
-669.076	-200.000	-0.028	-0.330
-668.062	-143.224	-0.199	-0.020
-667.047	800.000	0.086	-0.246
-666.032	71.552	-0.131	-0.139
-665.018	-51.619	0.072	0.035
-664.003	-200.000	0.010	0.059
-662.989	53.337	0.100	0.098
-661.974	-102.657	0.210	0.051
-660.959	-131.229	-0.157	-0.021
-659.945	-49.036	0.126	0.062
-658.930	-200.000	0.017	-0.142
-657.916	-106.435	0.227	-0.052
-656.901	800.000	-0.102	-0.398
-655.886	0.163	-0.097	0.071
-654.872	-80.055	0.268	-0.092
-653.857	-143.692	0.375	0.036
-652.843	325.985	-0.073	-0.143
-651.828	19.176	-0.245	0.201
-650.814	119.290	0.046	-0.058
-649.799	95.082	-0.129	0.150
-648.784	-200.000	-0.012	0.076
-647.770	-31.954	0.179	0.103
-646.755	800.000	0.056	-0.174
-645.741	36.170	-0.156	0.140
-644.726	-36.582	0.191	0.105
-643.711	-180.840	-0.398	0.008
-642.697	111.351	0.146	-0.180
-641.682	34.295	-0.200	-0.178
-640.668	99.531	-0.218	0.258
-639.653	13.810	0.152	0.121
-638.638	523.631	0.110	-0.265
-637.624	187.122	-0.090	0.137
-636.609	-200.000	0.014	0.111
-635.595	-132.535	-0.378	-0.050
-634.580	6.478	-0.149	0.114
-633.565	112.032	-0.241	-0.297
-632.551	-200.000	0.009	-0.117
-631.536	-200.000	0.120	-0.000
-630.522	-160.660	0.221	0.012
-629.507	-125.714	-0.136	0.021
-628.492	511.095	0.033	-0.078
-627.478	-34.003	-0.056	0.031
-626.463	-200.000	0.001	0.014
-625.449	-35.803	-0.119	-0.066
-624.434	-200.000	0.013	0.132
-623.419	-60.038	0.348	-0.152
-622.405	36.804	-0.325	-0.294
-621.390	-99.431	0.177	0.046
-620.376	243.112	0.173	0.296
-619.361	-60.918	-0.256	0.111
-618.346	-200.000	0.039	0.179
-617.332	65.063	-0.152	0.157
-616.317	-200.000	-0.023	-0.127
-615.303	-120.285	-0.503	0.088
-614.288	457.006	0.099	-0.224
-613.273	203.229	0.124	-0.196
-612.259	53.196	0.190	-0.186
-611.244	113.657	-0.145	-0.179
-610.230	800.000	-0.050	-0.188
-609.215	73.402	-0.347	-0.371
-608.201	203.485	-0.059	0.094
-607.186	-90.709	0.229	-0.068
-606.171	-200.000	-0.096	-0.440
-605.157	-130.190	0.135	0.019
-604.142	-6.004	-0.205	0.143
-603.128	98.072	-0.162	0.191
-602.113	-15.503	0.099	-0.064
-601.098	-39.035	0.113	0.061
-600.084	-200.000	0.059	-0.301
-599.069	-200.000	0.016	-0.444
-598.055	152.186	0.059	0.082
-597.040	-158.227	0.223	0.013
-596.025	224.626	0.085	-0.140
-595.011	388.980	-0.160	-0.338
-593.996	-200.000	0.016	0.236
-592.982	5.527	0.264	-0.199
-591.967	-85.148	-0.152	-0.048
-590.952	-136.355	0.254	-0.030
-589.938	-102.626	0.245	0.060
-588.923	-3.415	-0.236	0.167
-587.909	-183.484	-0.202	-0.004
-586.894	-200.000	0.064	0.312
-585.879	-157.866	0.108	0.007
-584.865	-139.002	-0.192	-0.021
-583.850	-50.614	0.236	0.113
-582.836	800.000	0.120	-0.486
-581.821	-101.883	-0.198	-0.049
-580.806	-34.140	0.079	0.044
-579.792	-200.000	-0.048	-0.257
-578.777	124.188	0.172	-0.220
-577.763	-111.586	0.007	-0.001
-576.748	-126.646	0.185	-0.028
-575.733	266.795	-0.049	-0.087
-574.719	-200.000	0.035	0.196
-573.704	-36.308	-0.222	-0.122
-572.690	384.230	-0.128	-0.269
-571.675	575.826	-0.136	0.339
-570.661	-200.000	-0.010	-0.065
-569.646	342.189	0.017	0.033
-568.631	-113.045	0.214	-0.043
-567.617	156.029	-0.115	0.162
-566.602	17.561	0.116	0.094
-565.588	0.917	-0.203	0.148
-564.573	27.307	0.054	-0.046
-563.558	183.447	0.049	0.075
-562.544	800.000	-0.011	-0.048
-561.529	-171.397	0.196	0.007
-560.515	341.718	0.033	-0.065
-559.500	-200.000	-0.027	0.388
-558.485	-121.894	-0.082	0.014
-557.471	-142.472	-0.444	0.044
-556.456	-6.638	-0.080	-0.055
-555.442	414.311	0.104	0.226
-554.427	64.935	-0.163	0.168
-553.412	-87.223	-0.275	-0.085
-552.398	-69.001	-0.216	0.085
-551.383	800.000	0.057	0.172
-550.369	196.102	0.060	-0.093
-549.354	-72.607	0.245	-0.092
-548.339	-81.335	-0.157	0.053
-547.325	354.827	0.157	0.318
-546.310	-200.000	-0.005	0.197
-545.296	-200.000	-0.004	0.138
-544.281	-113.494	0.038	-0.008
-543.266	-165.123	-0.050	-0.002
-542.252	1.646	-0.141	-0.103
-541.237	-91.599	-0.355	0.103
-540.223	639.575	-0.108	-0.279
-539.208	-65.310	-0.294	0.120
-538.193	4.222	0.097	0.073
-537.179	-200.000	-0.015	-0.264
-536.164	129.228	-0.353	0.459
-535.150	160.416	0.147	0.209
-534.135	-147.397	-0.281	-0.024
-533.121	27.684	-0.153	-0.131
-532.106	-108.175	0.207	-0.046
-531.091	-107.502	0.246	-0.055
-530.077	-140.662	0.068	0.007
-529.062	-200.000	0.008	-0.152
-528.048	205.123	-0.041	-0.065
-527.033	202.335	0.025	-0.039
-526.018	-200.000	-0.010	-0.099
-525.004	800.000	-0.030	-0.121
-523.989	125.422	-0.075	0.096
-522.975	-75.159	-0.251	-0.091
-521.960	100.002	-0.163	-0.192
-520.945	-136.459	-0.399	-0.047
-519.931	-129.500	-0.449	-0.063
-518.916	-200.000	0.024	0.214
-517.902	-75.391	0.243	0.088
-516.887	-200.000	-0.037	0.327
-515.872	124.149	0.113	-0.145
-514.858	25.991	0.158	-0.134
-513.843	-98.565	-0.318	0.083
-512.829	-87.223	-0.353	-0.109
-511.814	-31.676	-0.125	-0.072
-510.799	800.000	0.127	-0.381
-509.785	197.439	0.098	0.152
-508.770	35.449	-0.143	0.128
-507.756	-27.846	0.322	0.190
-506.741	-82.670	-0.075	-0.025
-505.726	-127.928	0.125	-0.018
-504.712	-86.618	-0.103	-0.032
-503.697	-25.741	0.160	0.096
-502.683	-59.253	0.332	-0.145
-501.668	-200.000	-0.074	-0.375
-500.653	-3.970	0.116	-0.082
-499.639	50.728	-0.201	-0.193
-498.624	-42.938	0.144	-0.074
-497.610	-93.497	0.086	-0.024
-496.595	-200.000	-0.006	0.068
-495.581	44.166	0.246	0.230
-494.566	120.898	0.176	-0.222
-493.551	125.062	0.225	-0.289
-492.537	149.202	0.154	0.212
-491.522	218.488	-0.046	0.075
-490.508	143.061	-0.082	-0.110
-489.493	474.165	0.067	0.153
-488.478	-98.890	-0.081	-0.021
-487.464	-200.000	0.045	0.273
-486.449	-92.301	0.113	-0.032
-485.435	74.427	0.259	0.276
-484.420	-46.973	0.117	-0.058
-483.405	-200.000	-0.035	-0.364
-482.391	-96.635	0.145	-0.039
-481.376	-51.286	0.201	-0.095
-480.362	-200.000	0.007	0.080
-479.347	-49.717	-0.088	-0.042
-478.332	277.855	-0.105	-0.191
-477.318	-95.484	0.049	0.013
-476.303	47.557	-0.068	-0.065
-475.289	-104.148	-0.202	0.048
-474.274	183.927	-0.096	-0.144
-473.259	77.464	0.136	0.147
-472.245	100.450	0.146	-0.172
-471.230	-200.000	0.022	0.347
-470.216	336.188	0.143	-0.281
-469.201	92.117	-0.199	-0.228
-468.186	162.447	0.052	-0.074
-467.172	532.614	-0.028	-0.067
-466.157	-200.000	-0.002	0.176
-465.143	666.863	-0.066	0.173
-464.128	-200.000	-0.024	0.152
-463.113	186.513	-0.019	-0.028
-462.099	-103.546	-0.263	0.063
-461.084	-113.225	0.061	0.012
-460.070	22.999	0.145	0.120
-459.055	-22.318	0.077	0.047
-458.040	800.000	0.082	0.346
-457.026	-176.944	-0.413	-0.011
-456.011	-26.885	0.184	-0.109
-454.997	-153.818	-0.460	0.032
-453.982	-127.873	0.370	0.054
-452.968	800.000	0.048	-0.194
-451.953	-20.520	-0.044	-0.028
-450.938	-200.000	0.008	0.177
-449.924	-60.180	0.350	0.152
-448.909	-200.000	-0.007	-0.280
-447.895	-200.000	0.035	-0.620
-446.880	-20.118	-0.126	-0.079
-445.865	-90.781	0.164	0.048
-444.851	-200.000	0.203	0.000
-443.836	-8.105	0.171	0.117
-442.822	367.301	-0.129	0.264
-441.807	-200.000	0.053	0.245
-440.792	-81.519	-0.292	0.098
-439.778	-119.513	-0.234	-0.041
-438.763	246.132	-0.233	0.398
-437.749	800.000	0.086	-0.257
-436.734	17.842	-0.068	0.055
-435.719	800.000	-0.081	-0.322
-434.705	-25.166	0.320	-0.193
-433.690	-200.000	0.045	-0.255
-432.676	-57.410	0.173	0.077
-431.661	674.748	-0.139	0.367
-430.646	85.931	-0.134	-0.150
-429.632	-50.760	-0.101	-0.048
-428.617	342.589	0.135	-0.267
-427.603	-92.351	-0.298	0.085
-426.588	-102.673	-0.320	0.077
-425.573	214.182	-0.169	0.272
-424.559	-66.225	-0.189	-0.076
-423.544	353.284	-0.007	-0.014
-422.530	800.000	0.030	-0.124
-421.515	800.000	-0.093	0.260
-420.500	-200.000	0.018	0.237
-419.486	218.592	-0.029	-0.048
-418.471	-47.233	-0.182	-0.090
-417.457	-173.180	0.144	-0.004
-416.442	188.712	0.289	0.438
-415.428	-200.000	-0.057	0.319
-414.413	381.595	0.110	-0.229
-413.398	-142.933	0.093	0.009
-412.384	-200.000	-0.010	-0.148
-411.369	-103.646	-0.226	0.054
-410.355	-86.581	-0.193	-0.060
-409.340	157.653	-0.065	0.091
-408.325	-200.000	0.016	-0.116
-407.311	-7.274	-0.281	-0.193
-406.296	-159.618	-0.170	-0.010
-405.282	148.933	-0.024	-0.033
-404.267	-159.808	0.153	-0.009
-403.252	177.546	0.163	-0.241
-402.238	-22.517	-0.361	0.221
-401.223	409.884	0.078	-0.168
-400.209	-169.033	-0.042	0.002
-399.194	-82.987	0.238	-0.078
-398.179	-94.464	0.346	0.095
-397.165	800.000	0.023	-0.093
-396.150	-140.201	0.171	0.018
-395.136	158.071	-0.060	0.084
-394.121	-130.573	0.120	-0.016
-393.106	544.480	-0.048	-0.115
-392.092	52.165	0.153	0.148
-391.077	-107.194	-0.478	0.107
-390.063	133.312	0.180	0.236
-389.048	53.632	-0.245	0.238
-388.033	-83.379	-0.323	-0.105
-387.019	-97.044	0.169	-0.045
-386.004	-148.890	0.215	0.018
-384.990	-100.081	0.159	-0.040
-383.975	-152.221	-0.451	0.033
-382.960	224.843	-0.087	-0.143
-381.946	170.231	0.038	-0.056
-380.931	800.000	0.050	0.218
-379.917	49.944	-0.253	0.241
-378.902	739.720	-0.123	-0.333
-377.888	279.539	-0.119	-0.215
-376.873	172.567	-0.076	0.110
-375.858	142.634	0.200	-0.269
-374.844	-100.591	-0.166	-0.041
-373.829	32.945	-0.126	-0.111
-372.815	-120.784	0.215	-0.037
-371.800	-134.129	-0.421	-0.053
-370.785	52.462	0.286	-0.276
-369.771	-96.164	0.109	-0.029
-368.756	-19.589	0.460	0.288
-367.742	800.000	0.093	0.276
-366.727	26.851	-0.137	0.116
-365.712	715.661	0.059	-0.159
-364.698	-27.606	0.294	0.173
-363.683	-144.916	0.209	0.019
-362.669	-110.354	-0.380	0.080
-361.654	746.361	0.114	0.312
-360.639	800.000	-0.060	0.194
-359.625	274.685	-0.049	0.087
-358.610	258.456	-0.127	0.222
-357.596	34.653	-0.176	0.156
-356.581	-200.000	-0.040	0.196
-355.566	-119.638	-0.237	-0.041
-354.552	-200.000	0.040	-0.209
-353.537	800.000	0.057	0.237
-352.523	-44.631	-0.280	0.142
-351.508	230.567	0.073	0.122
-350.493	1.913	0.342	-0.249
-349.479	800.000	-0.087	-0.338
-348.464	2.206	0.221	0.161
-347.450	232.461	-0.076	0.126
-346.435	84.998	0.312	0.346
-345.420	-200.000	-0.009	0.262
-344.406	-110.198	-0.243	0.051
-343.391	-10.281	-0.172	-0.115
-342.377	-200.000	0.015	-0.147
-341.362	223.020	-0.047	-0.077
-340.348	257.833	0.012	0.021
-339.333	-83.448	-0.153	0.050
-338.318	800.000	-0.106	0.411
-337.304	-200.000	-0.032	0.331
-336.289	307.459	-0.177	0.333
-335.275	-200.000	-0.038	-0.287
-334.260	23.871	0.262	-0.219
-333.245	392.666	-0.031	-0.065
-332.231	369.629	-0.034	-0.070
-331.216	-43.200	-0.231	-0.118
-330.202	485.848	0.020	-0.047
-329.187	2.851	0.490	0.359
-328.172	109.332	-0.077	-0.093
-327.158	-188.766	0.244	-0.003
-326.143	-55.609	-0.227	0.103
-325.129	-117.194	-0.070	0.013
-324.114	800.000	0.090	0.320
-323.099	-68.108	0.172	0.068
-322.085	115.335	0.137	0.169
-321.070	-200.000	0.005	0.180
-320.056	800.000	-0.024	0.069
-319.041	547.108	0.100	-0.241
-318.026	-200.000	0.039	-0.245
-317.012	-89.510	-0.328	0.097
-315.997	112.462	-0.034	0.041
-314.983	97.386	0.171	0.199
-313.968	52.809	-0.309	-0.298
-312.953	101.906	-0.221	-0.261
-311.939	138.646	0.167	-0.222
-310.924	-18.182	0.240	-0.152
-309.910	62.600	0.134	0.136
-308.895	212.640	-0.074	0.118
-307.880	-44.306	-0.139	-0.070
-306.866	-109.255	0.275	0.059
-305.851	-23.947	-0.470	-0.284
-304.837	-83.938	0.209	0.067
-303.822	38.623	-0.283	-0.255
-302.807	-89.719	0.453	0.134
-301.793	-79.701	-0.007	-0.003
-300.778	333.625	-0.122	-0.239
-299.764	320.621	-0.101	0.194
-298.749	67.700	-0.191	0.197
-297.735	-15.863	0.350	-0.225
-296.720	-54.093	0.193	-0.088
-295.705	-100.271	0.374	0.094
-294.691	4.919	0.089	-0.066
-293.676	-200.000	-0.041	-0.368
-292.662	-26.413	-0.099	-0.058
-291.647	-60.197	-0.186	0.080
-290.632	64.475	0.250	-0.254
-289.618	-51.111	0.093	0.044
-288.603	-200.000	-0.009	-0.179
-287.589	327.818	-0.063	-0.122
-286.574	-93.910	0.168	0.047
-285.559	25.192	-0.306	0.256
-284.545	-10.756	0.056	-0.037
-283.530	128.713	0.137	-0.176
-282.516	-200.000	0.002	0.147
-281.501	-151.007	-0.435	0.033
-280.486	45.352	-0.034	0.032
-279.472	-31.574	0.007	0.004
-278.457	-73.457	0.209	0.077
-277.443	15.648	0.088	0.070
-276.428	-123.023	0.385	0.062
-275.413	-200.000	-0.064	0.402
-274.399	-200.000	-0.011	-0.536
-273.384	-39.552	0.234	0.123
-272.370	141.585	-0.080	-0.107
-271.355	34.771	-0.123	0.109
-270.340	-200.000	0.043	0.280
-269.326	-39.296	0.227	0.120
-268.311	73.456	-0.277	0.293
-267.297	800.000	-0.079	0.324
-266.282	-200.000	-0.001	0.169
-265.267	-34.875	-0.293	0.161
-264.253	-200.000	-0.011	-0.168
-263.238	-170.628	0.233	0.008
-262.224	-138.596	0.177	0.020
-261.209	-64.971	-0.054	0.022
-260.195	137.870	0.219	0.289
-259.180	100.115	-0.164	-0.191
-258.165	-165.158	0.091	-0.004
-257.151	271.079	0.127	0.226
-256.136	70.336	-0.014	-0.014
-255.122	198.478	0.109	0.168
-254.107	160.831	-0.267	0.375
-253.092	661.392	-0.140	0.364
-252.078	59.568	-0.042	0.042
-251.063	489.618	0.074	-0.170
-250.049	-156.576	0.260	0.016
-249.034	-200.000	0.024	0.123
-248.019	-75.552	0.071	0.025
-247.005	316.102	-0.077	-0.146
-245.990	800.000	-0.153	0.668
-244.976	-79.261	0.216	0.074
-243.961	143.216	-0.127	0.170
-242.946	6.993	0.089	-0.067
-241.932	59.566	0.100	0.099
-240.917	56.197	-0.143	0.140
-239.903	374.810	0.176	-0.360
-238.888	-31.954	0.158	0.089
-237.873	221.752	-0.062	0.101
-236.859	-147.798	-0.284	-0.024
-235.844	188.552	-0.143	-0.216
-234.830	571.333	0.076	-0.186
-233.815	223.426	0.088	0.142
-232.800	-200.000	0.009	-0.276
-231.786	-200.000	0.026	-0.317
-230.771	-61.966	-0.049	-0.020
-229.757	336.714	0.063	0.122
-228.742	-200.000	0.013	-0.210
-227.727	-200.000	-0.020	-0.190
-226.713	39.101	0.177	-0.159
-225.698	-163.616	0.273	-0.013
-224.684	-114.856	-0.289	-0.055
-223.669	-43.478	0.103	-0.052
-222.655	-127.611	-0.133	0.019
-221.640	800.000	0.025	0.076
-220.625	-200.000	0.002	-0.374
-219.611	-113.613	0.121	0.024
-218.596	-121.389	0.433	0.072
-217.582	-167.148	0.165	-0.007
-216.567	-167.255	0.208	0.008
-215.552	-150.991	-0.099	0.008
-214.538	196.756	-0.171	0.262
-213.523	477.585	-0.020	0.045
-212.509	-124.420	0.207	0.032
-211.494	800.000	0.011	-0.043
-210.479	-35.397	-0.199	-0.109
-209.465	668.022	-0.068	-0.178
-208.450	502.632	0.057	-0.134
-207.436	170.292	0.135	-0.195
-206.421	51.383	0.212	-0.203
-205.406	-78.327	-0.252	-0.087
-204.392	-200.000	0.018	0.157
-203.377	101.620	-0.113	-0.132
-202.363	363.617	0.170	-0.343
-201.348	8.902	0.255	0.193
-200.333	-95.342	-0.066	-0.018
-199.319	800.000	0.158	-0.461
-198.304	-200.000	-0.014	-0.133
-197.290	-45.216	-0.092	-0.046
-196.275	-200.000	-0.022	-0.250
-195.260	-118.740	0.406	-0.072
-194.246	-33.062	0.066	0.037
-193.231	-60.554	0.098	0.042
-192.217	-118.531	0.210	-0.037
-191.202	-42.663	0.113	-0.058
-190.187	-200.000	0.000	0.002
-189.173	24.011	0.052	0.043
-188.158	409.169	-0.082	0.174
-187.144	-200.000	-0.022	-0.266
-186.129	-200.000	-0.022	0.394
-185.114	100.251	-0.330	0.384
-184.100	128.734	0.038	0.048
-183.085	347.506	0.099	0.196
-182.071	133.088	0.196	0.254
-181.056	-151.793	-0.093	-0.007
-180.042	-200.000	-0.050	0.233
-179.027	255.090	0.091	0.157
-178.012	-200.000	0.015	0.089
-176.998	-46.265	0.112	0.055
-175.983	384.913	0.022	-0.047
-174.969	800.000	0.046	-0.192
-173.954	-152.382	-0.379	0.027
-172.939	-100.612	-0.112	-0.028
-171.925	627.943	0.036	-0.090
-170.910	-107.453	0.346	-0.076
-169.896	242.931	0.099	-0.167
-168.881	-200.000	0.014	-0.257
-167.866	-200.000	-0.074	-0.388
-166.852	-167.291	-0.528	-0.021
-165.837	-200.000	0.006	0.034
-164.823	571.564	0.129	-0.314
-163.808	58.869	0.041	-0.040
-162.793	-177.029	0.121	0.003
-161.779	-6.000	0.194	0.133
-160.764	800.000	0.062	0.260
-159.750	-200.000	0.014	-0.174
-158.735	63.036	-0.062	0.062
-157.720	-41.890	0.093	0.048
-156.706	-200.000	-0.056	0.449
-155.691	-200.000	0.005	-0.047
-154.677	-64.987	0.442	-0.179
-153.662	-181.709	0.061	0.001
-152.647	-200.000	0.039	-0.173
-151.633	789.538	0.108	-0.297
-150.618	-80.189	0.259	0.087
-149.604	-64.557	0.074	0.030
-148.589	-200.000	-0.030	-0.144
-147.574	-18.354	-0.241	0.151
-146.560	-187.812	-0.075	0.001
-145.545	-70.075	-0.435	-0.166
-144.531	-200.000	0.008	0.260
-143.516	-200.000	-0.013	0.250
-142.502	-200.000	0.016	0.137
-141.487	711.892	0.066	0.175
-140.472	-149.367	0.291	0.023
-139.458	800.000	-0.087	0.307
-138.443	800.000	-0.074	0.276
-137.429	153.805	0.204	0.280
-136.414	-65.940	0.284	0.114
-135.399	100.589	0.366	0.426
-134.385	-108.000	0.175	0.038
-133.370	-128.606	-0.167	0.024
-132.356	391.577	-0.266	0.553
-131.341	800.000	0.043	-0.133
-130.326	-80.944	-0.355	0.118
-129.312	-103.338	0.167	-0.039
-128.297	-51.256	0.230	0.108
-127.283	-38.392	-0.190	-0.101
-126.268	-93.286	0.138	0.038
-125.253	280.899	-0.040	-0.071
-124.239	-195.894	-0.221	0.002
-123.224	-200.000	0.013	-0.248
-122.210	128.158	0.171	-0.218
-121.195	-200.000	-0.097	-0.470
-120.180	-200.000	0.027	-0.479
-119.166	179.046	-0.124	0.182
-118.151	401.978	-0.190	0.399
-117.137	-200.000	-0.001	0.294
-116.122	-91.625	0.165	-0.047
-115.107	-42.394	-0.043	0.022
-114.093	800.000	-0.070	0.197
-113.078	-127.606	0.028	-0.004
-112.064	-16.842	0.083	0.052
-111.049	357.861	0.103	0.205
-110.034	-91.646	0.301	-0.086
-109.020	-27.258	0.101	-0.059
-108.005	-110.403	-0.242	0.050
-106.991	-4.164	0.173	0.120
-105.976	-200.000	0.002	-0.198
-104.962	-200.000	-0.082	-0.381
-103.947	-200.000	0.020	0.089
-102.932	-200.000	-0.023	0.325
-101.918	-109.402	0.251	0.053
-100.903	800.000	0.045	-0.125
-99.889	-89.971	-0.229	-0.067
-98.874	122.671	-0.163	0.204
-97.859	-119.673	-0.347	-0.060
-96.845	44.143	0.176	0.161
-95.830	-200.000	0.012	0.255
-94.816	258.830	-0.096	-0.166
-93.801	-3.854	0.253	0.176
-92.786	-31.671	-0.129	-0.073
-91.772	-114.028	-0.264	-0.051
-90.757	460.834	-0.088	0.196
-89.743	-105.386	0.168	-0.038
-88.728	53.079	-0.100	-0.096
-87.713	12.627	-0.221	0.171
-86.699	800.000	-0.037	-0.139
-85.684	-200.000	0.048	-0.351
-84.670	26.931	0.108	-0.091
-83.655	800.000	-0.060	0.231
-82.640	161.471	0.069	0.097
-81.626	-3.713	0.032	-0.022
-80.611	-181.139	-0.103	0.002
-79.597	-178.831	0.191	-0.004
-78.582	580.807	-0.072	-0.177
-77.567	-121.842	-0.306	-0.050
-76.553	-57.748	0.122	-0.054
-75.538	-82.248	0.284	0.092
-74.524	-200.000	-0.379	0.001
-73.509	92.754	0.098	0.110
-72.494	-143.010	-0.305	0.029
-71.480	-82.603	-0.170	0.055
-70.465	-200.000	0.018	0.323
-69.451	-45.685	0.290	0.143
-68.436	-200.000	0.004	0.026
-67.422	223.261	0.011	0.018
-66.407	365.750	-0.015	-0.031
-65.392	-142.110	0.127	-0.013
-64.378	-181.220	0.186	0.004
-63.363	-200.000	0.003	-0.127
-62.349	-187.359	0.188	-0.003
-61.334	34.524	-0.691	-0.604
-60.319	-107.571	0.173	0.038
-59.305	-200.000	0.096	-0.764
-58.290	-25.274	0.468	0.277
-57.276	641.662	0.594	1.512
-56.261	-200.000	70.939	523.801
-55.246	606.587	1266.795	3156.256
-54.232	146.008	2494.936	3344.526
-53.217	115.131	2342.509	2857.943
-52.203	54.112	1960.661	1884.831
-51.188	47.698	1748.971	1631.063
-50.173	44.498	1701.559	1562.252
-49.159	57.974	1731.788	1694.310
-48.144	64.827	1750.415	1765.303
-47.130	47.384	1715.508	1597.180
-46.115	44.020	1702.200	1558.918
-45.100	43.875	1697.242	1553.206
-44.086	43.842	1694.765	1550.623
-43.071	43.786	1692.370	1547.944
-42.057	43.872	1689.392	1545.815
-41.042	43.860	1687.592	1544.014
-40.027	43.898	1685.782	1542.585
-39.013	43.893	1683.353	1540.263
-37.998	43.823	1682.113	1538.536
-36.984	43.919	1680.549	1537.775
-35.969	44.030	1678.893	1537.041
-34.954	44.140	1677.031	1536.105
-33.940	44.079	1675.097	1533.814
-32.925	43.988	1673.330	1531.451
-31.911	44.091	1671.550	1530.536
-30.896	43.905	1670.373	1527.994
-29.881	44.004	1667.771	1526.298
-28.867	43.964	1666.515	1524.787
-27.852	43.952	1665.177	1523.414
-26.838	43.987	1663.619	1522.190
-25.823	44.089	1662.079	1521.489
-24.809	44.036	1661.031	1520.066
-23.794	44.089	1659.374	1518.890
-22.779	44.149	1657.832	1517.867
-21.765	44.038	1656.386	1515.650
-20.750	44.075	1654.090	1513.770
-19.736	44.073	1652.809	1512.521
-18.721	44.189	1651.445	1512.075
-17.706	44.073	1649.743	1509.591
-16.692	43.996	1648.105	1507.465
-15.677	43.981	1646.610	1505.920
-14.663	44.057	1645.519	1505.428
-13.648	44.111	1644.074	1504.447
-12.633	44.092	1641.999	1502.348
-11.619	44.100	1640.806	1501.259
-10.604	44.026	1639.398	1499.361
-9.590	44.050	1638.305	1498.481
-8.575	44.126	1637.006	1497.796
-7.560	44.102	1635.807	1496.465
-6.546	44.054	1634.469	1494.821
-5.531	44.050	1633.531	1493.875
-4.517	44.031	1632.218	1492.476
-3.502	43.959	1631.201	1490.961
-2.487	44.092	1629.367	1490.199
-1.473	44.048	1617.972	1479.396
-0.458	41.453	1597.599	1441.986
0.556	36.236	1594.501	1399.763
1.571	32.977	1617.418	1395.723
2.586	32.012	1631.230	1400.321
3.600	28.088	1577.877	1326.013
4.615	15.460	1457.160	1139.306
5.629	3.655	1380.391	1002.888
6.644	1.290	1370.141	980.099
7.659	1.232	1368.044	978.138
8.673	1.091	1367.222	976.556
9.688	1.016	1365.580	974.813
10.702	0.757	1362.879	971.132
11.717	4.653	1370.780	1001.806
12.731	15.725	1392.245	1089.502
13.746	23.739	1405.821	1152.233
14.761	24.812	1406.328	1159.502
15.775	25.050	1405.970	1160.649
16.790	25.116	1405.463	1160.556
17.804	25.202	1404.316	1160.063
18.819	25.342	1404.303	1160.854
19.834	25.383	1404.105	1160.854
20.848	25.437	1403.241	1160.384
21.863	25.396	1402.568	1159.460
22.877	25.347	1401.770	1158.381
23.892	25.363	1400.711	1157.506
24.907	25.307	1400.130	1156.565
25.921	25.404	1398.519	1155.754
26.936	25.353	1397.526	1154.502
27.950	25.422	1396.138	1153.700
28.965	25.347	1395.249	1152.380
29.980	25.353	1394.248	1151.493
30.994	25.383	1392.697	1150.301
32.009	25.370	1391.282	1148.948
33.023	25.341	1390.774	1148.240
34.038	25.319	1389.491	1146.938
35.053	25.312	1388.174	1145.702
36.067	25.346	1387.330	1145.126
37.082	25.468	1385.856	1144.580
38.096	25.344	1385.477	1143.381
39.111	25.274	1385.111	1142.528
40.126	25.356	1384.454	1142.407
41.140	25.370	1383.555	1141.653
42.155	25.310	1383.284	1140.951
43.169	25.292	1383.658	1141.041
44.184	25.274	1383.264	1140.503
45.199	25.310	1382.402	1139.920
46.213	25.482	1381.334	1140.028
47.228	25.454	1380.413	1138.987
48.242	25.308	1379.856	1137.502
49.257	25.412	1378.283	1136.765
50.271	25.395	1376.876	1135.397
51.286	25.434	1375.413	1134.335
52.301	25.352	1374.449	1132.924
53.315	25.329	1373.146	1131.602
54.330	25.345	1372.759	1131.287
55.344	25.334	1371.489	1130.070
56.359	25.263	1370.395	1128.621
57.374	25.354	1369.720	1128.538
58.388	25.398	1368.743	1127.911
59.403	25.326	1368.639	1127.275
60.417	25.428	1367.765	1127.090
61.432	25.351	1367.479	1126.277
62.447	25.400	1365.967	1125.234
63.461	25.414	1364.948	1124.386
64.476	25.449	1364.013	1123.732
65.490	25.416	1362.915	1122.524
66.505	25.422	1361.339	1121.165
67.520	25.425	1360.161	1120.112
68.534	25.450	1358.984	1119.198
69.549	25.370	1358.502	1118.208
70.563	25.490	1357.036	1117.650
71.578	25.484	1355.801	1116.497
72.593	25.419	1355.444	1115.695
73.607	25.392	1354.823	1114.921
74.622	25.433	1353.770	1114.206
75.636	25.483	1353.045	1113.823
76.651	25.253	1353.179	1112.408
77.666	25.321	1352.364	1112.065
78.680	25.373	1351.342	1111.447
79.695	25.489	1350.417	1111.301
80.709	25.376	1349.992	1110.159
81.724	25.376	1349.322	1109.507
82.739	25.362	1348.022	1108.256
83.753	25.429	1347.220	1107.912
84.768	25.408	1346.021	1106.697
85.782	25.449	1345.004	1106.013
86.797	25.356	1344.055	1104.566
87.812	25.424	1342.934	1103.961
88.826	25.417	1341.885	1102.957
89.841	25.513	1341.104	1102.810
90.855	25.443	1339.830	1101.236
91.870	25.403	1338.784	1100.036
92.884	25.423	1337.848	1099.288
93.899	25.502	1337.403	1099.311
94.914	25.542	1336.257	1098.514
95.928	25.469	1335.983	1097.747
96.943	25.464	1335.344	1097.095
97.957	25.465	1334.411	1096.236
98.972	25.448	1333.045	1094.911
99.987	25.473	1332.196	1094.269
101.001	25.479	1331.308	1093.481
102.016	25.424	1330.671	1092.529
103.030	25.549	1329.156	1091.944
104.045	25.452	1328.742	1090.919
105.060	25.541	1327.633	1090.455
106.074	25.461	1326.780	1089.169
107.089	25.446	1325.637	1088.043
108.103	25.501	1324.427	1087.291
109.118	25.494	1323.596	1086.468
110.133	25.504	1322.422	1085.472
111.147	25.501	1321.611	1084.688
112.162	25.503	1320.469	1083.667
113.176	25.494	1319.566	1082.774
114.191	25.438	1318.555	1081.517
115.206	25.482	1318.014	1081.241
116.220	25.504	1316.192	1079.784
117.235	25.538	1315.475	1079.300
118.249	25.590	1314.088	1078.382
119.264	25.487	1313.932	1077.542
120.279	25.505	1312.924	1076.725
121.293	25.565	1311.934	1076.180
122.308	25.591	1311.193	1075.628
123.322	25.614	1310.321	1074.959
124.337	25.630	1309.709	1074.452
125.352	25.564	1308.744	1073.175
126.366	25.546	1308.279	1072.588
127.381	25.569	1307.315	1071.845
128.395	25.681	1305.804	1071.175
129.410	25.695	1304.964	1070.476
130.424	25.672	1304.330	1069.725
131.439	25.557	1303.892	1068.585
132.454	25.633	1302.987	1068.203
133.468	25.697	1302.332	1067.950
134.483	25.588	1302.142	1067.051
135.497	25.642	1301.526	1066.773
136.512	25.553	1300.429	1065.252
137.527	25.644	1298.933	1064.471
138.541	25.711	1297.267	1063.409
139.556	25.574	1296.775	1062.101
140.570	25.571	1295.856	1061.237
141.585	25.564	1294.744	1060.191
142.600	25.582	1293.683	1059.334
143.614	25.668	1292.667	1058.913
144.629	25.590	1291.691	1057.561
145.643	25.604	1290.419	1056.512
146.658	25.490	1289.717	1055.170
147.673	25.619	1288.660	1054.971
148.687	25.518	1288.050	1053.785
149.702	25.423	1286.631	1051.978
150.716	25.514	1284.972	1051.060
151.731	25.562	1284.647	1050.982
152.746	25.566	1283.278	1049.792
153.760	25.661	1282.092	1049.284
154.775	25.551	1281.053	1047.701
155.789	25.608	1280.121	1047.176
156.804	25.589	1279.454	1046.425
157.819	25.555	1278.374	1045.252
158.833	25.523	1277.715	1044.437
159.848	25.640	1276.960	1044.403
160.862	25.462	1276.825	1043.171
161.877	25.597	1275.806	1043.029
162.892	25.601	1274.648	1042.009
163.906	25.606	1273.886	1041.325
164.921	25.612	1273.294	1040.781
165.935	25.586	1272.596	1039.969
166.950	25.674	1271.838	1039.766
167.964	25.638	1271.180	1038.930
168.979	25.643	1270.721	1038.494
169.994	25.650	1270.058	1037.897
171.008	25.723	1268.874	1037.262
172.023	25.749	1268.294	1036.843
173.037	25.623	1268.332	1036.055
174.052	25.599	1267.446	1035.102
175.067	25.669	1266.172	1034.376
176.081	25.729	1264.992	1033.663
177.096	25.617	1264.853	1032.815
178.110	25.627	1264.046	1032.122
179.125	25.772	1262.235	1031.381
180.140	25.660	1261.719	1030.229
181.154	25.730	1260.386	1029.446
182.169	25.686	1259.364	1028.275
183.183	25.764	1258.276	1027.739
184.198	25.725	1257.443	1026.745
185.213	25.691	1256.665	1025.823
186.227	25.706	1255.842	1025.145
187.242	25.882	1254.292	1024.793
188.256	25.808	1253.907	1023.964
189.271	25.772	1253.359	1023.225
190.286	25.722	1252.502	1022.151
191.300	25.738	1251.953	1021.699
192.315	25.770	1251.199	1021.177
193.329	25.727	1251.041	1020.714
194.344	25.839	1250.585	1020.887
195.359	25.812	1249.690	1019.912
196.373	25.732	1249.894	1019.534
197.388	25.603	1249.634	1018.504
198.402	25.794	1248.790	1018.804
199.417	25.787	1248.297	1018.276
200.432	25.724	1247.641	1017.290
201.446	25.800	1247.026	1017.132
202.461	25.708	1246.418	1016.023
203.475	25.736	1245.197	1015.096
204.490	25.782	1244.471	1014.675
205.504	25.781	1243.404	1013.708
206.519	25.772	1242.473	1012.812
207.534	25.872	1241.313	1012.335
208.548	25.817	1240.692	1011.433
209.563	25.876	1239.911	1011.035
210.577	25.850	1239.179	1010.205
211.592	25.843	1238.702	1009.690
212.607	26.092	1237.072	1009.664
213.621	25.952	1236.546	1008.360
214.636	25.832	1236.393	1007.476
215.650	25.918	1235.084	1006.800
216.665	25.860	1234.240	1005.698
217.680	25.840	1233.179	1004.638
218.694	25.906	1232.374	1004.258
219.709	25.890	1232.097	1003.852
220.723	25.882	1231.219	1003.006
221.738	25.917	1230.049	1002.157
222.753	25.746	1229.734	1000.865
223.767	25.831	1229.190	1000.805
224.782	25.902	1228.787	1000.779
225.796	25.942	1228.389	1000.588
226.811	25.994	1227.276	999.883
227.826	25.968	1226.903	999.348
228.840	26.032	1226.068	998.934
229.855	25.905	1225.736	997.869
230.869	26.020	1224.841	997.688
231.884	25.998	1223.985	996.781
232.899	25.910	1223.686	995.968
233.913	25.998	1223.266	996.023
234.928	26.000	1222.829	995.591
235.942	26.005	1221.727	994.632
236.957	26.089	1220.977	994.395
237.972	26.088	1219.983	993.492
238.986	26.002	1219.699	992.698
240.001	26.069	1219.049	992.452
241.015	26.063	1218.552	991.924
242.030	26.134	1217.225	991.149
243.045	26.101	1216.647	990.410
244.059	26.162	1215.969	990.101
245.074	26.087	1215.458	989.191
246.088	26.062	1214.627	988.287
247.103	26.139	1213.508	987.709
248.117	26.181	1212.824	987.296
249.132	26.272	1211.625	986.729
250.147	26.143	1211.375	985.735
251.161	26.238	1210.645	985.572
252.176	26.255	1209.838	984.920
253.190	26.204	1209.488	984.273
254.205	26.277	1208.721	983.957
255.220	26.116	1208.509	982.821
256.234	26.250	1207.733	982.829
257.249	26.213	1206.965	981.919
258.263	26.144	1206.403	981.002
259.278	26.265	1205.845	981.116
260.293	26.237	1205.388	980.507
261.307	26.358	1204.896	980.673
262.322	26.234	1204.049	979.225
263.336	26.294	1203.590	979.090
264.351	26.229	1203.148	978.294
265.366	26.271	1202.454	977.869
266.380	26.284	1201.685	977.228
267.395	26.377	1200.538	976.713
268.409	26.265	1200.241	975.780
269.424	26.213	1200.022	975.233
270.439	26.351	1199.436	975.415
271.453	26.295	1199.002	974.676
272.468	26.303	1197.598	973.489
273.482	26.268	1197.162	972.862
274.497	26.285	1196.926	972.673
275.512	26.349	1196.187	972.330
276.526	26.372	1195.030	971.428
277.541	26.382	1194.519	970.980
278.555	26.320	1194.525	970.566
279.570	26.357	1193.247	969.644
280.585	26.474	1192.167	969.305
281.599	26.377	1191.497	968.158
282.614	26.427	1190.727	967.711
283.628	26.471	1189.620	966.964
284.643	26.455	1188.851	966.166
285.657	26.394	1188.045	965.097
286.672	26.567	1187.020	965.101
287.687	26.503	1186.680	964.398
288.701	26.512	1186.254	964.014
289.716	26.576	1185.269	963.474
290.730	26.479	1184.483	962.233
291.745	26.447	1184.070	961.642
292.760	26.575	1183.484	961.762
293.774	26.532	1183.103	961.136
294.789	26.627	1182.127	960.764
295.803	26.479	1181.755	959.590
296.818	26.580	1180.905	959.351
297.833	26.579	1180.101	958.606
298.847	26.682	1179.596	958.660
299.862	26.580	1178.463	957.112
300.876	26.607	1178.137	956.903
301.891	26.621	1177.941	956.735
302.906	26.671	1176.555	955.790
303.920	26.714	1175.973	955.456
304.935	26.748	1175.347	955.046
305.949	26.666	1174.784	954.072
306.964	26.772	1174.082	953.973
307.979	26.762	1173.505	953.370
308.993	26.749	1172.874	952.705
310.008	26.848	1172.089	952.499
311.022	26.651	1171.589	950.977
312.037	26.686	1170.893	950.512
313.052	26.831	1169.828	950.323
314.066	26.713	1169.236	949.141
315.081	26.652	1168.562	948.191
316.095	26.774	1167.716	948.056
317.110	26.760	1167.300	947.561
318.125	26.776	1166.638	947.023
319.139	26.838	1165.741	946.534
320.154	26.808	1165.165	945.825
321.168	26.703	1164.828	944.922
322.183	26.793	1164.298	944.877
323.197	26.799	1163.704	944.342
324.212	26.799	1163.065	943.742
325.227	26.838	1162.884	943.716
326.241	26.898	1161.960	943.191
327.256	26.934	1161.095	942.593
328.270	26.943	1160.748	942.274
329.285	26.954	1159.619	941.331
330.300	26.810	1159.000	939.998
331.314	26.911	1157.852	939.509
332.329	27.002	1156.608	938.888
333.343	26.995	1156.045	938.313
334.358	26.964	1155.882	937.938
335.373	26.859	1155.247	936.793
336.387	27.048	1154.437	937.031
337.402	26.972	1153.431	935.738
338.416	27.077	1153.133	935.956
339.431	27.112	1152.013	935.145
340.446	26.974	1151.628	934.037
341.460	27.122	1151.233	934.397
342.475	27.083	1150.310	933.364
343.489	27.109	1149.477	932.741
344.504	27.071	1148.721	931.849
345.519	27.109	1147.903	931.296
346.533	27.188	1146.968	930.864
347.548	27.203	1146.483	930.462
348.562	27.064	1145.922	929.215
349.577	27.219	1144.829	929.035
350.592	27.124	1143.888	927.706
351.606	27.058	1143.611	927.062
352.621	27.107	1143.180	926.883
353.635	27.114	1142.366	926.178
354.650	27.208	1141.558	925.915
355.665	27.127	1141.228	925.156
356.679	27.268	1140.602	925.281
357.694	27.260	1139.749	924.469
358.708	27.225	1139.184	923.752
359.723	27.278	1138.191	923.133
360.738	27.193	1137.743	922.254
361.752	27.165	1137.546	921.873
362.767	27.268	1137.057	921.919
363.781	27.214	1136.369	921.006
364.796	27.373	1135.599	921.103
365.810	27.428	1135.176	920.959
366.825	27.486	1133.820	920.069
367.840	27.508	1133.890	920.156
368.854	27.451	1133.330	919.331
369.869	27.400	1132.791	918.554
370.883	27.358	1131.962	917.589
371.898	27.446	1131.022	917.190
372.913	27.388	1130.820	916.653
373.927	27.285	1129.995	915.387
374.942	27.425	1129.548	915.645
375.956	27.401	1129.263	915.211
376.971	27.615	1128.326	915.449
377.986	27.425	1128.127	914.253
379.000	27.607	1127.394	914.491
380.015	27.477	1127.182	913.582
381.029	27.429	1126.541	912.744
382.044	27.573	1125.571	912.599
383.059	27.550	1125.213	912.114
384.073	27.530	1124.193	911.105
385.088	27.595	1123.280	910.607
386.102	27.572	1122.497	909.776
387.117	27.572	1121.429	908.831
388.132	27.453	1121.041	907.846
389.146	27.628	1120.002	907.792
390.161	27.527	1119.730	906.991
391.175	27.606	1119.013	906.724
392.190	27.627	1118.366	906.224
393.205	27.654	1117.239	905.361
394.219	27.486	1117.075	904.317
395.234	27.624	1116.080	904.114
396.248	27.722	1115.177	903.788
397.263	27.649	1114.301	902.636
398.278	27.653	1114.110	902.422
399.292	27.687	1113.566	902.070
400.307	27.709	1112.623	901.334
401.321	27.767	1111.872	900.932
402.336	27.711	1111.323	900.132
403.350	27.723	1111.005	899.856
404.365	27.752	1110.025	899.126
405.380	27.730	1109.167	898.243
406.394	27.826	1108.476	898.072
407.409	27.988	1108.011	898.412
408.423	27.811	1107.151	896.769
409.438	27.865	1106.228	896.205
410.453	27.922	1105.886	896.129
411.467	27.838	1105.154	895.045
412.482	27.883	1104.442	894.611
413.496	27.788	1103.954	893.673
414.511	27.897	1103.050	893.394
415.526	27.874	1102.643	892.874
416.540	27.950	1102.118	892.741
417.555	27.957	1101.754	892.398
418.569	27.996	1101.330	892.167
419.584	27.931	1101.059	891.553
420.599	27.939	1100.619	891.156
421.613	75.821	1277.238	1296.457
422.628	71.035	1302.964	1296.562
