DTS Sentinel unit serial number:	SN413079Multiplexer serial number:	ORYXHardware model number:	OX4-SRSoftware version number:	ORYX F/W v4.00 Oryx Data Collector v3.7.2.0data status	okinstallation	princeton_trtdifferential loss correction	single-endedforward channel	channel 2reverse channel	N/Adate	2019/09/19time	11:47:35forward acquisition time	60.00reverse acquisition time	0.00gamma	496.2192k internal	0.2339k external	0.2339temperature offset calibration	1.0014default loss term (dB/km)	0.3790temperature slope calibration	1.0000multiplexer offset coefficient	1.0000multiplexer slope coefficient	1.0000fibre end	0.00T internal ref (°C)	25.75T ext. ref 1 (°C)	0.81T ext. ref 2 (°C)	21.63length (m)	temperature (°C)	Stokes	anti-Stokes-747.200	-52.300	-0.161	0.075
-746.185	137.367	-0.020	0.027
-745.171	405.466	0.077	-0.164
-744.156	119.583	-0.088	-0.110
-743.142	1.749	-0.178	0.129
-742.127	38.974	-0.143	0.128
-741.112	-161.055	-0.160	0.008
-740.098	800.000	-0.102	-0.301
-739.083	-148.014	-0.431	-0.036
-738.069	137.876	-0.169	-0.221
-737.054	-76.581	0.241	0.085
-736.039	301.102	-0.097	0.180
-735.025	-141.218	0.344	-0.035
-734.010	-200.000	-0.014	-0.548
-732.996	-200.000	-0.005	0.050
-731.981	195.289	-0.249	0.380
-730.966	-88.390	-0.340	0.102
-729.952	286.731	0.091	-0.165
-728.937	333.178	0.052	-0.100
-727.923	-200.000	-0.009	-0.117
-726.908	-1.313	-0.256	-0.181
-725.894	3.346	-0.336	0.245
-724.879	32.759	0.040	0.035
-723.864	-147.308	-0.122	-0.010
-722.850	782.510	-0.078	0.214
-721.835	-99.188	-0.185	0.047
-720.821	-200.000	0.017	0.352
-719.806	364.860	-0.044	-0.088
-718.791	-41.289	-0.249	0.129
-717.777	-118.937	0.320	-0.056
-716.762	111.296	0.112	-0.135
-715.748	292.139	-0.107	-0.194
-714.733	493.106	-0.063	-0.144
-713.718	800.000	0.148	-0.410
-712.704	-150.678	-0.209	0.016
-711.689	-200.000	-0.018	0.225
-710.675	-200.000	0.010	-0.203
-709.660	-200.000	-0.148	-0.000
-708.645	24.605	-0.199	-0.165
-707.631	106.371	-0.210	-0.249
-706.616	-26.955	-0.196	0.115
-705.602	800.000	0.133	-0.555
-704.587	-200.000	0.003	0.082
-703.572	-200.000	-0.019	0.117
-702.558	40.409	0.175	-0.158
-701.543	-118.254	-0.078	0.014
-700.529	-39.845	-0.292	-0.152
-699.514	-50.642	-0.175	-0.082
-698.499	322.042	-0.153	-0.292
-697.485	-178.083	0.473	-0.011
-696.470	265.739	-0.031	-0.055
-695.456	326.629	0.029	0.055
-694.441	-200.000	0.019	-0.285
-693.426	-200.000	0.020	-0.162
-692.412	48.716	0.097	-0.091
-691.397	-90.064	-0.263	0.077
-690.383	-200.000	0.020	-0.405
-689.368	12.299	0.086	0.066
-688.354	-128.786	-0.265	-0.037
-687.339	73.149	-0.160	0.168
-686.324	150.914	0.216	0.294
-685.310	-137.403	-0.099	-0.011
-684.295	503.421	-0.117	0.270
-683.281	-87.605	0.090	0.027
-682.266	162.342	0.146	-0.205
-681.251	123.561	-0.101	0.127
-680.237	121.951	0.088	0.110
-679.222	-112.992	-0.276	-0.055
-678.208	20.737	-0.267	-0.216
-677.193	800.000	-0.074	0.208
-676.178	124.986	-0.210	0.265
-675.164	123.775	0.200	-0.252
-674.149	-112.985	-0.356	0.070
-673.135	36.356	0.209	0.184
-672.120	800.000	0.096	-0.368
-671.105	-46.089	-0.301	-0.148
-670.091	448.453	-0.075	0.164
-669.076	250.683	0.073	0.124
-668.062	-200.000	-0.021	0.316
-667.047	545.020	-0.055	-0.131
-666.032	95.048	-0.165	-0.188
-665.018	137.185	-0.160	0.209
-664.003	-116.078	0.212	-0.039
-662.989	-31.424	-0.073	-0.041
-661.974	48.577	-0.223	-0.209
-660.959	-130.261	0.182	0.025
-659.945	-126.896	0.066	0.010
-658.930	12.181	0.165	0.127
-657.916	800.000	0.032	-0.101
-656.901	-78.209	-0.160	-0.055
-655.886	247.336	-0.186	-0.314
-654.872	-116.319	0.179	0.033
-653.857	7.460	-0.255	-0.190
-652.843	-200.000	-0.009	0.166
-651.828	-123.741	-0.141	-0.022
-650.814	105.727	-0.219	-0.259
-649.799	800.000	-0.041	-0.163
-648.784	-32.357	-0.178	0.099
-647.770	-12.992	-0.099	0.065
-646.755	158.568	0.052	0.072
-645.741	159.009	0.045	-0.063
-644.726	-76.209	0.334	0.118
-643.711	691.735	-0.120	0.314
-642.697	-38.044	-0.235	0.125
-641.682	-19.649	-0.064	-0.040
-640.668	-79.657	-0.106	0.036
-639.653	167.592	0.072	-0.102
-638.638	352.177	-0.064	-0.126
-637.624	-58.928	-0.069	0.030
-636.609	-200.000	0.001	0.031
-635.595	68.226	-0.087	0.089
-634.580	-138.792	0.186	-0.020
-633.565	800.000	-0.044	-0.137
-632.551	-10.553	-0.310	-0.205
-631.536	42.655	-0.199	-0.181
-630.522	-6.451	0.098	0.066
-629.507	800.000	-0.061	-0.177
-628.492	175.847	-0.079	-0.114
-627.478	406.601	-0.096	0.202
-626.463	21.191	-0.205	-0.166
-625.449	800.000	-0.029	0.103
-624.434	-43.549	0.096	-0.048
-623.419	-32.450	0.081	0.045
-622.405	-57.551	-0.084	0.037
-621.390	-18.003	-0.222	0.139
-620.376	421.286	0.039	-0.083
-619.361	-137.604	-0.263	-0.030
-618.346	143.631	-0.092	-0.123
-617.332	-200.000	-0.027	0.332
-616.317	278.791	-0.103	-0.183
-615.303	739.824	0.123	-0.331
-614.288	-123.212	-0.046	0.007
-613.273	800.000	0.064	0.275
-612.259	-171.970	0.324	-0.010
-611.244	-200.000	0.016	0.118
-610.230	95.974	0.163	-0.185
-609.215	-74.003	-0.166	-0.060
-608.201	71.612	-0.230	-0.239
-607.186	54.641	0.100	0.097
-606.171	-93.690	-0.069	0.019
-605.157	238.802	-0.104	-0.172
-604.142	-61.503	0.139	-0.058
-603.128	-200.000	-0.010	0.089
-602.113	278.118	-0.220	0.390
-601.098	203.957	-0.139	0.215
-600.084	170.098	0.099	0.141
-599.069	-200.000	-0.053	0.237
-598.055	14.053	-0.268	-0.208
-597.040	20.557	0.441	0.356
-596.025	59.148	0.369	0.362
-595.011	419.027	0.153	0.327
-593.996	54.861	-0.119	0.114
-592.982	-200.000	-0.010	-0.103
-591.967	28.916	-0.152	-0.128
-590.952	-200.000	0.005	-0.068
-589.938	169.312	0.050	0.072
-588.923	-62.119	0.199	-0.083
-587.909	322.236	0.063	-0.120
-586.894	24.142	-0.119	-0.098
-585.879	-78.572	-0.316	0.108
-584.865	4.393	0.074	-0.054
-583.850	-95.980	-0.123	0.033
-582.836	98.087	-0.080	-0.092
-581.821	142.223	0.265	0.350
-580.806	105.205	-0.289	-0.340
-579.792	299.046	-0.034	-0.062
-578.777	491.631	-0.022	-0.051
-577.763	800.000	0.045	0.192
-576.748	-200.000	0.007	0.169
-575.733	159.903	-0.414	0.575
-574.719	-24.906	-0.183	-0.108
-573.704	-26.137	-0.058	-0.034
-572.690	800.000	-0.027	0.089
-571.675	463.010	0.082	-0.182
-570.661	-200.000	-0.010	0.209
-569.646	-22.596	0.064	-0.038
-568.631	383.166	0.106	-0.218
-567.617	800.000	0.126	-0.349
-566.602	-200.000	-0.021	-0.172
-565.588	118.245	0.100	0.123
-564.573	-68.405	-0.186	0.072
-563.558	-102.812	0.047	0.011
-562.544	21.438	-0.033	-0.027
-561.529	-200.000	0.025	0.150
-560.515	-134.895	-0.509	0.061
-559.500	-31.580	0.258	0.144
-558.485	-200.000	-0.019	0.209
-557.471	632.664	0.082	0.206
-556.456	-58.383	0.218	-0.095
-555.442	-200.000	0.005	0.166
-554.427	-50.769	-0.105	-0.049
-553.412	-200.000	0.006	0.329
-552.398	-137.426	-0.204	0.023
-551.383	-112.125	0.310	-0.062
-550.369	-200.000	-0.053	0.247
-549.354	178.897	-0.105	0.152
-548.339	48.138	-0.126	0.117
-547.325	137.809	0.094	0.123
-546.310	-200.000	0.017	-0.240
-545.296	-200.000	0.015	0.118
-544.281	-115.827	-0.106	0.020
-543.266	-61.883	-0.159	0.066
-542.252	632.999	0.023	-0.059
-541.237	592.851	0.165	-0.406
-540.223	29.032	-0.050	-0.043
-539.208	437.851	-0.045	0.098
-538.193	150.239	-0.131	0.177
-537.179	237.209	0.087	-0.143
-536.164	-45.428	-0.184	0.091
-535.150	-200.000	0.010	0.066
-534.135	-200.000	0.056	0.246
-533.121	-200.000	0.035	0.169
-532.106	-150.020	0.125	-0.010
-531.091	-184.123	0.078	-0.001
-530.077	-200.000	0.049	0.360
-529.062	276.206	-0.092	-0.163
-528.048	12.019	-0.214	-0.163
-527.033	175.720	0.061	0.088
-526.018	27.122	-0.227	-0.189
-525.004	800.000	-0.086	-0.261
-523.989	-200.000	-0.055	0.368
-522.975	800.000	0.083	-0.340
-521.960	5.050	-0.048	-0.035
-520.945	-26.329	0.150	-0.088
-519.931	-60.714	0.187	-0.079
-518.916	209.752	-0.290	0.451
-517.902	-200.000	0.014	-0.164
-516.887	-0.822	-0.267	-0.188
-515.872	-200.000	-0.021	0.397
-514.858	-73.658	0.027	-0.010
-513.843	161.166	-0.211	-0.293
-512.829	800.000	0.034	-0.093
-511.814	-102.392	-0.146	0.035
-510.799	59.097	0.103	0.101
-509.785	-20.509	-0.220	-0.135
-508.770	-200.000	0.050	0.248
-507.756	346.918	-0.067	0.132
-506.741	149.372	0.139	0.186
-505.726	-188.300	0.038	-0.000
-504.712	800.000	0.067	-0.243
-503.697	-31.805	-0.197	-0.109
-502.683	-108.611	-0.430	0.092
-501.668	-200.000	-0.060	0.313
-500.653	-91.077	0.411	0.117
-499.639	250.292	-0.050	0.084
-498.624	9.023	0.190	-0.143
-497.610	-94.435	-0.334	0.091
-496.595	-14.970	0.166	0.106
-495.581	-175.765	0.213	-0.006
-494.566	-186.101	-0.283	-0.004
-493.551	-61.735	-0.173	-0.072
-492.537	-14.331	-0.168	0.108
-491.522	-39.634	-0.170	0.088
-490.508	-127.402	-0.183	0.026
-489.493	230.602	-0.116	-0.188
-488.478	324.092	-0.124	0.235
-487.464	-200.000	0.035	-0.154
-486.449	-200.000	0.004	-0.117
-485.435	-135.144	-0.661	0.079
-484.420	58.659	0.259	-0.253
-483.405	800.000	-0.028	-0.088
-482.391	-200.000	0.115	-0.621
-481.376	219.549	-0.094	-0.149
-480.362	-74.500	-0.343	0.123
-479.347	140.347	0.230	-0.301
-478.332	113.594	0.047	0.057
-477.318	-42.352	-0.160	-0.081
-476.303	-12.519	0.143	0.093
-475.289	-136.628	0.090	-0.010
-474.274	-132.600	-0.234	-0.030
-473.259	17.255	0.217	0.171
-472.245	156.964	0.057	0.079
-471.230	180.360	-0.115	-0.167
-470.216	123.216	0.157	0.195
-469.201	-90.954	0.191	-0.055
-468.186	800.000	0.010	-0.035
-467.172	-200.000	-0.015	0.131
-466.157	134.358	-0.229	0.295
-465.143	-200.000	-0.030	-0.373
-464.128	389.829	0.160	-0.329
-463.113	800.000	0.085	0.277
-462.099	103.576	0.098	0.114
-461.084	485.325	-0.045	-0.103
-460.070	265.695	0.194	-0.335
-459.055	84.293	0.175	0.189
-458.040	-200.000	0.010	0.077
-457.026	-19.972	-0.109	0.067
-456.011	800.000	0.090	0.378
-454.997	123.149	0.319	0.397
-453.982	-153.707	-0.140	0.010
-452.968	-66.499	0.278	-0.109
-451.953	-200.000	-0.004	-0.181
-450.938	-120.840	-0.057	0.010
-449.924	249.618	0.179	0.300
-448.909	183.486	-0.096	-0.140
-447.895	-47.459	0.332	0.160
-446.880	104.573	0.292	-0.341
-445.865	-151.279	-0.490	-0.036
-444.851	-12.994	-0.185	-0.120
-443.836	529.709	-0.064	-0.150
-442.822	-200.000	0.004	-0.212
-441.807	509.402	0.128	-0.296
-440.792	-127.783	-0.078	-0.011
-439.778	53.694	-0.112	-0.106
-438.763	-140.846	-0.153	-0.016
-437.749	-25.133	0.103	0.060
-436.734	22.284	0.328	0.265
-435.719	-87.601	0.376	-0.113
-434.705	-38.670	0.254	0.133
-433.690	-200.000	0.037	-0.180
-432.676	800.000	-0.096	0.282
-431.661	-159.462	0.259	0.014
-430.646	800.000	-0.018	0.070
-429.632	-134.874	-0.214	0.026
-428.617	-88.887	-0.518	0.152
-427.603	313.531	-0.098	-0.183
-426.588	800.000	0.049	0.181
-425.573	-78.297	-0.211	0.072
-424.559	-95.799	-0.048	-0.013
-423.544	362.991	-0.109	-0.217
-422.530	-29.800	-0.201	0.113
-421.515	537.184	0.126	0.295
-420.500	-192.784	0.300	-0.003
-419.486	8.237	0.120	-0.089
-418.471	-200.000	0.001	0.316
-417.457	59.732	0.044	-0.043
-416.442	800.000	-0.036	0.117
-415.428	105.073	0.202	-0.236
-414.413	19.079	0.113	-0.090
-413.398	-200.000	0.020	0.144
-412.384	-155.497	0.173	0.011
-411.369	-200.000	-0.036	-0.301
-410.355	800.000	0.061	-0.238
-409.340	-7.864	-0.105	0.070
-408.325	800.000	0.125	-0.493
-407.311	29.028	-0.157	0.132
-406.296	195.899	0.024	0.036
-405.282	-97.244	0.398	-0.103
-404.267	-47.622	0.249	0.120
-403.252	-121.933	0.263	0.043
-402.238	-122.069	-0.279	-0.045
-401.223	-79.932	0.155	0.052
-400.209	-200.000	-0.015	0.177
-399.194	267.637	0.143	-0.249
-398.179	614.353	-0.061	-0.150
-397.165	800.000	0.048	-0.148
-396.150	291.237	0.036	-0.065
-395.136	800.000	-0.061	-0.202
-394.121	-55.964	-0.028	-0.012
-393.106	202.175	-0.144	-0.220
-392.092	-63.009	-0.238	-0.097
-391.077	115.686	-0.059	0.071
-390.063	-70.916	0.152	0.057
-389.048	-90.361	0.016	-0.005
-388.033	-70.475	0.239	0.090
-387.019	-63.542	0.150	0.061
-386.004	121.629	0.058	-0.071
-384.990	800.000	0.028	-0.079
-383.975	-42.401	0.299	0.151
-382.960	-72.631	-0.355	0.129
-381.946	-15.422	-0.176	-0.111
-380.931	800.000	0.078	-0.229
-379.917	800.000	-0.059	-0.226
-378.902	195.429	0.053	-0.080
-377.888	-200.000	-0.006	-0.195
-376.873	39.931	-0.345	0.306
-375.858	-200.000	-0.043	-0.294
-374.844	-6.284	0.180	-0.122
-373.829	-32.584	0.114	0.063
-372.815	-136.216	0.294	-0.034
-371.800	72.317	-0.174	-0.179
-370.785	-200.000	0.027	0.187
-369.771	-36.509	-0.086	-0.046
-368.756	-200.000	0.029	-0.352
-367.742	253.537	-0.140	-0.236
-366.727	117.676	0.036	-0.044
-365.712	800.000	0.081	0.256
-364.698	106.658	0.072	0.084
-363.683	-29.050	-0.325	0.184
-362.669	120.396	0.082	-0.100
-361.654	-10.723	-0.151	0.099
-360.639	800.000	-0.046	-0.162
-359.625	-3.486	0.181	-0.124
-358.610	2.996	0.300	0.215
-357.596	64.599	-0.226	-0.225
-356.581	369.460	-0.158	0.316
-355.566	-200.000	-0.016	-0.073
-354.552	-141.154	-0.681	-0.069
-353.537	800.000	0.092	0.301
-352.523	-128.154	-0.164	0.023
-351.508	-43.867	0.123	0.061
-350.493	-66.985	0.388	0.151
-349.479	800.000	0.125	-0.419
-348.464	-54.891	-0.240	-0.107
-347.450	-142.352	0.103	0.010
-346.435	2.854	0.141	0.101
-345.420	51.938	0.217	0.204
-344.406	173.542	0.047	0.068
-343.391	-200.000	-0.017	0.228
-342.377	63.927	0.037	-0.036
-341.362	-71.443	0.080	0.030
-340.348	-36.953	-0.084	0.045
-339.333	-200.000	0.017	-0.123
-338.318	182.805	0.147	0.215
-337.304	-60.140	-0.394	-0.166
-336.289	29.970	0.220	0.185
-335.275	94.723	0.144	-0.162
-334.260	-53.593	-0.017	0.007
-333.245	-28.031	-0.119	-0.068
-332.231	-152.712	-0.096	0.007
-331.216	15.918	0.329	-0.256
-330.202	800.000	0.040	0.129
-329.187	-200.000	0.006	-0.243
-328.172	800.000	-0.068	-0.283
-327.158	-98.769	0.364	0.091
-326.143	292.189	0.151	-0.271
-325.129	-200.000	0.015	0.099
-324.114	-200.000	-0.012	0.128
-323.099	269.125	0.072	-0.125
-322.085	180.835	-0.147	-0.213
-321.070	800.000	-0.158	-0.458
-320.056	-72.635	-0.292	0.106
-319.041	800.000	0.024	-0.098
-318.026	97.414	-0.246	0.279
-317.012	800.000	0.016	-0.042
-315.997	48.158	-0.185	0.171
-314.983	386.011	0.107	0.219
-313.968	-9.584	-0.330	0.217
-312.953	-67.241	-0.080	0.031
-311.939	74.383	0.269	0.279
-310.924	-30.799	-0.159	-0.088
-309.910	31.561	0.212	-0.180
-308.895	-124.291	0.409	0.063
-307.880	800.000	-0.056	-0.227
-306.866	405.721	-0.107	-0.222
-305.851	800.000	0.100	0.272
-304.837	692.015	-0.048	-0.123
-303.822	-200.000	0.025	0.192
-302.807	-200.000	0.044	0.220
-301.793	97.123	0.080	0.091
-300.778	357.461	0.061	-0.119
-299.764	-33.741	-0.125	0.068
-298.749	51.657	0.253	-0.237
-297.735	11.992	0.145	-0.110
-296.720	-122.000	-0.148	0.024
-295.705	-94.290	0.341	-0.092
-294.691	800.000	-0.081	-0.313
-293.676	-47.522	-0.310	-0.148
-292.662	21.545	-0.089	-0.071
-291.647	800.000	-0.119	-0.344
-290.632	800.000	0.014	-0.039
-289.618	19.294	0.153	-0.121
-288.603	-83.308	0.187	-0.059
-287.589	800.000	0.087	-0.250
-286.574	-200.000	0.017	-0.115
-285.559	-62.061	0.074	0.030
-284.545	-200.000	0.001	-0.053
-283.530	-48.287	-0.009	0.004
-282.516	146.534	-0.059	0.079
-281.501	633.866	-0.059	-0.148
-280.486	-2.832	0.199	0.137
-279.472	637.978	-0.090	-0.226
-278.457	221.583	-0.223	-0.353
-277.443	659.725	0.093	-0.235
-276.428	-62.047	0.135	-0.056
-275.413	800.000	-0.072	0.203
-274.399	165.762	0.155	-0.216
-273.384	132.174	-0.155	-0.197
-272.370	79.253	0.264	0.278
-271.355	-133.477	-0.095	0.012
-270.340	-200.000	0.037	0.185
-269.326	800.000	-0.040	-0.144
-268.311	-13.325	-0.272	0.174
-267.297	190.183	0.159	-0.235
-266.282	194.655	0.226	-0.338
-265.267	-36.836	-0.227	-0.120
-264.253	29.415	-0.112	0.094
-263.238	74.237	-0.200	-0.207
-262.224	-43.243	0.160	0.080
-261.209	-12.495	-0.209	0.134
-260.195	-40.292	0.212	0.108
-259.180	-88.338	-0.328	-0.097
-258.165	499.404	-0.037	0.084
-257.151	243.838	-0.070	0.115
-256.136	563.505	0.054	0.128
-255.122	800.000	-0.050	0.151
-254.107	208.861	0.084	0.129
-253.092	-30.668	-0.315	-0.176
-252.078	21.792	0.246	0.197
-251.063	-200.000	-0.056	0.276
-250.049	800.000	-0.119	-0.341
-249.034	-200.000	-0.033	0.202
-248.019	11.503	0.180	0.135
-247.005	58.830	0.146	-0.141
-245.990	-82.560	0.104	0.033
-244.976	-72.584	0.174	-0.063
-243.961	205.542	0.157	-0.241
-242.946	800.000	-0.189	0.515
-241.932	-62.605	0.147	-0.060
-240.917	174.419	-0.240	-0.342
-239.903	-39.712	0.172	-0.089
-238.888	124.686	0.084	0.104
-237.873	391.259	0.297	0.605
-236.859	99.899	-0.103	0.118
-235.844	46.326	0.116	-0.106
-234.830	-200.000	-0.039	-0.183
-233.815	-200.000	0.012	-0.180
-232.800	38.004	0.158	-0.138
-231.786	33.981	-0.066	0.056
-230.771	-200.000	-0.013	-0.191
-229.757	-200.000	-0.017	0.288
-228.742	535.174	-0.115	0.269
-227.727	129.014	0.061	-0.076
-226.713	-200.000	-0.025	-0.125
-225.698	3.012	0.124	0.089
-224.684	-98.214	0.143	-0.036
-223.669	-200.000	0.010	-0.118
-222.655	101.647	-0.131	0.150
-221.640	159.165	0.154	0.210
-220.625	-200.000	0.413	0.001
-219.611	-18.270	0.056	0.034
-218.596	-106.550	-0.261	0.057
-217.582	-47.185	0.127	0.061
-216.567	111.539	-0.143	-0.169
-215.552	-200.000	0.006	0.384
-214.538	-86.944	0.367	0.110
-213.523	-119.892	-0.089	-0.015
-212.509	42.356	-0.187	0.167
-211.494	-178.126	0.347	-0.008
-210.479	23.458	0.065	0.053
-209.465	800.000	-0.043	-0.184
-208.450	800.000	0.091	0.294
-207.436	-150.202	-0.077	-0.006
-206.421	103.685	-0.117	-0.134
-205.406	-85.326	0.071	-0.022
-204.392	189.031	0.246	0.361
-203.377	-44.728	-0.208	-0.102
-202.363	-113.552	0.197	-0.038
-201.348	111.502	0.337	0.399
-200.333	32.338	-0.096	0.082
-199.319	185.931	-0.118	-0.173
-198.304	-56.152	-0.210	0.092
-197.290	-200.000	-0.021	-0.135
-196.275	-53.407	0.071	-0.032
-195.260	415.786	0.191	0.400
-194.246	36.472	0.226	0.196
-193.231	800.000	-0.073	-0.295
-192.217	-86.033	0.388	-0.118
-191.202	-200.000	-0.016	0.091
-190.187	-122.996	0.107	-0.017
-189.173	-126.401	-0.092	-0.013
-188.158	-141.117	-0.009	0.001
-187.144	-105.647	0.166	-0.037
-186.129	98.040	0.010	-0.012
-185.114	14.414	-0.205	0.157
-184.100	412.287	-0.086	-0.180
-183.085	-154.723	0.162	-0.011
-182.071	163.985	-0.141	0.195
-181.056	-200.000	-0.060	0.311
-180.042	-200.000	-0.025	-0.406
-179.027	231.669	0.099	-0.159
-178.012	211.094	-0.116	0.179
-176.998	53.542	0.066	-0.062
-175.983	-88.268	0.023	0.007
-174.969	-200.000	-0.009	-0.102
-173.954	-60.288	-0.172	-0.072
-172.939	-34.269	-0.111	-0.060
-171.925	-178.869	0.215	0.005
-170.910	113.890	0.317	-0.378
-169.896	-1.676	0.377	-0.260
-168.881	-86.118	0.187	0.057
-167.866	-43.851	-0.146	-0.072
-166.852	592.141	-0.103	-0.249
-165.837	-200.000	-0.022	-0.426
-164.823	-42.155	-0.179	-0.090
-163.808	-107.034	-0.266	0.058
-162.793	-200.000	0.020	0.174
-161.779	-33.816	-0.091	0.049
-160.764	163.303	-0.126	0.174
-159.750	-200.000	0.016	0.255
-158.735	-95.100	0.111	-0.029
-157.720	-151.476	0.218	-0.016
-156.706	-74.654	-0.169	0.060
-155.691	-121.478	-0.131	0.021
-154.677	-200.000	0.008	0.430
-153.662	96.714	0.289	0.324
-152.647	27.061	-0.134	-0.111
-151.633	-65.987	-0.243	-0.095
-150.618	81.625	0.287	0.304
-149.604	-122.841	0.530	0.084
-148.589	376.000	-0.075	-0.150
-147.574	172.111	-0.185	0.261
-146.560	-126.550	-0.170	0.025
-145.545	-200.000	0.044	-0.387
-144.531	15.510	-0.130	-0.100
-143.516	12.597	-0.074	-0.056
-142.502	-157.264	0.259	0.015
-141.487	-113.560	-0.153	-0.029
-140.472	385.221	0.027	0.055
-139.458	-100.025	-0.163	0.040
-138.443	-200.000	0.039	0.367
-137.429	-85.151	0.136	-0.042
-136.414	77.888	-0.334	-0.349
-135.399	306.582	0.166	0.302
-134.385	-12.539	-0.077	-0.049
-133.370	242.565	0.113	-0.185
-132.356	800.000	-0.074	-0.212
-131.341	-200.000	-0.027	0.319
-130.326	800.000	-0.027	-0.118
-129.312	-127.118	0.202	-0.029
-128.297	-200.000	-0.032	0.255
-127.283	191.573	0.179	0.263
-126.268	91.997	-0.333	-0.367
-125.253	-31.709	-0.063	-0.035
-124.239	800.000	-0.051	0.218
-123.224	12.055	-0.155	0.117
-122.210	86.278	0.169	0.182
-121.195	-194.778	0.335	0.003
-120.180	283.168	-0.109	-0.192
-119.166	44.869	-0.283	0.255
-118.151	-9.984	0.291	-0.189
-117.137	119.684	0.315	-0.382
-116.122	-70.727	-0.165	-0.061
-115.107	4.660	0.270	-0.194
-114.093	800.000	0.035	0.138
-113.078	412.980	-0.087	-0.181
-112.064	-9.393	0.180	0.118
-111.049	-31.582	-0.213	0.117
-110.034	-31.351	-0.166	-0.091
-109.020	18.174	-0.050	-0.039
-108.005	181.081	-0.041	-0.059
-106.991	85.371	-0.235	0.252
-105.976	-76.053	0.232	0.080
-104.962	100.622	0.184	0.209
-103.947	-4.655	0.242	0.163
-102.932	-200.000	0.014	0.377
-101.918	28.588	-0.221	-0.183
-100.903	-140.627	0.342	-0.035
-99.889	294.386	0.055	0.098
-98.874	181.834	0.323	0.466
-97.859	-61.101	0.172	0.071
-96.845	-200.000	0.005	-0.111
-95.830	-200.000	-0.013	-0.169
-94.816	531.266	-0.097	-0.224
-93.801	-34.209	-0.137	-0.073
-92.786	530.599	-0.189	0.437
-91.772	800.000	-0.094	0.341
-90.757	-84.010	0.026	0.008
-89.743	-91.982	-0.291	-0.081
-88.728	-123.613	0.267	0.041
-87.713	-24.993	0.267	-0.155
-86.699	-101.093	0.167	-0.040
-85.684	507.363	-0.042	-0.096
-84.670	-200.000	-0.068	0.352
-83.655	-101.722	0.083	-0.020
-82.640	12.405	-0.215	-0.162
-81.626	800.000	0.026	0.075
-80.611	800.000	0.010	0.030
-79.597	443.478	0.174	-0.373
-78.582	-11.734	-0.146	-0.094
-77.567	40.651	-0.146	-0.128
-76.553	490.065	0.106	0.236
-75.538	6.695	-0.068	0.049
-74.524	-119.763	0.204	-0.034
-73.509	73.899	-0.235	-0.241
-72.494	-90.217	-0.332	0.094
-71.480	-200.000	-0.005	-0.044
-70.465	157.476	0.362	-0.490
-69.451	157.875	-0.391	0.529
-68.436	273.651	0.159	-0.275
-67.422	241.602	0.234	-0.381
-66.407	-200.000	-0.027	0.289
-65.392	-21.806	0.265	0.158
-64.378	196.575	0.214	0.318
-63.363	-105.749	-0.252	0.056
-62.349	529.870	-0.108	0.248
-61.334	58.512	-1.188	-1.138
-60.319	20.884	0.360	0.285
-59.305	459.357	-0.624	-1.356
-58.290	180.637	0.999	1.432
-57.276	364.205	0.761	1.495
-56.261	-200.000	117.186	620.481
-55.246	410.995	1555.774	3221.875
-54.232	139.195	2750.919	3531.737
-53.217	92.550	2331.531	2567.279
-52.203	34.822	1933.038	1650.417
-51.188	28.823	1723.641	1425.220
-50.173	26.419	1682.300	1372.756
-49.159	46.103	1740.670	1573.056
-48.144	44.682	1753.976	1574.043
-47.130	28.362	1710.886	1410.896
-46.115	25.767	1696.055	1378.770
-45.100	25.653	1691.226	1373.922
-44.086	25.687	1688.591	1371.986
-43.071	25.611	1685.829	1369.111
-42.057	25.580	1683.515	1366.941
-41.042	25.672	1681.668	1366.086
-40.027	25.599	1679.803	1363.965
-39.013	25.628	1677.514	1362.265
-37.998	25.638	1676.178	1361.207
-36.984	25.622	1675.079	1360.140
-35.969	25.658	1673.616	1359.170
-34.954	25.814	1671.478	1358.554
-33.940	25.667	1670.212	1356.365
-32.925	25.788	1667.841	1355.292
-31.911	25.770	1666.498	1354.017
-30.896	25.717	1664.916	1352.275
-29.881	25.643	1663.363	1350.407
-28.867	25.801	1661.356	1349.908
-27.852	25.734	1660.327	1348.517
-26.838	25.785	1658.448	1347.315
-25.823	25.773	1657.421	1346.338
-24.809	25.756	1656.263	1345.220
-23.794	25.702	1655.167	1343.872
-22.779	25.810	1653.276	1343.086
-21.765	25.781	1651.675	1341.521
-20.750	25.745	1650.191	1339.992
-19.736	25.847	1648.283	1339.149
-18.721	25.845	1646.720	1337.810
-17.706	25.704	1645.664	1335.850
-16.692	25.788	1643.840	1334.944
-15.677	25.751	1643.060	1333.983
-14.663	25.827	1640.917	1332.754
-13.648	25.849	1639.578	1331.773
-12.633	25.820	1638.052	1330.271
-11.619	25.753	1636.091	1328.131
-10.604	25.756	1634.830	1327.071
-9.590	25.781	1634.118	1326.631
-8.575	25.814	1632.561	1325.557
-7.560	25.807	1631.239	1324.374
-6.546	25.786	1630.170	1323.305
-5.531	25.784	1629.209	1322.455
-4.517	25.698	1627.834	1320.657
-3.502	25.835	1626.374	1320.420
-2.487	25.851	1624.473	1318.945
-1.473	25.699	1612.986	1308.461
-0.458	23.039	1594.487	1274.257
0.556	18.611	1596.090	1243.583
1.571	16.190	1621.270	1245.237
2.586	15.790	1633.214	1251.329
3.600	14.511	1578.043	1199.753
4.615	8.287	1468.541	1074.616
5.629	2.063	1406.647	989.002
6.644	0.912	1399.149	976.222
7.659	0.847	1398.344	975.156
8.673	0.771	1397.502	973.992
9.688	0.720	1394.842	971.725
10.702	0.621	1391.464	968.651
11.717	3.551	1396.066	990.599
12.731	10.681	1406.125	1043.618
13.746	15.919	1414.070	1083.200
14.761	17.250	1414.808	1092.232
15.775	16.743	1413.238	1087.664
16.790	15.720	1410.764	1079.108
17.804	15.008	1408.350	1072.598
18.819	14.563	1407.246	1068.815
19.834	14.366	1405.630	1066.234
20.848	14.050	1404.667	1063.387
21.863	13.770	1402.876	1060.150
22.877	13.593	1401.865	1058.158
23.892	13.546	1401.323	1057.355
24.907	13.515	1400.164	1056.190
25.921	13.695	1398.662	1056.111
26.936	13.666	1398.122	1055.423
27.950	13.695	1397.191	1054.816
28.965	13.725	1396.413	1054.323
29.980	13.822	1395.279	1053.988
30.994	13.835	1394.629	1053.488
32.009	13.816	1393.606	1052.503
33.023	13.876	1392.006	1051.582
34.038	13.767	1390.925	1049.980
35.053	13.860	1389.543	1049.434
36.067	13.795	1388.582	1048.201
37.082	13.677	1388.185	1047.068
38.096	13.779	1386.869	1046.623
39.111	13.810	1386.119	1046.157
40.126	13.796	1385.100	1045.210
41.140	13.700	1384.384	1043.970
42.155	13.657	1383.811	1043.178
43.169	13.552	1384.289	1042.787
44.184	13.578	1383.565	1042.310
45.199	13.572	1383.534	1042.159
46.213	13.622	1382.778	1041.812
47.228	13.658	1381.701	1041.136
48.242	13.703	1380.080	1040.100
49.257	13.726	1378.778	1039.172
50.271	13.726	1377.192	1037.887
51.286	13.680	1376.213	1036.765
52.301	13.713	1374.715	1035.754
53.315	13.764	1373.191	1034.830
54.330	13.665	1372.651	1033.717
55.344	13.668	1371.327	1032.644
56.359	13.601	1370.117	1031.226
57.374	13.569	1369.626	1030.570
58.388	13.556	1369.220	1030.091
59.403	13.454	1368.643	1028.932
60.417	13.604	1366.586	1028.227
61.432	13.542	1366.055	1027.351
62.447	13.554	1364.878	1026.445
63.461	13.444	1364.469	1025.370
64.476	13.602	1362.980	1025.138
65.490	13.570	1361.626	1023.826
66.505	13.586	1360.088	1022.679
67.520	13.602	1358.937	1021.822
68.534	13.539	1358.057	1020.683
69.549	13.543	1356.961	1019.791
70.563	13.647	1355.592	1019.311
71.578	13.539	1354.729	1017.912
72.593	13.556	1353.976	1017.359
73.607	13.519	1353.143	1016.416
74.622	13.547	1351.845	1015.521
75.636	13.470	1351.511	1014.709
76.651	13.567	1350.271	1014.285
77.666	13.520	1350.160	1013.823
78.680	13.581	1349.427	1013.556
79.695	13.482	1348.695	1012.311
80.709	13.590	1347.531	1012.005
81.724	13.482	1347.248	1011.044
82.739	13.491	1346.044	1010.108
83.753	13.653	1344.880	1010.134
84.768	13.716	1344.040	1009.794
85.782	13.739	1342.742	1008.872
86.797	13.622	1341.342	1007.019
87.812	13.610	1340.288	1006.067
88.826	13.604	1338.986	1004.960
89.841	13.733	1337.815	1004.780
90.855	13.743	1336.461	1003.734
91.870	13.726	1335.887	1003.110
92.884	13.724	1335.469	1002.691
93.899	13.729	1334.631	1002.007
94.914	13.934	1333.105	1002.012
95.928	13.866	1332.693	1001.199
96.943	13.798	1331.374	999.709
97.957	13.751	1330.614	998.769
98.972	13.742	1329.829	998.038
99.987	13.828	1328.291	997.311
101.001	13.806	1327.631	996.598
102.016	13.804	1326.675	995.777
103.030	13.702	1326.042	994.601
104.045	13.800	1324.855	994.209
105.060	13.627	1323.439	992.029
106.074	13.661	1322.132	991.162
107.089	13.557	1320.797	989.450
108.103	13.573	1319.484	988.479
109.118	13.545	1318.121	987.202
110.133	13.545	1317.058	986.320
111.147	13.632	1315.095	985.279
112.162	13.753	1313.557	984.754
113.176	13.663	1312.621	983.436
114.191	13.707	1311.684	982.905
115.206	13.632	1310.798	981.711
116.220	13.691	1309.216	980.785
117.235	13.711	1308.146	980.020
118.249	13.688	1307.469	979.286
119.264	13.733	1305.845	978.248
120.279	13.656	1304.940	977.033
121.293	13.648	1303.501	975.820
122.308	13.601	1302.685	974.848
123.322	13.564	1301.508	973.664
124.337	13.634	1300.465	973.209
125.352	13.688	1299.464	972.691
126.366	13.606	1298.404	971.330
127.381	13.675	1297.067	970.648
128.395	13.598	1296.055	969.354
129.410	13.619	1294.870	968.501
130.424	13.719	1293.968	968.325
131.439	13.742	1292.980	967.637
132.454	13.696	1292.218	966.715
133.468	13.659	1291.603	965.950
134.483	13.742	1290.771	965.727
135.497	13.716	1289.546	964.576
136.512	13.686	1288.202	963.310
137.527	13.749	1286.335	962.195
138.541	13.701	1285.280	961.040
139.556	13.707	1283.920	959.971
140.570	13.623	1283.484	959.078
141.585	13.755	1281.710	958.427
142.600	13.814	1280.566	957.826
143.614	13.814	1279.596	957.022
144.629	13.866	1278.189	956.180
145.643	13.881	1277.345	955.553
146.658	13.927	1275.592	954.417
147.673	13.776	1274.871	952.928
148.687	13.807	1273.622	952.087
149.702	13.703	1272.328	950.441
150.716	13.713	1270.758	949.241
151.731	13.843	1269.512	948.971
152.746	13.799	1268.161	947.627
153.760	13.856	1266.857	946.893
154.775	13.838	1265.810	945.923
155.789	13.857	1264.664	945.091
156.804	13.976	1263.739	944.995
157.819	13.888	1262.903	943.787
158.833	13.964	1262.100	943.531
159.848	13.971	1260.922	942.607
160.862	14.134	1259.542	942.415
161.877	13.949	1258.650	940.616
162.892	13.955	1257.714	939.870
163.906	13.889	1256.785	938.721
164.921	13.903	1255.733	937.928
165.935	13.945	1254.871	937.442
166.950	13.918	1254.473	936.909
167.964	13.983	1253.606	936.544
168.979	13.964	1252.632	935.628
169.994	14.011	1251.836	935.213
171.008	14.019	1251.064	934.598
172.023	14.034	1250.164	933.926
173.037	14.216	1248.773	933.827
174.052	14.088	1248.133	932.547
175.067	14.096	1247.115	931.751
176.081	14.046	1246.418	930.869
177.096	14.034	1245.607	930.113
178.110	14.018	1244.510	929.117
179.125	14.151	1243.133	928.754
180.140	14.151	1241.507	927.456
181.154	14.033	1240.665	926.086
182.169	14.194	1239.271	925.862
183.183	14.215	1238.226	925.118
184.198	14.224	1237.030	924.189
185.213	14.268	1235.602	923.286
186.227	14.251	1235.166	922.781
187.242	14.254	1233.604	921.553
188.256	14.366	1232.586	921.329
189.271	14.284	1231.869	920.260
190.286	14.189	1230.874	918.911
191.300	14.261	1229.968	918.550
192.315	14.222	1229.153	917.642
193.329	14.116	1228.994	916.860
194.344	14.206	1228.279	916.742
195.359	14.238	1227.624	916.347
196.373	14.270	1227.002	915.978
197.388	14.331	1226.627	915.954
198.402	14.351	1225.904	915.443
199.417	14.401	1224.741	914.764
200.432	14.427	1224.140	914.377
201.446	14.454	1223.630	914.067
202.461	14.479	1222.357	913.171
203.475	14.476	1221.534	912.460
204.490	14.500	1220.370	911.638
205.504	14.548	1218.815	910.661
206.519	14.450	1217.697	909.210
207.534	14.413	1216.659	908.151
208.548	14.363	1215.565	906.983
209.563	14.400	1214.936	906.633
210.577	14.477	1213.793	906.118
211.592	14.577	1212.819	905.852
212.607	14.659	1211.638	905.337
213.621	14.583	1211.068	904.417
214.636	14.582	1210.322	903.778
215.650	14.558	1209.289	902.795
216.665	14.606	1208.393	902.307
217.680	14.621	1207.589	901.707
218.694	14.785	1206.482	901.689
219.709	14.777	1205.799	901.052
220.723	14.747	1204.991	900.207
221.738	14.724	1204.336	899.514
222.753	14.756	1203.651	899.094
223.767	14.719	1202.910	898.264
224.782	14.783	1201.928	897.796
225.796	14.854	1201.619	897.868
226.811	14.826	1201.062	897.219
227.826	14.903	1199.772	896.591
228.840	14.787	1199.321	895.552
229.855	14.923	1198.690	895.729
230.869	14.929	1197.210	894.577
231.884	14.906	1196.849	894.103
232.899	14.791	1195.989	892.769
233.913	14.794	1195.513	892.350
234.928	14.832	1194.590	891.784
235.942	14.781	1193.997	890.992
236.957	14.854	1192.885	890.472
237.972	14.732	1192.415	889.393
238.986	14.763	1191.908	889.101
240.001	14.920	1190.805	889.035
241.015	14.985	1189.581	888.387
242.030	14.963	1189.049	887.792
243.045	15.001	1188.258	887.326
244.059	14.917	1187.994	886.605
245.074	14.984	1186.399	885.693
246.088	15.029	1185.798	885.404
247.103	14.851	1185.418	884.096
248.117	15.090	1184.153	884.338
249.132	15.110	1183.732	884.054
250.147	15.150	1183.026	883.657
251.161	15.153	1182.021	882.845
252.176	15.133	1181.393	882.191
253.190	15.268	1180.634	882.256
254.205	15.282	1180.122	881.874
255.220	15.331	1179.583	881.648
256.234	15.225	1179.172	880.707
257.249	15.427	1177.829	880.684
258.263	15.394	1177.110	879.896
259.278	15.313	1177.038	879.340
260.293	15.401	1176.349	879.207
261.307	15.400	1175.702	878.644
262.322	15.419	1174.827	878.010
263.336	15.482	1174.038	877.674
264.351	15.516	1173.368	877.268
265.366	15.589	1172.796	877.149
266.380	15.393	1172.499	875.822
267.395	15.529	1171.095	875.404
268.409	15.464	1170.582	874.607
269.424	15.416	1170.154	873.958
270.439	15.509	1169.371	873.782
271.453	15.472	1168.895	873.155
272.468	15.450	1167.740	872.101
273.482	15.552	1166.906	871.933
274.497	15.589	1166.057	871.414
275.512	15.531	1165.902	870.916
276.526	15.550	1164.867	870.168
277.541	15.503	1164.224	869.367
278.555	15.542	1163.455	868.919
279.570	15.712	1162.471	868.981
280.585	15.687	1161.916	868.362
281.599	15.718	1160.604	867.467
282.614	15.720	1159.817	866.809
283.628	15.620	1159.245	865.792
284.643	15.615	1158.211	864.919
285.657	15.751	1157.180	864.769
286.672	15.779	1155.990	863.949
287.687	15.780	1154.955	863.102
288.701	15.754	1154.733	862.726
289.716	15.714	1153.974	861.878
290.730	15.866	1153.020	861.869
291.745	15.866	1152.372	861.306
292.760	15.818	1151.797	860.555
293.774	15.805	1150.907	859.747
294.789	15.940	1150.573	860.111
295.803	15.770	1150.022	858.755
296.818	15.923	1148.866	858.599
297.833	15.838	1148.451	857.776
298.847	15.909	1147.586	857.416
299.862	15.924	1146.261	856.427
300.876	15.850	1145.954	855.744
301.891	16.011	1145.269	855.979
302.906	15.972	1144.619	855.217
303.920	16.034	1143.996	854.991
304.935	16.096	1143.037	854.511
305.949	16.121	1142.454	854.128
306.964	16.060	1142.169	853.530
307.979	16.108	1141.240	853.005
308.993	16.018	1140.885	852.206
310.008	16.099	1139.654	851.624
311.022	16.146	1139.219	851.459
312.037	16.201	1137.846	850.637
313.052	16.204	1136.727	849.739
314.066	16.254	1135.729	849.167
315.081	16.227	1135.043	848.444
316.095	16.205	1134.392	847.772
317.110	16.214	1133.423	847.016
318.125	16.125	1133.249	846.366
319.139	16.197	1132.255	845.910
320.154	16.214	1131.435	845.306
321.168	16.255	1130.934	845.067
322.183	16.236	1130.401	844.496
323.197	16.075	1130.268	843.515
324.212	16.307	1129.148	843.763
325.227	16.292	1128.756	843.324
326.241	16.355	1127.737	842.802
327.256	16.289	1127.062	841.894
328.270	16.266	1125.913	840.849
329.285	16.263	1125.168	840.200
330.300	16.206	1124.635	839.442
331.314	16.303	1123.551	839.045
332.329	16.329	1122.313	838.175
333.343	16.291	1121.551	837.341
334.358	16.368	1120.427	836.808
335.373	16.421	1120.420	836.990
336.387	16.446	1119.390	836.274
337.402	16.365	1118.702	835.284
338.416	16.540	1117.562	835.225
339.431	16.518	1116.891	834.540
340.446	16.444	1116.605	833.887
341.460	16.571	1115.679	833.750
342.475	16.559	1115.017	833.122
343.489	16.696	1113.974	832.939
344.504	16.549	1113.347	831.677
345.519	16.583	1112.363	831.036
346.533	16.606	1111.719	830.593
347.548	16.743	1110.615	830.366
348.562	16.804	1109.744	829.943
349.577	16.788	1108.802	829.086
350.592	16.849	1108.290	828.926
351.606	16.696	1107.836	827.765
352.621	16.733	1106.877	827.158
353.635	16.706	1106.302	826.523
354.650	16.576	1105.757	825.408
355.665	16.748	1104.849	825.497
356.679	16.668	1104.402	824.698
357.694	16.771	1103.737	824.628
358.708	16.798	1102.795	823.985
359.723	16.824	1102.294	823.662
360.738	16.756	1101.672	822.793
361.752	16.922	1100.762	822.847
362.767	16.814	1100.909	822.362
363.781	16.851	1099.983	821.777
364.796	16.937	1099.367	821.659
365.810	17.004	1098.882	821.548
366.825	17.015	1098.319	821.110
367.840	16.984	1097.852	820.535
368.854	16.917	1097.095	819.575
369.869	17.030	1096.203	819.381
370.883	17.196	1094.792	819.057
371.898	17.113	1094.622	818.458
372.913	16.963	1094.213	817.354
373.927	17.018	1093.500	817.014
374.942	17.083	1093.104	816.959
375.956	17.190	1092.197	816.723
376.971	17.231	1091.242	816.137
377.986	17.171	1091.366	815.867
379.000	17.264	1090.512	815.604
380.015	17.241	1089.911	814.971
381.029	17.190	1089.077	814.029
382.044	17.154	1088.699	813.503
383.059	17.248	1087.839	813.236
384.073	17.272	1086.889	812.572
385.088	17.173	1086.302	811.587
386.102	17.296	1085.096	811.200
387.117	17.261	1084.138	810.247
388.132	17.351	1083.443	810.085
389.146	17.263	1082.461	808.861
390.161	17.355	1081.814	808.741
391.175	17.254	1081.006	807.586
392.190	17.453	1080.275	807.915
393.205	17.355	1079.741	806.977
394.219	17.386	1078.850	806.387
395.234	17.366	1078.154	805.698
396.248	17.363	1077.127	804.846
397.263	17.352	1075.586	803.574
398.278	17.430	1075.062	803.478
399.292	17.381	1074.691	802.901
400.307	17.420	1073.682	802.258
401.321	17.317	1073.599	801.639
402.336	17.389	1072.878	801.370
403.350	17.385	1072.086	800.688
404.365	17.416	1071.004	799.955
405.380	17.438	1070.670	799.738
406.394	17.512	1069.591	799.209
407.409	17.585	1068.847	798.925
408.423	17.563	1068.314	798.353
409.438	17.664	1067.380	798.056
410.453	17.670	1066.819	797.597
411.467	17.644	1066.250	796.976
412.482	17.730	1065.587	796.812
413.496	17.780	1064.632	796.261
414.511	17.696	1064.463	795.675
415.526	17.822	1063.432	795.418
416.540	17.828	1062.938	795.007
417.555	17.857	1062.522	794.759
418.569	17.777	1062.092	793.997
419.584	17.854	1061.636	793.945
420.599	17.860	1060.881	793.338
421.613	107.112	1330.120	1484.080
422.628	98.872	1369.325	1484.166
