DTS Sentinel unit serial number:	SN413079Multiplexer serial number:	ORYXHardware model number:	OX4-SRSoftware version number:	ORYX F/W v4.00 Oryx Data Collector v3.7.2.0data status	okinstallation	princeton_trtdifferential loss correction	single-endedforward channel	channel 2reverse channel	N/Adate	2019/09/16time	18:55:35forward acquisition time	60.00reverse acquisition time	0.00gamma	496.2192k internal	0.2323k external	0.2323temperature offset calibration	0.9965default loss term (dB/km)	0.3790temperature slope calibration	1.0000multiplexer offset coefficient	1.0000multiplexer slope coefficient	1.0000fibre end	0.00T internal ref (°C)	35.75T ext. ref 1 (°C)	0.05T ext. ref 2 (°C)	29.06length (m)	temperature (°C)	Stokes	anti-Stokes-747.200	22.356	0.285	-0.235
-746.185	-67.016	-0.546	0.218
-745.171	324.053	-0.099	0.190
-744.156	76.362	-0.151	-0.161
-743.142	-85.517	0.025	-0.008
-742.127	183.304	0.059	0.088
-741.112	107.478	0.207	-0.248
-740.098	-78.340	-0.044	-0.015
-739.083	-66.820	0.421	-0.168
-738.069	14.939	0.431	0.341
-737.054	70.839	0.147	0.154
-736.039	356.051	-0.106	0.212
-735.025	-200.000	0.004	0.496
-734.010	551.051	-0.214	0.520
-732.996	272.309	0.104	-0.185
-731.981	-102.072	-0.331	0.080
-730.966	497.170	-0.101	0.234
-729.952	113.422	0.183	-0.224
-728.937	-200.000	-0.038	-0.409
-727.923	780.991	-0.076	0.209
-726.908	-25.208	-0.301	0.180
-725.894	-29.978	0.114	0.065
-724.879	-45.755	-0.096	0.048
-723.864	-103.302	0.056	0.013
-722.850	-140.049	-0.286	0.030
-721.835	519.468	0.102	-0.242
-720.821	-30.783	0.198	-0.113
-719.806	800.000	-0.125	-0.428
-718.791	98.496	-0.116	0.134
-717.777	-13.397	-0.249	-0.163
-716.762	216.334	0.143	-0.229
-715.748	800.000	-0.084	0.234
-714.733	800.000	0.030	0.100
-713.718	-200.000	0.015	-0.242
-712.704	-24.828	-0.152	0.091
-711.689	-54.075	-0.133	0.061
-710.675	1.371	0.147	0.107
-709.660	-200.000	0.031	-0.330
-708.645	30.162	-0.420	0.362
-707.631	-200.000	-0.008	0.123
-706.616	-70.453	0.186	0.071
-705.602	-187.577	-0.124	-0.002
-704.587	550.339	-0.080	-0.194
-703.572	800.000	0.058	0.212
-702.558	-98.772	-0.082	-0.021
-701.543	41.559	-0.082	-0.074
-700.529	248.393	0.074	-0.127
-699.514	228.975	0.096	-0.158
-698.499	282.305	0.135	-0.245
-697.485	394.007	-0.082	-0.172
-696.470	201.234	0.162	0.252
-695.456	-55.804	0.095	-0.043
-694.441	346.998	0.106	-0.211
-693.426	-200.000	0.048	0.255
-692.412	800.000	0.039	-0.109
-691.397	306.580	-0.070	-0.131
-690.383	-132.698	0.294	-0.038
-689.368	89.300	-0.210	-0.235
-688.354	-27.549	0.085	0.050
-687.339	-200.000	-0.012	0.276
-686.324	11.378	0.108	0.084
-685.310	800.000	0.107	0.367
-684.295	56.465	-0.109	0.107
-683.281	353.887	0.054	-0.109
-682.266	-68.652	0.222	0.087
-681.251	5.473	-0.342	-0.254
-680.237	125.895	-0.141	-0.180
-679.222	76.207	0.193	0.206
-678.208	-200.000	0.007	0.130
-677.193	-94.484	0.335	-0.092
-676.178	-90.437	-0.057	0.016
-675.164	-74.361	-0.366	-0.133
-674.149	649.597	0.126	-0.326
-673.135	517.496	-0.147	-0.347
-672.120	-200.000	0.007	-0.218
-671.105	-94.836	0.334	-0.091
-670.091	-21.668	-0.129	-0.079
-669.076	-5.357	0.025	-0.018
-668.062	87.583	0.029	0.032
-667.047	-102.450	0.154	0.037
-666.032	800.000	0.138	-0.503
-665.018	800.000	-0.012	0.035
-664.003	-84.681	-0.276	-0.088
-662.989	515.031	0.114	0.267
-661.974	-81.200	-0.081	0.027
-660.959	366.205	0.051	-0.104
-659.945	86.527	0.144	0.160
-658.930	42.449	0.079	0.073
-657.916	-82.530	0.367	0.120
-656.901	69.415	-0.148	-0.154
-655.886	490.642	-0.089	-0.205
-654.872	-200.000	-0.101	-0.459
-653.857	73.158	0.082	-0.086
-652.843	56.652	-0.125	0.123
-651.828	-94.269	-0.221	0.061
-650.814	481.810	0.133	0.304
-649.799	-166.033	0.168	-0.007
-648.784	-168.568	0.158	0.006
-647.770	-200.000	0.003	0.090
-646.755	-119.056	-0.255	0.045
-645.741	-200.000	0.055	0.445
-644.726	-200.000	0.060	-0.351
-643.711	-200.000	-0.004	-0.267
-642.697	-200.000	-0.024	0.128
-641.682	-200.000	-0.008	-0.121
-640.668	800.000	-0.057	-0.219
-639.653	-97.857	0.352	0.092
-638.638	130.773	-0.122	-0.158
-637.624	-150.040	0.146	0.011
-636.609	174.577	0.116	-0.168
-635.595	344.261	-0.065	0.128
-634.580	79.642	0.166	-0.180
-633.565	549.067	0.027	0.064
-632.551	-69.291	-0.184	-0.071
-631.536	6.969	-0.146	-0.109
-630.522	491.340	-0.115	0.265
-629.507	-0.887	0.024	-0.017
-628.492	-192.368	0.301	-0.003
-627.478	-171.027	-0.211	-0.007
-626.463	-200.000	-0.041	-0.242
-625.449	-35.454	-0.181	0.099
-624.434	506.778	-0.077	-0.178
-623.419	302.956	-0.046	-0.086
-622.405	800.000	0.034	-0.102
-621.390	111.241	0.189	-0.228
-620.376	236.348	-0.015	0.025
-619.361	-200.000	0.039	-0.237
-618.346	-76.408	0.283	-0.100
-617.332	800.000	0.062	-0.223
-616.317	-18.135	-0.110	-0.069
-615.303	-78.841	-0.103	-0.035
-614.288	-200.000	-0.008	-0.303
-613.273	1.567	0.097	0.070
-612.259	-200.000	0.002	-0.347
-611.244	-47.336	0.268	-0.131
-610.230	800.000	-0.075	0.211
-609.215	-116.187	-0.362	-0.067
-608.201	-132.774	-0.180	-0.023
-607.186	416.121	-0.045	0.096
-606.171	33.420	0.114	0.099
-605.157	800.000	-0.028	0.108
-604.142	31.336	0.130	0.112
-603.128	-140.097	0.337	0.036
-602.113	-83.115	-0.205	0.066
-601.098	-141.154	0.389	0.040
-600.084	-200.000	-0.039	-0.232
-599.069	-120.279	-0.045	0.008
-598.055	709.966	0.078	0.206
-597.040	-200.000	0.035	-0.343
-596.025	68.477	-0.106	-0.109
-595.011	298.981	-0.101	0.186
-593.996	246.711	0.061	0.103
-592.982	767.614	0.070	0.191
-591.967	-200.000	-0.051	0.227
-590.952	32.516	-0.284	-0.246
-589.938	119.410	-0.100	-0.124
-588.923	154.332	-0.067	0.093
-587.909	-200.000	0.011	-0.294
-586.894	223.279	0.128	-0.207
-585.879	-37.141	-0.182	-0.098
-584.865	42.609	0.170	-0.156
-583.850	-200.000	0.040	-0.367
-582.836	134.662	0.151	0.197
-581.821	173.248	0.109	0.158
-580.806	800.000	0.039	0.116
-579.792	800.000	-0.128	0.383
-578.777	18.492	0.181	-0.145
-577.763	-22.896	-0.138	-0.084
-576.748	-81.361	-0.111	-0.037
-575.733	-89.237	-0.299	-0.088
-574.719	800.000	0.044	0.133
-573.704	215.716	0.046	0.073
-572.690	79.980	-0.095	0.102
-571.675	-200.000	-0.035	-0.278
-570.661	-16.806	0.071	-0.045
-569.646	370.382	0.096	-0.195
-568.631	-70.459	0.171	-0.065
-567.617	800.000	0.079	0.285
-566.602	-141.508	-0.090	-0.009
-565.588	141.243	0.082	0.109
-564.573	-200.000	-0.012	-0.141
-563.558	80.103	-0.081	0.087
-562.544	354.195	-0.027	-0.053
-561.529	-81.532	0.023	0.008
-560.515	-200.000	-0.108	-0.504
-559.500	-174.018	-0.276	0.008
-558.485	388.533	0.087	0.181
-557.471	404.402	-0.034	0.071
-556.456	187.580	-0.034	0.050
-555.442	6.216	0.051	0.038
-554.427	340.861	-0.119	0.233
-553.412	58.198	0.244	-0.240
-552.398	-200.000	0.009	0.142
-551.383	-24.529	0.124	0.074
-550.369	-39.074	0.102	0.054
-549.354	-73.919	0.347	-0.126
-548.339	-196.414	0.093	0.001
-547.325	800.000	-0.068	-0.217
-546.310	88.527	-0.214	0.238
-545.296	800.000	-0.029	-0.116
-544.281	105.871	-0.022	-0.026
-543.266	-165.255	-0.197	0.009
-542.252	-26.280	-0.228	0.134
-541.237	109.177	-0.126	0.152
-540.223	268.131	-0.086	-0.152
-539.208	63.230	0.255	-0.256
-538.193	800.000	0.080	-0.294
-537.179	-80.787	-0.072	0.024
-536.164	34.323	-0.108	0.095
-535.150	-200.000	0.040	0.273
-534.135	800.000	-0.016	-0.050
-533.121	62.202	-0.091	0.091
-532.106	-51.366	0.154	0.072
-531.091	87.796	0.091	0.102
-530.077	-14.225	-0.156	0.101
-529.062	75.012	0.240	-0.253
-528.048	-200.000	-0.045	0.211
-527.033	800.000	0.056	0.204
-526.018	-96.459	0.152	-0.040
-525.004	153.776	0.256	0.352
-523.989	616.428	-0.152	-0.382
-522.975	-26.044	-0.474	-0.279
-521.960	-156.131	-0.029	0.002
-520.945	85.938	0.138	0.152
-519.931	800.000	-0.053	-0.185
-518.916	-200.000	-0.008	-0.187
-517.902	-200.000	-0.040	-0.364
-516.887	51.265	-0.286	-0.271
-515.872	443.541	0.152	0.333
-514.858	-155.021	-0.576	-0.038
-513.843	15.095	-0.195	0.153
-512.829	37.739	-0.114	0.101
-511.814	-200.000	-0.059	0.323
-510.799	-113.067	0.064	0.013
-509.785	-21.047	0.249	-0.153
-508.770	-53.863	0.355	0.162
-507.756	402.996	0.104	0.218
-506.741	-200.000	-0.007	0.126
-505.726	-135.767	-0.266	-0.032
-504.712	589.833	0.009	-0.023
-503.697	647.424	0.051	-0.131
-502.683	28.802	0.127	0.107
-501.668	261.110	0.101	0.175
-500.653	-142.542	0.122	0.012
-499.639	-13.006	-0.031	-0.020
-498.624	-198.374	-0.406	0.002
-497.610	-160.766	0.089	-0.005
-496.595	187.845	0.111	0.166
-495.581	321.872	-0.133	-0.253
-494.566	-200.000	-0.026	-0.123
-493.551	-1.373	-0.095	0.067
-492.537	3.941	-0.032	-0.023
-491.522	-200.000	-0.006	0.194
-490.508	-195.972	-0.268	0.002
-489.493	22.525	0.099	0.081
-488.478	800.000	-0.069	-0.254
-487.464	-90.559	-0.181	0.052
-486.449	-159.395	0.180	0.010
-485.435	-84.004	0.288	0.092
-484.420	431.864	0.116	-0.251
-483.405	-200.000	0.034	0.237
-482.391	-200.000	0.023	-0.170
-481.376	-50.228	-0.292	-0.138
-480.362	168.218	-0.199	0.284
-479.347	44.379	-0.145	-0.133
-478.332	-200.000	0.043	-0.200
-477.318	-89.491	0.230	0.068
-476.303	-200.000	-0.001	0.244
-475.289	212.170	-0.154	0.243
-474.274	-27.677	0.225	0.130
-473.259	-193.980	0.478	-0.004
-472.245	17.539	0.219	0.174
-471.230	800.000	0.084	0.243
-470.216	-171.675	0.211	0.007
-469.201	84.652	-0.323	-0.353
-468.186	-68.851	-0.279	-0.108
-467.172	-141.250	0.245	-0.025
-466.157	-68.698	-0.340	0.132
-465.143	-200.000	0.003	-0.129
-464.128	-200.000	-0.040	0.203
-463.113	800.000	0.060	0.235
-462.099	800.000	-0.051	0.185
-461.084	91.814	-0.070	-0.079
-460.070	-52.188	0.425	0.197
-459.055	-3.408	0.093	0.065
-458.040	800.000	-0.032	-0.112
-457.026	-21.378	0.267	-0.163
-456.011	-200.000	0.034	-0.313
-454.997	797.873	-0.016	-0.044
-453.982	-85.107	-0.143	0.045
-452.968	53.338	-0.129	-0.123
-451.953	-25.537	-0.216	0.127
-450.938	-153.834	0.123	-0.008
-449.924	-85.581	-0.150	-0.047
-448.909	-151.623	-0.130	-0.010
-447.895	-51.759	0.137	-0.064
-446.880	-46.198	0.149	-0.073
-445.865	177.613	-0.128	0.186
-444.851	-84.751	-0.359	-0.113
-443.836	-100.750	-0.477	0.117
-442.822	-200.000	0.040	0.249
-441.807	-14.066	-0.229	0.148
-440.792	97.530	-0.211	0.243
-439.778	-200.000	0.010	-0.212
-438.763	104.665	-0.027	0.032
-437.749	-200.000	0.045	0.428
-436.734	-79.554	-0.165	-0.056
-435.719	-99.795	-0.197	0.049
-434.705	564.430	0.024	-0.057
-433.690	-38.242	-0.379	0.201
-432.676	576.251	0.153	0.372
-431.661	358.983	-0.074	-0.147
-430.646	-15.896	-0.148	-0.094
-429.632	-200.000	-0.003	0.130
-428.617	-93.164	0.105	-0.029
-427.603	473.723	0.135	0.304
-426.588	-66.943	-0.147	0.058
-425.573	-119.377	-0.104	-0.018
-424.559	335.003	0.049	-0.095
-423.544	-21.498	-0.094	0.057
-422.530	-41.076	0.101	0.052
-421.515	-9.956	0.221	-0.146
-420.500	-200.000	-0.002	0.331
-419.486	-42.717	0.138	-0.070
-418.471	-123.268	-0.351	-0.056
-417.457	295.093	0.156	-0.285
-416.442	-153.311	0.170	-0.012
-415.428	99.968	0.141	0.163
-414.413	-200.000	0.008	-0.086
-413.398	-200.000	0.001	-0.015
-412.384	363.869	-0.084	-0.168
-411.369	180.883	-0.141	0.207
-410.355	-200.000	-0.018	0.299
-409.340	274.784	-0.024	0.043
-408.325	-148.769	0.179	-0.014
-407.311	800.000	0.074	0.242
-406.296	800.000	-0.073	0.282
-405.282	-10.662	-0.116	0.077
-404.267	64.495	0.142	0.143
-403.252	128.611	0.222	0.282
-402.238	-200.000	-0.020	-0.146
-401.223	-200.000	-0.002	0.112
-400.209	216.045	0.163	-0.258
-399.194	42.521	0.258	0.234
-398.179	-43.608	-0.182	0.091
-397.165	-0.698	0.272	0.192
-396.150	-200.000	-0.008	-0.245
-395.136	-114.172	-0.285	-0.055
-394.121	62.635	-0.176	0.175
-393.106	146.971	-0.197	0.263
-392.092	537.150	-0.042	-0.099
-391.077	-200.000	0.014	-0.117
-390.063	-200.000	-0.003	-0.049
-389.048	35.221	0.066	-0.058
-388.033	0.620	-0.167	0.119
-387.019	-58.945	0.112	0.048
-386.004	134.090	-0.099	-0.128
-384.990	-16.927	0.015	0.010
-383.975	-161.621	0.339	-0.017
-382.960	-200.000	-0.008	-0.099
-381.946	-120.531	-0.199	0.034
-380.931	26.690	-0.152	-0.126
-379.917	54.895	-0.235	-0.226
-378.902	-22.881	0.017	-0.010
-377.888	40.701	-0.024	0.022
-376.873	-163.359	0.063	-0.003
-375.858	800.000	0.049	0.155
-374.844	-61.254	0.130	-0.055
-373.829	-200.000	-0.006	-0.058
-372.815	-86.598	0.283	0.086
-371.800	87.437	0.154	0.169
-370.785	-177.518	0.428	-0.010
-369.771	-130.617	-0.140	0.019
-368.756	-99.792	-0.222	0.055
-367.742	43.005	0.169	-0.153
-366.727	-65.232	-0.273	0.109
-365.712	-43.161	0.280	-0.141
-364.698	14.694	0.383	-0.298
-363.683	-41.596	0.346	-0.177
-362.669	-70.243	0.216	-0.082
-361.654	16.737	-0.312	0.246
-360.639	-200.000	-0.021	0.245
-359.625	38.064	0.199	-0.176
-358.610	-200.000	0.011	0.237
-357.596	168.452	-0.324	-0.460
-356.581	-64.160	-0.154	0.062
-355.566	88.957	-0.071	-0.079
-354.552	-75.491	-0.284	0.101
-353.537	-200.000	-0.056	-0.268
-352.523	4.320	-0.448	-0.326
-351.508	-86.262	-0.230	-0.071
-350.493	23.297	-0.435	0.356
-349.479	800.000	-0.062	0.208
-348.464	-200.000	-0.084	-0.444
-347.450	78.012	-0.096	0.102
-346.435	-200.000	0.260	-0.001
-345.420	-110.529	0.192	0.040
-344.406	300.626	-0.417	-0.766
-343.391	315.418	0.132	-0.247
-342.377	-154.060	0.609	-0.041
-341.362	-17.493	-0.193	-0.121
-340.348	-78.724	-0.148	0.050
-339.333	-159.055	-0.238	0.013
-338.318	70.462	-0.206	0.212
-337.304	-95.686	-0.119	0.032
-336.289	-200.000	-0.057	-0.259
-335.275	-51.208	-0.154	-0.072
-334.260	29.808	0.124	-0.105
-333.245	-79.756	-0.134	0.045
-332.231	101.030	0.111	-0.129
-331.216	40.292	0.168	-0.151
-330.202	122.480	-0.012	-0.015
-329.187	130.187	-0.320	-0.408
-328.172	249.767	0.101	-0.171
-327.158	-151.004	0.196	0.015
-326.143	-159.113	-0.326	-0.018
-325.129	224.517	-0.048	-0.078
-324.114	2.269	0.138	-0.099
-323.099	63.020	0.049	0.049
-322.085	167.393	-0.121	0.171
-321.070	800.000	-0.125	-0.346
-320.056	-17.936	-0.148	0.092
-319.041	198.804	-0.079	-0.120
-318.026	-94.022	-0.273	0.074
-317.012	-200.000	-0.068	0.381
-315.997	295.503	-0.094	0.172
-314.983	174.893	-0.176	-0.253
-313.968	-200.000	-0.035	-0.199
-312.953	305.049	-0.039	0.072
-311.939	17.333	-0.100	-0.079
-310.924	115.108	0.213	0.259
-309.910	-17.876	0.074	0.046
-308.895	107.799	-0.053	-0.062
-307.880	212.352	-0.042	0.066
-306.866	-163.501	0.105	0.005
-305.851	263.702	0.026	-0.045
-304.837	117.167	-0.107	-0.130
-303.822	800.000	-0.039	0.170
-302.807	-0.441	0.099	0.070
-301.793	186.315	0.118	-0.174
-300.778	72.177	0.136	-0.140
-299.764	-118.873	0.286	0.050
-298.749	-200.000	0.044	0.323
-297.735	42.797	0.157	0.142
-296.720	30.651	0.141	0.120
-295.705	-47.451	0.180	0.087
-294.691	42.058	0.209	0.188
-293.676	-70.444	0.263	-0.099
-292.662	119.303	0.020	0.024
-291.647	800.000	0.126	0.492
-290.632	-132.429	-0.499	-0.064
-289.618	800.000	-0.043	0.152
-288.603	-88.347	-0.308	0.091
-287.589	-77.234	-0.145	0.050
-286.574	-112.323	0.314	0.062
-285.559	73.954	0.085	-0.088
-284.545	-200.000	0.050	0.234
-283.530	188.348	0.067	-0.100
-282.516	448.095	0.031	0.067
-281.501	-200.000	-0.046	-0.202
-280.486	395.625	-0.072	-0.149
-279.472	800.000	-0.065	-0.241
-278.457	-122.677	0.179	-0.029
-277.443	-89.985	0.241	-0.070
-276.428	-33.764	0.033	0.018
-275.413	-200.000	0.028	-0.238
-274.399	800.000	-0.057	-0.240
-273.384	52.033	-0.171	-0.162
-272.370	-200.000	-0.037	0.193
-271.355	273.658	-0.110	0.192
-270.340	-96.625	-0.042	-0.011
-269.326	-112.884	0.218	0.043
-268.311	-104.448	-0.260	0.060
-267.297	18.591	0.108	0.085
-266.282	330.657	0.119	0.228
-265.267	-200.000	-0.005	-0.358
-264.253	63.174	0.313	-0.310
-263.238	597.444	-0.057	0.141
-262.224	260.809	-0.059	0.101
-261.209	-200.000	0.042	0.271
-260.195	-110.255	0.080	0.016
-259.180	56.725	0.161	0.155
-258.165	-32.332	0.344	0.190
-257.151	-200.000	0.061	0.285
-256.136	-200.000	0.047	0.380
-255.122	74.460	-0.168	-0.175
-254.107	-161.987	-0.191	0.010
-253.092	-4.422	0.152	0.104
-252.078	102.668	0.185	0.214
-251.063	800.000	0.042	0.166
-250.049	-200.000	0.025	0.344
-249.034	-200.000	0.015	-0.195
-248.019	-104.745	-0.296	0.068
-247.005	-177.725	0.057	-0.001
-245.990	-200.000	0.006	-0.143
-244.976	-93.125	0.244	0.067
-243.961	800.000	0.061	0.243
-242.946	99.926	-0.223	0.255
-241.932	-62.909	0.252	-0.103
-240.917	158.888	0.143	-0.196
-239.903	338.949	-0.146	0.282
-238.888	-79.146	-0.376	-0.127
-237.873	-100.254	0.046	-0.011
-236.859	-106.006	-0.305	0.068
-235.844	-200.000	-0.044	-0.217
-234.830	204.502	0.023	0.035
-233.815	-125.626	0.232	0.035
-232.800	84.573	0.201	-0.218
-231.786	-151.358	-0.142	-0.010
-230.771	800.000	-0.068	0.289
-229.757	93.955	-0.147	-0.165
-228.742	163.145	-0.028	0.039
-227.727	-61.880	-0.197	0.082
-226.713	-110.326	0.243	-0.050
-225.698	-186.377	0.190	0.003
-224.684	-22.631	-0.070	-0.042
-223.669	12.544	-0.249	-0.190
-222.655	-200.000	0.001	-0.196
-221.640	200.001	0.087	0.132
-220.625	69.966	0.349	-0.356
-219.611	800.000	0.037	-0.134
-218.596	800.000	0.141	0.480
-217.582	800.000	-0.056	0.197
-216.567	-112.333	-0.242	0.048
-215.552	-143.914	-0.323	-0.030
-214.538	-200.000	-0.008	-0.190
-213.523	-76.378	0.306	0.107
-212.509	-200.000	-0.009	-0.105
-211.494	800.000	-0.033	0.127
-210.479	-99.363	0.236	-0.059
-209.465	-4.911	-0.083	-0.057
-208.450	-84.295	0.036	0.011
-207.436	83.785	0.213	-0.230
-206.421	-25.672	-0.173	-0.101
-205.406	800.000	0.201	-0.564
-204.392	193.884	0.098	0.146
-203.377	800.000	-0.108	0.325
-202.363	-200.000	0.016	-0.069
-201.348	-200.000	0.014	0.086
-200.333	89.345	-0.033	0.036
-199.319	-200.000	0.028	-0.140
-198.304	374.929	0.081	0.162
-197.290	72.071	-0.213	-0.219
-196.275	-122.925	-0.156	-0.025
-195.260	-136.758	0.114	0.013
-194.246	-21.532	0.132	-0.080
-193.231	74.459	0.067	-0.070
-192.217	-13.249	0.162	0.104
-191.202	-80.666	-0.157	0.052
-190.187	-81.419	-0.176	0.057
-189.173	58.188	-0.098	0.095
-188.158	-80.878	0.205	0.067
-187.144	182.429	-0.098	-0.143
-186.129	-120.167	-0.379	-0.064
-185.114	-200.000	-0.023	0.153
-184.100	-109.692	0.281	0.059
-183.085	-95.554	0.135	0.036
-182.071	142.541	0.169	0.222
-181.056	78.280	0.028	0.029
-180.042	-200.000	0.055	0.327
-179.027	267.854	0.064	0.111
-178.012	800.000	0.101	-0.282
-176.998	-126.682	0.087	0.013
-175.983	540.738	0.067	-0.159
-174.969	576.977	0.031	-0.076
-173.954	4.620	-0.079	0.058
-172.939	9.043	0.051	-0.038
-171.925	6.157	-0.022	-0.016
-170.910	2.534	0.256	0.183
-169.896	-11.038	0.241	-0.157
-168.881	800.000	0.125	-0.374
-167.866	800.000	0.037	-0.113
-166.852	-200.000	-0.061	-0.274
-165.837	-126.933	-0.187	-0.027
-164.823	-200.000	0.015	0.111
-163.808	430.958	-0.020	-0.044
-162.793	-200.000	0.059	-0.360
-161.779	800.000	0.066	0.182
-160.764	-200.000	-0.035	0.388
-159.750	21.845	0.195	-0.157
-158.735	743.940	0.119	0.316
-157.720	357.731	-0.117	-0.231
-156.706	169.916	0.041	0.058
-155.691	202.028	-0.168	0.256
-154.677	-127.769	0.007	0.001
-153.662	-103.574	0.216	-0.050
-152.647	141.960	-0.163	-0.214
-151.633	-154.187	0.199	0.013
-150.618	135.131	0.071	0.091
-149.604	-200.000	0.002	-0.050
-148.589	800.000	-0.065	-0.196
-147.574	276.261	0.189	-0.331
-146.560	105.555	0.115	-0.134
-145.545	91.691	0.239	0.266
-144.531	-24.173	0.464	0.273
-143.516	800.000	-0.061	0.188
-142.502	-109.546	0.301	0.063
-141.487	137.922	-0.216	-0.279
-140.472	-200.000	0.017	0.151
-139.458	-103.203	-0.335	-0.078
-138.443	800.000	0.038	-0.157
-137.429	283.516	-0.090	-0.160
-136.414	478.617	0.141	-0.315
-135.399	-200.000	0.002	0.095
-134.385	88.453	-0.088	-0.096
-133.370	26.031	-0.096	0.079
-132.356	-125.702	-0.134	0.020
-131.341	-6.719	-0.139	0.093
-130.326	-200.000	0.018	0.202
-129.312	800.000	0.011	-0.034
-128.297	800.000	-0.080	0.339
-127.283	-46.632	-0.188	-0.091
-126.268	-93.677	0.297	0.081
-125.253	-56.759	0.101	-0.044
-124.239	212.879	0.038	-0.059
-123.224	-68.600	-0.091	-0.035
-122.210	288.310	-0.134	-0.239
-121.195	800.000	-0.082	-0.254
-120.180	-84.997	0.285	0.088
-119.166	-200.000	0.020	-0.343
-118.151	-186.070	0.305	-0.004
-117.137	-112.816	0.257	-0.050
-116.122	-10.577	0.100	-0.065
-115.107	16.604	-0.236	-0.184
-114.093	-200.000	-0.004	-0.299
-113.078	-43.795	-0.089	-0.044
-112.064	-54.855	0.224	-0.100
-111.049	-120.466	-0.278	-0.047
-110.034	16.053	0.259	-0.201
-109.020	53.201	-0.188	0.177
-108.005	-131.390	0.091	-0.012
-106.991	206.595	0.111	-0.171
-105.976	-160.214	0.080	-0.004
-104.962	648.535	-0.073	0.184
-103.947	237.375	-0.008	0.013
-102.932	800.000	0.101	-0.424
-101.918	-91.608	-0.057	-0.016
-100.903	121.260	-0.218	0.267
-99.889	800.000	0.029	-0.093
-98.874	-156.066	0.136	-0.008
-97.859	-153.536	0.088	0.006
-96.845	-40.571	-0.152	0.078
-95.830	-200.000	-0.005	0.173
-94.816	12.203	-0.232	-0.176
-93.801	252.898	-0.149	0.250
-92.786	468.210	0.120	-0.265
-91.772	-57.240	0.436	0.189
-90.757	100.451	0.140	0.160
-89.743	-200.000	0.009	0.133
-88.728	77.119	-0.084	-0.088
-87.713	85.688	0.184	-0.199
-86.699	800.000	0.026	-0.075
-85.684	263.072	-0.112	0.192
-84.670	-200.000	0.011	0.236
-83.655	12.453	-0.057	-0.044
-82.640	-61.543	-0.172	0.071
-81.626	-35.962	-0.153	-0.081
-80.611	-154.500	0.218	0.014
-79.597	-66.771	0.258	0.100
-78.582	124.565	0.166	-0.206
-77.567	222.320	-0.153	-0.243
-76.553	197.824	-0.205	0.308
-75.538	800.000	0.053	0.222
-74.524	800.000	0.048	0.151
-73.509	9.294	0.347	-0.258
-72.494	-0.608	-0.178	-0.124
-71.480	46.692	-0.213	0.194
-70.465	-57.962	0.322	0.138
-69.451	22.347	0.298	0.239
-68.436	253.448	0.115	0.194
-67.422	-200.000	0.013	-0.165
-66.407	-200.000	0.014	-0.122
-65.392	77.581	-0.081	-0.085
-64.378	775.972	-0.029	-0.078
-63.363	-200.000	0.001	0.223
-62.349	-125.562	0.213	0.032
-61.334	800.000	-0.358	-1.125
-60.319	800.000	-0.066	0.217
-59.305	275.224	-0.462	-0.806
-58.290	309.241	0.425	0.781
-57.276	274.180	0.990	1.722
-56.261	-200.000	95.006	562.677
-55.246	556.188	1376.848	3260.691
-54.232	154.666	2578.959	3483.128
-53.217	110.513	2294.928	2712.098
-52.203	45.534	1911.535	1735.291
-51.188	39.162	1699.163	1494.201
-50.173	36.197	1654.332	1432.735
-49.159	53.115	1701.997	1601.805
-48.144	56.651	1720.092	1645.383
-47.130	38.934	1676.423	1472.265
-46.115	35.875	1661.654	1436.448
-45.100	35.776	1656.597	1431.285
-44.086	35.625	1653.819	1427.705
-43.071	35.663	1651.071	1425.553
-42.057	35.644	1648.499	1423.141
-41.042	35.704	1646.733	1422.003
-40.027	35.533	1645.678	1419.766
-39.013	35.633	1643.104	1418.228
-37.998	35.585	1641.361	1416.315
-36.984	35.595	1640.372	1415.479
-35.969	35.754	1638.766	1415.204
-34.954	35.830	1636.867	1414.070
-33.940	35.825	1635.158	1412.499
-32.925	35.710	1633.841	1410.461
-31.911	35.724	1631.780	1408.730
-30.896	35.693	1630.443	1407.292
-29.881	35.703	1628.540	1405.671
-28.867	35.709	1626.684	1404.054
-27.852	35.795	1625.394	1403.510
-26.838	35.803	1623.945	1402.262
-25.823	35.828	1622.554	1401.188
-24.809	35.834	1621.156	1399.973
-23.794	35.748	1620.003	1398.296
-22.779	35.797	1618.426	1397.234
-21.765	35.731	1616.720	1395.228
-20.750	35.794	1614.711	1393.896
-19.736	35.710	1613.953	1392.573
-18.721	35.859	1611.740	1391.691
-17.706	35.757	1610.632	1389.939
-16.692	35.714	1608.891	1388.068
-15.677	35.732	1607.725	1387.137
-14.663	35.936	1605.883	1386.966
-13.648	35.718	1604.930	1384.517
-12.633	35.874	1602.851	1383.788
-11.619	35.757	1601.572	1381.794
-10.604	35.738	1600.301	1380.500
-9.590	35.816	1598.395	1379.365
-8.575	35.843	1597.246	1378.514
-7.560	35.779	1596.277	1377.159
-6.546	35.713	1594.780	1375.345
-5.531	35.725	1594.304	1374.967
-4.517	35.733	1593.142	1373.962
-3.502	35.718	1591.876	1372.709
-2.487	35.841	1590.400	1372.261
-1.473	35.382	1578.868	1359.004
-0.458	32.222	1557.207	1318.183
0.556	26.000	1556.244	1280.016
1.571	23.268	1579.518	1279.337
2.586	22.551	1592.421	1284.449
3.600	20.411	1541.072	1227.814
4.615	11.548	1428.760	1079.882
5.629	2.242	1359.253	968.502
6.644	0.229	1349.949	949.110
7.659	0.027	1349.057	947.128
8.673	-0.007	1347.998	946.082
9.688	-0.029	1345.968	944.436
10.702	-0.236	1343.175	941.093
11.717	3.925	1350.216	972.133
12.731	13.141	1365.069	1041.058
13.746	18.184	1370.838	1077.205
14.761	17.434	1367.771	1069.984
15.775	16.336	1365.290	1061.058
16.790	15.121	1362.516	1051.185
17.804	14.328	1360.222	1044.349
18.819	14.031	1358.628	1041.177
19.834	13.707	1357.342	1038.068
20.848	13.447	1356.290	1035.545
21.863	13.121	1355.333	1032.688
22.877	13.072	1353.812	1031.127
23.892	12.990	1352.989	1029.902
24.907	13.038	1351.880	1029.261
25.921	13.077	1351.193	1028.895
26.936	13.077	1350.315	1028.132
27.950	13.080	1349.421	1027.382
28.965	13.184	1348.485	1027.225
29.980	13.260	1347.511	1026.861
30.994	13.221	1346.572	1025.812
32.009	13.341	1345.881	1025.943
33.023	13.191	1345.133	1024.347
34.038	13.255	1343.522	1023.427
35.053	13.207	1342.520	1022.280
36.067	13.243	1341.129	1021.351
37.082	13.147	1340.577	1020.250
38.096	13.239	1339.706	1020.064
39.111	13.269	1338.844	1019.503
40.126	13.139	1338.280	1018.180
41.140	13.066	1337.430	1016.993
42.155	13.101	1336.669	1016.538
43.169	13.030	1336.441	1015.839
44.184	13.055	1336.227	1015.738
45.199	13.116	1335.823	1015.721
46.213	13.163	1335.513	1015.680
47.228	13.123	1334.218	1014.361
48.242	13.184	1332.994	1013.718
49.257	13.129	1331.907	1012.464
50.271	13.176	1330.195	1011.356
51.286	13.132	1329.250	1010.284
52.301	13.172	1327.748	1009.298
53.315	13.145	1326.539	1008.121
54.330	13.012	1325.776	1006.639
55.344	13.149	1324.217	1006.202
56.359	13.154	1323.084	1005.282
57.374	13.091	1322.591	1004.439
58.388	12.990	1322.055	1003.327
59.403	12.952	1321.645	1002.698
60.417	13.049	1320.478	1002.311
61.432	12.987	1320.060	1001.530
62.447	12.879	1319.089	1000.051
63.461	12.863	1317.945	998.998
64.476	12.940	1316.608	998.359
65.490	12.912	1315.451	997.226
66.505	13.020	1313.458	996.277
67.520	12.983	1312.100	994.937
68.534	13.006	1311.537	994.563
69.549	13.058	1310.828	994.245
70.563	12.995	1309.724	992.942
71.578	12.978	1308.102	991.526
72.593	12.827	1307.735	990.251
73.607	12.917	1306.839	990.028
74.622	12.909	1306.227	989.423
75.636	12.849	1305.398	988.352
76.651	12.860	1304.618	987.739
77.666	12.894	1303.940	987.339
78.680	12.952	1303.181	987.024
79.695	12.893	1302.701	986.221
80.709	12.980	1302.185	986.265
81.724	13.117	1300.502	985.722
82.739	13.053	1299.636	984.593
83.753	13.096	1298.753	984.096
84.768	13.186	1297.978	983.955
85.782	13.292	1296.453	983.342
86.797	13.240	1294.910	981.779
87.812	13.145	1293.996	980.434
88.826	13.143	1293.389	979.874
89.841	13.158	1292.306	979.056
90.855	13.206	1291.018	978.278
91.870	13.247	1290.436	977.993
92.884	13.307	1289.474	977.536
93.899	13.196	1288.733	976.232
94.914	13.290	1288.022	976.161
95.928	13.230	1286.978	974.926
96.943	13.247	1286.405	974.510
97.957	13.185	1285.548	973.407
98.972	13.329	1283.912	972.933
99.987	13.242	1283.169	971.771
101.001	13.280	1282.252	971.211
102.016	13.280	1281.065	970.226
103.030	13.262	1280.688	969.749
104.045	13.234	1279.630	968.701
105.060	13.256	1278.295	967.733
106.074	13.152	1277.376	966.339
107.089	13.080	1276.008	964.799
108.103	13.066	1274.219	963.282
109.118	13.062	1273.423	962.570
110.133	13.038	1272.044	961.302
111.147	12.996	1270.925	960.131
112.162	13.072	1269.558	959.455
113.176	13.174	1268.125	958.875
114.191	13.222	1267.211	958.380
115.206	13.071	1266.648	956.994
116.220	13.152	1265.201	956.283
117.235	13.130	1264.039	955.196
118.249	13.163	1263.044	954.549
119.264	13.145	1261.882	953.481
120.279	13.173	1260.956	952.861
121.293	13.052	1259.872	951.257
122.308	12.961	1259.225	950.161
123.322	13.122	1257.614	949.786
124.337	13.030	1257.102	948.789
125.352	13.053	1255.697	947.775
126.366	13.023	1254.423	946.558
127.381	13.028	1253.251	945.619
128.395	13.024	1252.651	945.063
129.410	13.112	1251.400	944.536
130.424	13.052	1251.111	943.894
131.439	13.104	1250.079	943.325
132.454	13.147	1248.763	942.497
133.468	13.183	1248.118	942.132
134.483	13.175	1247.242	941.342
135.497	13.231	1246.301	940.862
136.512	13.058	1245.287	939.030
137.527	13.195	1243.185	938.143
138.541	13.236	1241.921	937.336
139.556	13.230	1241.070	936.580
140.570	13.189	1240.249	935.647
141.585	13.220	1239.182	934.930
142.600	13.338	1237.535	934.274
143.614	13.373	1236.841	933.863
144.629	13.310	1235.735	932.590
145.643	13.307	1234.845	931.823
146.658	13.227	1233.538	930.300
147.673	13.324	1231.612	929.314
148.687	13.235	1230.934	928.220
149.702	13.231	1229.309	926.886
150.716	13.241	1227.989	925.864
151.731	13.247	1226.867	924.972
152.746	13.191	1225.793	923.766
153.760	13.302	1224.403	923.260
154.775	13.222	1223.826	922.296
155.789	13.314	1222.609	921.812
156.804	13.390	1221.252	921.129
157.819	13.465	1220.455	920.861
158.833	13.411	1219.409	919.693
159.848	13.540	1218.304	919.494
160.862	13.524	1217.594	918.789
161.877	13.335	1216.619	916.924
162.892	13.321	1215.449	915.881
163.906	13.235	1214.941	914.943
164.921	13.442	1213.349	914.807
165.935	13.365	1212.513	913.668
166.950	13.355	1212.211	913.306
167.964	13.341	1211.771	912.817
168.979	13.321	1210.667	911.793
169.994	13.416	1209.966	911.709
171.008	13.328	1209.149	910.526
172.023	13.457	1208.113	910.376
173.037	13.452	1207.525	909.827
174.052	13.561	1206.540	909.602
175.067	13.570	1205.362	908.682
176.081	13.413	1204.893	907.384
177.096	13.466	1204.039	906.957
178.110	13.394	1202.651	905.432
179.125	13.483	1201.674	905.107
180.140	13.477	1200.675	904.242
181.154	13.448	1199.121	902.832
182.169	13.466	1198.021	902.022
183.183	13.491	1197.095	901.381
184.198	13.550	1195.618	900.512
185.213	13.602	1194.384	899.784
186.227	13.651	1193.425	899.248
187.242	13.661	1192.226	898.320
188.256	13.725	1191.287	897.878
189.271	13.668	1190.546	896.933
190.286	13.531	1189.518	895.338
191.300	13.608	1188.336	894.782
192.315	13.382	1188.204	893.384
193.329	13.501	1187.266	893.240
194.344	13.540	1186.606	892.875
195.359	13.571	1185.720	892.299
196.373	13.628	1185.406	892.292
197.388	13.753	1184.831	892.449
198.402	13.755	1184.197	891.903
199.417	13.780	1183.676	891.567
200.432	13.851	1183.042	891.394
201.446	13.930	1182.146	891.062
202.461	13.962	1181.110	890.373
203.475	14.007	1180.109	889.784
204.490	13.896	1179.504	888.653
205.504	13.767	1178.261	886.950
206.519	13.815	1176.882	886.087
207.534	13.862	1175.595	885.292
208.548	13.787	1174.567	884.038
209.563	13.825	1173.728	883.533
210.577	13.876	1172.998	883.177
211.592	13.942	1172.527	883.093
212.607	13.991	1171.548	882.540
213.621	14.020	1170.308	881.683
214.636	14.088	1169.350	881.243
215.650	13.993	1168.752	880.207
216.665	14.093	1167.703	879.872
217.680	14.099	1166.777	879.128
218.694	14.108	1166.070	878.566
219.709	14.091	1165.363	877.863
220.723	14.068	1164.434	876.966
221.738	14.179	1163.765	876.971
222.753	14.061	1163.473	876.047
223.767	14.163	1162.292	875.622
224.782	14.200	1161.908	875.448
225.796	14.295	1161.128	875.284
226.811	14.365	1160.781	875.309
227.826	14.294	1159.799	874.120
228.840	14.167	1159.017	872.785
229.855	14.154	1158.225	872.044
230.869	14.241	1157.127	871.595
231.884	14.177	1156.447	870.674
232.899	14.304	1155.601	870.624
233.913	14.226	1154.931	869.631
234.928	14.136	1154.533	868.787
235.942	14.152	1153.855	868.285
236.957	14.184	1152.885	867.640
237.972	14.234	1152.191	867.302
238.986	14.232	1151.939	867.029
240.001	14.269	1151.001	866.437
241.015	14.276	1150.133	865.746
242.030	14.314	1149.209	865.171
243.045	14.311	1148.757	864.736
244.059	14.434	1147.903	864.656
245.074	14.493	1146.729	863.999
246.088	14.415	1146.448	863.308
247.103	14.485	1145.462	862.852
248.117	14.429	1144.949	862.100
249.132	14.565	1144.010	862.018
250.147	14.680	1143.694	862.298
251.161	14.691	1142.891	861.672
252.176	14.685	1142.208	861.053
253.190	14.737	1141.217	860.498
254.205	14.710	1140.969	860.093
255.220	14.810	1140.458	860.146
256.234	14.756	1140.137	859.551
257.249	14.684	1139.194	858.393
258.263	14.751	1138.598	858.214
259.278	14.810	1138.000	857.991
260.293	14.876	1136.944	857.455
261.307	14.906	1136.162	856.943
262.322	14.893	1135.853	856.568
263.336	14.896	1135.110	855.947
264.351	15.037	1134.510	856.139
265.366	15.039	1133.819	855.552
266.380	14.987	1133.165	854.720
267.395	14.956	1132.463	853.956
268.409	14.846	1131.760	852.788
269.424	14.995	1131.139	853.006
270.439	14.949	1130.098	851.907
271.453	14.957	1129.256	851.242
272.468	14.887	1128.810	850.474
273.482	14.924	1128.489	850.343
274.497	14.888	1127.474	849.320
275.512	14.883	1127.050	848.903
276.526	14.875	1126.200	848.143
277.541	14.897	1125.658	847.772
278.555	14.880	1124.771	846.944
279.570	15.102	1123.932	847.361
280.585	15.059	1123.289	846.585
281.599	15.099	1122.154	845.855
282.614	14.933	1121.587	844.513
283.628	15.030	1120.390	844.031
284.643	15.198	1119.096	843.824
285.657	15.142	1118.656	843.137
286.672	15.048	1117.667	841.843
287.687	15.162	1116.788	841.682
288.701	15.049	1116.551	840.857
289.716	15.305	1115.074	840.958
290.730	15.184	1114.340	839.724
291.745	15.187	1113.898	839.328
292.760	15.182	1113.175	838.685
293.774	15.294	1112.580	838.726
294.789	15.188	1112.615	838.146
295.803	15.306	1111.569	837.875
296.818	15.316	1110.711	837.204
297.833	15.383	1109.518	836.564
298.847	15.298	1109.202	835.828
299.862	15.267	1108.271	834.898
300.876	15.329	1107.469	834.529
301.891	15.350	1107.087	834.268
302.906	15.329	1106.571	833.703
303.920	15.334	1105.904	833.154
304.935	15.500	1104.796	833.069
305.949	15.545	1104.359	832.889
306.964	15.552	1103.822	832.443
307.979	15.485	1103.250	831.607
308.993	15.523	1102.158	830.899
310.008	15.568	1101.460	830.521
311.022	15.617	1100.476	829.949
312.037	15.515	1099.974	828.991
313.052	15.466	1098.945	827.901
314.066	15.642	1097.932	827.931
315.081	15.608	1097.232	827.165
316.095	15.465	1096.394	825.757
317.110	15.402	1096.116	825.162
318.125	15.492	1095.175	824.824
319.139	15.498	1094.328	824.140
320.154	15.517	1094.430	824.238
321.168	15.462	1093.528	823.217
322.183	15.591	1092.681	823.139
323.197	15.544	1092.416	822.637
324.212	15.538	1091.724	822.011
325.227	15.552	1091.258	821.659
326.241	15.629	1090.394	821.311
327.256	15.629	1089.428	820.510
328.270	15.558	1088.554	819.433
329.285	15.573	1087.799	818.864
330.300	15.590	1087.031	818.299
331.314	15.640	1085.779	817.525
332.329	15.728	1085.004	817.296
333.343	15.673	1084.083	816.267
334.358	15.641	1083.727	815.771
335.373	15.713	1082.779	815.334
336.387	15.898	1081.580	815.252
337.402	15.780	1081.195	814.319
338.416	16.005	1080.210	814.591
339.431	15.836	1079.947	813.505
340.446	15.867	1079.161	812.990
341.460	15.984	1078.594	813.058
342.475	16.000	1077.747	812.425
343.489	16.047	1076.960	811.985
344.504	15.901	1076.093	810.559
345.519	16.077	1074.738	810.310
346.533	15.973	1074.700	809.712
347.548	16.117	1073.798	809.650
348.562	16.113	1073.144	809.070
349.577	15.956	1072.106	807.463
350.592	15.991	1071.218	806.888
351.606	15.981	1070.907	806.536
352.621	15.916	1070.189	805.612
353.635	16.008	1069.510	805.471
354.650	15.994	1068.635	804.674
355.665	16.170	1067.670	804.715
356.679	15.996	1067.642	803.790
357.694	16.112	1066.751	803.602
358.708	16.124	1066.301	803.249
359.723	16.129	1065.838	802.854
360.738	16.155	1064.679	802.031
361.752	16.214	1064.308	801.961
362.767	16.250	1063.788	801.669
363.781	16.110	1063.373	800.624
364.796	16.265	1062.809	800.863
365.810	16.240	1062.477	800.422
366.825	16.333	1061.807	800.286
367.840	16.343	1061.372	799.936
368.854	16.404	1060.576	799.555
369.869	16.419	1059.898	799.046
370.883	16.322	1059.008	797.845
371.898	16.442	1058.038	797.610
372.913	16.446	1057.402	797.079
373.927	16.410	1057.061	796.583
374.942	16.549	1056.612	796.828
375.956	16.385	1056.140	795.628
376.971	16.378	1055.820	795.281
377.986	16.466	1054.916	794.947
379.000	16.544	1054.574	794.986
380.015	16.694	1053.908	795.115
381.029	16.572	1053.394	794.086
382.044	16.572	1052.868	793.621
383.059	16.639	1051.787	793.048
384.073	16.693	1050.775	792.468
385.088	16.711	1049.685	791.661
386.102	16.699	1049.022	791.035
387.117	16.581	1048.335	789.896
388.132	16.677	1047.192	789.410
389.146	16.649	1046.604	788.767
390.161	16.656	1046.050	788.313
391.175	16.556	1045.402	787.291
392.190	16.716	1044.437	787.235
393.205	16.752	1043.811	786.864
394.219	16.743	1043.016	786.150
395.234	16.693	1042.237	785.262
396.248	16.722	1040.950	784.359
397.263	16.660	1040.279	783.496
398.278	16.637	1039.880	783.021
399.292	16.628	1039.512	782.631
400.307	16.698	1038.095	781.820
401.321	16.748	1037.467	781.506
402.336	16.664	1037.090	780.769
403.350	16.654	1036.326	780.075
404.365	16.759	1035.421	779.810
405.380	16.805	1034.813	779.497
406.394	16.738	1034.160	778.627
407.409	16.864	1033.627	778.733
408.423	16.839	1032.860	777.973
409.438	17.018	1031.994	778.075
410.453	17.079	1031.478	777.896
411.467	16.949	1030.966	776.844
412.482	17.075	1029.931	776.569
413.496	17.080	1029.392	776.120
414.511	17.160	1028.581	775.806
415.526	17.194	1028.356	775.722
416.540	17.093	1027.989	774.917
417.555	17.167	1027.347	774.700
418.569	17.156	1026.814	774.179
419.584	17.189	1026.532	774.047
420.599	17.128	1025.993	773.295
421.613	97.997	1312.061	1435.092
422.628	89.557	1353.733	1435.192
