DTS Sentinel unit serial number:	SN413079Multiplexer serial number:	ORYXHardware model number:	OX4-SRSoftware version number:	ORYX F/W v4.00 Oryx Data Collector v3.7.2.0data status	okinstallation	princeton_trtdifferential loss correction	single-endedforward channel	channel 2reverse channel	N/Adate	2019/09/16time	21:07:35forward acquisition time	60.00reverse acquisition time	0.00gamma	496.2192k internal	0.2329k external	0.2329temperature offset calibration	0.9965default loss term (dB/km)	0.3790temperature slope calibration	1.0000multiplexer offset coefficient	1.0000multiplexer slope coefficient	1.0000fibre end	0.00T internal ref (°C)	31.89T ext. ref 1 (°C)	0.05T ext. ref 2 (°C)	25.34length (m)	temperature (°C)	Stokes	anti-Stokes-747.200	-200.000	-0.012	0.299
-746.185	571.034	-0.187	0.458
-745.171	-200.000	-0.051	0.326
-744.156	-9.104	-0.152	-0.103
-743.142	555.924	0.027	-0.065
-742.127	800.000	-0.097	0.287
-741.112	-116.055	0.408	0.076
-740.098	208.210	0.109	0.172
-739.083	217.923	0.197	0.317
-738.069	133.993	0.239	0.312
-737.054	-83.842	-0.223	0.072
-736.039	25.012	0.199	0.166
-735.025	-134.275	-0.524	-0.065
-734.010	-149.955	-0.252	0.020
-732.996	-45.235	-0.060	-0.030
-731.981	-163.427	-0.314	-0.015
-730.966	57.297	0.086	0.084
-729.952	-200.000	-0.019	0.117
-728.937	321.154	0.135	-0.258
-727.923	-126.009	0.132	-0.020
-726.908	-68.462	-0.232	-0.090
-725.894	181.682	-0.092	-0.136
-724.879	-59.761	-0.231	0.100
-723.864	-145.315	-0.593	-0.054
-722.850	-85.413	0.137	0.043
-721.835	644.455	0.125	0.321
-720.821	111.872	-0.126	0.153
-719.806	-25.189	-0.227	-0.135
-718.791	109.032	-0.269	0.324
-717.777	295.293	-0.075	-0.138
-716.762	22.493	-0.102	-0.084
-715.748	257.027	-0.236	-0.408
-714.733	-200.000	-0.056	-0.561
-713.718	-53.826	-0.124	-0.057
-712.704	-155.371	-0.066	-0.004
-711.689	-11.090	-0.203	-0.135
-710.675	319.059	-0.118	0.226
-709.660	113.482	0.106	0.130
-708.645	20.520	-0.206	-0.168
-707.631	-200.000	-0.018	-0.133
-706.616	242.970	0.061	0.103
-705.602	-200.000	-0.018	-0.087
-704.587	669.118	-0.067	0.175
-703.572	131.049	0.186	0.240
-702.558	-5.943	-0.217	-0.149
-701.543	203.341	0.062	0.097
-700.529	305.142	-0.097	0.181
-699.514	800.000	-0.066	0.218
-698.499	330.604	-0.119	-0.230
-697.485	68.057	-0.053	0.055
-696.470	-54.092	0.317	-0.145
-695.456	-155.558	0.017	-0.001
-694.441	-200.000	-0.019	0.219
-693.426	180.354	-0.066	0.097
-692.412	142.744	-0.088	0.117
-691.397	629.624	-0.102	0.259
-690.383	390.717	-0.183	0.381
-689.368	-200.000	0.021	-0.156
-688.354	-200.000	-0.011	-0.287
-687.339	-200.000	0.005	0.059
-686.324	-136.701	-0.114	-0.013
-685.310	-200.000	-0.015	-0.185
-684.295	-32.227	0.230	-0.129
-683.281	-90.120	0.237	-0.069
-682.266	-65.309	-0.391	-0.158
-681.251	232.523	-0.060	-0.099
-680.237	171.858	0.156	-0.226
-679.222	-125.256	-0.145	0.022
-678.208	70.552	-0.260	-0.270
-677.193	800.000	0.059	0.179
-676.178	-78.434	-0.259	-0.089
-675.164	-200.000	0.025	-0.277
-674.149	-145.858	-0.299	-0.027
-673.135	-200.000	-0.006	0.085
-672.120	800.000	0.016	-0.058
-671.105	-62.868	0.229	-0.095
-670.091	800.000	0.095	-0.277
-669.076	-200.000	0.000	0.175
-668.062	-54.186	-0.081	0.037
-667.047	-34.022	0.086	-0.048
-666.032	-170.971	-0.183	-0.006
-665.018	-97.700	-0.220	0.057
-664.003	-143.188	0.045	-0.004
-662.989	-153.751	0.292	0.020
-661.974	325.492	0.147	0.282
-660.959	8.417	-0.085	-0.064
-659.945	-200.000	0.016	-0.104
-658.930	-76.378	0.116	0.041
-657.916	-5.192	0.078	-0.054
-656.901	100.736	-0.229	-0.267
-655.886	800.000	-0.056	0.165
-654.872	117.218	-0.049	0.061
-653.857	1.510	-0.119	-0.086
-652.843	800.000	-0.084	-0.254
-651.828	-146.692	-0.312	0.027
-650.814	-53.618	-0.345	0.158
-649.799	594.147	-0.137	0.339
-648.784	51.315	0.153	-0.146
-647.770	-130.563	0.040	-0.005
-646.755	24.241	-0.395	0.328
-645.741	-63.487	0.137	0.057
-644.726	-155.287	0.037	-0.002
-643.711	-76.225	0.111	-0.039
-642.697	201.083	-0.106	-0.164
-641.682	-55.174	0.195	0.088
-640.668	800.000	0.090	-0.344
-639.653	345.668	-0.094	0.186
-638.638	-160.426	0.122	-0.007
-637.624	-177.640	-0.233	-0.006
-636.609	-160.212	0.387	0.021
-635.595	22.884	0.026	-0.022
-634.580	20.958	-0.257	0.209
-633.565	19.703	-0.243	-0.196
-632.551	800.000	0.043	0.141
-631.536	-11.758	0.336	0.221
-630.522	-34.735	0.387	-0.212
-629.507	197.720	-0.356	-0.545
-628.492	-174.618	0.251	-0.007
-627.478	-46.318	-0.283	-0.140
-626.463	-200.000	-0.022	0.134
-625.449	199.947	0.222	0.341
-624.434	-106.503	0.268	0.060
-623.419	33.578	-0.142	-0.124
-622.405	-132.812	-0.234	-0.030
-621.390	-44.652	0.271	0.136
-620.376	-103.189	0.067	0.016
-619.361	-200.000	0.013	0.108
-618.346	81.568	-0.155	-0.168
-617.332	-200.000	0.012	0.114
-616.317	-200.000	0.038	0.247
-615.303	220.736	0.171	-0.275
-614.288	800.000	0.060	-0.193
-613.273	-114.316	-0.255	-0.049
-612.259	-200.000	-0.006	-0.173
-611.244	505.819	-0.125	0.289
-610.230	800.000	-0.024	-0.084
-609.215	-94.605	0.374	0.102
-608.201	-200.000	0.044	0.289
-607.186	-200.000	0.073	-0.402
-606.171	63.651	-0.318	-0.320
-605.157	-52.121	0.444	-0.206
-604.142	-63.598	0.122	-0.050
-603.128	-43.080	-0.152	-0.077
-602.113	241.295	0.045	-0.075
-601.098	-95.401	0.076	-0.021
-600.084	-106.313	0.294	0.066
-599.069	230.632	-0.259	-0.425
-598.055	-200.000	-0.022	-0.407
-597.040	-114.186	-0.219	-0.042
-596.025	-152.803	-0.302	0.021
-595.011	-127.806	0.125	-0.018
-593.996	800.000	0.120	0.339
-592.982	275.550	0.067	0.118
-591.967	8.430	-0.126	0.095
-590.952	-117.185	0.130	-0.024
-589.938	195.522	-0.109	-0.165
-588.923	333.283	0.037	-0.072
-587.909	82.541	-0.196	0.213
-586.894	-80.103	-0.116	-0.039
-585.879	407.250	-0.107	-0.225
-584.865	212.276	0.055	0.087
-583.850	800.000	-0.056	0.184
-582.836	16.351	-0.148	-0.117
-581.821	64.712	0.128	-0.130
-580.806	-99.001	0.128	-0.033
-579.792	-200.000	0.052	-0.235
-578.777	-18.322	-0.214	0.134
-577.763	-200.000	-0.003	0.055
-576.748	-159.581	0.244	-0.014
-575.733	-78.944	-0.222	-0.076
-574.719	-90.841	-0.073	-0.021
-573.704	-66.418	0.100	-0.040
-572.690	-111.793	0.181	0.037
-571.675	800.000	0.033	-0.104
-570.661	218.605	-0.233	-0.373
-569.646	98.927	0.057	0.066
-568.631	-200.000	0.013	0.067
-567.617	-133.904	-0.052	-0.006
-566.602	-97.173	-0.143	-0.037
-565.588	326.506	-0.152	-0.292
-564.573	-102.634	0.194	0.046
-563.558	-37.522	0.274	-0.146
-562.544	-134.639	-0.156	-0.019
-561.529	699.326	-0.160	0.420
-560.515	-83.617	0.175	0.056
-559.500	-69.647	0.177	0.068
-558.485	-158.317	0.133	-0.008
-557.471	-60.765	0.185	-0.078
-556.456	-103.403	-0.070	0.017
-555.442	-200.000	-0.007	-0.097
-554.427	-8.420	-0.100	0.067
-553.412	-141.136	-0.091	0.009
-552.398	17.852	0.034	-0.027
-551.383	800.000	-0.047	0.130
-550.369	5.513	-0.076	0.056
-549.354	-10.567	0.156	0.103
-548.339	389.327	0.139	-0.289
-547.325	-98.360	-0.128	-0.033
-546.310	98.735	0.219	0.253
-545.296	441.976	0.024	0.052
-544.281	-100.390	0.127	0.032
-543.266	396.533	0.067	-0.140
-542.252	135.716	0.063	-0.082
-541.237	-194.057	0.079	-0.001
-540.223	7.752	-0.104	0.078
-539.208	-117.205	0.104	-0.019
-538.193	376.862	-0.033	0.067
-537.179	-151.709	-0.472	-0.035
-536.164	-137.491	-0.103	0.012
-535.150	800.000	-0.044	-0.168
-534.135	359.930	-0.109	-0.219
-533.121	-200.000	-0.018	-0.249
-532.106	-200.000	0.110	-0.501
-531.091	-200.000	-0.006	0.182
-530.077	-85.282	0.147	0.046
-529.062	19.287	0.060	-0.048
-528.048	14.304	0.219	0.171
-527.033	48.339	0.151	0.141
-526.018	42.652	0.381	0.347
-525.004	17.682	-0.339	-0.270
-523.989	91.285	0.172	-0.193
-522.975	-177.940	-0.406	-0.010
-521.960	46.246	-0.158	0.147
-520.945	-107.914	-0.241	0.052
-519.931	29.502	0.061	-0.052
-518.916	-41.799	-0.281	-0.144
-517.902	-200.000	0.006	-0.077
-516.887	-33.984	0.218	0.120
-515.872	-79.706	0.104	0.035
-514.858	-200.000	0.000	0.009
-513.843	800.000	-0.077	-0.217
-512.829	-111.715	-0.074	-0.015
-511.814	-30.868	0.034	-0.019
-510.799	171.488	0.082	0.118
-509.785	-57.861	0.299	0.130
-508.770	37.216	-0.061	0.054
-507.756	-158.199	-0.312	0.018
-506.741	189.617	-0.107	-0.161
-505.726	-200.000	0.012	-0.306
-504.712	-200.000	0.008	0.050
-503.697	-101.927	-0.085	0.020
-502.683	-117.672	-0.245	0.044
-501.668	238.865	-0.127	0.210
-500.653	-121.405	-0.244	-0.041
-499.639	121.939	-0.092	-0.114
-498.624	236.163	-0.126	-0.208
-497.610	-200.000	0.001	0.128
-496.595	-69.449	-0.065	0.025
-495.581	-47.364	-0.301	-0.146
-494.566	746.751	0.024	0.065
-493.551	-163.318	-0.208	0.010
-492.537	13.839	-0.068	-0.053
-491.522	-200.000	-0.358	0.001
-490.508	-200.000	-0.006	-0.419
-489.493	-165.276	-0.079	-0.003
-488.478	-93.864	0.257	0.071
-487.464	-200.000	0.008	0.507
-486.449	137.260	-0.054	-0.070
-485.435	-35.840	0.185	0.100
-484.420	-136.157	-0.127	0.015
-483.405	-75.677	-0.130	-0.046
-482.391	31.085	-0.148	0.127
-481.376	-55.756	0.123	-0.055
-480.362	-84.061	-0.108	0.034
-479.347	800.000	-0.065	0.249
-478.332	-109.244	0.156	-0.033
-477.318	-0.074	-0.214	-0.152
-476.303	-200.000	-0.002	-0.115
-475.289	36.092	-0.224	0.197
-474.274	393.425	-0.099	-0.206
-473.259	-112.842	-0.052	-0.010
-472.245	74.697	0.084	0.088
-471.230	-200.000	0.063	-0.369
-470.216	-200.000	-0.004	-0.151
-469.201	-200.000	-0.035	-0.237
-468.186	800.000	-0.089	0.268
-467.172	-60.540	-0.222	-0.094
-466.157	8.459	-0.234	-0.175
-465.143	-96.656	-0.329	0.086
-464.128	537.223	0.096	-0.227
-463.113	-38.763	0.168	-0.088
-462.099	371.362	-0.057	0.115
-461.084	33.804	-0.120	-0.104
-460.070	-84.161	0.343	0.108
-459.055	-200.000	-0.016	0.082
-458.040	-29.331	0.190	-0.108
-457.026	-200.000	0.018	0.435
-456.011	-84.622	0.214	-0.067
-454.997	-38.692	-0.064	0.033
-453.982	178.252	0.048	-0.070
-452.968	-200.000	-0.016	0.361
-451.953	-130.939	0.308	-0.041
-450.938	224.797	0.010	0.016
-449.924	-56.569	0.031	0.014
-448.909	-200.000	-0.007	0.124
-447.895	736.149	-0.067	-0.179
-446.880	800.000	-0.051	0.203
-445.865	-200.000	-0.004	-0.109
-444.851	-75.478	-0.175	0.062
-443.836	800.000	-0.183	0.612
-442.822	-27.670	0.263	-0.152
-441.807	-138.108	0.293	-0.032
-440.792	-155.055	0.373	-0.024
-439.778	800.000	0.135	0.442
-438.763	96.055	-0.119	0.135
-437.749	-29.180	-0.237	0.135
-436.734	11.870	-0.188	-0.144
-435.719	-82.295	0.168	0.055
-434.705	-187.229	-0.452	-0.006
-433.690	-34.229	-0.156	-0.085
-432.676	-52.283	0.245	0.113
-431.661	8.623	-0.332	-0.249
-430.646	7.361	0.022	-0.016
-429.632	-120.414	0.213	-0.036
-428.617	33.394	-0.137	0.118
-427.603	-61.205	0.245	0.103
-426.588	-200.000	0.026	-0.336
-425.573	66.319	-0.128	-0.129
-424.559	-200.000	0.022	0.161
-423.544	-186.354	0.358	0.005
-422.530	-90.482	-0.346	-0.100
-421.515	152.336	0.173	0.236
-420.500	17.552	0.144	0.114
-419.486	800.000	0.072	-0.265
-418.471	-35.422	0.056	0.031
-417.457	7.288	0.046	-0.034
-416.442	-118.933	-0.038	0.007
-415.428	-200.000	-0.008	0.258
-414.413	-92.270	0.255	-0.072
-413.398	-80.272	0.270	0.090
-412.384	-93.868	0.033	0.009
-411.369	-59.754	0.151	-0.064
-410.355	83.735	-0.163	0.177
-409.340	-120.284	0.088	-0.015
-408.325	476.513	-0.179	0.403
-407.311	754.273	0.127	-0.342
-406.296	-147.510	-0.286	0.024
-405.282	-191.557	0.069	0.001
-404.267	28.062	0.043	-0.036
-403.252	-25.687	0.294	0.172
-402.238	161.987	0.274	-0.382
-401.223	-161.536	-0.498	-0.025
-400.209	-200.000	0.010	0.059
-399.194	-81.171	-0.202	-0.066
-398.179	-70.712	-0.202	0.076
-397.165	-59.262	-0.073	0.031
-396.150	-200.000	0.075	0.479
-395.136	46.431	0.196	-0.181
-394.121	52.059	0.062	-0.059
-393.106	-65.170	-0.186	0.074
-392.092	-200.000	0.022	0.199
-391.077	95.837	0.141	-0.159
-390.063	-52.139	-0.213	-0.098
-389.048	-161.461	0.256	-0.013
-388.033	289.746	-0.031	-0.056
-387.019	-200.000	-0.008	0.157
-386.004	46.603	-0.146	0.135
-384.990	710.215	-0.068	0.179
-383.975	-55.074	0.235	-0.105
-382.960	131.337	0.110	0.141
-381.946	451.065	0.065	0.144
-380.931	800.000	0.078	0.336
-379.917	-123.310	0.105	0.017
-378.902	27.613	0.343	-0.287
-377.888	800.000	-0.078	0.261
-376.873	-81.846	0.212	0.069
-375.858	53.446	-0.036	0.034
-374.844	-127.911	0.143	-0.020
-373.829	74.144	-0.227	-0.236
-372.815	-141.403	-0.185	0.019
-371.800	-74.869	0.139	-0.049
-370.785	-102.651	-0.293	-0.069
-369.771	110.509	0.066	-0.078
-368.756	30.666	-0.427	-0.363
-367.742	800.000	0.113	0.474
-366.727	172.368	0.042	0.059
-365.712	-200.000	-0.008	0.065
-364.698	78.829	0.200	0.213
-363.683	128.145	-0.087	0.109
-362.669	9.694	-0.261	0.196
-361.654	-200.000	0.033	0.199
-360.639	209.453	-0.045	-0.069
-359.625	236.540	-0.065	0.106
-358.610	155.187	-0.143	0.195
-357.596	-69.238	-0.094	0.036
-356.581	-46.433	-0.487	0.237
-355.566	-200.000	0.046	0.532
-354.552	50.086	-0.112	-0.105
-353.537	-200.000	-0.007	0.071
-352.523	800.000	-0.018	0.066
-351.508	-168.605	-0.286	0.011
-350.493	-50.364	0.191	0.089
-349.479	27.057	0.094	0.078
-348.464	9.518	0.030	-0.023
-347.450	19.648	0.030	0.024
-346.435	-172.983	0.109	0.003
-345.420	127.109	-0.140	-0.176
-344.406	346.209	-0.081	-0.157
-343.391	5.620	0.160	-0.117
-342.377	7.824	-0.242	0.180
-341.362	148.394	0.144	0.193
-340.348	-200.000	0.008	0.263
-339.333	176.870	0.159	-0.229
-338.318	-200.000	-0.035	-0.190
-337.304	36.388	-0.054	0.047
-336.289	-154.594	0.286	0.019
-335.275	-141.311	0.134	-0.014
-334.260	-40.974	-0.131	0.067
-333.245	307.693	0.212	-0.391
-332.231	99.631	0.199	-0.228
-331.216	234.645	0.045	0.073
-330.202	-60.762	-0.117	-0.049
-329.187	-27.365	-0.073	-0.042
-328.172	-63.352	0.184	-0.075
-327.158	-75.854	0.075	-0.026
-326.143	-120.311	-0.196	-0.033
-325.129	-7.381	0.119	0.080
-324.114	202.726	0.048	0.073
-323.099	480.831	-0.129	0.290
-322.085	75.326	-0.288	-0.301
-321.070	-123.931	0.106	-0.016
-320.056	8.897	0.132	0.098
-319.041	-200.000	-0.034	0.336
-318.026	800.000	-0.067	0.220
-317.012	-103.644	0.052	-0.012
-315.997	-19.902	0.185	0.113
-314.983	-200.000	-0.009	0.134
-313.968	14.235	-0.359	-0.277
-312.953	-200.000	-0.043	-0.292
-311.939	47.777	-0.064	0.059
-310.924	-73.039	-0.290	-0.105
-309.910	386.833	0.006	0.013
-308.895	-175.614	0.223	-0.006
-307.880	-108.106	0.365	0.078
-306.866	-27.518	0.188	0.108
-305.851	-42.391	-0.381	0.193
-304.837	-19.470	0.246	0.151
-303.822	-103.237	-0.082	0.019
-302.807	21.612	-0.047	0.038
-301.793	800.000	-0.180	0.542
-300.778	197.486	-0.035	-0.053
-299.764	-20.752	-0.175	0.106
-298.749	-20.012	-0.240	-0.147
-297.735	178.810	0.142	0.205
-296.720	41.143	-0.067	0.060
-295.705	651.884	0.085	0.215
-294.691	519.278	0.071	-0.164
-293.676	-183.378	-0.220	0.004
-292.662	454.645	-0.089	0.195
-291.647	-61.603	0.193	-0.080
-290.632	554.784	0.115	-0.274
-289.618	-161.775	0.173	0.009
-288.603	-98.104	0.209	-0.053
-287.589	-183.306	-0.294	-0.005
-286.574	353.383	-0.236	-0.464
-285.559	-98.394	-0.100	0.025
-284.545	-63.166	0.245	-0.100
-283.530	-200.000	0.047	0.367
-282.516	-200.000	-0.053	0.286
-281.501	10.421	0.075	-0.057
-280.486	-200.000	0.016	0.181
-279.472	-68.295	0.318	0.122
-278.457	-200.000	0.043	-0.216
-277.443	-1.677	0.199	-0.139
-276.428	-200.000	-0.009	-0.139
-275.413	115.179	-0.302	-0.364
-274.399	-17.570	-0.270	0.168
-273.384	-97.624	-0.236	0.060
-272.370	145.252	-0.070	-0.093
-271.355	34.734	0.175	-0.151
-270.340	-200.000	0.021	-0.269
-269.326	61.515	-0.207	-0.204
-268.311	-200.000	0.031	0.329
-267.297	43.342	-0.429	-0.388
-266.282	-68.818	0.231	-0.088
-265.267	-25.778	0.086	-0.050
-264.253	-157.822	0.088	0.005
-263.238	3.925	-0.068	0.049
-262.224	126.993	0.138	-0.173
-261.209	33.015	-0.214	0.183
-260.195	55.834	-0.168	-0.161
-259.180	-139.804	0.250	0.026
-258.165	800.000	0.046	-0.130
-257.151	68.412	-0.209	0.212
-256.136	-200.000	-0.015	0.212
-255.122	-200.000	-0.009	0.247
-254.107	501.916	-0.099	-0.226
-253.092	54.776	0.116	0.110
-252.078	345.042	0.205	0.399
-251.063	-9.758	-0.072	0.047
-250.049	-200.000	0.030	-0.240
-249.034	-120.830	-0.418	0.070
-248.019	-135.755	-0.187	-0.022
-247.005	-13.414	-0.115	0.074
-245.990	-124.693	0.301	0.046
-244.976	-200.000	0.023	0.152
-243.961	-30.055	-0.065	0.036
-242.946	-17.364	-0.256	0.160
-241.932	800.000	-0.069	0.214
-240.917	-100.364	0.091	0.022
-239.903	-200.000	-0.027	0.165
-238.888	-48.018	0.318	-0.152
-237.873	-200.000	-0.004	0.019
-236.859	203.833	0.074	-0.114
-235.844	-8.954	0.253	-0.168
-234.830	-45.368	0.339	-0.166
-233.815	36.589	-0.307	-0.267
-232.800	-15.253	0.378	0.239
-231.786	85.034	0.118	-0.127
-230.771	-200.000	-0.011	-0.097
-229.757	-103.825	0.271	0.063
-228.742	-78.153	0.238	0.081
-227.727	496.857	-0.072	-0.163
-226.713	-58.664	0.150	-0.064
-225.698	-93.941	-0.197	-0.054
-224.684	-22.809	0.274	-0.163
-223.669	278.833	0.041	0.072
-222.655	-29.194	-0.127	-0.072
-221.640	-125.505	-0.061	0.009
-220.625	145.210	-0.137	0.182
-219.611	-7.258	0.093	-0.062
-218.596	-200.000	0.003	-0.125
-217.582	-200.000	-0.005	0.189
-216.567	-159.960	0.285	0.015
-215.552	-200.000	0.029	-0.192
-214.538	617.115	0.076	-0.189
-213.523	-133.397	-0.048	-0.006
-212.509	-126.712	-0.223	-0.033
-211.494	91.302	-0.146	-0.161
-210.479	64.065	-0.252	-0.250
-209.465	141.419	0.104	0.136
-208.450	800.000	0.037	0.148
-207.436	-7.184	0.298	-0.199
-206.421	-200.000	-0.026	-0.274
-205.406	-71.704	-0.208	-0.077
-204.392	6.080	0.146	-0.107
-203.377	81.296	-0.158	-0.168
-202.363	53.913	-0.033	0.031
-201.348	308.427	-0.103	0.189
-200.333	-200.000	0.099	0.455
-199.319	52.617	0.091	-0.085
-198.304	-170.793	-0.404	-0.014
-197.290	754.348	0.081	-0.216
-196.275	-200.000	-0.012	0.214
-195.260	-156.705	0.323	0.020
-194.246	-183.581	0.381	0.006
-193.231	105.157	0.075	-0.087
-192.217	202.548	0.125	-0.190
-191.202	-200.000	-0.021	-0.257
-190.187	800.000	-0.093	0.352
-189.173	-44.200	0.150	0.074
-188.158	800.000	0.052	0.201
-187.144	-42.680	0.230	-0.115
-186.129	-48.007	0.556	-0.265
-185.114	586.734	-0.140	-0.340
-184.100	-68.295	0.179	0.068
-183.085	-59.738	0.114	-0.048
-182.071	13.042	0.103	-0.078
-181.056	-94.545	-0.246	0.066
-180.042	-200.000	-0.040	-0.182
-179.027	800.000	0.087	-0.271
-178.012	464.823	0.079	0.174
-176.998	800.000	-0.009	-0.036
-175.983	202.106	0.057	-0.087
-174.969	-158.633	-0.452	0.026
-173.954	-83.884	0.196	0.062
-172.939	-24.519	-0.250	0.147
-171.925	140.630	-0.095	0.123
-170.910	-200.000	0.001	-0.012
-169.896	-67.762	0.182	-0.070
-168.881	-82.512	-0.247	-0.079
-167.866	-200.000	-0.064	-0.322
-166.852	114.691	0.119	-0.143
-165.837	-200.000	0.012	-0.056
-164.823	149.708	-0.210	0.281
-163.808	99.964	0.202	0.231
-162.793	-200.000	0.024	-0.176
-161.779	-147.618	-0.291	0.024
-160.764	-107.102	0.124	-0.027
-159.750	-108.851	-0.245	-0.052
-158.735	-70.778	0.231	0.086
-157.720	0.342	-0.159	-0.112
-156.706	75.909	0.177	0.184
-155.691	-59.972	0.118	-0.050
-154.677	282.757	0.178	0.314
-153.662	-95.548	0.052	-0.014
-152.647	480.861	0.076	-0.170
-151.633	-71.482	-0.183	0.068
-150.618	-56.743	-0.174	-0.076
-149.604	129.319	-0.068	-0.086
-148.589	-101.698	0.283	-0.068
-147.574	-169.525	-0.069	0.002
-146.560	-200.000	0.010	-0.073
-145.545	100.825	0.178	-0.203
-144.531	-76.621	-0.049	0.017
-143.516	-60.162	0.203	-0.085
-142.502	-72.228	0.411	0.150
-141.487	-200.000	-0.002	0.378
-140.472	-2.098	0.067	0.046
-139.458	-200.000	-0.014	-0.237
-138.443	-1.260	0.287	-0.200
-137.429	-200.000	-0.005	0.167
-136.414	339.352	-0.068	0.131
-135.399	-200.000	0.020	0.138
-134.385	-200.000	0.003	-0.077
-133.370	800.000	-0.065	-0.229
-132.356	-158.007	-0.132	0.008
-131.341	800.000	-0.014	0.038
-130.326	-23.101	0.169	-0.100
-129.312	43.032	0.281	0.252
-128.297	511.612	-0.081	0.185
-127.283	559.919	0.100	0.238
-126.268	232.911	0.088	-0.142
-125.253	-143.826	0.212	0.020
-124.239	289.952	-0.222	-0.397
-123.224	-200.000	0.003	0.023
-122.210	62.955	-0.095	-0.094
-121.195	-200.000	0.039	-0.235
-120.180	-11.395	0.180	-0.117
-119.166	80.490	-0.066	-0.070
-118.151	-109.370	0.075	-0.016
-117.137	-31.882	0.412	-0.227
-116.122	63.999	-0.073	0.072
-115.107	224.234	-0.236	0.375
-114.093	800.000	0.030	0.110
-113.078	-106.725	-0.309	-0.068
-112.064	-26.469	-0.288	0.166
-111.049	-200.000	-0.041	-0.296
-110.034	-105.780	-0.266	-0.059
-109.020	-25.584	0.092	-0.054
-108.005	192.514	-0.347	0.515
-106.991	-65.853	0.289	-0.114
-105.976	621.220	-0.043	0.107
-104.962	-28.294	-0.220	-0.125
-103.947	3.308	0.056	-0.040
-102.932	-89.027	-0.210	0.061
-101.918	-200.000	-0.072	0.354
-100.903	-82.987	-0.084	0.027
-99.889	-200.000	-0.023	0.259
-98.874	-33.800	0.191	0.103
-97.859	440.709	-0.063	0.136
-96.845	330.755	-0.089	0.169
-95.830	-200.000	-0.005	-0.092
-94.816	171.529	-0.206	0.290
-93.801	432.270	-0.162	-0.345
-92.786	790.709	0.028	0.074
-91.772	-74.923	0.279	0.098
-90.757	-94.536	-0.128	-0.034
-89.743	10.971	0.238	0.179
-88.728	-200.000	-0.002	0.105
-87.713	-59.392	-0.216	0.091
-86.699	-72.042	-0.260	0.095
-85.684	-122.952	-0.342	0.054
-84.670	31.917	0.061	0.051
-83.655	-168.602	0.233	0.009
-82.640	-65.163	0.279	0.111
-81.626	80.360	0.068	0.072
-80.611	89.429	-0.419	-0.459
-79.597	-185.840	-0.170	0.002
-78.582	446.491	-0.039	0.084
-77.567	-176.366	0.240	-0.006
-76.553	15.641	0.289	-0.223
-75.538	39.964	0.223	0.196
-74.524	81.488	-0.107	-0.114
-73.509	76.873	0.146	0.152
-72.494	-140.587	0.291	0.030
-71.480	493.482	-0.136	-0.306
-70.465	-200.000	0.004	0.042
-69.451	-69.348	-0.275	-0.104
-68.436	-200.000	0.039	-0.243
-67.422	-200.000	0.037	0.250
-66.407	19.991	0.097	0.076
-65.392	-66.679	-0.443	-0.172
-64.378	10.497	0.029	0.022
-63.363	177.630	0.088	-0.126
-62.349	356.712	-0.088	0.172
-61.334	-60.692	-1.378	-0.573
-60.319	76.384	0.669	0.695
-59.305	308.780	-0.351	-0.642
-58.290	515.341	0.477	1.093
-57.276	800.000	0.370	1.381
-56.261	-200.000	96.923	590.697
-55.246	545.137	1380.640	3235.029
-54.232	162.092	2553.820	3509.080
-53.217	106.162	2262.770	2627.955
-52.203	41.200	1892.299	1677.019
-51.188	35.185	1683.827	1446.954
-50.173	32.475	1640.495	1389.691
-49.159	50.163	1687.515	1562.252
-48.144	51.782	1704.434	1589.965
-47.130	34.809	1665.394	1428.081
-46.115	32.059	1651.490	1395.690
-45.100	31.916	1646.699	1390.528
-44.086	31.877	1643.866	1387.791
-43.071	31.801	1641.451	1385.134
-42.057	31.782	1639.452	1383.251
-41.042	31.873	1636.703	1381.551
-40.027	31.810	1634.953	1379.555
-39.013	31.794	1633.019	1377.749
-37.998	31.709	1632.020	1376.223
-36.984	31.778	1631.010	1375.826
-35.969	31.902	1629.086	1375.060
-34.954	31.957	1627.495	1374.060
-33.940	31.865	1625.866	1371.959
-32.925	31.805	1624.385	1370.221
-31.911	31.877	1622.054	1368.724
-30.896	31.874	1620.332	1367.196
-29.881	31.953	1618.732	1366.368
-28.867	31.876	1617.438	1364.658
-27.852	31.852	1615.856	1363.092
-26.838	31.884	1614.482	1362.112
-25.823	31.932	1612.733	1360.936
-24.809	31.869	1611.921	1359.736
-23.794	31.852	1610.984	1358.769
-22.779	31.903	1609.041	1357.446
-21.765	31.928	1607.070	1355.913
-20.750	31.818	1606.111	1354.253
-19.736	31.888	1604.702	1353.512
-18.721	31.952	1602.800	1352.321
-17.706	31.894	1601.361	1350.631
-16.692	31.929	1599.786	1349.502
-15.677	31.939	1598.760	1348.655
-14.663	32.055	1597.237	1348.151
-13.648	31.949	1595.706	1346.043
-12.633	31.893	1594.741	1344.779
-11.619	31.923	1592.569	1343.103
-10.604	31.961	1591.267	1342.225
-9.590	31.970	1590.019	1341.185
-8.575	31.935	1588.650	1339.728
-7.560	31.947	1587.644	1338.914
-6.546	31.946	1586.393	1337.795
-5.531	31.924	1585.191	1336.570
-4.517	31.995	1583.659	1335.732
-3.502	31.892	1583.192	1334.553
-2.487	32.027	1581.405	1333.953
-1.473	31.703	1569.400	1321.487
-0.458	28.574	1550.469	1283.645
0.556	22.845	1550.619	1249.842
1.571	20.397	1573.420	1250.500
2.586	19.862	1586.597	1256.975
3.600	18.080	1534.457	1203.028
4.615	10.070	1424.939	1064.515
5.629	1.861	1359.340	963.680
6.644	0.152	1351.175	947.058
7.659	0.009	1349.568	944.952
8.673	0.032	1348.714	944.415
9.688	0.017	1346.435	942.638
10.702	-0.232	1343.743	939.114
11.717	3.674	1349.820	967.790
12.731	12.391	1363.683	1032.631
13.746	17.598	1370.032	1070.143
14.761	17.213	1368.174	1066.178
15.775	16.147	1365.401	1057.247
16.790	15.157	1362.159	1048.452
17.804	14.279	1360.904	1041.896
18.819	14.035	1359.100	1038.900
19.834	13.795	1357.470	1036.064
20.848	13.488	1356.541	1033.351
21.863	13.282	1355.203	1030.952
22.877	13.199	1353.980	1029.415
23.892	13.111	1353.098	1028.107
24.907	13.042	1352.540	1027.160
25.921	13.081	1351.420	1026.461
26.936	13.062	1350.810	1025.790
27.950	13.118	1349.435	1025.000
28.965	13.217	1348.781	1025.032
29.980	13.289	1347.585	1024.473
30.994	13.249	1347.184	1023.835
32.009	13.333	1346.337	1023.620
33.023	13.317	1345.332	1022.666
34.038	13.314	1343.393	1021.081
35.053	13.192	1343.041	1019.970
36.067	13.225	1341.432	1018.863
37.082	13.220	1340.731	1018.210
38.096	13.355	1339.138	1017.736
39.111	13.347	1338.348	1016.996
40.126	13.196	1337.971	1015.693
41.140	13.073	1337.541	1014.523
42.155	13.106	1336.862	1014.123
43.169	13.096	1336.603	1013.774
44.184	13.082	1336.694	1013.664
45.199	13.135	1335.902	1013.298
46.213	13.066	1335.650	1012.596
47.228	13.141	1334.634	1012.198
48.242	13.143	1333.389	1011.172
49.257	13.175	1331.488	1009.842
50.271	13.190	1330.581	1009.151
51.286	13.395	1328.708	1008.897
52.301	13.241	1328.026	1007.349
53.315	13.088	1327.091	1005.617
54.330	13.198	1325.458	1004.963
55.344	13.160	1324.536	1003.941
56.359	13.178	1323.387	1003.092
57.374	13.213	1322.223	1002.335
58.388	13.051	1322.136	1001.193
59.403	13.069	1321.236	1000.535
60.417	13.025	1320.961	999.974
61.432	13.034	1319.756	999.027
62.447	13.012	1318.771	998.061
63.461	13.055	1317.125	996.984
64.476	12.890	1316.825	995.673
65.490	13.028	1315.362	995.309
66.505	13.065	1313.569	994.088
67.520	13.097	1312.333	993.255
68.534	13.062	1311.835	992.582
69.549	12.992	1310.409	990.996
70.563	13.000	1309.652	990.384
71.578	13.038	1307.956	989.238
72.593	12.907	1307.654	988.139
73.607	12.878	1306.743	987.189
74.622	13.005	1305.482	986.908
75.636	13.003	1304.547	986.104
76.651	12.952	1304.030	985.322
77.666	12.989	1303.028	984.700
78.680	12.962	1303.156	984.547
79.695	12.862	1302.372	983.271
80.709	13.122	1301.137	983.801
81.724	13.029	1300.967	983.029
82.739	13.079	1299.633	982.234
83.753	13.144	1298.805	981.908
84.768	13.170	1297.925	981.311
85.782	13.337	1296.516	981.147
86.797	13.233	1295.057	979.340
87.812	13.137	1294.555	978.303
88.826	13.127	1293.101	977.063
89.841	13.109	1292.234	976.212
90.855	13.311	1290.634	976.110
91.870	13.241	1290.234	975.307
92.884	13.249	1288.736	974.138
93.899	13.326	1288.329	974.199
94.914	13.278	1287.981	973.567
95.928	13.306	1286.873	972.805
96.943	13.284	1286.308	972.165
97.957	13.265	1285.193	971.122
98.972	13.257	1284.131	970.185
99.987	13.269	1283.011	969.329
101.001	13.343	1281.961	968.881
102.016	13.267	1281.163	967.747
103.030	13.209	1280.618	966.907
104.045	13.277	1279.216	966.162
105.060	13.264	1277.994	965.082
106.074	13.127	1277.191	963.588
107.089	13.082	1275.684	962.102
108.103	13.033	1274.474	960.821
109.118	13.138	1272.805	960.086
110.133	13.122	1271.194	958.696
111.147	13.091	1270.001	957.531
112.162	13.088	1269.042	956.707
113.176	13.055	1268.437	955.972
114.191	13.123	1267.417	955.513
115.206	13.180	1265.882	954.602
116.220	13.175	1264.732	953.619
117.235	13.150	1263.927	952.784
118.249	13.151	1262.756	951.823
119.264	13.126	1261.993	951.023
120.279	13.053	1260.381	949.301
121.293	13.046	1259.747	948.701
122.308	13.004	1258.647	947.548
123.322	13.085	1257.258	946.879
124.337	13.050	1256.203	945.805
125.352	13.047	1255.397	945.095
126.366	12.976	1254.373	943.833
127.381	13.041	1252.968	943.064
128.395	13.109	1252.079	942.699
129.410	13.046	1251.522	941.839
130.424	13.185	1250.369	941.680
131.439	13.074	1249.821	940.553
132.454	13.117	1248.783	939.933
133.468	13.161	1247.621	939.224
134.483	13.190	1247.136	938.938
135.497	13.236	1245.698	938.038
136.512	13.166	1244.581	936.712
137.527	13.276	1243.106	936.145
138.541	13.161	1241.823	934.448
139.556	13.147	1240.624	933.385
140.570	13.259	1239.993	933.460
141.585	13.232	1238.712	932.260
142.600	13.240	1237.491	931.303
143.614	13.278	1237.073	931.117
144.629	13.341	1235.738	930.384
145.643	13.363	1234.260	929.312
146.658	13.300	1233.364	928.204
147.673	13.233	1231.721	926.510
148.687	13.323	1230.569	926.064
149.702	13.142	1229.523	924.185
150.716	13.251	1227.990	923.557
151.731	13.250	1226.875	922.633
152.746	13.181	1225.856	921.403
153.760	13.239	1224.227	920.415
154.775	13.297	1223.662	920.232
155.789	13.292	1222.827	919.494
156.804	13.444	1221.561	919.310
157.819	13.386	1220.487	918.097
158.833	13.346	1219.790	917.271
159.848	13.571	1218.254	917.278
160.862	13.541	1217.685	916.603
161.877	13.241	1217.043	914.380
162.892	13.361	1215.400	913.727
163.906	13.405	1214.556	913.253
164.921	13.478	1213.818	913.023
165.935	13.420	1212.725	911.799
166.950	13.314	1212.699	911.113
167.964	13.350	1211.502	910.333
168.979	13.467	1210.552	910.179
169.994	13.423	1210.204	909.596
171.008	13.474	1209.148	909.002
172.023	13.539	1208.185	908.556
173.037	13.569	1207.913	908.433
174.052	13.513	1206.697	907.136
175.067	13.412	1205.982	905.961
176.081	13.469	1204.345	904.964
177.096	13.552	1203.561	904.750
178.110	13.445	1202.490	903.282
179.125	13.549	1201.697	903.172
180.140	13.527	1200.278	901.906
181.154	13.538	1198.912	900.857
182.169	13.529	1198.207	900.200
183.183	13.667	1196.868	899.862
184.198	13.719	1195.563	899.082
185.213	13.687	1194.602	898.108
186.227	13.733	1193.161	897.197
187.242	13.667	1192.670	896.391
188.256	13.778	1191.242	895.835
189.271	13.784	1190.515	895.240
190.286	13.643	1188.902	893.189
191.300	13.595	1187.920	892.117
192.315	13.494	1188.070	891.609
193.329	13.524	1187.383	891.172
194.344	13.572	1187.053	891.104
195.359	13.642	1186.485	890.975
196.373	13.714	1185.566	890.593
197.388	13.833	1185.113	890.811
198.402	13.783	1185.334	890.633
199.417	13.926	1183.924	890.261
200.432	13.984	1182.944	889.754
201.446	14.032	1182.259	889.416
202.461	14.056	1181.520	888.912
203.475	14.032	1180.669	888.067
204.490	13.979	1179.341	886.703
205.504	13.940	1177.964	885.384
206.519	13.937	1176.637	884.293
207.534	13.858	1175.658	883.059
208.548	13.951	1174.698	882.752
209.563	13.981	1174.166	882.433
210.577	13.904	1173.229	881.242
211.592	14.007	1172.685	881.299
212.607	14.119	1171.332	880.799
213.621	14.098	1170.749	880.172
214.636	14.065	1169.932	879.306
215.650	14.017	1168.928	878.222
216.665	14.161	1167.850	878.095
217.680	14.172	1166.921	877.375
218.694	14.154	1166.526	876.906
219.709	14.172	1165.576	876.207
220.723	14.180	1164.794	875.583
221.738	14.183	1164.152	875.039
222.753	14.301	1163.060	874.761
223.767	14.216	1162.447	873.779
224.782	14.321	1161.790	873.759
225.796	14.348	1161.508	873.608
226.811	14.285	1160.849	872.706
227.826	14.211	1160.260	871.798
228.840	14.266	1159.371	871.339
229.855	14.218	1158.708	870.516
230.869	14.273	1157.692	869.964
231.884	14.249	1156.759	869.060
232.899	14.353	1156.096	869.028
233.913	14.109	1155.622	867.322
234.928	14.147	1154.952	866.941
235.942	14.254	1154.002	866.706
236.957	14.322	1153.001	866.232
237.972	14.337	1152.165	865.603
238.986	14.258	1151.962	864.967
240.001	14.291	1151.130	864.437
241.015	14.216	1150.308	863.353
242.030	14.336	1149.481	863.279
243.045	14.337	1148.997	862.845
244.059	14.453	1147.873	862.521
245.074	14.370	1147.147	861.472
246.088	14.386	1146.214	860.777
247.103	14.525	1145.568	860.936
248.117	14.522	1144.838	860.296
249.132	14.641	1143.946	860.160
250.147	14.695	1143.391	859.948
251.161	14.736	1142.705	859.565
252.176	14.755	1141.754	858.872
253.190	14.785	1141.378	858.666
254.205	14.649	1141.141	857.713
255.220	14.799	1140.656	858.043
256.234	14.797	1139.512	857.096
257.249	14.858	1138.779	856.781
258.263	14.739	1138.868	856.163
259.278	14.869	1138.090	856.169
260.293	14.838	1137.278	855.324
261.307	14.893	1136.391	854.858
262.322	14.963	1135.799	854.698
263.336	14.901	1135.562	854.124
264.351	14.915	1134.970	853.675
265.366	15.007	1134.148	853.455
266.380	14.934	1133.338	852.398
267.395	14.921	1132.516	851.637
268.409	14.879	1132.025	850.978
269.424	14.861	1131.031	850.063
270.439	14.982	1130.406	850.132
271.453	14.971	1129.583	849.383
272.468	14.953	1128.419	848.343
273.482	15.010	1128.093	848.310
274.497	14.954	1127.818	847.747
275.512	15.010	1127.116	847.426
276.526	14.895	1126.578	846.362
277.541	14.981	1125.496	845.909
278.555	15.003	1124.966	845.551
279.570	15.146	1123.996	845.469
280.585	15.100	1123.457	844.755
281.599	15.143	1122.484	844.164
282.614	15.200	1121.427	843.584
283.628	15.132	1120.255	842.285
284.643	15.058	1119.795	841.490
285.657	15.119	1119.184	841.264
286.672	15.158	1117.847	840.383
287.687	15.140	1116.897	839.501
288.701	15.289	1116.562	839.924
289.716	15.183	1115.765	838.721
290.730	15.187	1114.746	837.900
291.745	15.237	1114.054	837.553
292.760	15.281	1113.445	837.243
293.774	15.324	1112.740	836.854
294.789	15.344	1112.674	836.827
295.803	15.457	1111.329	836.305
296.818	15.312	1110.772	835.087
297.833	15.228	1110.247	834.205
298.847	15.332	1109.303	833.939
299.862	15.435	1108.130	833.492
300.876	15.351	1108.048	832.943
301.891	15.423	1107.052	832.475
302.906	15.408	1106.786	832.128
303.920	15.543	1105.834	832.006
304.935	15.499	1105.732	831.639
305.949	15.555	1104.664	831.039
306.964	15.546	1104.116	830.507
307.979	15.602	1103.047	829.907
308.993	15.504	1102.797	829.162
310.008	15.663	1101.722	829.065
311.022	15.663	1100.729	828.243
312.037	15.594	1099.783	827.120
313.052	15.534	1098.831	826.036
314.066	15.599	1098.166	825.782
315.081	15.510	1097.536	824.799
316.095	15.586	1096.391	824.235
317.110	15.686	1095.589	824.052
318.125	15.650	1094.931	823.309
319.139	15.593	1094.459	822.602
320.154	15.501	1093.971	821.713
321.168	15.598	1093.289	821.602
322.183	15.659	1092.792	821.450
323.197	15.672	1092.162	820.972
324.212	15.707	1091.299	820.420
325.227	15.600	1090.918	819.538
326.241	15.661	1090.295	819.295
327.256	15.712	1089.338	818.751
328.270	15.607	1088.845	817.799
329.285	15.622	1087.927	817.110
330.300	15.628	1086.927	816.313
331.314	15.748	1086.100	816.201
332.329	15.736	1084.620	814.961
333.343	15.735	1084.145	814.528
334.358	15.687	1083.621	813.830
335.373	15.820	1082.916	813.870
336.387	15.693	1082.311	812.731
337.402	15.838	1081.073	812.427
338.416	15.960	1080.623	812.605
339.431	15.968	1079.881	812.015
340.446	15.955	1079.482	811.581
341.460	16.074	1078.885	811.633
342.475	16.083	1077.904	810.865
343.489	15.984	1077.096	809.712
344.504	16.099	1075.711	809.150
345.519	16.148	1074.936	808.732
346.533	16.168	1074.390	808.345
347.548	16.191	1073.791	807.931
348.562	16.141	1073.128	807.123
349.577	16.080	1072.555	806.326
350.592	16.144	1071.441	805.728
351.606	15.986	1070.716	804.354
352.621	16.181	1070.168	804.801
353.635	16.140	1069.349	803.920
354.650	16.072	1068.993	803.255
355.665	16.155	1068.004	802.837
356.679	16.248	1067.306	802.686
357.694	16.204	1066.847	802.061
358.708	16.177	1066.579	801.658
359.723	16.227	1065.524	801.031
360.738	16.187	1065.110	800.462
361.752	16.180	1064.337	799.775
362.767	16.277	1063.646	799.647
363.781	16.223	1063.509	799.216
364.796	16.390	1062.623	799.271
365.810	16.399	1061.922	798.711
366.825	16.528	1061.381	798.845
367.840	16.518	1060.729	798.238
368.854	16.457	1060.469	797.681
369.869	16.523	1059.618	797.282
370.883	16.508	1058.866	796.573
371.898	16.460	1058.097	795.699
372.913	16.434	1057.662	795.180
373.927	16.430	1057.110	794.678
374.942	16.472	1056.752	794.533
375.956	16.506	1056.025	794.079
376.971	16.547	1055.728	793.977
377.986	16.568	1054.766	793.280
379.000	16.584	1054.360	792.980
380.015	16.741	1053.839	793.254
381.029	16.586	1053.138	791.932
382.044	16.746	1051.988	791.745
383.059	16.689	1051.697	791.190
384.073	16.709	1050.986	790.678
385.088	16.781	1050.007	790.205
386.102	16.775	1049.129	789.448
387.117	16.714	1048.252	788.436
388.132	16.645	1047.512	787.487
389.146	16.737	1046.305	786.935
390.161	16.620	1046.036	786.121
391.175	16.726	1045.353	786.029
392.190	16.693	1044.555	785.207
393.205	16.743	1043.804	784.807
394.219	16.771	1043.362	784.532
395.234	16.741	1042.376	783.584
396.248	16.801	1040.957	782.723
397.263	16.718	1040.201	781.705
398.278	16.725	1039.537	781.167
399.292	16.719	1039.070	780.721
400.307	16.816	1038.049	780.332
401.321	16.764	1037.380	779.519
402.336	16.655	1037.167	778.789
403.350	16.855	1036.021	778.779
404.365	16.819	1035.679	778.286
405.380	16.969	1034.722	778.188
406.394	16.812	1034.403	777.158
407.409	16.964	1033.258	776.926
408.423	16.934	1033.227	776.696
409.438	16.929	1032.226	775.854
410.453	17.011	1031.438	775.566
411.467	17.108	1030.923	775.554
412.482	17.182	1029.915	775.065
413.496	17.224	1029.463	774.849
414.511	17.151	1028.930	774.047
415.526	17.217	1028.262	773.775
416.540	17.299	1027.931	773.829
417.555	17.298	1027.343	773.317
418.569	17.293	1027.071	773.020
419.584	17.251	1026.612	772.416
420.599	17.250	1026.154	771.994
421.613	102.208	1319.282	1461.057
422.628	93.424	1361.970	1461.171
