DTS Sentinel unit serial number:	SN413079Multiplexer serial number:	ORYXHardware model number:	OX4-SRSoftware version number:	ORYX F/W v4.00 Oryx Data Collector v3.7.2.0data status	okinstallation	princeton_trtdifferential loss correction	single-endedforward channel	channel 2reverse channel	N/Adate	2019/09/16time	21:35:34forward acquisition time	60.00reverse acquisition time	0.00gamma	496.2192k internal	0.2329k external	0.2329temperature offset calibration	0.9965default loss term (dB/km)	0.3790temperature slope calibration	1.0000multiplexer offset coefficient	1.0000multiplexer slope coefficient	1.0000fibre end	0.00T internal ref (°C)	31.44T ext. ref 1 (°C)	0.06T ext. ref 2 (°C)	25.60length (m)	temperature (°C)	Stokes	anti-Stokes-747.200	-200.000	-0.014	0.455
-746.185	183.780	0.194	0.289
-745.171	-9.526	0.256	-0.172
-744.156	-25.227	-0.199	0.119
-743.142	-106.335	-0.272	-0.061
-742.127	-105.510	-0.314	-0.072
-741.112	-19.305	0.145	0.091
-740.098	28.284	-0.139	-0.119
-739.083	800.000	-0.058	0.238
-738.069	146.492	-0.114	0.154
-737.054	56.733	-0.168	0.164
-736.039	-50.483	0.146	-0.069
-735.025	540.282	0.071	-0.171
-734.010	776.169	-0.125	-0.343
-732.996	744.857	0.042	0.114
-731.981	-200.000	-0.045	-0.228
-730.966	1.650	0.250	-0.181
-729.952	636.118	0.024	-0.060
-728.937	21.616	-0.150	-0.123
-727.923	-200.000	-0.004	-0.341
-726.908	142.012	-0.202	-0.270
-725.894	-106.631	-0.141	-0.031
-724.879	-169.587	0.157	-0.006
-723.864	800.000	0.069	-0.238
-722.850	-200.000	0.016	0.194
-721.835	-88.408	0.084	-0.025
-720.821	110.822	-0.134	-0.162
-719.806	-110.135	0.159	0.033
-718.791	-200.000	0.010	0.357
-717.777	-200.000	0.031	-0.204
-716.762	-146.034	-0.108	-0.010
-715.748	178.853	0.052	-0.076
-714.733	800.000	-0.041	-0.115
-713.718	55.057	-0.181	0.176
-712.704	-200.000	0.012	0.186
-711.689	64.340	-0.101	0.102
-710.675	-139.488	-0.159	0.017
-709.660	-200.000	0.002	0.017
-708.645	-188.098	-0.226	-0.003
-707.631	51.072	0.076	0.073
-706.616	-49.136	-0.269	0.129
-705.602	-166.537	-0.323	-0.014
-704.587	-140.852	-0.114	-0.012
-703.572	4.987	-0.157	-0.116
-702.558	800.000	-0.077	-0.245
-701.543	800.000	0.131	-0.470
-700.529	-37.937	-0.174	-0.093
-699.514	178.060	-0.208	-0.305
-698.499	38.754	-0.081	-0.072
-697.485	-9.023	0.154	-0.104
-696.470	-102.709	0.145	0.035
-695.456	800.000	0.043	-0.179
-694.441	89.981	-0.137	-0.154
-693.426	28.586	-0.038	-0.032
-692.412	-49.043	-0.221	-0.106
-691.397	800.000	0.052	0.153
-690.383	-200.000	-0.021	0.311
-689.368	628.161	-0.076	0.194
-688.354	-200.000	0.025	-0.277
-687.339	-200.000	-0.022	0.212
-686.324	-49.525	-0.398	0.191
-685.310	800.000	-0.079	0.294
-684.295	339.592	0.055	0.107
-683.281	-31.724	-0.152	-0.086
-682.266	-149.438	0.159	0.013
-681.251	19.888	-0.176	-0.143
-680.237	-39.428	-0.317	-0.167
-679.222	-14.119	0.174	0.113
-678.208	-145.944	-0.237	0.021
-677.193	800.000	0.070	0.199
-676.178	-36.544	-0.393	-0.212
-675.164	334.292	-0.045	0.087
-674.149	-183.906	0.204	0.003
-673.135	800.000	-0.103	-0.334
-672.120	-200.000	-0.017	-0.346
-671.105	-200.000	-0.063	0.302
-670.091	800.000	-0.091	-0.272
-669.076	-76.349	-0.230	-0.081
-668.062	381.614	0.140	0.289
-667.047	-200.000	-0.050	-0.365
-666.032	-55.887	-0.083	-0.037
-665.018	-140.794	-0.141	0.015
-664.003	128.459	0.102	0.131
-662.989	316.057	-0.065	-0.124
-661.974	-49.361	-0.155	0.074
-660.959	23.902	-0.239	0.198
-659.945	-200.000	0.030	0.221
-658.930	-200.000	-0.063	-0.347
-657.916	62.274	-0.213	0.213
-656.901	-200.000	-0.022	-0.287
-655.886	353.467	-0.149	0.297
-654.872	-78.598	-0.166	0.057
-653.857	-19.607	0.109	0.068
-652.843	-184.480	-0.270	0.004
-651.828	800.000	-0.084	-0.323
-650.814	315.708	0.113	0.214
-649.799	732.054	0.044	0.119
-648.784	-60.896	-0.399	0.169
-647.770	-71.110	-0.190	0.072
-646.755	-200.000	-0.007	0.354
-645.741	-23.326	-0.415	-0.250
-644.726	-45.183	0.223	0.111
-643.711	155.790	-0.158	-0.218
-642.697	-200.000	-0.010	-0.093
-641.682	-200.000	0.028	-0.133
-640.668	-88.297	-0.123	0.037
-639.653	-200.000	-0.066	-0.301
-638.638	-200.000	-0.036	0.348
-637.624	-84.669	-0.201	0.063
-636.609	91.742	0.314	-0.355
-635.595	-200.000	-0.001	-0.247
-634.580	-72.535	-0.124	-0.046
-633.565	-164.193	0.310	-0.014
-632.551	800.000	-0.068	0.275
-631.536	141.665	0.100	0.134
-630.522	452.818	0.004	0.009
-629.507	-106.321	0.182	0.041
-628.492	-22.992	0.048	0.029
-627.478	-169.274	-0.282	0.010
-626.463	-200.000	-0.033	-0.213
-625.449	-162.082	-0.072	0.004
-624.434	14.301	-0.129	0.101
-623.419	-200.000	-0.029	0.203
-622.405	635.918	-0.109	-0.278
-621.390	-149.278	-0.259	-0.021
-620.376	800.000	0.070	0.282
-619.361	-61.201	0.185	-0.078
-618.346	-84.569	-0.100	0.032
-617.332	-115.000	-0.251	-0.048
-616.317	-61.410	-0.331	0.140
-615.303	258.719	0.245	-0.424
-614.288	556.617	0.179	-0.432
-613.273	-72.368	0.170	-0.063
-612.259	678.812	-0.039	0.103
-611.244	-200.000	-0.004	0.039
-610.230	781.428	-0.013	0.035
-609.215	800.000	0.150	-0.496
-608.201	374.293	-0.085	-0.173
-607.186	-80.271	-0.320	0.107
-606.171	-43.221	0.061	0.031
-605.157	-125.495	-0.389	0.059
-604.142	286.550	-0.091	0.165
-603.128	-200.000	0.135	0.000
-602.113	-105.809	0.123	-0.028
-601.098	660.671	-0.026	0.066
-600.084	-22.420	-0.187	0.113
-599.069	-54.869	0.242	0.109
-598.055	-200.000	-0.004	-0.093
-597.040	-200.000	0.026	-0.174
-596.025	101.108	0.177	-0.206
-595.011	-200.000	0.032	-0.225
-593.996	-156.387	-0.304	-0.019
-592.982	-79.479	0.465	-0.157
-591.967	-48.051	-0.186	-0.090
-590.952	-200.000	0.047	0.454
-589.938	-125.618	-0.263	0.040
-588.923	675.702	0.059	-0.154
-587.909	80.158	0.239	0.258
-586.894	800.000	-0.057	0.208
-585.879	-198.925	0.063	-0.000
-584.865	-140.249	-0.319	-0.033
-583.850	13.018	-0.130	-0.101
-582.836	-74.344	-0.308	0.111
-581.821	-35.562	-0.089	-0.048
-580.806	66.458	-0.071	-0.072
-579.792	-200.000	0.014	0.064
-578.777	116.444	-0.149	-0.183
-577.763	59.969	0.119	-0.117
-576.748	-80.429	0.167	0.056
-575.733	800.000	-0.039	0.141
-574.719	60.307	0.134	-0.133
-573.704	-200.000	0.013	-0.087
-572.690	800.000	-0.037	-0.145
-571.675	-200.000	-0.007	-0.085
-570.661	35.467	-0.213	-0.187
-569.646	0.267	-0.134	-0.096
-568.631	-127.768	0.099	-0.014
-567.617	-45.895	-0.231	0.114
-566.602	463.838	-0.049	0.111
-565.588	-118.228	0.144	0.026
-564.573	-158.843	-0.254	-0.014
-563.558	-57.250	-0.079	-0.035
-562.544	-71.467	0.196	-0.073
-561.529	-200.000	-0.016	-0.380
-560.515	800.000	0.095	-0.273
-559.500	472.791	-0.103	0.231
-558.485	-23.652	0.028	0.017
-557.471	108.352	-0.123	0.147
-556.456	-182.742	-0.306	0.006
-555.442	-12.147	0.044	-0.029
-554.427	-38.691	-0.198	0.105
-553.412	-195.079	0.162	-0.001
-552.398	-163.524	0.095	0.004
-551.383	-19.358	-0.374	0.232
-550.369	800.000	-0.019	-0.060
-549.354	-85.522	0.201	-0.063
-548.339	-59.849	-0.161	-0.069
-547.325	-27.165	-0.151	0.088
-546.310	27.622	0.194	-0.164
-545.296	28.439	0.154	-0.130
-544.281	370.107	-0.207	-0.420
-543.266	346.781	0.083	-0.162
-542.252	-200.000	-0.009	-0.072
-541.237	203.042	-0.076	-0.117
-540.223	52.867	-0.217	-0.207
-539.208	-128.403	0.261	0.037
-538.193	-93.714	-0.290	-0.080
-537.179	-103.377	-0.138	0.032
-536.164	75.530	0.161	0.170
-535.150	-156.977	-0.192	-0.012
-534.135	-161.836	0.204	-0.010
-533.121	3.084	-0.184	-0.134
-532.106	-66.491	-0.555	-0.220
-531.091	-105.012	0.228	-0.052
-530.077	1.686	-0.276	-0.199
-529.062	-200.000	0.057	-0.279
-528.048	19.047	0.175	-0.140
-527.033	-133.184	0.257	-0.033
-526.018	-106.310	-0.206	0.046
-525.004	160.835	-0.069	-0.097
-523.989	-96.244	-0.397	-0.105
-522.975	-69.373	0.305	-0.117
-521.960	236.605	-0.076	0.126
-520.945	-106.175	0.250	-0.056
-519.931	800.000	-0.074	0.305
-518.916	-27.287	0.210	-0.122
-517.902	511.302	-0.014	0.034
-516.887	93.940	-0.102	0.116
-515.872	-200.000	0.007	-0.200
-514.858	-78.356	-0.121	0.041
-513.843	-26.495	0.038	0.022
-512.829	-197.211	-0.404	-0.003
-511.814	-149.357	-0.221	0.018
-510.799	471.435	0.105	-0.236
-509.785	14.850	-0.194	0.151
-508.770	800.000	-0.024	-0.089
-507.756	33.209	-0.080	-0.070
-506.741	-160.250	-0.244	0.013
-505.726	-158.252	-0.203	-0.012
-504.712	-200.000	0.008	0.135
-503.697	-200.000	0.022	-0.173
-502.683	18.233	0.075	0.060
-501.668	-109.054	0.165	-0.035
-500.653	800.000	-0.051	-0.180
-499.639	-77.340	0.207	-0.072
-498.624	-49.916	0.214	-0.101
-497.610	-200.000	0.036	0.184
-496.595	523.897	-0.094	-0.221
-495.581	157.560	-0.138	-0.190
-494.566	-123.318	0.099	-0.016
-493.551	136.987	-0.095	-0.124
-492.537	-52.486	-0.147	-0.068
-491.522	-129.698	0.258	0.035
-490.508	147.347	-0.111	-0.149
-489.493	169.449	-0.062	0.089
-488.478	117.992	-0.054	0.066
-487.464	800.000	-0.072	0.287
-486.449	-200.000	-0.003	0.014
-485.435	26.295	-0.215	0.179
-484.420	68.183	0.101	0.103
-483.405	641.140	0.037	0.094
-482.391	27.061	0.047	0.039
-481.376	-99.383	-0.141	0.035
-480.362	697.057	-0.135	0.353
-479.347	-183.601	-0.115	0.002
-478.332	-110.957	-0.160	0.033
-477.318	-141.433	-0.119	0.012
-476.303	-43.580	0.181	-0.091
-475.289	79.316	0.239	0.255
-474.274	266.831	0.089	-0.155
-473.259	-33.211	-0.107	0.059
-472.245	-140.859	-0.143	0.015
-471.230	-24.051	-0.373	0.222
-470.216	53.348	-0.129	0.123
-469.201	-200.000	0.012	0.139
-468.186	-155.488	0.142	0.009
-467.172	-99.223	0.095	0.024
-466.157	-171.552	-0.064	-0.002
-465.143	800.000	-0.071	0.242
-464.128	-56.897	0.089	-0.039
-463.113	67.793	0.056	-0.057
-462.099	-200.000	0.057	0.256
-461.084	281.167	-0.147	-0.261
-460.070	-200.000	-0.044	0.195
-459.055	345.199	-0.024	-0.047
-458.040	226.234	0.066	0.107
-457.026	-82.052	-0.039	0.013
-456.011	42.162	-0.148	-0.134
-454.997	-13.092	-0.162	0.105
-453.982	-44.967	0.166	0.082
-452.968	215.294	-0.019	-0.030
-451.953	221.119	0.045	0.072
-450.938	-51.943	0.271	-0.126
-449.924	800.000	-0.050	0.174
-448.909	186.061	-0.244	-0.361
-447.895	800.000	-0.034	0.126
-446.880	-104.039	-0.161	0.037
-445.865	-1.004	-0.143	-0.101
-444.851	111.586	0.144	0.173
-443.836	-64.103	-0.014	0.006
-442.822	312.008	0.055	-0.102
-441.807	345.791	0.164	0.322
-440.792	-200.000	-0.013	0.248
-439.778	121.824	0.100	0.124
-438.763	483.429	0.049	-0.111
-437.749	-200.000	0.017	-0.187
-436.734	-166.772	0.024	-0.001
-435.719	-74.142	0.342	-0.123
-434.705	800.000	-0.063	-0.250
-433.690	-137.498	0.395	0.044
-432.676	-200.000	0.025	0.125
-431.661	-79.973	0.041	0.014
-430.646	-38.792	-0.228	0.120
-429.632	-59.496	0.096	0.041
-428.617	-200.000	0.050	0.265
-427.603	21.141	0.118	0.095
-426.588	-0.570	0.213	0.150
-425.573	-33.592	-0.051	-0.028
-424.559	-93.781	-0.264	0.072
-423.544	-37.857	-0.290	0.154
-422.530	-118.267	0.128	-0.023
-421.515	-124.973	0.214	0.033
-420.500	242.885	0.018	0.030
-419.486	-110.880	-0.131	-0.027
-418.471	161.359	0.148	0.206
-417.457	316.388	-0.097	0.182
-416.442	800.000	0.038	-0.119
-415.428	477.644	-0.094	-0.211
-414.413	-151.924	0.083	-0.006
-413.398	356.320	0.078	0.154
-412.384	574.163	0.119	0.290
-411.369	283.692	0.006	-0.010
-410.355	-200.000	0.007	-0.095
-409.340	21.699	0.046	0.038
-408.325	-200.000	0.089	-0.430
-407.311	-171.986	0.164	0.005
-406.296	6.882	-0.066	0.049
-405.282	-200.000	-0.014	0.088
-404.267	-115.795	0.204	-0.038
-403.252	22.657	0.091	-0.074
-402.238	-120.801	-0.330	0.055
-401.223	-7.699	0.210	-0.141
-400.209	800.000	0.063	0.182
-399.194	-138.463	-0.140	-0.015
-398.179	133.436	0.078	0.101
-397.165	-82.146	0.242	0.079
-396.150	-34.352	0.084	0.046
-395.136	-175.506	-0.366	0.010
-394.121	-12.735	0.201	-0.130
-393.106	231.387	0.072	0.117
-392.092	800.000	-0.027	0.106
-391.077	-200.000	0.001	0.036
-390.063	-10.855	0.282	-0.185
-389.048	-171.630	0.309	-0.010
-388.033	-200.000	0.029	0.129
-387.019	458.987	0.090	-0.199
-386.004	-21.452	0.202	-0.122
-384.990	-60.460	-0.138	-0.058
-383.975	-34.991	0.252	0.136
-382.960	-200.000	0.050	0.276
-381.946	-200.000	-0.007	0.045
-380.931	-162.355	-0.098	0.005
-379.917	-8.799	0.147	-0.098
-378.902	-200.000	0.013	-0.391
-377.888	-115.967	0.190	0.035
-376.873	-187.782	-0.030	0.000
-375.858	661.436	-0.057	0.145
-374.844	-94.816	0.323	0.087
-373.829	-65.318	0.136	-0.054
-372.815	-145.033	-0.269	-0.024
-371.800	332.079	-0.125	0.239
-370.785	-5.867	0.078	0.053
-369.771	45.210	-0.222	-0.203
-368.756	121.623	0.128	0.159
-367.742	-66.774	0.157	-0.061
-366.727	-136.246	-0.195	-0.023
-365.712	15.062	0.216	-0.168
-364.698	-33.501	-0.146	0.080
-363.683	114.677	0.239	-0.289
-362.669	-92.397	-0.283	0.079
-361.654	568.216	-0.105	0.254
-360.639	-200.000	0.059	0.269
-359.625	-15.608	0.304	-0.193
-358.610	25.642	-0.103	0.085
-357.596	-34.882	-0.105	-0.057
-356.581	-200.000	0.038	-0.320
-355.566	-46.756	0.213	-0.104
-354.552	52.556	-0.175	0.166
-353.537	800.000	0.037	-0.106
-352.523	-200.000	0.006	-0.031
-351.508	-145.290	-0.141	0.013
-350.493	-108.361	0.160	-0.034
-349.479	19.115	0.180	0.143
-348.464	-78.637	-0.230	-0.078
-347.450	5.432	0.110	-0.080
-346.435	59.639	0.199	-0.195
-345.420	-200.000	0.004	-0.233
-344.406	27.672	0.111	-0.092
-343.391	-45.746	0.296	-0.145
-342.377	800.000	0.061	0.204
-341.362	392.466	-0.119	0.246
-340.348	-34.640	0.265	-0.144
-339.333	-135.711	0.249	0.029
-338.318	247.131	-0.135	0.226
-337.304	-115.978	0.229	0.042
-336.289	-144.629	0.105	0.010
-335.275	800.000	0.030	-0.122
-334.260	-157.484	-0.135	-0.008
-333.245	584.677	-0.158	-0.384
-332.231	185.611	-0.058	-0.085
-331.216	-49.306	0.098	-0.046
-330.202	161.713	0.223	0.310
-329.187	-191.926	0.057	-0.001
-328.172	-55.614	-0.148	0.066
-327.158	182.312	0.154	0.225
-326.143	198.277	-0.188	-0.285
-325.129	-200.000	0.082	0.385
-324.114	-52.093	0.033	0.015
-323.099	34.645	-0.221	-0.191
-322.085	-8.770	0.134	-0.089
-321.070	-11.143	-0.166	0.108
-320.056	99.764	-0.127	0.145
-319.041	-200.000	-0.007	0.191
-318.026	-200.000	0.048	0.338
-317.012	18.881	0.158	0.126
-315.997	331.512	-0.083	-0.158
-314.983	-63.920	-0.132	-0.053
-313.968	202.499	0.123	0.188
-312.953	-200.000	-0.015	0.558
-311.939	71.895	-0.062	-0.064
-310.924	-67.547	0.281	0.109
-309.910	53.229	-0.256	-0.243
-308.895	-164.717	-0.371	-0.017
-307.880	-18.738	-0.117	0.072
-306.866	800.000	-0.112	-0.334
-305.851	88.192	-0.172	-0.189
-304.837	218.154	0.072	-0.113
-303.822	-200.000	-0.057	0.332
-302.807	156.166	-0.231	0.316
-301.793	75.936	-0.059	-0.062
-300.778	-59.640	-0.403	0.171
-299.764	329.533	0.195	0.371
-298.749	56.439	0.207	0.199
-297.735	130.921	0.171	-0.217
-296.720	-200.000	0.023	0.475
-295.705	-137.942	-0.149	0.016
-294.691	-44.112	0.072	0.036
-293.676	277.046	0.042	0.074
-292.662	109.956	-0.285	0.338
-291.647	464.174	-0.101	0.223
-290.632	-200.000	-0.086	0.588
-289.618	-20.624	0.124	0.075
-288.603	-200.000	-0.001	0.129
-287.589	405.127	0.036	0.075
-286.574	-115.415	-0.090	-0.017
-285.559	800.000	0.071	0.298
-284.545	-118.282	0.168	-0.030
-283.530	-140.036	-0.330	-0.034
-282.516	139.528	-0.118	-0.153
-281.501	-94.020	0.102	0.028
-280.486	800.000	0.012	-0.032
-279.472	800.000	0.055	0.182
-278.457	-200.000	-0.043	0.294
-277.443	-34.468	-0.084	0.046
-276.428	136.263	0.095	-0.122
-275.413	-97.909	0.350	0.089
-274.399	-200.000	-0.046	-0.201
-273.384	800.000	-0.062	-0.255
-272.370	250.665	0.090	0.150
-271.355	192.837	-0.032	0.048
-270.340	800.000	-0.072	0.196
-269.326	-15.799	0.282	0.177
-268.311	-153.556	0.138	-0.009
-267.297	243.601	-0.115	0.191
-266.282	-200.000	0.072	0.331
-265.267	-200.000	-0.038	-0.284
-264.253	98.602	-0.142	0.162
-263.238	-200.000	0.008	-0.271
-262.224	62.192	0.231	0.227
-261.209	-24.161	0.396	0.234
-260.195	800.000	0.068	0.200
-259.180	-96.578	-0.146	0.038
-258.165	672.536	0.114	0.292
-257.151	800.000	0.139	-0.397
-256.136	146.386	-0.027	-0.036
-255.122	119.288	-0.195	-0.239
-254.107	32.177	0.324	-0.276
-253.092	397.408	0.078	-0.161
-252.078	-195.455	-0.474	0.003
-251.063	-141.788	0.405	0.040
-250.049	-200.000	0.012	-0.374
-249.034	-200.000	-0.039	-0.249
-248.019	800.000	-0.043	-0.129
-247.005	221.745	-0.123	-0.196
-245.990	93.460	0.327	-0.366
-244.976	-200.000	-0.049	-0.256
-243.961	383.608	-0.062	-0.126
-242.946	-9.661	-0.132	-0.087
-241.932	-200.000	-0.041	0.218
-240.917	800.000	-0.063	0.191
-239.903	-2.944	0.318	0.219
-238.888	-91.260	-0.343	0.097
-237.873	273.207	0.127	0.221
-236.859	607.924	-0.094	-0.231
-235.844	-148.996	0.196	0.016
-234.830	135.159	-0.123	0.158
-233.815	-161.081	0.328	0.017
-232.800	-7.243	0.293	-0.196
-231.786	143.914	-0.019	0.025
-230.771	-12.645	0.032	0.021
-229.757	93.568	0.172	-0.193
-228.742	238.419	-0.087	-0.143
-227.727	-66.962	0.227	-0.088
-226.713	236.002	0.143	0.234
-225.698	-93.589	-0.239	0.065
-224.684	800.000	0.078	-0.275
-223.669	-200.000	-0.004	-0.290
-222.655	-35.827	-0.192	-0.102
-221.640	539.555	-0.103	-0.241
-220.625	16.538	-0.146	0.114
-219.611	-200.000	0.022	-0.226
-218.596	-35.306	-0.144	0.078
-217.582	-113.910	0.307	-0.059
-216.567	800.000	0.067	-0.286
-215.552	294.403	0.082	0.147
-214.538	181.425	-0.021	0.030
-213.523	-26.017	0.046	0.027
-212.509	800.000	0.063	0.267
-211.494	-200.000	0.060	-0.411
-210.479	-54.156	-0.196	0.088
-209.465	24.712	-0.129	-0.105
-208.450	800.000	0.046	-0.128
-207.436	112.149	0.083	-0.098
-206.421	210.498	-0.248	-0.384
-205.406	328.335	0.053	-0.100
-204.392	152.597	-0.065	-0.087
-203.377	-83.936	0.362	0.113
-202.363	15.473	-0.266	-0.206
-201.348	800.000	-0.048	0.166
-200.333	-200.000	-0.011	0.104
-199.319	137.081	0.072	-0.093
-198.304	-17.947	-0.084	0.052
-197.290	-101.392	0.224	0.054
-196.275	-115.458	0.574	-0.107
-195.260	-105.071	-0.088	0.020
-194.246	800.000	0.042	-0.114
-193.231	32.387	-0.205	-0.175
-192.217	-131.306	0.183	0.024
-191.202	-47.623	0.203	0.097
-190.187	-15.980	0.247	-0.155
-189.173	-105.110	-0.286	0.065
-188.158	794.660	-0.104	0.282
-187.144	-100.848	0.073	-0.018
-186.129	44.124	-0.171	0.155
-185.114	-58.317	-0.127	0.054
-184.100	109.886	0.069	-0.082
-183.085	231.223	-0.034	0.055
-182.071	800.000	0.115	0.314
-181.056	-1.814	0.188	-0.130
-180.042	105.582	0.148	-0.173
-179.027	142.850	0.102	0.133
-178.012	1.299	0.407	0.288
-176.998	-200.000	0.004	0.128
-175.983	-200.000	-0.013	0.225
-174.969	-181.425	-0.233	0.004
-173.954	-200.000	0.015	-0.235
-172.939	-200.000	-0.057	-0.326
-171.925	-200.000	-0.043	0.351
-170.910	-45.888	0.215	0.105
-169.896	-200.000	-0.025	-0.148
-168.881	-200.000	0.006	0.356
-167.866	28.788	0.350	-0.292
-166.852	-23.270	-0.084	0.050
-165.837	800.000	-0.090	-0.331
-164.823	55.538	0.175	-0.167
-163.808	-200.000	-0.006	0.305
-162.793	-35.331	-0.217	-0.116
-161.779	-200.000	-0.023	-0.199
-160.764	-23.733	0.040	-0.024
-159.750	-66.072	-0.306	0.120
-158.735	-200.000	-0.063	0.298
-157.720	-51.778	0.195	0.089
-156.706	800.000	0.009	0.029
-155.691	258.560	0.075	0.128
-154.677	800.000	0.033	-0.108
-153.662	83.190	0.085	-0.091
-152.647	-84.883	-0.035	-0.011
-151.633	-200.000	-0.017	-0.325
-150.618	153.283	0.167	0.225
-149.604	468.471	-0.049	-0.108
-148.589	-86.386	-0.237	0.072
-147.574	-178.284	0.191	0.004
-146.560	-77.059	-0.385	-0.132
-145.545	800.000	0.043	0.120
-144.531	-56.822	-0.236	0.103
-143.516	-200.000	-0.007	-0.072
-142.502	80.380	0.195	-0.207
-141.487	-26.177	0.333	-0.192
-140.472	15.576	-0.041	0.031
-139.458	-200.000	-0.045	-0.387
-138.443	49.942	0.152	-0.141
-137.429	-107.239	0.081	-0.018
-136.414	1.428	0.118	-0.083
-135.399	400.838	-0.135	0.278
-134.385	-146.097	0.062	0.005
-133.370	26.952	0.086	-0.071
-132.356	-64.943	0.056	0.022
-131.341	-61.803	0.480	-0.198
-130.326	-149.622	0.213	0.017
-129.312	2.602	0.161	-0.114
-128.297	15.564	0.203	-0.157
-127.283	-58.649	-0.171	-0.073
-126.268	-71.232	-0.058	0.021
-125.253	-200.000	0.029	0.202
-124.239	-200.000	-0.049	0.276
-123.224	800.000	-0.039	-0.165
-122.210	800.000	-0.144	0.431
-121.195	-174.778	0.242	-0.007
-120.180	406.620	0.065	0.134
-119.166	800.000	0.073	-0.262
-118.151	-200.000	-0.033	0.164
-117.137	83.605	-0.165	0.177
-116.122	766.708	-0.068	-0.182
-115.107	-139.824	0.312	-0.033
-114.093	-200.000	-0.059	0.369
-113.078	-118.973	0.182	-0.031
-112.064	-58.317	-0.271	-0.116
-111.049	-200.000	0.019	0.279
-110.034	800.000	0.070	0.218
-109.020	-95.786	-0.297	-0.078
-108.005	362.136	0.135	0.266
-106.991	46.947	0.310	0.283
-105.976	37.771	0.324	-0.283
-104.962	34.166	0.143	0.123
-103.947	-192.399	-0.123	-0.001
-102.932	-77.768	-0.105	-0.036
-101.918	355.900	-0.196	0.384
-100.903	800.000	-0.063	0.219
-99.889	325.281	0.190	0.357
-98.874	196.548	-0.386	0.577
-97.859	-170.826	0.485	0.016
-96.845	-200.000	0.005	-0.098
-95.830	195.169	-0.163	0.243
-94.816	-200.000	0.017	0.337
-93.801	9.812	-0.305	0.228
-92.786	42.138	-0.136	-0.121
-91.772	174.211	-0.257	0.365
-90.757	728.606	0.111	0.291
-89.743	-56.586	-0.115	-0.050
-88.728	-47.386	-0.297	0.142
-87.713	-87.427	-0.113	0.034
-86.699	365.277	-0.191	-0.377
-85.684	137.757	-0.249	-0.320
-84.670	-67.181	-0.120	0.046
-83.655	-200.000	-0.007	0.054
-82.640	267.242	-0.041	-0.070
-81.626	-200.000	0.029	-0.327
-80.611	504.483	-0.085	0.194
-79.597	104.468	0.145	0.168
-78.582	800.000	0.084	0.243
-77.567	-50.207	0.282	-0.131
-76.553	-124.490	-0.334	0.051
-75.538	800.000	0.021	-0.077
-74.524	338.304	0.135	0.258
-73.509	-51.482	0.264	0.121
-72.494	800.000	-0.101	0.286
-71.480	-57.048	0.118	-0.051
-70.465	668.700	0.061	0.154
-69.451	-200.000	-0.058	0.342
-68.436	-200.000	0.027	-0.130
-67.422	-121.732	-0.473	-0.077
-66.407	507.849	-0.068	0.155
-65.392	-94.388	-0.056	0.015
-64.378	547.846	-0.060	0.141
-63.363	120.974	0.346	0.422
-62.349	589.157	0.113	0.274
-61.334	12.038	-0.942	-0.711
-60.319	66.723	0.650	0.649
-59.305	615.049	-0.218	-0.535
-58.290	544.945	0.374	0.876
-57.276	800.000	0.428	1.557
-56.261	-200.000	98.685	588.796
-55.246	524.722	1396.731	3222.128
-54.232	159.151	2574.437	3509.846
-53.217	105.419	2266.300	2625.122
-52.203	40.609	1891.771	1671.468
-51.188	34.627	1682.839	1441.797
-50.173	31.974	1639.605	1385.143
-49.159	50.178	1687.914	1562.625
-48.144	51.494	1704.660	1587.911
-47.130	34.260	1664.843	1423.412
-46.115	31.542	1650.375	1390.815
-45.100	31.495	1645.491	1386.291
-44.086	31.337	1643.300	1383.222
-43.071	31.283	1640.941	1380.783
-42.057	31.264	1638.487	1378.525
-41.042	31.329	1636.175	1377.000
-40.027	31.381	1634.050	1375.537
-39.013	31.292	1632.600	1373.612
-37.998	31.320	1630.857	1372.299
-36.984	31.400	1629.706	1371.859
-35.969	31.442	1627.937	1370.627
-34.954	31.436	1626.259	1369.114
-33.940	31.469	1624.984	1368.230
-32.925	31.364	1623.455	1366.118
-31.911	31.417	1621.690	1364.963
-30.896	31.372	1619.760	1362.957
-29.881	31.387	1618.209	1361.711
-28.867	31.419	1616.430	1360.393
-27.852	31.387	1615.397	1359.237
-26.838	31.388	1613.717	1357.777
-25.823	31.386	1612.750	1356.896
-24.809	31.436	1611.090	1355.803
-23.794	31.443	1609.695	1354.631
-22.779	31.460	1608.071	1353.332
-21.765	31.421	1606.933	1352.036
-20.750	31.404	1605.078	1350.302
-19.736	31.526	1603.600	1349.880
-18.721	31.428	1602.522	1348.215
-17.706	31.558	1600.402	1347.311
-16.692	31.479	1598.801	1345.346
-15.677	31.534	1597.879	1344.914
-14.663	31.571	1596.543	1344.002
-13.648	31.509	1594.937	1342.146
-12.633	31.486	1593.577	1340.784
-11.619	31.508	1591.829	1339.420
-10.604	31.436	1591.081	1338.223
-9.590	31.499	1589.369	1337.179
-8.575	31.463	1588.294	1335.966
-7.560	31.505	1586.860	1335.009
-6.546	31.474	1586.276	1334.241
-5.531	31.493	1584.892	1333.155
-4.517	31.517	1583.340	1331.971
-3.502	31.478	1582.612	1331.027
-2.487	31.559	1580.807	1330.036
-1.473	31.151	1569.406	1317.512
-0.458	28.208	1550.031	1280.637
0.556	22.826	1550.801	1249.680
1.571	20.470	1574.117	1251.407
2.586	20.075	1587.215	1258.833
3.600	18.231	1535.332	1204.611
4.615	10.155	1425.421	1065.283
5.629	1.838	1359.184	963.283
6.644	0.190	1350.457	946.664
7.659	0.104	1349.328	945.246
8.673	-0.005	1348.447	943.858
9.688	-0.049	1346.685	942.268
10.702	-0.241	1343.637	938.852
11.717	3.672	1349.532	967.432
12.731	12.465	1363.528	1032.833
13.746	17.536	1370.379	1069.871
14.761	17.313	1367.693	1066.282
15.775	16.170	1365.770	1057.530
16.790	15.216	1362.674	1049.070
17.804	14.386	1360.352	1041.999
18.819	13.964	1359.462	1038.589
19.834	13.722	1357.966	1035.842
20.848	13.471	1357.160	1033.567
21.863	13.208	1355.908	1030.879
22.877	13.188	1353.896	1029.136
23.892	13.056	1353.221	1027.708
24.907	13.063	1352.605	1027.192
25.921	13.038	1352.119	1026.580
26.936	13.153	1350.266	1025.799
27.950	13.113	1350.280	1025.468
28.965	13.294	1348.666	1025.274
29.980	13.336	1347.734	1024.737
30.994	13.277	1347.203	1023.873
32.009	13.287	1346.225	1023.105
33.023	13.345	1345.169	1022.568
34.038	13.370	1343.513	1021.374
35.053	13.266	1342.357	1019.763
36.067	13.228	1341.715	1018.951
37.082	13.244	1340.728	1018.210
38.096	13.331	1339.727	1017.895
39.111	13.304	1339.551	1017.506
40.126	13.228	1338.415	1016.088
41.140	13.089	1337.436	1014.395
42.155	13.135	1336.994	1014.254
43.169	13.002	1337.517	1013.742
44.184	13.026	1336.923	1013.349
45.199	13.057	1336.183	1012.890
46.213	13.145	1335.670	1012.950
47.228	13.175	1335.044	1012.570
48.242	13.173	1333.434	1011.250
49.257	13.183	1332.421	1010.455
50.271	13.268	1330.171	1009.179
51.286	13.211	1329.512	1008.238
52.301	13.274	1328.256	1007.583
53.315	13.159	1327.699	1006.371
54.330	13.029	1326.504	1004.581
55.344	13.083	1325.289	1003.901
56.359	13.153	1324.007	1003.265
57.374	13.039	1323.478	1002.083
58.388	12.924	1322.942	1000.894
59.403	13.082	1321.793	1000.892
60.417	13.053	1320.885	999.944
61.432	13.025	1320.159	999.137
62.447	12.997	1319.037	998.025
63.461	12.913	1318.045	996.680
64.476	12.936	1316.840	995.817
65.490	12.957	1315.473	994.823
66.505	13.004	1314.097	993.982
67.520	13.014	1312.705	992.899
68.534	13.009	1312.016	992.259
69.549	12.998	1310.941	991.293
70.563	12.985	1309.996	990.411
71.578	13.049	1308.526	989.598
72.593	12.944	1307.496	988.104
73.607	12.906	1306.764	987.233
74.622	12.825	1306.491	986.458
75.636	12.855	1305.591	985.870
76.651	12.904	1304.510	985.255
77.666	12.911	1304.025	984.843
78.680	13.037	1303.574	985.168
79.695	12.950	1302.582	983.812
80.709	13.002	1301.722	983.385
81.724	13.117	1300.963	983.415
82.739	13.087	1300.225	982.589
83.753	13.132	1299.456	982.188
84.768	13.258	1297.583	981.433
85.782	13.204	1297.275	980.796
86.797	13.248	1295.889	979.921
87.812	13.102	1294.928	978.239
88.826	13.079	1293.506	976.945
89.841	13.041	1292.735	976.051
90.855	13.183	1291.547	975.906
91.870	13.261	1290.591	975.559
92.884	13.192	1290.182	974.758
93.899	13.285	1288.889	974.238
94.914	13.289	1288.377	973.790
95.928	13.139	1288.050	972.573
96.943	13.287	1286.538	972.215
97.957	13.242	1285.860	971.357
98.972	13.218	1284.667	970.224
99.987	13.229	1283.753	969.513
101.001	13.255	1282.540	968.666
102.016	13.251	1281.382	967.681
103.030	13.342	1280.420	967.401
104.045	13.262	1279.835	966.405
105.060	13.142	1279.110	965.073
106.074	13.115	1277.394	963.537
107.089	13.082	1276.201	962.359
108.103	13.016	1274.690	960.746
109.118	13.056	1273.967	960.350
110.133	12.996	1272.581	958.873
111.147	13.069	1271.176	958.152
112.162	13.213	1269.623	957.733
113.176	13.191	1268.419	956.609
114.191	13.195	1268.067	956.287
115.206	13.081	1267.112	954.822
116.220	13.151	1265.818	954.166
117.235	13.171	1264.738	953.380
118.249	13.144	1263.593	952.279
119.264	13.046	1262.687	950.949
120.279	13.036	1261.437	949.865
121.293	13.074	1260.570	949.347
122.308	13.089	1259.331	948.415
123.322	13.017	1258.644	947.400
124.337	13.054	1257.628	946.764
125.352	13.113	1256.305	946.024
126.366	12.987	1255.411	944.542
127.381	13.002	1254.176	943.620
128.395	13.081	1253.368	943.376
129.410	13.098	1252.268	942.564
130.424	13.128	1251.639	942.176
131.439	13.191	1250.094	941.292
132.454	13.174	1249.573	940.718
133.468	13.259	1248.286	940.151
134.483	13.225	1247.878	939.568
135.497	13.166	1247.018	938.499
136.512	13.114	1245.936	937.308
137.527	13.070	1244.395	935.816
138.541	13.117	1242.743	934.759
139.556	13.274	1241.591	934.695
140.570	13.348	1240.424	934.152
141.585	13.352	1239.145	933.129
142.600	13.380	1238.200	932.491
143.614	13.289	1237.507	931.373
144.629	13.369	1236.457	930.954
145.643	13.389	1235.310	930.117
146.658	13.243	1234.261	928.428
147.673	13.200	1233.007	927.160
148.687	13.308	1231.585	926.614
149.702	13.279	1230.356	925.448
150.716	13.200	1228.893	923.821
151.731	13.227	1227.890	923.134
152.746	13.278	1226.727	922.464
153.760	13.325	1225.349	921.611
154.775	13.357	1225.102	921.520
155.789	13.371	1223.909	920.620
156.804	13.463	1222.597	920.062
157.819	13.470	1221.492	919.187
158.833	13.430	1221.012	918.522
159.848	13.524	1219.862	918.101
160.862	13.507	1218.637	917.000
161.877	13.451	1217.928	916.078
162.892	13.428	1216.557	914.838
163.906	13.331	1216.200	913.952
164.921	13.314	1215.177	913.008
165.935	13.420	1214.264	912.826
166.950	13.478	1213.694	912.635
167.964	13.501	1212.649	911.894
168.979	13.371	1212.590	911.056
169.994	13.325	1211.575	909.962
171.008	13.457	1210.398	909.721
172.023	13.559	1209.707	909.682
173.037	13.576	1208.894	909.083
174.052	13.579	1207.869	908.250
175.067	13.576	1205.999	906.746
176.081	13.463	1205.851	905.936
177.096	13.551	1204.906	905.623
178.110	13.547	1203.980	904.829
179.125	13.494	1202.858	903.613
180.140	13.533	1201.556	902.770
181.154	13.557	1200.182	901.788
182.169	13.721	1198.989	901.704
183.183	13.656	1197.758	900.343
184.198	13.651	1197.111	899.753
185.213	13.600	1196.289	898.778
186.227	13.728	1194.691	898.193
187.242	13.706	1193.759	897.290
188.256	13.806	1193.009	897.192
189.271	13.705	1192.110	895.891
190.286	13.640	1191.060	894.667
191.300	13.545	1190.230	893.454
192.315	13.578	1189.564	893.054
193.329	13.576	1188.743	892.345
194.344	13.506	1188.598	891.782
195.359	13.633	1187.748	891.749
196.373	13.760	1187.242	891.972
197.388	13.786	1186.684	891.617
198.402	13.856	1186.241	891.580
199.417	13.862	1186.284	891.564
200.432	13.958	1184.975	891.018
201.446	13.873	1184.127	889.845
202.461	14.090	1182.983	890.068
203.475	14.026	1181.804	888.759
204.490	13.990	1180.618	887.595
205.504	13.929	1179.743	886.537
206.519	14.041	1178.446	886.082
207.534	13.937	1177.332	884.611
208.548	13.925	1176.642	883.947
209.563	13.916	1175.518	882.976
210.577	13.993	1174.842	882.802
211.592	14.023	1174.192	882.395
212.607	14.075	1173.001	881.698
213.621	14.159	1172.142	881.420
214.636	14.115	1171.495	880.621
215.650	14.047	1170.702	879.585
216.665	14.099	1169.714	879.041
217.680	14.199	1168.683	878.718
218.694	14.168	1167.701	877.738
219.709	14.121	1167.365	877.158
220.723	14.174	1166.472	876.691
221.738	14.180	1165.981	876.276
222.753	14.172	1164.961	875.392
223.767	14.155	1164.475	874.858
224.782	14.255	1163.696	874.720
225.796	14.215	1163.367	874.188
226.811	14.316	1162.464	873.959
227.826	14.270	1161.810	873.147
228.840	14.226	1161.411	872.544
229.855	14.238	1160.674	871.971
230.869	14.226	1159.894	871.247
231.884	14.215	1158.606	870.144
232.899	14.243	1158.020	869.773
233.913	14.219	1157.474	869.163
234.928	14.216	1156.659	868.460
235.942	14.250	1155.810	867.923
236.957	14.316	1154.980	867.565
237.972	14.241	1154.317	866.598
238.986	14.314	1153.665	866.413
240.001	14.412	1152.803	866.199
241.015	14.314	1151.988	864.998
242.030	14.386	1151.253	864.746
243.045	14.443	1150.647	864.508
244.059	14.365	1149.978	863.525
245.074	14.397	1149.002	862.885
246.088	14.360	1148.824	862.479
247.103	14.459	1147.366	861.823
248.117	14.509	1147.105	861.809
249.132	14.683	1145.995	861.798
250.147	14.653	1145.359	861.086
251.161	14.676	1144.603	860.559
252.176	14.678	1144.024	860.057
253.190	14.717	1143.371	859.695
254.205	14.791	1143.188	859.863
255.220	14.882	1142.047	859.396
256.234	14.805	1141.640	858.616
257.249	14.909	1140.461	858.184
258.263	14.757	1140.479	857.346
259.278	14.981	1139.191	857.450
260.293	14.889	1139.194	856.901
261.307	14.929	1138.427	856.456
262.322	14.856	1137.954	855.648
263.336	14.868	1137.410	855.227
264.351	14.950	1136.587	854.951
265.366	15.010	1135.726	854.534
266.380	14.949	1134.995	853.598
267.395	14.949	1134.220	852.937
268.409	14.985	1133.783	852.718
269.424	15.071	1132.487	852.108
270.439	14.958	1132.353	851.357
271.453	14.956	1131.578	850.687
272.468	14.947	1130.619	849.844
273.482	14.954	1129.974	849.318
274.497	14.934	1129.346	848.671
275.512	15.006	1128.597	848.399
276.526	15.020	1127.934	847.897
277.541	14.977	1127.230	847.074
278.555	15.126	1126.126	846.925
279.570	15.057	1125.882	846.316
280.585	15.170	1125.096	846.219
281.599	15.255	1123.880	845.660
282.614	15.107	1123.220	844.342
283.628	15.091	1122.060	843.316
284.643	15.165	1120.902	842.741
285.657	15.136	1120.590	842.288
286.672	15.170	1119.523	841.584
287.687	15.256	1118.451	841.132
288.701	15.211	1117.661	840.238
289.716	15.256	1116.919	839.833
290.730	15.303	1116.651	839.794
291.745	15.236	1115.865	838.793
292.760	15.235	1115.173	838.191
293.774	15.280	1114.751	838.025
294.789	15.360	1114.071	837.839
295.803	15.374	1113.106	837.111
296.818	15.357	1112.369	836.395
297.833	15.314	1111.751	835.642
298.847	15.340	1110.993	835.132
299.862	15.386	1110.384	834.824
300.876	15.418	1109.669	834.377
301.891	15.454	1108.778	833.808
302.906	15.527	1108.120	833.604
303.920	15.502	1107.449	832.901
304.935	15.520	1106.806	832.433
305.949	15.566	1106.339	832.234
306.964	15.589	1105.494	831.641
307.979	15.539	1105.081	831.009
308.993	15.578	1104.593	830.763
310.008	15.640	1103.213	829.957
311.022	15.771	1102.396	829.915
312.037	15.612	1101.798	828.607
313.052	15.539	1101.287	827.789
314.066	15.543	1099.837	826.644
315.081	15.443	1099.293	825.670
316.095	15.518	1098.525	825.388
317.110	15.567	1097.253	824.603
318.125	15.607	1096.746	824.347
319.139	15.467	1096.499	823.397
320.154	15.559	1095.320	822.891
321.168	15.538	1094.834	822.352
322.183	15.586	1094.569	822.316
323.197	15.657	1093.801	822.011
324.212	15.676	1093.197	821.579
325.227	15.582	1092.843	820.782
326.241	15.760	1091.985	820.931
327.256	15.652	1091.507	819.974
328.270	15.605	1090.612	819.000
329.285	15.665	1089.374	818.289
330.300	15.708	1088.619	817.857
331.314	15.719	1087.459	816.966
332.329	15.808	1086.780	816.818
333.343	15.768	1085.699	815.740
334.358	15.879	1084.915	815.617
335.373	15.868	1084.360	815.073
336.387	15.818	1083.871	814.389
337.402	15.824	1083.040	813.725
338.416	15.914	1082.602	813.756
339.431	15.869	1082.003	813.020
340.446	15.919	1081.415	812.744
341.460	16.048	1080.375	812.516
342.475	16.099	1079.274	811.861
343.489	16.088	1078.329	811.023
344.504	16.211	1077.785	811.136
345.519	16.093	1077.039	809.934
346.533	16.047	1076.251	809.052
347.548	16.204	1075.301	809.018
348.562	16.224	1074.411	808.369
349.577	16.111	1074.197	807.597
350.592	16.094	1073.529	806.941
351.606	16.031	1072.658	805.917
352.621	16.041	1072.094	805.468
353.635	15.984	1071.632	804.778
354.650	16.030	1070.634	804.174
355.665	15.998	1070.106	803.557
356.679	16.181	1069.043	803.556
357.694	16.180	1069.129	803.549
358.708	16.113	1068.173	802.440
359.723	16.320	1066.898	802.394
360.738	16.289	1066.543	801.907
361.752	16.300	1066.279	801.691
362.767	16.254	1065.473	800.795
363.781	16.155	1065.113	799.983
364.796	16.172	1064.726	799.704
365.810	16.396	1063.793	799.993
366.825	16.436	1063.284	799.730
367.840	16.491	1062.701	799.482
368.854	16.466	1062.411	799.072
369.869	16.478	1061.520	798.387
370.883	16.429	1060.698	797.467
371.898	16.457	1059.993	796.997
372.913	16.527	1059.624	796.982
373.927	16.600	1058.734	796.585
374.942	16.623	1058.406	796.375
375.956	16.535	1057.892	795.504
376.971	16.605	1057.204	795.246
377.986	16.513	1056.657	794.332
379.000	16.602	1056.156	794.305
380.015	16.764	1055.288	794.341
381.029	16.799	1054.834	794.093
382.044	16.742	1054.224	793.295
383.059	16.683	1053.683	792.541
384.073	16.742	1052.749	792.044
385.088	16.687	1051.470	790.755
386.102	16.862	1050.409	790.706
387.117	16.704	1049.756	789.407
388.132	16.723	1049.117	788.944
389.146	16.584	1048.466	787.740
390.161	16.670	1047.655	787.460
391.175	16.678	1046.908	786.867
392.190	16.849	1046.482	787.269
393.205	16.817	1045.578	786.373
394.219	16.827	1044.727	785.707
395.234	16.734	1044.104	784.741
396.248	16.765	1042.760	783.804
397.263	16.810	1042.108	783.451
398.278	16.732	1041.653	782.680
399.292	16.607	1041.096	781.617
400.307	16.808	1040.081	781.712
401.321	16.825	1039.273	781.115
402.336	16.744	1038.173	779.842
403.350	16.846	1037.999	780.115
404.365	16.878	1037.332	779.691
405.380	16.845	1036.836	779.096
406.394	16.926	1035.787	778.613
407.409	17.106	1034.450	778.362
408.423	17.017	1034.496	777.922
409.438	17.157	1033.629	777.844
410.453	17.159	1032.990	777.300
411.467	17.091	1032.208	776.335
412.482	17.061	1031.695	775.741
413.496	17.109	1031.051	775.408
414.511	17.170	1030.561	775.247
415.526	17.214	1030.153	775.073
416.540	17.134	1030.121	774.616
417.555	17.161	1029.154	773.942
418.569	17.321	1028.616	774.199
419.584	17.211	1028.552	773.580
420.599	17.248	1027.241	772.696
421.613	102.226	1320.121	1461.874
422.628	93.445	1362.784	1461.951
