DTS Sentinel unit serial number:	SN413079Multiplexer serial number:	ORYXHardware model number:	OX4-SRSoftware version number:	ORYX F/W v4.00 Oryx Data Collector v3.7.2.0data status	okinstallation	princeton_trtdifferential loss correction	single-endedforward channel	channel 2reverse channel	N/Adate	2019/09/11time	08:13:11forward acquisition time	60.00reverse acquisition time	0.00gamma	496.2192k internal	0.2323k external	0.2323temperature offset calibration	0.9989default loss term (dB/km)	0.3790temperature slope calibration	1.0000multiplexer offset coefficient	1.0000multiplexer slope coefficient	1.0000fibre end	0.00T internal ref (°C)	32.50T ext. ref 1 (°C)	0.38T ext. ref 2 (°C)	29.25length (m)	temperature (°C)	Stokes	anti-Stokes-747.200	800.000	0.043	0.147
-746.185	-24.956	0.045	0.027
-745.171	309.673	0.080	-0.152
-744.156	-175.848	-0.100	0.003
-743.142	73.013	0.006	0.007
-742.127	-73.281	0.206	0.076
-741.112	-17.634	-0.212	0.135
-740.098	144.246	0.221	0.298
-739.083	800.000	-0.022	0.091
-738.069	-200.000	-0.001	0.142
-737.054	-76.690	0.318	0.112
-736.039	-121.553	-0.199	-0.033
-735.025	84.713	-0.087	0.096
-734.010	-23.850	-0.294	0.178
-732.996	-36.432	0.121	-0.066
-731.981	-175.268	-0.250	-0.007
-730.966	800.000	-0.015	0.060
-729.952	414.949	0.039	-0.084
-728.937	-200.000	-0.021	-0.175
-727.923	800.000	-0.126	-0.363
-726.908	380.460	0.150	-0.311
-725.894	800.000	0.071	-0.295
-724.879	67.550	-0.323	-0.333
-723.864	-200.000	-0.028	-0.273
-722.850	-142.513	-0.063	-0.006
-721.835	-51.480	-0.339	-0.160
-720.821	-105.227	-0.321	-0.074
-719.806	-39.295	-0.175	-0.093
-718.791	-200.000	-0.136	0.000
-717.777	-0.510	-0.071	0.051
-716.762	304.381	-0.102	0.191
-715.748	-53.035	0.202	0.094
-714.733	-200.000	-0.038	0.378
-713.718	81.385	-0.040	-0.044
-712.704	-200.000	-0.050	-0.351
-711.689	51.412	-0.043	0.041
-710.675	-38.469	-0.128	0.068
-709.660	-200.000	-0.009	-0.323
-708.645	800.000	0.043	-0.128
-707.631	-200.000	0.008	-0.167
-706.616	-200.000	0.025	0.130
-705.602	2.901	0.106	-0.077
-704.587	403.192	-0.041	-0.086
-703.572	39.992	-0.095	-0.086
-702.558	-89.108	0.065	-0.019
-701.543	74.729	-0.193	-0.205
-700.529	-10.571	-0.065	0.044
-699.514	800.000	-0.034	0.105
-698.499	-131.647	0.141	0.019
-697.485	114.426	-0.098	-0.120
-696.470	241.305	0.107	0.179
-695.456	95.372	-0.050	-0.058
-694.441	322.561	-0.061	-0.117
-693.426	-76.882	0.199	0.070
-692.412	486.004	-0.061	0.140
-691.397	-71.875	-0.098	0.037
-690.383	-200.000	-0.008	-0.045
-689.368	-200.000	0.042	0.187
-688.354	13.150	0.372	0.291
-687.339	-181.232	-0.266	-0.005
-686.324	321.116	-0.059	0.114
-685.310	768.308	-0.053	-0.145
-684.295	-200.000	0.008	0.126
-683.281	-200.000	-0.021	-0.252
-682.266	423.730	0.050	-0.108
-681.251	54.277	0.048	-0.047
-680.237	-65.999	-0.208	0.084
-679.222	-200.000	0.020	-0.298
-678.208	-129.267	-0.271	0.038
-677.193	-170.711	0.195	-0.007
-676.178	-151.686	-0.186	0.014
-675.164	361.720	-0.130	0.263
-674.149	-200.000	0.032	0.262
-673.135	-200.000	-0.228	-0.001
-672.120	24.072	-0.455	-0.378
-671.105	-200.000	0.002	0.301
-670.091	-93.780	-0.369	-0.102
-669.076	568.297	0.045	-0.111
-668.062	557.624	0.062	0.151
-667.047	-21.746	0.130	0.080
-666.032	207.856	-0.142	-0.223
-665.018	-62.936	0.210	-0.087
-664.003	63.643	0.058	0.059
-662.989	-200.000	0.025	0.202
-661.974	90.637	-0.214	0.242
-660.959	-15.032	0.204	-0.132
-659.945	327.642	-0.178	-0.344
-658.930	236.340	-0.218	-0.363
-657.916	-21.709	-0.108	-0.066
-656.901	10.057	-0.095	0.072
-655.886	-200.000	-0.032	0.160
-654.872	-9.133	0.240	-0.162
-653.857	-200.000	0.030	0.215
-652.843	-132.994	0.327	-0.042
-651.828	105.330	0.243	0.288
-650.814	-7.425	-0.167	-0.114
-649.799	256.589	0.149	-0.257
-648.784	469.068	0.073	-0.165
-647.770	574.479	0.042	0.103
-646.755	-90.131	0.185	-0.054
-645.741	-200.000	-0.015	-0.166
-644.726	-124.509	-0.265	0.041
-643.711	171.345	0.127	-0.184
-642.697	259.861	-0.073	0.127
-641.682	-137.761	0.121	-0.014
-640.668	-167.121	-0.077	0.003
-639.653	190.434	-0.106	-0.161
-638.638	-144.633	-0.175	0.016
-637.624	5.588	0.165	0.123
-636.609	-30.138	0.170	0.097
-635.595	800.000	-0.077	-0.216
-634.580	-100.614	-0.326	0.081
-633.565	198.633	-0.244	0.375
-632.551	-129.849	0.393	0.054
-631.536	131.412	0.146	-0.189
-630.522	28.012	-0.114	-0.097
-629.507	-97.692	-0.183	-0.048
-628.492	-74.531	0.361	-0.131
-627.478	625.106	0.008	-0.020
-626.463	31.544	-0.045	0.039
-625.449	-83.345	-0.176	0.057
-624.434	-45.198	0.152	-0.076
-623.419	-117.372	0.230	-0.042
-622.405	150.836	-0.193	0.263
-621.390	280.169	0.115	0.207
-620.376	800.000	-0.046	0.171
-619.361	-200.000	-0.012	-0.239
-618.346	-42.890	0.127	0.065
-617.332	67.171	-0.106	0.109
-616.317	-25.808	0.359	-0.213
-615.303	-200.000	-0.016	-0.170
-614.288	-149.246	0.369	-0.030
-613.273	800.000	-0.035	-0.141
-612.259	90.326	-0.099	0.111
-611.244	-148.887	0.064	0.005
-610.230	523.444	-0.081	0.192
-609.215	-200.000	0.037	0.276
-608.201	-200.000	0.005	-0.119
-607.186	-138.798	0.106	0.012
-606.171	-88.272	-0.127	-0.038
-605.157	47.565	0.152	0.142
-604.142	175.592	-0.178	-0.260
-603.128	800.000	-0.075	-0.269
-602.113	-97.745	0.175	0.046
-601.098	-127.525	-0.218	-0.032
-600.084	174.730	0.058	-0.084
-599.069	800.000	0.062	0.208
-598.055	5.200	0.183	0.135
-597.040	-82.680	0.173	0.056
-596.025	217.227	-0.048	0.077
-595.011	-145.371	0.195	-0.018
-593.996	24.992	-0.270	-0.225
-592.982	800.000	-0.022	0.073
-591.967	137.206	-0.217	0.284
-590.952	228.716	0.040	0.066
-589.938	-139.683	0.125	-0.013
-588.923	449.441	0.176	-0.389
-587.909	-200.000	0.030	-0.239
-586.894	38.647	-0.147	0.132
-585.879	69.769	-0.237	-0.245
-584.865	-50.424	0.170	0.080
-583.850	131.032	-0.065	0.083
-582.836	-200.000	-0.045	0.298
-581.821	-136.790	-0.159	-0.018
-580.806	170.633	-0.197	-0.283
-579.792	-57.774	0.073	0.032
-578.777	-76.515	0.137	0.048
-577.763	211.196	-0.128	-0.203
-576.748	-200.000	-0.009	-0.092
-575.733	86.344	-0.154	0.170
-574.719	38.355	-0.132	-0.118
-573.704	-75.003	-0.079	0.028
-572.690	-57.670	-0.020	-0.009
-571.675	526.066	-0.132	-0.311
-570.661	-56.826	0.237	0.105
-569.646	-152.878	0.154	-0.011
-568.631	241.392	0.076	0.127
-567.617	-76.899	-0.135	0.047
-566.602	-25.500	0.107	-0.063
-565.588	-200.000	-0.033	0.234
-564.573	-188.440	-0.225	-0.003
-563.558	289.378	0.155	0.281
-562.544	-72.461	0.198	-0.073
-561.529	-102.448	0.189	-0.045
-560.515	-200.000	-0.091	-0.483
-559.500	-16.563	-0.282	-0.179
-558.485	800.000	0.057	0.227
-557.471	800.000	-0.014	-0.044
-556.456	39.286	-0.092	-0.082
-555.442	61.782	-0.301	0.300
-554.427	148.056	-0.134	0.181
-553.412	-152.307	0.518	-0.037
-552.398	-200.000	0.006	-0.340
-551.383	-137.933	-0.151	0.017
-550.369	116.945	-0.252	-0.310
-549.354	119.044	0.128	-0.158
-548.339	173.753	-0.159	-0.230
-547.325	-99.251	-0.152	-0.038
-546.310	8.613	-0.102	0.077
-545.296	-42.711	0.559	0.285
-544.281	-29.861	-0.135	0.077
-543.266	268.081	-0.115	-0.202
-542.252	-41.383	0.107	0.055
-541.237	-102.078	0.259	0.062
-540.223	459.310	-0.129	0.288
-539.208	451.668	0.070	-0.156
-538.193	84.846	0.101	0.110
-537.179	141.683	-0.274	0.363
-536.164	-29.987	-0.358	0.204
-535.150	-61.447	-0.096	-0.040
-534.135	361.836	-0.006	-0.011
-533.121	-90.728	-0.094	-0.027
-532.106	-35.275	0.073	-0.040
-531.091	173.710	0.065	-0.093
-530.077	-200.000	-0.038	-0.294
-529.062	-200.000	-0.018	-0.228
-528.048	109.784	-0.023	0.028
-527.033	-15.651	0.230	-0.147
-526.018	3.339	-0.034	-0.024
-525.004	236.737	-0.161	0.266
-523.989	-53.360	0.360	0.165
-522.975	-181.670	0.236	-0.005
-521.960	618.499	-0.107	0.268
-520.945	149.234	0.027	0.037
-519.931	-139.662	0.337	-0.036
-518.916	-5.637	0.352	0.242
-517.902	40.148	0.309	-0.279
-516.887	-200.000	0.019	0.112
-515.872	120.152	0.080	-0.099
-514.858	-7.023	-0.330	-0.224
-513.843	-133.114	-0.092	-0.012
-512.829	-71.279	0.349	-0.131
-511.814	116.881	0.005	-0.007
-510.799	125.544	0.111	0.141
-509.785	-200.000	0.004	0.159
-508.770	-45.871	0.336	-0.166
-507.756	-132.638	0.084	0.011
-506.741	-200.000	0.013	0.116
-505.726	-17.527	-0.225	0.141
-504.712	-200.000	0.089	0.721
-503.697	-200.000	-0.005	0.160
-502.683	-200.000	0.025	-0.129
-501.668	13.081	-0.176	0.137
-500.653	-200.000	-0.052	0.306
-499.639	195.120	0.179	-0.272
-498.624	59.749	0.487	-0.481
-497.610	18.231	0.165	-0.132
-496.595	162.952	-0.135	-0.190
-495.581	-169.424	-0.146	-0.005
-494.566	8.397	-0.177	-0.133
-493.551	-101.559	-0.099	0.024
-492.537	-78.624	0.045	-0.015
-491.522	17.337	-0.297	0.236
-490.508	657.826	-0.019	0.050
-489.493	-8.411	-0.151	-0.102
-488.478	8.325	-0.248	0.187
-487.464	-200.000	0.021	-0.105
-486.449	-200.000	0.017	-0.114
-485.435	76.636	-0.142	0.150
-484.420	230.384	0.042	-0.069
-483.405	-72.378	-0.086	0.032
-482.391	-52.194	0.090	-0.042
-481.376	-50.317	0.233	-0.110
-480.362	-200.000	-0.029	0.264
-479.347	-200.000	-0.024	0.116
-478.332	-134.051	0.354	0.044
-477.318	614.689	-0.091	-0.229
-476.303	-155.607	0.270	0.017
-475.289	11.353	-0.081	0.062
-474.274	-200.000	-0.010	0.351
-473.259	-200.000	0.034	-0.155
-472.245	-200.000	0.041	-0.267
-471.230	800.000	-0.065	-0.200
-470.216	-200.000	-0.003	0.149
-469.201	137.761	-0.043	-0.056
-468.186	1.132	-0.120	-0.086
-467.172	601.569	0.124	0.308
-466.157	99.435	0.082	0.094
-465.143	266.949	-0.062	0.108
-464.128	69.498	-0.222	0.228
-463.113	-122.817	-0.379	-0.061
-462.099	22.843	0.309	0.253
-461.084	-198.013	-0.274	0.002
-460.070	-102.969	-0.508	0.120
-459.055	-200.000	0.013	0.354
-458.040	-129.430	-0.319	-0.044
-457.026	-109.314	-0.346	0.073
-456.011	-126.917	0.136	0.020
-454.997	398.392	0.077	0.161
-453.982	387.087	0.074	-0.152
-452.968	-121.691	0.418	0.069
-451.953	-200.000	-0.002	0.121
-450.938	-177.634	-0.263	0.006
-449.924	345.424	-0.065	-0.128
-448.909	-57.659	0.085	-0.037
-447.895	-45.906	-0.119	-0.059
-446.880	-200.000	-0.087	-0.458
-445.865	-97.389	0.340	-0.088
-444.851	202.063	-0.094	0.144
-443.836	-106.189	-0.243	0.054
-442.822	324.903	-0.126	0.241
-441.807	455.829	-0.124	0.275
-440.792	56.100	-0.197	-0.191
-439.778	-200.000	-0.019	0.183
-438.763	57.705	-0.138	0.134
-437.749	-200.000	0.008	-0.179
-436.734	-122.351	0.098	-0.016
-435.719	-97.429	0.130	-0.034
-434.705	83.488	0.089	-0.097
-433.690	163.600	-0.077	0.109
-432.676	223.456	0.095	0.152
-431.661	-200.000	-0.028	0.225
-430.646	59.423	0.121	0.119
-429.632	-186.603	-0.333	-0.005
-428.617	-108.023	-0.036	-0.008
-427.603	410.760	0.148	-0.313
-426.588	-200.000	-0.021	-0.168
-425.573	7.264	0.189	-0.141
-424.559	91.495	0.072	0.080
-423.544	-0.210	-0.098	-0.069
-422.530	-157.178	-0.240	0.015
-421.515	-11.651	0.326	0.213
-420.500	-200.000	-0.017	0.215
-419.486	-29.831	-0.095	0.054
-418.471	51.380	-0.060	-0.057
-417.457	73.160	0.190	0.198
-416.442	295.849	0.129	-0.235
-415.428	800.000	-0.121	-0.347
-414.413	59.300	-0.060	-0.059
-413.398	-200.000	-0.070	0.356
-412.384	8.949	0.213	-0.161
-411.369	800.000	-0.061	0.249
-410.355	-87.326	-0.257	-0.078
-409.340	-90.457	0.177	0.051
-408.325	44.427	-0.131	0.120
-407.311	-72.926	0.214	-0.078
-406.296	-200.000	-0.017	0.314
-405.282	-25.707	0.203	-0.119
-404.267	-200.000	-0.036	-0.184
-403.252	-80.050	0.049	0.016
-402.238	83.020	-0.077	0.083
-401.223	-200.000	0.045	-0.267
-400.209	-4.480	-0.102	0.070
-399.194	-44.724	-0.049	-0.024
-398.179	-116.047	0.085	-0.016
-397.165	-71.938	-0.150	-0.055
-396.150	-106.484	-0.282	0.063
-395.136	15.862	-0.174	-0.137
-394.121	759.247	-0.073	-0.197
-393.106	-121.625	-0.176	0.029
-392.092	800.000	-0.026	-0.111
-391.077	-122.498	0.252	-0.041
-390.063	41.625	-0.023	0.021
-389.048	17.924	-0.189	0.150
-388.033	800.000	0.100	0.292
-387.019	73.990	0.067	-0.070
-386.004	58.726	-0.264	0.258
-384.990	92.641	-0.219	0.246
-383.975	-47.268	0.266	0.129
-382.960	162.981	-0.221	0.310
-381.946	448.442	0.053	0.115
-380.931	800.000	0.080	0.261
-379.917	-200.000	-0.024	0.152
-378.902	-104.291	-0.163	0.038
-377.888	-4.571	-0.230	-0.158
-376.873	55.978	-0.181	-0.175
-375.858	294.633	-0.092	-0.168
-374.844	-200.000	0.050	-0.394
-373.829	-200.000	0.001	-0.156
-372.815	-200.000	0.024	-0.107
-371.800	-117.318	-0.200	0.036
-370.785	800.000	0.072	-0.286
-369.771	532.178	-0.085	0.201
-368.756	-200.000	0.037	-0.275
-367.742	800.000	0.043	-0.124
-366.727	800.000	-0.044	-0.167
-365.712	428.968	-0.126	-0.272
-364.698	-43.255	0.179	0.090
-363.683	499.411	-0.119	0.274
-362.669	-18.443	-0.472	0.293
-361.654	-34.562	0.143	0.078
-360.639	136.576	-0.017	-0.022
-359.625	-149.120	-0.073	-0.006
-358.610	-55.965	-0.301	0.133
-357.596	-200.000	0.011	-0.321
-356.581	-200.000	0.001	-0.104
-355.566	286.631	-0.122	0.219
-354.552	-29.036	-0.294	-0.168
-353.537	-76.955	0.176	0.061
-352.523	187.174	0.207	0.308
-351.508	704.187	-0.050	0.130
-350.493	57.543	-0.156	-0.151
-349.479	-200.000	-0.020	-0.217
-348.464	-39.105	0.064	0.033
-347.450	-75.261	-0.303	-0.108
-346.435	226.579	0.085	0.138
-345.420	10.765	-0.113	0.086
-344.406	-33.294	0.107	0.059
-343.391	-200.000	0.056	-0.259
-342.377	-200.000	0.009	-0.342
-341.362	-17.362	0.204	0.128
-340.348	-20.981	0.185	0.113
-339.333	11.019	0.046	-0.035
-338.318	-14.631	0.133	-0.085
-337.304	-77.338	-0.173	0.060
-336.289	8.954	-0.063	-0.047
-335.275	800.000	-0.124	0.359
-334.260	800.000	-0.084	0.290
-333.245	92.428	-0.124	-0.139
-332.231	-4.543	-0.234	0.160
-331.216	442.156	0.038	0.082
-330.202	3.982	0.188	-0.137
-329.187	106.884	-0.132	-0.156
-328.172	20.405	0.244	0.196
-327.158	-200.000	-0.007	0.106
-326.143	-200.000	0.003	-0.130
-325.129	786.623	0.055	-0.150
-324.114	-200.000	-0.022	-0.394
-323.099	-106.762	0.182	-0.040
-322.085	-39.243	-0.188	-0.098
-321.070	78.186	-0.186	0.198
-320.056	-200.000	-0.006	0.089
-319.041	-200.000	0.036	-0.201
-318.026	111.541	0.143	0.171
-317.012	-77.848	-0.054	0.019
-315.997	-64.980	0.364	0.146
-314.983	-36.152	0.185	0.099
-313.968	-107.161	-0.521	-0.114
-312.953	-106.009	0.104	-0.023
-311.939	6.437	-0.165	0.122
-310.924	800.000	0.044	0.179
-309.910	800.000	0.048	-0.199
-308.895	-132.695	0.294	-0.037
-307.880	-157.580	-0.060	0.004
-306.866	139.409	-0.138	-0.180
-305.851	-29.959	-0.207	-0.117
-304.837	131.184	-0.052	0.066
-303.822	-200.000	-0.015	0.068
-302.807	-200.000	0.163	0.001
-301.793	30.724	-0.180	-0.153
-300.778	800.000	0.075	-0.296
-299.764	-100.245	0.421	-0.104
-298.749	154.878	0.222	0.303
-297.735	-24.062	0.113	-0.067
-296.720	-29.379	-0.162	0.092
-295.705	-101.544	0.227	-0.055
-294.691	320.924	0.093	-0.175
-293.676	-200.000	-0.023	-0.224
-292.662	33.846	-0.089	-0.077
-291.647	116.315	-0.063	-0.076
-290.632	62.410	0.060	0.060
-289.618	-27.713	-0.085	-0.049
-288.603	800.000	0.094	-0.293
-287.589	-200.000	-0.042	0.222
-286.574	42.360	0.131	-0.118
-285.559	318.115	0.131	-0.245
-284.545	-21.198	0.070	-0.042
-283.530	217.137	-0.196	-0.309
-282.516	-104.852	-0.161	0.037
-281.501	-200.000	0.007	-0.160
-280.486	-103.266	-0.032	0.007
-279.472	-84.078	0.326	-0.103
-278.457	-200.000	-0.025	0.241
-277.443	248.957	0.144	0.242
-276.428	-77.063	0.218	-0.075
-275.413	-22.238	-0.043	0.026
-274.399	102.894	0.221	-0.257
-273.384	118.999	0.200	-0.246
-272.370	-26.384	0.100	0.058
-271.355	-124.853	-0.207	0.032
-270.340	-200.000	0.027	0.132
-269.326	-200.000	0.021	0.136
-268.311	-182.019	-0.127	-0.002
-267.297	-200.000	-0.001	0.117
-266.282	-200.000	0.004	-0.150
-265.267	-86.643	-0.241	0.073
-264.253	-200.000	-0.025	0.241
-263.238	-90.878	0.129	0.037
-262.224	-88.827	0.184	0.054
-261.209	46.186	-0.123	0.113
-260.195	-200.000	-0.042	-0.212
-259.180	-109.737	-0.101	-0.021
-258.165	-139.571	0.297	-0.031
-257.151	-44.279	-0.196	-0.097
-256.136	651.230	-0.142	0.360
-255.122	-18.882	0.266	0.164
-254.107	148.037	0.160	0.214
-253.092	155.761	0.121	-0.165
-252.078	-62.709	0.196	-0.081
-251.063	-134.034	0.133	-0.016
-250.049	-53.848	-0.321	-0.145
-249.034	-200.000	0.086	-0.405
-248.019	102.456	-0.117	-0.135
-247.005	-200.000	0.004	0.070
-245.990	150.065	-0.132	0.177
-244.976	163.640	-0.238	0.331
-243.961	-200.000	0.026	0.157
-242.946	800.000	0.068	-0.276
-241.932	157.853	-0.188	-0.258
-240.917	137.217	-0.196	-0.254
-239.903	-91.209	-0.325	-0.092
-238.888	-200.000	-0.014	-0.196
-237.873	-101.124	0.107	0.026
-236.859	-40.829	0.158	0.081
-235.844	-66.969	0.440	0.172
-234.830	103.532	-0.096	0.112
-233.815	76.467	0.248	-0.260
-232.800	370.931	0.127	-0.256
-231.786	-75.528	0.151	-0.053
-230.771	245.847	-0.069	0.115
-229.757	800.000	0.079	0.291
-228.742	396.788	-0.132	0.273
-227.727	-147.624	0.444	0.037
-226.713	-118.525	-0.471	0.082
-225.698	53.805	-0.064	0.061
-224.684	-57.222	-0.119	0.052
-223.669	212.259	0.184	0.287
-222.655	-29.270	0.198	0.112
-221.640	26.220	0.207	0.171
-220.625	-153.136	0.395	-0.027
-219.611	63.629	-0.233	-0.231
-218.596	-124.460	-0.093	-0.014
-217.582	800.000	0.077	-0.314
-216.567	-104.089	-0.202	0.047
-215.552	-84.848	0.237	0.074
-214.538	303.181	0.119	-0.218
-213.523	-108.136	0.242	-0.052
-212.509	73.224	0.250	-0.258
-211.494	-200.000	-0.007	0.103
-210.479	272.528	-0.037	-0.064
-209.465	23.031	0.177	0.143
-208.450	800.000	-0.039	0.141
-207.436	-184.612	-0.213	0.003
-206.421	-55.635	-0.235	0.104
-205.406	286.114	0.177	-0.316
-204.392	529.155	0.041	-0.097
-203.377	800.000	-0.094	0.260
-202.363	-72.443	-0.244	0.089
-201.348	419.654	0.120	0.254
-200.333	-183.916	-0.135	0.002
-199.319	-18.663	0.168	0.103
-198.304	-105.776	0.123	-0.028
-197.290	-94.424	-0.189	0.051
-196.275	800.000	0.094	-0.327
-195.260	-62.547	0.350	0.144
-194.246	-113.899	-0.135	0.026
-193.231	-84.848	-0.276	-0.086
-192.217	800.000	0.070	-0.235
-191.202	255.327	-0.049	-0.082
-190.187	463.400	-0.115	0.253
-189.173	109.209	0.263	-0.311
-188.158	800.000	-0.070	-0.279
-187.144	800.000	-0.033	0.120
-186.129	149.077	-0.187	0.249
-185.114	800.000	-0.034	0.108
-184.100	23.664	-0.117	-0.095
-183.085	-97.103	-0.245	0.063
-182.071	357.979	-0.053	-0.104
-181.056	-130.281	0.225	-0.030
-180.042	-49.221	0.295	-0.139
-179.027	-200.000	0.003	-0.044
-178.012	-124.536	0.071	-0.011
-176.998	-7.094	0.141	0.094
-175.983	-157.604	0.233	-0.014
-174.969	-156.865	0.127	-0.008
-173.954	354.861	0.214	0.420
-172.939	-88.474	-0.113	-0.033
-171.925	-94.716	-0.132	-0.035
-170.910	-200.000	-0.061	0.000
-169.896	89.043	-0.119	0.131
-168.881	-200.000	-0.040	-0.255
-167.866	-10.150	0.213	-0.140
-166.852	-126.316	-0.249	0.037
-165.837	-106.083	-0.105	0.023
-164.823	-120.494	-0.035	0.006
-163.808	800.000	0.123	0.516
-162.793	-200.000	-0.044	-0.210
-161.779	1.514	0.088	-0.063
-160.764	361.972	0.131	0.259
-159.750	-6.956	-0.047	-0.031
-158.735	-37.459	0.294	0.155
-157.720	328.934	0.079	0.150
-156.706	-130.746	-0.088	0.012
-155.691	-126.494	-0.177	-0.026
-154.677	103.472	-0.231	-0.267
-153.662	26.319	-0.211	0.174
-152.647	423.789	0.084	-0.178
-151.633	162.755	-0.123	-0.170
-150.618	800.000	0.037	-0.135
-149.604	-200.000	-0.028	0.172
-148.589	-63.731	0.105	0.043
-147.574	-77.710	0.122	-0.042
-146.560	174.307	0.109	-0.156
-145.545	-132.192	0.203	0.026
-144.531	800.000	0.075	-0.304
-143.516	-11.106	0.370	-0.241
-142.502	-11.384	0.124	0.080
-141.487	-87.648	-0.370	-0.110
-140.472	800.000	0.066	0.234
-139.458	530.487	0.078	0.183
-138.443	415.890	0.040	0.083
-137.429	105.644	0.135	0.158
-136.414	-33.951	-0.190	-0.103
-135.399	800.000	-0.046	0.173
-134.385	-89.343	0.399	-0.116
-133.370	110.592	0.147	0.175
-132.356	800.000	0.103	0.290
-131.341	32.181	-0.083	-0.071
-130.326	-45.224	-0.242	-0.118
-129.312	-61.084	0.282	0.117
-128.297	-200.000	-0.003	0.122
-127.283	-110.421	-0.149	0.030
-126.268	-48.208	-0.023	0.011
-125.253	800.000	-0.033	-0.111
-124.239	-183.098	0.365	-0.006
-123.224	-200.000	0.016	-0.081
-122.210	5.041	0.014	0.010
-121.195	-96.995	0.407	0.105
-120.180	-144.285	0.404	-0.037
-119.166	143.523	-0.122	-0.160
-118.151	-5.873	0.068	-0.046
-117.137	-152.521	-0.313	0.022
-116.122	800.000	0.039	-0.160
-115.107	800.000	0.044	-0.146
-114.093	-86.307	0.404	-0.122
-113.078	-200.000	0.003	0.036
-112.064	-165.511	-0.418	0.018
-111.049	89.065	0.086	0.095
-110.034	-37.270	0.076	0.040
-109.020	75.368	0.122	0.127
-108.005	180.945	-0.125	-0.181
-106.991	-133.709	-0.132	0.016
-105.976	-10.586	0.167	-0.109
-104.962	-91.758	-0.111	0.031
-103.947	-10.327	-0.491	0.321
-102.932	637.237	-0.052	0.129
-101.918	-32.595	0.299	-0.164
-100.903	-188.693	-0.162	0.002
-99.889	-4.688	0.128	0.087
-98.874	1.740	-0.283	0.201
-97.859	444.470	-0.096	0.207
-96.845	160.708	-0.031	0.043
-95.830	240.294	-0.084	0.138
-94.816	138.705	-0.167	0.216
-93.801	-83.981	0.170	0.053
-92.786	-200.000	-0.032	-0.301
-91.772	202.719	-0.094	-0.143
-90.757	120.863	0.269	0.330
-89.743	-158.955	-0.096	-0.005
-88.728	48.722	0.324	-0.299
-87.713	97.510	0.085	0.097
-86.699	-93.350	0.222	-0.060
-85.684	-200.000	0.040	0.179
-84.670	206.104	0.115	-0.176
-83.655	800.000	0.072	-0.266
-82.640	-200.000	0.039	-0.322
-81.626	387.189	0.112	-0.229
-80.611	-146.469	-0.276	-0.024
-79.597	107.643	0.125	0.146
-78.582	63.214	0.080	0.079
-77.567	800.000	0.065	-0.211
-76.553	800.000	-0.019	0.076
-75.538	674.863	0.035	-0.090
-74.524	800.000	-0.030	-0.105
-73.509	-1.044	0.191	-0.133
-72.494	-200.000	0.001	-0.357
-71.480	800.000	-0.030	0.099
-70.465	13.424	0.164	-0.125
-69.451	-147.992	-0.412	-0.034
-68.436	-107.973	-0.324	0.069
-67.422	3.379	-0.036	-0.026
-66.407	-12.256	0.048	0.031
-65.392	-0.782	0.189	0.132
-64.378	342.416	0.102	0.197
-63.363	-200.000	0.014	0.169
-62.349	99.210	0.087	0.099
-61.334	-31.485	-1.125	-0.622
-60.319	17.601	0.122	0.095
-59.305	800.000	-0.305	-0.866
-58.290	548.113	0.554	1.305
-57.276	520.275	0.657	1.515
-56.261	-200.000	102.201	656.446
-55.246	636.059	1458.784	3640.961
-54.232	177.052	2685.862	3842.651
-53.217	114.174	2322.043	2777.730
-52.203	42.364	1928.924	1723.788
-51.188	35.748	1718.082	1484.455
-50.173	33.004	1673.690	1425.368
-49.159	52.927	1724.808	1621.748
-48.144	54.844	1741.155	1651.684
-47.130	35.521	1696.700	1464.016
-46.115	32.608	1681.867	1429.100
-45.100	32.451	1676.957	1423.684
-44.086	32.457	1674.131	1421.273
-43.071	32.371	1671.366	1418.228
-42.057	32.286	1669.512	1415.954
-41.042	32.260	1666.722	1413.333
-40.027	32.371	1664.982	1412.638
-39.013	32.301	1663.469	1410.770
-37.998	32.407	1661.760	1410.064
-36.984	32.383	1660.392	1408.669
-35.969	32.457	1658.829	1407.836
-34.954	32.509	1657.255	1406.831
-33.940	32.568	1655.410	1405.650
-32.925	32.454	1653.638	1403.239
-31.911	32.474	1651.671	1401.668
-30.896	32.402	1650.295	1399.911
-29.881	32.459	1648.436	1398.696
-28.867	32.529	1646.747	1397.727
-27.852	32.446	1645.428	1395.937
-26.838	32.489	1643.741	1394.770
-25.823	32.505	1642.382	1393.682
-24.809	32.465	1641.179	1392.307
-23.794	32.558	1639.647	1391.641
-22.779	32.565	1638.070	1390.299
-21.765	32.535	1636.463	1388.661
-20.750	32.492	1634.926	1386.980
-19.736	32.522	1633.348	1385.811
-18.721	32.567	1632.182	1385.098
-17.706	32.676	1630.022	1384.007
-16.692	32.530	1628.960	1381.978
-15.677	32.595	1627.587	1381.236
-14.663	32.541	1626.536	1379.896
-13.648	32.488	1625.281	1378.388
-12.633	32.486	1623.618	1376.908
-11.619	32.545	1622.115	1376.008
-10.604	32.568	1620.006	1374.337
-9.590	32.567	1618.978	1373.398
-8.575	32.530	1617.473	1371.797
-7.560	32.506	1616.684	1370.903
-6.546	32.540	1615.777	1370.324
-5.531	32.603	1613.934	1369.163
-4.517	32.600	1612.777	1368.106
-3.502	32.488	1612.087	1366.653
-2.487	32.561	1610.444	1365.741
-1.473	32.555	1598.673	1355.659
-0.458	30.197	1579.991	1322.967
0.556	25.476	1581.689	1293.898
1.571	23.391	1606.021	1298.424
2.586	22.734	1619.893	1304.669
3.600	19.790	1564.541	1238.915
4.615	10.205	1450.331	1084.422
5.629	1.982	1383.779	981.816
6.644	0.458	1375.363	966.001
7.659	0.392	1374.112	964.619
8.673	0.370	1372.996	963.611
9.688	0.300	1370.889	961.596
10.702	0.112	1367.959	958.261
11.717	3.434	1374.397	983.913
12.731	13.266	1393.193	1060.630
13.746	21.226	1407.548	1122.851
14.761	23.240	1409.912	1137.594
15.775	23.488	1409.920	1139.093
16.790	23.537	1409.231	1138.751
17.804	23.516	1408.653	1138.050
18.819	23.733	1408.938	1139.573
19.834	23.853	1407.796	1139.316
20.848	23.800	1407.312	1138.482
21.863	23.932	1406.238	1138.362
22.877	23.876	1405.249	1137.102
23.892	23.955	1404.385	1136.805
24.907	23.908	1403.949	1136.049
25.921	23.913	1403.080	1135.280
26.936	23.904	1401.509	1133.848
27.950	23.975	1400.748	1133.588
28.965	23.850	1399.564	1131.733
29.980	23.954	1397.996	1131.027
30.994	23.899	1396.638	1129.476
32.009	23.978	1395.221	1128.733
33.023	23.923	1394.241	1127.491
34.038	23.872	1393.103	1126.147
35.053	23.957	1391.843	1125.569
36.067	23.954	1390.904	1124.688
37.082	23.994	1389.974	1124.089
38.096	23.908	1388.889	1122.570
39.111	23.934	1388.083	1121.987
40.126	23.973	1388.206	1122.233
41.140	23.941	1387.345	1121.232
42.155	23.913	1386.647	1120.393
43.169	23.948	1387.073	1120.861
44.184	23.870	1386.796	1120.045
45.199	23.956	1386.341	1120.119
46.213	23.920	1386.129	1119.625
47.228	23.916	1384.686	1118.334
48.242	23.873	1383.812	1117.261
49.257	23.999	1381.818	1116.338
50.271	23.978	1380.180	1114.784
51.286	23.773	1379.828	1113.116
52.301	23.940	1377.862	1112.481
53.315	23.809	1377.486	1111.257
54.330	23.822	1376.654	1110.568
55.344	23.984	1375.205	1110.315
56.359	23.937	1373.973	1108.931
57.374	23.845	1373.742	1108.072
58.388	23.969	1372.385	1107.651
59.403	23.864	1372.365	1106.884
60.417	23.917	1371.257	1106.218
61.432	23.893	1371.109	1105.852
62.447	23.954	1369.987	1105.232
63.461	23.917	1368.835	1103.970
64.476	23.866	1368.061	1102.934
65.490	23.996	1366.473	1102.361
66.505	24.034	1364.731	1101.097
67.520	23.912	1364.332	1099.918
68.534	24.035	1362.845	1099.385
69.549	23.970	1362.190	1098.359
70.563	23.875	1361.295	1096.951
71.578	23.925	1360.205	1096.287
72.593	23.899	1359.409	1095.389
73.607	23.941	1358.488	1094.805
74.622	23.954	1357.577	1094.054
75.636	24.025	1356.904	1093.850
76.651	23.852	1356.357	1092.251
77.666	23.932	1355.815	1092.212
78.680	23.899	1355.027	1091.277
79.695	23.901	1354.211	1090.534
80.709	23.850	1353.799	1089.790
81.724	23.932	1352.625	1089.252
82.739	23.920	1351.385	1088.085
83.753	23.965	1350.501	1087.553
84.768	23.993	1349.588	1086.889
85.782	23.922	1348.728	1085.672
86.797	23.959	1347.138	1084.519
87.812	23.932	1346.416	1083.678
88.826	23.985	1344.997	1082.764
89.841	24.013	1343.645	1081.749
90.855	23.982	1343.137	1081.058
91.870	24.040	1342.077	1080.457
92.884	23.928	1341.428	1079.159
93.899	23.927	1340.630	1078.419
94.914	23.993	1340.015	1078.230
95.928	24.007	1338.857	1077.288
96.943	23.944	1338.006	1076.125
97.957	24.008	1337.378	1075.910
98.972	24.040	1336.360	1075.192
99.987	23.965	1335.581	1074.015
101.001	23.983	1334.831	1073.423
102.016	23.914	1334.317	1072.500
103.030	24.092	1332.961	1072.386
104.045	23.889	1332.230	1070.484
105.060	23.969	1331.417	1070.216
106.074	24.021	1329.947	1069.251
107.089	24.031	1328.902	1068.378
108.103	24.135	1328.001	1068.185
109.118	24.061	1326.949	1066.800
110.133	24.013	1325.845	1065.527
111.147	24.170	1324.304	1065.133
112.162	23.993	1323.556	1063.380
113.176	24.012	1322.565	1062.606
114.191	23.997	1321.759	1061.774
115.206	24.048	1320.309	1060.817
116.220	23.998	1319.495	1059.771
117.235	24.004	1318.355	1058.803
118.249	23.905	1317.958	1057.797
119.264	24.013	1316.812	1057.429
120.279	24.063	1315.838	1056.848
121.293	24.106	1314.822	1056.193
122.308	24.149	1313.795	1055.528
123.322	24.186	1312.700	1054.773
124.337	24.076	1312.435	1053.820
125.352	24.093	1311.089	1052.747
126.366	24.151	1309.955	1052.083
127.381	24.100	1309.414	1051.258
128.395	24.287	1307.716	1050.904
129.410	24.218	1307.316	1050.080
130.424	24.129	1307.032	1049.234
131.439	24.105	1305.991	1048.164
132.454	24.123	1305.103	1047.466
133.468	24.095	1304.873	1047.022
134.483	24.094	1304.147	1046.343
135.497	24.152	1303.034	1045.697
136.512	24.070	1301.981	1044.278
137.527	24.135	1300.823	1043.637
138.541	24.124	1299.544	1042.454
139.556	24.054	1298.750	1041.318
140.570	24.060	1297.637	1040.370
141.585	24.076	1295.991	1039.051
142.600	24.059	1295.107	1038.147
143.614	24.061	1294.641	1037.694
144.629	24.095	1293.370	1036.784
145.643	24.019	1292.344	1035.429
146.658	23.907	1291.248	1033.808
147.673	24.021	1290.322	1033.633
148.687	23.953	1289.337	1032.359
149.702	24.022	1287.728	1031.384
150.716	24.073	1286.482	1030.585
151.731	24.140	1285.571	1030.152
152.746	24.030	1285.192	1029.122
153.760	24.109	1283.870	1028.431
154.775	24.117	1282.851	1027.571
155.789	24.081	1281.926	1026.530
156.804	24.127	1281.089	1026.033
157.819	24.094	1280.109	1024.966
158.833	24.106	1279.552	1024.498
159.848	24.103	1278.902	1023.870
160.862	24.127	1278.267	1023.412
161.877	24.171	1277.076	1022.621
162.892	24.170	1275.728	1021.440
163.906	24.180	1275.824	1021.486
164.921	24.193	1275.087	1020.880
165.935	24.187	1273.795	1019.721
166.950	24.168	1273.634	1019.391
167.964	24.219	1273.174	1019.227
168.979	24.267	1272.359	1018.758
169.994	24.292	1271.679	1018.270
171.008	24.285	1270.933	1017.538
172.023	24.209	1270.247	1016.468
173.037	24.207	1269.434	1015.713
174.052	24.224	1268.543	1015.006
175.067	24.157	1267.833	1013.969
176.081	24.325	1266.718	1013.944
177.096	24.253	1266.201	1013.030
178.110	24.143	1265.439	1011.707
179.125	24.228	1264.642	1011.463
180.140	24.260	1263.406	1010.564
181.154	24.353	1262.206	1010.044
182.169	24.168	1261.612	1008.433
183.183	24.221	1260.214	1007.526
184.198	24.375	1258.847	1007.213
185.213	24.250	1258.429	1006.085
186.227	24.294	1257.490	1005.493
187.242	24.331	1256.266	1004.635
188.256	24.389	1255.715	1004.428
189.271	24.310	1254.545	1002.959
190.286	24.232	1254.061	1002.044
191.300	24.262	1253.426	1001.618
192.315	24.309	1253.030	1001.478
193.329	24.271	1252.639	1000.865
194.344	24.432	1251.881	1001.073
195.359	24.312	1251.663	1000.134
196.373	24.176	1251.299	998.991
197.388	24.184	1250.628	998.417
198.402	24.273	1250.185	998.474
199.417	24.304	1249.880	998.315
200.432	24.376	1249.049	997.962
201.446	24.261	1248.553	996.836
202.461	24.251	1247.883	996.155
203.475	24.326	1246.564	995.432
204.490	24.323	1245.826	994.738
205.504	24.282	1244.801	993.605
206.519	24.453	1243.821	993.684
207.534	24.419	1242.918	992.688
208.548	24.375	1242.299	991.862
209.563	24.345	1241.187	990.720
210.577	24.239	1241.129	989.996
211.592	24.337	1239.727	989.336
212.607	24.479	1238.791	989.289
213.621	24.462	1238.132	988.581
214.636	24.418	1237.413	987.675
215.650	24.426	1236.220	986.680
216.665	24.461	1235.257	986.015
217.680	24.404	1234.475	984.990
218.694	24.467	1233.839	984.741
219.709	24.515	1233.086	984.317
220.723	24.441	1232.681	983.501
221.738	24.351	1232.083	982.439
222.753	24.408	1230.914	981.734
223.767	24.364	1230.552	981.121
224.782	24.521	1229.707	981.218
225.796	24.548	1229.386	981.028
226.811	24.525	1228.642	980.222
227.826	24.542	1228.385	980.022
228.840	24.593	1227.469	979.482
229.855	24.586	1226.951	978.941
230.869	24.576	1226.043	978.077
231.884	24.549	1225.355	977.293
232.899	24.508	1224.611	976.391
233.913	24.617	1223.955	976.379
234.928	24.631	1223.192	975.757
235.942	24.667	1222.857	975.604
236.957	24.637	1222.140	974.779
237.972	24.574	1221.480	973.826
238.986	24.675	1221.063	973.953
240.001	24.694	1220.026	973.144
241.015	24.689	1219.653	972.733
242.030	24.678	1218.940	972.022
243.045	24.729	1217.773	971.280
244.059	24.537	1217.317	969.788
245.074	24.741	1216.128	969.863
246.088	24.633	1215.918	969.023
247.103	24.738	1214.804	968.621
248.117	24.623	1214.279	967.493
249.132	24.663	1213.691	967.155
250.147	24.767	1212.753	966.881
251.161	24.715	1211.971	965.894
252.176	24.826	1211.431	965.975
253.190	24.822	1210.574	965.188
254.205	24.839	1209.277	964.157
255.220	24.694	1209.097	963.146
256.234	24.831	1209.118	963.818
257.249	24.715	1208.386	962.525
258.263	24.796	1207.630	962.275
259.278	24.873	1207.263	962.309
260.293	24.889	1206.668	961.834
261.307	24.927	1205.838	961.294
262.322	24.849	1205.500	960.520
263.336	24.861	1204.642	959.814
264.351	24.829	1204.179	959.192
265.366	24.919	1203.359	958.936
266.380	24.847	1202.719	957.954
267.395	24.832	1201.990	957.207
268.409	24.742	1201.547	956.288
269.424	24.900	1200.751	956.414
270.439	24.923	1200.445	956.210
271.453	24.931	1199.643	955.529
272.468	24.777	1198.789	953.944
273.482	24.778	1198.054	953.276
274.497	24.908	1197.809	953.694
275.512	25.014	1196.578	953.193
276.526	25.000	1196.337	952.839
277.541	24.849	1196.013	951.696
278.555	25.028	1195.309	952.005
279.570	24.890	1194.512	950.549
280.585	24.886	1193.796	949.876
281.599	24.898	1192.956	949.188
282.614	24.980	1191.722	948.558
283.628	25.026	1190.846	948.017
284.643	25.128	1189.998	947.798
285.657	24.931	1189.279	946.102
286.672	24.975	1188.406	945.553
287.687	24.985	1187.778	945.024
288.701	25.054	1187.063	944.736
289.716	25.136	1185.827	944.099
290.730	25.145	1185.452	943.767
291.745	25.118	1184.853	943.064
292.760	25.147	1184.556	942.894
293.774	25.108	1184.429	942.506
294.789	25.127	1183.700	941.941
295.803	25.102	1182.924	941.110
296.818	25.089	1182.170	940.359
297.833	25.071	1181.356	939.537
298.847	25.191	1180.443	939.352
299.862	25.174	1179.390	938.345
300.876	25.100	1179.751	938.157
301.891	25.165	1178.535	937.452
302.906	25.193	1178.274	937.304
303.920	25.165	1177.943	936.814
304.935	25.193	1176.638	935.837
305.949	25.300	1175.791	935.638
306.964	25.307	1175.437	935.311
307.979	25.241	1175.004	934.538
308.993	25.280	1174.464	934.231
310.008	25.313	1173.276	933.373
311.022	25.288	1172.708	932.711
312.037	25.232	1172.149	931.891
313.052	25.211	1171.300	931.029
314.066	25.239	1170.251	930.254
315.081	25.299	1169.324	929.750
316.095	25.296	1168.847	929.270
317.110	25.350	1168.302	929.032
318.125	25.364	1167.386	928.295
319.139	25.403	1166.895	928.024
320.154	25.266	1166.555	926.964
321.168	25.376	1165.686	926.761
322.183	25.383	1165.029	926.189
323.197	25.342	1164.466	925.452
324.212	25.225	1164.293	924.630
325.227	25.359	1163.974	924.986
326.241	25.423	1163.025	924.475
327.256	25.474	1162.124	923.939
328.270	25.344	1161.555	922.738
329.285	25.352	1160.627	921.962
330.300	25.390	1159.630	921.285
331.314	25.399	1158.752	920.548
332.329	25.514	1158.136	920.566
333.343	25.559	1157.252	920.015
334.358	25.579	1156.375	919.337
335.373	25.582	1155.727	918.754
336.387	25.595	1154.927	918.105
337.402	25.452	1154.730	917.136
338.416	25.539	1154.173	917.058
339.431	25.559	1153.154	916.266
340.446	25.526	1152.782	915.725
341.460	25.712	1151.940	915.919
342.475	25.619	1151.572	915.076
343.489	25.596	1150.627	914.127
344.504	25.681	1149.281	913.409
345.519	25.685	1148.743	912.916
346.533	25.653	1148.059	912.133
347.548	25.648	1147.432	911.527
348.562	25.686	1146.659	911.023
349.577	25.680	1145.932	910.337
350.592	25.619	1145.086	909.275
351.606	25.558	1144.525	908.442
352.621	25.755	1143.683	908.690
353.635	25.679	1143.357	907.964
354.650	25.678	1142.424	907.140
355.665	25.809	1141.548	907.019
356.679	25.837	1141.376	906.945
357.694	25.659	1141.210	905.840
358.708	25.739	1140.401	905.519
359.723	25.658	1139.569	904.371
360.738	25.664	1138.627	903.572
361.752	25.730	1138.437	903.673
362.767	25.724	1137.658	902.947
363.781	25.817	1137.180	902.953
364.796	25.939	1136.445	902.898
365.810	25.807	1136.098	901.882
366.825	25.831	1135.415	901.381
367.840	25.944	1135.156	901.663
368.854	26.016	1133.765	900.834
369.869	25.942	1133.325	900.035
370.883	25.902	1132.359	898.993
371.898	26.036	1132.060	899.344
372.913	25.922	1131.521	898.263
373.927	26.020	1130.759	898.069
374.942	25.977	1130.357	897.457
375.956	25.941	1129.834	896.784
376.971	25.857	1129.597	896.096
377.986	25.931	1128.640	895.628
379.000	26.107	1128.057	895.962
380.015	26.065	1127.424	895.166
381.029	26.080	1126.947	894.782
382.044	26.051	1125.989	893.801
383.059	26.165	1125.296	893.734
384.073	26.045	1124.620	892.528
385.088	26.125	1123.570	892.012
386.102	26.209	1122.573	891.555
387.117	26.139	1122.120	890.770
388.132	26.083	1121.489	889.917
389.146	26.130	1120.839	889.551
390.161	26.049	1120.293	888.640
391.175	26.134	1119.535	888.381
392.190	26.010	1118.995	887.260
393.205	25.981	1118.260	886.459
394.219	26.254	1117.354	887.000
395.234	26.176	1116.904	886.185
396.248	26.280	1115.704	885.662
397.263	26.226	1114.817	884.617
398.278	26.188	1114.253	883.906
399.292	26.198	1113.815	883.527
400.307	26.226	1113.570	883.391
401.321	26.155	1113.035	882.542
402.336	26.315	1111.670	882.161
403.350	26.311	1111.155	881.659
404.365	26.365	1110.327	881.186
405.380	26.401	1109.743	880.817
406.394	26.226	1109.357	879.581
407.409	26.262	1108.626	879.101
408.423	26.426	1107.696	879.081
409.438	26.435	1106.859	878.384
410.453	26.488	1105.801	877.725
411.467	26.589	1105.040	877.533
412.482	26.488	1104.651	876.657
413.496	26.497	1104.101	876.187
414.511	26.426	1103.910	875.613
415.526	26.477	1103.198	875.217
416.540	26.456	1102.410	874.413
417.555	26.411	1102.221	873.968
418.569	26.477	1101.799	873.875
419.584	26.431	1101.534	873.364
420.599	26.562	1100.888	873.406
421.613	148.198	1403.215	1795.292
422.628	137.474	1447.253	1795.388
