DTS Sentinel unit serial number:	SN413079Multiplexer serial number:	ORYXHardware model number:	OX4-SRSoftware version number:	ORYX F/W v4.00 Oryx Data Collector v3.7.2.0data status	okinstallation	princeton_trtdifferential loss correction	single-endedforward channel	channel 2reverse channel	N/Adate	2019/09/14time	03:23:35forward acquisition time	60.00reverse acquisition time	0.00gamma	496.2192k internal	0.2337k external	0.2337temperature offset calibration	1.0123default loss term (dB/km)	0.3790temperature slope calibration	1.0000multiplexer offset coefficient	1.0000multiplexer slope coefficient	1.0000fibre end	0.00T internal ref (°C)	26.62T ext. ref 1 (°C)	3.26T ext. ref 2 (°C)	21.64length (m)	temperature (°C)	Stokes	anti-Stokes-747.200	45.636	-0.123	-0.114
-746.185	-200.000	0.008	0.063
-745.171	56.242	0.253	0.247
-744.156	-200.000	0.042	0.238
-743.142	-200.000	-0.036	0.209
-742.127	396.838	0.080	0.168
-741.112	35.808	0.103	-0.091
-740.098	-21.014	-0.185	0.114
-739.083	-200.000	-0.035	0.268
-738.069	-200.000	-0.020	0.267
-737.054	355.313	-0.157	0.314
-736.039	-92.404	-0.376	-0.106
-735.025	-21.046	-0.122	-0.075
-734.010	361.870	-0.119	-0.240
-732.996	61.668	-0.408	0.407
-731.981	-200.000	0.013	-0.193
-730.966	-69.128	-0.340	-0.131
-729.952	289.606	0.057	-0.104
-728.937	123.778	0.083	0.104
-727.923	-29.578	0.145	-0.083
-726.908	314.466	-0.077	0.145
-725.894	-76.823	-0.228	-0.080
-724.879	9.045	-0.057	-0.044
-723.864	629.978	-0.134	-0.341
-722.850	-200.000	-0.059	-0.308
-721.835	-27.663	-0.203	-0.118
-720.821	154.189	-0.153	-0.211
-719.806	-187.160	-0.046	-0.001
-718.791	-105.133	0.292	0.067
-717.777	499.403	0.050	0.115
-716.762	368.997	-0.064	-0.130
-715.748	-200.000	0.025	-0.117
-714.733	-90.378	-0.118	0.034
-713.718	-160.871	-0.291	0.015
-712.704	800.000	-0.025	0.072
-711.689	-200.000	-0.010	0.053
-710.675	-14.205	-0.089	-0.058
-709.660	-121.393	0.326	-0.054
-708.645	114.096	0.096	-0.117
-707.631	-55.757	-0.164	0.073
-706.616	190.958	-0.184	0.277
-705.602	102.306	-0.251	-0.294
-704.587	331.027	0.032	-0.062
-703.572	36.622	-0.094	0.084
-702.558	-100.736	-0.319	-0.079
-701.543	800.000	-0.038	-0.142
-700.529	-200.000	0.012	-0.272
-699.514	524.650	0.091	-0.215
-698.499	-200.000	-0.042	0.215
-697.485	209.651	0.109	-0.171
-696.470	-200.000	0.029	0.129
-695.456	268.521	0.101	-0.178
-694.441	160.816	-0.060	0.084
-693.426	2.667	-0.429	0.312
-692.412	-200.000	0.001	0.075
-691.397	200.831	-0.148	0.228
-690.383	91.628	0.313	-0.353
-689.368	54.968	0.063	-0.061
-688.354	368.543	0.100	0.202
-687.339	-60.276	-0.218	-0.093
-686.324	429.574	0.152	-0.329
-685.310	-200.000	-0.006	-0.035
-684.295	14.519	0.078	-0.061
-683.281	383.230	-0.067	-0.138
-682.266	155.724	-0.107	-0.148
-681.251	32.503	0.143	-0.124
-680.237	800.000	0.088	-0.337
-679.222	21.160	-0.190	-0.154
-678.208	-200.000	0.016	0.419
-677.193	-26.409	-0.240	0.141
-676.178	110.032	-0.165	-0.199
-675.164	-200.000	0.010	-0.054
-674.149	-48.549	-0.320	0.154
-673.135	-167.263	0.373	0.015
-672.120	-40.606	-0.225	0.117
-671.105	800.000	-0.145	0.430
-670.091	-111.394	-0.115	-0.023
-669.076	464.701	0.060	0.134
-668.062	173.177	-0.050	0.072
-667.047	-56.052	-0.159	-0.071
-666.032	278.187	0.083	-0.147
-665.018	800.000	0.053	-0.206
-664.003	126.913	0.083	-0.106
-662.989	327.873	-0.117	-0.224
-661.974	-134.247	-0.119	-0.015
-660.959	-56.516	0.102	-0.045
-659.945	-100.902	0.478	0.118
-658.930	-200.000	-0.012	-0.213
-657.916	-52.475	0.240	-0.111
-656.901	-28.769	0.216	0.125
-655.886	-105.713	-0.073	-0.017
-654.872	-79.810	0.084	-0.028
-653.857	-159.198	0.141	0.008
-652.843	-200.000	0.007	-0.083
-651.828	-17.692	0.167	0.105
-650.814	-75.987	-0.274	0.097
-649.799	-132.971	-0.368	-0.047
-648.784	800.000	-0.068	0.230
-647.770	800.000	-0.033	0.112
-646.755	-106.870	0.251	0.056
-645.741	800.000	0.144	-0.418
-644.726	-115.075	0.166	-0.031
-643.711	-89.662	-0.144	0.042
-642.697	-160.125	-0.084	0.005
-641.682	473.560	-0.127	-0.286
-640.668	56.139	-0.146	-0.142
-639.653	-51.318	-0.197	-0.092
-638.638	-68.540	0.081	-0.031
-637.624	166.745	0.144	0.205
-636.609	-134.100	0.127	0.016
-635.595	116.325	0.091	-0.112
-634.580	-123.173	0.105	-0.017
-633.565	-131.856	-0.243	0.032
-632.551	-19.931	0.175	0.108
-631.536	-200.000	0.008	-0.218
-630.522	719.717	-0.085	-0.225
-629.507	37.507	0.277	-0.246
-628.492	-88.283	0.223	0.067
-627.478	-0.974	-0.176	-0.124
-626.463	340.399	-0.187	-0.365
-625.449	-22.080	-0.167	-0.101
-624.434	619.500	-0.058	0.146
-623.419	195.480	0.041	0.062
-622.405	-7.578	-0.196	0.133
-621.390	108.660	-0.153	0.182
-620.376	-200.000	-0.003	0.023
-619.361	229.521	0.047	-0.077
-618.346	800.000	-0.065	-0.242
-617.332	82.817	-0.155	-0.169
-616.317	-107.784	0.143	0.031
-615.303	-200.000	0.042	-0.332
-614.288	-139.104	-0.210	-0.023
-613.273	-200.000	-0.019	0.153
-612.259	800.000	0.044	-0.150
-611.244	-95.903	0.290	-0.077
-610.230	800.000	0.110	0.317
-609.215	-200.000	0.030	0.220
-608.201	2.707	-0.242	-0.175
-607.186	-68.557	-0.086	-0.033
-606.171	690.883	0.088	-0.231
-605.157	322.610	-0.125	-0.238
-604.142	-200.000	0.124	0.583
-603.128	119.909	0.148	-0.184
-602.113	-55.342	-0.365	-0.163
-601.098	47.642	0.117	0.109
-600.084	-44.021	-0.162	0.081
-599.069	24.624	0.286	-0.237
-598.055	6.887	0.309	0.230
-597.040	-109.708	-0.343	0.072
-596.025	62.853	0.105	-0.105
-595.011	86.551	0.173	0.191
-593.996	-200.000	-0.010	-0.260
-592.982	40.337	-0.099	-0.089
-591.967	5.894	-0.177	-0.131
-590.952	237.454	-0.135	-0.223
-589.938	190.214	-0.115	0.172
-588.923	-20.084	0.090	0.056
-587.909	-200.000	-0.048	0.276
-586.894	-200.000	-0.007	0.219
-585.879	47.715	0.283	0.264
-584.865	84.785	0.033	-0.036
-583.850	-108.765	0.207	-0.044
-582.836	-22.271	0.122	0.074
-581.821	39.573	-0.162	0.145
-580.806	531.795	0.079	-0.186
-579.792	334.007	0.246	0.475
-578.777	-200.000	-0.045	-0.199
-577.763	45.949	-0.356	-0.328
-576.748	-104.344	0.156	0.036
-575.733	642.339	0.071	-0.181
-574.719	800.000	0.054	0.150
-573.704	404.137	0.129	0.272
-572.690	407.283	0.134	-0.283
-571.675	165.600	0.104	-0.146
-570.661	800.000	0.095	0.331
-569.646	-200.000	0.007	0.036
-568.631	-97.435	-0.278	-0.072
-567.617	27.900	-0.207	0.174
-566.602	-200.000	0.021	-0.217
-565.588	-99.233	-0.276	-0.070
-564.573	33.962	-0.037	0.032
-563.558	-157.753	-0.250	0.015
-562.544	176.877	-0.148	0.214
-561.529	17.083	-0.250	-0.198
-560.515	736.134	-0.024	0.065
-559.500	276.322	0.110	-0.195
-558.485	156.276	-0.014	-0.019
-557.471	182.869	-0.019	0.027
-556.456	434.495	-0.113	0.245
-555.442	56.936	-0.289	0.281
-554.427	11.464	-0.158	-0.120
-553.412	183.872	0.109	0.161
-552.398	449.889	-0.087	-0.190
-551.383	62.929	-0.209	-0.208
-550.369	-98.764	-0.380	0.096
-549.354	-200.000	-0.034	0.164
-548.339	-200.000	-0.048	0.258
-547.325	800.000	-0.035	-0.154
-546.310	-132.856	-0.221	-0.028
-545.296	-165.891	0.079	0.003
-544.281	-62.496	-0.414	0.171
-543.266	13.254	0.174	0.135
-542.252	800.000	-0.099	-0.276
-541.237	-124.387	-0.302	-0.047
-540.223	800.000	-0.006	-0.027
-539.208	-45.786	-0.211	0.104
-538.193	79.922	-0.025	-0.027
-537.179	800.000	-0.049	-0.138
-536.164	-87.545	0.195	-0.059
-535.150	-31.734	0.291	0.163
-534.135	-13.582	0.207	-0.134
-533.121	-159.448	-0.051	-0.003
-532.106	-200.000	0.043	-0.203
-531.091	-55.763	0.052	-0.023
-530.077	28.909	-0.114	-0.096
-529.062	164.592	0.076	-0.106
-528.048	800.000	-0.106	-0.412
-527.033	46.627	-0.079	0.073
-526.018	-130.384	0.322	-0.044
-525.004	-35.566	0.089	0.048
-523.989	800.000	0.051	-0.219
-522.975	183.865	-0.176	0.260
-521.960	45.966	-0.101	-0.093
-520.945	20.928	-0.073	-0.059
-519.931	-132.961	0.037	-0.005
-518.916	800.000	0.020	-0.059
-517.902	29.625	0.301	-0.255
-516.887	263.610	-0.091	0.158
-515.872	16.450	-0.128	0.101
-514.858	104.791	-0.229	-0.269
-513.843	-72.511	0.203	-0.075
-512.829	-87.237	0.205	-0.062
-511.814	-12.351	0.117	-0.076
-510.799	800.000	-0.048	-0.147
-509.785	12.725	-0.323	0.248
-508.770	-57.233	-0.229	-0.100
-507.756	-200.000	-0.027	0.434
-506.741	-10.305	-0.106	0.070
-505.726	-200.000	-0.012	0.142
-504.712	-44.637	0.298	-0.148
-503.697	-133.508	0.167	0.021
-502.683	31.819	0.045	-0.039
-501.668	-50.611	0.157	0.074
-500.653	-99.161	0.261	-0.066
-499.639	638.946	0.056	-0.142
-498.624	187.848	0.093	-0.138
-497.610	13.771	0.255	0.197
-496.595	-92.527	-0.366	-0.102
-495.581	-200.000	0.004	0.172
-494.566	-100.824	0.196	0.048
-493.551	-200.000	-0.028	-0.159
-492.537	-102.152	0.149	0.036
-491.522	-200.000	-0.183	0.000
-490.508	-36.581	-0.294	-0.157
-489.493	-136.515	-0.145	-0.017
-488.478	-80.801	-0.424	0.140
-487.464	-200.000	-0.001	-0.030
-486.449	-4.889	-0.150	0.103
-485.435	-92.998	0.171	-0.047
-484.420	71.889	-0.125	-0.129
-483.405	579.622	-0.133	-0.324
-482.391	702.070	0.036	-0.096
-481.376	11.797	-0.217	0.165
-480.362	-35.203	0.498	-0.269
-479.347	-69.961	-0.202	0.076
-478.332	64.149	-0.216	0.216
-477.318	800.000	-0.015	-0.045
-476.303	-200.000	0.031	0.236
-475.289	-93.072	-0.163	0.045
-474.274	-79.654	0.063	0.021
-473.259	4.526	0.250	-0.182
-472.245	34.338	0.242	-0.210
-471.230	191.858	-0.036	-0.053
-470.216	81.001	0.054	-0.058
-469.201	-34.666	0.054	-0.029
-468.186	54.796	-0.102	-0.098
-467.172	699.279	0.056	-0.146
-466.157	800.000	-0.100	0.298
-465.143	-200.000	0.006	0.158
-464.128	-7.303	0.047	0.032
-463.113	-10.793	0.347	-0.228
-462.099	133.560	0.129	0.165
-461.084	-200.000	0.012	-0.348
-460.070	84.939	0.209	0.228
-459.055	34.925	-0.156	0.136
-458.040	-57.535	-0.187	0.081
-457.026	29.191	0.228	0.192
-456.011	-200.000	0.028	-0.170
-454.997	141.303	0.171	-0.225
-453.982	232.173	0.113	-0.184
-452.968	-37.722	-0.105	-0.056
-451.953	-42.208	-0.280	0.142
-450.938	800.000	0.085	0.295
-449.924	-200.000	-0.003	0.070
-448.909	-200.000	-0.481	0.001
-447.895	531.708	0.086	0.202
-446.880	-200.000	-0.072	0.345
-445.865	800.000	-0.081	0.237
-444.851	-108.605	-0.356	0.076
-443.836	800.000	0.116	-0.383
-442.822	-100.569	-0.353	-0.087
-441.807	33.707	0.146	0.126
-440.792	-200.000	0.026	-0.204
-439.778	314.599	0.049	-0.091
-438.763	-200.000	-0.015	0.084
-437.749	-6.562	0.234	0.158
-436.734	62.609	0.018	0.018
-435.719	100.534	0.272	-0.314
-434.705	-55.552	-0.103	-0.046
-433.690	-14.872	0.195	-0.124
-432.676	297.870	0.240	0.437
-431.661	-200.000	0.003	0.119
-430.646	-101.556	0.043	0.010
-429.632	-200.000	0.050	0.337
-428.617	-200.000	-0.009	0.079
-427.603	-41.898	-0.185	-0.094
-426.588	-51.265	0.065	0.030
-425.573	-62.198	0.036	0.015
-424.559	144.014	0.090	-0.119
-423.544	-200.000	-0.015	-0.143
-422.530	-114.043	-0.261	0.050
-421.515	800.000	0.103	0.285
-420.500	7.866	0.211	0.157
-419.486	-102.413	-0.272	-0.065
-418.471	-89.568	0.181	0.053
-417.457	-200.000	-0.009	0.095
-416.442	-200.000	-0.020	-0.222
-415.428	105.221	0.298	-0.349
-414.413	13.036	-0.159	-0.122
-413.398	-140.510	-0.256	0.026
-412.384	-138.462	-0.263	0.029
-411.369	242.185	0.074	0.123
-410.355	-98.939	-0.111	0.028
-409.340	38.480	-0.202	0.179
-408.325	800.000	-0.025	0.075
-407.311	504.943	0.059	0.136
-406.296	29.098	-0.251	-0.211
-405.282	-44.596	0.374	-0.185
-404.267	-200.000	-0.067	-0.461
-403.252	-35.937	0.032	0.017
-402.238	505.677	0.104	-0.239
-401.223	103.751	-0.218	-0.254
-400.209	152.555	-0.045	-0.060
-399.194	287.617	-0.075	0.134
-398.179	46.319	-0.138	0.126
-397.165	-200.000	0.070	-0.341
-396.150	-148.705	-0.082	-0.007
-395.136	99.052	-0.081	-0.092
-394.121	-119.412	0.063	0.011
-393.106	-200.000	-0.002	0.124
-392.092	-158.059	-0.172	0.010
-391.077	-200.000	0.039	0.171
-390.063	-200.000	-0.007	-0.280
-389.048	312.917	-0.063	-0.118
-388.033	-200.000	-0.043	0.313
-387.019	344.402	-0.053	-0.103
-386.004	424.100	-0.144	-0.307
-384.990	-119.696	-0.474	0.081
-383.975	-104.730	-0.430	-0.098
-382.960	800.000	0.044	-0.153
-381.946	-142.989	-0.146	0.014
-380.931	125.960	-0.094	0.117
-379.917	74.773	0.149	-0.155
-378.902	-55.576	-0.288	-0.128
-377.888	800.000	-0.119	-0.377
-376.873	-109.153	-0.233	0.049
-375.858	246.055	0.151	-0.253
-374.844	95.529	0.076	0.085
-373.829	-140.673	0.361	0.037
-372.815	74.422	-0.012	-0.013
-371.800	800.000	0.052	0.165
-370.785	148.992	0.170	0.227
-369.771	800.000	-0.100	0.310
-368.756	757.588	-0.064	-0.171
-367.742	-83.014	0.174	0.055
-366.727	263.699	-0.071	0.122
-365.712	202.386	-0.185	0.283
-364.698	-39.638	-0.145	0.075
-363.683	-43.948	-0.235	0.117
-362.669	-69.026	0.167	-0.064
-361.654	-167.669	0.134	-0.005
-360.639	481.502	-0.017	0.039
-359.625	-52.125	0.115	-0.053
-358.610	333.422	-0.072	-0.138
-357.596	-200.000	-0.016	-0.325
-356.581	321.255	0.082	-0.154
-355.566	800.000	0.044	0.127
-354.552	-21.227	0.306	0.185
-353.537	659.910	0.069	0.175
-352.523	340.490	-0.018	-0.035
-351.508	800.000	-0.027	-0.117
-350.493	-89.592	-0.124	-0.036
-349.479	-200.000	-0.031	-0.195
-348.464	673.090	0.065	-0.167
-347.450	-45.923	-0.032	0.016
-346.435	-135.536	0.220	-0.026
-345.420	49.221	-0.412	-0.383
-344.406	796.118	0.129	-0.351
-343.391	195.183	-0.111	-0.167
-342.377	-137.044	-0.184	-0.021
-341.362	450.293	-0.139	-0.303
-340.348	265.285	0.059	0.101
-339.333	-23.940	0.220	0.130
-338.318	143.343	0.127	0.167
-337.304	-60.539	0.103	-0.043
-336.289	-148.175	-0.333	-0.027
-335.275	-77.181	0.078	0.027
-334.260	681.749	0.052	-0.133
-333.245	-65.785	0.352	0.139
-332.231	-186.791	0.179	0.002
-331.216	-200.000	-0.209	-0.000
-330.202	194.519	0.227	0.340
-329.187	800.000	0.093	0.400
-328.172	350.684	0.077	-0.150
-327.158	408.409	0.138	-0.287
-326.143	121.403	0.242	0.298
-325.129	111.872	0.105	0.126
-324.114	-80.764	0.295	0.097
-323.099	-9.475	-0.222	0.146
-322.085	97.673	0.289	-0.328
-321.070	-104.699	0.078	0.018
-320.056	-121.457	0.232	0.038
-319.041	-200.000	0.049	-0.472
-318.026	48.049	0.082	0.075
-317.012	208.772	-0.207	0.320
-315.997	-87.062	0.126	-0.038
-314.983	-22.440	-0.195	-0.117
-313.968	322.274	-0.058	0.109
-312.953	800.000	0.110	0.377
-311.939	-40.591	-0.028	0.014
-310.924	55.320	0.214	0.204
-309.910	-116.545	-0.511	-0.093
-308.895	-17.016	-0.079	0.049
-307.880	69.477	-0.282	0.286
-306.866	-166.064	-0.167	-0.007
-305.851	-158.253	-0.059	0.003
-304.837	185.599	-0.162	-0.238
-303.822	-40.256	-0.382	-0.196
-302.807	-200.000	0.024	-0.112
-301.793	602.713	0.038	0.094
-300.778	267.558	0.095	-0.165
-299.764	73.585	-0.529	-0.546
-298.749	-117.515	0.299	0.053
-297.735	-125.912	-0.194	-0.029
-296.720	16.397	-0.091	-0.071
-295.705	-7.622	0.210	-0.140
-294.691	-88.147	-0.223	-0.066
-293.676	-141.682	0.268	-0.027
-292.662	119.217	0.048	0.059
-291.647	-25.247	-0.270	0.158
-290.632	746.183	-0.070	-0.186
-289.618	7.540	-0.165	0.122
-288.603	84.622	0.395	0.426
-287.589	64.079	0.271	0.269
-286.574	369.589	0.119	0.238
-285.559	-200.000	-0.008	0.158
-284.545	-94.281	-0.236	0.064
-283.530	65.155	0.148	0.148
-282.516	14.484	-0.049	0.038
-281.501	650.263	0.092	0.231
-280.486	-24.567	0.406	0.238
-279.472	-200.000	-0.016	0.137
-278.457	-200.000	0.009	0.247
-277.443	341.563	-0.149	-0.288
-276.428	292.328	0.129	-0.232
-275.413	800.000	0.067	-0.204
-274.399	124.514	0.090	0.111
-273.384	675.004	0.005	-0.013
-272.370	-94.601	0.223	-0.060
-271.355	-96.329	-0.186	0.049
-270.340	43.568	-0.141	-0.127
-269.326	800.000	0.089	0.245
-268.311	452.737	0.160	0.348
-267.297	52.660	0.199	0.187
-266.282	-100.394	-0.130	0.032
-265.267	-41.948	0.160	0.081
-264.253	-55.195	-0.069	0.031
-263.238	300.785	0.223	-0.406
-262.224	-200.000	0.001	0.019
-261.209	495.944	0.052	-0.117
-260.195	-5.192	-0.108	-0.073
-259.180	8.765	-0.142	-0.105
-258.165	80.043	-0.098	0.104
-257.151	800.000	-0.022	0.071
-256.136	185.449	-0.068	0.099
-255.122	-26.959	-0.172	0.099
-254.107	-40.775	-0.298	-0.152
-253.092	800.000	-0.077	-0.211
-252.078	60.157	0.181	0.176
-251.063	544.415	0.123	-0.290
-250.049	-47.970	0.165	0.079
-249.034	-173.575	0.089	0.003
-248.019	660.584	-0.068	-0.172
-247.005	564.511	0.081	0.194
-245.990	-55.170	0.054	-0.024
-244.976	270.127	0.055	-0.095
-243.961	-176.206	0.554	-0.014
-242.946	274.420	-0.118	-0.206
-241.932	-15.055	-0.163	-0.103
-240.917	26.505	0.138	0.114
-239.903	-107.303	0.023	-0.005
-238.888	-133.851	0.299	0.037
-237.873	471.626	0.046	-0.103
-236.859	239.985	0.091	-0.150
-235.844	-9.272	-0.184	0.121
-234.830	36.060	-0.238	-0.207
-233.815	-40.174	0.347	0.178
-232.800	800.000	0.080	0.341
-231.786	16.981	0.193	0.151
-230.771	122.496	0.175	-0.215
-229.757	284.019	0.097	0.172
-228.742	-160.333	-0.287	0.015
-227.727	224.430	-0.221	0.351
-226.713	800.000	0.057	-0.202
-225.698	192.633	-0.052	0.078
-224.684	-129.704	-0.194	0.026
-223.669	47.588	0.139	0.127
-222.655	-39.417	0.105	0.054
-221.640	279.911	0.102	0.179
-220.625	-127.402	-0.392	-0.056
-219.611	-83.332	0.157	-0.049
-218.596	126.402	0.180	0.224
-217.582	443.219	-0.080	0.172
-216.567	650.334	0.070	0.176
-215.552	221.939	-0.054	0.086
-214.538	-145.555	0.041	-0.004
-213.523	34.958	-0.177	-0.152
-212.509	-126.646	-0.203	-0.030
-211.494	72.300	-0.292	0.299
-210.479	12.930	-0.145	-0.110
-209.465	-9.024	-0.095	0.063
-208.450	-16.622	0.018	-0.011
-207.436	800.000	0.042	0.162
-206.421	-46.273	-0.230	-0.111
-205.406	574.421	-0.027	0.065
-204.392	-200.000	-0.007	0.291
-203.377	-200.000	0.049	0.384
-202.363	-63.203	0.383	0.155
-201.348	-139.797	0.181	-0.019
-200.333	800.000	-0.052	0.208
-199.319	-69.803	-0.177	-0.066
-198.304	7.376	-0.132	0.097
-197.290	-86.666	0.333	-0.100
-196.275	223.053	0.218	-0.346
-195.260	-192.566	0.302	0.003
-194.246	54.702	0.244	-0.231
-193.231	800.000	0.035	-0.106
-192.217	-11.386	0.175	-0.113
-191.202	800.000	0.040	-0.146
-190.187	-200.000	0.034	-0.215
-189.173	-86.210	-0.330	0.100
-188.158	800.000	0.053	0.205
-187.144	-50.461	0.160	0.074
-186.129	-138.602	-0.312	-0.034
-185.114	-200.000	-0.031	0.260
-184.100	243.628	-0.055	0.091
-183.085	-200.000	-0.005	0.384
-182.071	-92.516	0.420	-0.116
-181.056	680.654	0.106	-0.272
-180.042	-153.225	0.207	0.014
-179.027	68.991	-0.181	-0.183
-178.012	-124.772	-0.274	-0.042
-176.998	-86.558	0.316	0.095
-175.983	614.167	-0.116	0.284
-174.969	-13.782	0.128	0.081
-173.954	-161.716	-0.187	-0.009
-172.939	-109.309	0.211	-0.044
-171.925	116.095	-0.245	-0.295
-170.910	-72.675	-0.135	0.049
-169.896	-159.169	0.275	0.015
-168.881	-200.000	0.142	0.642
-167.866	90.199	0.223	0.244
-166.852	-107.621	0.154	-0.033
-165.837	-200.000	-0.012	0.215
-164.823	-136.769	0.189	-0.021
-163.808	-129.708	-0.248	-0.034
-162.793	-81.352	0.091	0.029
-161.779	-81.252	-0.140	0.045
-160.764	-200.000	0.068	0.000
-159.750	-126.095	0.222	-0.033
-158.735	40.775	0.195	0.172
-157.720	-89.994	0.410	0.117
-156.706	291.252	-0.125	-0.223
-155.691	-200.000	-0.062	-0.440
-154.677	-169.914	0.293	0.010
-153.662	-53.726	0.129	0.058
-152.647	-75.207	0.208	-0.073
-151.633	800.000	0.043	-0.136
-150.618	-14.517	0.296	0.187
-149.604	800.000	-0.043	0.117
-148.589	159.106	0.098	0.134
-147.574	41.600	-0.191	-0.169
-146.560	-76.796	-0.262	-0.090
-145.545	722.892	0.046	0.120
-144.531	581.698	0.058	0.140
-143.516	175.843	0.083	0.118
-142.502	374.385	0.078	0.155
-141.487	-168.284	-0.250	0.009
-140.472	80.334	0.152	-0.160
-139.458	5.065	-0.132	0.095
-138.443	800.000	-0.097	0.280
-137.429	-91.759	-0.255	0.071
-136.414	-88.723	0.139	0.041
-135.399	4.803	-0.222	-0.160
-134.385	-157.091	-0.123	0.007
-133.370	725.885	-0.062	0.162
-132.356	58.917	-0.037	-0.035
-131.341	800.000	-0.111	0.458
-130.326	61.537	0.132	-0.128
-129.312	-160.362	-0.136	-0.007
-128.297	2.126	0.261	0.185
-127.283	-13.329	-0.206	-0.131
-126.268	41.168	0.003	-0.002
-125.253	-119.439	0.195	-0.033
-124.239	48.867	-0.297	-0.273
-123.224	-62.421	0.128	0.052
-122.210	141.826	0.245	0.318
-121.195	64.637	-0.039	0.039
-120.180	149.300	-0.211	0.280
-119.166	382.991	-0.097	0.195
-118.151	-132.964	0.326	0.041
-117.137	743.713	0.049	0.130
-116.122	271.965	-0.040	0.070
-115.107	-44.917	-0.102	-0.050
-114.093	339.326	0.128	0.245
-113.078	768.790	0.170	-0.452
-112.064	-36.370	-0.135	0.071
-111.049	-200.000	0.053	0.255
-110.034	26.066	0.048	-0.039
-109.020	197.409	-0.075	-0.113
-108.005	-200.000	0.010	0.067
-106.991	-162.534	0.346	0.017
-105.976	-18.454	-0.077	-0.047
-104.962	-200.000	0.061	-0.286
-103.947	-45.264	0.230	-0.112
-102.932	800.000	-0.020	0.060
-101.918	-200.000	-0.021	0.169
-100.903	-82.786	0.157	-0.050
-99.889	-200.000	0.018	0.198
-98.874	-200.000	-0.012	-0.134
-97.859	-57.542	-0.152	-0.065
-96.845	-152.334	0.402	-0.028
-95.830	800.000	0.086	-0.258
-94.816	-85.095	0.202	0.062
-93.801	110.620	0.195	-0.230
-92.786	556.990	0.007	0.016
-91.772	119.899	-0.149	0.181
-90.757	-200.000	0.046	0.292
-89.743	-200.000	-0.006	0.024
-88.728	328.541	-0.049	0.093
-87.713	72.171	0.124	-0.127
-86.699	-16.575	0.145	-0.090
-85.684	384.251	0.099	-0.199
-84.670	-107.310	-0.150	-0.032
-83.655	-66.170	0.190	0.074
-82.640	-58.745	0.286	-0.121
-81.626	800.000	0.036	0.122
-80.611	-156.341	0.084	0.005
-79.597	-200.000	0.051	-0.236
-78.582	800.000	-0.025	-0.078
-77.567	-200.000	0.014	-0.179
-76.553	-146.767	-0.288	-0.024
-75.538	-23.832	0.061	-0.036
-74.524	-137.824	0.620	-0.068
-73.509	-136.702	-0.409	-0.046
-72.494	153.725	0.179	-0.240
-71.480	68.799	-0.340	0.342
-70.465	25.009	0.098	0.080
-69.451	157.881	0.078	-0.105
-68.436	20.626	-0.180	0.142
-67.422	-200.000	-0.016	-0.086
-66.407	-83.524	0.064	-0.020
-65.392	800.000	-0.060	0.165
-64.378	641.121	0.035	-0.088
-63.363	-200.000	-0.031	-0.322
-62.349	66.276	0.236	0.234
-61.334	81.868	-1.168	-1.237
-60.319	-58.307	0.722	0.307
-59.305	420.011	-0.657	-1.376
-58.290	282.062	0.757	1.327
-57.276	636.066	0.703	1.743
-56.261	-200.000	116.302	648.478
-55.246	513.829	1537.952	3505.724
-54.232	174.279	2720.984	3843.531
-53.217	99.891	2300.530	2604.763
-52.203	35.750	1906.135	1637.277
-51.188	29.657	1697.129	1411.329
-50.173	27.336	1655.088	1358.998
-49.159	48.083	1711.829	1563.730
-48.144	46.709	1725.225	1565.485
-47.130	29.281	1683.095	1396.583
-46.115	26.759	1668.482	1365.436
-45.100	26.624	1663.960	1360.663
-44.086	26.534	1660.864	1357.409
-43.071	26.536	1658.680	1355.585
-42.057	26.492	1656.029	1353.029
-41.042	26.547	1653.809	1351.578
-40.027	26.575	1651.975	1350.234
-39.013	26.421	1650.645	1347.943
-37.998	26.521	1648.658	1347.013
-36.984	26.507	1647.023	1345.516
-35.969	26.616	1645.705	1345.199
-34.954	26.638	1644.603	1344.408
-33.940	26.602	1642.582	1342.432
-32.925	26.591	1641.078	1341.074
-31.911	26.576	1639.170	1339.346
-30.896	26.557	1637.514	1337.804
-29.881	26.618	1636.050	1337.005
-28.867	26.504	1634.775	1335.063
-27.852	26.591	1632.808	1334.045
-26.838	26.652	1631.122	1333.068
-25.823	26.649	1630.258	1332.282
-24.809	26.689	1628.372	1330.985
-23.794	26.617	1627.554	1329.733
-22.779	26.660	1625.857	1328.610
-21.765	26.684	1624.176	1327.360
-20.750	26.544	1622.826	1325.180
-19.736	26.557	1621.390	1324.049
-18.721	26.635	1619.998	1323.435
-17.706	26.665	1618.220	1322.147
-16.692	26.674	1616.415	1320.683
-15.677	26.657	1615.322	1319.611
-14.663	26.731	1613.851	1318.898
-13.648	26.785	1612.401	1318.052
-12.633	26.688	1611.164	1316.282
-11.619	26.611	1609.790	1314.550
-10.604	26.693	1607.964	1313.602
-9.590	26.756	1606.418	1312.744
-8.575	26.727	1605.282	1311.552
-7.560	26.756	1603.681	1310.402
-6.546	26.687	1603.120	1309.397
-5.531	26.644	1602.088	1308.189
-4.517	26.605	1600.963	1306.937
-3.502	26.688	1599.316	1306.142
-2.487	26.756	1598.071	1305.560
-1.473	26.358	1586.404	1293.133
-0.458	23.537	1567.252	1257.499
0.556	21.016	1568.899	1227.703
1.571	18.763	1593.619	1230.803
2.586	18.245	1606.419	1236.836
3.600	16.105	1550.498	1178.733
4.615	9.531	1442.666	1053.771
5.629	4.083	1383.971	976.535
6.644	3.285	1376.440	966.128
7.659	3.206	1375.417	964.830
8.673	3.252	1374.327	964.264
9.688	3.297	1372.368	963.087
10.702	3.273	1369.304	960.700
11.717	5.683	1374.645	979.446
12.731	13.040	1387.600	1034.863
13.746	18.931	1397.653	1079.366
14.761	20.232	1398.459	1088.058
15.775	19.502	1396.685	1082.007
16.790	18.623	1394.316	1074.573
17.804	17.729	1391.859	1066.993
18.819	17.408	1390.300	1063.697
19.834	17.315	1389.338	1062.284
20.848	17.113	1388.290	1060.127
21.863	16.915	1386.903	1057.740
22.877	16.765	1386.099	1056.100
23.892	16.803	1384.927	1055.346
24.907	16.784	1384.070	1054.483
25.921	16.855	1382.892	1053.935
26.936	16.815	1382.505	1053.299
27.950	16.778	1381.388	1052.122
28.965	16.920	1379.984	1051.838
29.980	17.094	1379.039	1052.104
30.994	17.061	1377.948	1050.980
32.009	17.120	1376.798	1050.369
33.023	17.056	1376.102	1049.355
34.038	16.993	1374.254	1047.460
35.053	16.945	1373.066	1046.169
36.067	16.948	1371.810	1045.134
37.082	16.918	1371.209	1044.402
38.096	17.053	1370.338	1044.477
39.111	17.050	1369.113	1043.428
40.126	16.936	1368.360	1042.064
41.140	16.753	1367.149	1039.924
42.155	16.570	1366.778	1038.430
43.169	16.589	1366.499	1038.240
44.184	16.584	1365.788	1037.580
45.199	16.634	1365.667	1037.701
46.213	16.708	1365.269	1037.762
47.228	16.833	1364.375	1037.757
48.242	16.883	1363.375	1037.206
49.257	16.853	1361.627	1035.602
50.271	16.824	1360.432	1034.427
51.286	16.914	1358.878	1033.704
52.301	16.958	1357.359	1032.720
53.315	16.786	1356.635	1031.037
54.330	16.750	1355.190	1029.625
55.344	16.660	1354.397	1028.384
56.359	16.710	1353.283	1027.754
57.374	16.592	1352.578	1026.412
58.388	16.566	1351.598	1025.419
59.403	16.579	1351.159	1025.073
60.417	16.615	1350.123	1024.411
61.432	16.529	1349.167	1023.076
62.447	16.507	1347.885	1021.882
63.461	16.344	1347.258	1020.330
64.476	16.417	1345.936	1019.682
65.490	16.362	1344.718	1018.336
66.505	16.542	1342.830	1017.899
67.520	16.435	1341.873	1016.443
68.534	16.470	1340.638	1015.625
69.549	16.466	1340.170	1015.158
70.563	16.398	1339.079	1013.833
71.578	16.329	1337.752	1012.322
72.593	16.342	1336.677	1011.500
73.607	16.292	1336.420	1010.918
74.622	16.272	1335.641	1010.115
75.636	16.353	1334.929	1009.977
76.651	16.396	1333.692	1009.203
77.666	16.447	1333.533	1009.301
78.680	16.383	1332.987	1008.415
79.695	16.431	1332.665	1008.370
80.709	16.498	1331.819	1008.038
81.724	16.594	1331.269	1008.104
82.739	16.629	1330.587	1007.707
83.753	16.633	1330.046	1007.233
84.768	16.853	1328.370	1007.185
85.782	17.003	1327.215	1007.112
86.797	16.909	1326.322	1005.784
87.812	16.828	1325.029	1004.236
88.826	16.910	1323.737	1003.655
89.841	16.930	1322.510	1002.753
90.855	16.993	1321.560	1002.317
91.870	16.948	1321.401	1001.840
92.884	17.065	1319.983	1001.366
93.899	16.995	1319.349	1000.384
94.914	17.151	1318.532	1000.593
95.928	17.042	1317.782	999.299
96.943	17.025	1316.733	998.312
97.957	17.062	1315.811	997.743
98.972	16.996	1314.715	996.433
99.987	16.949	1314.187	995.669
101.001	16.947	1312.920	994.609
102.016	17.000	1311.994	994.135
103.030	16.991	1311.412	993.549
104.045	16.965	1310.069	992.295
105.060	16.861	1308.370	990.309
106.074	16.664	1307.454	988.380
107.089	16.541	1305.761	986.297
108.103	16.553	1304.304	985.176
109.118	16.516	1302.967	983.863
110.133	16.500	1301.893	982.877
111.147	16.545	1300.356	981.887
112.162	16.598	1298.971	981.063
113.176	16.669	1297.860	980.545
114.191	16.700	1296.964	979.964
115.206	16.692	1295.873	979.007
116.220	16.662	1294.625	977.802
117.235	16.661	1293.592	976.931
118.249	16.554	1292.656	975.518
119.264	16.708	1290.890	974.987
120.279	16.554	1290.337	973.596
121.293	16.472	1289.225	972.201
122.308	16.414	1288.459	971.204
123.322	16.347	1287.217	969.799
124.337	16.347	1286.174	968.928
125.352	16.442	1284.888	968.415
126.366	16.413	1283.743	967.301
127.381	16.369	1282.959	966.374
128.395	16.405	1281.851	965.658
129.410	16.423	1280.994	965.033
130.424	16.523	1280.602	965.224
131.439	16.590	1279.615	964.776
132.454	16.589	1278.857	964.112
133.468	16.680	1277.458	963.488
134.483	16.637	1276.832	962.686
135.497	16.724	1275.495	962.086
136.512	16.670	1274.985	961.312
137.527	16.665	1273.374	959.981
138.541	16.705	1271.894	959.011
139.556	16.789	1270.676	958.481
140.570	16.797	1270.520	958.325
141.585	16.886	1269.109	957.675
142.600	17.002	1267.971	957.392
143.614	16.972	1267.084	956.466
144.629	17.066	1265.818	955.956
145.643	17.070	1264.581	954.961
146.658	16.849	1263.533	952.841
147.673	16.771	1262.282	951.373
148.687	16.723	1260.864	949.950
149.702	16.722	1259.792	949.055
150.716	16.673	1258.175	947.477
151.731	16.700	1257.262	946.860
152.746	16.681	1256.236	945.895
153.760	16.767	1255.123	945.452
154.775	16.894	1253.798	945.081
155.789	16.894	1252.872	944.300
156.804	16.909	1252.013	943.650
157.819	17.050	1250.718	943.375
158.833	17.081	1250.354	943.190
159.848	17.081	1249.244	942.269
160.862	17.101	1248.460	941.705
161.877	17.049	1246.771	940.058
162.892	16.830	1246.087	938.250
163.906	16.718	1245.078	936.787
164.921	16.775	1244.214	936.367
165.935	16.905	1243.396	936.389
166.950	16.943	1242.813	936.074
167.964	16.878	1242.030	935.044
168.979	16.999	1241.124	934.946
169.994	16.928	1240.442	933.960
171.008	16.910	1239.751	933.259
172.023	17.031	1238.610	932.982
173.037	17.199	1238.126	933.459
174.052	17.090	1237.145	932.038
175.067	16.997	1235.911	930.515
176.081	16.803	1234.938	928.639
177.096	16.927	1233.569	928.202
178.110	16.949	1232.629	927.534
179.125	16.958	1231.645	926.761
180.140	16.928	1230.810	925.890
181.154	16.991	1229.656	925.281
182.169	17.075	1228.446	924.743
183.183	17.216	1227.334	924.595
184.198	17.301	1225.637	923.699
185.213	17.248	1224.731	922.644
186.227	17.280	1223.776	922.016
187.242	17.256	1222.690	920.987
188.256	17.458	1221.872	921.385
189.271	17.395	1220.825	920.171
190.286	17.218	1219.955	918.476
191.300	16.960	1218.577	915.963
192.315	16.793	1217.961	914.521
193.329	16.839	1217.253	914.155
194.344	16.907	1216.965	914.225
195.359	17.052	1216.506	914.578
196.373	17.202	1215.916	914.865
197.388	17.265	1215.559	914.853
198.402	17.456	1215.014	915.392
199.417	17.517	1214.248	915.061
200.432	17.560	1213.965	914.997
201.446	17.625	1212.979	914.522
202.461	17.758	1212.083	914.480
203.475	17.644	1211.060	913.014
204.490	17.488	1209.884	911.213
205.504	17.375	1208.283	909.321
206.519	17.483	1206.802	908.705
207.534	17.339	1206.118	907.337
208.548	17.322	1205.259	906.523
209.563	17.380	1204.506	906.187
210.577	17.363	1203.342	905.138
211.592	17.524	1202.658	905.398
212.607	17.623	1201.517	904.986
213.621	17.558	1201.064	904.221
214.636	17.720	1199.592	903.890
215.650	17.597	1199.114	902.801
216.665	17.585	1198.489	902.187
217.680	17.698	1197.605	902.037
218.694	17.733	1196.712	901.469
219.709	17.779	1195.331	900.594
220.723	17.708	1195.058	899.931
221.738	17.623	1194.410	898.915
222.753	17.653	1193.194	898.082
223.767	17.723	1192.548	897.882
224.782	17.870	1192.019	898.178
225.796	17.993	1191.215	898.141
226.811	17.956	1190.747	897.512
227.826	17.760	1190.128	895.937
228.840	17.855	1189.231	895.682
229.855	17.728	1188.409	894.318
230.869	17.709	1187.819	893.693
231.884	17.706	1186.924	892.925
232.899	17.573	1186.219	891.621
233.913	17.624	1185.254	891.082
234.928	17.500	1184.518	889.805
235.942	17.533	1183.792	889.351
236.957	17.528	1182.979	888.639
237.972	17.538	1182.352	888.141
238.986	17.562	1181.955	887.887
240.001	17.535	1181.365	887.226
241.015	17.688	1179.829	886.791
242.030	17.685	1178.996	886.067
243.045	17.688	1178.831	885.881
244.059	17.776	1177.522	885.277
245.074	17.875	1176.772	885.147
246.088	17.943	1175.899	884.764
247.103	17.992	1175.364	884.537
248.117	18.020	1174.765	884.153
249.132	18.244	1174.053	884.698
250.147	18.296	1173.526	884.490
251.161	18.437	1172.708	884.527
252.176	18.359	1172.476	883.867
253.190	18.454	1171.770	883.748
254.205	18.431	1171.466	883.321
255.220	18.430	1170.555	882.552
256.234	18.509	1169.588	882.153
257.249	18.504	1169.451	881.947
258.263	18.468	1168.712	881.122
259.278	18.449	1168.003	880.413
260.293	18.486	1167.453	880.110
261.307	18.610	1166.683	880.087
262.322	18.616	1166.176	879.658
263.336	18.602	1165.235	878.799
264.351	18.578	1165.340	878.677
265.366	18.715	1163.961	878.263
266.380	18.623	1163.290	877.206
267.395	18.645	1162.132	876.370
268.409	18.462	1161.700	875.034
269.424	18.466	1161.203	874.598
270.439	18.540	1160.539	874.398
271.453	18.450	1159.616	873.167
272.468	18.507	1158.694	872.689
273.482	18.447	1157.824	871.650
274.497	18.383	1157.240	870.809
275.512	18.363	1156.848	870.334
276.526	18.409	1156.084	869.914
277.541	18.468	1154.844	869.207
278.555	18.506	1154.544	869.095
279.570	18.720	1153.696	869.465
280.585	18.794	1153.151	869.351
281.599	18.852	1152.254	868.891
282.614	18.662	1151.291	867.128
283.628	18.521	1150.239	865.544
284.643	18.600	1149.267	865.139
285.657	18.553	1148.234	864.048
286.672	18.700	1147.391	864.075
287.687	18.743	1146.124	863.259
288.701	18.668	1146.011	862.722
289.716	18.667	1145.004	861.883
290.730	18.675	1144.253	861.283
291.745	18.632	1143.796	860.646
292.760	18.770	1143.104	860.742
293.774	18.907	1142.528	860.915
294.789	18.814	1142.630	860.450
295.803	18.922	1141.393	859.983
296.818	18.731	1140.554	858.323
297.833	18.805	1139.456	857.787
298.847	18.820	1139.010	857.453
299.862	18.782	1138.236	856.604
300.876	18.803	1137.434	856.029
301.891	18.817	1137.184	855.835
302.906	19.044	1136.461	856.348
303.920	19.038	1135.920	855.831
304.935	19.150	1135.207	855.777
305.949	19.107	1134.775	855.162
306.964	19.119	1133.429	854.131
307.979	19.156	1132.494	853.533
308.993	18.990	1131.975	852.246
310.008	19.070	1131.441	852.164
311.022	19.124	1131.036	852.051
312.037	19.131	1129.556	850.894
313.052	19.016	1128.583	849.517
314.066	19.064	1127.273	848.694
315.081	18.882	1126.928	847.461
316.095	18.776	1126.079	846.226
317.110	18.951	1125.565	846.626
318.125	18.952	1124.502	845.758
319.139	18.883	1123.779	844.798
320.154	18.869	1122.957	844.039
321.168	18.954	1122.244	843.845
322.183	19.008	1121.692	843.618
323.197	18.963	1121.204	842.956
324.212	19.012	1120.631	842.691
325.227	19.045	1120.319	842.543
326.241	19.049	1119.084	841.559
327.256	19.063	1117.987	840.727
328.270	18.934	1117.764	839.858
329.285	19.088	1116.093	839.278
330.300	19.026	1115.711	838.613
331.314	18.984	1114.775	837.631
332.329	19.097	1113.731	837.323
333.343	19.107	1112.902	836.674
334.358	19.240	1112.144	836.674
335.373	19.113	1111.765	835.700
336.387	19.257	1110.631	835.473
337.402	19.110	1110.747	834.773
338.416	19.265	1109.626	834.609
339.431	19.363	1108.678	834.293
340.446	19.498	1108.440	834.697
341.460	19.457	1107.875	834.000
342.475	19.521	1106.910	833.505
343.489	19.658	1106.314	833.647
344.504	19.649	1105.092	832.608
345.519	19.671	1104.395	832.115
346.533	19.837	1103.533	832.192
347.548	19.771	1102.915	831.334
348.562	19.683	1102.040	830.175
349.577	19.702	1101.259	829.608
350.592	19.491	1100.218	827.736
351.606	19.360	1099.459	826.465
352.621	19.394	1098.725	826.003
353.635	19.344	1098.129	825.244
354.650	19.427	1097.383	825.008
355.665	19.552	1096.594	824.936
356.679	19.554	1096.173	824.556
357.694	19.587	1095.573	824.192
358.708	19.628	1094.946	823.842
359.723	19.553	1094.352	822.963
360.738	19.440	1094.052	822.127
361.752	19.594	1093.453	822.335
362.767	19.776	1092.362	822.308
363.781	19.697	1092.076	821.644
364.796	19.724	1091.793	821.490
365.810	19.942	1090.706	821.633
366.825	20.005	1090.388	821.617
367.840	19.919	1090.270	821.047
368.854	20.110	1089.411	821.237
369.869	20.055	1088.610	820.297
370.883	20.049	1087.430	819.308
371.898	20.094	1086.385	818.661
372.913	19.935	1086.011	817.555
373.927	19.991	1085.531	817.386
374.942	20.195	1085.147	817.989
375.956	20.034	1085.019	817.060
376.971	20.138	1083.880	816.619
377.986	20.174	1083.451	816.396
379.000	20.201	1083.177	816.243
380.015	20.250	1082.640	815.995
381.029	20.322	1081.403	815.327
382.044	20.340	1080.883	814.949
383.059	20.299	1080.191	814.162
384.073	20.138	1079.565	812.863
385.088	20.288	1078.480	812.678
386.102	20.312	1077.553	812.017
387.117	20.107	1076.444	810.154
388.132	20.084	1075.698	809.415
389.146	20.142	1074.754	808.901
390.161	19.990	1074.126	807.647
391.175	20.054	1073.442	807.364
392.190	20.155	1072.924	807.370
393.205	20.265	1072.297	807.341
394.219	20.181	1071.036	805.928
395.234	20.213	1070.206	805.382
396.248	20.033	1069.150	803.681
397.263	20.082	1068.343	803.231
398.278	20.045	1067.520	802.368
399.292	20.089	1066.447	801.695
400.307	19.914	1066.403	800.779
401.321	20.014	1065.573	800.549
402.336	20.073	1064.957	800.288
403.350	19.939	1064.408	799.188
404.365	20.039	1063.613	798.982
405.380	20.228	1062.811	799.176
406.394	20.231	1061.949	798.472
407.409	20.301	1061.432	798.334
408.423	20.344	1060.970	798.115
409.438	20.419	1060.241	797.840
410.453	20.534	1059.448	797.700
411.467	20.624	1058.526	797.347
412.482	20.564	1058.080	796.667
413.496	20.636	1057.289	796.330
414.511	20.642	1056.964	796.041
415.526	20.741	1056.775	796.283
416.540	20.725	1056.049	795.591
417.555	20.733	1055.689	795.285
418.569	20.716	1054.948	794.581
419.584	20.731	1053.934	793.816
420.599	20.711	1054.017	793.716
421.613	155.360	1404.503	1797.800
422.628	142.588	1455.541	1797.857
