DTS Sentinel unit serial number:	SN413079Multiplexer serial number:	ORYXHardware model number:	OX4-SRSoftware version number:	ORYX F/W v4.00 Oryx Data Collector v3.7.2.0data status	okinstallation	princeton_trtdifferential loss correction	single-endedforward channel	channel 2reverse channel	N/Adate	2019/09/13time	01:23:34forward acquisition time	60.00reverse acquisition time	0.00gamma	496.2192k internal	0.2334k external	0.2334temperature offset calibration	1.0166default loss term (dB/km)	0.3790temperature slope calibration	1.0000multiplexer offset coefficient	1.0000multiplexer slope coefficient	1.0000fibre end	0.00T internal ref (°C)	27.86T ext. ref 1 (°C)	3.71T ext. ref 2 (°C)	22.46length (m)	temperature (°C)	Stokes	anti-Stokes-747.200	-38.817	0.333	-0.177
-746.185	-200.000	-0.026	0.276
-745.171	366.175	-0.034	-0.069
-744.156	81.325	-0.150	-0.163
-743.142	-134.048	0.274	0.034
-742.127	71.124	-0.239	0.249
-741.112	409.169	-0.054	0.114
-740.098	27.014	0.156	0.132
-739.083	240.334	0.111	-0.186
-738.069	44.687	0.108	0.100
-737.054	-200.000	-0.027	0.156
-736.039	140.894	-0.119	-0.159
-735.025	720.011	0.062	-0.164
-734.010	-59.841	0.254	-0.109
-732.996	-200.000	-0.043	-0.459
-731.981	-141.978	0.009	0.001
-730.966	151.503	-0.015	-0.021
-729.952	-200.000	0.000	-0.182
-728.937	656.733	-0.045	0.116
-727.923	276.659	-0.078	0.139
-726.908	-200.000	0.007	0.064
-725.894	800.000	-0.108	0.469
-724.879	128.382	-0.201	0.257
-723.864	800.000	-0.053	0.163
-722.850	-91.880	-0.314	-0.089
-721.835	-10.977	-0.059	-0.039
-720.821	800.000	-0.029	-0.118
-719.806	142.933	0.079	0.106
-718.791	156.729	-0.076	-0.105
-717.777	-78.345	-0.252	0.087
-716.762	267.221	0.199	0.349
-715.748	135.497	0.097	0.127
-714.733	18.364	0.086	-0.069
-713.718	105.117	0.119	-0.141
-712.704	-185.656	0.084	0.001
-711.689	678.631	-0.054	0.141
-710.675	-200.000	0.041	-0.288
-709.660	-27.772	0.345	-0.201
-708.645	450.488	-0.127	-0.281
-707.631	-200.000	0.029	-0.201
-706.616	800.000	-0.099	-0.423
-705.602	98.718	0.078	0.091
-704.587	205.535	0.054	-0.084
-703.572	-77.494	-0.127	0.044
-702.558	-50.487	-0.269	0.127
-701.543	-200.000	0.025	0.333
-700.529	18.383	-0.162	-0.130
-699.514	85.801	0.047	0.051
-698.499	1.424	-0.229	-0.165
-697.485	-1.447	0.255	0.180
-696.470	136.302	0.090	-0.118
-695.456	540.573	-0.014	0.033
-694.441	800.000	-0.079	-0.294
-693.426	-200.000	-0.009	0.130
-692.412	690.099	-0.066	0.174
-691.397	233.630	0.154	0.255
-690.383	-57.185	-0.112	0.049
-689.368	-34.497	0.190	0.104
-688.354	-55.507	0.101	-0.046
-687.339	77.266	0.186	-0.198
-686.324	36.785	-0.144	0.128
-685.310	264.379	0.160	-0.278
-684.295	-80.885	0.267	-0.089
-683.281	-200.000	0.004	-0.168
-682.266	-149.248	0.051	0.004
-681.251	-54.667	-0.487	0.221
-680.237	-79.724	0.327	0.111
-679.222	-76.221	-0.091	-0.032
-678.208	-128.003	-0.257	0.037
-677.193	-64.976	-0.315	-0.128
-676.178	528.361	-0.128	-0.302
-675.164	24.832	0.121	-0.100
-674.149	-98.444	-0.518	-0.133
-673.135	-177.123	-0.274	0.007
-672.120	-74.956	0.307	0.110
-671.105	57.492	-0.030	0.030
-670.091	455.711	-0.172	-0.383
-669.076	-128.064	0.167	-0.024
-668.062	-200.000	0.020	-0.099
-667.047	-56.691	0.059	-0.026
-666.032	-65.511	-0.139	0.056
-665.018	8.312	-0.255	-0.192
-664.003	-81.117	-0.088	0.029
-662.989	411.297	-0.112	-0.239
-661.974	800.000	-0.098	-0.360
-660.959	3.298	-0.258	0.188
-659.945	800.000	-0.050	0.153
-658.930	-14.431	-0.128	-0.083
-657.916	-65.101	-0.151	0.061
-656.901	190.075	-0.199	-0.299
-655.886	-4.379	0.045	-0.031
-654.872	203.152	0.159	0.247
-653.857	269.026	0.165	-0.290
-652.843	-200.000	-0.021	0.177
-651.828	800.000	-0.051	-0.179
-650.814	-139.273	-0.388	-0.042
-649.799	383.970	0.090	-0.185
-648.784	-108.502	0.104	-0.023
-647.770	-200.000	0.083	-0.378
-646.755	-200.000	-0.002	0.199
-645.741	800.000	0.074	0.285
-644.726	525.517	-0.099	0.232
-643.711	-24.506	-0.252	-0.150
-642.697	9.691	-0.203	0.154
-641.682	187.618	-0.165	-0.247
-640.668	-69.156	0.095	0.037
-639.653	800.000	0.068	0.230
-638.638	-11.955	-0.020	0.013
-637.624	-86.600	0.445	-0.137
-636.609	-66.667	-0.156	-0.062
-635.595	-25.743	-0.205	0.121
-634.580	-85.206	0.303	-0.095
-633.565	-26.597	-0.324	-0.190
-632.551	718.421	0.039	0.105
-631.536	101.180	0.372	0.433
-630.522	127.461	-0.153	-0.194
-629.507	-200.000	0.027	-0.195
-628.492	-200.000	-0.010	0.069
-627.478	241.726	0.311	0.520
-626.463	43.400	0.199	-0.182
-625.449	94.839	0.134	0.152
-624.434	168.952	0.204	0.291
-623.419	-144.213	-0.101	0.009
-622.405	495.274	0.052	0.119
-621.390	560.731	-0.053	0.127
-620.376	-141.044	-0.278	-0.028
-619.361	69.017	-0.331	0.340
-618.346	800.000	-0.039	0.163
-617.332	-38.095	-0.269	0.143
-616.317	800.000	0.104	-0.323
-615.303	199.375	-0.166	0.254
-614.288	-200.000	0.022	-0.275
-613.273	-14.649	0.556	-0.358
-612.259	227.097	-0.052	-0.084
-611.244	658.897	0.066	-0.171
-610.230	-43.138	-0.236	-0.120
-609.215	-4.793	-0.208	0.143
-608.201	-200.000	-0.015	-0.201
-607.186	-115.554	-0.207	-0.039
-606.171	753.069	0.014	-0.037
-605.157	222.484	-0.225	0.362
-604.142	209.975	-0.005	-0.008
-603.128	-91.776	-0.193	0.055
-602.113	-200.000	-0.030	-0.195
-601.098	52.727	0.024	0.023
-600.084	-98.892	-0.289	-0.073
-599.069	-200.000	-0.017	0.161
-598.055	57.110	-0.125	0.122
-597.040	-200.000	0.012	-0.195
-596.025	-124.427	0.182	0.028
-595.011	-89.144	-0.394	0.116
-593.996	37.860	0.148	0.131
-592.982	-85.583	0.110	0.034
-591.967	-200.000	-0.054	0.362
-590.952	85.179	-0.346	0.379
-589.938	-125.410	-0.305	-0.046
-588.923	54.104	-0.109	-0.105
-587.909	-34.097	0.179	-0.098
-586.894	-158.870	-0.246	0.014
-585.879	-104.188	-0.062	-0.015
-584.865	800.000	0.072	-0.224
-583.850	98.943	-0.049	-0.056
-582.836	7.643	-0.223	0.167
-581.821	128.889	-0.097	-0.123
-580.806	393.434	-0.111	-0.231
-579.792	23.314	0.275	0.226
-578.777	-51.794	0.133	0.062
-577.763	457.039	0.060	0.133
-576.748	298.398	-0.101	-0.186
-575.733	-146.306	0.022	-0.002
-574.719	-122.129	0.272	0.045
-573.704	-119.887	0.148	0.025
-572.690	153.246	-0.116	-0.159
-571.675	631.482	-0.201	-0.507
-570.661	133.106	0.236	-0.305
-569.646	542.988	-0.092	-0.220
-568.631	-14.807	0.362	0.232
-567.617	362.236	-0.194	0.388
-566.602	319.823	0.184	-0.349
-565.588	363.415	0.089	-0.178
-564.573	109.988	0.353	0.423
-563.558	276.642	-0.162	-0.287
-562.544	-135.296	0.477	-0.057
-561.529	51.855	-0.152	0.144
-560.515	27.085	-0.308	0.258
-559.500	197.840	0.158	-0.241
-558.485	22.687	-0.239	0.195
-557.471	-134.622	-0.210	0.026
-556.456	295.130	-0.144	-0.263
-555.442	-200.000	0.002	-0.121
-554.427	-74.773	0.500	0.179
-553.412	800.000	-0.069	-0.285
-552.398	224.373	0.091	0.147
-551.383	-200.000	-0.009	0.086
-550.369	-88.995	-0.269	-0.080
-549.354	753.705	0.130	-0.351
-548.339	338.178	-0.105	0.204
-547.325	-200.000	0.026	0.137
-546.310	93.897	0.018	-0.020
-545.296	800.000	-0.036	0.149
-544.281	-200.000	-0.037	-0.252
-543.266	-200.000	0.022	-0.330
-542.252	-61.797	-0.364	-0.152
-541.237	66.414	0.160	0.162
-540.223	-56.351	0.399	-0.177
-539.208	-200.000	0.022	-0.121
-538.193	578.778	-0.144	-0.351
-537.179	-82.381	-0.080	0.026
-536.164	-57.853	0.087	0.038
-535.150	134.543	-0.117	-0.151
-534.135	-133.508	-0.205	-0.026
-533.121	-111.657	-0.178	0.036
-532.106	-200.000	-0.003	-0.046
-531.091	115.202	-0.110	-0.133
-530.077	-200.000	-0.045	0.257
-529.062	10.630	0.256	-0.194
-528.048	14.912	0.050	-0.039
-527.033	800.000	0.088	-0.294
-526.018	-98.205	0.116	-0.030
-525.004	12.757	0.148	-0.114
-523.989	-67.637	-0.341	-0.133
-522.975	316.109	-0.087	0.164
-521.960	-200.000	-0.033	-0.526
-520.945	-200.000	0.017	-0.200
-519.931	-194.345	-0.008	0.000
-518.916	-200.000	0.007	0.101
-517.902	39.351	-0.184	0.164
-516.887	-96.618	-0.185	-0.049
-515.872	-64.514	0.221	0.089
-514.858	-200.000	-0.024	0.159
-513.843	-154.054	-0.126	0.009
-512.829	-83.075	0.363	0.116
-511.814	-83.021	0.351	-0.113
-510.799	-65.823	0.361	0.144
-509.785	800.000	-0.122	-0.438
-508.770	-200.000	0.009	0.230
-507.756	182.618	0.156	-0.229
-506.741	149.855	0.166	-0.225
-505.726	-200.000	-0.008	-0.177
-504.712	-128.924	-0.306	-0.043
-503.697	541.799	0.021	0.051
-502.683	-83.417	-0.048	0.015
-501.668	800.000	0.054	0.151
-500.653	-200.000	-0.045	-0.355
-499.639	227.555	-0.014	0.022
-498.624	43.751	-0.156	0.142
-497.610	-31.440	-0.122	-0.068
-496.595	-5.827	0.123	0.084
-495.581	-186.529	0.099	-0.001
-494.566	128.243	-0.101	0.129
-493.551	311.570	0.052	-0.096
-492.537	-50.655	-0.150	0.070
-491.522	-200.000	-0.003	0.554
-490.508	710.739	0.112	0.294
-489.493	-200.000	0.030	-0.320
-488.478	303.479	-0.131	0.242
-487.464	800.000	-0.042	-0.146
-486.449	-24.187	0.259	-0.154
-485.435	-59.176	0.217	-0.093
-484.420	-38.860	-0.318	0.167
-483.405	-200.000	-0.005	0.420
-482.391	72.197	0.210	-0.217
-481.376	325.891	0.140	0.266
-480.362	800.000	-0.047	0.192
-479.347	132.290	0.144	0.185
-478.332	776.224	0.034	0.093
-477.318	58.268	-0.154	0.150
-476.303	52.569	0.213	-0.202
-475.289	59.481	-0.158	-0.154
-474.274	-120.095	0.205	0.035
-473.259	-119.872	0.124	0.021
-472.245	-200.000	-0.005	0.183
-471.230	-200.000	0.008	-0.120
-470.216	-160.646	-0.177	0.009
-469.201	800.000	-0.102	-0.325
-468.186	-77.229	0.200	-0.069
-467.172	0.639	0.311	0.221
-466.157	689.764	0.060	0.157
-465.143	-200.000	-0.015	-0.343
-464.128	-82.152	0.272	-0.088
-463.113	-100.421	0.202	-0.050
-462.099	-142.107	-0.109	-0.011
-461.084	-73.381	-0.167	-0.061
-460.070	187.477	-0.115	0.171
-459.055	28.646	0.117	-0.099
-458.040	-173.234	-0.087	-0.003
-457.026	-200.000	-0.016	-0.146
-456.011	34.606	0.073	-0.063
-454.997	33.786	-0.266	-0.230
-453.982	20.870	-0.274	0.221
-452.968	77.492	0.071	0.075
-451.953	-200.000	-0.040	-0.259
-450.938	-181.508	0.134	-0.003
-449.924	41.095	0.091	-0.082
-448.909	-13.464	-0.252	0.163
-447.895	128.911	0.243	-0.307
-446.880	-37.396	-0.039	0.021
-445.865	18.532	-0.092	-0.073
-444.851	-124.140	0.333	-0.052
-443.836	697.188	0.068	0.178
-442.822	-200.000	-0.033	0.163
-441.807	-26.885	0.212	-0.123
-440.792	213.629	-0.033	0.052
-439.778	-200.000	0.062	-0.373
-438.763	-56.035	-0.167	-0.074
-437.749	-54.642	0.331	-0.149
-436.734	-56.282	-0.127	-0.056
-435.719	182.945	0.029	0.043
-434.705	127.163	0.138	0.174
-433.690	-40.637	0.147	0.076
-432.676	-114.563	-0.289	0.055
-431.661	-200.000	-0.009	0.255
-430.646	218.159	0.195	0.310
-429.632	-35.803	-0.161	0.086
-428.617	-90.893	0.225	-0.064
-427.603	-200.000	0.002	-0.138
-426.588	-21.653	0.102	-0.062
-425.573	49.574	0.223	-0.208
-424.559	57.059	-0.128	-0.124
-423.544	-47.847	0.298	0.143
-422.530	-51.093	-0.422	-0.197
-421.515	-14.134	0.152	-0.097
-420.500	88.212	0.174	-0.192
-419.486	125.060	0.056	-0.070
-418.471	38.821	0.222	0.197
-417.457	-200.000	0.006	0.080
-416.442	-135.358	0.305	-0.036
-415.428	-135.330	-0.588	0.070
-414.413	800.000	-0.031	-0.085
-413.398	527.944	0.037	-0.087
-412.384	-200.000	-0.052	-0.369
-411.369	75.232	0.098	0.102
-410.355	-75.995	-0.266	0.093
-409.340	-200.000	-0.005	-0.219
-408.325	220.457	-0.144	-0.229
-407.311	56.692	0.179	0.173
-406.296	-109.374	-0.358	-0.075
-405.282	-200.000	0.028	-0.197
-404.267	-48.091	-0.190	-0.091
-403.252	-21.421	-0.038	-0.023
-402.238	23.659	0.143	0.116
-401.223	-200.000	-0.051	0.238
-400.209	-200.000	0.024	0.253
-399.194	-200.000	-0.014	0.121
-398.179	800.000	0.059	0.244
-397.165	-178.309	0.346	0.008
-396.150	526.495	0.075	0.176
-395.136	-200.000	0.015	-0.352
-394.121	800.000	0.094	-0.298
-393.106	-61.444	-0.116	0.048
-392.092	-91.121	0.307	0.087
-391.077	-200.000	0.023	0.426
-390.063	800.000	-0.013	0.052
-389.048	-51.497	0.357	-0.165
-388.033	-83.524	-0.100	0.032
-387.019	15.891	-0.083	0.064
-386.004	247.327	0.160	0.268
-384.990	-200.000	0.020	0.308
-383.975	-200.000	0.022	-0.140
-382.960	101.883	-0.075	-0.087
-381.946	716.567	-0.125	-0.328
-380.931	-101.723	-0.204	0.049
-379.917	370.934	-0.157	0.316
-378.902	241.407	0.129	0.214
-377.888	669.082	0.064	0.164
-376.873	800.000	-0.114	-0.334
-375.858	-200.000	0.063	0.326
-374.844	62.590	-0.146	-0.145
-373.829	145.444	0.137	-0.182
-372.815	161.039	-0.135	0.187
-371.800	-103.640	0.120	-0.028
-370.785	-44.652	0.142	-0.070
-369.771	125.276	-0.037	-0.046
-368.756	-200.000	-0.012	-0.102
-367.742	50.950	-0.118	0.111
-366.727	800.000	0.068	0.226
-365.712	-9.487	-0.100	0.066
-364.698	-135.988	0.070	0.008
-363.683	-55.618	-0.055	0.024
-362.669	800.000	-0.082	0.300
-361.654	-200.000	0.027	0.170
-360.639	-28.587	-0.140	0.080
-359.625	-79.906	0.423	-0.141
-358.610	800.000	-0.080	-0.304
-357.596	-200.000	0.053	-0.344
-356.581	443.592	-0.072	0.157
-355.566	-82.529	0.303	0.097
-354.552	44.311	-0.098	0.089
-353.537	-108.943	0.245	-0.052
-352.523	-108.212	-0.182	-0.039
-351.508	-129.798	-0.067	0.009
-350.493	800.000	-0.119	0.389
-349.479	238.475	0.084	0.138
-348.464	-132.449	0.117	0.015
-347.450	98.638	-0.100	-0.114
-346.435	772.337	0.093	-0.250
-345.420	-140.644	0.174	0.018
-344.406	55.583	-0.031	-0.029
-343.391	-200.000	0.052	0.465
-342.377	-35.073	-0.275	0.148
-341.362	-122.111	0.265	-0.043
-340.348	-37.053	-0.254	0.135
-339.333	295.249	0.108	0.195
-338.318	-200.000	0.024	-0.228
-337.304	-68.988	0.266	0.101
-336.289	-143.227	-0.204	-0.019
-335.275	124.756	-0.048	-0.060
-334.260	93.065	0.084	0.093
-333.245	-115.107	0.102	-0.019
-332.231	329.505	0.029	-0.056
-331.216	-200.000	0.071	-0.403
-330.202	117.291	-0.095	0.116
-329.187	-70.241	0.187	0.070
-328.172	-174.945	0.138	-0.004
-327.158	-33.564	0.214	-0.117
-326.143	-88.327	-0.050	0.015
-325.129	-6.401	0.241	-0.162
-324.114	-66.539	0.285	-0.112
-323.099	800.000	-0.084	0.242
-322.085	-200.000	0.009	-0.297
-321.070	-50.153	-0.182	-0.085
-320.056	4.107	-0.262	0.190
-319.041	-200.000	-0.005	-0.129
-318.026	-6.803	0.213	-0.143
-317.012	-129.133	-0.259	-0.036
-315.997	-134.018	0.101	0.012
-314.983	-200.000	-0.023	-0.306
-313.968	176.557	-0.157	0.226
-312.953	-140.443	0.148	0.015
-311.939	542.620	-0.020	-0.047
-310.924	0.327	0.072	0.051
-309.910	-75.742	-0.431	0.151
-308.895	800.000	0.107	0.354
-307.880	-159.286	-0.025	0.001
-306.866	128.321	-0.204	-0.256
-305.851	124.508	0.053	-0.065
-304.837	-2.418	-0.096	-0.066
-303.822	-178.617	0.295	0.007
-302.807	31.746	-0.189	-0.161
-301.793	508.783	-0.090	0.206
-300.778	-16.982	-0.219	-0.137
-299.764	55.628	0.315	0.302
-298.749	66.624	0.204	0.205
-297.735	368.464	-0.055	-0.111
-296.720	-166.447	-0.084	-0.003
-295.705	3.018	-0.140	-0.101
-294.691	669.872	-0.099	-0.253
-293.676	107.629	0.092	-0.108
-292.662	683.370	0.070	-0.180
-291.647	326.504	0.161	-0.304
-290.632	122.674	-0.135	0.166
-289.618	-33.276	0.107	0.059
-288.603	141.752	0.012	0.016
-287.589	-200.000	-0.010	-0.195
-286.574	309.194	-0.167	0.307
-285.559	-14.146	-0.175	0.111
-284.545	-200.000	-0.032	0.286
-283.530	800.000	-0.006	-0.019
-282.516	-200.000	-0.021	-0.297
-281.501	-125.804	-0.368	-0.055
-280.486	-54.325	0.327	0.147
-279.472	538.811	-0.138	0.324
-278.457	800.000	0.130	0.380
-277.443	-200.000	0.011	0.156
-276.428	102.807	-0.256	-0.296
-275.413	-200.000	0.043	-0.204
-274.399	800.000	-0.111	0.306
-273.384	133.944	-0.231	0.295
-272.370	-98.006	-0.108	-0.028
-271.355	-94.606	0.144	-0.039
-270.340	51.875	0.184	-0.173
-269.326	-200.000	-0.026	0.156
-268.311	-40.125	-0.368	-0.189
-267.297	-160.740	0.425	-0.022
-266.282	-200.000	0.052	0.332
-265.267	-48.445	0.167	0.079
-264.253	-113.948	0.291	-0.056
-263.238	30.129	0.248	0.209
-262.224	-67.082	-0.043	-0.017
-261.209	343.194	0.061	0.119
-260.195	-80.251	0.245	-0.081
-259.180	82.268	0.230	0.246
-258.165	800.000	-0.123	0.461
-257.151	83.539	0.176	-0.189
-256.136	-108.106	-0.212	-0.045
-255.122	-46.729	0.181	-0.088
-254.107	-158.598	-0.307	-0.017
-253.092	37.490	-0.182	0.160
-252.078	-200.000	0.010	-0.072
-251.063	-200.000	0.006	-0.044
-250.049	-200.000	0.004	-0.112
-249.034	191.859	0.190	0.282
-248.019	-105.582	0.163	-0.036
-247.005	204.399	0.104	0.159
-245.990	800.000	-0.042	-0.127
-244.976	21.554	0.095	0.077
-243.961	-7.813	-0.229	-0.153
-242.946	48.297	-0.140	0.129
-241.932	126.386	-0.133	0.166
-240.917	340.586	-0.201	-0.387
-239.903	-158.951	-0.258	-0.014
-238.888	21.352	-0.183	-0.146
-237.873	-42.611	0.049	0.025
-236.859	-169.310	0.114	-0.004
-235.844	139.219	-0.275	-0.356
-234.830	12.290	0.268	-0.204
-233.815	9.886	0.050	-0.038
-232.800	68.435	0.092	-0.093
-231.786	-200.000	0.016	-0.222
-230.771	-89.761	-0.057	0.016
-229.757	98.382	0.179	0.204
-228.742	-87.001	-0.322	-0.097
-227.727	800.000	0.075	-0.313
-226.713	-101.597	-0.127	0.030
-225.698	-135.343	-0.134	0.016
-224.684	-92.902	0.206	-0.057
-223.669	-200.000	-0.034	0.342
-222.655	-200.000	0.009	-0.091
-221.640	-200.000	-0.039	0.169
-220.625	-100.418	0.142	0.035
-219.611	-105.216	-0.025	-0.006
-218.596	300.111	-0.248	0.451
-217.582	-145.297	-0.341	0.030
-216.567	-200.000	-0.012	-0.231
-215.552	-47.688	0.169	-0.081
-214.538	-99.367	-0.057	0.014
-213.523	-200.000	-0.013	0.195
-212.509	271.274	0.122	0.211
-211.494	-25.490	0.059	-0.034
-210.479	-104.808	0.300	0.068
-209.465	6.909	0.213	0.156
-208.450	31.603	0.123	0.104
-207.436	239.241	-0.087	-0.143
-206.421	-200.000	-0.044	0.267
-205.406	-200.000	-0.009	0.105
-204.392	-129.243	-0.123	0.017
-203.377	-12.923	-0.077	0.049
-202.363	343.479	0.109	-0.210
-201.348	78.977	0.303	-0.319
-200.333	-18.633	0.472	0.290
-199.319	27.185	0.174	-0.143
-198.304	800.000	-0.051	-0.178
-197.290	623.772	-0.067	-0.167
-196.275	-200.000	0.010	0.045
-195.260	-200.000	-0.032	0.151
-194.246	677.660	-0.071	-0.181
-193.231	800.000	0.047	-0.182
-192.217	800.000	-0.051	-0.184
-191.202	-27.573	0.200	0.115
-190.187	-33.509	-0.102	0.055
-189.173	146.632	-0.093	-0.123
-188.158	2.880	-0.123	-0.088
-187.144	87.116	0.212	0.231
-186.129	470.212	-0.087	0.192
-185.114	-119.941	-0.232	-0.039
-184.100	-200.000	0.052	-0.307
-183.085	29.762	-0.032	-0.026
-182.071	-200.000	-0.004	-0.198
-181.056	-200.000	-0.027	0.259
-180.042	800.000	0.103	0.305
-179.027	-165.345	-0.036	0.002
-178.012	-167.764	-0.088	0.003
-176.998	-144.132	-0.047	-0.004
-175.983	-19.085	-0.099	0.060
-174.969	800.000	0.039	-0.126
-173.954	586.936	-0.113	-0.274
-172.939	208.496	0.072	0.111
-171.925	-200.000	0.009	0.206
-170.910	-63.478	-0.212	0.086
-169.896	-200.000	0.001	-0.071
-168.881	725.312	-0.011	0.028
-167.866	167.721	-0.181	0.252
-166.852	-200.000	-0.008	-0.083
-165.837	-97.950	-0.349	0.088
-164.823	178.157	0.044	-0.063
-163.808	-139.022	0.082	0.009
-162.793	-44.951	-0.070	0.034
-161.779	-46.070	0.093	-0.045
-160.764	-50.968	-0.048	-0.022
-159.750	1.790	-0.210	-0.149
-158.735	39.947	-0.232	0.204
-157.720	-200.000	0.032	0.143
-156.706	546.617	0.084	-0.197
-155.691	-140.901	-0.320	-0.032
-154.677	210.298	-0.177	0.273
-153.662	-92.895	-0.312	-0.086
-152.647	206.339	-0.047	-0.073
-151.633	800.000	-0.094	-0.350
-150.618	-128.626	0.030	-0.004
-149.604	-119.939	0.279	0.047
-148.589	496.613	-0.165	0.372
-147.574	597.452	0.066	-0.161
-146.560	262.476	-0.162	-0.276
-145.545	94.596	0.073	0.082
-144.531	753.324	0.029	-0.076
-143.516	589.616	-0.134	-0.324
-142.502	-141.093	0.169	-0.017
-141.487	79.018	0.278	-0.292
-140.472	297.445	-0.206	-0.371
-139.458	85.341	-0.341	0.368
-138.443	-120.106	-0.362	-0.061
-137.429	-150.718	0.260	0.019
-136.414	132.382	0.212	-0.268
-135.399	-200.000	0.061	-0.275
-134.385	800.000	0.063	-0.184
-133.370	118.597	-0.193	-0.234
-132.356	80.372	0.156	0.165
-131.341	-200.000	-0.006	0.049
-130.326	628.599	0.077	-0.192
-129.312	158.641	-0.187	-0.255
-128.297	368.644	0.128	0.253
-127.283	0.137	0.117	-0.082
-126.268	-200.000	-0.103	-0.495
-125.253	800.000	-0.064	-0.213
-124.239	624.821	-0.112	0.278
-123.224	6.187	-0.256	-0.186
-122.210	71.225	0.250	0.255
-121.195	-200.000	-0.011	0.054
-120.180	221.028	-0.041	0.065
-119.166	-100.788	0.245	0.059
-118.151	396.477	0.057	0.117
-117.137	-5.380	-0.259	0.174
-116.122	-111.334	-0.331	-0.066
-115.107	125.885	0.210	-0.260
-114.093	-200.000	-0.014	-0.160
-113.078	-197.422	-0.359	-0.002
-112.064	-200.000	-0.023	-0.387
-111.049	220.589	-0.219	0.344
-110.034	-200.000	0.108	0.629
-109.020	800.000	-0.047	0.193
-108.005	-126.118	0.129	-0.019
-106.991	-133.314	0.275	-0.034
-105.976	-18.403	0.196	-0.120
-104.962	-64.910	0.194	0.077
-103.947	420.521	0.098	-0.206
-102.932	800.000	0.081	-0.260
-101.918	451.283	0.091	-0.197
-100.903	-93.865	-0.096	-0.026
-99.889	111.905	0.188	-0.222
-98.874	227.057	0.140	-0.223
-97.859	-200.000	0.004	0.267
-96.845	800.000	-0.044	0.189
-95.830	122.843	0.210	-0.257
-94.816	286.642	0.142	0.251
-93.801	-200.000	0.011	0.370
-92.786	369.604	-0.081	0.160
-91.772	30.230	-0.202	-0.169
-90.757	-46.607	0.182	0.087
-89.743	-81.297	-0.082	-0.026
-88.728	-49.557	-0.262	-0.122
-87.713	-0.002	0.175	-0.122
-86.699	198.185	0.093	0.139
-85.684	81.505	-0.141	0.149
-84.670	-117.784	0.204	0.036
-83.655	47.947	0.170	0.156
-82.640	367.702	-0.049	-0.097
-81.626	651.937	0.121	0.303
-80.611	-43.444	-0.140	-0.069
-79.597	-141.373	-0.063	0.006
-78.582	142.975	0.019	0.025
-77.567	-200.000	-0.004	0.106
-76.553	235.855	0.218	-0.354
-75.538	-150.157	0.227	-0.017
-74.524	-109.948	0.366	-0.075
-73.509	174.697	-0.117	-0.166
-72.494	-126.240	-0.276	-0.040
-71.480	34.934	-0.071	-0.061
-70.465	4.113	0.280	0.201
-69.451	-89.261	-0.269	0.078
-68.436	305.830	0.165	0.300
-67.422	41.930	-0.101	0.090
-66.407	-61.241	0.196	0.081
-65.392	108.393	0.060	0.070
-64.378	-164.427	0.418	-0.019
-63.363	668.394	0.061	-0.155
-62.349	615.607	-0.210	0.516
-61.334	120.179	-0.841	-1.021
-60.319	11.521	0.509	0.382
-59.305	681.262	-0.556	-1.417
-58.290	228.475	0.511	0.814
-57.276	187.762	0.768	1.122
-56.261	-200.000	113.956	649.499
-55.246	540.723	1519.740	3541.562
-54.232	178.080	2692.454	3843.715
-53.217	103.742	2283.173	2623.760
-52.203	37.123	1891.265	1638.135
-51.188	31.154	1680.454	1410.526
-50.173	28.538	1638.307	1355.790
-49.159	50.174	1693.632	1564.588
-48.144	49.241	1707.725	1570.556
-47.130	30.588	1666.033	1393.959
-46.115	28.009	1651.322	1362.403
-45.100	27.769	1646.311	1356.430
-44.086	27.753	1643.312	1353.788
-43.071	27.784	1640.846	1351.934
-42.057	27.672	1638.660	1349.247
-41.042	27.725	1636.586	1347.876
-40.027	27.776	1634.899	1346.813
-39.013	27.622	1632.954	1344.021
-37.998	27.657	1631.287	1342.852
-36.984	27.687	1630.252	1342.166
-35.969	27.773	1628.756	1341.517
-34.954	27.892	1626.130	1340.173
-33.940	27.854	1625.171	1339.051
-32.925	27.837	1623.016	1337.102
-31.911	27.861	1621.241	1335.756
-30.896	27.839	1619.763	1334.325
-29.881	27.845	1618.033	1332.892
-28.867	27.785	1616.426	1331.081
-27.852	27.776	1614.934	1329.730
-26.838	27.797	1613.620	1328.747
-25.823	27.909	1612.339	1328.454
-24.809	27.881	1610.800	1326.931
-23.794	27.893	1609.205	1325.655
-22.779	27.895	1607.666	1324.344
-21.765	27.849	1605.946	1322.546
-20.750	27.825	1604.674	1321.272
-19.736	27.966	1603.364	1321.160
-18.721	27.872	1602.772	1319.938
-17.706	27.937	1600.214	1318.249
-16.692	27.836	1599.414	1316.807
-15.677	27.868	1597.804	1315.660
-14.663	28.019	1596.144	1315.333
-13.648	28.029	1594.374	1313.888
-12.633	27.913	1593.625	1312.386
-11.619	27.866	1591.916	1310.595
-10.604	27.909	1590.569	1309.739
-9.590	27.969	1589.165	1308.962
-8.575	27.918	1588.293	1307.828
-7.560	28.015	1586.460	1306.957
-6.546	27.938	1586.050	1306.016
-5.531	27.940	1584.939	1305.063
-4.517	27.843	1583.747	1303.338
-3.502	27.905	1582.667	1302.843
-2.487	27.951	1581.633	1302.268
-1.473	27.519	1569.113	1288.850
-0.458	24.719	1549.726	1253.284
0.556	22.769	1550.740	1222.021
1.571	20.238	1574.113	1222.522
2.586	19.738	1587.042	1228.898
3.600	17.748	1534.130	1174.136
4.615	10.951	1428.017	1049.120
5.629	4.766	1367.979	966.613
6.644	3.696	1360.194	954.414
7.659	3.692	1359.392	953.742
8.673	3.775	1357.943	953.159
9.688	3.677	1356.501	951.458
10.702	3.637	1353.679	949.147
11.717	6.533	1359.170	970.769
12.731	14.478	1373.297	1030.034
13.746	21.255	1384.434	1080.355
14.761	23.017	1386.542	1092.810
15.775	22.477	1384.725	1087.948
16.790	21.708	1382.121	1081.065
17.804	21.148	1380.069	1075.908
18.819	20.783	1379.635	1073.226
19.834	20.729	1378.561	1071.967
20.848	20.632	1378.292	1071.061
21.863	20.544	1376.840	1069.298
22.877	20.473	1375.721	1067.896
23.892	20.368	1374.384	1066.120
24.907	20.334	1373.871	1065.418
25.921	20.353	1372.407	1064.311
26.936	20.318	1372.042	1063.714
27.950	20.375	1371.155	1063.282
28.965	20.576	1369.983	1063.509
29.980	20.635	1369.158	1063.135
30.994	20.680	1368.365	1062.699
32.009	20.795	1367.226	1062.423
33.023	20.751	1365.992	1061.104
34.038	20.637	1364.794	1059.387
35.053	20.581	1363.205	1057.718
36.067	20.420	1362.691	1056.244
37.082	20.440	1362.120	1055.831
38.096	20.702	1360.685	1056.214
39.111	20.665	1360.079	1055.429
40.126	20.464	1358.899	1053.198
41.140	20.241	1357.484	1050.662
42.155	19.884	1357.422	1048.357
43.169	19.904	1357.034	1048.086
44.184	19.949	1356.643	1047.962
45.199	20.038	1356.431	1048.247
46.213	20.289	1356.509	1049.730
47.228	20.434	1355.445	1049.692
48.242	20.522	1354.211	1049.176
49.257	20.481	1352.767	1047.712
50.271	20.484	1351.594	1046.733
51.286	20.491	1349.999	1045.446
52.301	20.384	1349.040	1043.967
53.315	20.292	1347.573	1042.186
54.330	20.140	1346.426	1040.298
55.344	20.024	1345.393	1038.711
56.359	20.020	1344.241	1037.704
57.374	20.013	1343.353	1036.887
58.388	19.950	1342.610	1035.842
59.403	19.847	1342.352	1034.936
60.417	19.791	1341.111	1033.553
61.432	19.695	1340.486	1032.409
62.447	19.697	1338.938	1031.135
63.461	19.641	1338.116	1030.076
64.476	19.547	1337.245	1028.756
65.490	19.529	1336.308	1027.838
66.505	19.734	1334.421	1027.511
67.520	19.675	1333.512	1026.370
68.534	19.701	1332.381	1025.564
69.549	19.721	1331.027	1024.549
70.563	19.607	1330.289	1023.216
71.578	19.445	1329.207	1021.338
72.593	19.300	1328.560	1019.888
73.607	19.282	1327.730	1019.053
74.622	19.510	1326.773	1019.580
75.636	19.465	1326.287	1018.851
76.651	19.552	1325.459	1018.637
77.666	19.562	1325.726	1018.807
78.680	19.646	1324.882	1018.565
79.695	19.688	1324.235	1018.227
80.709	19.870	1323.831	1018.895
81.724	20.052	1322.829	1019.106
82.739	20.126	1322.152	1018.928
83.753	20.293	1321.966	1019.679
84.768	20.569	1320.934	1020.412
85.782	20.623	1320.282	1020.134
86.797	20.727	1318.652	1019.395
87.812	20.543	1317.843	1017.603
88.826	20.542	1316.616	1016.558
89.841	20.556	1315.789	1015.913
90.855	20.709	1314.388	1015.632
91.870	20.706	1314.219	1015.394
92.884	20.699	1313.371	1014.611
93.899	20.747	1312.446	1014.085
94.914	20.814	1311.553	1013.696
95.928	20.727	1311.194	1012.821
96.943	20.683	1310.314	1011.797
97.957	20.625	1309.221	1010.525
98.972	20.676	1307.921	1009.726
99.987	20.682	1307.132	1009.066
101.001	20.617	1305.995	1007.721
102.016	20.600	1305.285	1006.987
103.030	20.764	1304.348	1007.125
104.045	20.605	1303.442	1005.412
105.060	20.338	1302.554	1003.095
106.074	20.075	1300.689	1000.054
107.089	19.720	1298.767	996.442
108.103	19.665	1297.298	994.909
109.118	19.728	1295.852	994.076
110.133	19.737	1294.931	993.331
111.147	19.670	1293.632	991.866
112.162	19.747	1292.334	991.226
113.176	19.805	1291.756	991.027
114.191	19.891	1290.471	990.446
115.206	19.950	1289.467	989.924
116.220	19.849	1288.586	988.579
117.235	19.845	1287.256	987.453
118.249	19.748	1286.189	985.991
119.264	19.666	1284.774	984.352
120.279	19.576	1283.828	983.027
121.293	19.507	1282.669	981.664
122.308	19.331	1281.624	979.776
123.322	19.339	1280.385	978.789
124.337	19.357	1279.522	978.140
125.352	19.287	1278.538	976.907
126.366	19.292	1277.581	976.115
127.381	19.308	1276.277	975.127
128.395	19.289	1275.216	974.119
129.410	19.225	1274.588	973.191
130.424	19.372	1274.123	973.584
131.439	19.588	1273.449	974.199
132.454	19.767	1272.034	974.041
133.468	19.865	1271.516	974.108
134.483	19.825	1271.133	973.506
135.497	19.786	1270.621	972.805
136.512	19.918	1269.091	972.290
137.527	19.910	1267.673	971.074
138.541	19.932	1266.487	970.204
139.556	20.060	1265.145	969.807
140.570	20.130	1264.727	969.790
141.585	20.371	1263.436	970.061
142.600	20.392	1263.040	969.789
143.614	20.527	1262.095	969.729
144.629	20.679	1261.145	969.763
145.643	20.582	1260.133	968.357
146.658	20.311	1259.080	965.957
147.673	20.088	1257.459	963.388
148.687	19.913	1256.361	961.489
149.702	19.890	1254.300	959.700
150.716	19.795	1253.147	958.204
151.731	19.768	1252.016	957.107
152.746	19.853	1251.251	956.905
153.760	20.069	1249.978	957.041
154.775	20.040	1249.133	956.147
155.789	20.170	1248.345	956.180
156.804	20.255	1247.393	955.833
157.819	20.245	1246.665	955.135
158.833	20.355	1245.740	954.947
159.848	20.633	1245.099	955.897
160.862	20.441	1244.311	954.153
161.877	20.178	1242.252	951.052
162.892	19.765	1240.995	947.740
163.906	19.886	1239.891	947.476
164.921	19.875	1239.282	946.867
165.935	19.975	1238.587	946.800
166.950	19.988	1238.189	946.480
167.964	20.090	1237.301	946.275
168.979	20.005	1236.663	945.240
169.994	19.856	1236.020	943.852
171.008	19.975	1234.755	943.451
172.023	20.135	1234.175	943.797
173.037	20.343	1233.969	944.688
174.052	20.373	1232.650	943.757
175.067	19.912	1231.658	940.412
176.081	19.852	1230.234	938.911
177.096	19.821	1229.254	937.912
178.110	19.856	1228.730	937.622
179.125	19.916	1227.674	937.056
180.140	19.949	1226.724	936.429
181.154	20.327	1225.294	937.295
182.169	20.374	1224.475	936.838
183.183	20.377	1223.209	935.805
184.198	20.448	1222.255	935.372
185.213	20.486	1221.030	934.556
186.227	20.522	1220.365	934.160
187.242	20.570	1219.180	933.428
188.256	20.625	1218.544	933.155
189.271	20.628	1218.072	932.727
190.286	20.533	1216.681	931.068
191.300	19.957	1215.110	926.702
192.315	19.756	1214.660	925.200
193.329	19.883	1213.927	925.243
194.344	19.855	1213.460	924.656
195.359	20.067	1212.169	924.719
196.373	20.010	1212.532	924.607
197.388	20.152	1212.165	925.006
198.402	20.549	1212.342	927.175
199.417	20.780	1211.886	927.979
200.432	20.889	1211.511	928.189
201.446	21.048	1210.304	928.029
202.461	21.142	1209.617	927.918
203.475	20.939	1209.000	926.284
204.490	20.712	1207.039	923.495
205.504	20.410	1205.515	920.650
206.519	20.391	1203.913	919.239
207.534	20.334	1203.083	918.225
208.548	20.282	1202.198	917.196
209.563	20.326	1201.618	916.903
210.577	20.376	1200.662	916.358
211.592	20.467	1200.154	916.366
212.607	20.659	1199.299	916.648
213.621	20.860	1198.461	916.982
214.636	20.554	1198.115	915.026
215.650	20.597	1197.234	914.497
216.665	20.798	1196.175	914.664
217.680	20.962	1196.006	915.313
218.694	21.106	1194.863	915.115
219.709	20.948	1194.032	913.571
220.723	20.879	1193.110	912.421
221.738	20.845	1192.630	911.794
222.753	20.744	1191.638	910.429
223.767	20.824	1191.092	910.349
224.782	21.076	1190.356	911.021
225.796	21.175	1190.052	911.225
226.811	21.002	1189.519	909.837
227.826	20.907	1188.503	908.480
228.840	20.727	1187.495	906.691
229.855	20.667	1187.090	905.989
230.869	20.733	1186.137	905.524
231.884	20.556	1185.231	903.834
232.899	20.499	1184.008	902.524
233.913	20.429	1183.545	901.727
234.928	20.296	1182.439	900.119
235.942	20.289	1181.739	899.469
236.957	20.191	1181.015	898.333
237.972	20.271	1180.124	897.987
238.986	20.296	1179.543	897.592
240.001	20.353	1178.951	897.360
241.015	20.325	1178.247	896.599
242.030	20.454	1177.407	896.549
243.045	20.686	1176.492	896.967
244.059	20.700	1175.622	896.296
245.074	20.761	1175.212	896.220
246.088	20.746	1174.839	895.778
247.103	20.906	1174.030	895.906
248.117	21.050	1173.385	896.074
249.132	21.246	1173.034	896.733
250.147	21.633	1172.442	898.183
251.161	21.895	1171.557	898.768
252.176	21.731	1171.815	898.049
253.190	21.917	1170.856	898.185
254.205	21.990	1170.394	898.126
255.220	21.940	1170.135	897.593
256.234	21.905	1169.378	896.751
257.249	21.933	1168.530	896.164
258.263	21.871	1167.734	895.161
259.278	21.810	1166.867	894.107
260.293	21.822	1166.752	893.999
261.307	21.976	1166.225	894.301
262.322	21.978	1166.042	894.093
263.336	22.047	1165.332	893.818
264.351	21.967	1164.560	892.739
265.366	22.042	1163.640	892.336
266.380	21.904	1163.141	891.173
267.395	21.958	1161.997	890.493
268.409	21.718	1161.343	888.697
269.424	21.654	1160.603	887.729
270.439	21.807	1159.934	887.912
271.453	21.587	1159.251	886.199
272.468	21.407	1157.584	883.936
273.482	21.317	1157.232	883.130
274.497	21.405	1156.373	882.844
275.512	21.443	1155.536	882.318
276.526	21.425	1154.910	881.672
277.541	21.430	1154.184	881.066
278.555	21.602	1153.873	881.615
279.570	21.767	1153.940	882.421
280.585	22.080	1152.961	883.167
281.599	21.970	1151.244	881.223
282.614	21.671	1150.388	878.985
283.628	21.446	1149.526	877.122
284.643	21.476	1148.489	876.406
285.657	21.504	1147.458	875.680
286.672	21.596	1146.247	875.139
287.687	21.677	1145.732	875.071
288.701	21.695	1144.724	874.314
289.716	21.551	1144.325	873.213
290.730	21.629	1143.571	872.951
291.745	21.729	1142.870	872.837
292.760	21.664	1142.736	872.334
293.774	21.824	1142.088	872.558
294.789	22.044	1141.504	873.130
295.803	22.019	1140.930	872.485
296.818	21.714	1139.993	870.181
297.833	21.669	1139.044	869.155
298.847	21.618	1138.126	868.124
299.862	21.676	1137.141	867.584
300.876	21.648	1136.998	867.260
301.891	21.786	1136.377	867.392
302.906	21.969	1135.625	867.648
303.920	22.100	1135.442	868.074
304.935	22.283	1134.801	868.411
305.949	22.298	1134.259	867.993
306.964	22.303	1133.700	867.517
307.979	22.162	1132.584	865.889
308.993	21.979	1132.069	864.519
310.008	22.123	1131.514	864.728
311.022	22.248	1130.353	864.378
312.037	22.179	1129.963	863.662
313.052	21.976	1128.689	861.617
314.066	21.799	1127.564	859.814
315.081	21.572	1126.198	857.586
316.095	21.374	1125.497	856.007
317.110	21.532	1124.782	856.160
318.125	21.461	1123.999	855.138
319.139	21.587	1123.516	855.314
320.154	21.540	1122.474	854.214
321.168	21.529	1121.989	853.714
322.183	21.643	1121.497	853.822
323.197	21.751	1121.056	853.936
324.212	21.721	1120.511	853.300
325.227	21.770	1119.991	853.068
326.241	21.708	1119.460	852.287
327.256	21.727	1118.481	851.556
328.270	21.563	1117.661	850.059
329.285	21.709	1116.237	849.613
330.300	21.726	1115.632	849.157
331.314	21.633	1114.567	847.820
332.329	21.634	1113.967	847.296
333.343	21.686	1113.391	847.035
334.358	21.897	1112.374	847.204
335.373	22.084	1111.952	847.711
336.387	22.030	1111.259	846.848
337.402	22.198	1110.396	846.925
338.416	22.164	1110.264	846.582
339.431	22.303	1109.649	846.709
340.446	22.507	1108.980	847.107
341.460	22.690	1108.413	847.475
342.475	22.739	1107.861	847.213
343.489	22.694	1107.049	846.303
344.504	22.986	1105.472	846.423
345.519	22.883	1104.955	845.455
346.533	23.005	1104.369	845.516
347.548	22.923	1103.759	844.584
348.562	22.839	1102.834	843.401
349.577	22.504	1101.691	840.853
350.592	22.381	1100.329	839.150
351.606	22.095	1099.539	837.113
352.621	22.112	1098.950	836.671
353.635	21.951	1098.236	835.288
354.650	22.017	1097.828	835.216
355.665	22.082	1097.351	835.088
356.679	22.226	1096.492	835.044
357.694	22.380	1095.967	835.301
358.708	22.409	1095.775	835.220
359.723	22.521	1094.977	835.069
360.738	22.385	1094.405	833.913
361.752	22.366	1093.746	833.249
362.767	22.504	1093.180	833.398
363.781	22.395	1092.781	832.501
364.796	22.634	1092.373	833.247
365.810	22.746	1092.137	833.525
366.825	23.025	1091.723	834.450
367.840	23.138	1091.245	834.546
368.854	23.354	1090.436	834.870
369.869	23.158	1089.906	833.469
370.883	22.952	1088.796	831.577
371.898	22.830	1088.065	830.368
372.913	22.701	1087.432	829.205
373.927	22.904	1086.864	829.655
374.942	23.090	1086.158	829.914
375.956	22.985	1085.797	829.072
376.971	22.876	1085.398	828.182
377.986	23.032	1084.673	828.289
379.000	23.278	1083.989	828.844
380.015	23.330	1083.623	828.732
381.029	23.376	1082.918	828.338
382.044	23.237	1082.734	827.475
383.059	23.305	1081.695	826.922
384.073	23.263	1080.996	826.117
385.088	23.293	1079.831	825.298
386.102	23.221	1079.048	824.288
387.117	23.020	1077.438	822.053
388.132	22.791	1076.571	820.255
389.146	22.760	1075.927	819.547
390.161	22.615	1075.204	818.252
391.175	22.751	1074.608	818.356
392.190	22.975	1073.969	818.835
393.205	23.045	1073.735	818.907
394.219	23.137	1072.496	818.315
395.234	22.941	1071.629	816.677
396.248	22.733	1070.531	814.806
397.263	22.939	1069.466	814.872
398.278	22.790	1068.947	813.721
399.292	22.578	1067.589	811.637
400.307	22.430	1067.533	810.841
401.321	22.517	1066.389	810.299
402.336	22.428	1066.057	809.568
403.350	22.422	1065.490	809.040
404.365	22.681	1064.778	809.613
405.380	22.872	1064.155	809.947
406.394	22.868	1063.612	809.444
407.409	23.023	1063.245	809.803
408.423	23.190	1062.527	809.948
409.438	23.341	1061.970	810.143
410.453	23.336	1061.671	809.817
411.467	23.507	1060.714	809.800
412.482	23.464	1060.392	809.286
413.496	23.599	1059.648	809.260
414.511	23.703	1059.069	809.222
415.526	23.867	1058.736	809.641
416.540	23.855	1058.227	809.127
417.555	23.955	1057.785	809.173
418.569	23.626	1056.729	806.796
419.584	23.572	1056.412	806.238
420.599	23.396	1056.113	805.140
421.613	156.635	1403.425	1797.232
422.628	143.898	1454.005	1797.331
