DTS Sentinel unit serial number:	SN413079Multiplexer serial number:	ORYXHardware model number:	OX4-SRSoftware version number:	ORYX F/W v4.00 Oryx Data Collector v3.7.2.0data status	okinstallation	princeton_trtdifferential loss correction	single-endedforward channel	channel 2reverse channel	N/Adate	2019/09/14time	13:35:34forward acquisition time	60.00reverse acquisition time	0.00gamma	496.2192k internal	0.2307k external	0.2307temperature offset calibration	1.0153default loss term (dB/km)	0.3790temperature slope calibration	1.0000multiplexer offset coefficient	1.0000multiplexer slope coefficient	1.0000fibre end	0.00T internal ref (°C)	37.94T ext. ref 1 (°C)	4.92T ext. ref 2 (°C)	32.80length (m)	temperature (°C)	Stokes	anti-Stokes-747.200	-86.070	0.113	0.036
-746.185	643.336	0.081	0.210
-745.171	800.000	-0.035	0.116
-744.156	-34.575	-0.073	0.041
-743.142	78.276	-0.184	0.200
-742.127	327.217	0.043	0.084
-741.112	-126.376	-0.373	0.057
-740.098	-200.000	-0.030	0.289
-739.083	37.557	0.028	-0.026
-738.069	-200.000	0.038	-0.340
-737.054	176.957	-0.165	-0.244
-736.039	-116.905	-0.484	-0.090
-735.025	-123.538	0.295	0.048
-734.010	-200.000	0.019	-0.228
-732.996	-200.000	0.044	-0.380
-731.981	800.000	-0.041	-0.156
-730.966	-62.853	0.573	-0.241
-729.952	800.000	-0.053	-0.157
-728.937	800.000	0.064	0.233
-727.923	-170.222	-0.427	-0.015
-726.908	-85.998	0.285	-0.089
-725.894	-200.000	-0.022	0.116
-724.879	-14.130	0.205	-0.134
-723.864	-55.982	0.139	0.063
-722.850	-74.263	-0.327	-0.120
-721.835	-200.000	-0.020	-0.344
-720.821	161.947	-0.124	-0.177
-719.806	-41.642	-0.275	-0.144
-718.791	203.627	0.099	-0.156
-717.777	3.404	0.171	-0.127
-716.762	-39.962	0.532	-0.282
-715.748	-32.093	-0.365	-0.207
-714.733	398.165	-0.201	-0.426
-713.718	23.537	-0.225	0.188
-712.704	1.954	0.013	0.010
-711.689	360.847	-0.083	-0.168
-710.675	159.479	-0.093	0.132
-709.660	-200.000	-0.048	-0.231
-708.645	208.294	0.105	-0.166
-707.631	253.525	0.084	-0.145
-706.616	-12.147	-0.197	-0.131
-705.602	800.000	0.032	-0.131
-704.587	-59.594	-0.106	0.046
-703.572	-170.184	-0.031	-0.001
-702.558	84.938	0.196	0.219
-701.543	-200.000	-0.015	-0.095
-700.529	-7.949	-0.259	0.177
-699.514	332.176	0.113	0.221
-698.499	216.975	0.137	0.221
-697.485	-79.415	0.172	-0.059
-696.470	-111.086	0.241	-0.050
-695.456	-200.000	0.050	0.268
-694.441	-131.673	-0.389	0.052
-693.426	-200.000	-0.032	0.290
-692.412	-117.210	0.554	-0.102
-691.397	-200.000	0.045	-0.341
-690.383	108.382	-0.043	-0.052
-689.368	-200.000	0.012	-0.187
-688.354	177.411	0.110	0.163
-687.339	274.081	0.078	-0.140
-686.324	745.703	0.018	-0.050
-685.310	-53.765	-0.219	-0.102
-684.295	195.732	-0.133	0.205
-683.281	18.576	0.111	0.090
-682.266	165.289	0.132	-0.189
-681.251	-200.000	0.009	0.067
-680.237	-14.103	-0.306	0.200
-679.222	284.652	-0.070	-0.129
-678.208	-131.491	0.205	0.027
-677.193	131.917	0.051	0.066
-676.178	-72.900	-0.244	-0.091
-675.164	-21.516	-0.206	0.127
-674.149	-72.708	0.414	0.155
-673.135	-99.960	-0.156	0.039
-672.120	-52.496	-0.231	-0.108
-671.105	20.061	0.212	-0.173
-670.091	116.731	-0.074	-0.092
-669.076	-40.101	-0.417	0.221
-668.062	-44.189	-0.127	0.064
-667.047	-200.000	-0.004	0.347
-666.032	-14.220	0.300	-0.196
-665.018	100.565	0.219	-0.258
-664.003	65.304	0.171	-0.175
-662.989	-116.039	0.132	-0.025
-661.974	108.722	0.122	-0.148
-660.959	130.333	0.275	-0.357
-659.945	66.950	0.015	-0.015
-658.930	518.648	-0.100	-0.238
-657.916	-77.713	-0.109	-0.038
-656.901	-200.000	-0.006	0.112
-655.886	-55.069	0.341	-0.156
-654.872	-40.706	-0.324	0.170
-653.857	-64.685	-0.167	-0.069
-652.843	297.496	-0.117	0.217
-651.828	73.506	-0.105	-0.112
-650.814	96.283	-0.095	-0.110
-649.799	368.002	-0.040	-0.082
-648.784	392.044	-0.030	-0.063
-647.770	-99.257	-0.407	-0.104
-646.755	1.590	0.079	0.057
-645.741	-200.000	0.029	-0.337
-644.726	224.418	-0.112	-0.183
-643.711	-66.067	0.091	-0.037
-642.697	-200.000	0.075	-0.427
-641.682	-200.000	0.020	-0.146
-640.668	800.000	-0.110	0.360
-639.653	-200.000	-0.021	0.136
-638.638	-200.000	0.008	0.476
-637.624	-111.687	0.253	-0.052
-636.609	-157.283	0.028	-0.002
-635.595	-145.630	0.120	0.011
-634.580	49.830	0.222	-0.212
-633.565	131.492	0.021	0.028
-632.551	67.427	0.095	0.098
-631.536	216.549	-0.170	-0.274
-630.522	-88.038	-0.152	0.046
-629.507	-114.705	0.310	0.060
-628.492	-155.153	0.061	-0.004
-627.478	-96.328	0.036	-0.010
-626.463	402.451	-0.031	0.066
-625.449	25.303	0.201	0.169
-624.434	-5.058	-0.139	0.097
-623.419	-153.855	-0.175	-0.012
-622.405	-121.534	-0.232	-0.039
-621.390	-200.000	0.011	-0.128
-620.376	-9.083	0.260	-0.176
-619.361	-200.000	0.021	-0.335
-618.346	45.187	-0.252	-0.235
-617.332	-200.000	-0.034	0.232
-616.317	-200.000	0.005	0.260
-615.303	-135.966	-0.103	-0.012
-614.288	-200.000	-0.004	0.305
-613.273	212.777	-0.034	-0.054
-612.259	411.676	0.074	0.158
-611.244	694.223	-0.114	-0.302
-610.230	-94.447	0.262	-0.072
-609.215	360.267	-0.117	-0.237
-608.201	245.224	0.127	-0.217
-607.186	-50.723	0.066	0.031
-606.171	-23.780	-0.194	-0.117
-605.157	-194.363	0.203	0.002
-604.142	-65.002	-0.508	-0.208
-603.128	430.502	0.014	-0.030
-602.113	800.000	-0.056	0.211
-601.098	177.998	-0.141	-0.207
-600.084	194.360	-0.222	0.340
-599.069	800.000	-0.065	0.185
-598.055	40.493	0.111	-0.101
-597.040	-200.000	0.016	-0.189
-596.025	800.000	-0.026	0.083
-595.011	144.917	0.114	0.155
-593.996	47.393	-0.160	0.151
-592.982	-77.399	0.338	0.119
-591.967	5.692	0.165	-0.124
-590.952	-72.102	-0.187	0.070
-589.938	800.000	-0.021	-0.086
-588.923	-103.468	0.279	-0.066
-587.909	-27.780	-0.260	-0.153
-586.894	447.527	0.053	-0.117
-585.879	800.000	0.066	0.212
-584.865	-11.860	-0.372	-0.246
-583.850	-200.000	-0.043	-0.322
-582.836	-105.332	-0.053	-0.012
-581.821	-200.000	-0.002	-0.020
-580.806	-200.000	0.009	0.085
-579.792	-36.727	-0.294	-0.159
-578.777	125.483	0.115	-0.147
-577.763	499.785	0.067	0.157
-576.748	-32.212	0.162	-0.091
-575.733	-43.869	-0.134	0.068
-574.719	176.913	-0.096	0.141
-573.704	800.000	-0.026	0.091
-572.690	80.928	-0.219	0.238
-571.675	-103.862	0.188	0.044
-570.661	-200.000	-0.011	0.202
-569.646	800.000	0.040	-0.120
-568.631	-30.973	0.169	-0.096
-567.617	44.032	0.347	0.321
-566.602	51.043	-0.075	0.072
-565.588	-74.473	-0.207	0.075
-564.573	53.490	-0.044	0.043
-563.558	325.057	-0.219	0.422
-562.544	142.975	-0.149	-0.199
-561.529	-200.000	0.002	-0.134
-560.515	79.577	0.125	0.136
-559.500	68.165	0.194	-0.201
-558.485	-85.104	0.100	0.032
-557.471	124.815	0.187	0.237
-556.456	-200.000	-0.077	0.427
-555.442	-139.002	0.095	-0.010
-554.427	32.475	0.328	-0.286
-553.412	-200.000	0.006	-0.115
-552.398	215.869	-0.130	0.209
-551.383	-134.211	0.053	-0.007
-550.369	-66.140	-0.175	-0.070
-549.354	-101.507	-0.354	-0.087
-548.339	70.866	0.120	0.125
-547.325	197.153	-0.152	0.234
-546.310	31.707	0.114	0.099
-545.296	-98.029	-0.161	0.042
-544.281	-92.275	0.133	-0.038
-543.266	-7.802	0.161	-0.110
-542.252	88.501	0.031	-0.035
-541.237	-9.133	0.297	-0.201
-540.223	56.247	0.085	0.083
-539.208	-86.251	0.221	-0.069
-538.193	800.000	-0.124	-0.406
-537.179	240.183	0.111	-0.186
-536.164	140.016	-0.096	0.127
-535.150	589.943	-0.012	-0.030
-534.135	-200.000	-0.005	-0.109
-533.121	126.876	0.141	0.180
-532.106	-200.000	-0.034	0.232
-531.091	-178.846	0.274	-0.006
-530.077	123.914	-0.190	-0.241
-529.062	-155.513	-0.391	-0.025
-528.048	0.677	0.099	0.072
-527.033	-16.616	0.090	-0.057
-526.018	-77.187	-0.100	-0.035
-525.004	-200.000	-0.014	0.270
-523.989	-45.917	-0.250	0.124
-522.975	240.648	0.044	0.074
-521.960	336.545	-0.104	0.205
-520.945	222.708	0.165	-0.268
-519.931	-93.934	0.273	-0.076
-518.916	-92.735	0.265	0.075
-517.902	-54.870	0.266	0.121
-516.887	65.644	-0.081	-0.082
-515.872	-150.075	0.350	-0.027
-514.858	-104.518	-0.231	0.054
-513.843	-200.000	-0.003	0.034
-512.829	-52.815	-0.109	-0.051
-511.814	-154.690	-0.365	-0.024
-510.799	445.636	0.122	-0.270
-509.785	-15.206	-0.156	0.101
-508.770	124.249	0.139	0.176
-507.756	49.387	0.221	0.209
-506.741	-47.686	0.291	0.142
-505.726	255.183	-0.165	0.285
-504.712	-200.000	-0.024	-0.157
-503.697	91.628	0.171	-0.194
-502.683	800.000	0.075	-0.264
-501.668	-200.000	0.038	-0.229
-500.653	385.528	0.113	0.235
-499.639	-82.266	0.084	-0.028
-498.624	-56.868	-0.147	0.065
-497.610	8.242	0.028	0.021
-496.595	-42.087	0.278	-0.143
-495.581	-200.000	0.012	0.076
-494.566	-37.027	-0.139	0.075
-493.551	248.412	0.141	0.241
-492.537	151.095	0.035	-0.048
-491.522	64.335	-0.101	0.102
-490.508	-94.834	-0.299	0.082
-489.493	763.157	-0.042	-0.115
-488.478	60.674	0.246	0.245
-487.464	-60.377	0.042	0.018
-486.449	279.579	-0.089	-0.160
-485.435	-200.000	-0.027	0.213
-484.420	-200.000	0.001	0.235
-483.405	-200.000	0.008	0.216
-482.391	800.000	0.045	-0.196
-481.376	-200.000	-0.006	-0.075
-480.362	-40.046	-0.074	-0.039
-479.347	-200.000	0.024	0.238
-478.332	0.027	-0.159	0.114
-477.318	-60.809	0.021	0.009
-476.303	175.851	0.041	0.060
-475.289	67.335	0.134	-0.138
-474.274	14.594	-0.023	0.018
-473.259	-154.577	-0.175	0.012
-472.245	800.000	-0.020	0.057
-471.230	42.797	-0.100	0.092
-470.216	0.682	-0.108	0.078
-469.201	105.776	0.055	-0.065
-468.186	-88.186	-0.269	-0.081
-467.172	-47.667	-0.170	0.083
-466.157	-38.270	-0.096	-0.051
-465.143	9.787	0.150	0.114
-464.128	-92.797	-0.132	0.037
-463.113	204.001	0.051	-0.080
-462.099	-157.809	-0.192	-0.011
-461.084	-91.578	0.189	0.054
-460.070	26.747	-0.114	-0.096
-459.055	-148.764	0.238	-0.019
-458.040	-55.974	-0.186	-0.084
-457.026	-155.854	-0.269	0.017
-456.011	-7.349	0.254	-0.173
-454.997	-200.000	0.041	0.197
-453.982	-121.771	-0.296	0.049
-452.968	-177.274	0.180	0.004
-451.953	-3.764	-0.218	0.153
-450.938	74.077	-0.278	0.294
-449.924	268.434	-0.060	-0.105
-448.909	-200.000	-0.010	0.110
-447.895	26.599	0.084	0.070
-446.880	-115.888	0.270	-0.051
-445.865	614.790	0.070	0.177
-444.851	-200.000	-0.032	0.548
-443.836	37.510	-0.063	0.057
-442.822	-101.815	-0.216	-0.052
-441.807	-143.160	0.131	0.013
-440.792	48.769	0.239	0.226
-439.778	-63.261	0.109	0.045
-438.763	-97.458	-0.262	0.069
-437.749	104.040	0.267	-0.316
-436.734	800.000	-0.062	-0.225
-435.719	-74.305	-0.128	-0.047
-434.705	-176.160	-0.117	-0.003
-433.690	120.412	0.215	-0.268
-432.676	-45.215	0.284	0.142
-431.661	-25.804	0.053	0.032
-430.646	-58.176	-0.106	0.046
-429.632	212.366	0.062	-0.099
-428.617	614.212	-0.133	-0.334
-427.603	-23.912	-0.317	0.190
-426.588	-200.000	0.002	0.045
-425.573	115.790	-0.173	0.212
-424.559	55.624	-0.256	-0.249
-423.544	25.770	0.247	0.206
-422.530	237.104	-0.132	0.220
-421.515	-121.256	-0.387	-0.065
-420.500	-71.432	-0.115	0.043
-419.486	-25.965	-0.273	-0.161
-418.471	-47.136	0.211	0.103
-417.457	800.000	0.098	0.394
-416.442	-147.972	-0.215	-0.018
-415.428	-49.149	-0.074	0.035
-414.413	494.201	0.088	0.202
-413.398	-170.815	0.307	-0.011
-412.384	271.269	0.338	0.598
-411.369	-73.484	-0.203	-0.075
-410.355	275.704	0.028	-0.050
-409.340	-1.846	-0.246	0.173
-408.325	62.957	-0.143	0.144
-407.311	216.287	0.177	0.283
-406.296	348.847	-0.069	-0.137
-405.282	800.000	0.024	-0.097
-404.267	-50.239	-0.346	-0.164
-403.252	112.850	-0.181	-0.220
-402.238	712.899	0.097	-0.257
-401.223	33.079	-0.182	-0.158
-400.209	43.223	0.181	0.166
-399.194	98.711	-0.087	-0.101
-398.179	-150.514	0.260	-0.020
-397.165	-159.361	-0.189	-0.011
-396.150	-200.000	-0.050	-0.319
-395.136	-200.000	-0.018	0.227
-394.121	-68.524	0.139	-0.054
-393.106	-200.000	0.051	-0.274
-392.092	-172.426	0.089	0.003
-391.077	-129.762	0.138	-0.019
-390.063	341.295	-0.125	0.245
-389.048	800.000	-0.098	0.394
-388.033	412.984	0.023	-0.050
-387.019	-131.612	-0.183	-0.024
-386.004	-35.594	-0.219	-0.119
-384.990	49.533	0.164	-0.155
-383.975	800.000	0.023	-0.089
-382.960	-122.154	-0.163	-0.027
-381.946	-96.782	0.280	-0.074
-380.931	388.031	0.076	-0.158
-379.917	38.033	0.163	-0.145
-378.902	7.264	-0.172	-0.129
-377.888	800.000	-0.030	0.110
-376.873	494.069	-0.054	-0.124
-375.858	-56.401	-0.380	0.169
-374.844	-21.579	-0.169	0.103
-373.829	-56.898	0.192	0.085
-372.815	-53.358	0.156	-0.072
-371.800	-200.000	0.002	-0.025
-370.785	-200.000	-0.019	0.167
-369.771	-37.253	0.074	0.040
-368.756	-200.000	0.023	-0.351
-367.742	-91.809	-0.171	-0.049
-366.727	192.153	0.230	0.348
-365.712	800.000	0.040	-0.135
-364.698	-61.269	-0.206	0.087
-363.683	-55.737	-0.172	-0.077
-362.669	187.396	-0.096	0.143
-361.654	111.614	-0.217	-0.262
-360.639	280.214	0.127	-0.227
-359.625	267.361	-0.184	0.322
-358.610	-200.000	0.005	-0.033
-357.596	367.106	0.080	0.162
-356.581	-200.000	0.003	0.096
-355.566	11.110	-0.039	-0.030
-354.552	352.931	0.075	-0.150
-353.537	-106.323	0.053	-0.012
-352.523	75.166	-0.195	0.206
-351.508	147.276	0.221	-0.298
-350.493	373.324	-0.328	-0.668
-349.479	-106.819	0.165	-0.037
-348.464	11.582	-0.135	-0.103
-347.450	-58.427	0.249	-0.108
-346.435	-141.625	-0.052	0.005
-345.420	-135.290	0.128	-0.015
-344.406	-200.000	0.065	0.290
-343.391	289.535	0.051	-0.093
-342.377	9.373	-0.216	-0.163
-341.362	-52.910	0.059	0.027
-340.348	27.079	-0.330	-0.277
-339.333	800.000	-0.015	-0.058
-338.318	-73.776	0.278	-0.101
-337.304	-25.599	-0.201	0.119
-336.289	10.216	0.293	0.223
-335.275	19.099	0.120	0.096
-334.260	-178.679	0.171	-0.004
-333.245	143.230	0.256	0.341
-332.231	163.883	0.118	-0.167
-331.216	367.336	0.034	-0.068
-330.202	-169.736	-0.260	-0.009
-329.187	-164.045	0.183	0.008
-328.172	-117.881	0.370	0.066
-327.158	800.000	-0.058	-0.247
-326.143	800.000	-0.119	-0.366
-325.129	-57.603	0.053	-0.023
-324.114	269.680	-0.023	0.041
-323.099	219.072	0.047	0.075
-322.085	-200.000	-0.014	-0.263
-321.070	181.985	-0.244	-0.360
-320.056	-200.000	-0.039	0.275
-319.041	-42.795	0.071	-0.036
-318.026	50.596	0.209	0.198
-317.012	419.719	0.062	0.133
-315.997	-98.240	-0.035	0.009
-314.983	-200.000	-0.064	-0.349
-313.968	-200.000	0.026	-0.164
-312.953	-130.644	-0.132	-0.018
-311.939	-155.099	0.309	0.020
-310.924	-200.000	0.016	-0.134
-309.910	-38.769	-0.301	0.159
-308.895	21.524	-0.058	-0.048
-307.880	-63.924	-0.295	-0.120
-306.866	379.994	-0.049	0.100
-305.851	392.937	-0.060	-0.126
-304.837	-200.000	-0.010	-0.167
-303.822	141.236	0.188	0.248
-302.807	-200.000	-0.012	0.067
-301.793	-86.672	0.381	-0.116
-300.778	800.000	0.056	0.163
-299.764	-35.151	0.120	-0.065
-298.749	246.018	0.068	-0.114
-297.735	430.973	-0.045	0.097
-296.720	-200.000	0.005	0.280
-295.705	-90.485	0.185	-0.053
-294.691	800.000	0.050	-0.172
-293.676	-17.941	-0.123	0.077
-292.662	25.651	-0.131	-0.109
-291.647	62.998	-0.192	0.192
-290.632	800.000	-0.105	-0.443
-289.618	418.294	-0.052	-0.111
-288.603	-42.130	0.053	0.027
-287.589	111.983	-0.185	0.223
-286.574	90.460	-0.076	-0.085
-285.559	130.314	-0.149	-0.190
-284.545	-83.586	-0.305	0.097
-283.530	-118.838	-0.169	-0.030
-282.516	-126.086	-0.127	-0.019
-281.501	8.016	0.150	0.112
-280.486	800.000	0.042	-0.160
-279.472	-109.725	0.270	0.057
-278.457	-200.000	-0.066	-0.406
-277.443	-200.000	-0.036	-0.184
-276.428	-112.562	-0.441	-0.088
-275.413	-48.035	0.231	0.112
-274.399	-200.000	-0.035	0.524
-273.384	12.257	-0.188	0.145
-272.370	-200.000	-0.001	-0.157
-271.355	-114.982	0.138	-0.026
-270.340	73.245	0.215	-0.225
-269.326	-179.543	0.160	0.003
-268.311	-4.573	0.267	-0.184
-267.297	7.871	-0.115	0.086
-266.282	179.309	0.262	0.382
-265.267	-135.220	0.121	-0.014
-264.253	186.951	-0.095	0.141
-263.238	-58.682	0.237	0.103
-262.224	-200.000	0.002	0.056
-261.209	1.632	-0.094	0.068
-260.195	-200.000	0.002	0.117
-259.180	279.980	-0.085	0.151
-258.165	95.738	0.068	0.077
-257.151	-93.282	0.212	-0.059
-256.136	40.789	-0.091	-0.082
-255.122	-89.218	0.274	0.081
-254.107	-200.000	-0.053	0.430
-253.092	114.902	-0.093	-0.113
-252.078	-102.937	-0.203	0.048
-251.063	-200.000	0.048	0.223
-250.049	-200.000	0.010	0.068
-249.034	58.210	0.171	-0.167
-248.019	-25.807	0.111	-0.066
-247.005	11.268	0.029	-0.022
-245.990	-55.022	-0.360	-0.162
-244.976	63.726	0.125	0.125
-243.961	267.680	-0.160	0.280
-242.946	-106.904	-0.217	0.048
-241.932	-200.000	0.017	-0.117
-240.917	-136.159	-0.106	0.012
-239.903	-17.121	-0.164	0.103
-238.888	28.334	0.185	-0.156
-237.873	-35.939	-0.093	-0.050
-236.859	-9.127	0.233	0.155
-235.844	-180.887	0.300	-0.006
-234.830	-183.845	-0.216	0.004
-233.815	520.722	-0.076	0.177
-232.800	-142.536	-0.291	0.028
-231.786	787.222	-0.105	-0.288
-230.771	28.692	0.208	-0.175
-229.757	800.000	0.079	-0.316
-228.742	426.045	-0.020	0.042
-227.727	-150.500	0.285	-0.022
-226.713	310.710	0.109	0.203
-225.698	-163.911	0.133	-0.006
-224.684	-47.857	-0.082	-0.040
-223.669	-200.000	0.090	-0.455
-222.655	448.384	0.187	0.410
-221.640	-200.000	0.060	0.300
-220.625	321.164	0.097	-0.183
-219.611	106.752	0.050	0.059
-218.596	-54.015	0.107	-0.049
-217.582	782.542	-0.084	-0.229
-216.567	387.034	0.089	-0.183
-215.552	-135.283	-0.138	-0.016
-214.538	121.150	-0.195	-0.242
-213.523	131.346	-0.083	-0.106
-212.509	22.634	-0.123	-0.101
-211.494	-31.566	-0.402	0.225
-210.479	130.728	0.148	-0.189
-209.465	87.443	-0.134	-0.148
-208.450	-200.000	0.024	0.123
-207.436	13.441	-0.056	-0.043
-206.421	331.010	0.047	0.090
-205.406	-47.531	0.224	-0.108
-204.392	-56.711	0.325	0.143
-203.377	370.338	0.042	0.085
-202.363	-2.475	0.083	0.058
-201.348	800.000	0.014	0.039
-200.333	-193.840	0.082	0.001
-199.319	113.950	0.085	0.103
-198.304	-200.000	-0.043	0.316
-197.290	240.868	-0.136	0.227
-196.275	-200.000	-0.047	-0.240
-195.260	-82.217	-0.120	0.039
-194.246	-161.295	-0.374	-0.019
-193.231	156.476	-0.077	0.106
-192.217	-181.520	0.211	0.004
-191.202	-14.893	0.420	0.268
-190.187	251.830	0.158	0.268
-189.173	293.866	-0.101	0.183
-188.158	-85.129	0.201	-0.062
-187.144	-102.746	0.364	0.086
-186.129	-101.281	0.157	0.038
-185.114	-178.337	-0.063	-0.001
-184.100	-160.129	0.103	-0.006
-183.085	-134.581	0.093	-0.011
-182.071	-165.235	-0.400	-0.018
-181.056	169.727	0.211	-0.301
-180.042	11.035	0.076	-0.058
-179.027	-26.202	-0.033	0.019
-178.012	82.065	0.272	0.294
-176.998	47.081	-0.264	-0.245
-175.983	371.574	-0.177	-0.358
-174.969	73.984	0.059	-0.061
-173.954	800.000	0.058	0.189
-172.939	241.870	0.121	-0.201
-171.925	-152.538	0.165	-0.012
-170.910	256.320	0.099	-0.169
-169.896	260.314	-0.015	-0.025
-168.881	-77.660	-0.377	0.130
-167.866	9.452	0.099	0.075
-166.852	-82.708	-0.141	-0.046
-165.837	-49.895	0.241	-0.114
-164.823	525.924	0.029	-0.067
-163.808	-17.796	0.189	-0.118
-162.793	-66.361	-0.145	-0.057
-161.779	-57.741	0.090	0.039
-160.764	7.190	0.066	-0.049
-159.750	-151.696	-0.578	0.042
-158.735	-103.549	-0.200	0.047
-157.720	-200.000	0.079	-0.401
-156.706	800.000	0.049	0.149
-155.691	586.877	0.176	-0.430
-154.677	-132.256	0.173	-0.022
-153.662	13.636	-0.106	0.082
-152.647	-200.000	0.005	0.084
-151.633	62.775	-0.014	-0.014
-150.618	-200.000	-0.008	-0.093
-149.604	-200.000	-0.031	0.250
-148.589	-164.456	0.160	-0.007
-147.574	-108.848	-0.248	-0.053
-146.560	498.922	-0.060	-0.138
-145.545	79.410	0.130	-0.138
-144.531	528.162	0.138	-0.324
-143.516	217.443	-0.036	-0.058
-142.502	147.257	-0.113	-0.151
-141.487	121.730	0.108	-0.134
-140.472	-20.621	0.347	-0.212
-139.458	13.502	-0.377	0.291
-138.443	161.824	0.203	0.283
-137.429	800.000	0.055	0.179
-136.414	-10.845	-0.112	-0.073
-135.399	689.450	0.090	0.234
-134.385	-51.071	0.078	-0.036
-133.370	89.854	-0.058	0.064
-132.356	135.085	0.247	0.319
-131.341	-154.250	-0.264	-0.018
-130.326	-81.258	0.186	0.061
-129.312	6.125	0.397	0.293
-128.297	800.000	0.071	0.226
-127.283	357.186	0.114	0.225
-126.268	207.595	0.198	0.307
-125.253	800.000	-0.039	-0.145
-124.239	-65.122	-0.564	-0.226
-123.224	77.181	-0.042	-0.044
-122.210	-75.801	-0.133	-0.047
-121.195	-24.842	-0.193	-0.114
-120.180	69.324	0.088	0.090
-119.166	178.747	0.262	-0.380
-118.151	800.000	0.038	0.108
-117.137	316.806	0.165	0.309
-116.122	66.565	-0.271	0.273
-115.107	-119.393	0.287	-0.049
-114.093	170.558	0.095	-0.135
-113.078	313.189	-0.091	0.169
-112.064	-200.000	-0.021	-0.199
-111.049	210.645	-0.207	-0.322
-110.034	-200.000	-0.004	0.020
-109.020	-108.483	-0.261	-0.056
-108.005	-140.388	0.511	-0.053
-106.991	473.033	0.043	0.096
-105.976	-151.852	-0.034	-0.002
-104.962	-145.312	-0.141	-0.013
-103.947	522.254	-0.113	-0.263
-102.932	-56.219	-0.193	0.085
-101.918	251.944	0.230	0.388
-100.903	35.228	0.187	-0.163
-99.889	800.000	0.105	-0.329
-98.874	-91.444	-0.130	0.037
-97.859	-200.000	-0.065	-0.306
-96.845	-92.683	-0.114	-0.032
-95.830	15.283	0.152	-0.118
-94.816	206.160	-0.119	-0.183
-93.801	-173.191	-0.157	0.005
-92.786	293.418	0.148	0.268
-91.772	-39.419	-0.057	-0.029
-90.757	223.299	0.085	-0.136
-89.743	187.967	-0.162	-0.240
-88.728	-169.599	-0.048	0.002
-87.713	-61.107	-0.058	0.024
-86.699	-32.329	-0.251	0.139
-85.684	-200.000	-0.023	0.185
-84.670	58.876	-0.090	-0.088
-83.655	111.293	-0.069	-0.082
-82.640	794.932	-0.044	-0.120
-81.626	-95.405	-0.247	0.066
-80.611	51.025	-0.102	0.095
-79.597	-57.878	0.163	-0.071
-78.582	-92.237	-0.364	0.102
-77.567	-55.211	0.301	-0.134
-76.553	283.750	-0.020	0.035
-75.538	800.000	0.060	-0.182
-74.524	6.596	-0.171	0.126
-73.509	-200.000	0.060	-0.528
-72.494	-22.770	-0.201	0.120
-71.480	-59.428	0.304	0.129
-70.465	141.628	0.115	0.151
-69.451	800.000	0.120	-0.422
-68.436	-200.000	0.029	-0.347
-67.422	-200.000	-0.016	-0.151
-66.407	-161.779	0.128	0.006
-65.392	88.405	0.048	-0.053
-64.378	32.021	0.166	-0.142
-63.363	6.959	-0.443	-0.327
-62.349	-164.286	-0.321	0.015
-61.334	124.608	-0.404	-0.503
-60.319	103.361	0.370	0.429
-59.305	800.000	-0.263	-0.816
-58.290	367.434	0.475	0.950
-57.276	800.000	0.375	1.496
-56.261	-200.000	86.381	497.388
-55.246	525.083	1395.490	3251.225
-54.232	182.200	2621.913	3824.944
-53.217	113.459	2356.721	2832.355
-52.203	46.799	1966.225	1808.500
-51.188	41.060	1753.137	1567.403
-50.173	38.303	1707.755	1505.573
-49.159	52.996	1749.804	1657.377
-48.144	56.778	1768.483	1704.468
-47.130	41.090	1727.940	1544.864
-46.115	37.957	1713.283	1507.537
-45.100	37.888	1708.383	1502.632
-44.086	37.845	1705.753	1499.927
-43.071	37.855	1702.806	1497.355
-42.057	37.717	1700.851	1494.516
-41.042	37.809	1698.341	1492.958
-40.027	37.800	1697.097	1491.739
-39.013	37.886	1694.563	1490.104
-37.998	37.804	1692.694	1487.779
-36.984	37.816	1691.760	1486.987
-35.969	37.924	1690.277	1486.449
-34.954	37.997	1688.389	1485.283
-33.940	37.840	1686.953	1482.773
-32.925	37.914	1685.200	1481.730
-31.911	37.880	1683.438	1479.863
-30.896	37.932	1681.188	1478.221
-29.881	37.987	1679.693	1477.265
-28.867	37.928	1678.506	1475.722
-27.852	37.935	1676.864	1474.266
-26.838	37.959	1675.423	1473.122
-25.823	37.903	1674.236	1471.600
-24.809	37.982	1672.211	1470.361
-23.794	37.959	1670.898	1468.969
-22.779	37.956	1669.445	1467.610
-21.765	37.970	1667.479	1465.935
-20.750	37.977	1665.805	1464.457
-19.736	37.987	1664.409	1463.245
-18.721	38.011	1663.198	1462.301
-17.706	37.983	1661.427	1460.478
-16.692	37.868	1660.841	1459.046
-15.677	37.954	1659.232	1458.213
-14.663	38.031	1657.242	1456.980
-13.648	38.026	1656.268	1456.029
-12.633	37.953	1654.937	1454.255
-11.619	38.040	1652.785	1452.959
-10.604	38.078	1651.017	1451.629
-9.590	37.932	1650.540	1450.063
-8.575	37.999	1649.215	1449.343
-7.560	37.940	1647.689	1447.509
-6.546	37.865	1646.790	1446.099
-5.531	37.908	1645.519	1445.245
-4.517	37.959	1644.044	1444.276
-3.502	37.965	1643.158	1443.483
-2.487	37.973	1641.354	1441.902
-1.473	37.763	1629.688	1430.052
-0.458	34.762	1608.565	1389.675
0.556	32.111	1607.055	1350.405
1.571	29.132	1630.396	1348.127
2.586	27.987	1643.832	1350.661
3.600	24.277	1587.738	1277.913
4.615	14.528	1472.431	1119.860
5.629	6.362	1404.186	1015.386
6.644	5.083	1394.540	1000.122
7.659	4.916	1393.191	998.001
8.673	4.795	1392.468	996.616
9.688	4.887	1390.844	995.953
10.702	4.861	1388.432	993.977
11.717	8.301	1394.682	1020.378
12.731	16.890	1411.749	1088.126
13.746	21.974	1418.528	1125.961
14.761	21.175	1415.488	1118.327
15.775	20.072	1413.306	1109.450
16.790	19.069	1409.731	1100.132
17.804	18.256	1407.249	1092.910
18.819	17.768	1406.534	1089.142
19.834	17.556	1405.425	1086.834
20.848	17.304	1404.032	1084.052
21.863	17.158	1402.765	1082.050
22.877	17.082	1401.102	1080.190
23.892	16.945	1400.321	1078.618
24.907	16.954	1399.672	1078.084
25.921	16.884	1399.138	1077.128
26.936	16.942	1398.122	1076.622
27.950	17.070	1396.824	1076.339
28.965	17.103	1396.145	1075.928
29.980	17.230	1395.156	1075.873
30.994	17.196	1393.821	1074.537
32.009	17.371	1392.668	1074.658
33.023	17.322	1391.211	1073.131
34.038	17.223	1390.248	1071.665
35.053	17.150	1388.502	1069.768
36.067	17.105	1387.772	1068.824
37.082	17.120	1386.612	1067.933
38.096	17.137	1385.882	1067.382
39.111	17.242	1385.273	1067.478
40.126	17.139	1384.182	1065.894
41.140	16.946	1382.929	1063.625
42.155	16.898	1381.980	1062.499
43.169	16.747	1382.561	1061.906
44.184	16.860	1381.646	1061.818
45.199	16.848	1381.622	1061.629
46.213	16.966	1380.569	1061.469
47.228	17.128	1380.262	1062.153
48.242	17.034	1379.072	1060.555
49.257	17.092	1377.379	1059.517
50.271	17.105	1375.841	1058.327
51.286	17.107	1374.214	1056.992
52.301	17.049	1372.965	1055.578
53.315	16.927	1372.233	1054.165
54.330	16.875	1370.900	1052.721
55.344	16.887	1369.563	1051.678
56.359	16.963	1368.592	1051.308
57.374	16.846	1367.665	1049.776
58.388	16.748	1367.211	1048.733
59.403	16.828	1366.553	1048.630
60.417	16.852	1365.793	1048.100
61.432	16.735	1365.092	1046.745
62.447	16.731	1363.580	1045.467
63.461	16.754	1362.026	1044.328
64.476	16.681	1361.330	1043.254
65.490	16.570	1359.868	1041.358
66.505	16.687	1358.129	1040.653
67.520	16.676	1357.196	1039.777
68.534	16.642	1356.478	1038.927
69.549	16.709	1355.117	1038.202
70.563	16.638	1354.051	1036.862
71.578	16.507	1353.448	1035.503
72.593	16.565	1351.771	1034.484
73.607	16.437	1351.511	1033.411
74.622	16.511	1350.383	1032.909
75.636	16.594	1349.460	1032.617
76.651	16.677	1348.831	1032.550
77.666	16.567	1348.495	1031.533
78.680	16.734	1347.804	1031.927
79.695	16.656	1347.085	1030.811
80.709	16.652	1346.900	1030.554
81.724	16.787	1345.436	1030.167
82.739	16.811	1345.046	1029.924
83.753	16.949	1344.291	1030.090
84.768	17.096	1343.194	1030.054
85.782	17.120	1342.291	1029.412
86.797	17.171	1340.706	1028.416
87.812	17.052	1339.507	1026.683
88.826	17.141	1337.896	1025.899
89.841	17.033	1337.239	1024.652
90.855	17.217	1335.825	1024.585
91.870	17.185	1335.250	1023.862
92.884	17.157	1334.305	1022.878
93.899	17.193	1333.375	1022.290
94.914	17.256	1332.745	1022.093
95.928	17.263	1331.862	1021.368
96.943	17.129	1331.055	1019.858
97.957	17.102	1330.124	1018.892
98.972	17.294	1328.725	1018.881
99.987	17.223	1327.787	1017.645
101.001	17.144	1326.562	1016.142
102.016	17.126	1325.825	1015.380
103.030	17.177	1325.128	1015.061
104.045	17.046	1324.147	1013.441
105.060	17.064	1322.515	1012.206
106.074	16.896	1321.132	1010.056
107.089	16.791	1319.989	1008.471
108.103	16.735	1318.702	1007.063
109.118	16.711	1317.555	1005.955
110.133	16.779	1315.770	1004.910
111.147	16.767	1314.406	1003.705
112.162	16.828	1313.433	1003.234
113.176	16.901	1312.180	1002.625
114.191	16.938	1310.959	1001.818
115.206	16.948	1309.866	1000.957
116.220	16.868	1308.845	999.616
117.235	16.805	1307.862	998.406
118.249	16.794	1306.872	997.495
119.264	16.718	1306.175	996.425
120.279	16.831	1304.589	995.796
121.293	16.790	1303.820	994.879
122.308	16.733	1302.469	993.422
123.322	16.644	1301.482	992.061
124.337	16.573	1300.758	991.009
125.352	16.657	1299.210	990.231
126.366	16.674	1298.271	989.529
127.381	16.661	1297.253	988.585
128.395	16.743	1296.236	988.202
129.410	16.651	1295.886	987.313
130.424	16.806	1294.637	987.178
131.439	16.839	1294.024	986.815
132.454	16.813	1293.210	985.954
133.468	16.988	1291.860	985.856
134.483	16.870	1291.791	985.027
135.497	16.878	1290.969	984.360
136.512	17.002	1289.138	983.596
137.527	16.948	1287.867	982.226
138.541	17.030	1286.017	981.202
139.556	17.010	1285.054	980.269
140.570	16.962	1284.429	979.426
141.585	17.222	1282.706	979.523
142.600	17.196	1281.792	978.588
143.614	17.196	1281.018	977.916
144.629	17.211	1279.981	977.121
145.643	17.236	1278.677	976.182
146.658	17.021	1277.417	973.902
147.673	17.012	1275.877	972.587
148.687	17.076	1274.393	971.738
149.702	16.888	1273.108	969.598
150.716	16.833	1272.155	968.470
151.731	16.873	1270.617	967.447
152.746	17.021	1269.539	967.378
153.760	17.002	1268.622	966.490
154.775	17.040	1267.424	965.708
155.789	17.134	1266.442	965.408
156.804	17.231	1264.854	964.660
157.819	17.148	1264.387	963.751
158.833	17.314	1263.277	963.757
159.848	17.304	1262.320	962.890
160.862	17.284	1261.342	961.945
161.877	17.124	1259.882	959.841
162.892	17.025	1258.869	958.424
163.906	17.153	1257.536	958.048
164.921	17.028	1256.945	956.806
165.935	17.046	1256.448	956.443
166.950	17.136	1255.812	956.384
167.964	17.082	1255.076	955.433
168.979	17.065	1254.151	954.549
169.994	17.116	1253.439	954.210
171.008	17.137	1252.608	953.610
172.023	17.281	1251.803	953.719
173.037	17.403	1250.779	953.543
174.052	17.208	1250.441	952.107
175.067	17.203	1248.687	950.658
176.081	17.094	1248.232	949.619
177.096	17.058	1247.097	948.472
178.110	17.099	1246.111	947.868
179.125	17.137	1244.734	946.944
180.140	17.151	1243.666	946.129
181.154	17.338	1241.979	945.801
182.169	17.431	1240.616	945.199
183.183	17.388	1239.482	944.010
184.198	17.411	1238.738	943.485
185.213	17.438	1237.247	942.416
186.227	17.428	1236.628	941.807
187.242	17.391	1235.855	940.929
188.256	17.457	1234.563	940.228
189.271	17.543	1233.329	939.678
190.286	17.403	1232.608	938.277
191.300	17.132	1231.538	935.884
192.315	17.090	1230.567	934.832
193.329	17.114	1230.233	934.630
194.344	17.107	1229.533	933.975
195.359	17.242	1228.882	934.141
196.373	17.368	1228.470	934.435
197.388	17.395	1227.825	934.012
198.402	17.542	1227.367	934.388
199.417	17.646	1226.920	934.536
200.432	17.767	1225.561	934.079
201.446	17.751	1225.472	933.841
202.461	17.774	1224.195	932.911
203.475	17.821	1223.316	932.416
204.490	17.601	1222.145	930.238
205.504	17.666	1220.532	929.283
206.519	17.465	1219.575	927.379
207.534	17.615	1217.791	926.757
208.548	17.559	1217.299	925.995
209.563	17.595	1216.258	925.318
210.577	17.619	1215.204	924.565
211.592	17.660	1214.540	924.199
212.607	17.713	1214.267	924.196
213.621	17.859	1212.835	923.814
214.636	17.712	1212.105	922.382
215.650	17.711	1211.475	921.815
216.665	17.802	1210.363	921.379
217.680	17.911	1209.601	921.306
218.694	18.044	1208.571	921.158
219.709	17.929	1207.941	919.977
220.723	17.945	1206.947	919.221
221.738	17.923	1206.321	918.549
222.753	17.860	1205.622	917.596
223.767	17.852	1204.839	916.876
224.782	17.965	1204.262	916.964
225.796	17.930	1204.300	916.719
226.811	17.983	1202.944	915.893
227.826	17.973	1201.969	915.016
228.840	17.843	1201.602	913.959
229.855	17.844	1200.892	913.341
230.869	17.943	1199.535	912.760
231.884	17.858	1198.770	911.641
232.899	17.845	1197.981	910.894
233.913	17.830	1197.488	910.358
234.928	17.859	1196.858	909.954
235.942	17.754	1195.859	908.554
236.957	17.872	1194.848	908.329
237.972	17.817	1194.232	907.490
238.986	17.778	1193.402	906.571
240.001	17.851	1192.741	906.375
241.015	17.907	1191.751	905.845
242.030	17.926	1190.983	905.280
243.045	18.063	1190.198	905.326
244.059	18.049	1189.542	904.674
245.074	17.993	1189.167	904.012
246.088	18.056	1188.427	903.705
247.103	18.203	1187.369	903.598
248.117	18.026	1187.422	902.620
249.132	18.282	1186.434	903.143
250.147	18.451	1185.277	903.071
251.161	18.519	1184.847	903.025
252.176	18.579	1183.772	902.440
253.190	18.512	1183.378	901.708
254.205	18.522	1182.938	901.344
255.220	18.669	1182.493	901.696
256.234	18.660	1181.784	901.031
257.249	18.693	1180.850	900.411
258.263	18.615	1180.262	899.472
259.278	18.549	1179.695	898.615
260.293	18.615	1179.311	898.592
261.307	18.701	1178.355	898.231
262.322	18.725	1177.842	897.888
263.336	18.700	1177.124	897.127
264.351	18.738	1176.849	897.039
265.366	18.786	1176.057	896.606
266.380	18.812	1174.753	895.670
267.395	18.785	1174.165	895.003
268.409	18.657	1173.629	893.847
269.424	18.830	1172.528	893.831
270.439	18.726	1171.981	892.790
271.453	18.776	1171.146	892.334
272.468	18.604	1170.197	890.644
273.482	18.479	1169.931	889.712
274.497	18.637	1169.230	889.918
275.512	18.642	1168.601	889.387
276.526	18.783	1167.207	888.976
277.541	18.672	1166.679	887.922
278.555	18.785	1165.958	887.880
279.570	18.708	1165.855	887.324
280.585	18.763	1165.282	887.092
281.599	18.915	1163.769	886.650
282.614	18.807	1162.588	885.113
283.628	18.785	1161.546	884.130
284.643	18.828	1160.754	883.666
285.657	18.794	1159.876	882.746
286.672	18.802	1159.127	882.140
287.687	18.836	1157.926	881.324
288.701	18.827	1157.328	880.741
289.716	18.949	1156.285	880.494
290.730	18.952	1156.059	880.263
291.745	18.925	1155.172	879.369
292.760	19.051	1154.240	879.226
293.774	19.066	1153.648	878.774
294.789	19.063	1153.494	878.563
295.803	19.089	1152.793	878.084
296.818	18.946	1152.107	876.755
297.833	18.943	1151.306	876.052
298.847	18.992	1150.259	875.428
299.862	19.008	1149.445	874.815
300.876	19.036	1148.815	874.399
301.891	19.160	1148.098	874.403
302.906	19.188	1147.422	873.957
303.920	19.234	1146.902	873.716
304.935	19.253	1145.986	873.035
305.949	19.300	1145.801	873.058
306.964	19.315	1144.881	872.354
307.979	19.247	1143.912	871.193
308.993	19.364	1143.508	871.402
310.008	19.366	1142.446	870.525
311.022	19.381	1141.471	869.782
312.037	19.407	1140.615	869.184
313.052	19.249	1139.823	867.704
314.066	19.218	1138.746	866.654
315.081	19.033	1138.295	865.301
316.095	19.128	1137.324	864.965
317.110	19.045	1136.710	864.006
318.125	19.122	1136.026	863.795
319.139	19.163	1134.914	863.079
320.154	19.142	1134.429	862.529
321.168	19.136	1133.825	861.962
322.183	19.242	1132.959	861.759
323.197	19.300	1132.485	861.611
324.212	19.280	1132.156	861.184
325.227	19.207	1131.420	860.182
326.241	19.229	1131.308	860.135
327.256	19.277	1129.862	859.195
328.270	19.235	1129.085	858.321
329.285	19.215	1127.745	857.129
330.300	19.203	1127.013	856.437
331.314	19.350	1126.063	856.368
332.329	19.224	1125.295	855.081
333.343	19.342	1124.394	854.908
334.358	19.456	1123.425	854.659
335.373	19.437	1122.815	854.024
336.387	19.477	1122.018	853.543
337.402	19.535	1121.070	853.032
338.416	19.475	1120.573	852.282
339.431	19.508	1120.559	852.357
340.446	19.699	1119.451	852.381
341.460	19.631	1119.421	851.946
342.475	19.722	1118.393	851.541
343.489	19.778	1117.311	850.914
344.504	19.845	1116.061	850.217
345.519	19.900	1115.676	850.118
346.533	19.895	1114.636	849.226
347.548	19.882	1113.538	848.253
348.562	19.887	1113.073	847.847
349.577	19.756	1112.485	846.682
350.592	19.640	1111.671	845.420
351.606	19.682	1110.571	844.717
352.621	19.653	1109.936	844.017
353.635	19.715	1108.786	843.370
354.650	19.604	1108.565	842.587
355.665	19.677	1107.956	842.404
356.679	19.639	1107.325	841.665
357.694	19.777	1106.599	841.708
358.708	19.912	1106.061	841.880
359.723	19.873	1105.516	841.201
360.738	19.858	1104.638	840.387
361.752	19.845	1104.408	840.075
362.767	19.911	1103.524	839.651
363.781	19.989	1102.774	839.379
364.796	20.012	1102.588	839.277
365.810	20.139	1102.271	839.576
366.825	20.105	1101.526	838.772
367.840	20.183	1100.924	838.616
368.854	20.273	1099.888	838.186
369.869	20.262	1099.378	837.671
370.883	20.213	1098.196	836.458
371.898	20.056	1098.250	835.668
372.913	20.116	1097.516	835.326
373.927	20.254	1096.626	835.238
374.942	20.277	1095.889	834.712
375.956	20.300	1095.315	834.316
376.971	20.165	1094.957	833.317
377.986	20.250	1094.487	833.296
379.000	20.266	1093.950	832.891
380.015	20.533	1092.965	833.347
381.029	20.403	1092.473	832.277
382.044	20.405	1092.283	832.067
383.059	20.430	1091.297	831.361
384.073	20.400	1090.352	830.423
385.088	20.487	1089.353	830.003
386.102	20.409	1088.426	828.853
387.117	20.489	1087.076	828.134
388.132	20.330	1086.130	826.583
389.146	20.290	1085.617	825.927
390.161	20.338	1084.561	825.279
391.175	20.397	1083.951	825.022
392.190	20.408	1083.586	824.725
393.205	20.517	1082.575	824.400
394.219	20.531	1081.673	823.708
395.234	20.431	1081.121	822.737
396.248	20.459	1079.914	821.882
397.263	20.322	1078.947	820.425
398.278	20.157	1078.526	819.250
399.292	20.346	1077.446	819.249
400.307	20.287	1076.757	818.378
401.321	20.332	1075.952	817.904
402.336	20.232	1075.649	817.130
403.350	20.327	1074.753	816.823
404.365	20.343	1074.276	816.463
405.380	20.409	1073.581	816.176
406.394	20.350	1072.943	815.341
407.409	20.494	1071.883	815.136
408.423	20.559	1071.441	815.037
409.438	20.686	1070.681	814.981
410.453	20.790	1069.904	814.803
411.467	20.738	1069.222	813.968
412.482	20.788	1068.670	813.708
413.496	20.977	1067.764	813.830
414.511	20.924	1067.070	812.982
415.526	20.946	1066.902	812.885
416.540	21.051	1066.397	812.916
417.555	21.042	1066.160	812.624
418.569	20.934	1065.503	811.548
419.584	20.858	1065.346	811.002
420.599	20.915	1064.644	810.661
421.613	148.954	1399.350	1777.547
422.628	137.059	1448.108	1777.677
