DTS Sentinel unit serial number:	SN413079Multiplexer serial number:	ORYXHardware model number:	OX4-SRSoftware version number:	ORYX F/W v4.00 Oryx Data Collector v3.7.2.0data status	okinstallation	princeton_trtdifferential loss correction	single-endedforward channel	channel 2reverse channel	N/Adate	2019/09/12time	13:05:11forward acquisition time	60.00reverse acquisition time	0.00gamma	496.2192k internal	0.2296k external	0.2296temperature offset calibration	1.0077default loss term (dB/km)	0.3790temperature slope calibration	1.0000multiplexer offset coefficient	1.0000multiplexer slope coefficient	1.0000fibre end	0.00T internal ref (°C)	41.00T ext. ref 1 (°C)	2.08T ext. ref 2 (°C)	36.43length (m)	temperature (°C)	Stokes	anti-Stokes-747.200	-144.912	-0.397	-0.037
-746.185	-200.000	-0.025	0.303
-745.171	-6.948	-0.244	-0.169
-744.156	-200.000	-0.000	0.061
-743.142	64.455	-0.155	-0.160
-742.127	-200.000	0.099	0.618
-741.112	-97.931	0.222	-0.059
-740.098	148.369	-0.041	0.056
-739.083	-132.819	-0.243	0.032
-738.069	800.000	0.033	0.135
-737.054	-21.357	-0.368	-0.229
-736.039	-82.247	-0.346	0.115
-735.025	117.345	0.133	0.166
-734.010	200.584	0.107	-0.168
-732.996	-1.727	0.225	-0.162
-731.981	79.897	0.093	-0.102
-730.966	-128.621	-0.265	-0.038
-729.952	-200.000	-0.018	-0.086
-728.937	316.310	-0.114	-0.219
-727.923	-36.669	0.126	-0.069
-726.908	-0.923	-0.145	-0.105
-725.894	-200.000	-0.008	-0.464
-724.879	138.444	-0.173	-0.232
-723.864	-47.706	-0.100	0.049
-722.850	322.228	0.154	-0.299
-721.835	-200.000	-0.035	-0.167
-720.821	-49.690	0.246	0.119
-719.806	-16.777	-0.371	-0.240
-718.791	-48.095	-0.125	-0.062
-717.777	-76.360	-0.389	0.140
-716.762	178.635	0.072	-0.108
-715.748	77.059	-0.198	-0.215
-714.733	415.512	0.091	-0.198
-713.718	-174.641	-0.095	-0.003
-712.704	-200.000	0.042	-0.226
-711.689	663.724	0.038	-0.099
-710.675	15.190	0.034	0.027
-709.660	-111.981	0.215	0.044
-708.645	-57.927	-0.217	-0.097
-707.631	-47.000	-0.346	0.172
-706.616	-34.561	-0.133	0.074
-705.602	-200.000	0.004	0.041
-704.587	-50.325	0.177	-0.085
-703.572	80.562	-0.125	0.137
-702.558	40.047	-0.111	0.102
-701.543	-66.690	-0.380	0.154
-700.529	-200.000	0.015	-0.081
-699.514	492.917	0.059	-0.137
-698.499	-200.000	-0.003	-0.293
-697.485	-93.598	-0.221	0.062
-696.470	-106.184	-0.107	0.025
-695.456	0.970	-0.171	0.125
-694.441	-138.227	-0.314	-0.035
-693.426	-39.625	0.096	-0.051
-692.412	142.796	0.088	-0.120
-691.397	-141.262	0.225	0.023
-690.383	112.239	0.148	-0.183
-689.368	22.793	-0.206	0.172
-688.354	-200.000	-0.007	-0.157
-687.339	28.163	0.127	-0.109
-686.324	4.476	-0.114	0.085
-685.310	-123.516	-0.099	-0.016
-684.295	-200.000	-0.012	-0.120
-683.281	23.555	-0.303	0.254
-682.266	-200.000	0.004	0.106
-681.251	800.000	-0.107	0.363
-680.237	13.471	0.039	0.031
-679.222	-20.213	0.180	0.113
-678.208	-93.045	0.345	-0.098
-677.193	-200.000	-0.001	0.024
-676.178	-200.000	-0.008	0.220
-675.164	62.924	-0.075	0.077
-674.149	-200.000	0.017	0.113
-673.135	800.000	-0.008	-0.031
-672.120	293.530	-0.138	-0.256
-671.105	-173.785	0.145	-0.004
-670.091	209.779	-0.142	0.226
-669.076	46.004	0.021	-0.020
-668.062	-200.000	-0.057	0.253
-667.047	-200.000	0.000	0.010
-666.032	22.688	-0.297	-0.248
-665.018	673.927	-0.069	0.183
-664.003	135.406	-0.106	-0.141
-662.989	377.727	-0.154	0.320
-661.974	-120.620	0.147	0.025
-660.959	-112.983	-0.357	0.072
-659.945	87.580	-0.082	-0.093
-658.930	-36.243	-0.074	-0.040
-657.916	12.217	-0.097	-0.076
-656.901	201.166	0.151	0.237
-655.886	-4.519	-0.382	0.269
-654.872	-200.000	-0.009	0.206
-653.857	370.586	0.200	-0.413
-652.843	-55.930	0.400	0.182
-651.828	-123.477	0.099	0.016
-650.814	-114.028	-0.135	0.027
-649.799	800.000	-0.075	0.243
-648.784	-25.238	-0.082	-0.050
-647.770	-124.602	-0.404	-0.064
-646.755	800.000	-0.027	-0.095
-645.741	-96.614	0.251	0.067
-644.726	-200.000	-0.026	0.332
-643.711	172.547	0.172	0.252
-642.697	114.880	0.078	0.097
-641.682	201.214	-0.105	0.165
-640.668	-200.000	-0.030	-0.277
-639.653	713.432	-0.094	-0.253
-638.638	522.147	-0.108	0.258
-637.624	-91.081	-0.249	-0.073
-636.609	146.136	0.092	-0.125
-635.595	-69.517	-0.349	-0.136
-634.580	507.311	0.047	0.112
-633.565	-103.869	-0.257	0.061
-632.551	-200.000	-0.292	-0.001
-631.536	587.121	-0.083	-0.209
-630.522	21.503	-0.252	-0.209
-629.507	-200.000	0.038	-0.182
-628.492	800.000	0.085	0.244
-627.478	-76.368	-0.119	0.043
-626.463	32.747	-0.144	-0.127
-625.449	-37.344	-0.066	-0.036
-624.434	-89.973	-0.422	-0.125
-623.419	-200.000	-0.063	-0.373
-622.405	-200.000	0.034	-0.269
-621.390	35.160	-0.089	0.079
-620.376	-102.293	-0.335	-0.082
-619.361	800.000	-0.042	0.183
-618.346	207.599	-0.131	-0.208
-617.332	25.023	0.196	-0.166
-616.317	-200.000	0.041	0.252
-615.303	707.187	0.067	-0.180
-614.288	-141.832	0.250	-0.025
-613.273	800.000	-0.053	-0.156
-612.259	-200.000	-0.022	-0.099
-611.244	504.237	-0.091	-0.214
-610.230	51.538	-0.173	-0.167
-609.215	-200.000	0.042	-0.402
-608.201	-28.962	0.119	0.070
-607.186	343.357	-0.053	-0.105
-606.171	-44.976	-0.217	0.110
-605.157	800.000	0.084	-0.317
-604.142	-184.764	-0.451	0.007
-603.128	800.000	0.066	0.196
-602.113	497.653	-0.104	0.244
-601.098	-200.000	-0.019	0.102
-600.084	800.000	0.027	-0.096
-599.069	-200.000	0.008	-0.282
-598.055	679.461	0.048	-0.126
-597.040	350.834	-0.060	-0.120
-596.025	51.021	0.072	-0.069
-595.011	-81.562	0.107	0.036
-593.996	97.555	-0.083	0.097
-592.982	-200.000	0.011	0.162
-591.967	-62.725	-0.239	-0.101
-590.952	348.462	0.083	-0.166
-589.938	-115.335	-0.239	0.046
-588.923	-74.086	0.291	0.107
-587.909	-90.829	-0.197	0.058
-586.894	-200.000	0.043	-0.192
-585.879	-103.978	0.239	0.057
-584.865	-112.313	-0.168	-0.034
-583.850	284.911	0.096	-0.176
-582.836	310.733	-0.105	0.199
-581.821	-60.578	-0.068	0.029
-580.806	62.069	0.129	-0.130
-579.792	-200.000	0.055	0.250
-578.777	648.065	-0.062	-0.161
-577.763	6.741	0.124	-0.093
-576.748	-58.376	0.111	-0.049
-575.733	-153.047	-0.138	0.010
-574.719	-92.830	-0.145	-0.041
-573.704	49.679	0.281	0.269
-572.690	-200.000	-0.022	-0.225
-571.675	251.187	-0.102	-0.177
-570.661	228.343	0.026	0.042
-569.646	-72.710	0.322	-0.120
-568.631	-159.613	-0.339	0.019
-567.617	289.700	-0.050	0.092
-566.602	215.383	-0.123	-0.199
-565.588	-138.407	0.144	-0.016
-564.573	-133.894	0.206	-0.026
-563.558	800.000	0.121	-0.356
-562.544	28.688	0.371	0.319
-561.529	-200.000	-0.156	0.001
-560.515	-172.987	-0.131	-0.004
-559.500	-200.000	0.031	0.207
-558.485	-200.000	0.086	-0.404
-557.471	800.000	-0.112	-0.334
-556.456	800.000	-0.068	-0.207
-555.442	-200.000	0.030	-0.367
-554.427	155.851	-0.078	0.109
-553.412	-49.037	-0.107	-0.052
-552.398	-30.784	0.107	-0.062
-551.383	13.890	0.029	-0.023
-550.369	-179.881	0.209	-0.005
-549.354	357.574	0.105	0.213
-548.339	800.000	0.123	-0.367
-547.325	321.330	-0.087	0.168
-546.310	-54.219	-0.144	-0.066
-545.296	-30.772	0.111	0.064
-544.281	-120.860	-0.388	0.066
-543.266	-33.434	-0.167	-0.094
-542.252	145.267	-0.095	0.128
-541.237	489.845	-0.079	0.184
-540.223	-109.858	0.077	0.016
-539.208	-200.000	0.004	0.041
-538.193	-200.000	-0.005	-0.159
-537.179	-81.968	-0.106	-0.035
-536.164	-28.983	-0.145	-0.084
-535.150	350.837	-0.098	-0.197
-534.135	15.650	-0.287	0.228
-533.121	-134.919	0.268	-0.033
-532.106	126.115	-0.180	-0.231
-531.091	-97.154	-0.137	-0.036
-530.077	129.537	-0.017	0.022
-529.062	207.226	0.151	0.239
-528.048	-71.741	-0.061	0.023
-527.033	2.851	-0.082	0.060
-526.018	90.972	-0.049	0.055
-525.004	243.771	0.118	0.200
-523.989	800.000	0.042	0.142
-522.975	6.507	0.212	-0.160
-521.960	-200.000	-0.030	-0.138
-520.945	-200.000	-0.073	0.000
-519.931	61.830	-0.063	-0.063
-518.916	-66.813	0.194	0.078
-517.902	568.888	0.098	0.242
-516.887	-53.645	-0.289	0.134
-515.872	-21.689	-0.450	0.278
-514.858	-200.000	0.031	0.146
-513.843	800.000	0.054	-0.164
-512.829	-200.000	0.029	-0.199
-511.814	-146.387	0.289	0.026
-510.799	536.730	-0.072	0.172
-509.785	800.000	-0.035	0.126
-508.770	314.256	0.060	0.114
-507.756	800.000	0.124	0.377
-506.741	800.000	-0.068	-0.268
-505.726	223.263	-0.087	0.141
-504.712	-103.215	0.250	-0.060
-503.697	-4.670	0.031	-0.021
-502.683	-125.648	0.268	-0.041
-501.668	800.000	-0.012	0.053
-500.653	-121.934	-0.060	0.010
-499.639	-200.000	-0.024	-0.229
-498.624	84.295	-0.090	-0.099
-497.610	-54.040	0.169	0.078
-496.595	-40.388	-0.244	-0.128
-495.581	188.202	-0.052	-0.078
-494.566	62.026	0.220	0.222
-493.551	163.949	-0.064	0.091
-492.537	729.414	-0.112	-0.303
-491.522	-200.000	0.052	0.369
-490.508	183.847	-0.097	-0.145
-489.493	49.404	0.146	0.139
-488.478	19.363	-0.226	0.184
-487.464	800.000	0.018	0.066
-486.449	119.256	0.068	0.085
-485.435	-200.000	-0.004	-0.172
-484.420	-77.746	-0.090	0.032
-483.405	88.277	0.187	-0.210
-482.391	67.617	0.224	0.232
-481.376	-200.000	-0.053	0.236
-480.362	-99.724	-0.242	0.061
-479.347	-200.000	-0.003	0.110
-478.332	-127.541	0.027	-0.004
-477.318	393.849	-0.122	0.257
-476.303	-60.985	0.052	0.022
-475.289	331.240	0.155	-0.302
-474.274	-142.161	-0.121	-0.012
-473.259	-110.025	-0.200	0.042
-472.245	-11.971	0.108	0.072
-471.230	20.519	0.234	-0.191
-470.216	-79.061	0.235	-0.081
-469.201	615.942	0.035	-0.088
-468.186	800.000	0.135	-0.384
-467.172	-200.000	0.047	-0.240
-466.157	-16.000	0.129	0.083
-465.143	-90.329	0.054	0.016
-464.128	67.144	0.198	-0.204
-463.113	263.223	0.057	-0.100
-462.099	-150.222	-0.242	0.019
-461.084	-143.282	-0.398	0.039
-460.070	-90.680	-0.318	0.093
-459.055	-141.862	-0.040	0.004
-458.040	800.000	0.037	0.111
-457.026	-200.000	0.022	0.156
-456.011	89.853	0.170	0.192
-454.997	-200.000	0.016	0.092
-453.982	194.246	-0.117	0.180
-452.968	-183.338	-0.079	0.001
-451.953	-40.155	0.085	-0.044
-450.938	305.472	0.173	0.326
-449.924	-200.000	0.015	0.294
-448.909	-200.000	-0.014	-0.384
-447.895	700.648	0.069	0.184
-446.880	800.000	-0.075	0.219
-445.865	-135.276	0.310	0.037
-444.851	230.668	0.094	-0.155
-443.836	-200.000	0.009	0.066
-442.822	800.000	-0.040	0.165
-441.807	439.428	0.107	0.237
-440.792	800.000	-0.063	0.224
-439.778	-200.000	-0.021	0.111
-438.763	-200.000	-0.019	-0.506
-437.749	-186.966	-0.163	0.002
-436.734	139.393	-0.068	-0.090
-435.719	-109.791	-0.376	-0.080
-434.705	-93.200	0.134	0.038
-433.690	2.797	-0.049	-0.036
-432.676	173.292	0.103	0.150
-431.661	68.158	-0.220	-0.228
-430.646	-131.800	0.060	0.008
-429.632	141.678	0.022	0.029
-428.617	186.975	0.071	0.106
-427.603	-107.684	0.220	0.049
-426.588	-90.382	0.326	-0.096
-425.573	-200.000	-0.038	-0.186
-424.559	-86.055	0.107	0.033
-423.544	-200.000	-0.028	-0.204
-422.530	-84.735	-0.318	-0.101
-421.515	-56.591	-0.269	-0.120
-420.500	-135.022	-0.027	0.003
-419.486	217.824	-0.135	-0.218
-418.471	219.880	0.055	-0.089
-417.457	78.145	-0.101	0.109
-416.442	576.061	-0.072	-0.178
-415.428	-119.081	0.163	0.029
-414.413	-43.637	0.192	-0.098
-413.398	-55.461	0.309	-0.140
-412.384	27.703	-0.030	-0.025
-411.369	127.432	0.123	-0.158
-410.355	800.000	0.026	0.101
-409.340	332.721	0.087	-0.169
-408.325	-49.325	-0.258	0.124
-407.311	800.000	-0.054	0.176
-406.296	3.328	-0.205	-0.150
-405.282	330.060	0.149	0.289
-404.267	-153.904	0.089	0.006
-403.252	-133.986	0.265	-0.033
-402.238	-52.141	0.217	0.101
-401.223	-147.988	0.280	0.024
-400.209	-200.000	0.006	-0.064
-399.194	-24.018	-0.077	0.046
-398.179	-200.000	0.047	0.277
-397.165	-20.333	-0.113	-0.070
-396.150	-73.977	-0.321	0.117
-395.136	120.967	-0.201	0.252
-394.121	631.630	-0.080	0.203
-393.106	-181.033	0.076	0.002
-392.092	310.897	-0.106	0.201
-391.077	-122.677	0.120	-0.020
-390.063	-145.058	0.219	0.020
-389.048	-195.563	0.134	-0.001
-388.033	-200.000	0.027	0.148
-387.019	-200.000	-0.018	-0.117
-386.004	-200.000	-0.039	0.196
-384.990	-200.000	-0.007	0.036
-383.975	-42.741	0.013	-0.007
-382.960	-167.075	-0.193	0.008
-381.946	223.727	-0.019	-0.031
-380.931	32.418	-0.228	0.198
-379.917	39.434	-0.133	0.120
-378.902	-31.473	-0.032	-0.018
-377.888	800.000	0.044	-0.193
-376.873	-74.771	-0.196	-0.071
-375.858	32.593	0.064	0.056
-374.844	-142.767	-0.085	0.008
-373.829	-200.000	-0.020	-0.169
-372.815	80.602	-0.102	-0.111
-371.800	-158.317	0.293	-0.017
-370.785	101.573	-0.052	-0.062
-369.771	-26.699	-0.186	0.109
-368.756	562.237	0.030	0.074
-367.742	766.027	-0.114	-0.313
-366.727	11.684	0.141	0.109
-365.712	800.000	-0.068	-0.285
-364.698	-5.597	-0.049	-0.034
-363.683	12.260	-0.131	0.102
-362.669	233.231	0.018	-0.030
-361.654	237.659	0.094	0.157
-360.639	-81.579	0.391	-0.129
-359.625	800.000	-0.069	0.258
-358.610	-200.000	-0.001	-0.117
-357.596	-200.000	0.037	0.266
-356.581	-119.831	-0.213	0.037
-355.566	-200.000	-0.015	0.118
-354.552	-32.848	0.283	-0.158
-353.537	650.743	0.070	-0.180
-352.523	15.152	0.307	0.242
-351.508	-171.959	0.106	0.003
-350.493	280.301	-0.114	-0.205
-349.479	-4.703	0.260	0.180
-348.464	-200.000	-0.061	0.322
-347.450	123.924	-0.084	-0.107
-346.435	281.139	-0.049	0.089
-345.420	-200.000	0.007	-0.188
-344.406	-62.568	0.411	0.172
-343.391	150.525	0.124	0.170
-342.377	-200.000	0.018	-0.449
-341.362	72.270	0.102	-0.106
-340.348	-159.738	0.224	-0.012
-339.333	-200.000	-0.086	-0.387
-338.318	131.177	0.137	0.177
-337.304	-132.850	0.144	0.018
-336.289	-85.906	-0.407	0.127
-335.275	-200.000	0.026	-0.303
-334.260	-116.702	-0.340	-0.063
-333.245	-200.000	-0.061	-0.334
-332.231	800.000	-0.073	-0.280
-331.216	334.532	0.096	0.187
-330.202	800.000	-0.078	0.257
-329.187	800.000	-0.032	0.091
-328.172	-98.494	0.136	0.035
-327.158	800.000	-0.096	0.268
-326.143	93.114	0.027	0.031
-325.129	645.166	0.083	-0.213
-324.114	244.558	-0.145	-0.245
-323.099	-40.495	0.081	0.042
-322.085	-107.851	0.175	-0.038
-321.070	-91.338	0.216	0.062
-320.056	652.092	-0.012	0.030
-319.041	-6.975	-0.233	0.159
-318.026	-78.831	0.203	0.069
-317.012	273.704	0.069	-0.122
-315.997	-105.518	-0.184	-0.042
-314.983	-130.977	0.141	0.019
-313.968	208.688	0.066	-0.103
-312.953	66.313	-0.149	0.152
-311.939	-162.260	0.120	-0.006
-310.924	-61.311	0.272	-0.115
-309.910	341.709	-0.033	-0.065
-308.895	35.686	0.108	-0.095
-307.880	800.000	-0.132	-0.480
-306.866	289.059	0.091	-0.166
-305.851	184.200	0.080	0.119
-304.837	761.566	0.143	0.389
-303.822	39.391	0.251	0.226
-302.807	-107.327	0.146	-0.032
-301.793	-200.000	-0.020	-0.096
-300.778	402.061	0.194	0.409
-299.764	-200.000	-0.045	-0.265
-298.749	81.861	-0.220	0.240
-297.735	98.514	0.260	-0.301
-296.720	800.000	-0.035	0.127
-295.705	-182.154	-0.029	-0.001
-294.691	-174.748	0.279	0.008
-293.676	12.241	-0.103	0.079
-292.662	-13.194	0.051	-0.033
-291.647	297.308	0.013	-0.024
-290.632	-37.597	-0.284	0.152
-289.618	-115.956	-0.521	-0.097
-288.603	-34.811	0.337	-0.185
-287.589	658.777	-0.151	-0.391
-286.574	590.071	-0.109	-0.269
-285.559	569.289	0.104	-0.254
-284.545	16.147	-0.200	-0.158
-283.530	43.765	0.275	0.253
-282.516	-79.119	-0.033	-0.011
-281.501	-104.089	0.209	-0.049
-280.486	-21.502	-0.108	-0.066
-279.472	-8.927	0.155	0.104
-278.457	142.109	-0.064	0.085
-277.443	82.503	0.217	-0.236
-276.428	-86.710	-0.409	-0.125
-275.413	57.466	-0.254	-0.249
-274.399	63.245	-0.075	-0.075
-273.384	-200.000	-0.006	0.320
-272.370	634.003	0.096	0.244
-271.355	800.000	-0.089	-0.291
-270.340	-42.848	-0.057	-0.029
-269.326	-55.800	0.241	0.108
-268.311	116.806	0.181	0.223
-267.297	-116.027	0.246	0.046
-266.282	122.190	-0.099	0.123
-265.267	-154.358	-0.027	0.002
-264.253	18.177	-0.142	-0.113
-263.238	126.517	-0.148	0.188
-262.224	-200.000	0.047	0.457
-261.209	-200.000	0.001	0.260
-260.195	-200.000	-0.011	0.081
-259.180	48.329	-0.242	-0.227
-258.165	-129.449	-0.215	0.030
-257.151	144.938	-0.068	-0.091
-256.136	190.889	-0.024	-0.037
-255.122	-200.000	0.008	0.247
-254.107	-65.673	-0.195	0.078
-253.092	-62.506	0.246	0.102
-252.078	-162.592	0.065	-0.003
-251.063	-50.452	0.118	0.056
-250.049	-36.318	0.378	0.204
-249.034	-118.026	0.133	-0.024
-248.019	-22.786	-0.073	0.044
-247.005	166.975	-0.053	-0.075
-245.990	-137.914	-0.156	-0.017
-244.976	125.850	0.139	-0.175
-243.961	135.785	-0.056	0.073
-242.946	-56.956	-0.088	0.039
-241.932	67.085	-0.323	0.330
-240.917	4.780	0.167	0.123
-239.903	408.221	0.067	-0.142
-238.888	-111.580	-0.312	0.063
-237.873	2.883	-0.183	-0.133
-236.859	-142.614	0.137	-0.013
-235.844	-134.213	0.283	-0.035
-234.830	20.426	0.171	0.138
-233.815	-200.000	0.076	0.391
-232.800	-85.879	0.169	0.052
-231.786	40.001	0.104	-0.094
-230.771	-200.000	-0.028	-0.140
-229.757	-59.951	0.237	0.101
-228.742	-134.031	0.097	0.012
-227.727	8.018	-0.272	-0.204
-226.713	-200.000	0.033	-0.199
-225.698	-130.163	0.326	-0.044
-224.684	800.000	-0.072	0.241
-223.669	20.663	0.259	0.209
-222.655	134.369	-0.021	0.028
-221.640	116.446	0.040	0.049
-220.625	537.902	-0.044	-0.105
-219.611	-155.667	-0.223	0.014
-218.596	-62.295	0.111	0.046
-217.582	19.607	-0.043	-0.035
-216.567	12.005	0.047	-0.036
-215.552	-79.570	0.286	-0.097
-214.538	-200.000	-0.027	0.470
-213.523	-81.853	-0.234	-0.077
-212.509	-106.439	-0.208	0.047
-211.494	261.218	-0.122	0.212
-210.479	-161.251	0.127	-0.007
-209.465	-58.731	0.082	-0.036
-208.450	-200.000	-0.016	-0.091
-207.436	-115.203	-0.227	0.043
-206.421	63.230	-0.191	-0.192
-205.406	-15.987	0.110	-0.070
-204.392	800.000	0.089	-0.375
-203.377	-67.534	0.089	-0.035
-202.363	-14.534	-0.327	0.210
-201.348	779.888	0.049	0.133
-200.333	800.000	0.020	0.063
-199.319	-118.498	0.120	-0.021
-198.304	145.616	-0.120	-0.161
-197.290	-200.000	0.023	-0.154
-196.275	35.463	0.182	0.160
-195.260	-17.327	-0.181	0.114
-194.246	800.000	0.037	0.120
-193.231	800.000	-0.069	-0.198
-192.217	800.000	-0.030	-0.106
-191.202	-20.352	0.232	0.143
-190.187	-200.000	0.010	0.228
-189.173	-117.710	0.250	-0.045
-188.158	111.115	0.218	-0.262
-187.144	-42.193	0.294	-0.150
-186.129	-166.370	0.037	0.002
-185.114	82.190	-0.040	0.043
-184.100	-183.773	-0.230	0.004
-183.085	-200.000	-0.071	-0.317
-182.071	98.640	0.156	0.180
-181.056	-30.460	-0.256	0.145
-180.042	352.984	-0.036	0.072
-179.027	-98.216	0.080	-0.021
-178.012	289.705	0.120	-0.217
-176.998	-200.000	0.029	0.258
-175.983	-200.000	-0.034	0.248
-174.969	21.132	0.197	-0.160
-173.954	111.494	-0.165	-0.198
-172.939	800.000	-0.046	-0.198
-171.925	128.345	0.162	0.206
-170.910	-96.096	-0.090	0.024
-169.896	30.010	-0.100	-0.085
-168.881	-200.000	-0.018	-0.095
-167.866	-27.049	-0.187	-0.109
-166.852	-200.000	0.010	0.085
-165.837	388.538	0.052	-0.107
-164.823	85.853	0.168	0.184
-163.808	-200.000	0.035	0.262
-162.793	-121.935	0.221	-0.036
-161.779	800.000	0.089	0.336
-160.764	-200.000	-0.004	0.262
-159.750	102.828	-0.083	0.098
-158.735	-130.666	-0.313	-0.042
-157.720	69.791	0.182	-0.188
-156.706	-35.441	0.233	-0.126
-155.691	194.132	-0.051	0.077
-154.677	-200.000	0.004	-0.064
-153.662	-200.000	0.016	0.457
-152.647	87.061	0.100	0.110
-151.633	46.509	0.143	0.133
-150.618	17.477	-0.055	0.044
-149.604	800.000	0.072	0.277
-148.589	60.111	0.193	-0.190
-147.574	57.183	-0.336	-0.327
-146.560	360.482	-0.104	-0.208
-145.545	41.210	-0.145	0.131
-144.531	29.022	-0.045	0.038
-143.516	-200.000	0.030	-0.224
-142.502	-101.681	-0.374	-0.091
-141.487	-124.396	0.162	0.025
-140.472	-33.774	0.062	0.034
-139.458	-33.137	0.286	0.158
-138.443	243.670	0.221	-0.370
-137.429	99.890	0.143	-0.165
-136.414	85.490	-0.152	-0.166
-135.399	15.867	-0.297	-0.233
-134.385	6.695	0.060	-0.044
-133.370	-10.601	0.172	-0.114
-132.356	157.561	0.178	0.246
-131.341	11.105	-0.241	0.184
-130.326	59.489	-0.240	-0.236
-129.312	-140.394	-0.281	-0.029
-128.297	-44.768	-0.352	-0.175
-127.283	235.833	-0.088	-0.145
-126.268	2.176	-0.225	-0.162
-125.253	180.203	0.098	-0.143
-124.239	-71.642	0.263	0.098
-123.224	78.491	0.120	0.128
-122.210	92.851	0.281	0.316
-121.195	-85.931	0.242	-0.075
-120.180	-200.000	-0.009	0.110
-119.166	-200.000	-0.052	0.279
-118.151	158.295	0.122	0.168
-117.137	52.408	0.269	0.256
-116.122	98.233	0.157	0.180
-115.107	-85.993	0.123	-0.038
-114.093	107.499	-0.079	0.094
-113.078	220.354	-0.117	0.188
-112.064	-19.306	-0.218	0.135
-111.049	229.265	-0.059	0.095
-110.034	4.787	-0.157	0.115
-109.020	800.000	-0.038	-0.150
-108.005	-81.315	0.265	-0.087
-106.991	800.000	0.070	0.205
-105.976	-130.950	-0.135	-0.018
-104.962	-95.031	-0.085	-0.023
-103.947	-200.000	0.032	-0.192
-102.932	-182.541	-0.493	-0.009
-101.918	-14.931	0.210	0.134
-100.903	470.049	0.050	-0.112
-99.889	128.788	0.134	0.171
-98.874	-200.000	0.017	0.144
-97.859	-101.635	-0.255	0.062
-96.845	149.036	-0.148	0.199
-95.830	-85.747	-0.171	-0.053
-94.816	56.872	-0.163	-0.158
-93.801	390.440	0.195	-0.403
-92.786	7.490	-0.148	-0.110
-91.772	-200.000	0.027	-0.278
-90.757	-114.265	0.058	-0.011
-89.743	-67.236	-0.180	0.071
-88.728	-43.217	-0.180	-0.091
-87.713	336.114	-0.086	0.167
-86.699	157.202	0.105	0.144
-85.684	-150.547	-0.268	-0.020
-84.670	-117.418	0.227	0.041
-83.655	210.922	-0.064	0.100
-82.640	34.947	-0.247	0.215
-81.626	-73.470	0.586	0.213
-80.611	-46.177	-0.116	0.057
-79.597	-200.000	-0.032	-0.271
-78.582	-200.000	-0.001	0.084
-77.567	-200.000	-0.012	0.129
-76.553	-62.362	-0.208	-0.086
-75.538	159.000	0.099	-0.137
-74.524	-56.071	0.151	-0.067
-73.509	356.800	0.149	0.296
-72.494	159.665	0.086	-0.119
-71.480	-109.043	0.201	0.043
-70.465	154.503	-0.241	-0.330
-69.451	-18.206	-0.116	-0.073
-68.436	-89.078	-0.122	0.036
-67.422	125.075	0.060	-0.075
-66.407	473.611	0.032	-0.072
-65.392	-82.812	-0.149	0.048
-64.378	-58.406	0.145	0.063
-63.363	-58.676	0.124	0.053
-62.349	-19.468	-0.143	0.088
-61.334	127.352	-0.652	-0.824
-60.319	792.820	0.113	0.308
-59.305	800.000	-0.086	-0.371
-58.290	360.744	0.312	0.621
-57.276	611.878	0.710	1.767
-56.261	-200.000	75.822	509.502
-55.246	526.595	1326.049	3106.618
-54.232	145.375	2567.504	3418.008
-53.217	111.347	2350.281	2817.048
-52.203	50.214	1963.807	1844.143
-51.188	44.175	1753.170	1598.893
-50.173	41.445	1707.989	1536.629
-49.159	55.884	1742.044	1679.531
-48.144	61.235	1759.956	1738.180
-47.130	44.234	1724.509	1572.959
-46.115	40.990	1710.580	1535.209
-45.100	40.877	1706.183	1530.326
-44.086	40.924	1703.580	1528.298
-43.071	40.948	1700.685	1525.819
-42.057	40.884	1698.155	1522.999
-41.042	40.841	1696.291	1520.942
-40.027	40.981	1694.232	1520.105
-39.013	40.829	1692.814	1517.608
-37.998	40.781	1690.992	1515.548
-36.984	40.942	1689.700	1515.560
-35.969	41.159	1687.396	1515.083
-34.954	41.158	1686.155	1513.901
-33.940	41.053	1683.600	1510.753
-32.925	41.024	1682.312	1509.316
-31.911	41.005	1680.839	1507.788
-30.896	40.957	1678.918	1505.645
-29.881	41.004	1676.971	1504.193
-28.867	40.974	1675.642	1502.715
-27.852	40.972	1674.411	1501.538
-26.838	40.949	1672.958	1500.002
-25.823	41.011	1671.417	1499.029
-24.809	41.028	1670.154	1497.959
-23.794	41.095	1668.639	1497.049
-22.779	41.131	1666.851	1495.659
-21.765	41.007	1665.406	1493.370
-20.750	41.112	1663.650	1492.519
-19.736	41.008	1662.007	1490.206
-18.721	41.051	1660.549	1489.163
-17.706	41.060	1658.935	1487.728
-16.692	40.965	1657.897	1486.027
-15.677	40.989	1656.361	1484.769
-14.663	41.055	1654.642	1483.658
-13.648	40.986	1653.578	1482.136
-12.633	41.031	1651.573	1480.614
-11.619	41.059	1649.792	1479.165
-10.604	40.872	1649.126	1477.123
-9.590	41.032	1646.931	1476.287
-8.575	40.980	1645.813	1474.837
-7.560	41.040	1644.488	1474.035
-6.546	41.029	1643.602	1473.100
-5.531	40.916	1642.813	1471.503
-4.517	40.967	1641.861	1470.963
-3.502	41.011	1640.451	1469.970
-2.487	41.172	1638.524	1469.373
-1.473	41.059	1627.739	1458.813
-0.458	38.582	1607.844	1422.958
0.556	34.815	1605.992	1385.354
1.571	31.523	1629.639	1381.368
2.586	30.460	1643.227	1384.844
3.600	26.536	1587.408	1309.358
4.615	14.661	1466.893	1129.954
5.629	4.211	1391.890	1004.658
6.644	2.276	1382.611	985.403
7.659	2.092	1380.668	982.750
8.673	1.983	1379.270	980.965
9.688	1.970	1377.817	979.764
10.702	1.782	1374.798	976.322
11.717	5.417	1382.773	1005.300
12.731	16.657	1404.610	1094.123
13.746	25.380	1419.483	1162.336
14.761	26.717	1421.056	1172.175
15.775	26.890	1420.435	1172.676
16.790	27.065	1419.975	1173.324
17.804	27.085	1418.897	1172.458
18.819	27.233	1418.894	1173.308
19.834	27.290	1418.445	1173.198
20.848	27.314	1417.328	1172.327
21.863	27.376	1416.399	1171.857
22.877	27.379	1415.672	1171.167
23.892	27.437	1414.721	1170.654
24.907	27.360	1413.751	1169.253
25.921	27.305	1413.094	1168.252
26.936	27.284	1412.177	1167.255
27.950	27.281	1411.050	1166.201
28.965	27.374	1409.623	1165.513
29.980	27.390	1408.205	1164.337
30.994	27.257	1407.500	1162.806
32.009	27.313	1406.313	1162.075
33.023	27.280	1405.162	1160.812
34.038	27.262	1404.152	1159.764
35.053	27.206	1403.238	1158.547
36.067	27.315	1401.801	1157.950
37.082	27.320	1400.918	1157.152
38.096	27.268	1399.750	1155.755
39.111	27.304	1398.875	1155.161
40.126	27.260	1398.812	1154.726
41.140	27.236	1398.091	1153.876
42.155	27.228	1397.943	1153.598
43.169	27.337	1397.728	1154.011
44.184	27.175	1397.410	1152.622
45.199	27.161	1397.131	1152.197
46.213	27.264	1396.187	1151.969
47.228	27.259	1395.143	1150.975
48.242	27.363	1394.065	1150.644
49.257	27.259	1392.390	1148.500
50.271	27.370	1391.103	1148.036
51.286	27.319	1389.619	1146.390
52.301	27.248	1388.692	1145.077
53.315	27.183	1387.717	1143.761
54.330	27.302	1386.888	1143.726
55.344	27.315	1385.598	1142.643
56.359	27.222	1384.916	1141.394
57.374	27.208	1384.023	1140.472
58.388	27.281	1383.162	1140.122
59.403	27.301	1382.839	1139.880
60.417	27.189	1382.338	1138.661
61.432	27.304	1381.674	1138.731
62.447	27.303	1380.595	1137.735
63.461	27.252	1379.508	1136.419
64.476	27.265	1378.354	1135.451
65.490	27.427	1376.827	1135.102
66.505	27.339	1375.277	1133.178
67.520	27.294	1374.560	1132.205
68.534	27.334	1373.396	1131.397
69.549	27.355	1372.187	1130.433
70.563	27.248	1371.862	1129.397
71.578	27.322	1370.435	1128.585
72.593	27.341	1369.534	1127.856
73.607	27.319	1369.143	1127.298
74.622	27.390	1368.185	1126.853
75.636	27.300	1367.766	1125.852
76.651	27.184	1367.164	1124.536
77.666	27.304	1366.487	1124.622
78.680	27.276	1366.248	1124.153
79.695	27.250	1365.354	1123.160
80.709	27.348	1364.020	1122.563
81.724	27.263	1363.466	1121.485
82.739	27.231	1362.648	1120.518
83.753	27.290	1361.713	1120.013
84.768	27.324	1360.447	1119.078
85.782	27.250	1359.378	1117.647
86.797	27.302	1357.804	1116.576
87.812	27.241	1356.918	1115.375
88.826	27.318	1356.284	1115.223
89.841	27.433	1354.646	1114.485
90.855	27.417	1353.677	1113.490
91.870	27.375	1353.074	1112.635
92.884	27.387	1352.507	1112.150
93.899	27.367	1351.959	1111.477
94.914	27.389	1350.739	1110.509
95.928	27.346	1350.346	1109.827
96.943	27.369	1349.093	1108.834
97.957	27.394	1348.376	1108.304
98.972	27.256	1347.980	1107.036
99.987	27.255	1346.843	1106.002
101.001	27.324	1345.820	1105.482
102.016	27.281	1344.750	1104.246
103.030	27.265	1344.282	1103.665
104.045	27.327	1343.562	1103.354
105.060	27.363	1342.209	1102.360
106.074	27.404	1341.059	1101.567
107.089	27.346	1340.344	1100.530
108.103	27.369	1339.006	1099.473
109.118	27.457	1337.928	1099.022
110.133	27.488	1336.444	1097.893
111.147	27.461	1335.706	1097.026
112.162	27.455	1334.589	1095.976
113.176	27.394	1333.785	1094.854
114.191	27.361	1332.587	1093.573
115.206	27.383	1331.974	1093.111
116.220	27.366	1330.631	1091.808
117.235	27.410	1329.591	1091.121
118.249	27.451	1328.555	1090.423
119.264	27.395	1328.048	1089.573
120.279	27.413	1327.529	1089.154
121.293	27.434	1326.513	1088.351
122.308	27.512	1325.666	1088.027
123.322	27.436	1324.986	1086.919
124.337	27.508	1323.583	1086.100
125.352	27.503	1323.076	1085.558
126.366	27.425	1322.380	1084.430
127.381	27.593	1320.866	1084.092
128.395	27.573	1320.312	1083.420
129.410	27.568	1319.158	1082.346
130.424	27.544	1318.602	1081.654
131.439	27.582	1318.137	1081.404
132.454	27.502	1316.791	1079.727
133.468	27.447	1316.957	1079.441
134.483	27.563	1315.950	1079.206
135.497	27.507	1314.871	1077.896
136.512	27.503	1313.798	1076.899
137.527	27.443	1313.368	1076.098
138.541	27.411	1312.040	1074.722
139.556	27.502	1310.728	1074.089
140.570	27.482	1309.521	1072.888
141.585	27.493	1308.673	1072.166
142.600	27.504	1307.837	1071.450
143.614	27.524	1306.687	1070.527
144.629	27.451	1305.786	1069.270
145.643	27.334	1304.587	1067.504
146.658	27.332	1304.097	1066.996
147.673	27.290	1302.852	1065.638
148.687	27.316	1301.605	1064.678
149.702	27.426	1300.469	1064.296
150.716	27.409	1298.850	1062.776
151.731	27.471	1298.077	1062.415
152.746	27.449	1297.402	1061.637
153.760	27.464	1296.431	1060.835
154.775	27.491	1295.243	1059.929
155.789	27.427	1294.340	1058.722
156.804	27.435	1293.481	1057.974
157.819	27.447	1292.675	1057.287
158.833	27.480	1292.037	1056.866
159.848	27.498	1290.995	1056.025
160.862	27.485	1290.417	1055.383
161.877	27.526	1289.881	1055.090
162.892	27.513	1288.926	1054.142
163.906	27.532	1288.306	1053.649
164.921	27.524	1287.522	1052.868
165.935	27.605	1286.617	1052.502
166.950	27.681	1286.063	1052.393
167.964	27.565	1285.630	1051.277
168.979	27.533	1285.036	1050.517
169.994	27.569	1284.375	1050.087
171.008	27.540	1283.676	1049.254
172.023	27.594	1282.454	1048.474
173.037	27.590	1282.063	1048.041
174.052	27.574	1281.611	1047.489
175.067	27.540	1280.602	1046.372
176.081	27.559	1279.849	1045.775
177.096	27.455	1279.177	1044.539
178.110	27.589	1278.014	1044.262
179.125	27.637	1276.875	1043.517
180.140	27.674	1275.716	1042.687
181.154	27.681	1274.662	1041.776
182.169	27.548	1273.706	1040.140
183.183	27.634	1272.619	1039.651
184.198	27.660	1271.445	1038.746
185.213	27.619	1270.823	1037.914
186.227	27.675	1269.547	1037.101
187.242	27.699	1268.882	1036.600
188.256	27.684	1267.782	1035.527
189.271	27.606	1267.463	1034.729
190.286	27.704	1266.439	1034.357
191.300	27.696	1265.764	1033.667
192.315	27.595	1265.431	1032.736
193.329	27.657	1264.949	1032.598
194.344	27.601	1264.631	1031.933
195.359	27.579	1264.465	1031.584
196.373	27.490	1263.931	1030.553
197.388	27.630	1262.646	1030.206
198.402	27.698	1262.953	1030.746
199.417	27.625	1262.440	1029.824
200.432	27.659	1262.055	1029.611
201.446	27.672	1261.127	1028.835
202.461	27.780	1260.004	1028.437
203.475	27.700	1259.394	1027.401
204.490	27.664	1258.918	1026.715
205.504	27.736	1257.424	1025.812
206.519	27.714	1256.754	1025.049
207.534	27.719	1255.955	1024.337
208.548	27.657	1255.061	1023.166
209.563	27.652	1254.319	1022.444
210.577	27.638	1253.406	1021.534
211.592	27.749	1252.314	1021.176
212.607	27.743	1251.701	1020.553
213.621	27.814	1250.929	1020.224
214.636	27.792	1250.221	1019.433
215.650	27.797	1249.052	1018.422
216.665	27.753	1248.190	1017.383
217.680	27.769	1247.223	1016.594
218.694	27.776	1246.672	1016.094
219.709	27.751	1245.910	1015.245
220.723	27.913	1245.115	1015.407
221.738	27.839	1244.275	1014.221
222.753	27.716	1243.950	1013.182
223.767	27.827	1242.975	1012.917
224.782	27.859	1242.867	1012.917
225.796	27.895	1242.509	1012.732
226.811	27.962	1241.518	1012.204
227.826	27.972	1240.731	1011.529
228.840	27.811	1240.487	1010.351
229.855	27.903	1239.139	1009.672
230.869	27.884	1238.802	1009.205
231.884	27.956	1237.946	1008.816
232.899	27.868	1237.406	1007.797
233.913	27.829	1236.963	1007.137
234.928	27.926	1236.301	1007.039
235.942	28.038	1235.511	1006.924
236.957	28.037	1234.776	1006.232
237.972	27.979	1234.181	1005.340
238.986	27.904	1233.711	1004.457
240.001	27.908	1233.076	1003.868
241.015	28.038	1232.063	1003.672
242.030	28.115	1231.211	1003.308
243.045	28.100	1230.544	1002.595
244.059	28.084	1229.734	1001.760
245.074	28.022	1228.869	1000.624
246.088	28.030	1228.368	1000.174
247.103	28.098	1226.951	999.304
248.117	28.080	1226.257	998.549
249.132	28.117	1225.985	998.444
250.147	28.145	1224.880	997.608
251.161	28.190	1224.087	997.117
252.176	28.100	1223.772	996.284
253.190	28.245	1222.887	996.263
254.205	28.149	1222.487	995.326
255.220	28.093	1222.033	994.569
256.234	28.113	1221.689	994.305
257.249	28.195	1220.458	993.661
258.263	28.155	1220.067	993.041
259.278	28.130	1219.433	992.300
260.293	28.119	1219.253	992.007
261.307	28.235	1218.561	991.983
262.322	28.183	1217.922	991.091
263.336	28.146	1217.542	990.494
264.351	28.179	1216.567	989.795
265.366	28.258	1215.940	989.624
266.380	28.176	1215.329	988.597
267.395	28.204	1214.073	987.635
268.409	28.192	1213.780	987.248
269.424	28.166	1213.722	986.971
270.439	28.282	1212.639	986.630
271.453	28.202	1212.216	985.767
272.468	28.111	1211.222	984.380
273.482	28.200	1210.307	984.028
274.497	28.215	1210.391	984.091
275.512	28.380	1209.186	983.910
276.526	28.275	1208.873	983.003
277.541	28.300	1208.040	982.376
278.555	28.334	1206.990	981.618
279.570	28.300	1206.802	981.195
280.585	28.331	1206.044	980.659
281.599	28.273	1204.902	979.330
282.614	28.263	1203.945	978.415
283.628	28.376	1203.325	978.429
284.643	28.240	1202.615	977.035
285.657	28.375	1201.492	976.757
286.672	28.385	1201.118	976.422
287.687	28.334	1200.298	975.394
288.701	28.480	1199.448	975.399
289.716	28.409	1198.771	974.384
290.730	28.489	1198.009	974.100
291.745	28.554	1197.596	974.024
292.760	28.458	1196.879	972.845
293.774	28.480	1196.051	972.202
294.789	28.539	1195.611	972.072
295.803	28.511	1194.908	971.268
296.818	28.418	1194.547	970.393
297.833	28.439	1194.405	970.303
298.847	28.525	1192.988	969.520
299.862	28.532	1192.144	968.788
300.876	28.431	1191.701	967.808
301.891	28.630	1191.226	968.388
302.906	28.611	1190.291	967.439
303.920	28.572	1189.704	966.673
304.935	28.575	1188.935	965.979
305.949	28.534	1188.284	965.149
306.964	28.696	1187.693	965.435
307.979	28.664	1187.022	964.636
308.993	28.661	1186.448	964.066
310.008	28.591	1185.684	962.995
311.022	28.644	1184.740	962.422
312.037	28.622	1184.117	961.716
313.052	28.665	1183.287	961.180
314.066	28.763	1182.575	961.027
315.081	28.692	1181.615	959.792
316.095	28.670	1181.374	959.397
317.110	28.783	1180.562	959.243
318.125	28.839	1179.636	958.700
319.139	28.612	1179.459	957.286
320.154	28.691	1179.041	957.274
321.168	28.673	1178.396	956.570
322.183	28.701	1177.846	956.185
323.197	28.690	1177.322	955.618
324.212	28.719	1176.469	954.995
325.227	28.774	1175.979	954.795
326.241	28.709	1175.429	953.929
327.256	28.850	1174.590	953.895
328.270	28.802	1174.055	953.125
329.285	28.842	1172.957	952.356
330.300	28.873	1172.100	951.740
331.314	28.831	1171.405	950.872
332.329	28.851	1170.578	950.219
333.343	28.874	1169.892	949.696
334.358	28.893	1168.938	948.939
335.373	28.948	1168.166	948.513
336.387	28.867	1167.708	947.636
337.402	28.857	1167.342	947.207
338.416	28.915	1167.063	947.195
339.431	29.007	1165.683	946.465
340.446	28.961	1165.174	945.729
341.460	28.923	1164.370	944.796
342.475	29.043	1163.808	944.873
343.489	28.959	1162.818	943.557
344.504	28.931	1161.988	942.654
345.519	28.979	1161.135	942.127
346.533	28.925	1160.350	941.129
347.548	29.064	1159.461	941.039
348.562	29.073	1159.180	940.770
349.577	28.963	1158.529	939.598
350.592	28.952	1157.282	938.446
351.606	29.033	1156.329	938.003
352.621	29.003	1156.345	937.778
353.635	29.139	1155.601	937.787
354.650	28.989	1155.201	936.618
355.665	28.997	1154.493	936.000
356.679	29.208	1153.773	936.405
357.694	29.046	1153.517	935.292
358.708	29.128	1152.576	934.864
359.723	29.023	1151.704	933.539
360.738	29.128	1150.956	933.384
361.752	29.115	1150.634	932.971
362.767	29.154	1150.036	932.605
363.781	29.177	1149.617	932.298
364.796	29.334	1148.780	932.330
365.810	29.410	1148.033	932.027
366.825	29.290	1147.354	930.787
367.840	29.295	1147.097	930.519
368.854	29.352	1146.686	930.390
369.869	29.262	1145.432	928.840
370.883	29.410	1144.634	928.856
371.898	29.207	1144.679	927.788
372.913	29.203	1144.164	927.266
373.927	29.331	1143.053	926.926
374.942	29.384	1143.115	927.162
375.956	29.386	1142.182	926.332
376.971	29.284	1141.487	925.174
377.986	29.360	1141.328	925.347
379.000	29.428	1140.452	924.898
380.015	29.523	1139.756	924.726
381.029	29.381	1139.299	923.560
382.044	29.408	1138.730	923.156
383.059	29.463	1137.796	922.593
384.073	29.449	1137.349	922.074
385.088	29.571	1136.397	921.830
386.102	29.436	1135.475	920.328
387.117	29.503	1134.427	919.733
388.132	29.468	1133.928	919.070
389.146	29.472	1133.362	918.553
390.161	29.374	1133.106	917.773
391.175	29.536	1131.794	917.439
392.190	29.556	1131.186	916.960
393.205	29.606	1130.359	916.456
394.219	29.523	1129.784	915.502
395.234	29.593	1129.257	915.338
396.248	29.565	1128.145	914.216
397.263	29.536	1127.597	913.547
398.278	29.610	1127.269	913.570
399.292	29.620	1126.225	912.689
400.307	29.700	1125.573	912.478
401.321	29.673	1124.994	911.792
402.336	29.671	1124.404	911.227
403.350	29.674	1123.467	910.398
404.365	29.724	1123.237	910.377
405.380	29.744	1122.438	909.748
406.394	29.647	1121.650	908.552
407.409	29.750	1120.543	908.081
408.423	29.784	1120.137	907.839
409.438	29.832	1119.440	907.427
410.453	29.944	1118.559	907.182
411.467	29.823	1118.134	906.167
412.482	29.790	1117.474	905.388
413.496	29.872	1116.631	905.028
414.511	29.834	1116.216	904.423
415.526	29.937	1115.351	904.146
416.540	29.905	1115.185	903.777
417.555	29.783	1115.068	903.008
418.569	29.887	1114.362	902.861
419.584	29.863	1114.096	902.451
420.599	29.932	1113.190	901.973
421.613	87.833	1300.357	1369.931
422.628	82.511	1327.635	1370.069
