DTS Sentinel unit serial number:	SN413079Multiplexer serial number:	ORYXHardware model number:	OX4-SRSoftware version number:	ORYX F/W v4.00 Oryx Data Collector v3.7.2.0data status	okinstallation	princeton_trtdifferential loss correction	single-endedforward channel	channel 2reverse channel	N/Adate	2019/09/18time	02:43:35forward acquisition time	60.00reverse acquisition time	0.00gamma	496.2192k internal	0.2350k external	0.2350temperature offset calibration	0.9982default loss term (dB/km)	0.3790temperature slope calibration	1.0000multiplexer offset coefficient	1.0000multiplexer slope coefficient	1.0000fibre end	0.00T internal ref (°C)	22.80T ext. ref 1 (°C)	0.16T ext. ref 2 (°C)	16.61length (m)	temperature (°C)	Stokes	anti-Stokes-747.200	-200.000	-0.006	0.062
-746.185	225.765	-0.244	0.394
-745.171	384.651	0.170	0.350
-744.156	47.283	-0.086	0.080
-743.142	800.000	-0.056	-0.173
-742.127	-200.000	-0.120	0.533
-741.112	-133.966	0.332	0.041
-740.098	-157.189	-0.177	-0.011
-739.083	-133.954	0.430	0.053
-738.069	-200.000	-0.001	0.022
-737.054	-135.019	-0.115	0.014
-736.039	108.069	-0.233	-0.277
-735.025	-163.977	0.147	0.007
-734.010	800.000	0.058	0.162
-732.996	33.123	0.185	0.160
-731.981	-200.000	-0.013	0.098
-730.966	160.779	0.190	-0.265
-729.952	-76.106	-0.079	0.028
-728.937	-107.850	-0.286	-0.062
-727.923	-72.348	-0.394	-0.146
-726.908	-192.620	-0.208	0.002
-725.894	800.000	-0.027	0.076
-724.879	422.462	-0.087	-0.186
-723.864	-4.426	0.195	0.134
-722.850	-4.633	-0.056	0.038
-721.835	23.580	-0.394	-0.323
-720.821	191.024	0.030	0.046
-719.806	-118.281	0.228	-0.040
-718.791	-200.000	0.035	-0.491
-717.777	-200.000	0.062	-0.301
-716.762	-112.373	-0.340	-0.068
-715.748	-52.825	0.304	-0.140
-714.733	81.656	-0.076	-0.082
-713.718	-42.416	-0.408	0.208
-712.704	-113.378	-0.373	-0.073
-711.689	-40.531	-0.358	0.185
-710.675	-57.874	-0.184	0.080
-709.660	-74.153	0.278	0.100
-708.645	800.000	-0.011	-0.045
-707.631	800.000	0.083	-0.295
-706.616	92.369	-0.244	-0.274
-705.602	-108.433	-0.035	0.008
-704.587	-118.504	0.380	-0.067
-703.572	29.244	0.175	-0.148
-702.558	64.229	-0.114	-0.114
-701.543	-87.881	-0.149	0.045
-700.529	-112.046	-0.129	0.026
-699.514	105.316	-0.066	-0.078
-698.499	-62.784	-0.129	-0.053
-697.485	-121.747	-0.307	0.051
-696.470	-56.951	0.116	-0.051
-695.456	11.302	0.230	0.176
-694.441	249.751	0.061	0.103
-693.426	-75.508	0.161	0.057
-692.412	-101.883	-0.411	-0.099
-691.397	597.469	-0.025	-0.061
-690.383	322.398	-0.107	0.203
-689.368	506.163	-0.087	0.201
-688.354	130.224	0.113	0.144
-687.339	-98.337	0.160	-0.041
-686.324	242.543	0.159	-0.265
-685.310	-13.388	-0.049	-0.032
-684.295	-67.721	-0.378	-0.147
-683.281	-68.539	0.176	0.068
-682.266	216.595	0.094	0.149
-681.251	-86.874	-0.297	0.090
-680.237	0.066	0.088	-0.062
-679.222	-200.000	0.005	-0.084
-678.208	515.796	0.037	-0.087
-677.193	-156.621	-0.172	0.011
-676.178	-200.000	0.080	-0.591
-675.164	-32.432	-0.319	-0.177
-674.149	224.188	0.088	-0.141
-673.135	14.532	-0.080	0.062
-672.120	-200.000	0.011	-0.314
-671.105	86.866	-0.212	-0.233
-670.091	-117.679	-0.085	-0.015
-669.076	145.137	0.123	0.163
-668.062	-135.754	-0.295	0.035
-667.047	200.916	-0.063	-0.097
-666.032	-78.621	-0.292	-0.099
-665.018	122.112	0.042	-0.052
-664.003	-113.998	-0.275	-0.053
-662.989	-30.165	-0.059	0.034
-661.974	-75.269	0.264	-0.094
-660.959	139.525	0.079	-0.103
-659.945	265.947	0.012	-0.020
-658.930	-90.152	-0.325	-0.094
-657.916	-13.661	0.048	-0.031
-656.901	155.332	0.121	-0.166
-655.886	435.500	0.078	-0.168
-654.872	372.056	0.047	0.095
-653.857	342.478	-0.193	-0.375
-652.843	27.132	-0.207	-0.173
-651.828	-200.000	-0.027	-0.190
-650.814	-200.000	-0.028	0.212
-649.799	-200.000	0.117	-0.736
-648.784	-16.054	-0.146	-0.092
-647.770	91.491	0.035	-0.039
-646.755	800.000	-0.073	-0.260
-645.741	-48.858	-0.317	0.151
-644.726	-38.380	-0.216	0.113
-643.711	-200.000	-0.009	-0.187
-642.697	-200.000	0.023	-0.143
-641.682	165.915	-0.119	-0.167
-640.668	-200.000	-0.023	0.242
-639.653	-200.000	0.060	0.290
-638.638	-42.684	0.268	-0.135
-637.624	289.346	0.124	-0.224
-636.609	688.668	0.077	0.200
-635.595	-133.363	-0.086	0.011
-634.580	-12.994	-0.107	0.069
-633.565	181.098	0.050	-0.073
-632.551	-11.250	0.209	0.137
-631.536	-141.077	-0.450	-0.046
-630.522	-136.896	-0.239	0.027
-629.507	200.557	-0.089	0.136
-628.492	-24.955	-0.486	-0.286
-627.478	290.303	-0.059	-0.107
-626.463	-25.815	0.105	0.062
-625.449	800.000	-0.102	0.413
-624.434	800.000	-0.047	0.166
-623.419	-72.635	-0.237	-0.087
-622.405	-42.099	-0.137	-0.070
-621.390	5.108	0.332	-0.243
-620.376	800.000	0.010	0.042
-619.361	-200.000	-0.013	-0.190
-618.346	-200.000	-0.023	-0.213
-617.332	-114.525	-0.095	-0.018
-616.317	-124.424	-0.317	0.049
-615.303	800.000	0.105	0.406
-614.288	-19.137	-0.276	0.170
-613.273	-6.359	-0.305	-0.207
-612.259	-95.039	-0.328	-0.088
-611.244	133.636	-0.238	-0.306
-610.230	-200.000	0.004	0.030
-609.215	334.302	-0.067	-0.129
-608.201	-200.000	0.007	0.189
-607.186	-200.000	-0.010	0.107
-606.171	-130.966	-0.486	-0.064
-605.157	-147.894	0.111	0.009
-604.142	-180.315	0.103	-0.002
-603.128	-33.896	-0.134	-0.073
-602.113	-13.465	0.074	0.048
-601.098	-82.002	-0.115	0.037
-600.084	800.000	0.120	0.493
-599.069	800.000	-0.106	0.372
-598.055	-200.000	-0.034	0.165
-597.040	116.445	-0.109	-0.133
-596.025	-144.701	-0.271	0.025
-595.011	85.858	-0.206	-0.225
-593.996	-190.280	-0.115	-0.001
-592.982	175.420	0.170	-0.244
-591.967	681.723	-0.169	-0.438
-590.952	172.435	-0.228	-0.325
-589.938	714.825	0.099	-0.260
-588.923	800.000	0.037	-0.141
-587.909	45.353	0.099	-0.090
-586.894	327.703	0.072	-0.138
-585.879	-200.000	-0.051	-0.376
-584.865	9.236	-0.132	0.099
-583.850	41.494	0.243	-0.219
-582.836	79.543	-0.125	0.133
-581.821	-200.000	0.010	0.199
-580.806	404.827	0.090	0.188
-579.792	-159.047	-0.023	0.001
-578.777	800.000	0.100	0.317
-577.763	741.596	-0.136	0.361
-576.748	53.086	-0.240	0.228
-575.733	-172.837	0.363	-0.011
-574.719	-200.000	-0.003	0.256
-573.704	-76.656	0.064	-0.022
-572.690	-123.510	-0.199	-0.031
-571.675	-17.131	-0.147	-0.092
-570.661	36.720	-0.042	-0.037
-569.646	-35.367	0.261	-0.140
-568.631	-170.814	-0.301	-0.010
-567.617	37.875	-0.140	0.123
-566.602	-200.000	0.008	0.107
-565.588	790.377	-0.056	0.152
-564.573	-200.000	-0.254	-0.001
-563.558	-122.930	-0.224	0.036
-562.544	-176.546	-0.018	-0.000
-561.529	312.504	-0.094	0.174
-560.515	-144.637	0.122	0.011
-559.500	562.941	0.037	0.090
-558.485	338.025	-0.176	-0.339
-557.471	800.000	-0.061	0.177
-556.456	196.895	-0.163	0.247
-555.442	-86.200	-0.231	0.070
-554.427	-51.631	0.101	-0.047
-553.412	141.452	0.255	-0.334
-552.398	-56.376	-0.405	0.178
-551.383	241.567	0.012	-0.019
-550.369	323.867	-0.124	-0.234
-549.354	800.000	-0.018	0.074
-548.339	92.617	-0.238	0.266
-547.325	-14.876	-0.366	-0.233
-546.310	-144.777	-0.383	0.035
-545.296	-200.000	-0.012	-0.207
-544.281	-142.376	0.267	0.026
-543.266	790.796	0.041	-0.113
-542.252	-144.353	0.490	-0.045
-541.237	-127.546	0.089	-0.013
-540.223	-54.592	0.348	-0.156
-539.208	-43.882	-0.188	0.094
-538.193	195.732	0.168	-0.253
-537.179	-52.087	0.337	0.155
-536.164	193.492	-0.158	0.237
-535.150	-102.060	-0.020	0.005
-534.135	-72.682	-0.106	-0.039
-533.121	-200.000	0.007	0.066
-532.106	40.681	-0.343	-0.306
-531.091	-157.402	0.345	0.021
-530.077	-138.870	0.160	-0.017
-529.062	-200.000	-0.035	-0.266
-528.048	119.349	-0.069	-0.084
-527.033	-62.941	0.220	-0.090
-526.018	-44.798	0.158	-0.078
-525.004	-200.000	0.005	-0.097
-523.989	-200.000	0.044	0.204
-522.975	800.000	0.124	-0.380
-521.960	-2.789	-0.159	-0.110
-520.945	215.904	-0.065	0.102
-519.931	485.554	0.061	-0.138
-518.916	-87.973	0.058	0.017
-517.902	459.106	0.107	0.235
-516.887	36.398	-0.227	0.198
-515.872	-200.000	0.116	-0.659
-514.858	-98.380	0.368	0.093
-513.843	800.000	-0.080	0.345
-512.829	132.346	-0.270	0.345
-511.814	800.000	0.055	-0.158
-510.799	-200.000	0.004	-0.088
-509.785	-142.883	-0.403	0.039
-508.770	-200.000	0.002	-0.373
-507.756	-158.636	0.159	0.009
-506.741	-30.506	0.185	-0.104
-505.726	-122.154	-0.123	-0.020
-504.712	219.226	0.019	0.031
-503.697	18.334	-0.272	0.215
-502.683	-88.319	0.161	-0.048
-501.668	238.291	0.165	-0.271
-500.653	385.934	-0.108	0.220
-499.639	-9.515	0.237	0.156
-498.624	-94.817	-0.183	-0.049
-497.610	590.034	-0.037	0.090
-496.595	50.389	0.152	0.142
-495.581	122.387	-0.196	0.242
-494.566	-200.000	0.005	0.188
-493.551	-200.000	-0.016	-0.087
-492.537	521.395	0.052	0.121
-491.522	70.014	0.041	-0.042
-490.508	58.295	-0.357	0.346
-489.493	-144.945	0.053	-0.005
-488.478	-200.000	-0.033	-0.241
-487.464	144.957	-0.123	-0.162
-486.449	-101.845	-0.062	0.015
-485.435	793.565	0.027	-0.074
-484.420	311.001	0.087	0.161
-483.405	-113.627	-0.229	-0.044
-482.391	153.958	-0.132	-0.178
-481.376	-97.653	0.078	-0.020
-480.362	-61.362	0.164	0.068
-479.347	800.000	-0.080	-0.312
-478.332	-200.000	0.004	0.126
-477.318	-161.756	-0.171	-0.009
-476.303	279.559	0.078	0.137
-475.289	291.823	0.130	-0.233
-474.274	-200.000	-0.065	-0.290
-473.259	200.662	-0.082	-0.124
-472.245	351.521	0.086	0.168
-471.230	63.844	-0.297	0.294
-470.216	-200.000	0.003	-0.060
-469.201	-188.932	-0.312	-0.004
-468.186	560.835	0.160	0.382
-467.172	-0.233	0.112	-0.079
-466.157	-81.741	-0.381	-0.123
-465.143	-129.897	0.262	0.035
-464.128	-200.000	0.029	0.185
-463.113	-200.000	0.032	-0.140
-462.099	37.741	0.148	0.130
-461.084	-200.000	-0.053	0.381
-460.070	279.205	-0.140	-0.248
-459.055	-106.364	-0.267	-0.059
-458.040	301.330	0.038	0.070
-457.026	-153.945	-0.238	0.016
-456.011	800.000	0.113	0.322
-454.997	59.483	0.059	0.057
-453.982	800.000	0.018	0.052
-452.968	-200.000	-0.064	0.297
-451.953	-6.433	0.240	0.162
-450.938	23.138	-0.144	0.116
-449.924	-200.000	0.002	0.102
-448.909	-200.000	0.007	0.279
-447.895	141.604	-0.110	-0.144
-446.880	-46.678	-0.297	-0.143
-445.865	-42.205	0.073	-0.037
-444.851	800.000	-0.118	-0.341
-443.836	800.000	-0.049	0.153
-442.822	-200.000	-0.022	-0.368
-441.807	-77.372	-0.038	0.013
-440.792	800.000	-0.031	-0.126
-439.778	800.000	-0.008	-0.028
-438.763	800.000	-0.068	0.256
-437.749	85.412	-0.184	0.199
-436.734	-0.931	0.201	0.140
-435.719	370.008	0.138	-0.277
-434.705	-63.940	0.177	-0.071
-433.690	303.204	-0.045	0.082
-432.676	-20.435	0.158	0.096
-431.661	-200.000	0.025	-0.156
-430.646	26.802	-0.134	-0.110
-429.632	103.619	-0.163	0.189
-428.617	-200.000	0.266	-0.000
-427.603	-98.091	0.118	-0.030
-426.588	-74.865	0.269	0.095
-425.573	27.223	-0.103	0.085
-424.559	294.888	-0.151	-0.272
-423.544	75.776	-0.068	0.070
-422.530	566.239	0.094	0.225
-421.515	289.915	0.105	0.189
-420.500	49.846	-0.155	0.144
-419.486	800.000	-0.025	0.106
-418.471	120.984	0.108	0.133
-417.457	-167.608	-0.376	-0.015
-416.442	195.236	-0.165	-0.247
-415.428	-49.104	0.239	-0.113
-414.413	-107.664	-0.337	-0.073
-413.398	131.646	-0.183	0.232
-412.384	-53.281	0.233	0.105
-411.369	-200.000	0.005	-0.315
-410.355	-18.170	0.190	-0.117
-409.340	-164.576	0.201	0.009
-408.325	130.712	-0.160	-0.202
-407.311	246.798	0.049	0.082
-406.296	0.213	0.185	-0.130
-405.282	-54.295	0.202	-0.090
-404.267	216.557	0.262	0.411
-403.252	-106.329	0.076	-0.017
-402.238	-65.890	-0.109	0.043
-401.223	349.466	0.083	-0.162
-400.209	28.062	0.035	0.029
-399.194	599.135	-0.083	0.203
-398.179	-61.741	0.464	0.192
-397.165	-200.000	-0.043	-0.305
-396.150	-200.000	-0.008	0.249
-395.136	56.095	0.115	0.110
-394.121	-145.615	-0.716	-0.063
-393.106	-111.959	-0.307	-0.061
-392.092	-200.000	0.019	0.115
-391.077	-52.061	0.274	-0.125
-390.063	62.356	0.294	-0.289
-389.048	-200.000	-0.033	0.173
-388.033	-39.899	0.136	-0.070
-387.019	271.441	-0.103	-0.179
-386.004	-199.158	-0.172	-0.001
-384.990	-200.000	-0.056	-0.473
-383.975	28.537	0.007	0.006
-382.960	-200.000	0.002	0.264
-381.946	-200.000	0.022	0.253
-380.931	-200.000	-0.060	0.753
-379.917	-73.227	0.235	-0.085
-378.902	56.147	0.124	0.118
-377.888	672.253	-0.071	0.182
-376.873	241.852	0.194	-0.319
-375.858	-34.568	0.239	-0.129
-374.844	800.000	-0.074	0.260
-373.829	208.724	0.216	-0.333
-372.815	11.840	-0.199	-0.150
-371.800	-128.279	0.015	-0.002
-370.785	-81.412	0.188	-0.061
-369.771	-200.000	-0.045	-0.384
-368.756	345.045	-0.168	0.325
-367.742	-15.516	0.185	0.117
-366.727	227.264	-0.154	0.246
-365.712	151.774	-0.078	0.105
-364.698	-54.740	-0.512	0.227
-363.683	2.682	0.073	-0.052
-362.669	17.774	0.261	0.204
-361.654	69.585	0.151	0.153
-360.639	-30.531	0.124	-0.069
-359.625	-144.103	-0.424	-0.039
-358.610	21.558	-0.146	-0.116
-357.596	-108.644	0.441	0.093
-356.581	-200.000	0.028	-0.261
-355.566	-130.835	-0.229	-0.030
-354.552	-80.364	0.084	-0.028
-353.537	-16.421	0.341	0.213
-352.523	-32.881	0.067	0.036
-351.508	330.718	-0.174	0.329
-350.493	-76.044	0.328	-0.114
-349.479	-86.231	0.161	0.049
-348.464	-33.398	-0.394	0.214
-347.450	500.315	-0.145	0.329
-346.435	-200.000	0.037	-0.235
-345.420	-111.676	-0.174	-0.035
-344.406	94.388	-0.181	-0.202
-343.391	-61.103	-0.469	-0.194
-342.377	265.477	0.149	-0.255
-341.362	800.000	0.077	-0.269
-340.348	352.053	0.083	-0.162
-339.333	-42.535	0.134	0.067
-338.318	103.037	0.142	-0.164
-337.304	-106.480	-0.242	0.053
-336.289	70.639	-0.107	-0.109
-335.275	-155.847	0.260	0.016
-334.260	-116.949	0.233	-0.042
-333.245	800.000	-0.015	-0.051
-332.231	112.866	0.099	-0.118
-331.216	-97.215	-0.173	0.044
-330.202	96.454	0.108	0.121
-329.187	-161.804	-0.176	-0.009
-328.172	-118.800	0.099	0.017
-327.158	-118.477	-0.095	-0.016
-326.143	-24.469	0.371	0.217
-325.129	-200.000	-0.014	0.073
-324.114	9.512	0.053	-0.039
-323.099	506.317	-0.022	0.051
-322.085	-200.000	0.270	0.001
-321.070	37.002	-0.172	-0.150
-320.056	-64.153	0.099	0.040
-319.041	-14.115	0.132	0.084
-318.026	-9.616	-0.256	-0.167
-317.012	-99.123	0.048	0.012
-315.997	128.295	0.128	0.160
-314.983	71.835	-0.211	-0.215
-313.968	-200.000	0.010	-0.069
-312.953	65.834	0.141	0.140
-311.939	-57.669	-0.114	-0.049
-310.924	351.068	-0.085	0.166
-309.910	239.875	0.165	-0.269
-308.895	-21.479	-0.119	0.071
-307.880	-200.000	-0.004	-0.219
-306.866	-30.772	-0.165	0.091
-305.851	68.996	0.088	0.089
-304.837	-194.239	-0.188	-0.001
-303.822	268.020	0.098	-0.169
-302.807	-166.179	0.403	0.017
-301.793	178.282	0.193	-0.276
-300.778	-3.722	-0.183	-0.125
-299.764	-56.871	0.192	-0.083
-298.749	-45.182	0.279	0.136
-297.735	48.802	-0.184	0.170
-296.720	-200.000	-0.009	-0.126
-295.705	70.011	0.349	0.353
-294.691	-119.299	-0.089	0.015
-293.676	290.891	-0.132	-0.236
-292.662	-169.798	-0.046	0.002
-291.647	800.000	-0.016	0.058
-290.632	-200.000	-0.010	-0.106
-289.618	-26.712	-0.201	0.115
-288.603	-21.514	-0.205	-0.122
-287.589	-61.291	0.204	0.084
-286.574	-61.269	0.232	0.096
-285.559	109.093	-0.180	0.211
-284.545	-1.143	0.091	0.063
-283.530	-49.216	0.270	0.127
-282.516	17.239	0.268	0.208
-281.501	800.000	-0.034	-0.132
-280.486	-200.000	0.046	0.288
-279.472	-100.929	0.196	0.047
-278.457	800.000	0.080	-0.294
-277.443	-157.330	-0.209	-0.012
-276.428	227.978	0.178	0.284
-275.413	26.664	0.138	-0.113
-274.399	-200.000	0.023	0.266
-273.384	-200.000	-0.050	0.375
-272.370	800.000	-0.070	-0.209
-271.355	25.914	-0.062	0.051
-270.340	-65.207	0.126	0.050
-269.326	-93.465	-0.314	0.085
-268.311	162.304	-0.078	-0.108
-267.297	-200.000	0.019	0.113
-266.282	-105.407	0.195	-0.043
-265.267	-69.823	-0.361	0.135
-264.253	-24.976	-0.231	-0.134
-263.238	-79.553	0.302	-0.100
-262.224	800.000	0.056	0.225
-261.209	-169.956	-0.163	-0.006
-260.195	235.930	0.037	-0.060
-259.180	222.205	-0.299	-0.471
-258.165	-200.000	-0.020	-0.117
-257.151	-2.798	0.266	-0.182
-256.136	260.124	0.178	0.302
-255.122	-18.506	0.316	-0.193
-254.107	-149.921	0.235	-0.018
-253.092	302.225	0.164	-0.298
-252.078	214.389	0.084	-0.131
-251.063	71.402	-0.162	-0.165
-250.049	-93.181	-0.223	0.061
-249.034	-78.956	-0.079	-0.026
-248.019	105.368	0.138	0.159
-247.005	-141.432	-0.140	0.014
-245.990	-21.682	-0.064	-0.038
-244.976	-200.000	-0.031	-0.147
-243.961	-129.458	0.221	0.030
-242.946	-80.875	0.092	0.030
-241.932	-165.267	0.148	0.006
-240.917	-67.643	0.153	-0.059
-239.903	-146.585	0.255	0.022
-238.888	301.307	0.087	0.157
-237.873	800.000	0.070	0.246
-236.859	-200.000	0.062	0.405
-235.844	-48.538	0.236	0.111
-234.830	-52.005	-0.242	0.110
-233.815	-39.453	-0.238	-0.122
-232.800	-200.000	0.358	0.002
-231.786	-200.000	-0.018	0.104
-230.771	-60.776	0.177	-0.073
-229.757	-200.000	-0.035	0.292
-228.742	-200.000	-0.043	-0.214
-227.727	128.309	0.242	0.301
-226.713	68.923	-0.269	-0.270
-225.698	-114.598	0.322	0.060
-224.684	-83.621	-0.175	-0.055
-223.669	-61.661	0.341	-0.140
-222.655	-156.998	-0.259	-0.016
-221.640	170.112	0.117	-0.164
-220.625	25.439	-0.468	0.380
-219.611	146.407	-0.077	0.102
-218.596	200.776	0.240	0.360
-217.582	-45.666	0.148	-0.072
-216.567	59.289	0.150	-0.144
-215.552	800.000	-0.090	0.302
-214.538	-200.000	-0.019	0.225
-213.523	-69.315	-0.191	0.072
-212.509	53.098	0.319	0.298
-211.494	66.687	-0.097	-0.097
-210.479	-200.000	-0.026	-0.265
-209.465	-66.430	0.254	-0.099
-208.450	-121.439	-0.224	0.036
-207.436	-200.000	0.005	-0.271
-206.421	577.739	-0.112	-0.268
-205.406	81.763	0.149	0.157
-204.392	-200.000	0.001	0.107
-203.377	52.959	0.205	0.192
-202.363	15.372	0.150	-0.115
-201.348	466.166	0.062	0.136
-200.333	103.053	-0.173	-0.198
-199.319	293.499	0.032	-0.056
-198.304	52.502	-0.222	-0.207
-197.290	-48.740	0.110	0.052
-196.275	800.000	0.111	0.411
-195.260	33.586	-0.104	0.088
-194.246	46.148	0.422	-0.382
-193.231	-106.658	0.058	-0.013
-192.217	-88.342	0.184	-0.054
-191.202	800.000	0.082	-0.227
-190.187	-200.000	-0.035	-0.400
-189.173	-110.720	-0.293	0.059
-188.158	-200.000	-0.002	0.130
-187.144	-200.000	0.020	-0.231
-186.129	741.479	0.121	0.318
-185.114	-107.160	0.360	0.077
-184.100	69.594	0.310	-0.312
-183.085	-200.000	-0.024	0.104
-182.071	-32.369	0.374	-0.204
-181.056	597.738	-0.230	-0.557
-180.042	469.976	-0.069	-0.152
-179.027	-72.119	-0.050	0.018
-178.012	-21.605	-0.061	-0.036
-176.998	261.832	0.108	-0.182
-175.983	233.522	0.051	-0.082
-174.969	-23.771	0.051	-0.030
-173.954	-143.119	-0.272	0.026
-172.939	-121.436	-0.266	0.043
-171.925	-115.790	0.212	-0.039
-170.910	-52.582	0.245	0.110
-169.896	48.107	-0.175	0.160
-168.881	587.364	0.076	-0.182
-167.866	-200.000	0.024	0.339
-166.852	-86.596	0.083	-0.025
-165.837	-121.787	-0.180	-0.029
-164.823	-125.397	0.119	-0.018
-163.808	800.000	-0.018	0.049
-162.793	25.065	-0.275	0.223
-161.779	-91.868	0.178	0.049
-160.764	42.527	0.134	-0.119
-159.750	606.014	-0.048	-0.117
-158.735	187.530	0.136	-0.198
-157.720	-155.671	-0.146	0.009
-156.706	-90.804	0.361	0.102
-155.691	700.788	-0.005	0.014
-154.677	-155.498	0.615	0.039
-153.662	-200.000	0.008	-0.067
-152.647	-80.253	0.311	0.101
-151.633	800.000	0.005	0.017
-150.618	27.722	0.055	0.045
-149.604	2.866	0.419	0.297
-148.589	-200.000	-0.018	0.131
-147.574	443.364	0.134	0.286
-146.560	-49.084	0.111	0.052
-145.545	187.574	-0.124	-0.181
-144.531	-49.962	-0.174	0.080
-143.516	170.441	0.085	0.119
-142.502	800.000	0.027	-0.115
-141.487	430.683	0.109	0.230
-140.472	-59.614	-0.067	-0.028
-139.458	-114.146	0.252	-0.047
-138.443	800.000	-0.020	-0.076
-137.429	800.000	-0.029	0.082
-136.414	-200.000	-0.002	-0.037
-135.399	-112.381	-0.205	-0.040
-134.385	184.548	-0.101	0.146
-133.370	209.217	0.125	-0.191
-132.356	47.736	0.317	-0.288
-131.341	-51.818	-0.089	0.040
-130.326	-200.000	0.009	0.239
-129.312	-200.000	0.030	-0.218
-128.297	492.669	-0.074	0.164
-127.283	-200.000	0.040	0.310
-126.268	-200.000	0.024	-0.230
-125.253	-94.912	0.188	-0.050
-124.239	12.306	-0.213	-0.160
-123.224	702.135	0.059	-0.151
-122.210	48.086	-0.071	0.065
-121.195	-200.000	-0.032	-0.208
-120.180	-200.000	-0.004	0.177
-119.166	-99.379	0.237	0.058
-118.151	51.850	-0.105	0.098
-117.137	144.082	0.092	-0.120
-116.122	429.327	-0.091	0.191
-115.107	-53.516	-0.030	0.014
-114.093	-165.806	0.248	-0.010
-113.078	800.000	0.081	0.273
-112.064	489.902	-0.092	-0.204
-111.049	263.707	0.027	0.046
-110.034	347.708	0.101	-0.193
-109.020	-85.392	-0.045	-0.014
-108.005	-200.000	-0.012	0.123
-106.991	116.610	0.248	0.296
-105.976	-43.205	-0.281	-0.139
-104.962	-160.802	-0.200	0.010
-103.947	-103.672	-0.202	0.046
-102.932	-200.000	0.021	0.115
-101.918	488.401	0.084	0.187
-100.903	517.524	0.039	0.089
-99.889	181.839	0.074	-0.106
-98.874	-74.984	-0.255	0.089
-97.859	800.000	0.152	0.463
-96.845	95.207	0.172	-0.190
-95.830	-9.646	-0.056	0.036
-94.816	72.416	0.163	0.165
-93.801	-84.323	0.281	0.087
-92.786	-200.000	-0.006	-0.046
-91.772	171.584	-0.043	-0.060
-90.757	86.375	0.163	-0.175
-89.743	-200.000	-0.006	-0.071
-88.728	113.112	-0.277	0.327
-87.713	-109.735	0.057	0.012
-86.699	-200.000	0.030	-0.318
-85.684	-200.000	-0.001	0.024
-84.670	-200.000	-0.008	-0.146
-83.655	800.000	-0.102	-0.369
-82.640	-134.596	-0.254	-0.030
-81.626	-134.250	-0.062	-0.007
-80.611	-114.702	-0.241	-0.045
-79.597	-97.918	0.475	-0.119
-78.582	-160.019	-0.147	-0.008
-77.567	-200.000	0.049	0.448
-76.553	-200.000	-0.036	0.237
-75.538	-80.484	-0.214	0.069
-74.524	-200.000	-0.046	0.308
-73.509	-200.000	0.055	-0.241
-72.494	-92.715	-0.246	-0.067
-71.480	-33.134	0.327	0.176
-70.465	-100.793	0.380	0.091
-69.451	-11.464	-0.149	0.095
-68.436	-161.138	-0.238	-0.012
-67.422	275.406	0.125	-0.216
-66.407	-200.000	0.008	-0.178
-65.392	800.000	0.072	0.209
-64.378	-102.629	0.320	-0.074
-63.363	-19.974	-0.034	0.021
-62.349	-200.000	0.037	-0.180
-61.334	28.181	-1.245	-1.022
-60.319	81.825	0.611	0.643
-59.305	88.285	-0.883	-0.953
-58.290	211.114	0.815	1.246
-57.276	800.000	0.557	1.653
-56.261	-200.000	128.125	672.783
-55.246	408.827	1611.974	3315.853
-54.232	137.646	2778.670	3535.524
-53.217	89.936	2306.165	2503.552
-52.203	31.963	1906.702	1596.449
-51.188	25.682	1702.700	1377.682
-50.173	23.821	1662.917	1331.512
-49.159	45.656	1733.450	1556.218
-48.144	42.857	1744.488	1544.617
-47.130	25.362	1695.820	1369.454
-46.115	22.892	1679.933	1337.891
-45.100	22.706	1674.930	1332.442
-44.086	22.681	1672.732	1330.456
-43.071	22.596	1670.227	1327.770
-42.057	22.624	1667.739	1325.952
-41.042	22.794	1665.397	1325.308
-40.027	22.725	1663.798	1323.468
-39.013	22.625	1662.222	1321.414
-37.998	22.690	1660.635	1320.583
-36.984	22.695	1659.340	1319.541
-35.969	22.788	1658.091	1319.191
-34.954	22.827	1656.134	1317.871
-33.940	22.776	1654.374	1316.041
-32.925	22.713	1653.043	1314.457
-31.911	22.776	1651.219	1313.422
-30.896	22.874	1649.273	1312.557
-29.881	22.841	1647.910	1311.169
-28.867	22.726	1646.803	1309.383
-27.852	22.779	1645.078	1308.355
-26.838	22.728	1643.689	1306.823
-25.823	22.883	1642.084	1306.642
-24.809	22.935	1640.870	1306.005
-23.794	22.859	1639.668	1304.437
-22.779	22.798	1637.996	1302.603
-21.765	22.804	1636.823	1301.666
-20.750	22.729	1635.293	1299.844
-19.736	22.870	1633.705	1299.566
-18.721	22.941	1632.187	1298.828
-17.706	22.726	1631.400	1296.569
-16.692	22.807	1629.274	1295.424
-15.677	22.783	1628.168	1294.316
-14.663	22.822	1626.566	1293.277
-13.648	22.830	1625.700	1292.595
-12.633	22.760	1623.756	1290.486
-11.619	22.880	1622.273	1290.133
-10.604	22.808	1620.717	1288.321
-9.590	22.828	1619.566	1287.504
-8.575	22.909	1617.712	1286.565
-7.560	22.825	1617.081	1285.400
-6.546	22.867	1616.127	1284.900
-5.531	22.821	1615.010	1283.625
-4.517	22.822	1613.748	1282.581
-3.502	22.790	1612.679	1281.446
-2.487	22.911	1611.147	1281.053
-1.473	22.410	1599.283	1267.961
-0.458	19.625	1579.782	1232.611
0.556	14.586	1582.024	1202.213
1.571	12.443	1606.151	1204.747
2.586	12.207	1618.654	1212.273
3.600	11.184	1564.086	1163.998
4.615	6.180	1457.344	1051.082
5.629	1.187	1399.370	977.074
6.644	0.216	1392.446	965.926
7.659	0.167	1391.469	964.850
8.673	0.170	1390.492	964.107
9.688	0.097	1387.973	961.808
10.702	-0.174	1385.255	958.108
11.717	2.531	1387.755	977.027
12.731	9.070	1398.621	1026.523
13.746	14.991	1406.872	1070.473
14.761	16.746	1408.891	1083.145
15.775	16.108	1407.326	1077.773
16.790	15.244	1404.081	1069.679
17.804	14.567	1401.912	1063.618
18.819	14.068	1400.772	1059.480
19.834	13.879	1399.376	1057.126
20.848	13.623	1398.244	1054.547
21.863	13.411	1396.789	1052.011
22.877	13.232	1395.909	1050.114
23.892	13.248	1394.544	1049.101
24.907	13.203	1393.899	1048.237
25.921	13.159	1393.408	1047.493
26.936	13.179	1392.128	1046.565
27.950	13.264	1391.168	1046.292
28.965	13.337	1390.135	1045.882
29.980	13.396	1389.110	1045.391
30.994	13.380	1388.313	1044.594
32.009	13.435	1387.611	1044.325
33.023	13.324	1386.298	1042.543
34.038	13.369	1385.173	1041.887
35.053	13.276	1384.079	1040.389
36.067	13.319	1382.453	1039.347
37.082	13.352	1381.726	1038.911
38.096	13.429	1380.883	1038.669
39.111	13.358	1379.950	1037.431
40.126	13.280	1379.117	1036.224
41.140	13.264	1378.086	1035.260
42.155	13.087	1378.336	1034.249
43.169	13.260	1377.374	1034.515
44.184	13.225	1376.991	1033.916
45.199	13.154	1376.901	1033.314
46.213	13.227	1376.238	1033.180
47.228	13.304	1374.906	1032.573
48.242	13.154	1374.416	1031.177
49.257	13.261	1372.633	1030.415
50.271	13.274	1371.172	1029.304
51.286	13.404	1369.356	1028.657
52.301	13.303	1368.549	1027.336
53.315	13.317	1367.255	1026.360
54.330	13.255	1366.049	1024.978
55.344	13.222	1364.590	1023.587
56.359	13.148	1364.099	1022.672
57.374	13.187	1363.193	1022.141
58.388	13.153	1362.473	1021.303
59.403	13.148	1361.963	1020.798
60.417	13.187	1361.176	1020.360
61.432	13.168	1359.982	1019.258
62.447	13.121	1359.088	1018.210
63.461	13.060	1357.945	1016.887
64.476	13.141	1356.584	1016.276
65.490	13.074	1355.299	1014.810
66.505	13.079	1353.853	1013.669
67.520	13.145	1353.059	1013.391
68.534	13.051	1351.863	1011.828
69.549	13.135	1350.704	1011.386
70.563	13.098	1349.287	1010.011
71.578	13.040	1348.586	1009.037
72.593	13.110	1347.880	1008.852
73.607	12.974	1346.995	1007.268
74.622	13.059	1345.993	1006.951
75.636	13.029	1345.122	1006.028
76.651	12.980	1344.306	1005.024
77.666	13.045	1343.874	1005.011
78.680	13.070	1343.110	1004.501
79.695	13.090	1342.024	1003.721
80.709	13.155	1341.290	1003.479
81.724	13.088	1340.817	1002.633
82.739	13.204	1339.569	1002.314
83.753	13.286	1338.310	1001.776
84.768	13.174	1338.140	1000.882
85.782	13.280	1336.128	999.929
86.797	13.246	1335.000	998.794
87.812	13.150	1333.737	997.178
88.826	13.147	1332.763	996.345
89.841	13.221	1331.730	995.930
90.855	13.238	1330.288	994.866
91.870	13.252	1329.751	994.464
92.884	13.345	1328.567	994.047
93.899	13.368	1327.575	993.358
94.914	13.397	1326.848	992.897
95.928	13.289	1326.065	991.574
96.943	13.345	1325.017	991.044
97.957	13.333	1324.167	990.247
98.972	13.450	1323.216	990.148
99.987	13.293	1322.570	988.640
101.001	13.292	1321.465	987.717
102.016	13.386	1320.050	987.135
103.030	13.361	1319.215	986.274
104.045	13.371	1318.575	985.765
105.060	13.259	1317.466	984.181
106.074	13.272	1315.681	982.843
107.089	13.132	1314.817	981.275
108.103	13.179	1313.338	980.364
109.118	13.235	1312.058	979.654
110.133	13.223	1310.514	978.342
111.147	13.334	1309.131	977.880
112.162	13.275	1308.075	976.656
113.176	13.256	1306.929	975.601
114.191	13.265	1306.238	975.055
115.206	13.265	1304.908	973.972
116.220	13.264	1303.731	973.007
117.235	13.213	1303.009	972.080
118.249	13.301	1301.237	971.186
119.264	13.216	1300.415	969.988
120.279	13.164	1299.481	968.902
121.293	13.158	1298.303	967.904
122.308	13.202	1297.572	967.530
123.322	13.180	1296.186	966.283
124.337	13.160	1295.044	965.231
125.352	13.150	1294.335	964.559
126.366	13.175	1293.026	963.642
127.381	13.194	1291.778	962.737
128.395	13.196	1290.776	961.916
129.410	13.199	1289.838	961.149
130.424	13.205	1289.125	960.568
131.439	13.203	1287.993	959.627
132.454	13.139	1287.359	958.702
133.468	13.302	1285.970	958.523
134.483	13.210	1285.358	957.454
135.497	13.287	1284.422	957.114
136.512	13.258	1283.162	955.927
137.527	13.201	1282.039	954.676
138.541	13.223	1280.012	953.204
139.556	13.246	1279.004	952.503
140.570	13.224	1278.485	951.910
141.585	13.458	1276.170	951.445
142.600	13.394	1274.985	950.109
143.614	13.470	1274.113	949.810
144.629	13.466	1273.419	949.188
145.643	13.304	1272.550	947.528
146.658	13.491	1270.689	947.126
147.673	13.391	1269.456	945.554
148.687	13.340	1268.738	944.646
149.702	13.359	1266.781	943.213
150.716	13.381	1265.482	942.285
151.731	13.326	1264.429	941.105
152.746	13.412	1263.183	940.582
153.760	13.456	1262.343	940.122
154.775	13.341	1261.506	938.767
155.789	13.384	1260.082	937.865
156.804	13.523	1258.636	937.495
157.819	13.530	1257.676	936.733
158.833	13.564	1256.758	936.161
159.848	13.578	1256.034	935.617
160.862	13.596	1254.827	934.741
161.877	13.617	1253.434	933.738
162.892	13.487	1252.685	932.364
163.906	13.562	1251.747	932.004
164.921	13.522	1250.875	931.048
165.935	13.484	1250.084	930.162
166.950	13.583	1248.956	929.798
167.964	13.622	1248.360	929.489
168.979	13.509	1248.137	928.610
169.994	13.586	1247.037	928.139
171.008	13.708	1246.147	928.079
172.023	13.695	1245.196	927.214
173.037	13.742	1243.941	926.462
174.052	13.690	1243.432	925.710
175.067	13.744	1242.482	925.223
176.081	13.660	1241.660	924.058
177.096	13.591	1240.276	922.563
178.110	13.615	1239.442	921.994
179.125	13.643	1238.487	921.359
180.140	13.762	1236.561	920.505
181.154	13.669	1236.025	919.506
182.169	13.657	1234.766	918.422
183.183	13.794	1233.436	918.113
184.198	13.789	1232.102	917.007
185.213	13.888	1231.019	916.670
186.227	13.767	1230.135	915.264
187.242	13.827	1228.795	914.514
188.256	13.922	1227.751	914.180
189.271	13.914	1226.829	913.369
190.286	13.808	1225.987	912.080
191.300	13.737	1225.048	910.910
192.315	13.693	1224.506	910.182
193.329	13.757	1223.800	909.930
194.344	13.785	1222.840	909.290
195.359	13.820	1222.917	909.457
196.373	13.877	1222.178	909.137
197.388	13.826	1221.762	908.470
198.402	13.962	1220.939	908.523
199.417	13.986	1220.313	908.108
200.432	14.092	1219.063	907.675
201.446	14.131	1218.653	907.500
202.461	14.110	1217.911	906.754
203.475	14.162	1216.926	906.222
204.490	14.073	1215.371	904.502
205.504	13.986	1213.995	902.927
206.519	14.050	1212.705	902.232
207.534	14.101	1211.268	901.360
208.548	14.170	1210.403	901.011
209.563	14.087	1210.100	900.257
210.577	14.076	1209.456	899.635
211.592	14.204	1208.039	899.194
212.607	14.134	1207.946	898.669
213.621	14.156	1207.419	898.315
214.636	14.182	1205.844	897.206
215.650	14.285	1204.486	896.669
216.665	14.319	1204.031	896.433
217.680	14.359	1202.491	895.423
218.694	14.412	1201.880	895.175
219.709	14.347	1201.160	894.211
220.723	14.283	1200.573	893.351
221.738	14.221	1200.125	892.605
222.753	14.337	1198.967	892.285
223.767	14.322	1198.263	891.604
224.782	14.389	1197.647	891.423
225.796	14.457	1197.407	891.533
226.811	14.493	1196.086	890.659
227.826	14.439	1195.334	889.733
228.840	14.463	1194.696	889.307
229.855	14.430	1194.014	888.547
230.869	14.462	1193.258	888.076
231.884	14.437	1192.448	887.260
232.899	14.343	1191.939	886.302
233.913	14.461	1190.593	885.854
234.928	14.434	1190.301	885.414
235.942	14.289	1189.656	884.085
236.957	14.391	1188.324	883.560
237.972	14.338	1188.014	882.970
238.986	14.382	1187.410	882.672
240.001	14.525	1186.429	882.621
241.015	14.436	1185.885	881.672
242.030	14.405	1185.380	881.055
243.045	14.503	1184.049	880.502
244.059	14.586	1182.938	880.037
245.074	14.731	1182.218	880.187
246.088	14.640	1181.524	879.112
247.103	14.659	1181.007	878.753
248.117	14.625	1180.779	878.323
249.132	14.725	1179.337	877.698
250.147	14.817	1178.660	877.603
251.161	14.797	1177.721	876.722
252.176	14.734	1177.514	876.155
253.190	14.853	1176.576	876.004
254.205	14.889	1175.892	875.606
255.220	14.924	1175.346	875.307
256.234	14.926	1174.840	874.863
257.249	14.941	1174.028	874.257
258.263	14.955	1173.202	873.640
259.278	15.011	1172.584	873.394
260.293	14.975	1171.818	872.561
261.307	15.005	1171.519	872.416
262.322	15.001	1171.137	872.034
263.336	14.995	1170.387	871.369
264.351	15.063	1169.817	871.217
265.366	15.129	1168.849	870.762
266.380	15.035	1168.643	870.042
267.395	15.122	1167.347	869.453
268.409	15.190	1166.290	868.941
269.424	15.142	1165.893	868.322
270.439	15.182	1165.377	868.067
271.453	15.118	1164.795	867.228
272.468	15.112	1163.529	866.173
273.482	15.161	1162.769	865.786
274.497	15.231	1162.191	865.639
275.512	15.080	1161.748	864.457
276.526	15.153	1161.007	864.205
277.541	15.098	1160.509	863.471
278.555	15.183	1159.373	862.988
279.570	15.049	1159.229	862.114
280.585	15.267	1157.932	862.196
281.599	15.399	1156.737	861.909
282.614	15.246	1156.061	860.541
283.628	15.244	1154.830	859.542
284.643	15.279	1153.598	858.728
285.657	15.275	1153.246	858.370
286.672	15.248	1152.232	857.396
287.687	15.289	1151.617	857.075
288.701	15.262	1150.773	856.232
289.716	15.365	1149.904	856.035
290.730	15.407	1149.299	855.722
291.745	15.382	1148.508	854.933
292.760	15.544	1147.637	855.033
293.774	15.424	1147.341	854.125
294.789	15.558	1146.724	854.273
295.803	15.499	1145.871	853.263
296.818	15.461	1145.271	852.544
297.833	15.614	1144.167	852.424
298.847	15.545	1143.459	851.471
299.862	15.540	1142.548	850.695
300.876	15.561	1142.443	850.647
301.891	15.488	1141.716	849.661
302.906	15.655	1140.713	849.683
303.920	15.639	1139.925	848.939
304.935	15.747	1139.251	848.911
305.949	15.725	1139.011	848.545
306.964	15.723	1137.970	847.684
307.979	15.759	1137.057	847.110
308.993	15.726	1136.761	846.649
310.008	15.721	1135.655	845.726
311.022	15.753	1134.586	845.011
312.037	15.839	1133.924	844.879
313.052	15.773	1133.033	843.808
314.066	15.788	1132.068	843.088
315.081	15.766	1131.371	842.387
316.095	15.779	1130.595	841.799
317.110	15.642	1130.260	840.791
318.125	15.740	1129.120	840.358
319.139	15.819	1128.111	839.925
320.154	15.806	1127.516	839.345
321.168	15.680	1127.625	838.721
322.183	15.795	1126.488	838.374
323.197	15.834	1126.041	838.163
324.212	15.766	1125.665	837.471
325.227	15.892	1124.720	837.320
326.241	15.965	1123.915	837.009
327.256	15.908	1122.994	835.966
328.270	15.931	1122.182	835.403
329.285	15.929	1120.948	834.397
330.300	15.857	1120.131	833.360
331.314	15.913	1119.515	833.103
332.329	15.891	1118.516	832.181
333.343	15.942	1117.481	831.586
334.358	15.981	1116.509	830.984
335.373	15.936	1116.193	830.453
336.387	16.001	1115.682	830.318
337.402	16.024	1114.483	829.466
338.416	16.088	1113.612	829.060
339.431	16.121	1113.357	828.957
340.446	16.008	1113.092	828.132
341.460	16.250	1111.952	828.398
342.475	16.139	1111.099	827.145
343.489	16.168	1110.086	826.462
344.504	16.249	1108.949	825.939
345.519	16.217	1108.273	825.205
346.533	16.298	1107.371	824.857
347.548	16.415	1106.711	824.864
348.562	16.378	1106.052	824.117
349.577	16.326	1104.977	822.988
350.592	16.300	1104.702	822.584
351.606	16.287	1104.133	822.028
352.621	16.222	1103.238	820.970
353.635	16.143	1102.608	820.045
354.650	16.185	1102.036	819.751
355.665	16.349	1101.003	819.707
356.679	16.338	1099.995	818.828
357.694	16.392	1099.733	818.825
358.708	16.359	1098.870	817.951
359.723	16.424	1098.256	817.737
360.738	16.350	1097.644	816.850
361.752	16.354	1097.645	816.798
362.767	16.347	1096.570	815.888
363.781	16.503	1096.237	816.324
364.796	16.593	1095.144	815.872
365.810	16.588	1095.254	815.857
366.825	16.499	1094.400	814.719
367.840	16.492	1094.182	814.453
368.854	16.649	1093.327	814.500
369.869	16.606	1092.538	813.633
370.883	16.742	1091.291	813.286
371.898	16.658	1090.621	812.312
372.913	16.523	1090.629	811.595
373.927	16.689	1090.170	811.980
374.942	16.711	1089.145	811.253
375.956	16.699	1088.933	810.963
376.971	16.684	1087.946	810.087
377.986	16.793	1087.261	810.025
379.000	16.780	1086.837	809.572
380.015	16.798	1086.570	809.388
381.029	16.719	1085.854	808.409
382.044	16.844	1084.977	808.280
383.059	16.915	1083.996	807.815
384.073	16.821	1083.299	806.777
385.088	16.962	1082.311	806.640
386.102	16.967	1081.332	805.862
387.117	16.845	1080.627	804.685
388.132	16.779	1080.035	803.861
389.146	16.866	1078.834	803.308
390.161	16.963	1077.983	803.065
391.175	16.789	1077.565	801.857
392.190	16.843	1076.958	801.591
393.205	16.976	1076.232	801.609
394.219	16.946	1075.501	800.850
395.234	17.027	1074.006	800.047
396.248	16.957	1073.225	799.064
397.263	16.897	1072.405	798.101
398.278	16.981	1071.736	797.931
399.292	16.922	1070.732	796.835
400.307	17.006	1070.407	796.914
401.321	16.937	1070.120	796.305
402.336	17.018	1069.275	795.987
403.350	16.953	1068.734	795.211
404.365	17.003	1067.834	794.705
405.380	17.046	1067.134	794.314
406.394	17.112	1066.111	793.793
407.409	17.166	1065.506	793.525
408.423	17.185	1064.645	792.902
409.438	17.047	1064.226	791.875
410.453	17.247	1063.345	792.083
411.467	17.342	1062.449	791.787
412.482	17.305	1061.801	791.061
413.496	17.285	1061.226	790.471
414.511	17.462	1060.546	790.714
415.526	17.450	1060.213	790.342
416.540	17.417	1059.738	789.765
417.555	17.428	1058.878	789.106
418.569	17.325	1058.875	788.554
419.584	17.507	1058.058	788.721
420.599	17.551	1057.691	788.578
421.613	107.970	1331.378	1488.082
422.628	99.581	1371.188	1488.190
