DTS Sentinel unit serial number:	SN413079Multiplexer serial number:	ORYXHardware model number:	OX4-SRSoftware version number:	ORYX F/W v4.00 Oryx Data Collector v3.7.2.0data status	okinstallation	princeton_trtdifferential loss correction	single-endedforward channel	channel 2reverse channel	N/Adate	2019/09/17time	04:03:35forward acquisition time	60.00reverse acquisition time	0.00gamma	496.2192k internal	0.2327k external	0.2327temperature offset calibration	0.9972default loss term (dB/km)	0.3790temperature slope calibration	1.0000multiplexer offset coefficient	1.0000multiplexer slope coefficient	1.0000fibre end	0.00T internal ref (°C)	29.87T ext. ref 1 (°C)	0.12T ext. ref 2 (°C)	24.38length (m)	temperature (°C)	Stokes	anti-Stokes-747.200	-124.494	-0.245	0.038
-746.185	-2.589	0.150	-0.106
-745.171	476.412	0.062	0.141
-744.156	-140.387	-0.232	0.024
-743.142	154.329	0.306	-0.423
-742.127	-200.000	0.032	0.186
-741.112	8.767	0.039	-0.030
-740.098	164.785	0.157	0.224
-739.083	-200.000	0.013	0.103
-738.069	-200.000	0.021	0.251
-737.054	212.993	-0.075	-0.119
-736.039	-31.382	-0.400	0.227
-735.025	800.000	0.036	0.121
-734.010	-154.775	0.154	-0.010
-732.996	-33.268	0.157	0.087
-731.981	45.595	-0.237	-0.221
-730.966	84.780	-0.032	0.035
-729.952	156.602	0.227	-0.316
-728.937	274.408	-0.111	-0.197
-727.923	-155.096	0.110	0.007
-726.908	-128.462	-0.227	-0.032
-725.894	241.866	0.074	-0.125
-724.879	-31.637	-0.288	0.163
-723.864	276.845	0.044	-0.079
-722.850	116.237	-0.226	-0.279
-721.835	357.073	-0.061	-0.123
-720.821	-57.918	0.306	-0.135
-719.806	-200.000	-0.029	0.173
-718.791	-200.000	0.019	0.142
-717.777	-18.629	0.026	0.017
-716.762	-200.000	0.001	-0.287
-715.748	-120.719	0.299	-0.051
-714.733	800.000	0.052	0.149
-713.718	-140.839	-0.220	0.023
-712.704	117.322	-0.133	-0.165
-711.689	-200.000	-0.096	0.537
-710.675	192.262	-0.137	-0.209
-709.660	-70.621	-0.213	0.081
-708.645	-89.562	0.130	0.039
-707.631	-40.774	0.193	0.101
-706.616	244.450	0.163	-0.276
-705.602	-109.965	-0.301	0.063
-704.587	-20.372	-0.292	-0.181
-703.572	-65.744	-0.075	0.030
-702.558	-53.688	0.113	-0.052
-701.543	135.107	0.199	-0.260
-700.529	-200.000	-0.039	-0.222
-699.514	-94.762	-0.376	-0.103
-698.499	-77.544	0.167	0.058
-697.485	800.000	-0.078	-0.253
-696.470	110.504	-0.129	0.156
-695.456	-22.294	0.282	0.172
-694.441	-200.000	0.011	0.390
-693.426	9.467	0.108	-0.082
-692.412	-41.197	0.415	0.215
-691.397	94.578	-0.073	-0.083
-690.383	-87.705	0.120	0.036
-689.368	-200.000	-0.016	0.122
-688.354	-15.261	0.144	-0.093
-687.339	572.221	-0.118	0.288
-686.324	800.000	0.050	-0.217
-685.310	-90.997	0.262	0.076
-684.295	348.456	0.105	-0.208
-683.281	38.871	-0.103	0.093
-682.266	-50.411	0.279	0.132
-681.251	-134.802	0.074	0.009
-680.237	-30.115	-0.075	-0.043
-679.222	132.314	0.322	-0.418
-678.208	-99.721	0.283	0.071
-677.193	252.567	-0.147	0.252
-676.178	-68.900	0.329	-0.128
-675.164	-6.500	-0.264	-0.181
-674.149	143.332	-0.133	0.177
-673.135	-67.885	0.398	0.156
-672.120	800.000	-0.031	0.086
-671.105	-135.362	-0.151	-0.018
-670.091	-128.258	0.202	0.029
-669.076	-55.399	0.141	-0.063
-668.062	66.655	-0.062	-0.063
-667.047	31.110	0.264	-0.227
-666.032	800.000	-0.126	-0.467
-665.018	-200.000	0.004	-0.248
-664.003	334.790	0.141	-0.274
-662.989	800.000	0.021	0.084
-661.974	25.434	-0.111	0.093
-660.959	3.986	-0.243	0.178
-659.945	126.435	0.187	0.238
-658.930	139.946	-0.111	-0.147
-657.916	-127.315	-0.183	0.027
-656.901	800.000	-0.108	-0.321
-655.886	-39.962	0.180	-0.094
-654.872	800.000	-0.099	-0.298
-653.857	490.312	-0.098	0.225
-652.843	138.958	0.074	-0.097
-651.828	22.643	-0.170	-0.140
-650.814	-200.000	-0.035	-0.170
-649.799	-200.000	-0.036	-0.296
-648.784	-89.918	-0.249	-0.073
-647.770	-200.000	0.024	-0.173
-646.755	124.821	0.080	0.101
-645.741	119.960	-0.167	-0.208
-644.726	-28.732	-0.060	0.035
-643.711	155.453	0.114	0.158
-642.697	-200.000	-0.008	0.061
-641.682	-104.378	-0.402	-0.094
-640.668	-106.533	0.148	0.033
-639.653	-137.861	-0.037	0.004
-638.638	-200.000	0.043	0.226
-637.624	-88.399	0.247	0.074
-636.609	-19.400	-0.158	-0.098
-635.595	-146.485	0.231	-0.020
-634.580	194.169	0.140	-0.213
-633.565	-90.296	0.199	-0.058
-632.551	-26.534	-0.221	-0.130
-631.536	-127.130	-0.233	-0.034
-630.522	494.302	0.081	0.186
-629.507	-106.800	-0.250	-0.056
-628.492	-107.004	0.437	0.097
-627.478	-46.573	-0.052	-0.026
-626.463	800.000	-0.012	0.049
-625.449	-197.923	-0.224	-0.001
-624.434	115.519	0.264	-0.324
-623.419	-55.466	0.103	0.046
-622.405	-108.165	0.145	0.032
-621.390	137.316	-0.119	-0.156
-620.376	-58.945	-0.158	0.069
-619.361	354.289	-0.075	0.150
-618.346	-200.000	0.030	-0.205
-617.332	-200.000	-0.018	0.377
-616.317	281.748	-0.033	-0.059
-615.303	-120.121	-0.162	-0.028
-614.288	-163.379	-0.369	0.018
-613.273	-101.528	-0.115	0.028
-612.259	-200.000	0.016	-0.131
-611.244	19.421	0.196	0.158
-610.230	-200.000	0.010	0.107
-609.215	308.836	-0.267	-0.500
-608.201	147.154	0.115	0.155
-607.186	66.471	-0.348	0.355
-606.171	90.732	-0.158	-0.177
-605.157	129.574	0.183	0.235
-604.142	800.000	0.070	-0.199
-603.128	0.230	0.214	-0.153
-602.113	-200.000	-0.023	0.290
-601.098	427.026	-0.013	-0.029
-600.084	-101.985	-0.184	0.045
-599.069	-4.161	-0.286	0.198
-598.055	345.710	0.124	-0.245
-597.040	-200.000	0.009	-0.098
-596.025	-26.051	-0.091	-0.053
-595.011	10.126	0.187	0.143
-593.996	81.374	0.074	0.081
-592.982	-200.000	0.049	-0.362
-591.967	-95.827	0.073	-0.019
-590.952	77.578	0.146	-0.156
-589.938	-68.134	-0.171	-0.067
-588.923	-80.633	0.243	-0.081
-587.909	-132.515	0.135	0.017
-586.894	2.193	-0.276	-0.200
-585.879	800.000	0.147	-0.587
-584.865	800.000	-0.008	-0.036
-583.850	-43.134	-0.429	0.218
-582.836	72.801	0.109	-0.114
-581.821	-32.268	0.178	-0.100
-580.806	76.221	0.386	0.409
-579.792	-105.029	0.140	-0.032
-578.777	142.521	0.303	0.402
-577.763	-200.000	0.012	-0.164
-576.748	-200.000	-0.016	0.176
-575.733	-60.401	0.119	-0.051
-574.719	443.299	-0.069	-0.151
-573.704	512.896	0.082	-0.191
-572.690	680.672	0.050	0.129
-571.675	-16.824	-0.423	0.268
-570.661	233.734	0.110	0.182
-569.646	12.421	0.190	0.147
-568.631	8.916	-0.164	0.124
-567.617	360.332	0.156	0.313
-566.602	-200.000	-0.039	0.224
-565.588	83.068	0.033	-0.036
-564.573	-37.777	-0.141	0.075
-563.558	118.905	0.154	-0.190
-562.544	-200.000	0.009	-0.114
-561.529	800.000	-0.044	-0.180
-560.515	-0.161	-0.234	0.167
-559.500	-200.000	-0.010	0.136
-558.485	-63.771	0.182	0.074
-557.471	-44.417	0.124	0.062
-556.456	-64.495	-0.122	-0.050
-555.442	13.735	0.129	-0.100
-554.427	-166.883	0.112	0.005
-553.412	-200.000	-0.014	-0.122
-552.398	-200.000	0.029	0.307
-551.383	-200.000	0.079	0.433
-550.369	438.603	-0.172	0.376
-549.354	-94.353	0.353	0.097
-548.339	800.000	0.112	-0.332
-547.325	-13.478	0.217	0.140
-546.310	-155.851	-0.268	-0.017
-545.296	-196.709	-0.337	-0.002
-544.281	-95.720	-0.111	0.030
-543.266	6.245	-0.219	-0.162
-542.252	-200.000	0.069	-0.328
-541.237	151.452	-0.052	0.071
-540.223	-48.192	-0.372	-0.179
-539.208	-200.000	0.036	0.244
-538.193	-200.000	0.004	0.256
-537.179	800.000	-0.027	0.113
-536.164	157.017	-0.115	0.159
-535.150	159.491	0.065	0.091
-534.135	-200.000	0.003	-0.034
-533.121	60.441	0.048	0.047
-532.106	-102.293	-0.107	0.026
-531.091	102.555	0.132	0.154
-530.077	-200.000	-0.020	0.119
-529.062	-54.465	-0.127	-0.058
-528.048	15.454	-0.255	-0.200
-527.033	146.593	0.106	-0.143
-526.018	164.397	-0.039	0.055
-525.004	421.402	-0.112	-0.240
-523.989	56.854	-0.284	-0.277
-522.975	115.118	0.213	0.260
-521.960	-25.014	-0.166	0.098
-520.945	-200.000	0.027	-0.273
-519.931	204.850	0.250	0.388
-518.916	-26.149	-0.557	0.327
-517.902	-79.288	-0.193	-0.065
-516.887	509.438	-0.198	0.460
-515.872	40.259	0.115	-0.103
-514.858	-78.603	0.332	0.113
-513.843	9.937	-0.172	0.131
-512.829	-94.327	0.140	0.038
-511.814	-145.401	-0.267	-0.024
-510.799	398.781	0.066	-0.138
-509.785	-38.003	0.182	-0.096
-508.770	-86.593	-0.035	0.011
-507.756	390.605	0.085	0.175
-506.741	522.541	0.014	0.033
-505.726	-141.016	-0.383	-0.039
-504.712	-118.435	0.141	0.025
-503.697	-57.384	0.344	-0.151
-502.683	800.000	-0.052	0.213
-501.668	800.000	-0.086	0.241
-500.653	13.467	-0.212	0.164
-499.639	128.404	0.060	0.077
-498.624	-108.138	-0.080	-0.017
-497.610	-57.781	0.490	-0.214
-496.595	-200.000	-0.008	0.034
-495.581	711.558	-0.039	0.102
-494.566	368.015	0.142	-0.287
-493.551	-125.324	-0.132	-0.020
-492.537	-200.000	-0.061	-0.379
-491.522	138.391	0.152	-0.199
-490.508	800.000	-0.090	0.354
-489.493	-200.000	0.021	0.215
-488.478	-200.000	0.024	-0.290
-487.464	-89.016	0.170	0.050
-486.449	-200.000	-0.058	0.283
-485.435	-22.031	-0.435	-0.264
-484.420	-42.125	0.050	-0.026
-483.405	506.068	-0.174	0.403
-482.391	-14.788	0.155	0.099
-481.376	145.141	-0.103	-0.137
-480.362	-139.949	0.355	-0.037
-479.347	-49.375	-0.125	-0.060
-478.332	-79.515	-0.192	-0.065
-477.318	-78.754	-0.136	-0.046
-476.303	800.000	-0.084	0.262
-475.289	-88.174	-0.400	-0.120
-474.274	109.100	-0.097	-0.116
-473.259	21.682	-0.156	-0.127
-472.245	468.269	-0.006	0.013
-471.230	107.681	-0.206	-0.245
-470.216	52.776	0.096	0.092
-469.201	-138.120	0.447	-0.050
-468.186	-60.649	0.159	-0.067
-467.172	-87.898	-0.291	0.087
-466.157	65.324	-0.190	0.192
-465.143	-137.541	-0.101	0.011
-464.128	26.619	0.049	0.041
-463.113	-128.452	0.114	0.016
-462.099	165.392	0.124	-0.175
-461.084	603.816	-0.067	-0.166
-460.070	160.195	-0.090	0.125
-459.055	-49.450	-0.281	-0.133
-458.040	271.367	-0.171	-0.299
-457.026	-45.175	0.089	0.044
-456.011	127.179	0.178	0.225
-454.997	461.635	-0.042	-0.094
-453.982	-167.126	0.384	0.016
-452.968	186.327	0.049	0.073
-451.953	-27.554	-0.078	0.045
-450.938	-126.682	0.260	0.038
-449.924	-74.735	-0.353	0.126
-448.909	-29.316	0.071	-0.041
-447.895	18.888	-0.354	-0.283
-446.880	790.393	0.077	-0.211
-445.865	109.647	0.258	-0.308
-444.851	-200.000	0.019	-0.174
-443.836	11.994	0.203	0.156
-442.822	800.000	0.068	0.209
-441.807	800.000	-0.044	0.157
-440.792	403.910	0.175	-0.368
-439.778	800.000	0.040	-0.128
-438.763	22.064	-0.072	0.058
-437.749	-200.000	-0.006	0.174
-436.734	18.220	-0.093	0.074
-435.719	-105.916	-0.168	0.038
-434.705	-37.349	0.201	-0.107
-433.690	800.000	-0.079	-0.284
-432.676	44.973	-0.150	0.137
-431.661	204.602	-0.118	-0.182
-430.646	-114.891	-0.067	-0.013
-429.632	-156.180	-0.194	0.012
-428.617	33.825	0.196	0.170
-427.603	-39.026	0.142	-0.075
-426.588	275.919	-0.068	-0.121
-425.573	316.271	0.136	0.256
-424.559	-111.274	0.219	0.044
-423.544	7.779	-0.051	0.038
-422.530	163.112	-0.030	-0.042
-421.515	-58.895	-0.073	-0.031
-420.500	-200.000	0.005	-0.151
-419.486	63.039	0.097	-0.096
-418.471	-72.167	0.317	0.117
-417.457	-88.296	0.114	-0.034
-416.442	-89.350	-0.257	0.075
-415.428	51.955	0.228	0.216
-414.413	-88.837	0.211	-0.062
-413.398	-3.336	-0.080	-0.055
-412.384	-152.966	0.125	-0.009
-411.369	-44.152	0.353	-0.176
-410.355	-130.898	-0.110	0.015
-409.340	800.000	0.076	0.283
-408.325	386.685	0.030	0.062
-407.311	-200.000	0.008	-0.280
-406.296	-200.000	0.043	0.352
-405.282	317.322	-0.184	-0.346
-404.267	467.843	-0.057	-0.127
-403.252	-142.296	0.087	0.009
-402.238	-132.725	0.100	-0.013
-401.223	733.289	-0.046	-0.122
-400.209	-200.000	-0.028	-0.321
-399.194	-58.072	-0.084	0.036
-398.179	706.202	-0.105	-0.276
-397.165	-86.960	-0.421	0.128
-396.150	42.390	0.256	-0.231
-395.136	0.003	0.047	-0.034
-394.121	-200.000	0.382	-0.001
-393.106	537.256	-0.221	0.522
-392.092	-72.145	0.218	0.081
-391.077	800.000	0.146	0.401
-390.063	115.720	-0.152	-0.185
-389.048	71.541	0.319	-0.329
-388.033	422.206	-0.104	-0.221
-387.019	122.486	0.100	-0.124
-386.004	242.036	0.065	-0.108
-384.990	-19.606	0.273	-0.168
-383.975	-163.598	0.373	-0.018
-382.960	506.162	-0.014	-0.033
-381.946	137.578	0.148	0.193
-380.931	-11.537	0.130	0.085
-379.917	-83.992	0.141	0.045
-378.902	202.525	-0.142	-0.218
-377.888	800.000	-0.034	0.094
-376.873	-200.000	-0.027	-0.244
-375.858	-200.000	-0.011	0.184
-374.844	-76.043	-0.201	-0.070
-373.829	106.523	0.098	-0.115
-372.815	-200.000	0.004	-0.141
-371.800	800.000	-0.120	-0.467
-370.785	427.468	-0.061	-0.131
-369.771	213.982	-0.117	-0.184
-368.756	660.519	0.228	-0.583
-367.742	-92.455	-0.053	-0.015
-366.727	100.597	-0.068	-0.078
-365.712	-91.708	0.388	-0.110
-364.698	800.000	-0.080	0.329
-363.683	75.200	0.071	-0.075
-362.669	-76.490	0.183	-0.064
-361.654	-62.230	-0.352	0.146
-360.639	-200.000	-0.060	0.409
-359.625	-35.155	-0.263	0.142
-358.610	-200.000	-0.012	0.066
-357.596	-119.366	0.161	-0.028
-356.581	-200.000	0.027	-0.310
-355.566	2.447	-0.199	0.143
-354.552	-78.515	-0.022	0.007
-353.537	-135.363	-0.056	-0.007
-352.523	-100.151	-0.182	-0.045
-351.508	-200.000	-0.046	0.285
-350.493	-94.680	0.291	-0.079
-349.479	-63.055	0.029	-0.012
-348.464	712.898	0.109	0.286
-347.450	-81.514	0.105	0.034
-346.435	-153.517	-0.356	-0.024
-345.420	800.000	0.065	-0.253
-344.406	-19.845	0.115	-0.070
-343.391	-200.000	-0.019	-0.381
-342.377	-1.508	-0.235	-0.164
-341.362	-14.771	-0.273	-0.174
-340.348	49.410	0.280	0.261
-339.333	165.167	-0.088	-0.123
-338.318	44.533	0.201	0.183
-337.304	128.106	0.187	0.236
-336.289	800.000	-0.129	0.368
-335.275	-138.368	0.298	-0.033
-334.260	800.000	-0.115	0.367
-333.245	-4.797	-0.064	0.044
-332.231	155.940	-0.122	-0.166
-331.216	384.710	-0.065	0.134
-330.202	100.138	-0.179	0.206
-329.187	280.618	-0.100	-0.177
-328.172	-160.362	0.361	-0.019
-327.158	-149.896	-0.170	0.013
-326.143	34.753	0.192	-0.167
-325.129	67.765	-0.059	-0.059
-324.114	271.483	-0.029	0.050
-323.099	182.314	0.076	0.111
-322.085	144.034	0.211	0.279
-321.070	-73.770	-0.065	0.024
-320.056	129.762	0.171	-0.217
-319.041	-200.000	0.007	-0.087
-318.026	800.000	0.041	-0.147
-317.012	-83.119	0.237	0.076
-315.997	377.427	0.129	0.261
-314.983	205.609	0.167	0.258
-313.968	-57.086	-0.209	0.091
-312.953	800.000	0.096	-0.295
-311.939	94.532	0.180	0.203
-310.924	-177.179	-0.091	-0.002
-309.910	620.290	-0.060	0.149
-308.895	800.000	-0.054	0.164
-307.880	-56.292	0.184	0.081
-306.866	-200.000	0.002	-0.045
-305.851	78.971	0.038	0.041
-304.837	46.151	0.161	-0.148
-303.822	-129.841	-0.338	0.046
-302.807	-200.000	0.059	0.263
-301.793	-108.236	0.153	0.033
-300.778	373.559	0.052	-0.104
-299.764	57.921	0.148	-0.143
-298.749	-103.561	0.099	-0.023
-297.735	-200.000	0.004	0.076
-296.720	251.757	-0.031	0.052
-295.705	-141.392	-0.507	-0.051
-294.691	13.434	0.040	0.031
-293.676	-146.070	0.121	-0.011
-292.662	85.776	-0.189	-0.206
-291.647	46.127	-0.254	-0.233
-290.632	800.000	-0.025	-0.087
-289.618	-6.843	0.302	0.203
-288.603	8.225	-0.248	-0.184
-287.589	-10.193	-0.179	-0.117
-286.574	63.870	-0.082	-0.081
-285.559	-12.272	-0.106	0.069
-284.545	-139.345	-0.222	-0.024
-283.530	-30.842	0.205	0.114
-282.516	547.712	0.130	0.307
-281.501	687.692	-0.056	-0.146
-280.486	-200.000	-0.002	-0.081
-279.472	13.322	-0.389	0.299
-278.457	-55.316	-0.096	0.043
-277.443	351.310	-0.068	0.134
-276.428	-200.000	-0.027	-0.197
-275.413	-161.999	-0.383	0.019
-274.399	497.050	-0.081	-0.185
-273.384	63.318	0.098	-0.098
-272.370	-108.310	0.249	-0.053
-271.355	-1.271	0.121	-0.084
-270.340	280.619	-0.165	-0.292
-269.326	109.952	0.085	0.101
-268.311	257.718	0.144	0.246
-267.297	-107.032	-0.136	0.030
-266.282	-200.000	-0.000	-0.021
-265.267	7.307	-0.275	-0.203
-264.253	-50.068	0.336	0.157
-263.238	129.831	-0.151	0.191
-262.224	174.575	-0.033	-0.047
-261.209	-32.291	-0.037	-0.021
-260.195	-101.377	0.364	0.088
-259.180	-48.361	-0.364	-0.174
-258.165	-200.000	-0.027	0.263
-257.151	345.223	0.199	-0.388
-256.136	42.647	0.268	-0.242
-255.122	220.334	0.112	-0.177
-254.107	-200.000	0.061	0.307
-253.092	-200.000	-0.014	-0.212
-252.078	-77.198	0.233	-0.080
-251.063	-70.869	0.199	0.074
-250.049	-200.000	0.035	0.220
-249.034	800.000	-0.070	-0.207
-248.019	-200.000	-0.005	0.183
-247.005	72.489	-0.096	0.099
-245.990	-69.984	-0.173	-0.065
-244.976	-93.766	0.133	0.036
-243.961	-200.000	-0.026	0.165
-242.946	-86.752	0.359	0.109
-241.932	-200.000	0.013	-0.061
-240.917	97.181	-0.239	-0.271
-239.903	-113.825	-0.100	0.019
-238.888	800.000	-0.048	0.201
-237.873	-17.684	0.214	-0.133
-236.859	635.627	-0.147	0.368
-235.844	3.692	0.122	0.088
-234.830	-61.855	-0.133	-0.055
-233.815	69.069	0.045	-0.046
-232.800	-93.456	0.171	-0.047
-231.786	-200.000	0.019	0.172
-230.771	800.000	-0.088	0.311
-229.757	-73.688	0.185	-0.067
-228.742	12.974	-0.159	-0.121
-227.727	99.796	0.161	0.184
-226.713	-67.948	-0.287	-0.111
-225.698	142.900	0.194	0.255
-224.684	-200.000	0.045	0.300
-223.669	333.063	-0.121	-0.231
-222.655	-200.000	-0.031	-0.195
-221.640	800.000	0.063	-0.187
-220.625	31.775	0.162	-0.138
-219.611	36.571	-0.195	0.170
-218.596	530.796	-0.044	0.102
-217.582	-200.000	-0.006	-0.186
-216.567	55.500	-0.063	-0.060
-215.552	91.347	0.227	0.251
-214.538	36.442	-0.216	0.188
-213.523	14.473	-0.301	0.232
-212.509	26.168	0.023	-0.019
-211.494	-200.000	-0.007	0.112
-210.479	353.465	-0.062	0.121
-209.465	-33.761	-0.278	0.151
-208.450	712.142	0.107	-0.281
-207.436	-49.379	-0.139	-0.066
-206.421	800.000	0.037	-0.108
-205.406	338.093	-0.072	0.138
-204.392	-149.243	-0.184	0.015
-203.377	-27.237	0.104	-0.060
-202.363	2.570	0.270	-0.193
-201.348	71.708	-0.170	-0.174
-200.333	250.649	-0.049	-0.083
-199.319	771.459	0.113	0.304
-198.304	-172.418	0.028	0.001
-197.290	665.445	-0.021	0.053
-196.275	-125.036	0.258	0.039
-195.260	-15.110	0.219	0.138
-194.246	97.603	-0.247	0.280
-193.231	-103.812	0.098	-0.023
-192.217	-25.170	-0.116	-0.068
-191.202	6.672	0.027	-0.020
-190.187	-128.998	-0.363	0.050
-189.173	-200.000	-0.238	-0.000
-188.158	-9.090	0.162	0.107
-187.144	-104.453	0.313	0.071
-186.129	386.182	-0.087	0.177
-185.114	-76.850	0.021	-0.007
-184.100	-161.507	0.179	-0.009
-183.085	-200.000	-0.021	0.120
-182.071	56.180	0.257	0.246
-181.056	-39.840	-0.192	0.099
-180.042	-162.795	0.178	0.009
-179.027	-84.887	0.050	-0.016
-178.012	-200.000	-0.067	-0.631
-176.998	-68.794	-0.094	-0.036
-175.983	-145.341	0.373	-0.033
-174.969	-12.729	-0.418	-0.268
-173.954	55.516	-0.192	0.183
-172.939	-138.028	0.096	-0.011
-171.925	202.153	0.110	-0.168
-170.910	65.426	-0.044	0.044
-169.896	-16.242	0.064	0.040
-168.881	-139.102	0.086	-0.009
-167.866	160.237	-0.070	-0.096
-166.852	-45.597	0.160	-0.078
-165.837	-119.004	-0.093	0.016
-164.823	-140.249	0.540	-0.056
-163.808	800.000	0.063	0.257
-162.793	-200.000	0.019	0.133
-161.779	689.021	-0.212	-0.547
-160.764	27.613	-0.098	-0.081
-159.750	104.281	0.078	0.090
-158.735	435.828	0.147	0.316
-157.720	130.999	-0.171	-0.216
-156.706	-63.946	-0.100	0.040
-155.691	-200.000	-0.042	0.206
-154.677	287.513	-0.086	-0.153
-153.662	-200.000	-0.007	-0.168
-152.647	151.255	-0.051	-0.068
-151.633	-200.000	-0.075	-0.345
-150.618	-59.321	-0.183	-0.077
-149.604	30.260	0.277	0.233
-148.589	800.000	-0.080	-0.305
-147.574	142.724	0.118	0.155
-146.560	99.218	-0.148	0.169
-145.545	76.413	0.174	-0.181
-144.531	-62.240	0.245	-0.101
-143.516	-109.787	-0.140	0.029
-142.502	-98.083	0.302	0.077
-141.487	34.123	0.326	-0.280
-140.472	142.647	0.205	-0.268
-139.458	-200.000	0.097	-0.442
-138.443	43.825	-0.064	-0.058
-137.429	-200.000	0.044	-0.275
-136.414	-33.476	0.421	0.229
-135.399	-9.032	-0.128	0.085
-134.385	161.050	0.246	-0.338
-133.370	233.923	0.288	-0.468
-132.356	68.467	-0.070	0.070
-131.341	118.152	0.183	0.222
-130.326	-200.000	0.045	0.224
-129.312	-121.227	-0.269	0.044
-128.297	145.586	0.183	0.242
-127.283	-92.973	-0.042	-0.011
-126.268	800.000	0.081	-0.253
-125.253	800.000	-0.110	0.298
-124.239	21.623	-0.580	0.464
-123.224	-43.372	0.200	-0.100
-122.210	17.335	-0.217	0.169
-121.195	-164.802	-0.087	0.004
-120.180	-110.564	0.225	0.046
-119.166	-66.923	-0.379	0.147
-118.151	-83.935	0.168	-0.053
-117.137	-30.964	-0.224	0.125
-116.122	150.352	0.224	0.299
-115.107	115.388	0.230	0.276
-114.093	48.318	0.105	0.097
-113.078	-200.000	0.063	-0.310
-112.064	-113.662	0.188	-0.036
-111.049	-200.000	-0.099	0.445
-110.034	21.306	0.027	-0.021
-109.020	188.475	-0.131	0.192
-108.005	11.274	0.252	0.189
-106.991	-7.048	0.170	-0.113
-105.976	-200.000	0.022	-0.150
-104.962	40.794	0.139	0.124
-103.947	-200.000	-0.005	-0.055
-102.932	-151.808	-0.140	-0.010
-101.918	222.638	0.235	0.372
-100.903	-200.000	-0.024	-0.199
-99.889	-200.000	0.001	0.044
-98.874	800.000	0.047	0.194
-97.859	-24.537	0.229	-0.134
-96.845	-140.590	0.180	0.018
-95.830	20.455	0.267	0.212
-94.816	-9.525	-0.322	0.211
-93.801	104.290	0.060	-0.070
-92.786	183.844	-0.083	0.121
-91.772	-200.000	0.032	0.289
-90.757	-177.273	0.085	0.002
-89.743	2.090	-0.096	0.068
-88.728	-67.033	-0.289	0.112
-87.713	800.000	0.079	0.324
-86.699	85.557	0.045	-0.048
-85.684	-128.165	-0.400	0.056
-84.670	-23.872	0.127	0.075
-83.655	-200.000	-0.037	0.199
-82.640	-125.216	-0.416	0.063
-81.626	-99.261	0.059	-0.015
-80.611	137.263	-0.023	0.029
-79.597	541.461	0.079	0.185
-78.582	800.000	0.043	-0.125
-77.567	-200.000	-0.051	-0.241
-76.553	95.566	0.149	-0.167
-75.538	23.765	-0.091	-0.073
-74.524	287.180	0.072	0.128
-73.509	-40.467	0.122	0.062
-72.494	241.768	0.144	-0.236
-71.480	-22.191	-0.169	-0.100
-70.465	-92.691	0.252	0.069
-69.451	800.000	0.071	0.273
-68.436	-200.000	0.020	-0.142
-67.422	-200.000	-0.017	0.375
-66.407	620.879	0.091	-0.225
-65.392	668.619	-0.033	-0.084
-64.378	-126.987	-0.217	0.031
-63.363	-46.017	0.185	-0.090
-62.349	62.751	-0.178	0.175
-61.334	104.024	-1.022	-1.180
-60.319	-35.822	0.779	0.414
-59.305	427.770	-0.516	-1.093
-58.290	285.983	0.733	1.297
-57.276	612.939	0.600	1.473
-56.261	-200.000	107.722	587.069
-55.246	457.723	1466.505	3197.962
-54.232	147.961	2658.875	3518.654
-53.217	100.395	2291.803	2610.197
-52.203	38.871	1905.293	1669.877
-51.188	33.064	1693.281	1439.915
-50.173	30.456	1650.089	1383.735
-49.159	48.855	1702.109	1567.011
-48.144	49.410	1717.812	1585.606
-47.130	32.659	1675.782	1421.753
-46.115	30.080	1661.203	1390.013
-45.100	29.826	1656.886	1384.440
-44.086	29.811	1654.215	1382.045
-43.071	29.763	1651.632	1379.473
-42.057	29.675	1649.137	1376.679
-41.042	29.727	1646.908	1375.150
-40.027	29.824	1644.704	1373.973
-39.013	29.729	1643.268	1372.014
-37.998	29.719	1641.633	1370.525
-36.984	29.761	1640.336	1369.698
-35.969	29.872	1638.907	1369.271
-34.954	29.923	1637.084	1368.070
-33.940	29.938	1635.350	1366.678
-32.925	29.919	1633.283	1364.754
-31.911	29.952	1631.782	1363.691
-30.896	29.861	1630.278	1361.709
-29.881	29.864	1628.552	1360.239
-28.867	29.865	1626.885	1358.798
-27.852	29.868	1625.237	1357.387
-26.838	29.839	1624.056	1356.135
-25.823	29.887	1622.541	1355.168
-24.809	29.878	1621.504	1354.182
-23.794	29.917	1619.700	1352.905
-22.779	29.880	1618.411	1351.511
-21.765	29.868	1616.854	1350.069
-20.750	29.981	1614.770	1349.093
-19.736	29.961	1613.815	1348.096
-18.721	29.824	1612.815	1346.212
-17.706	29.807	1610.989	1344.513
-16.692	29.904	1609.333	1343.778
-15.677	29.890	1608.250	1342.719
-14.663	29.889	1606.439	1341.147
-13.648	29.926	1605.045	1340.198
-12.633	29.972	1603.315	1339.035
-11.619	29.868	1602.469	1337.523
-10.604	29.843	1600.933	1336.007
-9.590	29.936	1599.293	1335.258
-8.575	29.923	1598.280	1334.265
-7.560	29.880	1597.857	1333.549
-6.546	29.935	1596.268	1332.566
-5.531	29.922	1594.530	1330.970
-4.517	30.003	1593.309	1330.481
-3.502	29.882	1592.616	1328.979
-2.487	29.936	1591.230	1328.154
-1.473	29.722	1578.416	1315.886
-0.458	26.838	1559.922	1280.097
0.556	21.394	1560.850	1247.593
1.571	19.016	1584.816	1249.380
2.586	18.667	1598.199	1257.263
3.600	17.159	1546.003	1205.405
4.615	9.534	1435.693	1068.863
5.629	1.806	1370.818	971.344
6.644	0.168	1362.689	955.118
7.659	0.162	1361.076	953.861
8.673	0.182	1359.423	952.745
9.688	-0.012	1358.309	950.654
10.702	-0.169	1355.338	947.499
11.717	3.566	1360.698	974.791
12.731	12.170	1374.269	1039.125
13.746	17.289	1381.038	1076.650
14.761	17.192	1379.969	1075.110
15.775	16.299	1377.080	1067.120
16.790	15.232	1374.535	1058.321
17.804	14.382	1372.499	1051.300
18.819	14.031	1371.160	1047.966
19.834	13.759	1369.538	1044.924
20.848	13.522	1367.864	1042.062
21.863	13.295	1367.245	1040.069
22.877	13.078	1365.576	1037.343
23.892	13.137	1364.881	1037.095
24.907	13.073	1364.070	1035.983
25.921	13.210	1362.805	1035.792
26.936	13.253	1362.023	1035.378
27.950	13.261	1361.083	1034.616
28.965	13.187	1360.665	1033.750
29.980	13.212	1359.523	1032.944
30.994	13.288	1358.866	1032.829
32.009	13.333	1357.502	1031.983
33.023	13.358	1356.527	1031.301
34.038	13.392	1355.267	1030.469
35.053	13.345	1354.011	1029.129
36.067	13.311	1353.341	1028.313
37.082	13.337	1352.112	1027.451
38.096	13.311	1351.391	1026.652
39.111	13.343	1350.340	1025.962
40.126	13.351	1349.516	1025.292
41.140	13.165	1349.060	1023.703
42.155	13.073	1348.308	1022.476
43.169	13.088	1348.305	1022.476
44.184	13.169	1347.798	1022.500
45.199	13.141	1347.724	1022.180
46.213	13.199	1347.156	1022.021
47.228	13.301	1345.649	1021.417
48.242	13.242	1344.750	1020.278
49.257	13.267	1343.060	1019.058
50.271	13.135	1342.034	1017.377
51.286	13.248	1340.649	1016.931
52.301	13.257	1339.469	1016.006
53.315	13.213	1338.317	1014.768
54.330	13.206	1337.049	1013.673
55.344	13.117	1336.373	1012.529
56.359	13.098	1335.403	1011.588
57.374	13.240	1333.359	1010.819
58.388	13.094	1333.358	1009.836
59.403	13.136	1332.543	1009.383
60.417	13.133	1332.152	1008.979
61.432	13.058	1331.199	1007.714
62.447	13.087	1330.016	1006.906
63.461	12.921	1329.416	1005.350
64.476	13.035	1327.965	1004.857
65.490	13.054	1326.302	1003.624
66.505	13.138	1325.067	1003.114
67.520	13.022	1324.389	1001.803
68.534	13.046	1322.899	1000.735
69.549	13.084	1322.006	1000.201
70.563	13.002	1321.075	998.914
71.578	13.123	1319.578	998.424
72.593	13.013	1318.781	997.066
73.607	13.049	1317.520	996.240
74.622	12.967	1317.129	995.362
75.636	13.017	1316.600	995.179
76.651	13.020	1315.474	994.256
77.666	12.952	1315.463	993.750
78.680	12.980	1314.676	993.236
79.695	13.002	1314.021	992.789
80.709	13.099	1312.745	992.315
81.724	13.063	1311.976	991.431
82.739	13.226	1311.166	991.709
83.753	13.115	1310.520	990.469
84.768	13.252	1309.347	990.313
85.782	13.305	1307.902	989.454
86.797	13.187	1306.929	987.921
87.812	13.214	1305.996	987.295
88.826	13.244	1304.707	986.411
89.841	13.245	1303.500	985.413
90.855	13.217	1302.944	984.740
91.870	13.304	1301.706	984.237
92.884	13.301	1301.105	983.676
93.899	13.233	1300.527	982.750
94.914	13.380	1299.758	982.954
95.928	13.346	1298.806	981.942
96.943	13.322	1297.580	980.789
97.957	13.299	1296.847	980.009
98.972	13.275	1295.787	978.982
99.987	13.361	1294.371	978.333
101.001	13.374	1293.490	977.657
102.016	13.281	1292.891	976.569
103.030	13.264	1292.429	976.034
104.045	13.270	1290.948	974.862
105.060	13.386	1289.399	974.291
106.074	13.204	1288.562	972.504
107.089	13.093	1287.256	970.778
108.103	13.153	1285.880	970.007
109.118	13.160	1284.933	969.245
110.133	13.139	1283.965	968.306
111.147	13.184	1282.417	967.320
112.162	13.149	1281.479	966.322
113.176	13.197	1280.375	965.683
114.191	13.259	1279.353	965.188
115.206	13.191	1278.188	963.827
116.220	13.149	1276.695	962.375
117.235	13.218	1276.004	962.170
118.249	13.182	1274.860	961.014
119.264	13.235	1273.717	960.371
120.279	13.134	1272.318	958.647
121.293	13.204	1271.322	958.218
122.308	13.111	1270.629	957.068
123.322	13.258	1269.432	956.937
124.337	13.088	1268.877	955.446
125.352	13.082	1267.642	954.400
126.366	13.223	1265.940	953.849
127.381	13.130	1265.060	952.564
128.395	13.224	1264.159	952.343
129.410	13.195	1263.124	951.315
130.424	13.204	1262.382	950.719
131.439	13.245	1261.544	950.244
132.454	13.185	1260.681	949.160
133.468	13.252	1259.378	948.480
134.483	13.156	1258.866	947.461
135.497	13.210	1257.890	946.951
136.512	13.194	1256.357	945.623
137.527	13.298	1254.819	944.976
138.541	13.236	1253.962	943.892
139.556	13.208	1252.731	942.723
140.570	13.282	1251.698	942.282
141.585	13.380	1250.040	941.509
142.600	13.218	1249.272	939.930
143.614	13.480	1248.041	940.406
144.629	13.407	1246.868	939.024
145.643	13.386	1245.779	938.005
146.658	13.413	1244.457	937.076
147.673	13.423	1243.181	936.090
148.687	13.386	1242.385	935.199
149.702	13.388	1240.834	933.962
150.716	13.291	1239.724	932.494
151.731	13.335	1238.638	931.842
152.746	13.343	1237.504	930.954
153.760	13.402	1236.135	930.173
154.775	13.454	1235.115	929.615
155.789	13.401	1234.311	928.633
156.804	13.483	1233.025	928.041
157.819	13.428	1232.513	927.263
158.833	13.448	1230.926	926.101
159.848	13.508	1230.164	925.779
160.862	13.576	1229.000	925.206
161.877	13.530	1228.132	924.211
162.892	13.394	1227.076	922.579
163.906	13.383	1226.330	921.872
164.921	13.398	1225.409	921.183
165.935	13.436	1224.576	920.684
166.950	13.448	1223.957	920.205
167.964	13.450	1223.240	919.595
168.979	13.455	1222.456	918.954
169.994	13.542	1221.282	918.471
171.008	13.498	1220.961	917.904
172.023	13.643	1219.475	917.508
173.037	13.594	1218.955	916.767
174.052	13.619	1218.280	916.315
175.067	13.471	1217.683	914.966
176.081	13.560	1215.941	914.070
177.096	13.556	1215.193	913.405
178.110	13.584	1214.148	912.691
179.125	13.528	1213.777	912.025
180.140	13.612	1211.893	910.987
181.154	13.702	1210.692	910.502
182.169	13.685	1209.407	909.357
183.183	13.727	1207.911	908.385
184.198	13.639	1207.239	907.318
185.213	13.716	1206.240	906.908
186.227	13.794	1204.943	906.280
187.242	13.733	1204.264	905.356
188.256	13.779	1203.382	904.859
189.271	13.830	1201.971	903.996
190.286	13.698	1200.845	902.352
191.300	13.734	1200.138	901.940
192.315	13.580	1199.818	900.781
193.329	13.647	1198.752	900.264
194.344	13.739	1197.953	900.084
195.359	13.732	1197.771	899.831
196.373	13.820	1197.042	899.678
197.388	13.908	1196.373	899.576
198.402	13.837	1196.315	899.064
199.417	13.879	1195.683	898.739
200.432	14.026	1194.335	898.443
201.446	14.002	1194.013	897.992
202.461	14.094	1192.732	897.440
203.475	14.042	1191.871	896.434
204.490	13.950	1190.966	895.180
205.504	14.115	1189.326	894.757
206.519	13.984	1188.224	893.142
207.534	14.084	1186.903	892.607
208.548	13.999	1186.106	891.474
209.563	14.034	1185.551	891.168
210.577	14.034	1184.773	890.499
211.592	13.978	1184.068	889.591
212.607	14.055	1183.390	889.419
213.621	14.188	1181.940	888.959
214.636	14.119	1181.474	888.161
215.650	14.123	1180.345	887.256
216.665	14.151	1179.530	886.714
217.680	14.160	1178.700	886.058
218.694	14.157	1177.890	885.356
219.709	14.157	1177.378	884.894
220.723	14.251	1176.428	884.599
221.738	14.212	1175.808	883.848
222.753	14.368	1174.411	883.546
223.767	14.235	1174.366	882.729
224.782	14.332	1173.474	882.494
225.796	14.299	1173.334	882.135
226.811	14.427	1172.069	881.786
227.826	14.370	1171.465	880.954
228.840	14.272	1171.102	880.084
229.855	14.381	1170.048	879.787
230.869	14.463	1169.218	879.518
231.884	14.318	1168.544	878.171
232.899	14.301	1167.384	877.129
233.913	14.161	1167.617	876.490
234.928	14.272	1166.531	876.182
235.942	14.248	1165.449	875.165
236.957	14.295	1164.300	874.470
237.972	14.306	1164.380	874.513
238.986	14.214	1163.469	873.268
240.001	14.378	1162.451	873.288
241.015	14.386	1161.606	872.618
242.030	14.393	1160.659	871.865
243.045	14.507	1159.969	871.863
244.059	14.491	1159.312	871.211
245.074	14.488	1158.615	870.592
246.088	14.572	1157.626	870.213
247.103	14.546	1156.783	869.366
248.117	14.756	1155.749	869.607
249.132	14.688	1155.511	868.996
250.147	14.672	1154.844	868.333
251.161	14.788	1154.324	868.469
252.176	14.788	1153.438	867.727
253.190	14.656	1153.315	866.870
254.205	14.836	1152.132	866.838
255.220	14.811	1151.777	866.367
256.234	14.793	1150.887	865.525
257.249	14.971	1149.669	865.456
258.263	14.793	1149.659	864.449
259.278	14.855	1148.833	864.071
260.293	14.876	1148.470	863.833
261.307	15.080	1147.266	863.900
262.322	15.007	1146.915	863.186
263.336	14.924	1146.581	862.430
264.351	14.962	1146.239	862.293
265.366	15.058	1145.248	861.966
266.380	14.957	1144.607	860.887
267.395	15.013	1143.567	860.316
268.409	14.898	1143.202	859.372
269.424	15.094	1142.200	859.549
270.439	15.057	1141.594	858.830
271.453	15.116	1140.638	858.335
272.468	15.120	1139.961	857.768
273.482	14.973	1139.700	856.742
274.497	15.072	1139.068	856.699
275.512	14.967	1138.378	855.569
276.526	15.056	1137.595	855.359
277.541	15.072	1136.715	854.705
278.555	15.107	1135.710	854.053
279.570	15.239	1134.860	854.011
280.585	15.222	1134.599	853.650
281.599	15.130	1133.721	852.449
282.614	15.207	1132.545	851.880
283.628	15.202	1131.535	851.018
284.643	15.173	1130.253	849.832
285.657	15.069	1129.815	848.897
286.672	15.283	1128.954	849.263
287.687	15.218	1128.261	848.336
288.701	15.303	1127.058	847.786
289.716	15.223	1126.134	846.614
290.730	15.431	1125.456	847.079
291.745	15.363	1125.071	846.371
292.760	15.350	1124.388	845.716
293.774	15.469	1123.430	845.519
294.789	15.392	1123.675	845.239
295.803	15.503	1122.715	845.004
296.818	15.366	1122.114	843.788
297.833	15.456	1121.127	843.424
298.847	15.441	1120.581	842.859
299.862	15.381	1119.925	841.993
300.876	15.510	1118.843	841.749
301.891	15.509	1118.442	841.371
302.906	15.513	1117.595	840.677
303.920	15.649	1116.808	840.694
304.935	15.567	1116.508	839.983
305.949	15.615	1115.600	839.467
306.964	15.697	1114.846	839.231
307.979	15.603	1114.343	838.308
308.993	15.672	1113.714	838.105
310.008	15.695	1113.055	837.653
311.022	15.744	1111.781	836.864
312.037	15.806	1110.740	836.312
313.052	15.740	1110.027	835.374
314.066	15.637	1109.669	834.517
315.081	15.625	1108.560	833.554
316.095	15.645	1107.793	832.999
317.110	15.716	1107.027	832.703
318.125	15.643	1106.380	831.779
319.139	15.565	1106.052	831.076
320.154	15.649	1105.122	830.717
321.168	15.652	1104.485	830.179
322.183	15.699	1104.064	830.022
323.197	15.724	1103.420	829.588
324.212	15.745	1103.035	829.331
325.227	15.771	1102.116	828.692
326.241	15.690	1101.745	827.941
327.256	15.793	1100.853	827.705
328.270	15.681	1100.159	826.558
329.285	15.711	1098.656	825.504
330.300	15.831	1097.786	825.365
331.314	15.732	1097.172	824.346
332.329	15.774	1096.106	823.676
333.343	15.867	1095.191	823.373
334.358	15.929	1094.339	822.963
335.373	15.911	1093.716	822.334
336.387	15.903	1093.052	821.721
337.402	15.992	1092.346	821.551
338.416	16.065	1091.627	821.292
339.431	16.051	1091.249	820.867
340.446	16.075	1090.570	820.400
341.460	16.080	1089.925	819.871
342.475	16.153	1089.044	819.487
343.489	16.130	1088.285	818.731
344.504	16.138	1086.913	817.667
345.519	16.086	1086.229	816.829
346.533	16.267	1085.878	817.368
347.548	16.169	1084.803	816.014
348.562	16.295	1084.080	816.005
349.577	16.156	1083.384	814.740
350.592	16.182	1082.297	813.974
351.606	16.133	1081.983	813.430
352.621	16.148	1081.277	812.897
353.635	16.148	1080.747	812.428
354.650	16.188	1079.795	811.835
355.665	16.211	1079.022	811.292
356.679	16.294	1078.330	811.098
357.694	16.236	1078.012	810.507
358.708	16.119	1077.462	809.463
359.723	16.286	1076.653	809.585
360.738	16.245	1075.738	808.625
361.752	16.406	1075.285	808.987
362.767	16.381	1075.045	808.612
363.781	16.312	1074.508	807.809
364.796	16.418	1073.712	807.643
365.810	16.291	1073.439	806.764
366.825	16.470	1072.539	806.866
367.840	16.607	1071.512	806.678
368.854	16.491	1071.671	806.171
369.869	16.569	1070.472	805.570
370.883	16.541	1069.875	804.916
371.898	16.625	1068.670	804.338
372.913	16.617	1068.264	803.924
373.927	16.491	1067.983	803.041
374.942	16.596	1067.496	803.106
375.956	16.522	1067.159	802.429
376.971	16.648	1066.443	802.417
377.986	16.631	1065.907	801.861
379.000	16.743	1064.816	801.502
380.015	16.710	1064.688	801.178
381.029	16.743	1064.093	800.814
382.044	16.743	1063.303	800.147
383.059	16.783	1062.566	799.712
384.073	16.782	1062.042	799.240
385.088	16.812	1060.938	798.480
386.102	16.747	1059.984	797.390
387.117	16.761	1058.999	796.641
388.132	16.718	1058.236	795.794
389.146	16.737	1057.529	795.283
390.161	16.814	1056.548	794.836
391.175	16.768	1056.351	794.402
392.190	16.768	1055.685	793.830
393.205	16.882	1054.781	793.615
394.219	16.916	1053.682	792.876
395.234	16.864	1052.901	791.975
396.248	16.891	1051.727	791.147
397.263	16.834	1051.067	790.316
398.278	16.856	1050.266	789.745
399.292	16.779	1049.800	788.967
400.307	16.948	1048.544	788.740
401.321	16.879	1048.310	788.175
402.336	16.896	1047.811	787.804
403.350	16.939	1047.015	787.339
404.365	17.004	1046.347	787.065
405.380	16.977	1045.522	786.254
406.394	16.953	1045.019	785.695
407.409	16.946	1044.401	785.129
408.423	17.130	1043.176	784.989
409.438	17.001	1043.097	784.263
410.453	17.079	1042.166	783.853
411.467	17.204	1041.754	784.050
412.482	17.213	1040.739	783.259
413.496	17.197	1040.340	782.815
414.511	17.258	1039.729	782.568
415.526	17.366	1039.303	782.672
416.540	17.400	1038.578	782.213
417.555	17.410	1038.044	781.788
418.569	17.243	1037.803	780.773
419.584	17.329	1037.293	780.711
420.599	17.375	1036.542	780.291
421.613	103.584	1321.780	1470.733
422.628	94.980	1363.319	1470.834
