DTS Sentinel unit serial number:	SN413079Multiplexer serial number:	ORYXHardware model number:	OX4-SRSoftware version number:	ORYX F/W v4.00 Oryx Data Collector v3.7.2.0data status	okinstallation	princeton_trtdifferential loss correction	single-endedforward channel	channel 2reverse channel	N/Adate	2019/09/17time	01:11:35forward acquisition time	60.00reverse acquisition time	0.00gamma	496.2192k internal	0.2329k external	0.2329temperature offset calibration	0.9970default loss term (dB/km)	0.3790temperature slope calibration	1.0000multiplexer offset coefficient	1.0000multiplexer slope coefficient	1.0000fibre end	0.00T internal ref (°C)	29.48T ext. ref 1 (°C)	0.10T ext. ref 2 (°C)	24.20length (m)	temperature (°C)	Stokes	anti-Stokes-747.200	-200.000	-0.023	0.126
-746.185	-28.407	0.475	0.276
-745.171	-200.000	-0.075	0.378
-744.156	-5.932	0.134	0.093
-743.142	-15.169	-0.192	0.124
-742.127	-125.603	-0.372	0.057
-741.112	-200.000	0.042	-0.289
-740.098	-114.451	0.169	-0.033
-739.083	-200.000	0.006	-0.099
-738.069	-200.000	-0.033	0.340
-737.054	800.000	-0.100	-0.294
-736.039	3.196	-0.267	0.196
-735.025	800.000	0.080	0.294
-734.010	-5.176	-0.447	0.310
-732.996	71.756	0.165	0.173
-731.981	-125.917	-0.232	-0.035
-730.966	-200.000	-0.053	0.280
-729.952	-200.000	-0.003	-0.060
-728.937	384.111	-0.230	-0.476
-727.923	185.971	-0.163	-0.243
-726.908	-28.654	0.167	-0.097
-725.894	-7.386	-0.215	-0.147
-724.879	-119.564	-0.278	0.049
-723.864	800.000	-0.115	-0.438
-722.850	169.787	0.040	-0.058
-721.835	5.435	-0.163	0.121
-720.821	293.755	-0.143	0.262
-719.806	227.067	0.131	0.214
-718.791	-200.000	0.040	-0.317
-717.777	225.803	-0.138	-0.225
-716.762	-175.478	0.296	0.008
-715.748	668.194	0.015	-0.038
-714.733	223.694	-0.079	-0.128
-713.718	5.389	-0.438	-0.325
-712.704	17.406	0.045	-0.036
-711.689	-69.238	-0.375	-0.145
-710.675	139.442	-0.100	-0.133
-709.660	-200.000	-0.062	-0.354
-708.645	-24.366	0.190	0.114
-707.631	256.728	0.137	0.237
-706.616	-75.574	-0.170	-0.061
-705.602	-200.000	0.038	-0.218
-704.587	-200.000	-0.003	-0.417
-703.572	-200.000	-0.004	-0.039
-702.558	800.000	0.091	-0.290
-701.543	-200.000	0.015	-0.073
-700.529	-148.456	-0.132	-0.011
-699.514	-200.000	-0.019	0.318
-698.499	800.000	-0.110	0.307
-697.485	117.388	0.202	-0.250
-696.470	-55.625	0.226	-0.102
-695.456	800.000	0.028	0.078
-694.441	-37.521	0.227	0.122
-693.426	-108.203	-0.239	0.052
-692.412	-150.959	0.406	0.031
-691.397	-99.588	0.319	0.081
-690.383	64.230	0.088	0.089
-689.368	81.840	-0.212	0.231
-688.354	-38.767	0.307	-0.163
-687.339	-200.000	0.036	0.418
-686.324	-82.848	0.193	-0.063
-685.310	800.000	-0.122	-0.412
-684.295	406.027	-0.061	-0.129
-683.281	11.040	-0.113	0.087
-682.266	-200.000	0.011	-0.248
-681.251	800.000	0.015	-0.047
-680.237	-33.595	0.105	0.058
-679.222	38.393	-0.097	0.087
-678.208	-110.228	-0.099	0.021
-677.193	-100.544	-0.433	-0.108
-676.178	55.775	0.085	0.083
-675.164	204.383	0.175	0.272
-674.149	-87.803	-0.172	-0.052
-673.135	150.257	-0.031	0.042
-672.120	800.000	-0.066	0.216
-671.105	-118.359	0.287	-0.051
-670.091	-200.000	-0.034	-0.219
-669.076	-200.000	0.000	0.111
-668.062	19.745	0.164	0.133
-667.047	-138.307	-0.156	0.017
-666.032	7.501	-0.447	0.336
-665.018	-200.000	-0.011	0.266
-664.003	12.611	-0.083	0.064
-662.989	523.466	-0.141	-0.334
-661.974	68.040	0.068	-0.070
-660.959	800.000	-0.089	-0.352
-659.945	-200.000	0.048	0.409
-658.930	133.802	-0.313	-0.406
-657.916	-172.743	-0.297	0.009
-656.901	-126.754	0.156	0.023
-655.886	635.867	0.112	0.286
-654.872	60.374	-0.042	-0.042
-653.857	-200.000	0.001	0.166
-652.843	233.795	0.173	0.286
-651.828	211.122	-0.200	-0.316
-650.814	-4.354	-0.026	0.018
-649.799	-144.587	0.110	0.010
-648.784	74.280	0.142	0.150
-647.770	-68.210	0.091	-0.036
-646.755	-200.000	-0.044	-0.196
-645.741	-77.378	0.165	-0.058
-644.726	-115.062	-0.116	-0.022
-643.711	-108.898	0.155	-0.033
-642.697	-200.000	0.041	0.328
-641.682	119.734	0.063	-0.078
-640.668	182.891	-0.062	-0.092
-639.653	-86.785	-0.181	-0.056
-638.638	-200.000	-0.028	0.129
-637.624	427.713	-0.034	-0.073
-636.609	9.010	-0.182	0.138
-635.595	298.501	0.089	-0.165
-634.580	19.474	0.332	0.268
-633.565	331.500	-0.190	0.367
-632.551	27.411	-0.043	0.036
-631.536	-75.312	-0.192	0.069
-630.522	-64.710	-0.098	0.040
-629.507	102.459	0.150	-0.176
-628.492	800.000	0.111	-0.386
-627.478	-19.971	0.173	0.107
-626.463	-64.402	-0.302	-0.123
-625.449	-200.000	0.019	-0.284
-624.434	40.678	0.170	-0.154
-623.419	-200.000	0.046	0.238
-622.405	800.000	-0.060	-0.196
-621.390	800.000	0.021	0.061
-620.376	800.000	-0.032	0.100
-619.361	-72.233	-0.303	0.113
-618.346	16.977	0.116	-0.092
-617.332	467.304	-0.132	0.297
-616.317	-27.372	-0.081	-0.047
-615.303	-86.164	-0.178	0.055
-614.288	-98.386	0.091	0.023
-613.273	-200.000	0.029	0.245
-612.259	-13.760	-0.170	-0.111
-611.244	800.000	0.059	0.204
-610.230	111.798	-0.299	0.362
-609.215	-138.774	-0.399	0.044
-608.201	-90.900	0.152	0.044
-607.186	31.027	0.289	0.248
-606.171	569.338	0.192	-0.467
-605.157	5.173	-0.123	-0.090
-604.142	358.156	-0.042	0.084
-603.128	-26.329	-0.078	-0.046
-602.113	500.007	0.121	-0.279
-601.098	-17.984	0.031	-0.020
-600.084	-200.000	0.057	0.332
-599.069	-198.484	0.345	-0.002
-598.055	800.000	-0.038	0.114
-597.040	-200.000	-0.058	-0.301
-596.025	-56.432	0.123	-0.055
-595.011	117.768	-0.096	0.119
-593.996	-123.818	0.400	0.063
-592.982	-41.710	-0.215	0.111
-591.967	78.353	-0.120	0.129
-590.952	40.766	-0.104	-0.094
-589.938	461.320	0.126	-0.281
-588.923	-20.806	-0.211	0.130
-587.909	-67.625	-0.052	0.021
-586.894	79.191	-0.223	0.239
-585.879	199.542	0.230	0.353
-584.865	-168.188	0.351	0.014
-583.850	-200.000	0.007	0.031
-582.836	53.248	0.085	-0.081
-581.821	56.495	-0.262	-0.255
-580.806	-127.444	0.198	-0.029
-579.792	-59.030	-0.358	0.154
-578.777	-102.422	-0.269	-0.064
-577.763	-9.685	-0.059	0.039
-576.748	-200.000	0.027	-0.216
-575.733	-200.000	-0.010	-0.385
-574.719	-200.000	-0.036	-0.305
-573.704	-13.604	-0.087	0.056
-572.690	66.766	0.154	0.156
-571.675	24.472	-0.180	-0.149
-570.661	44.317	0.217	0.199
-569.646	51.891	0.072	0.069
-568.631	113.262	0.147	-0.178
-567.617	-200.000	-0.019	0.276
-566.602	105.991	0.018	-0.022
-565.588	74.846	-0.090	0.095
-564.573	114.568	-0.143	0.174
-563.558	-147.749	-0.231	0.019
-562.544	582.334	-0.052	0.127
-561.529	-200.000	-0.012	0.104
-560.515	151.502	0.147	0.200
-559.500	-49.461	-0.469	0.224
-558.485	85.501	0.190	0.209
-557.471	-100.886	-0.353	-0.087
-556.456	741.733	0.103	0.277
-555.442	-200.000	-0.000	0.017
-554.427	-17.972	-0.163	0.102
-553.412	6.536	0.046	-0.035
-552.398	800.000	0.074	-0.217
-551.383	-200.000	-0.016	0.144
-550.369	549.430	0.047	-0.113
-549.354	54.111	-0.099	0.096
-548.339	51.691	0.188	-0.179
-547.325	-82.151	-0.491	-0.160
-546.310	119.249	0.021	0.026
-545.296	80.368	0.226	-0.243
-544.281	235.158	-0.136	-0.224
-543.266	-27.883	-0.102	-0.059
-542.252	-189.148	0.165	-0.002
-541.237	127.629	0.092	0.117
-540.223	96.709	0.370	0.424
-539.208	-81.283	-0.398	-0.131
-538.193	800.000	0.028	-0.083
-537.179	11.562	0.144	-0.111
-536.164	-87.604	-0.169	0.051
-535.150	-176.141	0.410	0.011
-534.135	-140.837	-0.042	-0.004
-533.121	-99.886	-0.341	-0.085
-532.106	-163.259	0.348	-0.017
-531.091	-72.070	-0.162	0.060
-530.077	9.387	-0.152	-0.115
-529.062	-102.436	0.138	-0.033
-528.048	800.000	0.149	0.451
-527.033	381.737	0.066	-0.135
-526.018	-24.240	-0.286	0.170
-525.004	66.169	-0.206	0.209
-523.989	342.540	-0.034	-0.067
-522.975	69.424	-0.133	-0.137
-521.960	176.302	-0.124	-0.180
-520.945	800.000	0.084	0.291
-519.931	-97.136	-0.050	-0.013
-518.916	800.000	0.026	0.102
-517.902	-151.357	-0.311	0.023
-516.887	-200.000	-0.028	-0.203
-515.872	-157.494	-0.255	0.015
-514.858	-11.431	-0.126	0.083
-513.843	643.360	-0.091	0.231
-512.829	800.000	0.085	-0.322
-511.814	800.000	-0.099	-0.371
-510.799	-45.503	0.226	0.112
-509.785	-100.688	-0.218	0.054
-508.770	800.000	0.050	0.142
-507.756	13.867	0.200	0.155
-506.741	21.043	0.266	-0.215
-505.726	-89.955	0.492	0.143
-504.712	26.079	0.167	0.139
-503.697	-116.926	0.404	0.074
-502.683	57.900	0.257	-0.251
-501.668	-25.983	-0.541	-0.318
-500.653	-12.104	-0.513	0.335
-499.639	-200.000	-0.004	0.241
-498.624	287.512	0.080	-0.144
-497.610	-84.196	-0.117	0.037
-496.595	-109.418	0.360	-0.076
-495.581	-200.000	0.020	0.118
-494.566	-2.100	-0.133	0.093
-493.551	-192.597	0.108	0.001
-492.537	201.909	-0.107	0.164
-491.522	-50.712	0.120	0.056
-490.508	-97.081	0.338	0.088
-489.493	-106.063	0.157	0.035
-488.478	99.240	0.150	0.173
-487.464	418.474	-0.098	-0.209
-486.449	188.967	0.135	-0.202
-485.435	249.266	-0.189	0.319
-484.420	-64.583	0.192	-0.078
-483.405	800.000	0.047	0.141
-482.391	224.464	-0.146	0.235
-481.376	-178.761	-0.200	0.005
-480.362	-200.000	-0.046	-0.314
-479.347	-53.034	-0.153	-0.070
-478.332	800.000	0.041	0.119
-477.318	25.090	-0.122	0.101
-476.303	-112.050	0.056	-0.011
-475.289	-96.620	0.130	-0.034
-474.274	-21.739	0.086	-0.052
-473.259	722.201	-0.158	-0.418
-472.245	112.348	-0.132	-0.159
-471.230	-22.918	0.164	-0.098
-470.216	-136.216	0.090	0.010
-469.201	800.000	0.036	-0.118
-468.186	-161.525	-0.135	0.007
-467.172	228.945	0.165	0.268
-466.157	800.000	0.062	-0.179
-465.143	-72.071	-0.457	-0.169
-464.128	-86.505	-0.294	0.090
-463.113	-200.000	0.015	-0.194
-462.099	180.411	-0.208	-0.304
-461.084	-48.258	-0.210	0.101
-460.070	-129.637	0.111	-0.015
-459.055	-9.069	-0.153	-0.102
-458.040	-52.105	-0.221	0.102
-457.026	-25.191	0.099	0.058
-456.011	-191.277	-0.081	0.001
-454.997	671.730	-0.094	-0.242
-453.982	-18.081	0.066	-0.041
-452.968	52.398	-0.324	-0.307
-451.953	746.968	-0.112	0.299
-450.938	-37.103	-0.246	-0.131
-449.924	13.179	0.125	-0.096
-448.909	129.265	0.077	-0.098
-447.895	258.265	-0.145	0.248
-446.880	800.000	-0.073	0.201
-445.865	11.136	-0.037	0.028
-444.851	800.000	0.029	-0.082
-443.836	500.043	0.135	0.311
-442.822	800.000	0.034	-0.112
-441.807	-200.000	-0.002	0.183
-440.792	49.459	-0.169	-0.159
-439.778	-84.514	-0.082	0.026
-438.763	386.076	-0.097	-0.199
-437.749	481.639	0.111	-0.250
-436.734	103.403	-0.085	-0.099
-435.719	-65.303	0.261	-0.104
-434.705	475.945	0.197	-0.442
-433.690	370.309	-0.106	-0.214
-432.676	-136.083	-0.266	-0.031
-431.661	40.205	-0.072	0.064
-430.646	-10.460	-0.057	0.038
-429.632	-74.441	-0.326	0.117
-428.617	8.375	0.061	0.046
-427.603	-24.387	0.074	-0.044
-426.588	-46.183	-0.071	-0.035
-425.573	-135.853	-0.230	0.027
-424.559	351.991	-0.155	-0.306
-423.544	-200.000	-0.021	0.220
-422.530	-200.000	-0.080	0.366
-421.515	-200.000	0.021	-0.191
-420.500	-102.493	0.295	-0.070
-419.486	93.236	0.034	0.039
-418.471	160.158	0.243	-0.336
-417.457	303.525	0.245	0.452
-416.442	214.664	-0.125	0.197
-415.428	124.768	-0.120	0.151
-414.413	800.000	-0.119	-0.332
-413.398	800.000	-0.086	0.329
-412.384	222.675	0.134	0.215
-411.369	-41.369	-0.376	-0.193
-410.355	-56.013	0.143	0.063
-409.340	416.318	-0.131	-0.278
-408.325	-200.000	0.060	0.322
-407.311	-61.717	-0.143	0.059
-406.296	-151.470	-0.094	0.007
-405.282	155.721	-0.072	0.099
-404.267	303.338	-0.084	0.155
-403.252	-55.369	0.276	-0.123
-402.238	-200.000	-0.045	-0.240
-401.223	-200.000	-0.032	-0.141
-400.209	-48.651	-0.122	0.058
-399.194	39.091	0.234	0.208
-398.179	-78.711	0.104	0.035
-397.165	-9.781	-0.138	0.091
-396.150	487.830	-0.105	0.237
-395.136	-110.241	-0.278	-0.058
-394.121	61.368	0.096	0.095
-393.106	-63.140	0.100	-0.041
-392.092	-50.476	-0.143	0.067
-391.077	-163.419	0.491	-0.023
-390.063	-140.085	-0.190	0.020
-389.048	-152.139	-0.125	0.009
-388.033	-200.000	-0.036	0.160
-387.019	271.285	-0.095	-0.167
-386.004	-104.045	0.191	0.044
-384.990	60.823	0.051	0.051
-383.975	800.000	0.109	0.402
-382.960	14.758	0.327	0.254
-381.946	47.007	0.243	0.225
-380.931	79.451	0.115	-0.123
-379.917	-200.000	-0.028	0.262
-378.902	99.295	0.092	0.106
-377.888	185.441	0.133	0.197
-376.873	-175.631	0.489	-0.013
-375.858	148.885	0.198	-0.266
-374.844	-200.000	0.002	-0.327
-373.829	-129.599	0.290	0.040
-372.815	274.746	0.044	-0.078
-371.800	800.000	0.076	0.246
-370.785	-200.000	-0.050	-0.303
-369.771	7.486	-0.024	-0.018
-368.756	274.992	0.144	-0.253
-367.742	-200.000	0.011	0.214
-366.727	-103.912	-0.032	0.008
-365.712	800.000	-0.031	-0.109
-364.698	66.488	0.077	-0.078
-363.683	800.000	0.136	0.386
-362.669	640.401	0.049	-0.123
-361.654	-40.000	0.176	0.091
-360.639	-200.000	0.028	-0.273
-359.625	-199.103	-0.257	-0.001
-358.610	188.725	-0.147	-0.218
-357.596	-11.991	0.299	0.194
-356.581	417.600	-0.162	-0.344
-355.566	-200.000	-0.046	0.355
-354.552	-141.567	-0.140	-0.014
-353.537	45.760	0.071	-0.065
-352.523	75.438	0.081	-0.085
-351.508	101.242	-0.187	-0.216
-350.493	92.097	0.077	-0.086
-349.479	-94.332	0.094	-0.026
-348.464	-73.972	0.231	0.083
-347.450	-44.126	0.075	-0.037
-346.435	121.332	0.111	-0.138
-345.420	423.961	-0.052	-0.111
-344.406	-170.854	0.360	-0.012
-343.391	-35.479	-0.216	-0.116
-342.377	-98.513	-0.280	-0.071
-341.362	227.066	-0.090	0.145
-340.348	-169.366	-0.136	-0.005
-339.333	800.000	0.088	-0.307
-338.318	-74.856	0.172	0.061
-337.304	598.247	0.115	0.283
-336.289	-50.040	-0.212	0.100
-335.275	77.255	0.117	-0.123
-334.260	-16.238	-0.082	-0.051
-333.245	-200.000	-0.023	0.177
-332.231	41.168	-0.065	0.058
-331.216	-16.295	0.222	0.140
-330.202	-169.650	-0.254	0.009
-329.187	-57.243	0.193	0.084
-328.172	4.595	0.232	-0.169
-327.158	800.000	0.113	-0.358
-326.143	217.421	0.106	0.167
-325.129	-200.000	0.020	-0.139
-324.114	-186.985	0.210	-0.003
-323.099	-57.646	0.322	0.140
-322.085	-62.876	0.040	-0.017
-321.070	169.993	-0.199	-0.282
-320.056	-77.967	0.320	-0.109
-319.041	-9.494	0.217	-0.143
-318.026	-7.341	0.156	0.105
-317.012	-119.292	-0.397	-0.068
-315.997	102.105	0.070	0.081
-314.983	-200.000	0.001	-0.136
-313.968	-72.198	-0.407	-0.150
-312.953	-123.307	0.138	-0.022
-311.939	-200.000	0.000	-0.019
-310.924	103.145	0.120	0.139
-309.910	61.214	0.259	0.255
-308.895	-53.516	0.320	0.145
-307.880	-200.000	-0.022	-0.202
-306.866	-186.518	0.066	-0.001
-305.851	-200.000	0.000	-0.249
-304.837	-78.712	0.464	0.157
-303.822	183.284	0.079	-0.115
-302.807	-54.548	-0.423	-0.189
-301.793	51.307	0.189	-0.177
-300.778	548.105	-0.050	0.119
-299.764	91.405	0.164	0.182
-298.749	-200.000	-0.028	-0.288
-297.735	85.237	0.111	-0.121
-296.720	-159.885	-0.633	-0.034
-295.705	-200.000	0.002	0.051
-294.691	-84.335	0.440	-0.138
-293.676	-200.000	-0.059	0.272
-292.662	285.885	0.037	-0.067
-291.647	-61.297	-0.304	-0.127
-290.632	-200.000	-0.038	0.198
-289.618	381.833	0.118	0.240
-288.603	-200.000	-0.021	0.138
-287.589	-130.695	-0.452	-0.060
-286.574	-200.000	0.003	0.024
-285.559	-41.683	-0.314	-0.160
-284.545	-82.584	0.114	-0.036
-283.530	-127.265	-0.418	0.060
-282.516	-88.460	0.263	0.078
-281.501	-78.127	-0.306	0.104
-280.486	346.059	0.083	0.161
-279.472	800.000	0.149	0.475
-278.457	-109.242	-0.182	-0.038
-277.443	-200.000	0.014	0.306
-276.428	3.729	-0.169	0.122
-275.413	-1.619	-0.232	-0.161
-274.399	-130.509	0.313	-0.042
-273.384	-200.000	0.050	0.294
-272.370	-6.567	-0.136	-0.092
-271.355	-200.000	-0.021	0.470
-270.340	176.020	-0.066	-0.095
-269.326	169.885	0.056	-0.079
-268.311	-105.285	0.312	-0.070
-267.297	-200.000	0.022	-0.340
-266.282	-29.310	-0.034	-0.019
-265.267	63.950	0.208	-0.207
-264.253	237.025	-0.131	0.215
-263.238	-200.000	-0.011	-0.227
-262.224	82.431	-0.096	-0.102
-261.209	229.336	0.130	0.210
-260.195	189.513	-0.182	-0.270
-259.180	-117.646	0.392	0.070
-258.165	138.595	-0.122	-0.158
-257.151	-3.570	0.220	-0.151
-256.136	4.971	-0.271	0.197
-255.122	231.288	-0.031	0.050
-254.107	54.760	-0.118	-0.113
-253.092	142.654	-0.216	-0.284
-252.078	-200.000	0.026	0.172
-251.063	-96.730	0.320	-0.083
-250.049	635.323	0.112	0.280
-249.034	-200.000	0.023	0.120
-248.019	-48.740	0.455	-0.216
-247.005	-200.000	0.001	0.084
-245.990	19.496	0.111	-0.088
-244.976	329.025	0.087	-0.165
-243.961	-200.000	0.010	-0.131
-242.946	157.256	0.117	0.160
-241.932	-200.000	-0.028	-0.153
-240.917	-85.996	-0.134	-0.041
-239.903	-200.000	0.012	-0.086
-238.888	-81.626	0.135	-0.044
-237.873	-160.482	-0.366	-0.019
-236.859	666.207	-0.102	-0.260
-235.844	-200.000	-0.026	-0.192
-234.830	800.000	-0.076	0.263
-233.815	-70.747	-0.142	0.053
-232.800	-200.000	-0.006	0.122
-231.786	-101.441	-0.068	0.016
-230.771	-200.000	0.007	0.081
-229.757	193.430	0.167	0.249
-228.742	345.215	0.212	-0.411
-227.727	-112.970	0.210	-0.041
-226.713	-129.421	-0.329	0.045
-225.698	-200.000	-0.011	0.120
-224.684	6.639	0.220	0.161
-223.669	-138.397	0.137	0.015
-222.655	-97.141	0.107	-0.028
-221.640	-200.000	-0.033	-0.144
-220.625	-93.376	0.238	0.065
-219.611	185.831	0.106	-0.156
-218.596	-19.313	-0.205	-0.125
-217.582	41.105	-0.125	-0.111
-216.567	-6.619	-0.309	-0.208
-215.552	449.230	0.157	-0.341
-214.538	-200.000	-0.003	-0.047
-213.523	-76.146	0.070	-0.024
-212.509	800.000	-0.090	0.327
-211.494	72.843	-0.118	-0.121
-210.479	3.030	0.278	0.199
-209.465	-200.000	0.004	-0.018
-208.450	29.306	0.160	-0.134
-207.436	46.261	0.104	-0.095
-206.421	89.975	0.215	0.237
-205.406	-200.000	-0.029	0.184
-204.392	-54.594	0.287	0.128
-203.377	84.850	-0.110	-0.119
-202.363	-200.000	0.052	-0.233
-201.348	37.417	-0.216	-0.189
-200.333	645.358	-0.055	0.138
-199.319	69.748	0.073	0.074
-198.304	164.140	0.241	-0.334
-197.290	81.669	0.061	-0.065
-196.275	-200.000	0.011	-0.230
-195.260	59.566	0.072	-0.070
-194.246	215.680	-0.116	-0.181
-193.231	-86.201	0.039	0.012
-192.217	-56.132	-0.264	0.116
-191.202	-13.209	-0.260	0.166
-190.187	800.000	-0.053	0.177
-189.173	157.077	-0.169	-0.231
-188.158	320.422	0.006	-0.011
-187.144	800.000	-0.029	-0.104
-186.129	570.227	0.085	0.205
-185.114	151.558	0.105	0.141
-184.100	312.138	0.128	0.237
-183.085	-86.790	0.331	-0.100
-182.071	-146.493	0.148	0.013
-181.056	-18.310	0.208	0.128
-180.042	-200.000	0.040	0.218
-179.027	151.060	0.156	-0.209
-178.012	-56.245	0.187	0.082
-176.998	-200.000	-0.019	-0.118
-175.983	-24.540	0.242	-0.142
-174.969	204.839	0.180	-0.275
-173.954	-101.523	-0.430	-0.103
-172.939	-52.109	-0.165	-0.075
-171.925	244.250	-0.211	-0.349
-170.910	-49.406	0.121	-0.057
-169.896	800.000	0.008	-0.031
-168.881	-53.141	0.153	0.069
-167.866	800.000	0.049	0.185
-166.852	50.118	-0.088	0.082
-165.837	115.708	-0.207	0.249
-164.823	290.330	-0.062	-0.111
-163.808	-41.799	-0.099	0.050
-162.793	-55.543	-0.121	-0.053
-161.779	336.581	0.030	0.058
-160.764	-184.266	-0.171	0.003
-159.750	-84.632	-0.316	-0.098
-158.735	121.000	0.067	0.083
-157.720	261.752	0.136	0.232
-156.706	-169.587	-0.586	-0.021
-155.691	-105.720	-0.061	0.014
-154.677	234.901	-0.050	-0.081
-153.662	-200.000	-0.015	0.085
-152.647	129.358	-0.158	0.198
-151.633	-200.000	0.018	0.117
-150.618	284.654	0.280	-0.497
-149.604	79.541	0.203	0.215
-148.589	94.929	0.142	0.159
-147.574	210.825	0.093	-0.144
-146.560	463.181	-0.187	-0.412
-145.545	-97.876	0.062	-0.016
-144.531	21.238	-0.186	0.149
-143.516	-19.526	-0.168	-0.102
-142.502	-60.781	-0.127	-0.053
-141.487	-102.238	0.263	0.062
-140.472	-17.016	-0.202	0.125
-139.458	-79.377	0.138	0.046
-138.443	-200.000	0.008	0.262
-137.429	534.981	-0.075	0.174
-136.414	-120.425	-0.172	-0.029
-135.399	800.000	-0.060	0.252
-134.385	-154.570	0.368	0.024
-133.370	800.000	-0.041	0.125
-132.356	800.000	0.019	0.055
-131.341	-45.596	0.095	-0.046
-130.326	800.000	0.036	0.142
-129.312	147.148	-0.126	-0.167
-128.297	-62.222	0.057	-0.023
-127.283	800.000	-0.065	-0.197
-126.268	525.808	0.068	-0.158
-125.253	-155.576	-0.238	-0.015
-124.239	-68.885	0.167	0.063
-123.224	-115.138	-0.129	0.024
-122.210	575.542	-0.072	0.173
-121.195	160.538	-0.130	-0.178
-120.180	163.102	-0.219	-0.302
-119.166	81.037	-0.127	0.135
-118.151	-200.000	-0.051	0.256
-117.137	517.226	0.167	0.385
-116.122	-132.442	0.095	-0.012
-115.107	-9.855	0.050	0.033
-114.093	-200.000	0.004	0.166
-113.078	-98.268	0.114	-0.029
-112.064	-44.348	0.088	-0.043
-111.049	57.838	0.206	-0.198
-110.034	-90.274	-0.380	0.108
-109.020	312.472	0.044	-0.082
-108.005	-200.000	-0.042	-0.193
-106.991	4.233	-0.131	-0.094
-105.976	-35.035	0.201	0.108
-104.962	5.175	-0.183	0.132
-103.947	27.918	-0.117	-0.097
-102.932	800.000	0.064	0.220
-101.918	-200.000	-0.064	0.275
-100.903	-200.000	0.015	-0.129
-99.889	-115.371	0.368	-0.068
-98.874	-37.600	-0.311	-0.163
-97.859	422.811	-0.075	-0.159
-96.845	116.863	-0.105	-0.127
-95.830	486.427	-0.124	-0.277
-94.816	-200.000	-0.022	0.184
-93.801	269.682	0.109	0.189
-92.786	-200.000	-0.005	0.129
-91.772	-200.000	0.062	0.395
-90.757	120.361	0.069	-0.084
-89.743	17.322	-0.344	0.268
-88.728	-200.000	0.007	0.136
-87.713	-100.096	-0.070	-0.017
-86.699	159.763	0.260	-0.355
-85.684	-65.946	0.106	0.042
-84.670	800.000	-0.043	0.124
-83.655	351.705	-0.121	-0.234
-82.640	800.000	0.077	-0.281
-81.626	-7.620	0.302	0.201
-80.611	-77.944	-0.086	-0.029
-79.597	376.275	0.140	-0.281
-78.582	-200.000	0.015	0.217
-77.567	-18.084	-0.242	-0.149
-76.553	-54.248	0.233	0.104
-75.538	158.443	0.220	-0.300
-74.524	604.873	-0.074	0.180
-73.509	383.001	0.116	0.235
-72.494	800.000	0.027	-0.084
-71.480	-200.000	-0.027	0.447
-70.465	-99.111	0.347	-0.086
-69.451	-95.895	0.271	-0.071
-68.436	23.696	-0.293	-0.237
-67.422	-23.432	0.088	-0.052
-66.407	349.561	-0.079	-0.152
-65.392	800.000	-0.086	-0.252
-64.378	-172.537	0.285	-0.009
-63.363	-200.000	-0.049	0.271
-62.349	454.377	-0.105	0.228
-61.334	75.108	-0.795	-0.822
-60.319	21.127	0.685	0.545
-59.305	181.500	-0.490	-0.706
-58.290	328.828	0.615	1.160
-57.276	548.359	0.651	1.528
-56.261	-200.000	108.631	593.034
-55.246	446.150	1483.934	3198.441
-54.232	146.003	2674.086	3516.751
-53.217	99.733	2288.055	2597.864
-52.203	38.450	1899.359	1659.876
-51.188	32.709	1687.535	1431.272
-50.173	30.054	1644.469	1375.016
-49.159	49.398	1698.167	1566.288
-48.144	49.448	1713.798	1581.017
-47.130	32.392	1670.773	1414.444
-46.115	29.632	1656.526	1381.725
-45.100	29.416	1651.840	1376.148
-44.086	29.363	1648.877	1373.230
-43.071	29.298	1646.447	1370.668
-42.057	29.237	1644.242	1368.329
-41.042	29.309	1641.739	1366.725
-40.027	29.413	1639.670	1365.714
-39.013	29.391	1637.884	1364.009
-37.998	29.283	1636.770	1362.228
-36.984	29.390	1635.438	1361.857
-35.969	29.387	1634.182	1360.736
-34.954	29.494	1632.433	1360.013
-33.940	29.516	1630.202	1358.261
-32.925	29.562	1628.630	1357.238
-31.911	29.529	1627.352	1355.876
-30.896	29.509	1625.029	1353.743
-29.881	29.380	1623.971	1351.862
-28.867	29.501	1621.917	1350.979
-27.852	29.413	1621.022	1349.541
-26.838	29.491	1618.793	1348.203
-25.823	29.535	1617.897	1347.721
-24.809	29.606	1616.336	1346.887
-23.794	29.451	1615.553	1345.047
-22.779	29.578	1613.559	1344.257
-21.765	29.506	1612.008	1342.389
-20.750	29.413	1610.464	1340.378
-19.736	29.604	1608.536	1340.108
-18.721	29.499	1607.786	1338.664
-17.706	29.567	1605.980	1337.603
-16.692	29.537	1604.899	1336.431
-15.677	29.515	1603.247	1334.843
-14.663	29.548	1601.618	1333.672
-13.648	29.471	1600.705	1332.306
-12.633	29.459	1598.816	1330.590
-11.619	29.469	1597.741	1329.715
-10.604	29.453	1596.402	1328.434
-9.590	29.531	1594.882	1327.675
-8.575	29.570	1593.225	1326.524
-7.560	29.562	1592.064	1325.447
-6.546	29.506	1591.308	1324.364
-5.531	29.490	1590.117	1323.206
-4.517	29.475	1588.727	1321.891
-3.502	29.537	1587.378	1321.156
-2.487	29.599	1585.427	1319.926
-1.473	29.266	1574.317	1308.258
-0.458	26.576	1555.310	1273.525
0.556	21.400	1556.409	1243.458
1.571	19.226	1580.408	1246.807
2.586	19.011	1592.949	1255.015
3.600	17.429	1539.649	1201.752
4.615	9.561	1430.475	1064.624
5.629	1.742	1365.872	966.952
6.644	0.206	1357.561	951.286
7.659	0.085	1356.426	949.643
8.673	0.134	1355.054	948.904
9.688	-0.005	1353.603	946.927
10.702	-0.181	1350.005	943.224
11.717	3.527	1356.004	970.694
12.731	12.126	1369.564	1034.771
13.746	17.215	1376.579	1072.169
14.761	17.077	1375.208	1070.139
15.775	16.191	1372.360	1062.253
16.790	15.258	1369.268	1053.904
17.804	14.380	1367.553	1046.973
18.819	14.026	1366.083	1043.529
19.834	13.796	1364.507	1040.790
20.848	13.436	1363.507	1037.680
21.863	13.247	1361.976	1035.243
22.877	13.043	1361.075	1033.187
23.892	13.062	1360.242	1032.581
24.907	13.059	1359.451	1031.874
25.921	13.089	1358.287	1031.082
26.936	13.120	1357.181	1030.347
27.950	13.155	1356.698	1030.110
28.965	13.289	1355.157	1029.682
29.980	13.190	1354.996	1028.850
30.994	13.265	1353.277	1027.920
32.009	13.297	1353.007	1027.826
33.023	13.320	1351.807	1026.962
34.038	13.307	1350.703	1025.953
35.053	13.194	1349.795	1024.475
36.067	13.233	1348.654	1023.761
37.082	13.322	1347.638	1023.449
38.096	13.291	1346.765	1022.501
39.111	13.275	1345.873	1021.638
40.126	13.229	1345.212	1020.762
41.140	13.285	1343.960	1020.065
42.155	13.121	1344.057	1019.033
43.169	13.099	1343.389	1018.301
44.184	13.066	1343.134	1017.817
45.199	13.099	1343.283	1018.046
46.213	13.093	1342.628	1017.422
47.228	13.221	1340.970	1016.860
48.242	13.089	1340.485	1015.594
49.257	13.185	1338.901	1014.888
50.271	13.161	1337.260	1013.410
51.286	13.247	1335.986	1012.881
52.301	13.149	1334.542	1011.101
53.315	13.090	1333.487	1009.848
54.330	13.117	1332.353	1009.068
55.344	13.222	1331.303	1008.821
56.359	13.122	1330.607	1007.596
57.374	13.101	1329.407	1006.466
58.388	13.069	1328.692	1005.644
59.403	13.117	1328.508	1005.706
60.417	12.929	1327.654	1003.828
61.432	12.999	1326.858	1003.563
62.447	13.086	1325.536	1003.004
63.461	12.940	1324.662	1001.364
64.476	12.939	1323.231	1000.193
65.490	12.972	1322.226	999.543
66.505	12.917	1321.260	998.391
67.520	12.976	1319.907	997.635
68.534	13.059	1318.213	996.767
69.549	13.003	1317.714	995.968
70.563	13.065	1316.709	995.492
71.578	13.026	1315.808	994.490
72.593	12.971	1314.476	993.059
73.607	12.862	1313.890	991.875
74.622	12.878	1312.694	990.982
75.636	12.920	1312.127	990.718
76.651	12.846	1311.548	989.749
77.666	12.899	1310.551	989.226
78.680	12.890	1310.707	989.204
79.695	13.039	1309.239	988.899
80.709	13.102	1308.729	988.805
81.724	13.134	1307.877	988.266
82.739	13.085	1306.674	986.978
83.753	13.091	1306.166	986.541
84.768	13.169	1304.949	985.997
85.782	13.201	1303.834	985.259
86.797	13.316	1302.056	984.517
87.812	13.123	1301.049	982.515
88.826	13.244	1299.843	982.238
89.841	13.175	1299.124	981.200
90.855	13.214	1298.478	980.854
91.870	13.209	1297.350	979.888
92.884	13.263	1296.586	979.542
93.899	13.288	1295.335	978.663
94.914	13.349	1294.873	978.585
95.928	13.292	1294.140	977.609
96.943	13.322	1292.783	976.671
97.957	13.298	1292.235	976.030
98.972	13.191	1291.233	974.555
99.987	13.182	1290.629	973.959
101.001	13.277	1289.389	973.498
102.016	13.092	1288.367	971.552
103.030	13.269	1287.349	971.742
104.045	13.176	1286.738	970.644
105.060	13.217	1285.180	969.623
106.074	13.159	1283.760	968.126
107.089	13.110	1282.218	966.596
108.103	13.191	1280.734	965.863
109.118	13.043	1279.592	964.054
110.133	13.002	1279.071	963.336
111.147	13.062	1277.252	962.227
112.162	13.120	1275.956	961.505
113.176	13.143	1274.647	960.568
114.191	13.236	1273.836	960.411
115.206	13.140	1273.048	959.175
116.220	13.104	1271.885	958.005
117.235	13.134	1270.345	956.936
118.249	13.127	1269.645	956.282
119.264	13.033	1268.614	954.879
120.279	13.092	1267.243	954.104
121.293	13.103	1266.178	953.281
122.308	13.087	1265.049	952.253
123.322	13.007	1264.176	951.050
124.337	13.172	1263.143	951.140
125.352	13.115	1261.986	949.858
126.366	13.101	1260.994	948.946
127.381	13.084	1259.765	947.837
128.395	13.113	1259.135	947.448
129.410	13.026	1258.052	946.048
130.424	13.076	1256.977	945.445
131.439	13.099	1256.190	944.901
132.454	13.146	1255.084	944.251
133.468	12.987	1254.591	942.888
134.483	13.043	1253.877	942.592
135.497	13.167	1252.173	941.933
136.512	13.253	1250.866	941.356
137.527	13.215	1249.604	940.103
138.541	13.132	1248.497	938.718
139.556	13.162	1246.825	937.551
140.570	13.128	1246.127	936.746
141.585	13.327	1244.407	936.498
142.600	13.337	1243.249	935.599
143.614	13.257	1242.983	934.864
144.629	13.319	1241.775	934.226
145.643	13.361	1240.159	933.162
146.658	13.351	1238.724	931.946
147.673	13.237	1237.923	930.618
148.687	13.331	1236.681	930.132
149.702	13.195	1235.523	928.412
150.716	13.234	1233.911	927.337
151.731	13.291	1232.891	926.807
152.746	13.247	1231.904	925.739
153.760	13.295	1230.821	925.114
154.775	13.307	1229.388	924.022
155.789	13.355	1228.452	923.503
156.804	13.427	1227.070	922.782
157.819	13.445	1226.551	922.411
158.833	13.539	1225.334	921.936
159.848	13.505	1224.939	921.372
160.862	13.588	1223.858	920.938
161.877	13.424	1222.635	919.027
162.892	13.407	1221.504	918.001
163.906	13.399	1220.550	917.154
164.921	13.451	1220.039	916.981
165.935	13.407	1218.936	915.823
166.950	13.541	1218.301	916.010
167.964	13.401	1217.761	914.748
168.979	13.529	1216.806	914.659
169.994	13.389	1216.581	913.634
171.008	13.495	1215.632	913.422
172.023	13.515	1214.615	912.692
173.037	13.589	1213.731	912.352
174.052	13.527	1213.101	911.458
175.067	13.599	1211.930	910.892
176.081	13.476	1211.288	909.655
177.096	13.547	1210.129	909.091
178.110	13.498	1208.822	907.762
179.125	13.575	1207.436	907.060
180.140	13.594	1206.567	906.433
181.154	13.577	1205.044	905.117
182.169	13.583	1204.158	904.401
183.183	13.635	1202.610	903.444
184.198	13.692	1201.565	902.890
185.213	13.582	1200.719	901.574
186.227	13.676	1199.767	901.291
187.242	13.809	1198.169	900.735
188.256	13.727	1197.336	899.584
189.271	13.800	1196.710	899.426
190.286	13.649	1195.562	897.669
191.300	13.561	1194.712	896.474
192.315	13.504	1194.275	895.760
193.329	13.616	1193.459	895.675
194.344	13.595	1193.051	895.173
195.359	13.627	1192.519	894.867
196.373	13.714	1191.646	894.602
197.388	13.817	1191.078	894.652
198.402	13.769	1190.850	894.142
199.417	13.908	1189.810	894.031
200.432	13.949	1189.291	893.785
201.446	13.976	1188.393	893.177
202.461	14.019	1187.031	892.303
203.475	14.012	1186.278	891.623
204.490	14.018	1184.857	890.505
205.504	14.062	1183.180	889.401
206.519	13.965	1182.103	887.995
207.534	13.914	1181.404	887.120
208.548	13.941	1180.576	886.565
209.563	13.901	1179.786	885.679
210.577	13.876	1178.842	884.758
211.592	14.071	1177.803	884.936
212.607	14.161	1177.033	884.761
213.621	14.095	1175.929	883.500
214.636	14.113	1175.088	882.886
215.650	14.167	1174.321	882.518
216.665	14.041	1173.457	881.124
217.680	14.156	1172.341	880.817
218.694	14.249	1171.363	880.493
219.709	14.192	1170.811	879.699
220.723	14.191	1170.526	879.404
221.738	14.188	1169.732	878.713
222.753	14.145	1168.862	877.758
223.767	14.246	1168.322	877.803
224.782	14.275	1167.597	877.337
225.796	14.309	1166.687	876.754
226.811	14.381	1165.949	876.500
227.826	14.339	1165.057	875.530
228.840	14.229	1164.723	874.623
229.855	14.266	1164.414	874.509
230.869	14.272	1163.266	873.603
231.884	14.301	1162.188	872.869
232.899	14.306	1161.645	872.405
233.913	14.258	1160.650	871.334
234.928	14.198	1160.163	870.573
235.942	14.158	1159.321	869.658
236.957	14.312	1158.713	869.930
237.972	14.161	1158.102	868.605
238.986	14.221	1157.402	868.318
240.001	14.189	1156.391	867.313
241.015	14.251	1155.925	867.212
242.030	14.323	1154.915	866.749
243.045	14.419	1153.681	866.248
244.059	14.370	1153.402	865.704
245.074	14.450	1152.587	865.431
246.088	14.544	1151.768	865.228
247.103	14.582	1150.752	864.584
248.117	14.530	1150.289	863.891
249.132	14.622	1149.254	863.517
250.147	14.599	1148.900	863.053
251.161	14.713	1148.197	863.041
252.176	14.745	1147.244	862.409
253.190	14.742	1147.005	862.138
254.205	14.760	1146.100	861.477
255.220	14.911	1145.412	861.661
256.234	14.837	1145.142	861.001
257.249	14.806	1143.943	859.864
258.263	14.820	1143.577	859.583
259.278	14.949	1142.927	859.680
260.293	14.918	1142.383	859.037
261.307	14.789	1142.180	858.148
262.322	14.888	1141.384	857.983
263.336	14.928	1140.730	857.620
264.351	14.973	1140.058	857.267
265.366	14.903	1139.601	856.489
266.380	14.957	1138.588	855.928
267.395	14.884	1138.193	855.183
268.409	14.875	1137.123	854.257
269.424	15.012	1136.103	854.115
270.439	14.883	1136.011	853.312
271.453	14.886	1135.390	852.784
272.468	14.965	1133.903	851.993
273.482	15.027	1133.452	851.895
274.497	14.988	1133.411	851.593
275.512	15.007	1132.382	850.839
276.526	15.022	1131.816	850.413
277.541	15.022	1130.755	849.543
278.555	15.033	1130.060	849.002
279.570	15.057	1129.398	848.549
280.585	15.041	1129.020	848.110
281.599	15.213	1127.529	847.785
282.614	15.131	1126.523	846.542
283.628	15.106	1125.681	845.704
284.643	15.157	1124.791	845.222
285.657	15.121	1124.409	844.676
286.672	15.091	1123.053	843.433
287.687	15.246	1122.028	843.370
288.701	15.142	1121.736	842.551
289.716	15.261	1120.431	842.094
290.730	15.234	1120.133	841.660
291.745	15.259	1119.452	841.199
292.760	15.286	1118.879	840.828
293.774	15.442	1118.143	840.983
294.789	15.311	1118.073	840.198
295.803	15.337	1117.073	839.505
296.818	15.301	1116.341	838.700
297.833	15.372	1115.484	838.337
298.847	15.352	1114.867	837.700
299.862	15.346	1113.830	836.813
300.876	15.369	1113.077	836.291
301.891	15.507	1112.289	836.312
302.906	15.481	1111.923	835.832
303.920	15.536	1111.230	835.512
304.935	15.519	1110.630	834.901
305.949	15.620	1109.833	834.730
306.964	15.558	1109.310	833.957
307.979	15.575	1108.314	833.220
308.993	15.511	1107.835	832.467
310.008	15.684	1106.910	832.553
311.022	15.761	1106.043	832.209
312.037	15.719	1105.322	831.388
313.052	15.660	1104.224	830.193
314.066	15.608	1103.258	829.139
315.081	15.604	1102.764	828.675
316.095	15.549	1102.074	827.811
317.110	15.492	1101.422	826.966
318.125	15.561	1100.399	826.465
319.139	15.518	1099.694	825.653
320.154	15.625	1098.914	825.517
321.168	15.589	1098.613	825.041
322.183	15.614	1097.949	824.594
323.197	15.723	1097.227	824.513
324.212	15.564	1097.112	823.576
325.227	15.692	1096.175	823.424
326.241	15.741	1095.489	823.078
327.256	15.700	1094.738	822.240
328.270	15.654	1093.702	821.162
329.285	15.773	1092.668	820.896
330.300	15.769	1091.767	820.128
331.314	15.784	1090.926	819.495
332.329	15.864	1089.623	818.834
333.343	15.796	1089.142	818.067
334.358	15.890	1088.189	817.736
335.373	15.823	1087.691	816.964
336.387	15.846	1087.182	816.623
337.402	15.722	1086.708	815.591
338.416	15.960	1085.874	816.049
339.431	15.975	1084.942	815.348
340.446	15.888	1084.705	814.675
341.460	15.912	1084.027	814.212
342.475	15.987	1082.985	813.717
343.489	16.092	1081.805	813.266
344.504	15.984	1081.055	812.112
345.519	16.163	1080.021	812.121
346.533	16.160	1079.304	811.496
347.548	16.102	1078.904	810.845
348.562	16.184	1077.793	810.332
349.577	16.152	1077.272	809.719
350.592	16.146	1076.643	809.142
351.606	16.066	1075.933	808.156
352.621	16.101	1075.090	807.618
353.635	16.050	1074.528	806.881
354.650	16.013	1074.061	806.281
355.665	16.075	1073.433	806.036
356.679	16.073	1072.538	805.282
357.694	16.141	1072.155	805.247
358.708	16.187	1071.297	804.750
359.723	16.194	1070.590	804.183
360.738	16.251	1070.059	803.985
361.752	16.182	1069.743	803.344
362.767	16.243	1069.049	803.044
363.781	16.354	1068.262	802.910
364.796	16.392	1067.907	802.755
365.810	16.467	1067.553	802.772
366.825	16.404	1066.429	801.555
367.840	16.402	1066.289	801.372
368.854	16.464	1065.517	801.015
369.869	16.543	1064.917	800.866
370.883	16.553	1063.764	799.974
371.898	16.486	1063.080	799.071
372.913	16.390	1062.868	798.391
373.927	16.476	1062.439	798.402
374.942	16.424	1061.981	797.743
375.956	16.496	1061.080	797.337
376.971	16.578	1060.219	797.005
377.986	16.617	1059.464	796.548
379.000	16.724	1059.010	796.641
380.015	16.624	1058.932	796.040
381.029	16.800	1057.880	796.006
382.044	16.709	1057.543	795.255
383.059	16.611	1057.126	794.413
384.073	16.777	1055.606	793.975
385.088	16.707	1054.842	793.003
386.102	16.688	1053.887	792.128
387.117	16.782	1053.174	791.960
388.132	16.545	1052.364	790.175
389.146	16.776	1051.411	790.464
390.161	16.633	1051.089	789.486
391.175	16.715	1049.849	788.871
392.190	16.685	1049.890	788.688
393.205	16.728	1048.962	788.125
394.219	16.938	1047.927	788.251
395.234	16.711	1047.192	786.573
396.248	16.887	1046.038	786.457
397.263	16.744	1045.205	785.094
398.278	16.740	1044.579	784.538
399.292	16.754	1043.918	784.038
400.307	16.847	1043.164	783.834
401.321	16.827	1042.521	783.189
402.336	16.823	1041.708	782.488
403.350	16.853	1041.133	782.124
404.365	16.813	1040.897	781.692
405.380	16.867	1039.650	780.937
406.394	16.911	1038.799	780.434
407.409	16.939	1038.504	780.269
408.423	17.083	1037.869	780.388
409.438	17.082	1037.247	779.844
410.453	17.132	1036.651	779.557
411.467	17.034	1035.578	778.230
412.482	17.112	1035.142	778.194
413.496	17.142	1034.243	777.586
414.511	17.231	1033.624	777.456
415.526	17.167	1033.466	776.979
416.540	17.200	1032.715	776.497
417.555	17.272	1032.369	776.494
418.569	17.260	1032.036	776.121
419.584	17.370	1031.044	775.809
420.599	17.251	1030.876	775.072
421.613	103.346	1321.875	1468.874
422.628	94.588	1364.243	1468.978
