DTS Sentinel unit serial number:	SN413079Multiplexer serial number:	ORYXHardware model number:	OX4-SRSoftware version number:	ORYX F/W v4.00 Oryx Data Collector v3.7.2.0data status	okinstallation	princeton_trtdifferential loss correction	single-endedforward channel	channel 2reverse channel	N/Adate	2019/09/18time	02:23:35forward acquisition time	60.00reverse acquisition time	0.00gamma	496.2192k internal	0.2350k external	0.2350temperature offset calibration	0.9983default loss term (dB/km)	0.3790temperature slope calibration	1.0000multiplexer offset coefficient	1.0000multiplexer slope coefficient	1.0000fibre end	0.00T internal ref (°C)	22.81T ext. ref 1 (°C)	0.17T ext. ref 2 (°C)	16.93length (m)	temperature (°C)	Stokes	anti-Stokes-747.200	-107.953	0.199	0.043
-746.185	-75.529	0.101	-0.036
-745.171	-6.682	-0.193	0.131
-744.156	800.000	0.003	0.014
-743.142	-200.000	-0.006	0.136
-742.127	-162.256	0.188	-0.009
-741.112	-170.005	-0.181	0.006
-740.098	-200.000	-0.010	0.169
-739.083	526.027	0.060	-0.141
-738.069	-102.751	-0.436	-0.104
-737.054	800.000	-0.107	0.300
-736.039	-23.062	-0.149	-0.090
-735.025	800.000	0.091	0.375
-734.010	113.434	-0.260	-0.315
-732.996	93.243	0.111	0.126
-731.981	102.019	-0.206	-0.240
-730.966	77.728	0.084	0.089
-729.952	-30.693	-0.143	-0.081
-728.937	-105.511	-0.075	-0.017
-727.923	-200.000	-0.041	0.282
-726.908	800.000	0.041	-0.123
-725.894	779.836	0.088	-0.239
-724.879	-100.566	0.180	0.044
-723.864	800.000	-0.051	0.167
-722.850	800.000	0.047	0.144
-721.835	-156.883	0.157	0.010
-720.821	31.631	-0.152	-0.131
-719.806	-200.000	0.018	0.266
-718.791	-74.416	0.137	0.049
-717.777	-87.713	0.121	-0.036
-716.762	800.000	-0.087	0.244
-715.748	-200.000	-0.023	0.294
-714.733	122.093	-0.134	0.167
-713.718	-125.283	0.029	0.004
-712.704	-35.849	-0.265	-0.143
-711.689	-189.030	-0.220	0.003
-710.675	73.620	-0.301	0.314
-709.660	145.535	-0.260	0.347
-708.645	-45.160	-0.257	-0.127
-707.631	-200.000	0.062	0.294
-706.616	-188.651	0.246	-0.003
-705.602	506.781	-0.060	0.138
-704.587	22.396	-0.088	0.072
-703.572	-162.615	-0.280	0.014
-702.558	800.000	0.062	0.226
-701.543	-145.489	0.321	0.029
-700.529	800.000	-0.031	0.124
-699.514	31.554	0.188	0.161
-698.499	351.081	0.124	0.244
-697.485	467.721	-0.101	-0.226
-696.470	79.175	0.049	-0.053
-695.456	-194.516	-0.341	-0.003
-694.441	-48.743	-0.382	-0.183
-693.426	-200.000	-0.003	0.021
-692.412	-200.000	0.006	0.058
-691.397	-44.540	0.026	-0.013
-690.383	60.233	0.207	0.204
-689.368	-88.457	-0.535	-0.159
-688.354	-84.125	-0.210	-0.066
-687.339	-92.689	-0.298	0.083
-686.324	-200.000	-0.011	-0.186
-685.310	800.000	-0.065	0.211
-684.295	-142.072	-0.243	0.024
-683.281	181.312	0.075	0.111
-682.266	-43.080	0.151	-0.076
-681.251	-78.291	-0.269	-0.092
-680.237	-200.000	-0.003	-0.066
-679.222	49.708	-0.244	-0.229
-678.208	-200.000	0.048	-0.303
-677.193	-77.440	0.158	-0.055
-676.178	564.750	0.179	-0.433
-675.164	332.992	0.110	-0.211
-674.149	-200.000	0.025	-0.128
-673.135	321.194	-0.128	-0.243
-672.120	-93.407	-0.150	-0.041
-671.105	-90.899	0.156	-0.045
-670.091	-200.000	-0.016	-0.134
-669.076	800.000	0.028	0.115
-668.062	676.553	0.059	-0.151
-667.047	800.000	0.102	0.307
-666.032	394.975	-0.065	-0.135
-665.018	75.577	-0.020	0.021
-664.003	57.039	-0.028	-0.028
-662.989	62.876	0.052	0.052
-661.974	800.000	-0.093	0.386
-660.959	25.824	0.014	0.012
-659.945	-149.058	-0.214	0.017
-658.930	-53.641	-0.269	0.122
-657.916	800.000	-0.002	-0.005
-656.901	532.187	0.069	-0.163
-655.886	-4.777	-0.281	0.193
-654.872	195.291	-0.180	-0.272
-653.857	135.915	0.175	0.226
-652.843	478.721	0.112	0.251
-651.828	-37.706	-0.197	0.104
-650.814	-160.097	-0.267	-0.014
-649.799	-200.000	0.002	0.082
-648.784	278.276	0.151	-0.268
-647.770	-126.377	0.298	-0.044
-646.755	460.837	0.056	-0.124
-645.741	800.000	-0.029	0.108
-644.726	-7.399	0.172	0.116
-643.711	531.329	0.159	-0.374
-642.697	-90.870	-0.034	-0.010
-641.682	30.836	-0.234	-0.199
-640.668	796.385	-0.096	-0.263
-639.653	-80.652	0.186	0.061
-638.638	256.495	-0.051	0.087
-637.624	-51.153	-0.051	-0.024
-636.609	800.000	-0.043	-0.139
-635.595	-200.000	-0.005	0.173
-634.580	800.000	-0.054	-0.222
-633.565	-93.160	-0.065	-0.018
-632.551	460.355	-0.059	-0.131
-631.536	362.398	-0.144	0.288
-630.522	640.682	0.016	0.041
-629.507	-200.000	0.047	-0.379
-628.492	230.549	-0.173	0.282
-627.478	361.887	-0.112	-0.222
-626.463	-200.000	-0.035	0.226
-625.449	681.830	-0.149	-0.387
-624.434	-22.816	0.046	-0.028
-623.419	-88.504	0.451	-0.134
-622.405	375.640	0.064	0.130
-621.390	184.368	0.125	0.184
-620.376	55.193	0.255	-0.245
-619.361	367.042	-0.142	0.284
-618.346	119.681	-0.189	0.233
-617.332	-200.000	-0.002	0.079
-616.317	502.093	0.077	-0.176
-615.303	-47.173	0.094	-0.046
-614.288	665.119	0.021	0.055
-613.273	-200.000	0.013	-0.411
-612.259	-61.101	-0.134	0.056
-611.244	-133.211	0.127	0.016
-610.230	153.373	-0.181	-0.246
-609.215	-200.000	-0.008	-0.155
-608.201	128.109	0.250	0.315
-607.186	-200.000	-0.007	-0.321
-606.171	800.000	0.017	-0.074
-605.157	11.912	-0.109	0.083
-604.142	8.589	-0.383	-0.287
-603.128	-163.844	-0.126	-0.006
-602.113	138.287	-0.092	0.119
-601.098	-160.370	-0.132	-0.007
-600.084	102.970	-0.196	0.227
-599.069	265.395	-0.203	-0.352
-598.055	153.735	0.346	-0.470
-597.040	-200.000	-0.031	-0.164
-596.025	-57.860	-0.352	0.153
-595.011	21.010	0.327	-0.263
-593.996	-176.508	0.444	0.011
-592.982	-23.538	0.252	-0.150
-591.967	-159.914	-0.463	0.025
-590.952	159.273	0.082	0.113
-589.938	314.356	-0.108	0.202
-588.923	-102.463	-0.239	-0.057
-587.909	-141.549	-0.305	0.031
-586.894	85.316	0.066	0.072
-585.879	800.000	0.079	0.220
-584.865	-45.917	-0.209	-0.103
-583.850	-116.652	0.237	-0.043
-582.836	-59.976	-0.312	-0.132
-581.821	800.000	-0.112	-0.392
-580.806	206.001	-0.155	-0.239
-579.792	-200.000	-0.016	0.079
-578.777	-35.341	0.410	-0.221
-577.763	415.661	0.065	0.138
-576.748	-200.000	-0.037	0.284
-575.733	124.528	0.105	-0.131
-574.719	-142.012	-0.268	-0.026
-573.704	-24.066	0.382	-0.227
-572.690	284.404	0.066	0.117
-571.675	-200.000	-0.005	-0.103
-570.661	134.853	0.128	-0.165
-569.646	-200.000	-0.033	-0.292
-568.631	-141.503	-0.220	0.022
-567.617	-117.229	-0.347	-0.063
-566.602	36.225	-0.210	-0.183
-565.588	788.965	0.105	-0.286
-564.573	129.079	-0.126	0.159
-563.558	244.560	0.122	-0.204
-562.544	22.543	-0.269	-0.218
-561.529	452.040	-0.157	-0.344
-560.515	479.884	0.204	0.459
-559.500	-200.000	-0.017	0.123
-558.485	111.853	-0.262	0.313
-557.471	39.624	-0.155	0.138
-556.456	5.973	-0.148	-0.108
-555.442	96.256	-0.228	0.258
-554.427	-54.387	0.171	0.077
-553.412	-107.921	0.167	-0.036
-552.398	347.356	-0.131	0.256
-551.383	-136.117	-0.352	0.041
-550.369	213.493	-0.047	0.073
-549.354	-113.896	0.083	-0.016
-548.339	55.106	0.353	0.338
-547.325	56.505	-0.220	0.212
-546.310	-98.741	0.046	-0.012
-545.296	148.155	-0.068	0.091
-544.281	493.366	-0.076	-0.174
-543.266	71.318	0.102	-0.104
-542.252	39.951	0.201	0.179
-541.237	31.018	-0.231	-0.196
-540.223	800.000	0.038	-0.116
-539.208	790.479	-0.090	-0.246
-538.193	-13.568	-0.267	0.172
-537.179	-67.449	-0.176	0.068
-536.164	100.166	-0.181	-0.208
-535.150	-88.852	0.336	0.099
-534.135	47.127	-0.251	-0.231
-533.121	181.493	0.255	-0.372
-532.106	-47.781	0.128	0.061
-531.091	101.392	0.120	-0.138
-530.077	-4.242	-0.159	-0.109
-529.062	25.137	-0.119	-0.098
-528.048	94.931	0.050	0.056
-527.033	17.155	-0.124	-0.097
-526.018	-200.000	0.148	0.001
-525.004	-150.192	0.326	0.025
-523.989	-200.000	-0.005	-0.246
-522.975	-118.781	0.311	-0.054
-521.960	55.359	0.082	0.078
-520.945	-97.802	-0.088	-0.023
-519.931	800.000	0.035	-0.108
-518.916	-200.000	-0.032	0.144
-517.902	800.000	0.111	-0.339
-516.887	-70.366	0.153	0.057
-515.872	32.230	0.262	0.224
-514.858	116.782	0.265	0.322
-513.843	421.257	-0.076	0.161
-512.829	163.731	-0.153	0.213
-511.814	82.786	0.438	0.471
-510.799	652.882	0.058	0.147
-509.785	-200.000	-0.009	0.156
-508.770	1.788	-0.301	0.215
-507.756	-117.276	-0.347	0.062
-506.741	-200.000	-0.038	0.190
-505.726	207.558	-0.133	-0.205
-504.712	-60.479	0.075	0.032
-503.697	454.947	0.045	0.099
-502.683	13.435	0.195	-0.150
-501.668	-53.443	-0.192	-0.087
-500.653	-50.915	0.175	0.082
-499.639	-200.000	0.021	-0.157
-498.624	204.644	0.083	0.128
-497.610	41.985	-0.217	0.195
-496.595	-76.297	-0.197	-0.069
-495.581	70.710	-0.142	-0.145
-494.566	-200.000	-0.036	-0.200
-493.551	759.609	-0.032	-0.085
-492.537	187.928	0.060	-0.089
-491.522	-81.263	-0.153	-0.050
-490.508	23.905	-0.246	-0.200
-489.493	-93.790	0.337	0.092
-488.478	-64.645	-0.227	0.091
-487.464	-51.959	0.191	-0.088
-486.449	383.936	-0.175	-0.355
-485.435	133.891	0.177	-0.227
-484.420	-200.000	-0.039	-0.323
-483.405	-38.148	0.301	0.158
-482.391	-200.000	-0.004	-0.088
-481.376	-200.000	0.051	-0.378
-480.362	-200.000	-0.037	-0.201
-479.347	-77.871	-0.401	-0.137
-478.332	-200.000	-0.042	0.259
-477.318	-164.693	-0.175	0.008
-476.303	187.772	0.054	0.079
-475.289	-78.478	-0.228	-0.077
-474.274	2.540	-0.149	-0.107
-473.259	9.832	0.212	0.159
-472.245	86.928	0.153	-0.167
-471.230	127.475	-0.155	-0.194
-470.216	-200.000	-0.024	-0.118
-469.201	-21.773	-0.222	-0.133
-468.186	-17.460	-0.182	-0.113
-467.172	687.892	-0.128	0.331
-466.157	156.238	0.210	-0.286
-465.143	-64.179	0.045	0.018
-464.128	244.929	-0.105	0.174
-463.113	16.594	-0.235	0.183
-462.099	-129.425	0.228	0.031
-461.084	-200.000	0.020	-0.191
-460.070	-35.709	-0.201	0.108
-459.055	800.000	-0.108	0.362
-458.040	-143.834	-0.497	-0.046
-457.026	8.791	0.087	0.064
-456.011	-166.062	-0.385	-0.016
-454.997	-91.663	0.075	0.021
-453.982	-146.454	0.448	-0.039
-452.968	-21.228	0.187	0.113
-451.953	613.405	-0.092	-0.228
-450.938	-30.415	-0.214	-0.120
-449.924	-66.037	-0.081	-0.032
-448.909	284.897	0.159	0.282
-447.895	369.343	-0.028	-0.056
-446.880	367.813	0.153	-0.304
-445.865	-78.337	0.263	0.089
-444.851	155.670	0.116	0.158
-443.836	254.375	-0.179	0.302
-442.822	-200.000	0.001	0.154
-441.807	-200.000	0.007	-0.254
-440.792	123.743	0.110	-0.136
-439.778	-102.720	0.347	-0.082
-438.763	-20.288	0.110	-0.067
-437.749	464.867	-0.048	-0.105
-436.734	40.746	0.093	0.083
-435.719	-116.671	-0.216	0.039
-434.705	132.311	0.149	0.189
-433.690	-66.196	0.129	0.051
-432.676	262.744	0.311	0.533
-431.661	117.365	-0.105	0.127
-430.646	-32.777	-0.389	-0.213
-429.632	800.000	0.043	0.122
-428.617	800.000	0.041	-0.112
-427.603	800.000	-0.042	-0.175
-426.588	-143.356	-0.095	0.009
-425.573	-200.000	0.029	0.163
-424.559	-9.586	-0.278	0.183
-423.544	-132.948	0.376	0.047
-422.530	-200.000	0.035	0.160
-421.515	44.060	-0.247	0.223
-420.500	161.141	0.092	0.127
-419.486	298.098	0.158	-0.286
-418.471	-127.031	-0.259	-0.037
-417.457	146.110	-0.108	-0.143
-416.442	-71.229	-0.567	-0.210
-415.428	-121.967	0.195	0.032
-414.413	-200.000	0.035	-0.155
-413.398	-101.470	-0.125	0.030
-412.384	800.000	0.094	-0.312
-411.369	63.237	-0.250	-0.247
-410.355	124.956	0.150	0.186
-409.340	54.945	0.076	-0.073
-408.325	46.663	-0.043	0.039
-407.311	112.680	-0.155	-0.185
-406.296	800.000	0.061	-0.209
-405.282	168.909	0.019	-0.026
-404.267	-200.000	-0.034	0.150
-403.252	713.859	-0.064	-0.168
-402.238	71.959	-0.127	0.130
-401.223	-200.000	0.033	0.282
-400.209	-143.995	0.163	0.015
-399.194	-200.000	0.002	0.070
-398.179	20.977	0.109	0.087
-397.165	762.196	0.072	-0.191
-396.150	-123.243	-0.067	0.011
-395.136	-130.554	0.121	-0.016
-394.121	-38.783	0.341	0.177
-393.106	-54.048	-0.103	0.046
-392.092	-200.000	0.007	-0.099
-391.077	402.723	-0.151	0.313
-390.063	230.657	0.081	-0.131
-389.048	-200.000	0.018	-0.092
-388.033	-58.933	-0.197	0.084
-387.019	-200.000	0.016	-0.103
-386.004	-200.000	0.028	0.346
-384.990	-74.185	-0.419	0.149
-383.975	-5.655	0.275	-0.186
-382.960	317.658	0.036	-0.066
-381.946	-89.048	-0.210	0.061
-380.931	20.955	-0.259	0.207
-379.917	-9.818	0.292	-0.191
-378.902	-32.323	0.176	-0.097
-377.888	558.393	-0.133	-0.317
-376.873	-90.972	-0.246	0.070
-375.858	-5.728	0.289	-0.195
-374.844	237.682	-0.090	-0.147
-373.829	73.127	0.224	-0.231
-372.815	-50.614	0.195	-0.091
-371.800	800.000	-0.045	0.191
-370.785	58.868	0.099	-0.096
-369.771	131.652	-0.055	-0.070
-368.756	709.139	-0.165	0.428
-367.742	-200.000	0.001	0.340
-366.727	16.964	0.150	-0.117
-365.712	167.486	-0.141	0.197
-364.698	-200.000	-0.064	-0.304
-363.683	-20.926	-0.020	-0.012
-362.669	653.913	0.065	0.164
-361.654	239.765	0.174	-0.285
-360.639	191.763	0.225	0.334
-359.625	-200.000	0.040	-0.241
-358.610	137.228	-0.162	-0.208
-357.596	-200.000	-0.010	0.132
-356.581	-84.514	0.216	-0.067
-355.566	231.559	-0.088	0.142
-354.552	-200.000	0.002	-0.159
-353.537	465.392	0.013	0.029
-352.523	800.000	0.071	0.217
-351.508	-200.000	0.004	-0.083
-350.493	-7.752	-0.473	-0.314
-349.479	-64.504	-0.264	0.105
-348.464	-200.000	-0.008	-0.221
-347.450	599.478	-0.109	0.267
-346.435	637.923	0.109	-0.273
-345.420	-200.000	0.099	-0.433
-344.406	-27.259	0.073	0.042
-343.391	-43.884	0.284	-0.140
-342.377	636.706	0.104	0.261
-341.362	-200.000	-0.087	-0.564
-340.348	-51.645	0.416	0.191
-339.333	83.172	0.167	0.179
-338.318	-200.000	0.026	0.312
-337.304	41.890	-0.229	-0.204
-336.289	-200.000	-0.021	0.296
-335.275	-33.414	-0.090	-0.049
-334.260	-200.000	-0.011	0.266
-333.245	48.015	-0.184	0.169
-332.231	-24.609	0.046	0.027
-331.216	-200.000	0.068	-0.404
-330.202	563.548	0.105	0.251
-329.187	176.238	0.130	0.186
-328.172	1.727	0.275	0.195
-327.158	15.278	0.098	-0.076
-326.143	-58.913	-0.214	0.091
-325.129	-200.000	0.028	-0.127
-324.114	-200.000	-0.185	0.000
-323.099	305.804	0.220	0.403
-322.085	-1.148	0.380	0.264
-321.070	800.000	-0.017	-0.061
-320.056	240.362	-0.064	0.104
-319.041	11.015	0.430	-0.323
-318.026	244.402	0.042	0.069
-317.012	-90.447	0.030	-0.009
-315.997	7.410	0.271	0.199
-314.983	11.331	-0.067	-0.050
-313.968	11.275	0.200	0.150
-312.953	-58.920	-0.156	-0.066
-311.939	-91.112	-0.314	0.088
-310.924	-200.000	0.005	0.340
-309.910	3.461	0.274	0.196
-308.895	186.113	-0.142	-0.207
-307.880	84.776	0.178	-0.191
-306.866	28.443	0.035	0.029
-305.851	-98.015	-0.228	0.058
-304.837	800.000	0.063	0.218
-303.822	325.220	0.073	0.136
-302.807	-200.000	0.007	-0.075
-301.793	-144.141	-0.131	-0.012
-300.778	-77.700	-0.229	0.078
-299.764	-123.949	0.089	0.014
-298.749	63.210	0.093	-0.091
-297.735	-36.825	0.285	0.150
-296.720	-21.348	0.163	0.098
-295.705	800.000	0.090	0.265
-294.691	101.490	0.070	0.080
-293.676	649.934	-0.029	-0.072
-292.662	-11.140	-0.348	0.225
-291.647	-110.239	0.211	-0.043
-290.632	-73.106	0.219	0.079
-289.618	-19.601	0.200	0.122
-288.603	800.000	0.030	-0.088
-287.589	57.778	-0.316	-0.303
-286.574	-117.069	-0.155	0.028
-285.559	-36.373	-0.194	0.103
-284.545	-200.000	-0.044	-0.206
-283.530	-44.914	0.277	0.135
-282.516	-106.091	-0.303	-0.067
-281.501	-41.508	-0.297	0.150
-280.486	-200.000	0.020	0.233
-279.472	36.651	-0.176	-0.153
-278.457	-200.000	-0.009	0.071
-277.443	-61.600	0.233	-0.096
-276.428	-200.000	0.038	0.316
-275.413	248.314	-0.187	-0.309
-274.399	-200.000	0.001	-0.077
-273.384	267.641	0.151	-0.259
-272.370	-200.000	0.059	0.316
-271.355	61.709	-0.129	0.126
-270.340	24.860	0.034	0.028
-269.326	-200.000	0.007	0.262
-268.311	264.174	0.176	-0.301
-267.297	-78.963	0.191	-0.064
-266.282	58.822	0.339	0.327
-265.267	46.632	0.108	-0.098
-264.253	-64.048	0.012	0.005
-263.238	800.000	-0.109	0.307
-262.224	-114.890	-0.461	0.086
-261.209	539.525	0.090	0.210
-260.195	-145.797	0.156	0.014
-259.180	-7.992	-0.231	-0.152
-258.165	800.000	0.148	0.417
-257.151	800.000	0.046	-0.175
-256.136	-181.625	-0.472	-0.009
-255.122	-34.721	-0.170	0.091
-254.107	-138.188	0.210	0.023
-253.092	210.427	-0.142	-0.218
-252.078	-190.773	0.236	0.002
-251.063	-200.000	0.004	0.180
-250.049	232.208	-0.076	-0.123
-249.034	800.000	0.073	-0.306
-248.019	304.965	0.086	-0.157
-247.005	172.747	-0.112	0.158
-245.990	-92.903	0.138	0.038
-244.976	-136.265	-0.172	-0.020
-243.961	105.833	-0.259	-0.300
-242.946	-200.000	-0.010	0.302
-241.932	80.562	-0.193	-0.203
-240.917	800.000	0.014	-0.055
-239.903	800.000	0.043	-0.182
-238.888	-175.109	-0.432	-0.012
-237.873	-186.940	0.278	-0.004
-236.859	800.000	-0.011	0.044
-235.844	-71.460	0.301	-0.110
-234.830	800.000	-0.063	-0.214
-233.815	-50.155	0.109	0.050
-232.800	-200.000	-0.040	0.251
-231.786	49.316	0.226	-0.208
-230.771	155.488	-0.170	-0.230
-229.757	-169.533	-0.110	-0.004
-228.742	-200.000	0.003	0.052
-227.727	-61.831	0.100	-0.041
-226.713	-200.000	0.015	-0.227
-225.698	-166.853	-0.160	0.006
-224.684	386.193	0.071	0.143
-223.669	329.756	-0.100	0.189
-222.655	-50.383	0.187	0.086
-221.640	1.438	-0.201	-0.142
-220.625	-177.442	0.196	0.005
-219.611	-200.000	-0.019	0.125
-218.596	-96.130	0.121	-0.031
-217.582	395.025	0.116	0.237
-216.567	-33.212	-0.413	0.224
-215.552	414.917	-0.089	-0.186
-214.538	-79.174	-0.157	0.052
-213.523	800.000	0.004	0.015
-212.509	147.657	0.014	0.018
-211.494	370.887	-0.093	0.184
-210.479	-87.799	0.090	0.027
-209.465	800.000	0.036	-0.112
-208.450	-200.000	0.010	-0.315
-207.436	5.111	-0.264	0.190
-206.421	800.000	-0.011	0.036
-205.406	136.657	-0.183	0.233
-204.392	15.976	0.202	-0.156
-203.377	272.970	-0.138	-0.238
-202.363	-42.204	-0.250	-0.125
-201.348	61.444	0.256	-0.249
-200.333	-149.512	-0.214	0.017
-199.319	800.000	0.120	0.488
-198.304	92.890	0.089	0.099
-197.290	237.349	0.195	0.316
-196.275	40.950	0.291	0.257
-195.260	54.279	0.128	0.121
-194.246	-88.266	0.058	-0.017
-193.231	-0.475	0.132	-0.092
-192.217	-123.755	0.113	-0.018
-191.202	-54.155	-0.134	-0.060
-190.187	255.105	0.242	-0.405
-189.173	-89.496	-0.201	0.058
-188.158	-12.698	-0.138	-0.088
-187.144	12.429	-0.057	0.043
-186.129	-41.283	0.299	-0.150
-185.114	-114.090	-0.104	0.020
-184.100	71.057	0.043	0.043
-183.085	87.821	-0.103	0.112
-182.071	-181.834	-0.307	0.006
-181.056	-200.000	0.022	0.143
-180.042	-200.000	0.066	0.295
-179.027	-200.000	-0.030	-0.348
-178.012	-200.000	0.012	0.406
-176.998	-154.034	0.117	-0.008
-175.983	-79.267	0.040	0.013
-174.969	800.000	0.095	0.401
-173.954	-149.567	0.251	0.019
-172.939	800.000	-0.075	-0.275
-171.925	-22.087	0.122	0.072
-170.910	-168.992	0.291	0.011
-169.896	528.126	-0.068	0.156
-168.881	-200.000	-0.005	-0.038
-167.866	29.276	-0.079	-0.066
-166.852	137.116	-0.088	-0.113
-165.837	-200.000	-0.008	0.167
-164.823	-63.346	0.178	-0.072
-163.808	-141.373	0.208	0.021
-162.793	-200.000	0.014	0.574
-161.779	-108.490	0.102	0.021
-160.764	800.000	-0.111	0.395
-159.750	-58.846	0.241	0.102
-158.735	800.000	-0.096	-0.276
-157.720	283.742	0.157	-0.276
-156.706	23.596	0.243	0.196
-155.691	42.862	0.256	0.228
-154.677	773.577	-0.102	0.272
-153.662	487.849	-0.016	0.035
-152.647	113.567	-0.095	-0.112
-151.633	-44.058	0.109	-0.053
-150.618	-31.446	-0.277	0.152
-149.604	39.299	0.127	-0.111
-148.589	227.629	0.064	-0.102
-147.574	312.663	-0.226	-0.413
-146.560	-151.014	0.251	-0.018
-145.545	-58.808	-0.134	0.057
-144.531	393.996	0.018	-0.036
-143.516	-200.000	-0.036	0.246
-142.502	-40.834	-0.232	0.117
-141.487	-200.000	-0.017	0.200
-140.472	443.626	0.042	0.089
-139.458	105.269	0.119	-0.137
-138.443	-89.690	-0.262	0.075
-137.429	-200.000	-0.016	0.188
-136.414	-143.300	-0.190	0.018
-135.399	127.370	0.160	0.198
-134.385	357.447	0.100	-0.195
-133.370	225.194	-0.105	-0.166
-132.356	800.000	-0.046	-0.162
-131.341	53.135	0.200	-0.187
-130.326	635.866	-0.048	0.119
-129.312	354.566	-0.077	-0.149
-128.297	-96.649	0.521	-0.134
-127.283	-200.000	-0.019	-0.187
-126.268	469.644	0.119	-0.262
-125.253	-46.559	-0.374	0.179
-124.239	-200.000	0.022	-0.268
-123.224	-154.163	-0.250	-0.016
-122.210	-48.680	-0.044	0.021
-121.195	75.129	0.195	0.200
-120.180	-200.000	0.001	-0.178
-119.166	-200.000	0.015	0.474
-118.151	-200.000	-0.017	-0.213
-117.137	156.632	0.124	0.167
-116.122	156.214	-0.117	0.157
-115.107	-139.920	-0.392	-0.040
-114.093	-12.580	-0.282	-0.179
-113.078	-102.979	0.287	-0.066
-112.064	-184.183	-0.068	-0.001
-111.049	-135.665	-0.356	0.041
-110.034	-56.403	-0.194	0.084
-109.020	88.438	-0.137	-0.148
-108.005	-117.423	0.235	-0.041
-106.991	-128.456	-0.105	0.014
-105.976	-200.000	0.025	0.140
-104.962	-200.000	0.005	0.307
-103.947	-93.378	-0.349	0.094
-102.932	14.966	-0.228	0.174
-101.918	-50.291	0.149	0.069
-100.903	-12.369	-0.024	-0.015
-99.889	-200.000	0.057	-0.273
-98.874	-200.000	0.017	0.119
-97.859	332.183	0.051	-0.095
-96.845	-200.000	-0.011	-0.202
-95.830	800.000	0.043	0.146
-94.816	232.739	-0.142	0.227
-93.801	800.000	0.062	-0.249
-92.786	-154.089	-0.363	0.024
-91.772	-26.389	0.258	0.147
-90.757	-132.122	-0.425	-0.054
-89.743	132.910	0.078	-0.098
-88.728	800.000	-0.054	0.205
-87.713	-70.736	0.210	0.077
-86.699	-48.793	-0.268	0.125
-85.684	-59.882	-0.113	-0.047
-84.670	-81.332	-0.261	-0.084
-83.655	66.363	0.187	-0.185
-82.640	800.000	-0.063	-0.230
-81.626	-50.141	-0.362	0.167
-80.611	113.029	0.098	0.116
-79.597	-135.427	0.418	0.049
-78.582	82.944	0.064	-0.068
-77.567	85.535	-0.269	0.287
-76.553	-159.130	0.257	-0.014
-75.538	89.972	-0.262	-0.285
-74.524	-200.000	-0.065	-0.589
-73.509	81.422	0.241	0.254
-72.494	-10.950	0.091	0.058
-71.480	-22.178	0.112	0.066
-70.465	-200.000	-0.050	0.408
-69.451	8.302	0.201	-0.147
-68.436	-126.316	-0.096	0.014
-67.422	-63.856	0.306	-0.122
-66.407	385.773	0.116	-0.234
-65.392	-66.746	-0.085	-0.033
-64.378	412.453	0.149	-0.307
-63.363	218.793	0.143	-0.222
-62.349	-127.227	0.326	0.046
-61.334	11.297	-1.509	-1.123
-60.319	26.257	0.749	0.608
-59.305	406.541	-0.690	-1.417
-58.290	353.311	0.785	1.515
-57.276	253.160	0.710	1.177
-56.261	-200.000	127.828	673.508
-55.246	411.073	1609.071	3318.005
-54.232	138.390	2773.649	3537.070
-53.217	89.949	2302.820	2500.199
-52.203	31.880	1905.029	1594.448
-51.188	25.805	1700.082	1376.589
-50.173	23.767	1661.500	1330.053
-49.159	45.630	1731.531	1554.391
-48.144	42.816	1742.533	1542.674
-47.130	25.427	1693.862	1368.455
-46.115	22.919	1677.979	1336.622
-45.100	22.789	1673.216	1331.791
-44.086	22.779	1670.837	1329.767
-43.071	22.687	1668.643	1327.276
-42.057	22.635	1666.689	1325.278
-41.042	22.833	1663.780	1324.399
-40.027	22.676	1662.418	1322.087
-39.013	22.651	1661.264	1320.930
-37.998	22.668	1658.935	1319.151
-36.984	22.691	1657.771	1318.344
-35.969	22.809	1656.407	1318.088
-34.954	22.854	1654.560	1316.908
-33.940	22.793	1652.781	1314.981
-32.925	22.605	1652.032	1312.934
-31.911	22.754	1649.888	1312.288
-30.896	22.700	1648.329	1310.593
-29.881	22.884	1646.041	1310.084
-28.867	22.864	1644.636	1308.771
-27.852	22.858	1643.281	1307.596
-26.838	22.838	1642.381	1306.681
-25.823	22.846	1640.722	1305.362
-24.809	22.823	1639.636	1304.280
-23.794	22.867	1638.182	1303.396
-22.779	22.803	1637.095	1302.005
-21.765	22.897	1634.524	1300.604
-20.750	22.855	1633.524	1299.445
-19.736	22.873	1632.425	1298.651
-18.721	22.885	1631.400	1297.875
-17.706	22.866	1629.596	1296.245
-16.692	22.882	1627.668	1294.782
-15.677	22.849	1626.615	1293.651
-14.663	22.904	1625.239	1292.910
-13.648	22.832	1624.063	1291.392
-12.633	22.894	1621.723	1289.938
-11.619	22.859	1620.447	1288.613
-10.604	22.867	1618.945	1287.429
-9.590	22.732	1618.669	1286.171
-8.575	22.810	1616.996	1285.355
-7.560	22.872	1615.387	1284.482
-6.546	22.843	1614.802	1283.752
-5.531	22.821	1613.846	1282.780
-4.517	22.894	1611.951	1281.756
-3.502	22.877	1610.995	1280.820
-2.487	22.854	1609.561	1279.465
-1.473	22.525	1597.595	1267.531
-0.458	19.638	1578.416	1231.715
0.556	14.732	1580.676	1202.246
1.571	12.522	1605.087	1204.536
2.586	12.311	1617.484	1212.173
3.600	11.324	1562.390	1163.742
4.615	6.209	1455.729	1050.118
5.629	1.165	1397.990	975.976
6.644	0.203	1391.218	964.996
7.659	0.192	1390.035	964.023
8.673	0.099	1389.541	963.002
9.688	0.166	1386.443	961.193
10.702	-0.017	1383.629	957.996
11.717	2.516	1387.016	976.420
12.731	9.197	1397.182	1026.281
13.746	14.958	1405.867	1069.503
14.761	16.781	1407.472	1082.287
15.775	16.222	1405.363	1077.000
16.790	15.223	1402.984	1068.718
17.804	14.471	1400.752	1062.135
18.819	14.049	1399.969	1058.759
19.834	13.771	1398.492	1055.778
20.848	13.588	1397.113	1053.481
21.863	13.445	1395.369	1051.166
22.877	13.186	1394.309	1048.630
23.892	13.150	1393.701	1047.852
24.907	13.197	1392.510	1047.157
25.921	13.271	1391.577	1046.835
26.936	13.234	1390.409	1045.632
27.950	13.339	1389.486	1045.507
28.965	13.324	1388.494	1044.569
29.980	13.384	1387.748	1044.295
30.994	13.427	1386.831	1043.783
32.009	13.400	1385.638	1042.627
33.023	13.398	1384.727	1041.835
34.038	13.378	1383.083	1040.381
35.053	13.222	1382.621	1038.962
36.067	13.382	1381.042	1038.687
37.082	13.384	1380.228	1037.994
38.096	13.390	1379.210	1037.173
39.111	13.357	1378.811	1036.577
40.126	13.253	1377.579	1034.905
41.140	13.230	1376.694	1034.007
42.155	13.236	1376.115	1033.518
43.169	13.243	1376.316	1033.622
44.184	13.124	1376.220	1032.713
45.199	13.214	1375.193	1032.416
46.213	13.193	1374.501	1031.670
47.228	13.176	1374.260	1031.296
48.242	13.276	1372.524	1030.523
49.257	13.240	1371.206	1029.220
50.271	13.249	1369.771	1028.107
51.286	13.336	1368.240	1027.407
52.301	13.368	1366.648	1026.318
53.315	13.245	1366.259	1025.171
54.330	13.249	1365.222	1024.331
55.344	13.224	1363.557	1022.831
56.359	13.166	1362.450	1021.553
57.374	13.173	1361.902	1021.099
58.388	13.020	1361.330	1019.632
59.403	13.063	1360.930	1019.511
60.417	13.101	1359.745	1018.762
61.432	13.064	1358.939	1017.841
62.447	13.147	1357.315	1017.047
63.461	13.129	1356.056	1015.902
64.476	13.149	1355.331	1015.395
65.490	13.079	1354.175	1014.007
66.505	13.097	1352.714	1012.934
67.520	13.149	1351.341	1012.138
68.534	13.211	1350.135	1011.523
69.549	13.182	1349.055	1010.446
70.563	13.188	1347.994	1009.597
71.578	13.117	1346.498	1007.954
72.593	13.052	1346.288	1007.313
73.607	13.050	1345.094	1006.315
74.622	13.122	1344.097	1005.919
75.636	13.026	1343.396	1004.721
76.651	12.986	1342.780	1003.929
77.666	12.949	1342.786	1003.620
78.680	13.067	1341.500	1003.291
79.695	13.120	1340.904	1003.075
80.709	13.139	1340.213	1002.586
81.724	13.205	1339.270	1002.192
82.739	13.177	1338.121	1001.075
83.753	13.113	1337.864	1000.401
84.768	13.220	1336.410	999.875
85.782	13.304	1335.101	999.314
86.797	13.289	1333.765	998.139
87.812	13.145	1332.247	996.046
88.826	13.239	1331.032	995.616
89.841	13.261	1329.931	994.833
90.855	13.279	1329.296	994.379
91.870	13.268	1327.893	993.175
92.884	13.376	1326.900	992.992
93.899	13.380	1325.982	992.243
94.914	13.351	1325.547	991.653
95.928	13.397	1324.858	991.328
96.943	13.342	1323.774	990.102
97.957	13.411	1322.590	989.539
98.972	13.392	1322.514	989.282
99.987	13.322	1320.720	987.432
101.001	13.342	1319.711	986.714
102.016	13.290	1318.683	985.546
103.030	13.348	1318.167	985.420
104.045	13.318	1317.096	984.353
105.060	13.279	1316.022	983.228
106.074	13.180	1314.447	981.379
107.089	13.235	1312.865	980.440
108.103	13.253	1311.346	979.323
109.118	13.143	1310.966	978.300
110.133	13.085	1309.623	976.868
111.147	13.209	1307.704	976.086
112.162	13.306	1306.284	975.510
113.176	13.211	1305.894	974.571
114.191	13.278	1304.231	973.637
115.206	13.324	1303.591	973.346
116.220	13.201	1302.218	971.509
117.235	13.255	1301.575	971.260
118.249	13.292	1300.100	970.292
119.264	13.171	1299.497	969.049
120.279	13.250	1297.924	968.252
121.293	13.256	1296.871	967.415
122.308	13.187	1296.360	966.545
123.322	13.228	1294.590	965.378
124.337	13.183	1293.616	964.305
125.352	13.215	1292.472	963.557
126.366	13.217	1291.297	962.607
127.381	13.169	1290.673	961.775
128.395	13.141	1289.176	960.409
129.410	13.224	1287.956	959.899
130.424	13.146	1287.735	959.199
131.439	13.136	1286.649	958.245
132.454	13.177	1286.116	957.999
133.468	13.212	1284.969	957.267
134.483	13.269	1283.919	956.728
135.497	13.137	1283.257	955.385
136.512	13.177	1281.753	954.412
137.527	13.229	1279.998	953.319
138.541	13.218	1279.068	952.481
139.556	13.316	1277.183	951.556
140.570	13.377	1276.424	951.259
141.585	13.332	1274.919	949.793
142.600	13.335	1274.161	949.162
143.614	13.429	1273.200	948.902
144.629	13.477	1271.662	947.948
145.643	13.348	1270.881	946.541
146.658	13.359	1269.613	945.577
147.673	13.309	1268.495	944.377
148.687	13.317	1267.254	943.416
149.702	13.337	1265.578	942.198
150.716	13.428	1263.742	941.266
151.731	13.428	1263.246	940.814
152.746	13.352	1261.690	939.140
153.760	13.411	1260.527	938.526
154.775	13.497	1259.353	938.056
155.789	13.450	1258.271	936.900
156.804	13.475	1257.640	936.488
157.819	13.648	1255.724	935.956
158.833	13.552	1255.164	934.916
159.848	13.621	1253.814	934.212
160.862	13.610	1253.258	933.656
161.877	13.412	1252.317	931.759
162.892	13.480	1251.356	931.344
163.906	13.501	1250.225	930.533
164.921	13.467	1249.343	929.606
165.935	13.578	1248.521	929.532
166.950	13.579	1247.802	928.922
167.964	13.551	1247.006	928.093
168.979	13.507	1246.598	927.460
169.994	13.534	1245.618	926.796
171.008	13.619	1244.640	926.463
172.023	13.680	1244.141	926.354
173.037	13.676	1243.513	925.781
174.052	13.735	1241.724	924.695
175.067	13.608	1241.208	923.519
176.081	13.541	1240.541	922.569
177.096	13.634	1239.661	922.353
178.110	13.554	1238.226	920.755
179.125	13.676	1236.510	920.078
180.140	13.714	1235.623	919.546
181.154	13.655	1234.566	918.351
182.169	13.692	1232.932	917.262
183.183	13.755	1232.066	916.883
184.198	13.820	1230.601	916.071
185.213	13.833	1229.480	915.228
186.227	13.817	1228.703	914.477
187.242	13.867	1227.691	913.918
188.256	13.834	1226.389	912.685
189.271	13.822	1225.219	911.670
190.286	13.792	1224.691	911.031
191.300	13.766	1223.498	909.920
192.315	13.642	1223.314	909.022
193.329	13.694	1222.238	908.428
194.344	13.706	1221.543	907.899
195.359	13.744	1221.370	907.897
196.373	13.799	1220.589	907.535
197.388	13.892	1220.019	907.539
198.402	14.015	1219.673	907.878
199.417	13.973	1218.668	906.816
200.432	14.019	1218.276	906.696
201.446	14.046	1217.259	906.005
202.461	14.163	1216.124	905.718
203.475	14.168	1215.215	904.990
204.490	14.130	1214.120	903.886
205.504	14.035	1212.590	902.150
206.519	14.115	1211.356	901.590
207.534	14.003	1210.472	900.242
208.548	14.033	1209.750	899.791
209.563	13.990	1208.906	898.851
210.577	14.205	1207.821	899.126
211.592	14.161	1206.984	898.186
212.607	14.202	1206.150	897.704
213.621	14.315	1205.168	897.504
214.636	14.219	1204.240	896.220
215.650	14.218	1203.659	895.700
216.665	14.218	1202.644	894.866
217.680	14.336	1201.323	894.437
218.694	14.263	1200.926	893.674
219.709	14.244	1200.137	892.905
220.723	14.281	1199.296	892.396
221.738	14.415	1198.043	892.101
222.753	14.407	1197.194	891.347
223.767	14.330	1197.390	891.006
224.782	14.443	1196.323	890.737
225.796	14.374	1195.902	889.972
226.811	14.401	1195.337	889.618
227.826	14.420	1194.599	889.090
228.840	14.388	1193.840	888.276
229.855	14.445	1192.891	887.798
230.869	14.460	1192.174	887.264
231.884	14.430	1191.055	886.196
232.899	14.326	1190.664	885.272
233.913	14.446	1189.622	885.056
234.928	14.362	1188.934	884.021
235.942	14.433	1188.138	883.729
236.957	14.316	1187.347	882.437
237.972	14.336	1186.957	882.180
238.986	14.435	1186.226	882.083
240.001	14.484	1185.069	881.402
241.015	14.364	1184.377	880.174
242.030	14.569	1183.347	880.412
243.045	14.535	1182.756	879.715
244.059	14.453	1181.858	878.540
245.074	14.554	1181.159	878.474
246.088	14.653	1180.219	878.215
247.103	14.610	1179.409	877.311
248.117	14.692	1178.974	877.339
249.132	14.813	1178.328	877.417
250.147	14.750	1177.652	876.505
251.161	14.719	1176.995	875.774
252.176	14.785	1176.012	875.313
253.190	14.842	1175.026	874.799
254.205	14.856	1174.833	874.654
255.220	15.024	1174.357	875.102
256.234	14.850	1173.721	873.636
257.249	14.934	1172.615	873.176
258.263	14.927	1172.457	872.944
259.278	14.891	1171.695	872.110
260.293	15.002	1170.657	871.841
261.307	14.972	1170.574	871.544
262.322	15.112	1169.551	871.438
263.336	15.099	1168.594	870.578
264.351	15.079	1168.286	870.170
265.366	15.032	1167.880	869.543
266.380	15.065	1167.142	869.088
267.395	15.231	1165.854	868.914
268.409	15.133	1165.328	867.938
269.424	15.076	1164.853	867.213
270.439	15.212	1163.814	867.062
271.453	15.087	1163.354	865.997
272.468	15.047	1162.278	864.915
273.482	15.095	1161.872	864.784
274.497	15.140	1160.968	864.268
275.512	15.094	1160.827	863.850
276.526	15.098	1160.166	863.297
277.541	15.048	1159.082	862.160
278.555	15.151	1158.491	862.174
279.570	15.169	1157.863	861.724
280.585	15.239	1156.933	861.315
281.599	15.304	1155.934	860.828
282.614	15.285	1155.075	860.016
283.628	15.301	1154.068	859.270
284.643	15.300	1152.647	858.130
285.657	15.307	1151.597	857.307
286.672	15.275	1151.015	856.635
287.687	15.415	1149.936	856.472
288.701	15.391	1149.509	855.957
289.716	15.331	1149.043	855.228
290.730	15.452	1147.665	854.744
291.745	15.502	1147.023	854.443
292.760	15.519	1146.375	853.972
293.774	15.464	1145.989	853.330
294.789	15.489	1145.487	853.005
295.803	15.416	1144.821	852.063
296.818	15.425	1143.953	851.387
297.833	15.416	1143.504	850.934
298.847	15.428	1142.787	850.385
299.862	15.509	1141.571	849.818
300.876	15.452	1141.249	849.211
301.891	15.510	1140.511	848.881
302.906	15.596	1139.958	848.827
303.920	15.731	1138.956	848.691
304.935	15.609	1138.350	847.549
305.949	15.673	1137.950	847.499
306.964	15.827	1136.842	847.373
307.979	15.737	1136.346	846.474
308.993	15.691	1135.222	845.333
310.008	15.700	1134.508	844.770
311.022	15.712	1133.912	844.310
312.037	15.851	1132.855	844.145
313.052	15.708	1131.924	842.663
314.066	15.729	1131.055	842.046
315.081	15.611	1130.422	840.908
316.095	15.659	1129.917	840.700
317.110	15.695	1129.227	840.290
318.125	15.689	1128.210	839.430
319.139	15.738	1127.384	838.985
320.154	15.797	1126.825	838.790
321.168	15.818	1126.114	838.291
322.183	15.750	1125.390	837.338
323.197	15.818	1125.151	837.427
324.212	15.826	1124.403	836.835
325.227	15.781	1123.821	836.102
326.241	15.832	1123.423	835.989
327.256	15.828	1122.127	834.927
328.270	15.818	1121.315	834.199
329.285	15.908	1120.293	833.811
330.300	15.863	1119.010	832.563
331.314	15.912	1118.234	832.156
332.329	15.837	1117.677	831.295
333.343	15.940	1116.382	830.764
334.358	15.888	1115.523	829.796
335.373	15.904	1114.827	829.287
336.387	16.037	1114.307	829.480
337.402	16.096	1113.379	829.003
338.416	16.024	1112.939	828.248
339.431	16.084	1112.103	827.847
340.446	16.138	1111.312	827.450
341.460	16.164	1110.759	827.095
342.475	16.026	1110.095	825.853
343.489	16.217	1109.054	825.937
344.504	16.125	1108.444	824.963
345.519	16.287	1107.187	824.744
346.533	16.287	1106.156	823.902
347.548	16.380	1105.336	823.673
348.562	16.347	1104.936	823.139
349.577	16.312	1103.970	822.176
350.592	16.227	1103.281	821.179
351.606	16.253	1102.503	820.655
352.621	16.214	1102.040	820.047
353.635	16.279	1101.331	819.764
354.650	16.335	1100.567	819.394
355.665	16.379	1099.583	818.800
356.679	16.273	1099.342	818.035
357.694	16.353	1098.630	817.820
358.708	16.483	1097.889	817.827
359.723	16.372	1097.171	816.684
360.738	16.452	1096.447	816.455
361.752	16.445	1096.138	816.121
362.767	16.357	1096.020	815.536
363.781	16.422	1094.948	814.982
364.796	16.576	1093.990	814.939
365.810	16.509	1093.820	814.413
366.825	16.532	1093.390	814.135
367.840	16.590	1092.586	813.742
368.854	16.564	1092.161	813.229
369.869	16.674	1091.328	813.064
370.883	16.641	1090.510	812.222
371.898	16.521	1089.947	811.157
372.913	16.748	1089.018	811.482
373.927	16.506	1089.142	810.341
374.942	16.629	1088.347	810.270
375.956	16.682	1087.687	809.959
376.971	16.758	1086.842	809.623
377.986	16.852	1086.491	809.737
379.000	16.644	1085.674	808.064
380.015	16.803	1085.286	808.465
381.029	16.892	1084.404	808.160
382.044	16.791	1084.014	807.317
383.059	16.906	1083.201	807.187
384.073	16.790	1082.698	806.185
385.088	16.814	1081.805	805.564
386.102	16.814	1080.617	804.611
387.117	16.888	1079.425	804.000
388.132	16.853	1078.745	803.256
389.146	16.892	1077.862	802.713
390.161	16.936	1077.037	802.236
391.175	16.924	1076.521	801.723
392.190	17.064	1075.669	801.682
393.205	16.866	1075.079	800.237
394.219	16.956	1074.436	800.112
395.234	16.985	1073.528	799.499
396.248	16.952	1072.641	798.611
397.263	16.958	1071.494	797.719
398.278	16.869	1071.024	796.876
399.292	16.943	1069.823	796.260
400.307	16.979	1069.292	795.963
401.321	16.920	1068.611	795.110
402.336	16.911	1068.385	794.831
403.350	17.007	1067.369	794.453
404.365	16.894	1066.827	793.450
405.380	17.187	1065.757	793.952
406.394	17.099	1065.366	793.180
407.409	17.184	1064.535	792.890
408.423	17.253	1063.438	792.325
409.438	17.184	1062.996	791.603
410.453	17.310	1062.510	791.759
411.467	17.309	1061.520	790.947
412.482	17.319	1061.270	790.737
413.496	17.353	1060.265	790.076
414.511	17.301	1059.769	789.394
415.526	17.370	1059.707	789.600
416.540	17.354	1059.021	788.943
417.555	17.498	1058.363	789.053
418.569	17.408	1057.785	788.135
419.584	17.275	1057.552	787.275
420.599	17.442	1056.801	787.419
421.613	108.269	1331.420	1489.660
422.628	99.836	1371.362	1489.744
