DTS Sentinel unit serial number:	SN413079Multiplexer serial number:	ORYXHardware model number:	OX4-SRSoftware version number:	ORYX F/W v4.00 Oryx Data Collector v3.7.2.0data status	okinstallation	princeton_trtdifferential loss correction	single-endedforward channel	channel 2reverse channel	N/Adate	2019/09/14time	04:47:34forward acquisition time	60.00reverse acquisition time	0.00gamma	496.2192k internal	0.2335k external	0.2335temperature offset calibration	1.0130default loss term (dB/km)	0.3790temperature slope calibration	1.0000multiplexer offset coefficient	1.0000multiplexer slope coefficient	1.0000fibre end	0.00T internal ref (°C)	26.81T ext. ref 1 (°C)	3.35T ext. ref 2 (°C)	21.96length (m)	temperature (°C)	Stokes	anti-Stokes-747.200	-103.719	-0.187	0.044
-746.185	130.380	0.029	-0.038
-745.171	-107.533	0.340	-0.075
-744.156	-19.013	-0.371	0.232
-743.142	800.000	-0.121	-0.452
-742.127	165.323	-0.123	0.174
-741.112	-3.173	-0.151	-0.106
-740.098	-73.240	-0.277	0.102
-739.083	-59.513	0.218	-0.094
-738.069	99.458	-0.080	-0.093
-737.054	-21.951	-0.005	0.003
-736.039	-179.733	-0.291	-0.006
-735.025	-187.439	-0.315	0.004
-734.010	-200.000	-0.030	-0.197
-732.996	596.274	-0.073	-0.181
-731.981	-114.848	-0.099	0.019
-730.966	-99.742	-0.350	-0.088
-729.952	-200.000	-0.020	0.305
-728.937	124.546	0.035	0.045
-727.923	16.617	0.107	0.085
-726.908	-96.603	0.124	-0.033
-725.894	-74.475	-0.345	-0.125
-724.879	800.000	-0.044	0.147
-723.864	410.287	-0.112	0.238
-722.850	-159.007	-0.413	0.024
-721.835	99.206	-0.092	0.106
-720.821	68.401	0.128	0.131
-719.806	79.498	0.081	0.087
-718.791	338.481	0.126	0.246
-717.777	-91.741	0.303	-0.086
-716.762	-154.237	-0.400	0.027
-715.748	-200.000	-0.011	-0.089
-714.733	-10.298	-0.236	-0.157
-713.718	87.751	0.142	0.158
-712.704	-200.000	-0.015	-0.415
-711.689	800.000	0.026	0.112
-710.675	140.376	-0.080	-0.106
-709.660	-76.399	0.283	-0.100
-708.645	-105.791	0.098	0.022
-707.631	707.196	0.127	-0.338
-706.616	204.654	0.209	0.325
-705.602	-139.115	-0.162	-0.018
-704.587	625.796	0.090	-0.228
-703.572	-93.088	0.268	0.075
-702.558	112.847	0.093	0.113
-701.543	-200.000	-0.018	0.171
-700.529	143.351	-0.261	0.348
-699.514	149.047	-0.063	-0.085
-698.499	800.000	0.104	-0.422
-697.485	-147.164	-0.004	0.000
-696.470	-53.753	0.130	-0.059
-695.456	163.650	-0.177	-0.250
-694.441	236.731	0.122	-0.203
-693.426	-124.732	0.152	-0.024
-692.412	60.533	0.157	-0.156
-691.397	87.487	-0.072	-0.080
-690.383	257.600	0.074	-0.128
-689.368	522.587	-0.086	-0.202
-688.354	-105.648	-0.192	0.044
-687.339	187.909	-0.121	-0.181
-686.324	-200.000	0.050	-0.233
-685.310	-182.087	0.089	0.002
-684.295	603.043	-0.044	-0.111
-683.281	-200.000	-0.012	-0.357
-682.266	-111.858	-0.615	-0.124
-681.251	-11.948	0.098	-0.064
-680.237	-32.965	-0.294	0.164
-679.222	98.938	-0.094	-0.109
-678.208	800.000	0.058	0.202
-677.193	682.581	0.081	-0.211
-676.178	360.936	0.055	0.111
-675.164	14.582	-0.166	-0.130
-674.149	100.505	-0.139	0.161
-673.135	-63.763	-0.319	-0.131
-672.120	122.971	0.121	0.151
-671.105	109.938	0.255	-0.306
-670.091	-3.885	-0.312	-0.217
-669.076	204.954	0.047	-0.073
-668.062	83.138	-0.331	-0.361
-667.047	800.000	0.098	-0.292
-666.032	724.746	-0.093	0.248
-665.018	-82.303	-0.387	0.126
-664.003	800.000	0.102	-0.379
-662.989	-200.000	0.115	0.000
-661.974	239.456	-0.218	0.363
-660.959	-82.782	-0.156	0.050
-659.945	-72.773	0.122	-0.045
-658.930	800.000	-0.017	0.074
-657.916	-200.000	-0.010	0.150
-656.901	-200.000	0.013	0.069
-655.886	125.823	-0.155	-0.197
-654.872	421.402	0.030	0.065
-653.857	607.307	0.142	-0.355
-652.843	800.000	0.041	0.174
-651.828	-52.929	-0.115	0.053
-650.814	-63.287	-0.133	0.055
-649.799	-119.386	0.035	0.006
-648.784	202.617	-0.187	-0.288
-647.770	311.640	0.096	-0.180
-646.755	250.168	0.070	0.120
-645.741	-181.870	0.051	0.001
-644.726	19.954	0.066	-0.053
-643.711	-113.480	-0.273	-0.053
-642.697	33.518	0.036	-0.032
-641.682	56.067	0.172	-0.167
-640.668	-6.652	0.205	-0.139
-639.653	258.647	-0.018	0.030
-638.638	800.000	-0.070	-0.267
-637.624	87.616	0.206	-0.228
-636.609	33.731	0.145	0.126
-635.595	205.219	-0.247	0.384
-634.580	-87.534	0.145	0.044
-633.565	-200.000	-0.005	0.025
-632.551	-167.722	-0.291	-0.012
-631.536	-200.000	0.056	-0.350
-630.522	-34.271	-0.037	0.020
-629.507	72.578	0.101	-0.106
-628.492	419.682	0.101	0.216
-627.478	800.000	0.022	-0.071
-626.463	80.301	-0.060	0.065
-625.449	-158.614	0.251	-0.014
-624.434	160.685	-0.114	0.158
-623.419	-41.006	-0.080	0.041
-622.405	-122.500	-0.274	-0.045
-621.390	184.731	0.108	-0.159
-620.376	-200.000	-0.032	-0.265
-619.361	-65.081	0.392	-0.158
-618.346	800.000	-0.066	-0.249
-617.332	-71.490	-0.187	0.070
-616.317	800.000	0.108	0.304
-615.303	-103.395	0.201	0.047
-614.288	104.268	-0.294	-0.346
-613.273	158.082	-0.259	-0.359
-612.259	23.338	-0.263	0.216
-611.244	-69.015	-0.450	-0.173
-610.230	-126.136	0.297	-0.044
-609.215	190.690	0.114	0.171
-608.201	-200.000	0.008	0.138
-607.186	16.031	-0.214	0.168
-606.171	-200.000	0.034	-0.170
-605.157	-200.000	-0.008	0.072
-604.142	497.565	0.243	-0.558
-603.128	-46.765	0.155	-0.076
-602.113	-200.000	-0.004	0.330
-601.098	-130.005	-0.072	0.010
-600.084	56.342	-0.283	-0.274
-599.069	-108.283	0.143	-0.031
-598.055	-49.549	-0.301	0.143
-597.040	5.293	0.237	0.175
-596.025	-120.612	-0.144	-0.024
-595.011	647.914	-0.206	-0.527
-593.996	612.493	0.031	0.077
-592.982	-74.424	-0.186	-0.067
-591.967	800.000	0.109	0.372
-590.952	800.000	0.095	0.342
-589.938	-90.921	-0.325	-0.093
-588.923	53.045	0.222	0.212
-587.909	-46.774	-0.255	-0.125
-586.894	-72.253	0.203	-0.075
-585.879	224.054	0.070	0.113
-584.865	-97.954	-0.082	-0.021
-583.850	51.254	0.435	-0.412
-582.836	800.000	0.035	-0.118
-581.821	-84.082	0.129	-0.041
-580.806	-29.524	0.133	-0.076
-579.792	-90.364	0.219	-0.063
-578.777	-74.964	0.095	0.034
-577.763	89.660	-0.046	0.051
-576.748	249.457	-0.031	-0.053
-575.733	-137.773	-0.138	0.015
-574.719	-200.000	-0.001	0.128
-573.704	-200.000	0.012	-0.141
-572.690	8.322	-0.207	0.155
-571.675	35.453	0.021	-0.019
-570.661	-117.331	0.298	0.054
-569.646	800.000	0.065	0.204
-568.631	21.872	-0.322	0.262
-567.617	-200.000	0.006	-0.073
-566.602	-48.962	-0.292	0.139
-565.588	46.368	0.250	0.231
-564.573	-123.542	0.153	-0.024
-563.558	193.612	0.073	-0.110
-562.544	-200.000	0.012	-0.345
-561.529	42.594	0.032	-0.029
-560.515	260.793	0.112	0.193
-559.500	-145.713	0.229	-0.020
-558.485	30.231	-0.196	0.167
-557.471	466.458	-0.097	0.216
-556.456	-50.743	-0.142	0.067
-555.442	-176.738	0.160	0.004
-554.427	-141.935	-0.206	0.021
-553.412	-200.000	0.016	0.286
-552.398	800.000	-0.056	0.227
-551.383	-200.000	0.007	0.143
-550.369	800.000	-0.020	-0.084
-549.354	-33.370	-0.068	0.038
-548.339	-30.538	-0.355	-0.200
-547.325	-200.000	-0.016	-0.167
-546.310	8.336	-0.186	-0.139
-545.296	-127.894	0.187	-0.027
-544.281	-26.624	0.085	0.049
-543.266	45.523	-0.228	-0.210
-542.252	-117.728	-0.249	-0.045
-541.237	464.471	-0.126	0.280
-540.223	800.000	-0.073	-0.249
-539.208	-171.024	0.430	0.015
-538.193	-99.113	0.095	-0.024
-537.179	68.408	0.265	-0.270
-536.164	73.436	0.216	0.225
-535.150	-98.204	0.128	0.033
-534.135	-164.364	-0.281	0.013
-533.121	-1.021	-0.100	0.070
-532.106	-122.655	0.258	-0.042
-531.091	-200.000	-0.033	0.157
-530.077	-130.168	0.426	-0.058
-529.062	202.992	-0.073	0.112
-528.048	-85.399	0.287	0.089
-527.033	708.727	0.138	0.363
-526.018	-36.635	-0.226	0.121
-525.004	-100.214	-0.339	0.084
-523.989	-200.000	0.061	-0.349
-522.975	-0.001	-0.205	-0.145
-521.960	-13.500	-0.202	-0.131
-520.945	800.000	-0.069	0.274
-519.931	-154.644	0.184	-0.012
-518.916	53.468	-0.111	-0.106
-517.902	-104.815	-0.367	-0.084
-516.887	103.096	0.168	0.196
-515.872	39.687	0.225	0.201
-514.858	-9.166	0.374	-0.249
-513.843	-200.000	-0.053	-0.290
-512.829	9.610	0.134	0.101
-511.814	-60.958	0.193	0.081
-510.799	-33.618	0.332	-0.183
-509.785	-200.000	-0.050	0.285
-508.770	729.302	0.098	0.259
-507.756	37.682	-0.105	0.093
-506.741	153.422	-0.112	-0.153
-505.726	-160.993	0.242	-0.013
-504.712	-200.000	0.017	-0.285
-503.697	-96.928	-0.261	0.068
-502.683	37.991	-0.309	-0.273
-501.668	59.534	0.348	0.342
-500.653	238.033	0.014	0.022
-499.639	-150.047	-0.173	-0.013
-498.624	490.490	-0.093	-0.212
-497.610	-200.000	0.016	0.114
-496.595	-29.377	0.070	-0.040
-495.581	-82.517	-0.130	-0.042
-494.566	-53.734	0.359	0.163
-493.551	82.039	-0.174	-0.187
-492.537	-24.412	-0.197	0.117
-491.522	-123.530	0.154	-0.024
-490.508	-163.668	-0.115	0.005
-489.493	-200.000	-0.038	0.287
-488.478	-120.786	0.392	0.066
-487.464	-160.856	0.044	-0.002
-486.449	10.617	0.128	0.097
-485.435	-200.000	-0.024	0.158
-484.420	800.000	0.039	0.132
-483.405	52.036	-0.156	-0.148
-482.391	195.440	0.099	0.150
-481.376	-118.239	-0.228	-0.040
-480.362	267.563	-0.101	-0.176
-479.347	-78.439	-0.467	-0.159
-478.332	29.015	0.199	0.168
-477.318	2.172	0.235	0.169
-476.303	800.000	0.100	0.400
-475.289	457.850	-0.119	0.264
-474.274	329.036	0.013	0.025
-473.259	-200.000	0.006	-0.289
-472.245	800.000	-0.048	0.170
-471.230	-200.000	0.005	-0.234
-470.216	-20.118	0.248	-0.152
-469.201	-100.880	-0.116	0.028
-468.186	-67.878	-0.227	0.088
-467.172	-200.000	-0.044	0.270
-466.157	607.512	-0.036	-0.090
-465.143	-44.828	-0.129	0.064
-464.128	23.452	0.226	0.184
-463.113	-60.762	-0.351	-0.148
-462.099	22.836	0.240	0.196
-461.084	171.755	0.099	-0.142
-460.070	152.480	0.050	0.068
-459.055	126.599	-0.097	0.123
-458.040	800.000	-0.058	0.248
-457.026	-115.522	-0.331	0.062
-456.011	159.244	-0.193	0.266
-454.997	-116.426	-0.309	-0.057
-453.982	79.108	-0.139	0.148
-452.968	-119.229	-0.130	0.022
-451.953	-62.120	0.083	0.034
-450.938	302.403	-0.029	0.053
-449.924	-90.118	0.086	0.025
-448.909	149.979	-0.048	-0.065
-447.895	-82.477	-0.457	-0.147
-446.880	-31.904	0.244	-0.136
-445.865	-200.000	-0.007	-0.099
-444.851	642.129	0.073	-0.184
-443.836	693.761	0.108	0.281
-442.822	417.983	-0.087	0.185
-441.807	-119.720	0.218	0.037
-440.792	61.521	0.136	-0.135
-439.778	22.373	0.259	0.210
-438.763	800.000	0.044	0.122
-437.749	800.000	-0.092	-0.388
-436.734	235.969	0.309	-0.507
-435.719	-89.943	-0.061	0.018
-434.705	4.867	-0.174	0.127
-433.690	-103.885	0.168	0.039
-432.676	-31.440	0.079	0.044
-431.661	129.975	0.096	0.122
-430.646	453.963	0.040	0.087
-429.632	535.896	-0.178	-0.419
-428.617	-126.397	-0.115	-0.017
-427.603	116.938	-0.250	-0.305
-426.588	-200.000	-0.024	0.116
-425.573	-200.000	-0.010	0.094
-424.559	800.000	-0.036	0.121
-423.544	122.120	0.032	0.040
-422.530	144.199	-0.051	-0.068
-421.515	70.416	-0.058	0.060
-420.500	-20.928	-0.395	0.240
-419.486	311.971	0.220	0.409
-418.471	800.000	0.071	-0.253
-417.457	-59.436	0.270	-0.115
-416.442	-200.000	0.035	0.460
-415.428	168.527	0.248	-0.351
-414.413	172.280	0.114	0.163
-413.398	800.000	-0.052	0.147
-412.384	-200.000	0.004	-0.025
-411.369	-108.489	-0.408	0.087
-410.355	-106.463	0.183	0.041
-409.340	-200.000	-0.033	-0.183
-408.325	-13.488	0.166	-0.107
-407.311	-200.000	-0.042	-0.258
-406.296	-200.000	-0.019	0.118
-405.282	-45.505	-0.017	-0.008
-404.267	-200.000	-0.035	-0.294
-403.252	800.000	-0.087	0.291
-402.238	-200.000	0.055	-0.242
-401.223	-200.000	0.057	-0.334
-400.209	-9.473	0.109	-0.072
-399.194	-175.052	0.217	0.006
-398.179	107.096	-0.122	0.144
-397.165	-76.445	-0.309	-0.108
-396.150	67.851	0.140	-0.141
-395.136	14.264	0.240	-0.186
-394.121	265.147	-0.179	0.308
-393.106	-79.238	0.326	0.110
-392.092	-2.077	-0.322	-0.224
-391.077	142.269	0.127	0.166
-390.063	102.177	-0.097	-0.112
-389.048	384.323	0.073	0.149
-388.033	-103.311	0.108	-0.025
-387.019	-136.612	0.100	-0.012
-386.004	800.000	-0.047	-0.195
-384.990	255.210	0.095	-0.161
-383.975	618.070	0.085	-0.212
-382.960	-54.201	-0.263	-0.118
-381.946	-17.385	0.439	-0.274
-380.931	-57.096	-0.279	-0.122
-379.917	-200.000	-0.010	0.447
-378.902	-139.247	0.203	-0.022
-377.888	-200.000	-0.005	0.027
-376.873	-107.223	-0.375	0.082
-375.858	241.456	0.075	0.124
-374.844	800.000	0.039	-0.114
-373.829	-84.642	0.224	-0.070
-372.815	348.715	0.046	-0.091
-371.800	7.821	-0.038	-0.028
-370.785	171.427	0.141	-0.200
-369.771	393.185	0.049	0.100
-368.756	141.951	-0.167	0.219
-367.742	772.766	-0.128	0.345
-366.727	93.478	0.071	-0.080
-365.712	105.389	-0.108	0.127
-364.698	-54.873	0.261	-0.117
-363.683	-111.895	-0.263	0.053
-362.669	-123.673	-0.317	-0.050
-361.654	665.260	-0.051	0.129
-360.639	20.484	-0.338	-0.271
-359.625	24.285	0.304	0.248
-358.610	-200.000	-0.004	0.057
-357.596	428.865	-0.093	-0.198
-356.581	800.000	0.066	0.285
-355.566	800.000	-0.029	-0.102
-354.552	158.357	-0.195	0.268
-353.537	-85.643	-0.206	0.063
-352.523	114.199	0.120	0.144
-351.508	162.796	0.138	0.192
-350.493	-200.000	-0.052	0.276
-349.479	183.937	0.154	0.226
-348.464	187.993	0.130	0.192
-347.450	800.000	-0.086	0.248
-346.435	-85.253	0.133	-0.041
-345.420	-39.425	0.203	-0.106
-344.406	367.173	-0.045	-0.091
-343.391	-121.793	0.135	-0.022
-342.377	264.734	-0.107	-0.185
-341.362	-200.000	-0.001	-0.211
-340.348	698.792	0.091	-0.237
-339.333	31.491	0.069	0.058
-338.318	-177.009	-0.133	0.003
-337.304	154.567	0.046	0.063
-336.289	-200.000	-0.067	0.376
-335.275	67.491	0.087	-0.088
-334.260	-29.662	-0.256	0.144
-333.245	-85.526	0.230	-0.071
-332.231	11.869	0.175	-0.133
-331.216	38.405	-0.220	0.193
-330.202	-200.000	-0.000	0.222
-329.187	336.020	0.206	-0.396
-328.172	-200.000	-0.060	-0.347
-327.158	-21.500	0.259	-0.156
-326.143	-200.000	-0.038	0.167
-325.129	800.000	-0.078	0.280
-324.114	392.588	0.107	-0.219
-323.099	360.476	0.079	-0.157
-322.085	-87.947	0.253	-0.075
-321.070	149.832	-0.217	-0.291
-320.056	-107.813	0.053	0.011
-319.041	-114.938	-0.216	-0.041
-318.026	124.017	0.053	0.065
-317.012	36.504	-0.178	0.155
-315.997	61.076	-0.085	0.083
-314.983	50.617	0.126	0.118
-313.968	-200.000	0.065	-0.395
-312.953	800.000	0.076	-0.266
-311.939	365.575	-0.076	-0.151
-310.924	800.000	0.068	-0.255
-309.910	55.669	0.175	-0.168
-308.895	-60.040	0.319	-0.135
-307.880	-13.985	0.194	0.124
-306.866	12.244	0.253	0.193
-305.851	388.626	0.054	0.110
-304.837	-116.983	0.095	-0.017
-303.822	267.047	0.100	-0.172
-302.807	-94.829	0.530	-0.142
-301.793	800.000	-0.112	-0.379
-300.778	-200.000	0.023	0.121
-299.764	-200.000	-0.081	0.362
-298.749	-200.000	-0.011	-0.357
-297.735	-36.503	-0.248	-0.132
-296.720	-59.870	0.241	0.102
-295.705	63.937	-0.209	-0.207
-294.691	476.036	-0.056	-0.124
-293.676	-200.000	0.034	-0.241
-292.662	-149.301	0.223	0.018
-291.647	193.880	0.164	0.245
-290.632	-200.000	-0.042	-0.211
-289.618	800.000	-0.083	-0.247
-288.603	800.000	0.057	-0.181
-287.589	780.958	-0.069	0.187
-286.574	196.546	0.024	-0.036
-285.559	-200.000	0.032	0.446
-284.545	108.001	0.074	0.087
-283.530	-29.305	-0.304	-0.172
-282.516	5.130	-0.146	0.106
-281.501	-200.000	0.362	-0.001
-280.486	174.016	0.231	-0.329
-279.472	304.275	-0.032	-0.059
-278.457	-176.707	-0.103	-0.003
-277.443	-86.286	-0.167	-0.051
-276.428	-200.000	0.011	-0.145
-275.413	33.499	0.148	0.127
-274.399	800.000	-0.140	0.422
-273.384	73.395	0.146	0.151
-272.370	-86.648	0.359	0.108
-271.355	-200.000	-0.017	-0.096
-270.340	-113.920	0.463	-0.089
-269.326	-142.592	-0.113	0.011
-268.311	-5.199	0.180	-0.122
-267.297	-125.834	-0.239	0.035
-266.282	-21.286	0.214	0.129
-265.267	-8.335	-0.083	0.055
-264.253	-112.904	0.080	-0.016
-263.238	35.836	-0.050	0.044
-262.224	49.510	0.055	-0.051
-261.209	-66.182	0.201	-0.079
-260.195	171.140	-0.034	0.047
-259.180	-200.000	-0.004	-0.220
-258.165	99.256	-0.217	-0.248
-257.151	-177.445	-0.255	-0.006
-256.136	-82.811	0.127	0.041
-255.122	-85.453	-0.166	-0.051
-254.107	131.278	-0.312	-0.395
-253.092	159.782	0.099	-0.136
-252.078	-84.006	-0.272	0.085
-251.063	-74.472	0.028	-0.010
-250.049	800.000	0.035	0.145
-249.034	25.762	-0.195	-0.160
-248.019	-32.792	-0.436	-0.239
-247.005	-59.110	-0.347	-0.147
-245.990	157.448	-0.114	0.155
-244.976	-22.968	-0.175	-0.104
-243.961	1.073	-0.230	0.163
-242.946	800.000	0.037	-0.157
-241.932	248.696	-0.144	-0.239
-240.917	-120.251	-0.439	0.074
-239.903	800.000	0.129	0.399
-238.888	-116.178	-0.244	0.045
-237.873	-59.748	-0.111	0.047
-236.859	800.000	-0.045	0.147
-235.844	39.302	0.217	0.191
-234.830	90.908	0.161	0.177
-233.815	-197.499	-0.035	-0.000
-232.800	-77.173	-0.116	-0.040
-231.786	776.868	0.058	-0.156
-230.771	-200.000	-0.058	0.297
-229.757	-101.899	0.293	-0.070
-228.742	491.147	0.047	0.105
-227.727	800.000	-0.016	0.067
-226.713	-47.359	0.157	-0.075
-225.698	-49.522	-0.065	-0.030
-224.684	120.034	0.037	0.045
-223.669	800.000	0.069	-0.270
-222.655	-17.771	0.108	0.066
-221.640	-105.952	0.356	0.079
-220.625	-128.527	-0.348	0.049
-219.611	68.332	0.275	-0.277
-218.596	339.788	-0.084	-0.162
-217.582	800.000	-0.032	-0.089
-216.567	-54.398	0.262	-0.117
-215.552	320.558	0.059	-0.111
-214.538	36.588	0.161	-0.140
-213.523	-200.000	-0.015	0.112
-212.509	-73.278	-0.258	0.093
-211.494	-131.222	-0.224	0.029
-210.479	800.000	-0.045	-0.127
-209.465	-137.319	0.086	-0.010
-208.450	-79.209	-0.232	-0.077
-207.436	-200.000	-0.004	0.085
-206.421	174.233	-0.080	0.113
-205.406	-18.352	-0.138	0.085
-204.392	392.697	0.137	0.281
-203.377	-56.922	-0.048	-0.021
-202.363	163.193	0.031	0.043
-201.348	-200.000	-0.048	-0.318
-200.333	293.621	-0.051	-0.091
-199.319	-97.070	-0.039	-0.010
-198.304	-22.705	0.066	0.039
-197.290	-28.965	0.374	0.211
-196.275	257.832	0.034	-0.058
-195.260	271.559	0.307	0.531
-194.246	-68.032	-0.207	0.079
-193.231	-20.980	-0.267	0.161
-192.217	34.047	-0.122	0.104
-191.202	-12.236	0.227	0.146
-190.187	800.000	0.032	-0.122
-189.173	163.039	0.091	0.125
-188.158	-102.129	-0.130	-0.031
-187.144	-163.266	-0.216	0.010
-186.129	308.220	-0.026	-0.048
-185.114	-59.496	0.171	-0.072
-184.100	-189.473	-0.073	-0.001
-183.085	-117.883	-0.174	0.031
-182.071	-200.000	0.034	0.211
-181.056	44.595	-0.110	0.099
-180.042	-131.192	0.116	0.015
-179.027	-106.098	-0.083	-0.018
-178.012	-108.712	0.489	-0.103
-176.998	769.319	-0.214	0.572
-175.983	800.000	0.037	-0.104
-174.969	-85.648	-0.297	-0.091
-173.954	-173.092	-0.434	0.013
-172.939	-145.863	-0.475	-0.041
-171.925	800.000	-0.054	0.192
-170.910	214.918	-0.189	0.295
-169.896	-141.251	0.268	-0.027
-168.881	-126.880	-0.068	-0.010
-167.866	-63.609	-0.068	0.027
-166.852	800.000	0.022	-0.091
-165.837	-147.509	0.044	0.004
-164.823	-51.317	-0.231	0.106
-163.808	-116.669	0.284	-0.051
-162.793	699.307	-0.084	0.216
-161.779	800.000	0.060	0.223
-160.764	800.000	-0.025	-0.092
-159.750	-96.823	0.299	-0.077
-158.735	710.109	-0.058	-0.152
-157.720	106.189	-0.102	0.119
-156.706	-115.048	0.103	0.019
-155.691	-63.843	-0.174	-0.070
-154.677	-196.680	0.081	0.001
-153.662	-200.000	-0.059	-0.326
-152.647	-122.799	0.062	-0.010
-151.633	-62.690	0.157	-0.064
-150.618	800.000	0.069	-0.265
-149.604	10.495	-0.089	-0.067
-148.589	-137.458	0.150	-0.017
-147.574	141.611	0.061	-0.080
-146.560	676.511	-0.099	-0.252
-145.545	81.271	-0.153	-0.163
-144.531	-131.017	-0.070	0.009
-143.516	-77.029	0.105	-0.036
-142.502	128.691	0.070	-0.088
-141.487	0.825	0.137	-0.096
-140.472	-200.000	0.022	-0.235
-139.458	19.636	-0.283	-0.223
-138.443	35.675	0.316	0.273
-137.429	800.000	0.018	0.074
-136.414	-174.791	0.340	0.009
-135.399	-4.036	0.274	-0.187
-134.385	-147.480	0.128	-0.011
-133.370	-200.000	0.000	0.048
-132.356	42.420	-0.091	0.081
-131.341	800.000	0.092	0.360
-130.326	-139.218	-0.141	-0.015
-129.312	489.378	-0.038	-0.085
-128.297	-80.636	-0.145	0.047
-127.283	-64.686	-0.347	0.138
-126.268	800.000	0.038	0.108
-125.253	-16.658	0.273	-0.169
-124.239	72.913	0.041	0.042
-123.224	-200.000	-0.014	-0.139
-122.210	-200.000	-0.018	-0.130
-121.195	14.290	-0.218	0.166
-120.180	-200.000	-0.066	0.360
-119.166	800.000	0.158	0.611
-118.151	-51.883	-0.397	-0.181
-117.137	46.435	0.224	-0.203
-116.122	-128.587	0.062	0.009
-115.107	62.048	0.054	0.053
-114.093	-113.047	0.278	0.054
-113.078	-146.213	-0.100	0.009
-112.064	-51.977	-0.125	0.057
-111.049	-50.938	-0.015	-0.007
-110.034	226.170	0.130	-0.207
-109.020	233.934	0.061	-0.098
-108.005	274.501	0.143	-0.248
-106.991	-58.719	0.134	-0.057
-105.976	168.326	0.054	0.075
-104.962	-113.109	-0.212	-0.041
-103.947	-59.182	-0.108	0.045
-102.932	-161.141	-0.114	0.006
-101.918	-7.450	-0.288	0.191
-100.903	-112.738	-0.264	0.051
-99.889	-46.959	0.156	-0.075
-98.874	73.418	0.253	-0.259
-97.859	-105.195	-0.314	-0.070
-96.845	-59.372	0.377	-0.159
-95.830	-93.384	0.234	-0.064
-94.816	-200.000	0.083	0.399
-93.801	-71.495	-0.145	0.053
-92.786	83.595	-0.142	0.152
-91.772	-200.000	0.012	0.332
-90.757	-200.000	0.008	0.038
-89.743	-35.783	0.417	-0.221
-88.728	-200.000	-0.039	-0.244
-87.713	-200.000	0.003	0.322
-86.699	800.000	-0.050	-0.190
-85.684	-89.675	-0.350	-0.100
-84.670	84.817	-0.150	-0.161
-83.655	800.000	-0.080	0.260
-82.640	-142.497	-0.027	0.003
-81.626	211.553	-0.163	-0.251
-80.611	-62.709	0.146	0.059
-79.597	304.415	0.132	-0.240
-78.582	800.000	-0.074	-0.221
-77.567	-49.379	-0.336	-0.157
-76.553	-63.333	-0.093	0.037
-75.538	57.621	0.101	-0.096
-74.524	-200.000	0.111	0.749
-73.509	-27.444	-0.161	-0.092
-72.494	-200.000	-0.014	0.150
-71.480	-49.802	0.151	0.070
-70.465	39.945	0.068	-0.060
-69.451	-2.540	-0.212	-0.145
-68.436	-104.081	-0.385	-0.088
-67.422	-35.691	0.066	0.035
-66.407	-200.000	-0.013	-0.057
-65.392	136.144	0.099	-0.126
-64.378	158.822	-0.100	-0.135
-63.363	170.525	-0.226	-0.317
-62.349	800.000	0.103	0.327
-61.334	124.703	-0.936	-1.152
-60.319	-80.022	0.689	0.226
-59.305	800.000	-0.350	-1.274
-58.290	212.122	0.787	1.213
-57.276	207.015	1.081	1.648
-56.261	-200.000	116.136	657.423
-55.246	527.168	1534.231	3536.115
-54.232	174.730	2717.088	3844.403
-53.217	101.580	2301.922	2623.442
-52.203	36.144	1906.478	1641.814
-51.188	29.931	1696.017	1413.261
-50.173	27.503	1654.047	1360.130
-49.159	49.393	1710.318	1573.039
-48.144	47.630	1724.939	1573.066
-47.130	29.515	1682.003	1398.210
-46.115	26.891	1667.746	1366.572
-45.100	26.759	1662.577	1361.287
-44.086	26.680	1660.109	1358.624
-43.071	26.703	1657.561	1356.654
-42.057	26.643	1655.164	1354.192
-41.042	26.689	1653.056	1352.754
-40.027	26.692	1651.062	1351.096
-39.013	26.647	1649.656	1349.553
-37.998	26.595	1647.621	1347.446
-36.984	26.681	1646.059	1346.756
-35.969	26.772	1644.662	1346.239
-34.954	26.791	1643.507	1345.382
-33.940	26.847	1641.129	1343.793
-32.925	26.738	1639.559	1341.649
-31.911	26.824	1637.764	1340.764
-30.896	26.691	1636.471	1338.670
-29.881	26.866	1634.183	1338.035
-28.867	26.788	1632.805	1336.274
-27.852	26.868	1631.641	1335.858
-26.838	26.859	1630.050	1334.440
-25.823	26.792	1628.828	1332.893
-24.809	26.792	1627.693	1331.909
-23.794	26.800	1626.338	1330.806
-22.779	26.864	1624.633	1329.828
-21.765	26.829	1622.664	1327.911
-20.750	26.797	1620.998	1326.257
-19.736	26.798	1620.247	1325.602
-18.721	26.862	1618.869	1324.888
-17.706	26.897	1616.759	1323.365
-16.692	26.799	1615.500	1321.566
-15.677	26.858	1614.165	1320.854
-14.663	26.927	1612.731	1320.126
-13.648	26.883	1611.140	1318.450
-12.633	26.902	1609.703	1317.362
-11.619	26.922	1608.046	1316.099
-10.604	26.875	1606.435	1314.388
-9.590	26.885	1605.332	1313.509
-8.575	26.862	1604.263	1312.409
-7.560	26.910	1602.601	1311.349
-6.546	26.877	1602.025	1310.588
-5.531	26.758	1601.201	1309.002
-4.517	26.870	1599.419	1308.301
-3.502	26.842	1598.403	1307.213
-2.487	26.892	1596.733	1306.157
-1.473	26.664	1584.659	1294.602
-0.458	23.948	1565.508	1259.697
0.556	21.485	1567.624	1229.804
1.571	19.182	1592.187	1232.500
2.586	18.738	1604.608	1238.804
3.600	16.590	1549.331	1181.039
4.615	9.706	1441.478	1053.874
5.629	4.274	1382.552	976.572
6.644	3.376	1375.470	965.857
7.659	3.359	1373.976	964.618
8.673	3.364	1373.061	963.920
9.688	3.291	1371.103	962.008
10.702	3.308	1368.005	959.852
11.717	5.908	1372.723	979.321
12.731	13.019	1386.004	1033.376
13.746	19.015	1395.766	1078.255
14.761	20.236	1396.842	1086.644
15.775	19.643	1395.041	1081.437
16.790	18.647	1392.375	1073.049
17.804	17.857	1390.020	1066.206
18.819	17.415	1389.236	1062.752
19.834	17.267	1387.760	1060.602
20.848	17.175	1386.810	1059.210
21.863	16.990	1385.033	1056.606
22.877	16.860	1384.199	1055.066
23.892	16.805	1383.113	1053.806
24.907	16.783	1382.464	1053.081
25.921	16.790	1381.431	1052.245
26.936	16.879	1380.110	1051.696
27.950	16.887	1379.123	1050.902
28.965	17.059	1378.548	1051.436
29.980	16.957	1377.835	1050.165
30.994	17.024	1377.023	1049.872
32.009	17.073	1375.406	1048.850
33.023	17.152	1373.977	1048.152
34.038	17.028	1372.951	1046.512
35.053	16.934	1371.712	1044.897
36.067	16.999	1370.363	1044.176
37.082	17.002	1369.616	1043.533
38.096	17.030	1368.814	1043.001
39.111	16.967	1367.819	1041.768
40.126	16.987	1366.423	1040.732
41.140	16.787	1365.579	1038.772
42.155	16.667	1365.103	1037.579
43.169	16.641	1364.946	1037.212
44.184	16.623	1364.791	1036.892
45.199	16.678	1364.242	1036.720
46.213	16.706	1363.624	1036.330
47.228	16.985	1362.920	1037.407
48.242	16.988	1361.661	1036.377
49.257	16.927	1360.576	1035.090
50.271	16.837	1358.863	1033.146
51.286	16.910	1357.448	1032.420
52.301	16.960	1355.827	1031.399
53.315	16.776	1355.613	1030.025
54.330	16.761	1354.016	1028.634
55.344	16.673	1353.134	1027.339
56.359	16.780	1351.655	1026.770
57.374	16.797	1351.101	1026.363
58.388	16.590	1350.682	1024.699
59.403	16.545	1349.993	1023.816
60.417	16.632	1348.801	1023.345
61.432	16.546	1348.050	1022.169
62.447	16.542	1347.081	1021.319
63.461	16.467	1346.032	1019.978
64.476	16.496	1344.490	1018.893
65.490	16.538	1343.455	1018.272
66.505	16.328	1342.348	1016.080
67.520	16.455	1341.312	1015.971
68.534	16.535	1339.498	1014.986
69.549	16.480	1338.849	1014.076
70.563	16.513	1337.325	1013.030
71.578	16.437	1336.643	1011.967
72.593	16.342	1335.677	1010.579
73.607	16.350	1334.850	1009.913
74.622	16.394	1333.839	1009.319
75.636	16.478	1333.169	1009.225
76.651	16.426	1333.042	1008.731
77.666	16.401	1332.172	1007.832
78.680	16.461	1331.844	1007.850
79.695	16.482	1331.159	1007.370
80.709	16.662	1330.389	1007.769
81.724	16.649	1329.747	1007.115
82.739	16.756	1328.486	1006.709
83.753	16.834	1327.864	1006.609
84.768	16.865	1326.537	1005.699
85.782	16.932	1325.968	1005.576
86.797	17.005	1324.572	1004.864
87.812	16.915	1323.138	1003.156
88.826	16.856	1322.268	1002.057
89.841	16.937	1321.478	1001.849
90.855	16.937	1320.700	1001.168
91.870	17.003	1319.656	1000.675
92.884	17.034	1318.568	999.949
93.899	17.172	1317.346	999.743
94.914	17.063	1317.073	998.807
95.928	17.132	1315.904	998.239
96.943	17.036	1314.985	996.889
97.957	17.040	1314.096	996.150
98.972	16.968	1313.362	995.086
99.987	17.034	1312.137	994.454
101.001	17.101	1310.620	993.606
102.016	17.109	1310.099	993.172
103.030	17.101	1309.376	992.491
104.045	17.069	1308.132	991.271
105.060	16.847	1307.199	989.182
106.074	16.781	1305.307	987.276
107.089	16.526	1304.410	985.027
108.103	16.490	1302.885	983.578
109.118	16.503	1301.756	982.715
110.133	16.518	1300.338	981.644
111.147	16.605	1298.764	980.873
112.162	16.601	1297.643	979.920
113.176	16.633	1296.530	979.177
114.191	16.640	1295.474	978.331
115.206	16.667	1294.680	977.804
116.220	16.546	1293.599	976.202
117.235	16.700	1291.938	975.749
118.249	16.689	1291.005	974.894
119.264	16.549	1289.877	973.149
120.279	16.459	1288.937	971.835
121.293	16.535	1287.574	971.158
122.308	16.455	1286.596	969.876
123.322	16.366	1285.947	968.791
124.337	16.479	1284.312	968.120
125.352	16.433	1283.064	966.829
126.366	16.388	1282.698	966.216
127.381	16.597	1281.272	966.245
128.395	16.464	1280.142	964.550
129.410	16.527	1279.223	964.131
130.424	16.561	1278.741	963.878
131.439	16.651	1276.923	962.937
132.454	16.601	1276.754	962.438
133.468	16.729	1275.760	962.327
134.483	16.599	1274.963	960.904
135.497	16.622	1274.086	960.287
136.512	16.657	1272.702	959.361
137.527	16.739	1270.746	958.266
138.541	16.799	1269.529	957.602
139.556	16.794	1268.734	956.889
140.570	16.790	1267.965	956.200
141.585	17.002	1266.388	956.121
142.600	17.033	1265.098	955.240
143.614	17.098	1264.743	955.254
144.629	17.052	1263.500	953.972
145.643	17.018	1262.605	953.018
146.658	16.916	1261.264	951.348
147.673	16.901	1259.579	949.914
148.687	16.694	1258.759	948.050
149.702	16.670	1257.406	946.811
150.716	16.612	1256.458	945.691
151.731	16.884	1254.441	945.605
152.746	16.743	1253.729	944.202
153.760	16.890	1252.391	943.926
154.775	16.863	1251.884	943.310
155.789	16.916	1250.711	942.637
156.804	16.993	1249.518	942.084
157.819	17.019	1248.639	941.480
158.833	17.089	1247.757	941.122
159.848	17.228	1246.831	941.110
160.862	17.132	1246.016	939.882
161.877	16.929	1244.219	937.317
162.892	16.800	1243.677	936.117
163.906	16.879	1242.312	935.443
164.921	16.859	1241.837	934.894
165.935	16.946	1240.621	934.370
166.950	16.942	1240.458	934.144
167.964	17.028	1239.297	933.659
168.979	16.872	1238.526	932.137
169.994	16.954	1237.640	931.844
171.008	17.058	1237.136	931.948
172.023	17.138	1236.083	931.510
173.037	17.195	1235.504	931.306
174.052	17.149	1234.519	930.232
175.067	17.073	1233.043	928.619
176.081	16.842	1232.098	926.562
177.096	16.893	1231.458	926.277
178.110	16.834	1230.321	925.018
179.125	16.965	1228.968	924.636
180.140	17.062	1227.743	924.162
181.154	17.101	1226.675	923.488
182.169	17.061	1226.144	922.785
183.183	17.229	1224.466	922.355
184.198	17.272	1223.061	921.448
185.213	17.345	1221.871	920.866
186.227	17.292	1221.172	919.969
187.242	17.394	1219.790	919.400
188.256	17.414	1218.998	918.829
189.271	17.380	1218.480	918.171
190.286	17.236	1217.093	916.270
191.300	16.979	1216.021	914.000
192.315	16.829	1215.336	912.593
193.329	16.903	1215.156	912.776
194.344	17.020	1214.570	912.887
195.359	17.026	1214.148	912.521
196.373	17.215	1213.391	912.882
197.388	17.199	1213.237	912.602
198.402	17.482	1212.671	913.614
199.417	17.510	1211.798	913.028
200.432	17.452	1211.642	912.516
201.446	17.590	1210.648	912.427
202.461	17.711	1209.682	912.269
203.475	17.604	1209.306	911.331
204.490	17.529	1207.607	909.566
205.504	17.319	1206.289	907.373
206.519	17.347	1205.039	906.505
207.534	17.306	1203.791	905.264
208.548	17.353	1203.054	904.881
209.563	17.353	1202.118	904.096
210.577	17.369	1201.162	903.383
211.592	17.478	1200.378	903.290
212.607	17.685	1199.080	903.330
213.621	17.698	1198.478	902.869
214.636	17.589	1197.518	901.490
215.650	17.538	1196.906	900.680
216.665	17.617	1196.019	900.349
217.680	17.717	1195.093	900.097
218.694	17.822	1194.668	900.255
219.709	17.841	1193.097	899.088
220.723	17.782	1192.552	898.288
221.738	17.791	1191.984	897.828
222.753	17.678	1190.918	896.351
223.767	17.821	1190.519	896.727
224.782	17.888	1189.901	896.534
225.796	17.946	1189.342	896.337
226.811	18.007	1188.329	895.813
227.826	17.775	1188.262	894.469
228.840	17.689	1187.091	893.056
229.855	17.727	1186.701	892.883
230.869	17.695	1185.374	891.637
231.884	17.594	1184.773	890.581
232.899	17.603	1183.750	889.777
233.913	17.694	1183.142	889.715
234.928	17.629	1182.047	888.477
235.942	17.540	1181.353	887.412
236.957	17.705	1180.173	887.307
237.972	17.648	1179.450	886.387
238.986	17.652	1179.130	886.091
240.001	17.625	1178.661	885.520
241.015	17.766	1177.415	885.234
242.030	17.790	1177.054	885.008
243.045	17.781	1175.978	884.076
244.059	17.788	1175.447	883.634
245.074	17.897	1174.102	883.109
246.088	17.819	1173.751	882.363
247.103	17.896	1172.836	881.996
248.117	18.097	1172.066	882.379
249.132	18.172	1171.779	882.471
250.147	18.351	1171.091	882.795
251.161	18.383	1170.061	882.108
252.176	18.420	1169.705	881.948
253.190	18.550	1168.934	881.961
254.205	18.519	1168.836	881.650
255.220	18.486	1168.226	880.939
256.234	18.447	1167.372	880.016
257.249	18.508	1166.791	879.817
258.263	18.468	1166.041	878.966
259.278	18.569	1165.404	878.928
260.293	18.503	1164.911	878.141
261.307	18.540	1164.175	877.696
262.322	18.650	1163.504	877.675
263.336	18.679	1162.755	877.179
264.351	18.616	1162.637	876.692
265.366	18.762	1161.512	876.512
266.380	18.631	1160.856	875.268
267.395	18.563	1160.144	874.308
268.409	18.550	1158.833	873.176
269.424	18.484	1158.584	872.575
270.439	18.519	1157.948	872.200
271.453	18.467	1157.302	871.370
272.468	18.374	1156.344	870.100
273.482	18.485	1155.120	869.665
274.497	18.454	1154.983	869.326
275.512	18.450	1154.409	868.797
276.526	18.444	1153.605	868.086
277.541	18.484	1152.496	867.375
278.555	18.571	1152.229	867.541
279.570	18.597	1151.868	867.324
280.585	18.854	1150.654	867.627
281.599	18.740	1149.608	866.191
282.614	18.708	1148.326	864.986
283.628	18.621	1147.350	863.734
284.643	18.558	1146.797	862.928
285.657	18.691	1145.937	862.871
286.672	18.696	1144.633	861.836
287.687	18.690	1144.028	861.278
288.701	18.736	1143.183	860.796
289.716	18.820	1142.210	860.405
290.730	18.812	1141.672	859.885
291.745	18.767	1141.159	859.197
292.760	18.718	1141.011	858.763
293.774	18.860	1139.940	858.594
294.789	18.922	1139.743	858.679
295.803	19.025	1138.661	858.300
296.818	18.858	1137.810	856.748
297.833	18.843	1136.897	855.911
298.847	18.804	1136.404	855.272
299.862	18.788	1135.544	854.467
300.876	18.860	1134.822	854.206
301.891	18.931	1134.091	853.937
302.906	18.941	1133.573	853.519
303.920	18.989	1133.046	853.285
304.935	19.181	1132.351	853.635
305.949	19.335	1131.805	853.913
306.964	19.164	1131.058	852.429
307.979	19.099	1130.694	851.753
308.993	19.030	1129.530	850.464
310.008	19.168	1128.565	850.340
311.022	19.253	1127.809	850.115
312.037	19.276	1126.904	849.473
313.052	19.076	1125.763	847.552
314.066	19.034	1124.968	846.673
315.081	18.824	1124.000	844.835
316.095	18.896	1123.402	844.668
317.110	18.985	1122.516	844.364
318.125	18.859	1122.379	843.565
319.139	18.916	1121.581	843.168
320.154	19.023	1120.541	842.841
321.168	18.955	1120.160	842.145
322.183	18.987	1119.469	841.706
323.197	18.899	1119.186	840.989
324.212	19.023	1118.230	840.801
325.227	19.103	1117.400	840.493
326.241	19.191	1116.613	840.255
327.256	19.065	1116.413	839.420
328.270	18.926	1115.178	837.739
329.285	19.059	1114.266	837.628
330.300	19.027	1113.165	836.568
331.314	19.125	1112.438	836.426
332.329	19.109	1111.338	835.447
333.343	19.084	1110.714	834.782
334.358	19.395	1109.190	835.070
335.373	19.443	1108.597	834.782
336.387	19.320	1108.395	833.962
337.402	19.346	1107.631	833.437
338.416	19.392	1106.703	832.888
339.431	19.353	1106.420	832.411
340.446	19.532	1105.726	832.682
341.460	19.576	1105.509	832.653
342.475	19.555	1104.550	831.757
343.489	19.662	1103.625	831.505
344.504	19.650	1102.386	830.435
345.519	19.754	1101.609	830.277
346.533	19.777	1101.213	830.018
347.548	19.827	1100.573	829.701
348.562	19.762	1099.509	828.514
349.577	19.531	1098.714	826.735
350.592	19.467	1097.788	825.659
351.606	19.438	1097.125	824.947
352.621	19.434	1096.530	824.409
353.635	19.498	1095.474	823.850
354.650	19.457	1094.963	823.195
355.665	19.479	1094.230	822.678
356.679	19.449	1093.798	822.135
357.694	19.535	1093.366	822.149
358.708	19.585	1092.838	821.917
359.723	19.631	1092.085	821.494
360.738	19.605	1091.159	820.600
361.752	19.685	1090.597	820.486
362.767	19.644	1089.829	819.641
363.781	19.683	1089.552	819.546
364.796	19.818	1089.042	819.732
365.810	19.916	1088.845	819.972
366.825	19.979	1087.821	819.429
367.840	20.075	1087.381	819.480
368.854	20.101	1086.592	818.934
369.869	19.942	1086.415	817.978
370.883	20.000	1085.215	817.273
371.898	20.017	1084.206	816.521
372.913	20.040	1083.896	816.324
373.927	20.019	1083.379	815.766
374.942	20.086	1082.906	815.652
375.956	20.017	1082.431	814.898
376.971	19.980	1081.764	814.150
377.986	20.109	1081.089	814.173
379.000	20.180	1080.903	814.295
380.015	20.265	1080.049	813.980
381.029	20.234	1079.733	813.525
382.044	20.239	1078.939	812.879
383.059	20.208	1077.980	811.938
384.073	20.247	1077.321	811.552
385.088	20.313	1076.329	811.040
386.102	20.323	1075.600	810.466
387.117	20.194	1074.512	808.975
388.132	20.092	1073.126	807.384
389.146	20.076	1072.484	806.756
390.161	20.060	1071.888	806.159
391.175	20.105	1071.154	805.747
392.190	20.192	1070.431	805.533
393.205	20.301	1069.849	805.530
394.219	20.319	1069.016	804.916
395.234	20.220	1067.765	803.446
396.248	20.084	1067.339	802.426
397.263	20.192	1066.157	801.966
398.278	20.141	1065.554	801.203
399.292	20.072	1064.813	800.257
400.307	20.027	1063.661	799.115
401.321	20.044	1063.342	798.881
402.336	19.829	1062.651	797.298
403.350	20.021	1061.906	797.557
404.365	20.126	1061.276	797.496
405.380	20.263	1060.436	797.424
406.394	20.324	1060.067	797.356
407.409	20.348	1059.244	796.775
408.423	20.477	1058.310	796.591
409.438	20.461	1058.072	796.273
410.453	20.533	1057.247	795.911
411.467	20.663	1056.502	795.873
412.482	20.749	1055.668	795.569
413.496	20.673	1054.939	794.601
414.511	20.741	1054.621	794.600
415.526	20.787	1054.045	794.307
416.540	20.746	1054.078	794.075
417.555	20.749	1053.130	793.303
418.569	20.652	1052.903	792.618
419.584	20.787	1051.958	792.451
420.599	20.787	1051.752	792.229
421.613	155.559	1404.210	1798.102
422.628	142.712	1455.532	1798.193
