DTS Sentinel unit serial number:	SN413079Multiplexer serial number:	ORYXHardware model number:	OX4-SRSoftware version number:	ORYX F/W v4.00 Oryx Data Collector v3.7.2.0data status	okinstallation	princeton_trtdifferential loss correction	single-endedforward channel	channel 2reverse channel	N/Adate	2019/09/10time	18:29:10forward acquisition time	60.00reverse acquisition time	0.00gamma	496.2192k internal	0.2320k external	0.2320temperature offset calibration	0.9941default loss term (dB/km)	0.3790temperature slope calibration	1.0000multiplexer offset coefficient	1.0000multiplexer slope coefficient	1.0000fibre end	0.00T internal ref (°C)	35.92T ext. ref 1 (°C)	-0.35T ext. ref 2 (°C)	28.00length (m)	temperature (°C)	Stokes	anti-Stokes-747.200	-91.812	-0.119	0.034
-746.185	31.077	-0.192	0.166
-745.171	174.866	-0.123	0.181
-744.156	6.664	-0.043	-0.032
-743.142	229.893	-0.218	-0.359
-742.127	-91.964	-0.123	-0.035
-741.112	406.304	-0.065	-0.138
-740.098	-53.056	-0.174	0.081
-739.083	37.565	-0.094	0.084
-738.069	132.042	-0.278	0.362
-737.054	-200.000	-0.049	-0.293
-736.039	30.026	-0.152	-0.131
-735.025	-200.000	-0.045	0.460
-734.010	318.027	0.124	0.237
-732.996	313.084	-0.085	-0.161
-731.981	-86.015	-0.177	-0.055
-730.966	-200.000	-0.056	-0.252
-729.952	-67.597	-0.095	0.038
-728.937	800.000	0.026	-0.075
-727.923	52.709	0.148	0.143
-726.908	-94.713	0.433	0.119
-725.894	51.173	0.033	0.032
-724.879	-200.000	0.027	0.151
-723.864	14.096	-0.347	0.273
-722.850	-200.000	0.020	0.117
-721.835	800.000	0.041	0.169
-720.821	800.000	-0.065	0.202
-719.806	800.000	-0.050	0.164
-718.791	-200.000	0.014	-0.079
-717.777	-159.853	0.377	-0.021
-716.762	39.050	-0.045	0.040
-715.748	38.400	0.103	0.092
-714.733	86.140	-0.143	0.159
-713.718	-133.906	-0.163	0.020
-712.704	800.000	-0.103	-0.417
-711.689	-15.032	-0.303	-0.196
-710.675	-155.660	0.252	0.016
-709.660	-106.612	-0.121	-0.027
-708.645	14.690	0.207	-0.164
-707.631	-14.000	-0.262	-0.171
-706.616	800.000	-0.072	-0.298
-705.602	50.686	-0.160	-0.153
-704.587	66.392	0.156	0.160
-703.572	-16.872	0.283	-0.180
-702.558	-161.070	-0.334	-0.018
-701.543	5.336	0.162	-0.121
-700.529	-22.798	0.129	-0.079
-699.514	8.121	0.093	0.071
-698.499	46.847	0.084	-0.078
-697.485	-84.383	0.141	-0.045
-696.470	-11.910	0.090	-0.060
-695.456	-51.194	-0.078	0.037
-694.441	-200.000	-0.085	-0.434
-693.426	-200.000	0.000	-0.111
-692.412	98.668	0.071	-0.083
-691.397	-200.000	0.010	-0.149
-690.383	2.357	0.207	0.151
-689.368	36.787	-0.165	-0.148
-688.354	-200.000	-0.034	0.211
-687.339	-87.047	0.038	0.012
-686.324	800.000	-0.103	0.312
-685.310	-161.678	0.170	0.009
-684.295	-60.735	-0.465	0.199
-683.281	-33.774	-0.307	0.171
-682.266	-132.554	-0.307	0.040
-681.251	71.891	0.057	0.060
-680.237	397.942	0.177	-0.374
-679.222	207.818	-0.226	-0.355
-678.208	293.786	-0.105	0.194
-677.193	39.708	-0.238	-0.215
-676.178	-200.000	-0.006	0.032
-675.164	21.497	-0.323	-0.265
-674.149	499.019	0.048	-0.111
-673.135	212.464	-0.029	-0.046
-672.120	90.776	0.117	0.132
-671.105	746.951	-0.008	-0.020
-670.091	-87.913	0.155	-0.047
-669.076	-9.023	0.110	-0.074
-668.062	-200.000	0.008	-0.550
-667.047	112.163	-0.098	0.119
-666.032	-83.202	0.238	0.077
-665.018	-61.546	-0.031	-0.013
-664.003	-200.000	-0.018	-0.300
-662.989	386.374	-0.099	-0.206
-661.974	491.672	-0.061	0.141
-660.959	-200.000	0.013	-0.154
-659.945	149.806	-0.258	0.352
-658.930	800.000	-0.033	-0.146
-657.916	40.722	-0.124	0.112
-656.901	-83.928	-0.226	0.072
-655.886	39.901	-0.129	0.117
-654.872	-200.000	-0.017	-0.231
-653.857	-200.000	-0.022	0.149
-652.843	130.658	-0.084	-0.108
-651.828	273.822	0.147	-0.262
-650.814	57.916	-0.105	-0.104
-649.799	-2.132	0.098	-0.070
-648.784	13.766	-0.275	0.215
-647.770	391.701	0.097	0.202
-646.755	-87.964	-0.216	-0.066
-645.741	284.957	-0.216	0.393
-644.726	-59.986	0.303	-0.130
-643.711	66.515	0.118	-0.121
-642.697	-68.648	-0.230	0.090
-641.682	800.000	-0.027	-0.114
-640.668	89.289	0.143	0.160
-639.653	204.589	-0.120	-0.187
-638.638	11.769	-0.239	-0.184
-637.624	-149.225	0.214	-0.017
-636.609	-200.000	-0.194	-0.001
-635.595	-58.042	-0.090	0.040
-634.580	47.183	-0.054	-0.051
-633.565	194.540	-0.082	0.125
-632.551	139.891	-0.237	0.315
-631.536	-127.295	0.248	0.036
-630.522	800.000	0.072	-0.218
-629.507	508.373	0.081	0.189
-628.492	-193.499	-0.085	-0.001
-627.478	-74.555	0.256	-0.093
-626.463	386.781	-0.111	-0.231
-625.449	193.345	-0.079	0.120
-624.434	-200.000	-0.016	0.179
-623.419	-114.090	0.055	0.011
-622.405	-160.089	-0.095	-0.005
-621.390	291.300	0.098	-0.179
-620.376	-141.178	-0.178	-0.018
-619.361	7.784	0.110	-0.083
-618.346	-47.204	0.433	0.213
-617.332	-48.706	-0.076	-0.037
-616.317	-107.467	0.346	0.076
-615.303	22.096	0.191	0.157
-614.288	-116.337	0.244	-0.045
-613.273	-200.000	0.011	-0.064
-612.259	-137.783	0.258	0.029
-611.244	-60.096	-0.060	0.026
-610.230	14.436	-0.183	0.144
-609.215	538.759	0.012	0.028
-608.201	112.888	-0.197	0.240
-607.186	203.375	-0.194	-0.302
-606.171	-200.000	-0.074	0.334
-605.157	800.000	0.027	0.097
-604.142	800.000	-0.003	-0.009
-603.128	147.836	-0.096	0.131
-602.113	-200.000	0.035	-0.582
-601.098	800.000	-0.069	-0.213
-600.084	139.215	-0.294	0.389
-599.069	-94.551	-0.172	0.047
-598.055	-200.000	0.022	-0.414
-597.040	-85.578	0.277	0.086
-596.025	-72.039	0.253	0.094
-595.011	-54.421	0.236	0.107
-593.996	184.176	-0.135	0.201
-592.982	-200.000	0.033	0.190
-591.967	-200.000	0.028	0.298
-590.952	-41.288	0.258	-0.134
-589.938	-72.897	0.220	0.081
-588.923	231.824	0.145	-0.239
-587.909	779.582	0.142	-0.390
-586.894	85.604	0.168	-0.185
-585.879	311.310	-0.040	0.076
-584.865	-159.738	0.206	-0.011
-583.850	800.000	0.042	-0.163
-582.836	230.398	-0.164	-0.269
-581.821	142.408	-0.151	-0.201
-580.806	-153.439	0.228	0.016
-579.792	-200.000	-0.017	0.183
-578.777	-200.000	-0.009	-0.297
-577.763	-122.709	0.079	0.013
-576.748	510.787	-0.183	-0.427
-575.733	-155.062	-0.090	0.006
-574.719	-40.827	-0.163	0.085
-573.704	-200.000	-0.053	0.257
-572.690	83.458	-0.158	0.173
-571.675	314.936	0.097	0.184
-570.661	724.176	0.034	0.090
-569.646	-200.000	-0.029	-0.165
-568.631	-132.258	0.125	-0.016
-567.617	27.673	-0.102	0.087
-566.602	-98.911	-0.101	-0.026
-565.588	334.816	0.096	-0.187
-564.573	24.441	0.149	0.124
-563.558	26.332	-0.091	0.076
-562.544	-127.596	0.375	0.055
-561.529	-92.553	-0.152	0.043
-560.515	29.600	-0.130	0.111
-559.500	46.927	-0.258	-0.241
-558.485	-94.929	-0.238	-0.065
-557.471	19.594	0.344	-0.278
-556.456	800.000	-0.102	0.309
-555.442	-62.092	-0.184	0.077
-554.427	31.804	-0.093	0.080
-553.412	-200.000	0.228	0.000
-552.398	256.846	-0.196	-0.338
-551.383	46.951	0.023	-0.021
-550.369	-75.374	-0.387	0.139
-549.354	-98.659	0.317	-0.081
-548.339	113.063	-0.294	0.357
-547.325	-108.980	-0.032	-0.007
-546.310	-162.286	-0.181	0.009
-545.296	-200.000	-0.009	0.413
-544.281	-200.000	0.009	-0.226
-543.266	-200.000	-0.049	-0.329
-542.252	-200.000	0.053	-0.264
-541.237	313.214	-0.111	-0.210
-540.223	148.991	0.136	0.185
-539.208	237.906	-0.049	-0.081
-538.193	-104.897	-0.328	-0.076
-537.179	168.532	0.197	0.281
-536.164	-154.818	0.275	0.018
-535.150	691.265	-0.060	0.158
-534.135	-57.293	0.030	0.013
-533.121	278.424	-0.019	0.033
-532.106	17.214	-0.203	0.162
-531.091	-52.043	0.180	0.084
-530.077	-27.069	-0.405	0.237
-529.062	20.527	-0.078	-0.063
-528.048	131.194	0.078	0.101
-527.033	128.807	0.084	-0.107
-526.018	-114.105	0.212	-0.041
-525.004	-26.446	-0.237	-0.139
-523.989	-200.000	0.002	0.105
-522.975	325.411	-0.132	0.253
-521.960	112.333	0.075	-0.091
-520.945	-51.120	-0.126	-0.059
-519.931	-99.714	-0.150	0.038
-518.916	-53.408	-0.204	0.094
-517.902	-200.000	0.038	0.227
-516.887	-200.000	0.011	0.168
-515.872	800.000	-0.079	0.253
-514.858	-84.126	0.230	0.073
-513.843	-79.037	-0.442	-0.151
-512.829	770.664	0.049	0.134
-511.814	800.000	-0.027	0.112
-510.799	-139.280	-0.513	0.055
-509.785	194.794	-0.075	-0.113
-508.770	-34.195	-0.140	0.077
-507.756	-200.000	0.014	0.262
-506.741	128.943	0.190	0.243
-505.726	125.187	-0.244	0.308
-504.712	50.237	-0.027	-0.026
-503.697	-123.765	-0.083	0.013
-502.683	-70.960	0.173	-0.065
-501.668	114.174	-0.284	-0.347
-500.653	39.221	-0.240	-0.215
-499.639	46.328	-0.106	0.098
-498.624	-200.000	0.030	-0.220
-497.610	234.756	0.095	-0.157
-496.595	29.755	-0.335	-0.286
-495.581	26.652	-0.106	0.089
-494.566	-200.000	-0.043	-0.246
-493.551	338.403	-0.175	0.342
-492.537	712.110	0.150	0.399
-491.522	40.218	-0.131	0.118
-490.508	240.286	0.045	0.076
-489.493	53.492	0.145	0.139
-488.478	87.345	-0.060	-0.066
-487.464	-200.000	0.004	-0.172
-486.449	109.217	0.084	-0.100
-485.435	-200.000	0.026	0.166
-484.420	242.932	0.107	-0.179
-483.405	-161.797	0.134	-0.007
-482.391	80.341	0.180	0.194
-481.376	800.000	-0.070	-0.252
-480.362	-156.894	0.092	-0.006
-479.347	-173.339	0.127	-0.004
-478.332	-173.283	0.194	-0.006
-477.318	60.176	-0.128	0.127
-476.303	-69.562	0.099	0.038
-475.289	-196.514	-0.153	-0.001
-474.274	800.000	-0.011	0.032
-473.259	800.000	0.054	-0.196
-472.245	270.371	0.189	0.332
-471.230	42.902	-0.152	-0.139
-470.216	-0.648	-0.300	-0.213
-469.201	-168.035	0.175	-0.007
-468.186	-44.266	0.247	0.124
-467.172	-15.225	-0.209	-0.134
-466.157	-200.000	0.144	0.001
-465.143	140.678	-0.014	0.018
-464.128	-200.000	-0.013	0.135
-463.113	-180.437	-0.300	0.006
-462.099	-24.984	-0.227	0.135
-461.084	4.028	-0.076	0.056
-460.070	515.538	-0.051	-0.119
-459.055	-200.000	-0.003	0.290
-458.040	-155.696	0.310	-0.020
-457.026	-200.000	-0.014	-0.075
-456.011	-200.000	0.012	0.129
-454.997	-71.213	0.238	0.089
-453.982	-139.200	0.120	0.013
-452.968	-18.699	0.286	-0.178
-451.953	-20.412	0.257	0.158
-450.938	-159.536	0.078	0.004
-449.924	-28.547	-0.174	-0.100
-448.909	125.617	-0.194	-0.244
-447.895	-60.415	0.274	-0.117
-446.880	-200.000	0.024	0.181
-445.865	5.749	-0.294	-0.218
-444.851	-200.000	0.078	0.355
-443.836	-162.831	-0.085	-0.004
-442.822	123.259	-0.073	0.091
-441.807	117.143	0.217	0.266
-440.792	-200.000	0.005	-0.061
-439.778	-115.364	-0.156	-0.029
-438.763	54.260	0.108	0.104
-437.749	-200.000	0.001	0.040
-436.734	4.822	0.181	-0.133
-435.719	-117.608	-0.184	0.033
-434.705	154.529	-0.166	-0.227
-433.690	-71.215	0.238	0.089
-432.676	800.000	-0.102	0.358
-431.661	253.379	0.069	0.117
-430.646	302.312	-0.135	0.249
-429.632	143.299	0.072	0.095
-428.617	-2.650	0.143	-0.100
-427.603	-200.000	0.041	-0.254
-426.588	800.000	0.045	0.146
-425.573	-150.171	0.151	0.012
-424.559	800.000	-0.062	0.210
-423.544	377.937	0.154	0.315
-422.530	-41.857	0.093	-0.048
-421.515	-200.000	-0.013	-0.112
-420.500	4.300	-0.131	0.096
-419.486	116.934	-0.221	-0.271
-418.471	-62.628	0.291	-0.121
-417.457	-195.538	-0.121	-0.001
-416.442	68.289	0.203	-0.208
-415.428	-200.000	0.002	-0.112
-414.413	167.548	0.068	-0.097
-413.398	800.000	0.047	-0.199
-412.384	-29.950	0.152	0.086
-411.369	143.856	-0.107	0.143
-410.355	-200.000	-0.008	0.109
-409.340	218.266	0.141	-0.225
-408.325	73.859	0.112	-0.117
-407.311	-1.203	-0.210	-0.148
-406.296	22.608	0.078	0.063
-405.282	-15.482	0.285	0.182
-404.267	67.875	0.038	0.038
-403.252	-200.000	0.028	0.168
-402.238	-79.783	0.102	0.034
-401.223	-30.959	-0.135	0.076
-400.209	-96.847	-0.112	0.029
-399.194	427.136	0.150	-0.322
-398.179	-200.000	0.009	-0.075
-397.165	254.802	-0.028	-0.047
-396.150	477.606	0.070	-0.158
-395.136	800.000	-0.080	-0.319
-394.121	-162.975	-0.150	0.007
-393.106	-200.000	0.006	-0.112
-392.092	346.211	-0.058	0.114
-391.077	125.092	0.138	0.174
-390.063	157.815	-0.131	-0.181
-389.048	-35.399	0.100	-0.054
-388.033	-149.108	-0.384	-0.031
-387.019	-116.881	-0.166	0.030
-386.004	-200.000	0.006	0.087
-384.990	301.447	0.162	-0.298
-383.975	-101.507	0.334	-0.081
-382.960	-37.138	0.207	0.110
-381.946	-134.381	0.194	0.024
-380.931	-89.506	0.388	0.114
-379.917	-61.047	0.069	-0.029
-378.902	-13.360	-0.146	-0.094
-377.888	-146.805	-0.159	0.014
-376.873	-200.000	0.014	0.166
-375.858	281.767	0.143	-0.256
-374.844	-118.811	-0.300	0.053
-373.829	98.834	-0.057	0.066
-372.815	800.000	0.035	-0.112
-371.800	-200.000	-0.036	0.198
-370.785	-200.000	-0.056	-0.281
-369.771	117.812	0.177	0.217
-368.756	67.691	-0.124	0.127
-367.742	800.000	0.034	0.146
-366.727	-175.014	-0.181	-0.005
-365.712	-38.573	0.141	0.074
-364.698	-200.000	-0.002	0.358
-363.683	-23.330	0.175	0.105
-362.669	-200.000	0.038	-0.187
-361.654	320.968	-0.126	-0.238
-360.639	-200.000	-0.007	-0.043
-359.625	-138.430	-0.303	-0.033
-358.610	81.012	-0.344	-0.370
-357.596	-82.731	-0.362	-0.117
-356.581	-78.483	-0.314	-0.107
-355.566	95.120	0.102	0.116
-354.552	-74.523	0.337	0.121
-353.537	-54.456	-0.319	0.144
-352.523	149.003	-0.138	-0.186
-351.508	-200.000	-0.011	-0.152
-350.493	290.195	0.065	-0.118
-349.479	-147.243	-0.290	-0.025
-348.464	91.370	-0.089	-0.100
-347.450	482.223	-0.110	-0.248
-346.435	-43.747	0.180	-0.090
-345.420	43.881	-0.170	-0.155
-344.406	800.000	0.041	-0.166
-343.391	216.783	-0.061	0.097
-342.377	140.556	0.078	-0.103
-341.362	-130.034	-0.083	-0.011
-340.348	49.006	-0.252	-0.235
-339.333	-27.615	0.296	-0.171
-338.318	-136.552	-0.113	-0.013
-337.304	46.342	-0.083	-0.076
-336.289	800.000	0.018	-0.073
-335.275	111.831	0.087	-0.104
-334.260	-119.981	-0.288	0.049
-333.245	86.847	0.066	-0.073
-332.231	-47.271	-0.148	0.072
-331.216	-6.277	-0.107	0.073
-330.202	631.512	0.168	0.424
-329.187	-91.209	-0.280	-0.080
-328.172	-17.884	-0.239	-0.149
-327.158	-200.000	0.000	0.022
-326.143	-62.448	0.268	0.111
-325.129	-200.000	0.021	-0.123
-324.114	231.969	-0.123	0.202
-323.099	-200.000	-0.006	-0.055
-322.085	800.000	0.020	0.078
-321.070	59.148	0.133	-0.130
-320.056	-200.000	0.029	-0.151
-319.041	326.309	0.031	-0.058
-318.026	-35.538	0.057	0.031
-317.012	-200.000	-0.012	0.127
-315.997	136.301	0.085	0.110
-314.983	146.490	-0.101	-0.134
-313.968	570.294	-0.109	-0.264
-312.953	-110.224	0.439	-0.091
-311.939	-200.000	0.014	0.149
-310.924	268.409	-0.129	-0.225
-309.910	800.000	-0.078	-0.233
-308.895	-161.951	0.340	0.017
-307.880	-200.000	-0.010	-0.181
-306.866	-200.000	-0.008	-0.151
-305.851	20.942	0.117	-0.094
-304.837	646.031	0.015	0.038
-303.822	-197.336	0.189	-0.001
-302.807	800.000	-0.063	0.245
-301.793	-200.000	0.036	-0.214
-300.778	-131.895	0.396	-0.051
-299.764	78.408	0.139	0.148
-298.749	423.823	-0.194	-0.415
-297.735	276.343	-0.056	-0.099
-296.720	800.000	-0.061	-0.257
-295.705	-143.819	0.125	-0.012
-294.691	106.846	-0.190	-0.224
-293.676	-157.847	-0.214	0.013
-292.662	236.440	-0.219	0.360
-291.647	-55.097	0.072	-0.032
-290.632	123.658	0.199	0.248
-289.618	-200.000	0.042	0.249
-288.603	-58.170	0.084	0.036
-287.589	584.043	-0.167	-0.407
-286.574	201.085	-0.118	-0.181
-285.559	-200.000	-0.065	-0.382
-284.545	-200.000	-0.004	-0.054
-283.530	-144.234	-0.218	0.020
-282.516	21.469	0.038	0.031
-281.501	-200.000	0.005	-0.038
-280.486	-152.795	0.316	-0.022
-279.472	-44.562	-0.202	-0.100
-278.457	181.687	0.065	-0.094
-277.443	-119.530	-0.222	0.038
-276.428	-194.231	-0.074	0.001
-275.413	401.776	0.112	-0.234
-274.399	-124.815	0.143	-0.022
-273.384	-71.723	0.356	-0.132
-272.370	-93.045	0.255	0.071
-271.355	-15.310	0.146	0.093
-270.340	233.176	0.110	0.179
-269.326	473.730	-0.142	0.319
-268.311	-85.628	0.218	0.067
-267.297	373.119	0.104	0.210
-266.282	-57.522	-0.492	-0.214
-265.267	719.098	0.100	0.264
-264.253	-64.261	0.157	0.063
-263.238	-200.000	-0.019	-0.121
-262.224	-118.997	0.198	-0.034
-261.209	-39.315	0.206	0.108
-260.195	288.487	-0.048	0.087
-259.180	492.584	0.074	0.169
-258.165	316.556	-0.043	-0.080
-257.151	-22.697	0.333	0.200
-256.136	-42.484	0.184	0.093
-255.122	163.417	0.151	0.211
-254.107	61.116	0.067	0.066
-253.092	-200.000	-0.016	0.398
-252.078	575.155	-0.090	-0.219
-251.063	-200.000	0.015	0.151
-250.049	9.076	-0.157	0.118
-249.034	797.456	0.085	0.232
-248.019	309.588	0.069	-0.128
-247.005	47.399	-0.078	-0.072
-245.990	-22.487	-0.260	-0.156
-244.976	153.828	0.092	0.126
-243.961	42.143	0.180	0.162
-242.946	-34.291	0.124	0.067
-241.932	98.562	0.236	0.270
-240.917	680.201	0.126	-0.326
-239.903	257.300	0.156	-0.265
-238.888	-67.416	-0.261	0.102
-237.873	8.171	-0.241	0.179
-236.859	-159.652	0.170	-0.009
-235.844	-42.712	0.144	0.073
-234.830	249.055	-0.188	0.316
-233.815	-200.000	-0.017	-0.258
-232.800	161.806	-0.113	0.156
-231.786	451.535	-0.158	-0.345
-230.771	-74.611	-0.081	-0.029
-229.757	-200.000	-0.005	0.112
-228.742	3.295	0.135	0.098
-227.727	169.905	-0.057	0.081
-226.713	-32.140	0.272	0.151
-225.698	49.711	0.071	-0.067
-224.684	357.318	-0.072	-0.143
-223.669	295.875	0.183	0.333
-222.655	306.480	-0.210	0.387
-221.640	-176.181	0.239	-0.006
-220.625	800.000	0.063	0.266
-219.611	425.691	0.072	-0.154
-218.596	495.095	0.159	-0.361
-217.582	45.713	-0.128	0.117
-216.567	80.302	-0.292	0.312
-215.552	48.728	0.242	0.224
-214.538	-97.260	0.239	0.062
-213.523	-85.501	0.233	-0.072
-212.509	50.377	0.177	0.166
-211.494	656.867	-0.075	0.190
-210.479	88.450	-0.106	0.116
-209.465	112.279	-0.065	0.077
-208.450	124.095	0.088	0.109
-207.436	-66.539	0.220	0.086
-206.421	293.934	0.082	0.148
-205.406	0.577	-0.072	0.051
-204.392	127.806	-0.084	0.106
-203.377	-31.588	0.062	0.035
-202.363	27.546	-0.254	0.211
-201.348	-149.943	-0.290	-0.022
-200.333	32.664	-0.156	0.134
-199.319	-44.169	0.177	-0.088
-198.304	-47.202	0.072	0.035
-197.290	275.150	0.143	0.251
-196.275	-200.000	0.001	-0.139
-195.260	240.994	0.028	-0.047
-194.246	800.000	0.023	-0.097
-193.231	-101.752	-0.286	0.069
-192.217	-64.359	-0.196	0.079
-191.202	-153.890	-0.068	0.005
-190.187	-140.036	0.148	-0.015
-189.173	-144.711	-0.275	-0.025
-188.158	800.000	-0.045	-0.137
-187.144	-200.000	0.006	-0.220
-186.129	-0.785	-0.282	-0.198
-185.114	-135.005	-0.247	0.030
-184.100	122.831	0.171	-0.211
-183.085	295.160	-0.210	-0.381
-182.071	-28.320	0.247	-0.141
-181.056	107.564	-0.050	0.059
-180.042	-90.497	0.317	0.091
-179.027	-101.012	0.235	0.057
-178.012	-102.778	-0.309	-0.073
-176.998	-99.873	-0.215	0.053
-175.983	92.632	-0.154	0.172
-174.969	480.683	0.125	-0.280
-173.954	-182.928	-0.159	0.003
-172.939	800.000	-0.054	0.168
-171.925	18.443	-0.289	-0.228
-170.910	-45.422	-0.152	0.075
-169.896	-62.816	0.103	-0.042
-168.881	136.175	0.057	0.074
-167.866	105.779	-0.175	-0.205
-166.852	-89.107	0.277	-0.081
-165.837	-124.090	-0.203	-0.031
-164.823	50.580	-0.090	-0.084
-163.808	669.259	0.084	0.215
-162.793	279.512	0.147	0.260
-161.779	800.000	-0.029	-0.091
-160.764	-32.862	0.180	-0.099
-159.750	-200.000	-0.018	-0.225
-158.735	-200.000	-0.012	0.122
-157.720	246.741	-0.181	-0.301
-156.706	-36.947	0.065	0.035
-155.691	192.090	0.135	-0.200
-154.677	115.554	0.313	-0.378
-153.662	-200.000	-0.060	-0.354
-152.647	92.752	-0.092	-0.103
-151.633	-66.055	0.546	-0.215
-150.618	521.350	0.062	0.143
-149.604	94.898	0.350	0.393
-148.589	-13.474	-0.119	0.076
-147.574	12.142	-0.093	0.071
-146.560	-157.878	-0.231	-0.013
-145.545	354.315	0.057	0.112
-144.531	-20.762	0.261	-0.158
-143.516	800.000	0.036	0.122
-142.502	-31.312	-0.246	0.137
-141.487	7.865	-0.240	-0.178
-140.472	-171.559	-0.104	0.003
-139.458	-129.340	-0.154	0.021
-138.443	214.657	-0.186	0.291
-137.429	22.323	0.101	0.081
-136.414	54.598	-0.303	0.288
-135.399	-200.000	-0.035	0.223
-134.385	-200.000	0.041	-0.255
-133.370	-200.000	-0.011	-0.116
-132.356	509.988	-0.123	0.282
-131.341	-200.000	0.097	0.518
-130.326	-200.000	-0.015	-0.135
-129.312	-136.295	-0.197	0.023
-128.297	-115.193	0.329	-0.062
-127.283	535.567	-0.044	-0.103
-126.268	-149.771	-0.308	0.024
-125.253	-200.000	-0.002	-0.327
-124.239	522.988	0.095	0.219
-123.224	-200.000	0.093	0.442
-122.210	199.561	-0.003	-0.004
-121.195	-91.753	0.220	-0.062
-120.180	-200.000	-0.000	-0.109
-119.166	-156.855	-0.335	0.020
-118.151	-164.426	-0.336	-0.015
-117.137	-70.646	0.248	-0.093
-116.122	10.389	-0.088	0.066
-115.107	480.366	-0.099	-0.223
-114.093	-47.134	0.113	0.054
-113.078	-107.208	0.098	0.021
-112.064	-43.770	0.042	0.021
-111.049	13.424	0.227	-0.173
-110.034	119.974	0.241	0.295
-109.020	-88.753	0.138	0.040
-108.005	-62.113	-0.213	-0.088
-106.991	-200.000	0.043	0.236
-105.976	32.962	-0.031	-0.026
-104.962	-52.106	-0.414	-0.190
-103.947	45.304	0.167	-0.152
-102.932	89.788	-0.285	0.314
-101.918	689.433	-0.093	0.239
-100.903	-200.000	-0.010	0.217
-99.889	110.830	-0.031	-0.037
-98.874	800.000	-0.076	0.253
-97.859	400.732	-0.062	0.129
-96.845	800.000	0.041	-0.153
-95.830	61.358	-0.163	0.160
-94.816	320.306	0.085	0.159
-93.801	436.171	0.160	-0.343
-92.786	457.059	-0.038	-0.083
-91.772	-18.037	-0.132	0.081
-90.757	-84.139	-0.208	0.065
-89.743	-190.494	0.070	0.001
-88.728	370.420	0.084	-0.168
-87.713	-200.000	0.004	0.378
-86.699	636.859	0.119	0.299
-85.684	-119.987	-0.266	-0.045
-84.670	49.063	-0.161	-0.149
-83.655	-200.000	0.014	0.172
-82.640	-58.491	-0.180	0.077
-81.626	196.558	0.157	-0.235
-80.611	204.492	0.192	0.293
-79.597	43.022	0.218	0.196
-78.582	-117.749	-0.113	-0.020
-77.567	-69.491	0.129	0.049
-76.553	274.772	0.198	0.346
-75.538	-33.598	0.286	0.156
-74.524	69.513	0.122	0.124
-73.509	-200.000	0.003	-0.200
-72.494	129.437	-0.095	0.120
-71.480	-176.885	0.292	0.007
-70.465	-20.731	-0.218	0.132
-69.451	160.044	-0.263	-0.360
-68.436	-33.932	-0.025	-0.013
-67.422	-168.346	-0.348	0.013
-66.407	-93.610	-0.276	0.075
-65.392	-200.000	0.024	0.112
-64.378	-88.951	-0.158	0.046
-63.363	-101.016	0.061	-0.015
-62.349	800.000	-0.113	0.430
-61.334	-10.918	-1.179	-0.767
-60.319	791.421	0.298	0.806
-59.305	800.000	-0.318	-1.060
-58.290	150.041	0.686	0.916
-57.276	299.528	0.777	1.409
-56.261	-200.000	94.485	536.175
-55.246	590.443	1377.400	3344.105
-54.232	184.712	2629.415	3836.445
-53.217	114.108	2330.361	2790.378
-52.203	45.428	1942.866	1764.801
-51.188	39.253	1727.846	1521.842
-50.173	36.447	1682.877	1460.990
-49.159	52.398	1730.903	1625.386
-48.144	55.842	1748.962	1668.694
-47.130	38.807	1704.999	1498.078
-46.115	35.963	1689.663	1462.976
-45.100	35.829	1684.241	1457.209
-44.086	35.804	1681.933	1454.964
-43.071	35.711	1679.402	1452.014
-42.057	35.759	1677.028	1450.265
-41.042	35.811	1674.731	1448.610
-40.027	35.736	1673.510	1446.935
-39.013	35.749	1671.306	1445.071
-37.998	35.674	1669.874	1443.214
-36.984	35.756	1668.443	1442.532
-35.969	35.849	1667.425	1442.294
-34.954	35.882	1665.475	1440.795
-33.940	35.893	1663.545	1439.151
-32.925	35.906	1661.731	1437.624
-31.911	35.937	1659.675	1436.013
-30.896	35.956	1658.105	1434.740
-29.881	35.854	1656.694	1432.704
-28.867	35.874	1655.470	1431.739
-27.852	35.854	1653.979	1430.245
-26.838	36.000	1651.934	1429.501
-25.823	35.990	1650.319	1427.971
-24.809	36.014	1648.801	1426.780
-23.794	35.923	1647.950	1425.313
-22.779	36.017	1645.903	1424.179
-21.765	35.937	1644.811	1422.587
-20.750	35.982	1642.889	1421.204
-19.736	35.900	1641.587	1419.416
-18.721	36.081	1639.749	1419.107
-17.706	35.964	1638.166	1416.814
-16.692	35.950	1637.279	1415.888
-15.677	35.967	1635.330	1414.271
-14.663	36.038	1633.766	1413.387
-13.648	35.944	1632.310	1411.378
-12.633	35.920	1631.083	1410.092
-11.619	35.952	1629.593	1408.982
-10.604	35.993	1628.030	1407.869
-9.590	35.875	1627.277	1406.301
-8.575	35.952	1625.476	1405.254
-7.560	36.011	1623.885	1404.247
-6.546	36.030	1623.003	1403.567
-5.531	35.973	1621.896	1402.145
-4.517	35.951	1620.911	1401.072
-3.502	35.959	1619.728	1400.055
-2.487	35.997	1617.889	1398.686
-1.473	35.480	1606.044	1384.663
-0.458	32.076	1584.480	1341.743
0.556	25.339	1582.260	1301.197
1.571	22.520	1605.676	1299.570
2.586	21.875	1620.051	1306.286
3.600	19.896	1567.674	1249.670
4.615	10.920	1453.378	1098.101
5.629	1.717	1383.932	986.142
6.644	-0.214	1374.593	966.971
7.659	-0.367	1372.906	964.712
8.673	-0.360	1371.745	963.860
9.688	-0.479	1370.227	961.945
10.702	-0.674	1366.885	958.261
11.717	2.694	1373.733	984.632
12.731	12.002	1391.326	1057.461
13.746	18.049	1400.951	1103.858
14.761	18.320	1399.840	1104.632
15.775	18.209	1399.714	1103.723
16.790	18.245	1398.854	1103.175
17.804	18.286	1398.487	1103.056
18.819	18.440	1398.549	1103.996
19.834	18.612	1397.246	1103.978
20.848	18.489	1396.840	1102.766
21.863	18.454	1395.767	1101.598
22.877	18.550	1394.688	1101.268
23.892	18.602	1394.123	1101.057
24.907	18.452	1393.338	1099.375
25.921	18.517	1392.362	1098.923
26.936	18.485	1391.558	1097.989
27.950	18.521	1390.590	1097.361
28.965	18.528	1388.839	1095.922
29.980	18.605	1386.987	1094.860
30.994	18.473	1386.131	1093.244
32.009	18.509	1384.420	1092.029
33.023	18.419	1383.659	1090.758
34.038	18.455	1382.554	1090.019
35.053	18.489	1381.817	1089.557
36.067	18.457	1380.415	1088.154
37.082	18.491	1379.274	1087.369
38.096	18.455	1378.152	1086.165
39.111	18.405	1377.614	1085.327
40.126	18.489	1377.056	1085.318
41.140	18.527	1376.125	1084.733
42.155	18.466	1376.040	1084.181
43.169	18.476	1375.757	1083.930
44.184	18.404	1376.072	1083.623
45.199	18.508	1374.865	1083.235
46.213	18.526	1374.243	1082.760
47.228	18.472	1373.470	1081.714
48.242	18.582	1372.090	1081.228
49.257	18.586	1370.350	1079.788
50.271	18.497	1369.404	1078.389
51.286	18.601	1367.624	1077.541
52.301	18.468	1367.057	1076.166
53.315	18.551	1365.966	1075.734
54.330	18.517	1364.879	1074.565
55.344	18.462	1363.653	1073.159
56.359	18.512	1362.635	1072.577
57.374	18.426	1361.998	1071.442
58.388	18.477	1360.932	1070.833
59.403	18.511	1360.939	1070.954
60.417	18.447	1360.146	1069.835
61.432	18.382	1359.216	1068.604
62.447	18.502	1358.123	1068.401
63.461	18.503	1356.826	1067.292
64.476	18.481	1356.445	1066.755
65.490	18.481	1354.473	1065.111
66.505	18.519	1352.845	1063.971
67.520	18.393	1352.128	1062.536
68.534	18.493	1350.514	1061.791
69.549	18.490	1349.508	1060.888
70.563	18.526	1348.405	1060.151
71.578	18.440	1347.396	1058.732
72.593	18.472	1346.974	1058.503
73.607	18.475	1346.499	1058.052
74.622	18.524	1345.447	1057.435
75.636	18.447	1344.739	1056.315
76.651	18.532	1343.825	1056.026
77.666	18.501	1342.876	1054.995
78.680	18.550	1342.418	1054.843
79.695	18.488	1341.760	1053.851
80.709	18.511	1340.596	1052.982
81.724	18.422	1340.232	1052.062
82.739	18.566	1338.433	1051.438
83.753	18.523	1337.714	1050.513
84.768	18.471	1336.563	1049.200
85.782	18.532	1335.220	1048.430
86.797	18.423	1334.486	1047.091
87.812	18.547	1332.941	1046.543
88.826	18.593	1331.533	1045.626
89.841	18.480	1331.184	1044.574
90.855	18.469	1330.245	1043.676
91.870	18.495	1329.273	1042.976
92.884	18.552	1328.257	1042.432
93.899	18.646	1326.856	1041.814
94.914	18.609	1326.296	1041.061
95.928	18.649	1325.045	1040.225
96.943	18.705	1324.439	1039.996
97.957	18.608	1323.807	1038.819
98.972	18.533	1322.926	1037.586
99.987	18.551	1321.812	1036.726
101.001	18.589	1320.665	1035.967
102.016	18.480	1320.045	1034.732
103.030	18.600	1318.772	1034.365
104.045	18.622	1317.799	1033.641
105.060	18.505	1316.720	1032.002
106.074	18.539	1315.572	1031.217
107.089	18.530	1315.053	1030.662
108.103	18.674	1312.854	1029.710
109.118	18.682	1311.712	1028.773
110.133	18.712	1310.603	1027.993
111.147	18.591	1309.698	1026.465
112.162	18.630	1308.151	1025.395
113.176	18.612	1307.248	1024.493
114.191	18.538	1305.967	1022.956
115.206	18.682	1305.149	1023.083
116.220	18.658	1303.673	1021.691
117.235	18.738	1302.446	1021.114
118.249	18.533	1302.187	1019.601
119.264	18.599	1300.708	1018.747
120.279	18.659	1299.858	1018.347
121.293	18.745	1298.951	1018.054
122.308	18.662	1297.504	1016.339
123.322	18.709	1296.571	1015.798
124.337	18.710	1295.557	1014.919
125.352	18.691	1294.749	1014.083
126.366	18.747	1293.281	1013.174
127.381	18.776	1292.221	1012.424
128.395	18.704	1291.772	1011.561
129.410	18.785	1290.013	1010.570
130.424	18.763	1289.632	1010.052
131.439	18.750	1288.609	1009.088
132.454	18.638	1287.859	1007.753
133.468	18.683	1287.220	1007.428
134.483	18.712	1286.756	1007.142
135.497	18.682	1285.304	1005.745
136.512	18.672	1283.872	1004.472
137.527	18.671	1283.083	1003.765
138.541	18.668	1281.503	1002.422
139.556	18.641	1280.023	1001.018
140.570	18.577	1279.308	999.996
141.585	18.720	1277.600	999.405
142.600	18.678	1276.416	998.147
143.614	18.660	1275.622	997.334
144.629	18.630	1274.468	996.168
145.643	18.625	1273.104	994.982
146.658	18.558	1272.608	994.123
147.673	18.592	1271.250	993.169
148.687	18.549	1270.365	992.138
149.702	18.600	1269.353	991.558
150.716	18.545	1267.746	989.899
151.731	18.718	1266.773	990.045
152.746	18.645	1265.680	988.681
153.760	18.667	1264.804	988.040
154.775	18.701	1263.436	987.081
155.789	18.751	1262.323	986.408
156.804	18.662	1261.537	985.194
157.819	18.653	1260.331	984.118
158.833	18.759	1259.736	984.171
159.848	18.703	1259.299	983.424
160.862	18.660	1258.074	982.132
161.877	18.567	1257.324	980.926
162.892	18.669	1256.507	980.788
163.906	18.839	1255.252	980.692
164.921	18.737	1254.742	979.627
165.935	18.705	1254.012	978.787
166.950	18.842	1252.928	978.632
167.964	18.776	1252.635	977.941
168.979	18.792	1252.016	977.462
169.994	18.850	1251.063	976.963
171.008	18.768	1250.430	975.917
172.023	18.726	1249.583	974.929
173.037	18.767	1248.899	974.541
174.052	18.902	1247.951	974.479
175.067	18.705	1247.340	972.800
176.081	18.810	1246.604	972.733
177.096	18.803	1245.799	971.983
178.110	18.846	1244.307	970.976
179.125	18.876	1243.048	970.078
180.140	18.778	1242.344	968.888
181.154	18.691	1241.407	967.581
182.169	18.694	1240.661	966.932
183.183	18.682	1239.178	965.624
184.198	18.774	1238.026	965.155
185.213	18.816	1237.248	964.699
186.227	18.853	1236.169	963.980
187.242	18.819	1235.283	963.015
188.256	18.887	1234.267	962.521
189.271	18.851	1233.839	961.898
190.286	18.845	1233.415	961.447
191.300	18.768	1232.581	960.285
192.315	18.871	1232.069	960.374
193.329	18.801	1231.645	959.566
194.344	18.888	1231.189	959.611
195.359	18.789	1230.509	958.447
196.373	18.881	1229.912	958.409
197.388	18.808	1229.435	957.548
198.402	18.806	1228.831	956.978
199.417	18.853	1228.648	957.014
200.432	18.906	1227.816	956.575
201.446	18.809	1226.994	955.311
202.461	18.882	1225.959	954.829
203.475	18.895	1225.352	954.344
204.490	18.801	1224.080	952.748
205.504	18.770	1223.512	952.048
206.519	18.917	1222.579	952.049
207.534	18.980	1221.180	951.226
208.548	18.833	1220.226	949.585
209.563	18.903	1219.766	949.529
210.577	18.967	1218.762	949.021
211.592	18.828	1218.257	947.773
212.607	18.946	1217.065	947.414
213.621	19.013	1216.511	947.269
214.636	18.942	1215.938	946.346
215.650	19.021	1214.609	945.661
216.665	19.041	1213.221	944.609
217.680	18.952	1212.292	943.311
218.694	18.992	1211.999	943.221
219.709	19.018	1211.223	942.677
220.723	19.017	1210.582	942.089
221.738	18.938	1209.778	940.945
222.753	18.910	1209.257	940.306
223.767	18.971	1208.453	939.929
224.782	19.016	1208.180	939.882
225.796	19.167	1207.274	939.915
226.811	19.095	1207.122	939.324
227.826	19.057	1206.220	938.333
228.840	19.059	1205.572	937.753
229.855	19.088	1204.963	937.358
230.869	19.123	1203.842	936.594
231.884	19.168	1203.162	936.226
232.899	19.142	1202.785	935.707
233.913	19.095	1202.226	934.935
234.928	19.158	1201.908	934.944
235.942	19.117	1200.593	933.618
236.957	19.118	1200.392	933.384
237.972	19.139	1199.468	932.694
238.986	19.081	1199.297	932.167
240.001	19.069	1198.573	931.459
241.015	19.255	1197.299	931.390
242.030	19.338	1196.843	931.402
243.045	19.257	1195.863	930.118
244.059	19.189	1195.203	929.158
245.074	19.276	1194.170	928.739
246.088	19.310	1193.758	928.521
247.103	19.182	1193.129	927.258
248.117	19.210	1192.184	926.596
249.132	19.155	1191.487	925.673
250.147	19.161	1190.964	925.217
251.161	19.230	1189.747	924.559
252.176	19.407	1189.027	924.872
253.190	19.352	1188.454	924.046
254.205	19.226	1188.157	923.061
255.220	19.190	1187.590	922.342
256.234	19.349	1186.944	922.611
257.249	19.332	1186.082	921.771
258.263	19.311	1185.442	921.080
259.278	19.301	1185.064	920.651
260.293	19.359	1184.294	920.282
261.307	19.323	1183.978	919.762
262.322	19.275	1183.201	918.818
263.336	19.303	1182.434	918.293
264.351	19.336	1181.585	917.729
265.366	19.337	1181.299	917.429
266.380	19.356	1180.787	917.050
267.395	19.421	1179.635	916.419
268.409	19.286	1179.076	915.191
269.424	19.389	1178.433	915.155
270.439	19.359	1178.361	914.857
271.453	19.452	1177.507	914.610
272.468	19.430	1176.121	913.334
273.482	19.352	1175.782	912.580
274.497	19.395	1175.988	912.881
275.512	19.429	1175.435	912.551
276.526	19.463	1174.073	911.598
277.541	19.457	1173.199	910.802
278.555	19.456	1172.753	910.375
279.570	19.451	1172.485	910.060
280.585	19.415	1171.315	908.880
281.599	19.504	1170.137	908.353
282.614	19.540	1169.168	907.710
283.628	19.458	1168.375	906.582
284.643	19.543	1167.624	906.367
285.657	19.477	1166.800	905.302
286.672	19.520	1165.806	904.676
287.687	19.469	1164.827	903.564
288.701	19.523	1164.599	903.591
289.716	19.594	1163.844	903.296
290.730	19.595	1162.756	902.381
291.745	19.521	1162.691	901.861
292.760	19.612	1161.573	901.390
293.774	19.579	1161.579	901.144
294.789	19.555	1160.912	900.423
295.803	19.525	1160.297	899.707
296.818	19.582	1159.156	899.040
297.833	19.635	1158.174	898.475
298.847	19.621	1157.961	898.155
299.862	19.601	1157.176	897.364
300.876	19.502	1157.154	896.755
301.891	19.815	1155.643	897.128
302.906	19.613	1155.226	895.679
303.920	19.686	1154.488	895.402
304.935	19.683	1153.809	894.783
305.949	19.761	1153.482	894.852
306.964	19.755	1152.613	894.069
307.979	19.857	1151.755	893.853
308.993	19.689	1151.353	892.594
310.008	19.861	1150.183	892.494
311.022	19.772	1149.739	891.612
312.037	19.746	1149.188	890.969
313.052	19.775	1147.981	890.107
314.066	19.905	1147.041	889.964
315.081	19.724	1146.783	888.757
316.095	19.661	1146.273	887.960
317.110	19.807	1145.620	888.124
318.125	19.792	1144.982	887.478
319.139	19.858	1144.107	887.057
320.154	19.733	1143.404	885.792
321.168	19.848	1142.664	885.732
322.183	19.894	1142.311	885.615
323.197	19.785	1141.848	884.618
324.212	19.856	1141.051	884.284
325.227	19.823	1140.581	883.674
326.241	19.823	1140.026	883.168
327.256	19.862	1139.179	882.631
328.270	19.898	1138.394	882.129
329.285	19.988	1137.110	881.511
330.300	19.957	1136.480	880.790
331.314	19.860	1135.544	879.493
332.329	20.000	1134.837	879.579
333.343	19.980	1134.257	878.949
334.358	19.941	1133.731	878.267
335.373	20.008	1132.971	877.941
336.387	19.990	1131.921	876.957
337.402	19.871	1131.188	875.708
338.416	20.026	1130.608	875.966
339.431	20.021	1130.380	875.687
340.446	20.042	1129.402	874.961
341.460	20.011	1128.944	874.367
342.475	20.092	1127.813	873.825
343.489	20.086	1126.795	872.930
344.504	20.095	1126.031	872.307
345.519	20.027	1125.548	871.512
346.533	20.087	1124.212	870.699
347.548	20.169	1123.566	870.535
348.562	20.174	1123.237	870.227
349.577	20.210	1122.140	869.481
350.592	20.150	1122.031	869.018
351.606	20.189	1120.761	868.153
352.621	20.256	1120.244	868.012
353.635	20.194	1119.904	867.363
354.650	20.202	1119.192	866.775
355.665	20.151	1118.475	865.885
356.679	20.292	1117.689	865.905
357.694	20.240	1117.375	865.328
358.708	20.218	1116.394	864.378
359.723	20.075	1116.039	863.315
360.738	20.172	1115.204	863.077
361.752	20.282	1114.511	863.012
362.767	20.259	1114.154	862.544
363.781	20.237	1113.849	862.125
364.796	20.252	1113.220	861.636
365.810	20.288	1112.410	861.108
366.825	20.351	1111.356	860.529
367.840	20.446	1110.769	860.469
368.854	20.375	1110.588	859.900
369.869	20.336	1109.650	858.906
370.883	20.446	1108.621	858.576
371.898	20.312	1108.353	857.633
372.913	20.341	1108.028	857.446
373.927	20.344	1107.788	857.203
374.942	20.512	1106.892	857.260
375.956	20.404	1106.398	856.270
376.971	20.402	1105.737	855.675
377.986	20.315	1105.458	854.951
379.000	20.502	1104.674	855.191
380.015	20.510	1103.918	854.570
381.029	20.418	1103.658	853.842
382.044	20.487	1102.836	853.469
383.059	20.383	1102.099	852.313
384.073	20.388	1101.410	851.730
385.088	20.491	1100.567	851.505
386.102	20.452	1099.924	850.742
387.117	20.500	1098.970	850.162
388.132	20.460	1097.987	849.131
389.146	20.471	1097.329	848.601
390.161	20.644	1096.458	848.699
391.175	20.606	1095.830	847.949
392.190	20.654	1094.712	847.242
393.205	20.543	1094.375	846.368
394.219	20.482	1093.727	845.497
395.234	20.699	1092.729	845.705
396.248	20.583	1091.843	844.380
397.263	20.679	1090.716	843.899
398.278	20.562	1090.544	843.122
399.292	20.760	1089.600	843.277
400.307	20.673	1089.294	842.544
401.321	20.667	1088.520	841.843
402.336	20.640	1087.728	841.028
403.350	20.645	1087.336	840.671
404.365	20.649	1086.565	840.020
405.380	20.824	1085.335	839.843
406.394	20.764	1084.986	839.209
407.409	20.805	1084.258	838.766
408.423	20.670	1083.740	837.644
409.438	20.812	1082.686	837.438
410.453	20.904	1081.728	837.061
411.467	20.787	1081.529	836.275
412.482	20.793	1081.101	835.897
413.496	20.939	1080.009	835.679
414.511	20.778	1079.108	834.136
415.526	20.841	1078.823	834.144
416.540	20.912	1078.417	834.098
417.555	20.975	1078.063	834.052
418.569	20.818	1077.378	832.698
419.584	20.843	1077.384	832.744
420.599	20.964	1076.506	832.572
421.613	146.806	1395.358	1789.031
422.628	135.525	1441.818	1789.117
