DTS Sentinel unit serial number:	SN413079Multiplexer serial number:	ORYXHardware model number:	OX4-SRSoftware version number:	ORYX F/W v4.00 Oryx Data Collector v3.7.2.0data status	okinstallation	princeton_trtdifferential loss correction	single-endedforward channel	channel 2reverse channel	N/Adate	2019/09/14time	15:27:35forward acquisition time	60.00reverse acquisition time	0.00gamma	496.2192k internal	0.2303k external	0.2303temperature offset calibration	1.0143default loss term (dB/km)	0.3790temperature slope calibration	1.0000multiplexer offset coefficient	1.0000multiplexer slope coefficient	1.0000fibre end	0.00T internal ref (°C)	38.94T ext. ref 1 (°C)	5.14T ext. ref 2 (°C)	33.34length (m)	temperature (°C)	Stokes	anti-Stokes-747.200	163.231	0.088	0.126
-746.185	95.109	0.363	0.421
-745.171	173.898	-0.224	0.329
-744.156	36.515	0.307	0.276
-743.142	-200.000	-0.010	-0.103
-742.127	148.955	0.158	-0.217
-741.112	-90.641	-0.086	0.025
-740.098	-200.000	-0.024	0.246
-739.083	156.609	-0.059	-0.084
-738.069	800.000	-0.115	0.385
-737.054	32.015	-0.188	-0.165
-736.039	800.000	-0.081	-0.230
-735.025	64.119	-0.216	-0.221
-734.010	-130.831	0.098	0.013
-732.996	-200.000	0.030	-0.386
-731.981	-108.937	0.168	0.037
-730.966	66.607	0.191	-0.197
-729.952	-72.731	0.110	-0.041
-728.937	-200.000	-0.007	0.052
-727.923	-36.331	-0.300	0.164
-726.908	480.040	-0.030	0.070
-725.894	-136.530	-0.160	0.019
-724.879	582.556	0.042	-0.106
-723.864	-200.000	0.009	0.042
-722.850	-112.622	-0.362	0.073
-721.835	43.925	-0.189	-0.176
-720.821	-111.668	-0.275	-0.057
-719.806	-138.636	0.155	0.017
-718.791	785.533	0.121	-0.337
-717.777	-200.000	-0.027	-0.231
-716.762	-59.155	0.404	-0.177
-715.748	-200.000	-0.008	-0.361
-714.733	-125.630	-0.063	-0.010
-713.718	370.549	0.098	-0.201
-712.704	-167.288	0.290	-0.012
-711.689	-65.896	0.189	-0.077
-710.675	-95.949	-0.208	0.056
-709.660	-200.000	0.026	0.226
-708.645	297.306	-0.082	0.153
-707.631	800.000	-0.108	-0.336
-706.616	-200.000	0.048	-0.286
-705.602	800.000	0.025	0.074
-704.587	90.202	-0.067	0.077
-703.572	-89.029	-0.233	-0.070
-702.558	127.044	0.143	-0.185
-701.543	-200.000	0.010	0.117
-700.529	300.173	0.147	-0.276
-699.514	800.000	-0.061	0.263
-698.499	10.428	0.021	-0.016
-697.485	-30.495	0.240	0.138
-696.470	-165.900	0.241	0.011
-695.456	37.017	0.105	0.094
-694.441	53.587	-0.105	-0.102
-693.426	213.580	-0.111	0.178
-692.412	394.443	-0.038	-0.081
-691.397	-129.603	-0.251	-0.035
-690.383	-200.000	0.025	-0.279
-689.368	-7.926	0.339	0.233
-688.354	158.165	-0.197	-0.277
-687.339	58.669	-0.112	0.112
-686.324	-62.213	-0.242	-0.102
-685.310	158.628	-0.276	-0.390
-684.295	-200.000	0.074	0.355
-683.281	-42.901	-0.328	-0.169
-682.266	11.032	-0.165	0.128
-681.251	800.000	-0.063	-0.239
-680.237	663.095	-0.086	-0.224
-679.222	183.747	0.096	0.144
-678.208	-71.869	-0.242	0.091
-677.193	800.000	-0.071	-0.271
-676.178	122.371	0.118	-0.149
-675.164	26.765	-0.134	-0.114
-674.149	51.318	-0.034	-0.033
-673.135	260.107	0.103	-0.181
-672.120	800.000	0.144	-0.448
-671.105	-200.000	-0.017	-0.200
-670.091	-200.000	0.041	-0.545
-669.076	162.254	0.041	0.059
-668.062	44.265	0.071	0.067
-667.047	-94.661	0.231	-0.064
-666.032	-51.479	0.067	-0.032
-665.018	230.674	-0.114	0.190
-664.003	22.647	-0.050	0.041
-662.989	546.880	-0.065	0.157
-661.974	697.432	-0.034	-0.091
-660.959	-66.328	-0.147	-0.059
-659.945	800.000	-0.045	0.194
-658.930	-4.097	0.015	0.011
-657.916	94.934	-0.063	0.073
-656.901	-22.153	0.044	-0.027
-655.886	-6.304	-0.094	-0.065
-654.872	-200.000	0.024	-0.297
-653.857	800.000	0.067	0.232
-652.843	-127.722	0.009	-0.001
-651.828	-0.468	-0.184	-0.133
-650.814	14.285	-0.166	0.132
-649.799	95.154	0.048	-0.056
-648.784	439.638	-0.167	-0.369
-647.770	11.462	-0.154	-0.120
-646.755	-83.962	0.269	0.087
-645.741	-52.314	-0.116	-0.055
-644.726	-157.755	-0.201	-0.012
-643.711	656.865	0.098	0.255
-642.697	6.834	0.107	-0.080
-641.682	-10.959	-0.119	-0.080
-640.668	-102.829	-0.087	0.021
-639.653	305.759	-0.217	-0.410
-638.638	382.407	-0.058	-0.121
-637.624	-21.986	0.122	0.075
-636.609	27.115	-0.176	-0.149
-635.595	-71.587	0.217	0.082
-634.580	33.696	0.281	-0.248
-633.565	559.285	-0.107	0.262
-632.551	-200.000	0.016	-0.177
-631.536	104.540	-0.188	0.224
-630.522	197.545	-0.188	-0.291
-629.507	269.950	0.135	-0.241
-628.492	-88.663	0.193	0.058
-627.478	-88.030	-0.217	-0.066
-626.463	-200.000	-0.017	-0.212
-625.449	34.983	-0.106	-0.094
-624.434	-200.000	-0.009	0.199
-623.419	-200.000	-0.055	-0.364
-622.405	347.369	-0.199	-0.397
-621.390	-200.000	0.040	0.372
-620.376	-146.119	0.204	-0.018
-619.361	290.868	0.047	-0.087
-618.346	127.702	-0.154	0.199
-617.332	119.876	0.281	0.352
-616.317	632.028	-0.109	0.280
-615.303	-200.000	-0.126	-0.610
-614.288	20.363	0.079	0.064
-613.273	184.883	0.170	-0.256
-612.259	-200.000	-0.013	0.170
-611.244	-17.609	0.106	0.067
-610.230	800.000	-0.050	-0.182
-609.215	465.989	0.056	-0.128
-608.201	-200.000	-0.029	-0.415
-607.186	-200.000	-0.016	-0.080
-606.171	-117.140	0.061	-0.011
-605.157	137.812	0.101	0.134
-604.142	518.889	0.102	0.241
-603.128	356.489	-0.051	-0.103
-602.113	59.705	-0.296	-0.296
-601.098	-200.000	-0.120	0.535
-600.084	182.347	-0.188	-0.281
-599.069	-61.031	0.239	0.102
-598.055	-57.731	-0.112	-0.049
-597.040	-31.349	0.215	-0.122
-596.025	-7.872	0.138	0.095
-595.011	396.577	-0.145	-0.306
-593.996	4.155	0.131	0.097
-592.982	273.849	0.064	-0.114
-591.967	-110.820	0.393	0.082
-590.952	-78.222	0.291	0.101
-589.938	-200.000	-0.057	0.287
-588.923	800.000	-0.063	-0.224
-587.909	-107.532	-0.223	-0.049
-586.894	22.671	-0.095	-0.078
-585.879	-49.738	0.035	-0.017
-584.865	111.508	-0.054	-0.066
-583.850	800.000	0.075	-0.269
-582.836	258.933	0.150	0.262
-581.821	-101.515	0.318	-0.078
-580.806	-84.854	-0.315	-0.100
-579.792	361.343	-0.204	-0.414
-578.777	323.166	-0.078	0.150
-577.763	159.130	-0.157	0.220
-576.748	-182.243	-0.352	0.007
-575.733	12.903	0.155	0.121
-574.719	800.000	-0.039	0.143
-573.704	-155.689	-0.387	0.025
-572.690	69.208	-0.171	-0.178
-571.675	-95.052	-0.187	0.051
-570.661	-29.488	0.078	-0.045
-569.646	-149.521	0.136	-0.011
-568.631	-50.404	-0.153	-0.073
-567.617	-29.241	0.072	0.042
-566.602	26.938	-0.209	-0.178
-565.588	-117.151	0.237	-0.044
-564.573	-88.534	0.158	-0.048
-563.558	800.000	0.098	0.305
-562.544	177.018	-0.073	-0.108
-561.529	81.078	0.049	-0.053
-560.515	-200.000	-0.020	0.222
-559.500	-65.287	0.082	0.033
-558.485	593.650	-0.101	0.253
-557.471	328.061	-0.070	0.137
-556.456	192.569	0.033	0.051
-555.442	97.199	-0.359	-0.417
-554.427	-119.420	0.161	0.028
-553.412	659.328	0.089	-0.232
-552.398	669.157	-0.084	0.221
-551.383	308.264	0.193	-0.363
-550.369	3.836	0.120	0.089
-549.354	-18.447	0.367	-0.232
-548.339	-138.913	-0.120	0.013
-547.325	-90.235	-0.174	0.051
-546.310	800.000	-0.052	-0.187
-545.296	413.833	0.129	-0.277
-544.281	310.978	-0.113	-0.213
-543.266	-200.000	-0.049	-0.354
-542.252	549.549	0.135	-0.328
-541.237	-114.617	0.239	0.046
-540.223	61.267	-0.245	-0.246
-539.208	800.000	0.029	0.107
-538.193	-190.687	-0.222	-0.002
-537.179	-137.851	-0.149	-0.017
-536.164	-59.409	-0.368	-0.160
-535.150	101.072	0.237	-0.278
-534.135	393.476	0.200	0.421
-533.121	800.000	0.043	0.150
-532.106	71.308	-0.208	0.218
-531.091	-200.000	-0.004	-0.149
-530.077	53.314	0.160	-0.155
-529.062	-109.849	0.250	-0.053
-528.048	-142.954	-0.135	0.013
-527.033	-200.000	-0.002	0.409
-526.018	-65.031	-0.216	-0.088
-525.004	5.546	-0.070	0.052
-523.989	-46.351	0.361	-0.179
-522.975	413.128	-0.026	0.056
-521.960	-200.000	0.003	0.046
-520.945	800.000	0.063	-0.235
-519.931	55.830	-0.138	0.135
-518.916	85.015	0.156	-0.172
-517.902	-30.231	-0.061	-0.035
-516.887	69.171	-0.216	0.225
-515.872	-200.000	-0.080	0.371
-514.858	31.004	0.141	-0.122
-513.843	-200.000	-0.026	-0.493
-512.829	365.442	0.155	-0.315
-511.814	-74.944	-0.581	0.210
-510.799	-91.099	-0.105	-0.030
-509.785	501.865	-0.087	0.203
-508.770	-80.684	-0.130	0.044
-507.756	-200.000	0.115	0.538
-506.741	-87.105	0.182	0.056
-505.726	-134.766	-0.369	0.045
-504.712	-141.911	-0.061	0.006
-503.697	-88.382	-0.189	-0.057
-502.683	-77.879	-0.179	0.062
-501.668	290.828	-0.108	0.198
-500.653	102.759	0.172	0.203
-499.639	-88.093	0.387	0.117
-498.624	-0.883	-0.127	0.091
-497.610	-92.563	0.392	0.111
-496.595	-23.499	0.112	0.068
-495.581	122.799	-0.089	-0.113
-494.566	-31.688	0.090	-0.051
-493.551	383.307	-0.114	0.237
-492.537	-25.519	-0.088	-0.052
-491.522	-200.000	0.014	0.075
-490.508	163.493	0.105	0.149
-489.493	800.000	-0.019	-0.062
-488.478	-200.000	-0.006	-0.149
-487.464	227.539	0.049	-0.080
-486.449	-75.285	-0.133	0.048
-485.435	35.424	0.240	0.213
-484.420	-165.987	0.249	0.011
-483.405	34.284	-0.075	-0.066
-482.391	-44.694	0.291	0.146
-481.376	342.317	0.137	0.270
-480.362	185.632	-0.116	-0.174
-479.347	708.003	0.036	0.096
-478.332	370.678	0.085	-0.173
-477.318	51.822	-0.249	-0.239
-476.303	-35.534	-0.252	-0.138
-475.289	-156.081	0.184	-0.012
-474.274	11.492	0.141	-0.109
-473.259	-27.890	0.121	0.071
-472.245	-200.000	-0.008	-0.135
-471.230	-200.000	-0.011	0.094
-470.216	495.832	0.088	0.203
-469.201	-34.906	0.130	0.072
-468.186	-39.913	-0.253	-0.133
-467.172	-99.172	0.328	0.084
-466.157	800.000	-0.091	-0.311
-465.143	800.000	-0.173	-0.487
-464.128	-33.109	0.057	-0.032
-463.113	674.654	-0.026	-0.068
-462.099	-127.559	-0.061	-0.009
-461.084	-117.756	-0.213	0.039
-460.070	-45.165	0.134	0.067
-459.055	-93.079	0.288	-0.081
-458.040	-172.051	-0.079	0.003
-457.026	-49.335	-0.212	-0.102
-456.011	-110.093	0.316	-0.067
-454.997	-0.879	0.101	0.072
-453.982	11.781	-0.101	-0.078
-452.968	227.942	-0.149	0.244
-451.953	-200.000	0.011	0.146
-450.938	-81.119	-0.131	-0.043
-449.924	-90.657	-0.158	0.046
-448.909	112.978	-0.095	0.116
-447.895	-200.000	0.001	0.250
-446.880	-59.985	-0.133	-0.057
-445.865	43.623	0.257	0.237
-444.851	18.878	0.199	-0.160
-443.836	107.417	-0.206	0.247
-442.822	-104.024	0.138	0.032
-441.807	14.808	0.163	-0.128
-440.792	433.767	-0.057	-0.124
-439.778	-132.701	0.265	0.034
-438.763	800.000	-0.079	0.322
-437.749	-75.937	0.142	0.050
-436.734	-200.000	0.024	0.214
-435.719	204.368	-0.065	-0.101
-434.705	796.583	0.053	0.148
-433.690	615.038	-0.044	-0.112
-432.676	-200.000	0.083	0.421
-431.661	134.071	0.089	0.116
-430.646	800.000	-0.057	-0.171
-429.632	29.509	-0.109	-0.093
-428.617	68.993	0.313	0.324
-427.603	-170.362	-0.112	-0.004
-426.588	-81.885	-0.350	-0.115
-425.573	-51.932	-0.392	-0.183
-424.559	179.526	-0.286	0.421
-423.544	90.282	-0.164	-0.184
-422.530	543.167	-0.006	0.015
-421.515	-200.000	0.003	-0.042
-420.500	12.904	-0.186	0.145
-419.486	-112.773	0.289	0.058
-418.471	-89.957	0.225	0.066
-417.457	255.152	-0.174	-0.300
-416.442	137.433	0.183	0.241
-415.428	774.059	-0.152	-0.416
-414.413	-200.000	0.005	-0.047
-413.398	-170.003	-0.295	0.011
-412.384	-62.835	-0.233	0.097
-411.369	197.063	-0.035	0.053
-410.355	800.000	0.036	-0.121
-409.340	88.635	-0.081	-0.090
-408.325	-200.000	0.497	-0.001
-407.311	-200.000	-0.011	-0.363
-406.296	10.542	-0.099	0.076
-405.282	800.000	-0.072	0.217
-404.267	112.349	-0.103	0.125
-403.252	-10.955	-0.137	0.091
-402.238	-158.060	-0.416	0.025
-401.223	-38.305	-0.115	0.061
-400.209	-53.143	0.065	0.030
-399.194	-19.335	0.326	-0.203
-398.179	-200.000	0.026	-0.177
-397.165	-147.826	0.329	0.028
-396.150	84.984	-0.029	-0.032
-395.136	-76.484	-0.286	-0.101
-394.121	648.605	-0.053	0.135
-393.106	507.427	0.132	-0.308
-392.092	296.825	-0.093	-0.172
-391.077	110.590	-0.121	-0.146
-390.063	-128.463	-0.322	0.046
-389.048	-60.985	-0.368	0.156
-388.033	-35.242	-0.091	0.050
-387.019	33.650	-0.099	0.086
-386.004	-80.111	0.103	0.035
-384.990	512.966	-0.086	0.201
-383.975	-43.315	0.177	0.090
-382.960	363.508	0.120	-0.243
-381.946	-200.000	-0.010	-0.054
-380.931	-200.000	0.027	0.150
-379.917	-200.000	0.098	-0.446
-378.902	148.988	0.241	-0.327
-377.888	0.614	-0.118	0.085
-376.873	800.000	-0.017	-0.063
-375.858	399.977	0.083	-0.176
-374.844	247.752	-0.125	0.213
-373.829	524.276	0.140	0.330
-372.815	116.451	0.087	-0.107
-371.800	-200.000	-0.037	-0.174
-370.785	800.000	-0.087	0.283
-369.771	-172.850	0.404	-0.013
-368.756	800.000	0.045	0.124
-367.742	59.755	0.133	-0.132
-366.727	-127.491	0.257	-0.037
-365.712	63.959	-0.174	-0.176
-364.698	502.122	-0.069	-0.159
-363.683	190.019	-0.178	-0.268
-362.669	-200.000	0.055	0.431
-361.654	29.049	-0.019	-0.016
-360.639	53.295	-0.129	0.124
-359.625	265.797	0.226	0.396
-358.610	-111.090	0.311	0.064
-357.596	506.482	-0.137	-0.319
-356.581	-22.030	0.074	0.045
-355.566	-175.813	0.216	-0.006
-354.552	-1.365	-0.149	-0.105
-353.537	-1.735	-0.189	-0.133
-352.523	358.286	0.076	0.152
-351.508	-62.485	0.185	0.077
-350.493	42.058	-0.105	0.096
-349.479	800.000	0.106	-0.379
-348.464	0.572	-0.234	-0.168
-347.450	-57.236	0.074	-0.033
-346.435	-139.476	-0.179	0.019
-345.420	61.713	0.225	-0.225
-344.406	-86.167	0.186	0.057
-343.391	-200.000	0.017	0.157
-342.377	-200.000	-0.081	0.438
-341.362	68.631	0.215	-0.221
-340.348	-11.012	0.339	0.224
-339.333	-149.777	-0.220	0.017
-338.318	-200.000	0.019	-0.111
-337.304	-118.070	0.418	-0.075
-336.289	346.714	-0.043	0.086
-335.275	32.429	-0.092	0.080
-334.260	353.659	-0.299	0.596
-333.245	800.000	0.018	0.056
-332.231	800.000	-0.070	0.288
-331.216	287.955	-0.076	0.139
-330.202	179.841	-0.178	-0.261
-329.187	-36.296	0.341	0.184
-328.172	-200.000	0.014	0.132
-327.158	800.000	-0.096	0.268
-326.143	-126.310	-0.092	0.014
-325.129	146.651	-0.158	-0.213
-324.114	-58.930	0.218	-0.094
-323.099	-116.557	-0.193	0.036
-322.085	-135.579	0.233	0.028
-321.070	-1.718	0.236	-0.166
-320.056	106.168	0.103	0.123
-319.041	-89.583	0.291	0.086
-318.026	-9.758	0.123	0.082
-317.012	-132.591	0.155	0.020
-315.997	248.568	-0.116	-0.197
-314.983	-200.000	0.010	-0.049
-313.968	-200.000	0.032	0.280
-312.953	-105.313	0.266	0.061
-311.939	-31.427	0.260	0.147
-310.924	-46.159	0.159	0.078
-309.910	-96.335	-0.117	0.031
-308.895	209.552	0.095	-0.150
-307.880	103.297	-0.134	0.158
-306.866	433.758	0.131	-0.285
-305.851	800.000	0.138	-0.420
-304.837	-68.718	-0.200	0.077
-303.822	424.208	0.143	-0.308
-302.807	-70.240	0.376	-0.143
-301.793	-21.813	-0.126	-0.076
-300.778	-60.810	-0.153	-0.065
-299.764	49.640	0.087	-0.082
-298.749	128.271	-0.066	0.084
-297.735	-160.404	-0.093	-0.005
-296.720	-200.000	-0.004	0.245
-295.705	-13.533	-0.140	-0.091
-294.691	-132.735	0.177	-0.023
-293.676	67.345	0.105	0.107
-292.662	-141.905	-0.335	0.033
-291.647	-150.588	-0.199	-0.015
-290.632	-141.892	-0.175	-0.018
-289.618	-109.667	0.205	0.043
-288.603	-179.871	-0.430	-0.009
-287.589	-84.635	0.360	-0.113
-286.574	-6.883	0.231	-0.157
-285.559	58.522	-0.151	0.148
-284.545	497.419	-0.100	-0.230
-283.530	-105.709	-0.165	0.037
-282.516	-49.288	-0.120	-0.057
-281.501	-50.272	-0.129	0.061
-280.486	91.142	0.291	-0.327
-279.472	127.833	-0.150	0.191
-278.457	216.272	-0.093	0.148
-277.443	247.669	0.151	0.256
-276.428	-200.000	0.118	-0.000
-275.413	200.323	-0.137	-0.211
-274.399	800.000	-0.084	-0.324
-273.384	143.996	0.080	0.107
-272.370	150.289	0.128	-0.174
-271.355	-145.174	-0.233	0.021
-270.340	-24.635	0.208	-0.124
-269.326	274.831	-0.143	0.254
-268.311	-84.771	0.136	-0.043
-267.297	-16.873	-0.117	-0.074
-266.282	-44.116	0.030	-0.015
-265.267	399.136	0.111	-0.231
-264.253	-125.116	0.304	-0.047
-263.238	162.249	-0.117	0.163
-262.224	-59.924	-0.060	0.026
-261.209	-200.000	0.076	-0.367
-260.195	-200.000	-0.034	-0.202
-259.180	-200.000	0.033	-0.225
-258.165	567.696	0.082	-0.199
-257.151	29.169	-0.155	0.131
-256.136	-126.754	0.468	0.069
-255.122	800.000	0.036	0.108
-254.107	116.264	0.102	-0.124
-253.092	44.052	-0.150	-0.137
-252.078	-200.000	0.007	0.218
-251.063	440.204	0.082	0.179
-250.049	-111.127	-0.279	-0.057
-249.034	-128.620	-0.404	0.057
-248.019	134.959	0.102	0.133
-247.005	-72.571	0.184	-0.068
-245.990	57.007	0.076	-0.074
-244.976	-11.975	-0.196	0.128
-243.961	-200.000	0.013	0.128
-242.946	186.506	0.190	0.283
-241.932	-45.517	-0.110	0.054
-240.917	-136.396	-0.220	0.026
-239.903	-130.722	-0.060	-0.008
-238.888	-75.724	-0.090	-0.032
-237.873	-200.000	-0.040	-0.225
-236.859	-118.864	-0.079	0.014
-235.844	-40.313	0.091	-0.047
-234.830	5.955	-0.177	0.131
-233.815	-200.000	0.005	0.305
-232.800	163.667	-0.062	0.087
-231.786	800.000	0.087	0.327
-230.771	-81.196	-0.303	0.100
-229.757	70.562	0.048	-0.050
-228.742	-82.381	0.232	0.075
-227.727	51.604	-0.127	0.120
-226.713	50.831	0.093	0.088
-225.698	-58.314	-0.063	-0.027
-224.684	70.498	0.166	0.171
-223.669	-60.742	0.171	0.072
-222.655	-30.628	0.313	0.177
-221.640	-91.074	-0.345	-0.099
-220.625	706.299	0.092	-0.243
-219.611	800.000	-0.069	-0.195
-218.596	168.011	0.061	0.087
-217.582	-110.795	-0.091	0.019
-216.567	92.198	0.235	0.264
-215.552	-200.000	0.020	-0.129
-214.538	486.390	-0.101	-0.229
-213.523	-45.541	0.426	0.210
-212.509	-114.607	-0.061	0.012
-211.494	147.427	0.085	0.114
-210.479	-200.000	0.012	0.128
-209.465	177.030	-0.259	-0.376
-208.450	421.849	0.133	0.284
-207.436	-27.265	0.231	-0.134
-206.421	-110.470	0.074	-0.015
-205.406	-200.000	0.022	-0.373
-204.392	74.122	0.237	0.248
-203.377	-163.543	0.333	-0.016
-202.363	1.290	0.119	-0.085
-201.348	-80.443	-0.333	-0.111
-200.333	-200.000	0.005	0.136
-199.319	-200.000	-0.009	0.234
-198.304	800.000	0.037	0.138
-197.290	-200.000	0.013	0.090
-196.275	12.852	0.252	0.194
-195.260	-144.451	0.191	0.018
-194.246	-200.000	-0.044	-0.227
-193.231	-158.800	0.206	-0.012
-192.217	92.839	-0.113	0.127
-191.202	-13.720	-0.343	0.221
-190.187	-195.426	0.529	0.004
-189.173	211.842	0.006	0.010
-188.158	-200.000	0.004	0.094
-187.144	-77.030	-0.150	0.052
-186.129	101.645	0.100	-0.116
-185.114	0.357	0.281	0.200
-184.100	-135.285	-0.249	0.030
-183.085	-36.238	0.138	0.074
-182.071	-200.000	0.087	0.400
-181.056	130.359	-0.278	-0.355
-180.042	512.608	-0.028	0.065
-179.027	329.034	0.137	0.262
-178.012	-82.288	0.181	-0.059
-176.998	-200.000	0.008	-0.094
-175.983	-128.227	-0.323	-0.046
-174.969	-98.630	-0.141	0.036
-173.954	175.645	-0.128	-0.185
-172.939	-71.256	-0.167	0.062
-171.925	-41.222	-0.069	-0.035
-170.910	527.705	0.105	-0.247
-169.896	-111.008	0.158	-0.032
-168.881	105.637	-0.193	0.227
-167.866	-127.420	-0.139	0.020
-166.852	-7.171	0.109	0.073
-165.837	156.533	0.128	0.176
-164.823	293.056	0.075	0.135
-163.808	800.000	-0.126	0.473
-162.793	447.728	-0.131	0.286
-161.779	-152.992	-0.098	0.007
-160.764	-93.431	-0.352	-0.097
-159.750	800.000	-0.045	0.131
-158.735	-22.351	-0.071	-0.043
-157.720	-69.479	-0.227	0.086
-156.706	771.491	0.019	-0.053
-155.691	-58.893	-0.109	0.047
-154.677	-200.000	0.003	0.053
-153.662	59.869	-0.129	-0.127
-152.647	-142.240	-0.168	0.017
-151.633	-200.000	0.010	-0.225
-150.618	445.850	0.085	-0.186
-149.604	-74.748	0.087	0.031
-148.589	-200.000	0.037	0.326
-147.574	134.141	-0.099	0.127
-146.560	-123.851	-0.135	0.021
-145.545	-72.603	-0.350	-0.128
-144.531	-144.291	0.312	-0.029
-143.516	-120.515	0.241	0.041
-142.502	800.000	0.034	-0.106
-141.487	58.640	-0.067	0.065
-140.472	39.571	-0.102	0.091
-139.458	-0.381	-0.058	-0.041
-138.443	-23.392	0.233	-0.139
-137.429	77.108	0.143	0.151
-136.414	153.185	-0.177	0.241
-135.399	593.931	-0.017	0.043
-134.385	-74.908	-0.174	0.062
-133.370	-44.235	0.400	-0.199
-132.356	800.000	-0.090	-0.280
-131.341	-18.730	-0.136	0.084
-130.326	104.752	-0.128	-0.150
-129.312	-186.457	0.316	0.004
-128.297	-200.000	-0.007	0.220
-127.283	-158.376	-0.305	-0.018
-126.268	799.808	0.107	0.295
-125.253	246.551	-0.106	0.178
-124.239	42.784	-0.326	-0.295
-123.224	-71.201	-0.118	-0.044
-122.210	-13.020	0.078	0.050
-121.195	800.000	0.028	0.080
-120.180	520.957	0.133	-0.310
-119.166	-134.260	0.267	0.033
-118.151	71.104	-0.304	0.314
-117.137	-54.639	-0.185	0.083
-116.122	156.488	-0.034	-0.047
-115.107	156.143	0.198	-0.271
-114.093	-74.719	0.186	0.067
-113.078	-200.000	0.036	-0.185
-112.064	-99.540	0.165	-0.041
-111.049	-93.660	-0.156	0.043
-110.034	-200.000	-0.009	-0.090
-109.020	-200.000	-0.031	0.221
-108.005	-186.982	-0.171	0.002
-106.991	-28.756	0.161	0.092
-105.976	206.510	0.028	0.044
-104.962	564.819	0.047	-0.113
-103.947	320.670	0.154	0.292
-102.932	-200.000	0.042	-0.307
-101.918	177.011	0.082	0.118
-100.903	-200.000	-0.047	-0.385
-99.889	-122.152	0.117	-0.019
-98.874	-200.000	-0.057	-0.294
-97.859	425.735	0.068	0.145
-96.845	205.464	0.097	-0.150
-95.830	55.306	-0.272	-0.261
-94.816	409.509	-0.049	-0.104
-93.801	-200.000	-0.037	0.166
-92.786	363.226	0.219	0.436
-91.772	-200.000	-0.006	0.218
-90.757	730.082	0.065	0.172
-89.743	-56.874	-0.462	0.203
-88.728	259.633	0.104	0.179
-87.713	259.591	0.099	0.170
-86.699	24.795	-0.074	-0.060
-85.684	-200.000	0.018	-0.152
-84.670	177.391	0.139	-0.201
-83.655	364.609	-0.127	0.255
-82.640	-104.907	0.092	0.021
-81.626	137.739	0.150	0.196
-80.611	800.000	0.068	0.211
-79.597	406.334	0.107	0.224
-78.582	-28.119	0.270	-0.155
-77.567	-114.776	0.250	0.047
-76.553	-200.000	-0.046	0.299
-75.538	70.840	0.267	-0.274
-74.524	-200.000	-0.043	0.262
-73.509	-47.920	0.311	0.149
-72.494	55.557	0.146	-0.140
-71.480	800.000	-0.057	0.184
-70.465	-200.000	-0.028	0.134
-69.451	800.000	-0.057	-0.168
-68.436	103.378	-0.133	-0.155
-67.422	252.593	-0.059	0.099
-66.407	-31.794	0.048	0.027
-65.392	-200.000	-0.011	-0.075
-64.378	-156.690	0.253	-0.016
-63.363	-97.708	0.178	-0.046
-62.349	415.265	-0.063	0.132
-61.334	242.720	-0.504	-0.837
-60.319	-200.000	0.085	0.642
-59.305	800.000	-0.270	-0.826
-58.290	34.738	0.780	0.676
-57.276	486.474	0.760	1.719
-56.261	-200.000	82.855	506.009
-55.246	571.949	1365.449	3297.714
-54.232	184.715	2594.646	3813.556
-53.217	116.320	2354.199	2860.370
-52.203	47.934	1965.293	1820.282
-51.188	42.148	1751.479	1576.824
-50.173	39.323	1706.099	1514.203
-49.159	53.943	1745.368	1662.941
-48.144	58.407	1763.267	1714.595
-47.130	41.984	1725.415	1551.840
-46.115	39.080	1710.255	1515.780
-45.100	38.803	1706.220	1510.008
-44.086	38.741	1703.885	1507.410
-43.071	38.760	1700.942	1504.889
-42.057	38.835	1697.824	1502.646
-41.042	38.792	1696.003	1500.643
-40.027	38.763	1694.668	1499.180
-39.013	38.796	1691.920	1496.947
-37.998	38.759	1690.465	1495.318
-36.984	38.808	1688.937	1494.280
-35.969	38.934	1687.687	1494.074
-34.954	39.052	1685.549	1493.016
-33.940	38.941	1684.099	1490.829
-32.925	38.892	1682.318	1488.826
-31.911	38.957	1680.336	1487.504
-30.896	38.970	1678.666	1486.061
-29.881	38.885	1677.074	1483.953
-28.867	38.939	1675.514	1482.920
-27.852	38.947	1674.078	1481.654
-26.838	38.906	1672.737	1480.101
-25.823	38.889	1671.107	1478.467
-24.809	38.938	1669.934	1477.741
-23.794	38.990	1668.349	1476.667
-22.779	38.898	1666.775	1474.529
-21.765	38.989	1665.234	1473.792
-20.750	38.977	1663.179	1471.823
-19.736	39.026	1661.837	1470.940
-18.721	38.945	1660.714	1469.286
-17.706	38.981	1659.072	1468.045
-16.692	38.953	1657.816	1466.666
-15.677	38.974	1656.075	1465.223
-14.663	39.121	1654.079	1464.493
-13.648	38.971	1652.888	1462.264
-12.633	38.964	1651.503	1460.928
-11.619	38.971	1650.293	1459.854
-10.604	39.008	1648.420	1458.413
-9.590	38.909	1647.465	1456.771
-8.575	38.913	1646.206	1455.630
-7.560	39.008	1644.680	1454.928
-6.546	38.984	1643.086	1453.285
-5.531	38.925	1642.217	1452.018
-4.517	38.896	1641.089	1450.753
-3.502	38.891	1639.927	1449.627
-2.487	39.001	1637.735	1448.447
-1.473	38.739	1626.183	1436.252
-0.458	35.718	1604.282	1394.975
0.556	32.636	1602.128	1353.462
1.571	29.559	1625.444	1350.577
2.586	28.436	1637.849	1352.487
3.600	24.527	1583.192	1279.291
4.615	14.745	1468.014	1120.805
5.629	6.534	1398.994	1015.316
6.644	5.183	1389.598	999.759
7.659	5.105	1388.028	998.039
8.673	5.118	1387.035	997.324
9.688	5.154	1385.585	996.423
10.702	5.041	1382.677	993.522
11.717	8.456	1389.900	1020.461
12.731	17.103	1406.243	1088.009
13.746	22.060	1412.875	1124.877
14.761	21.013	1410.070	1115.847
15.775	19.870	1407.373	1106.311
16.790	18.808	1404.067	1096.840
17.804	18.004	1401.976	1089.979
18.819	17.586	1400.998	1086.457
19.834	17.355	1399.293	1083.570
20.848	17.033	1398.461	1080.776
21.863	16.898	1396.959	1078.663
22.877	16.709	1396.216	1076.793
23.892	16.637	1395.069	1075.353
24.907	16.775	1393.512	1074.936
25.921	16.715	1393.461	1074.419
26.936	16.756	1391.912	1073.389
27.950	16.827	1391.198	1073.197
28.965	16.788	1390.443	1072.269
29.980	17.017	1388.990	1072.500
30.994	17.066	1387.663	1071.693
32.009	17.044	1386.629	1070.661
33.023	17.109	1385.295	1069.943
34.038	16.989	1384.284	1068.311
35.053	16.825	1382.914	1066.128
36.067	16.861	1381.728	1065.349
37.082	16.818	1381.279	1064.638
38.096	16.945	1380.313	1064.594
39.111	16.902	1379.405	1063.530
40.126	16.782	1378.455	1061.955
41.140	16.698	1377.508	1060.603
42.155	16.719	1376.878	1060.157
43.169	16.542	1376.605	1058.743
44.184	16.633	1376.060	1058.802
45.199	16.595	1376.161	1058.547
46.213	16.648	1375.531	1058.299
47.228	16.783	1374.986	1058.632
48.242	16.811	1373.725	1057.741
49.257	16.924	1371.892	1056.938
50.271	16.774	1370.469	1054.814
51.286	16.872	1368.818	1054.064
52.301	16.859	1367.862	1053.151
53.315	16.784	1366.802	1051.776
54.330	16.628	1365.729	1049.889
55.344	16.715	1363.789	1048.841
56.359	16.665	1363.062	1047.883
57.374	16.564	1362.446	1046.691
58.388	16.549	1361.594	1045.849
59.403	16.557	1360.937	1045.302
60.417	16.545	1359.728	1044.211
61.432	16.555	1359.219	1043.790
62.447	16.366	1358.416	1041.912
63.461	16.419	1357.112	1041.149
64.476	16.420	1355.707	1039.985
65.490	16.465	1354.343	1039.124
66.505	16.436	1352.848	1037.708
67.520	16.450	1351.549	1036.701
68.534	16.505	1350.661	1036.268
69.549	16.462	1349.841	1035.283
70.563	16.412	1348.561	1033.904
71.578	16.421	1347.373	1032.954
72.593	16.261	1346.541	1031.248
73.607	16.322	1345.375	1030.635
74.622	16.359	1344.975	1030.466
75.636	16.358	1344.266	1029.827
76.651	16.428	1343.586	1029.637
77.666	16.357	1343.490	1029.040
78.680	16.338	1342.650	1028.190
79.695	16.386	1342.208	1028.053
80.709	16.468	1341.244	1027.722
81.724	16.540	1340.369	1027.400
82.739	16.628	1339.553	1027.219
83.753	16.634	1338.772	1026.566
84.768	16.830	1337.857	1026.958
85.782	16.869	1336.295	1025.906
86.797	16.829	1335.365	1024.862
87.812	16.900	1333.187	1023.524
88.826	16.757	1333.149	1022.541
89.841	16.881	1331.745	1022.125
90.855	16.825	1330.639	1020.848
91.870	16.964	1329.860	1020.996
92.884	16.921	1328.889	1019.901
93.899	16.863	1328.244	1018.969
94.914	16.947	1327.522	1018.826
95.928	16.806	1327.171	1017.619
96.943	16.882	1325.382	1016.618
97.957	16.879	1324.318	1015.688
98.972	16.857	1323.436	1014.792
99.987	16.915	1322.271	1014.156
101.001	16.902	1321.080	1013.077
102.016	16.922	1319.893	1012.197
103.030	17.000	1319.084	1011.951
104.045	16.850	1318.726	1010.691
105.060	16.853	1316.849	1009.183
106.074	16.672	1315.725	1007.152
107.089	16.488	1314.850	1005.301
108.103	16.448	1313.105	1003.642
109.118	16.550	1311.748	1003.120
110.133	16.490	1310.437	1001.675
111.147	16.451	1309.115	1000.344
112.162	16.662	1307.661	1000.388
113.176	16.615	1306.821	999.382
114.191	16.587	1306.030	998.526
115.206	16.673	1304.583	997.838
116.220	16.620	1302.892	996.141
117.235	16.615	1301.945	995.303
118.249	16.561	1301.234	994.349
119.264	16.508	1300.149	993.124
120.279	16.510	1298.911	992.100
121.293	16.473	1298.083	991.163
122.308	16.425	1297.097	990.046
123.322	16.352	1296.124	988.783
124.337	16.435	1294.618	988.037
125.352	16.399	1293.412	986.816
126.366	16.434	1292.385	986.150
127.381	16.461	1291.522	985.560
128.395	16.463	1290.404	984.632
129.410	16.466	1289.794	984.094
130.424	16.487	1288.821	983.391
131.439	16.625	1287.786	983.313
132.454	16.594	1287.229	982.620
133.468	16.617	1286.108	981.812
134.483	16.611	1285.726	981.401
135.497	16.572	1284.670	980.284
136.512	16.679	1283.156	979.658
137.527	16.673	1281.988	978.646
138.541	16.685	1280.531	977.519
139.556	16.734	1279.151	976.656
140.570	16.815	1278.348	976.426
141.585	16.845	1277.498	975.861
142.600	16.947	1275.716	975.001
143.614	16.933	1275.011	974.294
144.629	16.994	1274.262	973.989
145.643	16.955	1272.852	972.599
146.658	16.976	1271.195	971.370
147.673	16.819	1269.894	969.393
148.687	16.797	1268.706	968.273
149.702	16.766	1267.355	966.979
150.716	16.696	1266.210	965.623
151.731	16.667	1264.981	964.433
152.746	16.790	1263.490	963.909
153.760	16.790	1262.918	963.388
154.775	16.824	1261.740	962.596
155.789	16.894	1260.602	962.043
156.804	16.976	1259.437	961.531
157.819	16.941	1258.933	960.863
158.833	17.019	1257.751	960.321
159.848	17.090	1256.584	959.746
160.862	17.100	1255.449	958.849
161.877	16.812	1254.657	956.530
162.892	16.787	1253.361	955.318
163.906	16.708	1252.316	953.993
164.921	16.770	1251.659	953.758
165.935	16.798	1250.856	953.221
166.950	16.850	1250.138	952.880
167.964	16.810	1249.628	952.180
168.979	16.879	1248.639	951.732
169.994	16.884	1248.008	951.196
171.008	16.927	1247.003	950.584
172.023	16.978	1246.336	950.277
173.037	17.085	1245.633	950.256
174.052	17.184	1244.132	949.580
175.067	16.957	1243.175	947.501
176.081	16.840	1242.217	946.034
177.096	16.851	1241.450	945.424
178.110	16.879	1240.798	945.002
179.125	16.961	1239.080	944.065
180.140	16.921	1238.159	943.058
181.154	16.986	1236.366	941.973
182.169	17.084	1235.389	941.686
183.183	17.129	1234.224	940.963
184.198	17.194	1233.020	940.321
185.213	17.158	1231.752	939.076
186.227	17.100	1231.161	938.222
187.242	17.277	1229.395	937.767
188.256	17.207	1229.016	937.009
189.271	17.267	1227.811	936.337
190.286	17.126	1226.541	934.513
191.300	16.931	1225.554	932.603
192.315	16.728	1225.378	931.270
193.329	16.748	1224.603	930.711
194.344	16.997	1223.629	931.253
195.359	17.033	1223.161	931.016
196.373	17.084	1222.691	930.854
197.388	17.150	1222.245	930.791
198.402	17.359	1221.762	931.485
199.417	17.356	1221.340	931.064
200.432	17.398	1220.807	930.808
201.446	17.421	1220.023	930.255
202.461	17.481	1219.042	929.750
203.475	17.561	1217.692	929.073
204.490	17.390	1216.302	927.001
205.504	17.499	1214.630	926.236
206.519	17.352	1213.720	924.661
207.534	17.361	1212.744	923.886
208.548	17.317	1211.786	922.833
209.563	17.291	1211.033	922.040
210.577	17.356	1210.370	921.805
211.592	17.443	1209.335	921.407
212.607	17.563	1208.661	921.460
213.621	17.451	1207.979	920.254
214.636	17.506	1206.772	919.548
215.650	17.481	1205.843	918.627
216.665	17.471	1205.354	918.116
217.680	17.609	1204.033	917.773
218.694	17.741	1203.212	917.778
219.709	17.682	1202.647	916.950
220.723	17.601	1201.894	915.857
221.738	17.678	1200.609	915.210
222.753	17.691	1200.498	915.117
223.767	17.669	1199.716	914.320
224.782	17.700	1199.173	913.989
225.796	17.776	1198.432	913.753
226.811	17.822	1197.879	913.496
227.826	17.602	1196.997	911.568
228.840	17.594	1196.491	911.056
229.855	17.726	1195.325	910.796
230.869	17.660	1194.412	909.664
231.884	17.652	1193.634	908.949
232.899	17.634	1193.028	908.314
233.913	17.612	1192.197	907.480
234.928	17.611	1191.080	906.545
235.942	17.491	1190.870	905.665
236.957	17.488	1189.974	904.888
237.972	17.526	1189.029	904.291
238.986	17.586	1188.446	904.089
240.001	17.689	1187.604	903.914
241.015	17.629	1186.787	902.895
242.030	17.800	1185.586	902.808
243.045	17.784	1185.221	902.365
244.059	17.862	1184.396	902.066
245.074	17.784	1184.107	901.356
246.088	17.865	1182.662	900.605
247.103	17.873	1182.206	900.219
248.117	17.996	1181.110	899.952
249.132	18.018	1180.789	899.743
250.147	18.228	1179.811	900.024
251.161	18.310	1179.194	899.906
252.176	18.231	1178.890	899.178
253.190	18.256	1178.127	898.648
254.205	18.439	1177.718	899.218
255.220	18.425	1177.306	898.750
256.234	18.358	1176.483	897.690
257.249	18.391	1175.475	897.015
258.263	18.448	1174.477	896.471
259.278	18.463	1173.832	895.980
260.293	18.362	1173.906	895.427
261.307	18.468	1173.225	895.382
262.322	18.475	1172.510	894.792
263.336	18.562	1172.032	894.803
264.351	18.617	1171.022	894.242
265.366	18.466	1170.752	893.168
266.380	18.528	1169.435	892.409
267.395	18.487	1168.874	891.687
268.409	18.492	1167.788	890.805
269.424	18.441	1167.154	889.977
270.439	18.525	1166.745	890.021
271.453	18.537	1165.867	889.336
272.468	18.356	1165.194	887.806
273.482	18.400	1164.130	887.147
274.497	18.378	1163.905	886.781
275.512	18.374	1163.146	886.104
276.526	18.434	1162.498	885.841
277.541	18.412	1161.612	884.974
278.555	18.535	1160.637	884.789
279.570	18.631	1159.860	884.611
280.585	18.620	1159.395	884.124
281.599	18.753	1158.219	883.833
282.614	18.475	1157.485	881.766
283.628	18.596	1156.212	881.339
284.643	18.617	1154.894	880.364
285.657	18.604	1154.264	879.741
286.672	18.629	1153.520	879.225
287.687	18.576	1152.810	878.330
288.701	18.538	1152.278	877.656
289.716	18.668	1151.276	877.475
290.730	18.685	1150.703	877.052
291.745	18.593	1150.142	876.076
292.760	18.738	1149.098	875.942
293.774	18.690	1148.871	875.447
294.789	18.808	1148.441	875.645
295.803	18.817	1147.554	874.934
296.818	18.819	1146.537	874.093
297.833	18.706	1145.973	873.012
298.847	18.779	1145.056	872.607
299.862	18.762	1144.018	871.652
300.876	18.800	1143.387	871.285
301.891	18.929	1142.646	871.301
302.906	18.879	1142.297	870.703
303.920	18.887	1141.912	870.372
304.935	19.069	1140.909	870.453
305.949	19.143	1140.403	870.363
306.964	19.056	1139.777	869.369
307.979	19.099	1138.962	868.889
308.993	19.001	1138.139	867.689
310.008	19.078	1136.843	867.013
311.022	19.141	1136.635	867.095
312.037	19.074	1135.711	865.973
313.052	19.036	1134.654	864.898
314.066	18.979	1133.297	863.502
315.081	18.823	1133.190	862.564
316.095	18.815	1131.988	861.531
317.110	18.813	1131.677	861.210
318.125	18.999	1130.384	861.081
319.139	18.838	1129.861	859.799
320.154	18.892	1129.522	859.733
321.168	18.852	1128.956	859.028
322.183	18.927	1127.967	858.576
323.197	19.040	1127.273	858.533
324.212	18.981	1126.761	857.773
325.227	19.015	1126.326	857.538
326.241	19.186	1125.283	857.518
327.256	18.986	1124.695	856.000
328.270	18.973	1123.780	855.162
329.285	18.996	1122.976	854.586
330.300	19.074	1121.739	853.959
331.314	19.071	1120.836	853.182
332.329	18.956	1120.100	851.976
333.343	19.053	1119.394	851.844
334.358	19.291	1118.415	852.201
335.373	19.204	1118.006	851.383
336.387	19.304	1116.589	850.724
337.402	19.246	1116.472	850.270
338.416	19.326	1115.918	850.166
339.431	19.243	1115.343	849.245
340.446	19.325	1114.682	849.071
341.460	19.459	1113.886	849.051
342.475	19.568	1112.690	848.597
343.489	19.647	1111.845	848.268
344.504	19.630	1110.795	847.309
345.519	19.544	1110.556	846.627
346.533	19.640	1109.519	846.231
347.548	19.766	1108.396	845.919
348.562	19.741	1107.866	845.319
349.577	19.521	1107.030	843.529
350.592	19.528	1106.108	842.785
351.606	19.386	1105.886	841.851
352.621	19.398	1104.742	840.961
353.635	19.440	1103.709	840.304
354.650	19.361	1103.332	839.562
355.665	19.476	1102.690	839.557
356.679	19.445	1102.163	838.932
357.694	19.570	1101.667	839.087
358.708	19.578	1101.067	838.594
359.723	19.651	1100.331	838.314
360.738	19.678	1099.494	837.732
361.752	19.658	1099.158	837.307
362.767	19.598	1098.716	836.604
363.781	19.584	1097.800	835.765
364.796	19.657	1097.390	835.730
365.810	19.723	1097.229	835.853
366.825	19.901	1096.351	835.970
367.840	19.984	1095.651	835.762
368.854	19.989	1095.040	835.247
369.869	19.931	1094.320	834.345
370.883	19.976	1093.209	833.643
371.898	19.813	1092.701	832.396
372.913	19.877	1091.689	831.859
373.927	19.824	1091.375	831.289
374.942	19.989	1090.818	831.584
375.956	19.909	1090.510	830.892
376.971	20.000	1089.737	830.667
377.986	20.067	1088.988	830.345
379.000	20.155	1088.820	830.564
380.015	20.177	1088.273	830.178
381.029	20.176	1087.428	829.457
382.044	20.194	1086.854	829.031
383.059	20.170	1085.897	828.110
384.073	20.177	1085.235	827.569
385.088	20.291	1083.785	826.933
386.102	20.283	1082.975	826.203
387.117	20.083	1082.327	824.684
388.132	20.148	1080.976	823.888
389.146	19.983	1080.582	822.736
390.161	20.040	1079.641	822.214
391.175	20.067	1078.689	821.546
392.190	20.260	1078.156	821.979
393.205	20.201	1078.045	821.543
394.219	20.331	1076.903	821.216
395.234	20.173	1076.076	819.768
396.248	20.211	1074.852	818.940
397.263	20.191	1073.752	817.938
398.278	20.006	1073.445	816.757
399.292	20.029	1072.808	816.308
400.307	20.007	1071.834	815.391
401.321	20.109	1070.901	815.088
402.336	20.062	1070.506	814.497
403.350	20.125	1069.536	813.981
404.365	20.074	1069.328	813.514
405.380	20.137	1068.391	813.023
406.394	20.176	1067.605	812.537
407.409	20.331	1067.133	812.829
408.423	20.463	1066.111	812.598
409.438	20.465	1065.558	812.112
410.453	20.520	1065.064	811.920
411.467	20.491	1064.356	811.176
412.482	20.601	1063.479	810.948
413.496	20.596	1062.818	810.347
414.511	20.671	1062.383	810.292
415.526	20.667	1061.966	809.886
416.540	20.702	1061.658	809.740
417.555	20.688	1061.098	809.176
418.569	20.646	1060.792	808.679
419.584	20.582	1060.203	807.861
420.599	20.724	1059.276	807.740
421.613	146.656	1395.633	1765.941
422.628	134.792	1444.662	1766.052
