DTS Sentinel unit serial number:	SN413079Multiplexer serial number:	ORYXHardware model number:	OX4-SRSoftware version number:	ORYX F/W v4.00 Oryx Data Collector v3.7.2.0data status	okinstallation	princeton_trtdifferential loss correction	single-endedforward channel	channel 2reverse channel	N/Adate	2019/09/12time	19:13:49forward acquisition time	15.00reverse acquisition time	0.00gamma	496.2192k internal	0.2325k external	0.2325temperature offset calibration	1.0150default loss term (dB/km)	0.3790temperature slope calibration	1.0000multiplexer offset coefficient	1.0000multiplexer slope coefficient	1.0000fibre end	0.00T internal ref (°C)	32.56T ext. ref 1 (°C)	3.23T ext. ref 2 (°C)	27.11length (m)	temperature (°C)	Stokes	anti-Stokes-747.200	-94.393	-1.106	0.305
-746.185	-105.259	0.833	0.192
-745.171	68.386	0.443	-0.458
-744.156	89.719	0.652	-0.734
-743.142	800.000	0.048	0.199
-742.127	-200.000	-0.058	0.885
-741.112	-200.000	-0.198	0.926
-740.098	35.899	0.546	0.485
-739.083	-116.649	-1.161	0.215
-738.069	66.814	0.283	-0.290
-737.054	106.646	0.264	0.316
-736.039	-52.268	-0.281	-0.131
-735.025	191.698	-0.400	-0.608
-734.010	800.000	0.030	-0.102
-732.996	109.586	0.397	0.480
-731.981	-112.768	-0.520	0.104
-730.966	243.581	-0.329	-0.557
-729.952	-45.779	-0.475	0.237
-728.937	-129.429	-0.381	0.053
-727.923	-33.344	-0.252	0.141
-726.908	800.000	-0.176	-0.543
-725.894	-200.000	-0.102	-0.530
-724.879	-165.778	-0.409	-0.018
-723.864	106.997	-0.167	0.200
-722.850	-74.163	-0.849	-0.310
-721.835	-86.916	0.725	0.223
-720.821	-200.000	-0.067	0.392
-719.806	46.593	0.037	0.034
-718.791	-2.010	0.230	-0.163
-717.777	-64.032	0.729	0.300
-716.762	-30.144	-1.246	0.714
-715.748	179.364	-0.336	-0.495
-714.733	-200.000	0.008	-0.056
-713.718	110.231	-0.620	-0.751
-712.704	3.464	-0.609	0.448
-711.689	-33.168	0.171	-0.096
-710.675	-66.748	-0.756	-0.301
-709.660	-98.439	0.612	0.158
-708.645	-75.640	-0.656	0.235
-707.631	-90.281	-0.646	-0.189
-706.616	-200.000	0.006	0.757
-705.602	437.372	0.222	0.486
-704.587	-200.000	-0.011	-0.288
-703.572	-67.305	-0.751	-0.297
-702.558	800.000	-0.173	-0.577
-701.543	-177.903	-0.834	-0.020
-700.529	91.258	-0.279	-0.316
-699.514	-104.955	-0.750	0.173
-698.499	715.532	-0.076	0.203
-697.485	-66.478	-0.418	-0.167
-696.470	84.826	0.287	-0.316
-695.456	161.754	-0.279	0.393
-694.441	-89.414	0.352	-0.104
-693.426	40.532	0.884	-0.802
-692.412	-173.584	-1.032	-0.031
-691.397	-85.050	0.531	-0.168
-690.383	106.089	-0.180	-0.215
-689.368	-200.000	0.070	0.554
-688.354	-28.614	-0.425	-0.246
-687.339	53.638	0.566	0.547
-686.324	9.837	-0.833	-0.636
-685.310	-77.206	0.545	0.191
-684.295	-200.000	0.043	0.381
-683.281	167.538	0.328	0.469
-682.266	-140.038	-0.433	0.046
-681.251	-161.107	0.404	-0.021
-680.237	89.488	-0.607	0.681
-679.222	35.700	0.471	-0.416
-678.208	154.226	0.174	0.241
-677.193	285.756	0.206	-0.373
-676.178	800.000	-0.179	-0.600
-675.164	-112.147	0.633	0.128
-674.149	800.000	0.026	-0.092
-673.135	800.000	-0.125	-0.497
-672.120	-166.022	0.591	0.025
-671.105	-123.805	0.924	-0.147
-670.091	557.111	0.302	-0.733
-669.076	29.177	0.767	-0.655
-668.062	-111.351	-0.753	-0.155
-667.047	-37.982	0.306	-0.163
-666.032	-186.505	0.226	-0.003
-665.018	204.749	0.236	-0.368
-664.003	800.000	0.060	-0.255
-662.989	63.784	-0.077	0.077
-661.974	-153.108	0.479	-0.034
-660.959	-17.144	0.140	0.089
-659.945	-99.906	-0.112	0.028
-658.930	19.881	0.674	-0.546
-657.916	800.000	-0.171	0.558
-656.901	706.630	-0.287	0.762
-655.886	26.875	0.286	0.241
-654.872	159.165	0.343	-0.479
-653.857	774.329	0.280	-0.769
-652.843	-57.398	0.146	-0.064
-651.828	37.727	-0.061	0.055
-650.814	-155.694	0.411	-0.026
-649.799	800.000	-0.149	-0.636
-648.784	18.916	0.716	-0.576
-647.770	-200.000	0.100	-0.517
-646.755	220.301	0.356	0.573
-645.741	-95.109	-0.615	0.167
-644.726	800.000	0.084	-0.326
-643.711	-115.383	-0.131	0.025
-642.697	-92.186	-0.191	0.054
-641.682	-176.335	-0.692	0.018
-640.668	-97.348	0.591	-0.155
-639.653	5.044	0.383	0.283
-638.638	-150.941	0.501	-0.038
-637.624	70.721	0.686	0.714
-636.609	800.000	-0.244	-0.707
-635.595	-121.591	-0.504	-0.084
-634.580	91.192	-0.322	-0.364
-633.565	-97.532	-0.581	-0.152
-632.551	30.274	-0.908	0.779
-631.536	-155.569	1.116	0.072
-630.522	5.611	0.311	-0.231
-629.507	-124.264	0.418	-0.066
-628.492	445.021	0.136	-0.300
-627.478	-99.495	0.285	0.072
-626.463	-31.564	-0.243	0.137
-625.449	65.677	0.284	-0.289
-624.434	-4.529	0.090	0.063
-623.419	-138.878	-0.236	-0.026
-622.405	22.542	-0.419	-0.345
-621.390	-85.684	-0.595	-0.185
-620.376	278.011	-0.609	1.089
-619.361	-157.933	-0.420	-0.025
-618.346	-117.992	-0.257	0.046
-617.332	149.477	-0.308	-0.419
-616.317	800.000	0.170	0.701
-615.303	-42.671	0.114	0.058
-614.288	-72.664	0.423	0.156
-613.273	-200.000	-0.028	0.561
-612.259	-75.231	0.638	0.229
-611.244	26.470	-0.501	0.421
-610.230	422.961	-0.257	0.555
-609.215	310.722	-0.255	0.479
-608.201	145.848	-0.332	0.446
-607.186	-192.182	0.408	0.004
-606.171	399.213	0.381	-0.800
-605.157	-6.576	-0.450	0.308
-604.142	122.332	0.016	-0.020
-603.128	-71.985	0.849	0.317
-602.113	-27.544	0.829	-0.483
-601.098	-94.127	-0.623	-0.171
-600.084	-200.000	0.003	-0.019
-599.069	-110.683	0.910	-0.189
-598.055	-70.148	1.044	-0.398
-597.040	-200.000	0.003	0.251
-596.025	-44.627	-0.355	-0.178
-595.011	800.000	0.095	-0.308
-593.996	746.421	0.166	-0.448
-592.982	-40.973	-0.459	0.238
-591.967	-200.000	-0.006	-0.105
-590.952	-191.962	-0.069	-0.001
-589.938	502.017	0.124	-0.287
-588.923	-108.554	-0.978	0.211
-587.909	-200.000	-0.126	0.590
-586.894	54.258	-0.170	-0.164
-585.879	41.228	-0.518	0.469
-584.865	-102.168	-0.903	-0.218
-583.850	-132.834	0.214	0.027
-582.836	-34.974	0.887	0.485
-581.821	800.000	-0.118	-0.339
-580.806	-119.247	0.368	-0.064
-579.792	15.319	-0.426	0.335
-578.777	-65.620	0.483	-0.194
-577.763	-97.619	-0.412	0.107
-576.748	-159.231	0.674	-0.038
-575.733	-200.000	-0.024	-0.131
-574.719	800.000	-0.051	-0.182
-573.704	-200.000	0.012	-0.109
-572.690	800.000	-0.165	0.670
-571.675	-44.375	0.146	-0.073
-570.661	180.802	0.334	-0.491
-569.646	800.000	0.147	0.410
-568.631	22.445	-0.508	0.417
-567.617	13.074	0.147	-0.114
-566.602	-113.125	-0.700	-0.138
-565.588	-156.068	-0.129	0.008
-564.573	145.522	0.179	0.240
-563.558	45.976	-0.570	-0.529
-562.544	7.788	0.436	0.327
-561.529	-200.000	0.103	0.506
-560.515	19.472	0.655	0.527
-559.500	-62.862	-0.213	-0.088
-558.485	-200.000	0.185	-1.205
-557.471	13.723	-0.038	-0.030
-556.456	18.516	-0.661	0.530
-555.442	6.449	0.288	0.214
-554.427	36.697	-0.522	-0.462
-553.412	376.784	-0.267	-0.546
-552.398	31.522	-0.148	0.127
-551.383	-137.955	0.331	0.037
-550.369	10.354	-0.436	0.332
-549.354	-200.000	0.038	-0.229
-548.339	103.647	0.339	0.398
-547.325	-116.051	0.079	0.015
-546.310	-200.000	-0.148	-0.762
-545.296	-178.042	0.357	0.008
-544.281	54.309	0.380	0.366
-543.266	753.262	-0.142	0.384
-542.252	265.065	-0.365	0.636
-541.237	-102.495	-0.429	0.103
-540.223	800.000	-0.262	-1.107
-539.208	150.979	0.245	0.334
-538.193	-112.040	0.909	-0.183
-537.179	-56.337	0.149	-0.066
-536.164	-200.000	0.029	0.788
-535.150	50.500	0.576	-0.545
-534.135	-37.510	0.071	0.038
-533.121	-31.997	-0.248	-0.139
-532.106	395.297	0.339	-0.708
-531.091	800.000	0.060	0.205
-530.077	-27.785	-0.841	0.488
-529.062	-200.000	-0.027	0.130
-528.048	800.000	-0.078	0.259
-527.033	163.496	0.255	-0.358
-526.018	-129.361	-0.095	0.013
-525.004	-41.315	0.367	0.189
-523.989	-200.000	0.107	-0.620
-522.975	215.224	-0.089	-0.142
-521.960	195.680	-0.196	0.299
-520.945	-139.078	0.336	-0.036
-519.931	427.101	-0.138	0.297
-518.916	-157.856	-0.064	0.004
-517.902	-105.510	-1.173	-0.266
-516.887	42.242	0.093	0.085
-515.872	206.915	0.307	0.478
-514.858	81.172	-0.238	-0.257
-513.843	431.076	0.146	0.316
-512.829	230.440	0.258	0.421
-511.814	155.183	-0.483	0.664
-510.799	455.436	0.379	-0.840
-509.785	-137.207	0.574	-0.065
-508.770	-200.000	0.013	0.921
-507.756	70.721	-0.213	0.220
-506.741	-9.795	0.403	0.268
-505.726	-200.000	0.115	0.850
-504.712	-9.550	0.497	0.331
-503.697	105.257	0.361	-0.426
-502.683	800.000	-0.251	1.044
-501.668	407.621	-0.380	-0.803
-500.653	-34.769	1.054	-0.576
-499.639	699.492	-0.098	0.257
-498.624	-200.000	0.310	-0.001
-497.610	-100.215	-0.628	0.156
-496.595	-200.000	-0.006	-0.374
-495.581	-188.199	0.844	0.011
-494.566	-200.000	0.057	-0.300
-493.551	800.000	0.058	0.188
-492.537	-161.367	-1.053	0.054
-491.522	-126.602	-0.641	0.095
-490.508	126.690	0.555	-0.702
-489.493	-69.800	0.432	0.165
-488.478	-78.876	0.447	0.152
-487.464	-200.000	-0.092	-0.430
-486.449	-139.238	0.716	0.077
-485.435	289.982	0.065	-0.118
-484.420	56.261	-0.709	-0.688
-483.405	97.407	0.233	-0.267
-482.391	-131.596	0.638	0.084
-481.376	218.422	0.287	-0.457
-480.362	173.299	-0.424	-0.610
-479.347	0.008	-0.206	-0.146
-478.332	2.189	-0.133	-0.096
-477.318	-126.784	0.384	0.057
-476.303	142.414	-0.054	0.071
-475.289	187.923	-0.241	0.360
-474.274	-200.000	0.011	0.183
-473.259	568.832	-0.102	0.247
-472.245	-41.346	0.696	-0.358
-471.230	300.616	0.170	0.314
-470.216	-84.522	-0.441	-0.139
-469.201	-133.310	0.271	-0.034
-468.186	58.066	-0.224	-0.219
-467.172	-184.602	-0.361	-0.006
-466.157	347.562	0.261	-0.513
-465.143	581.737	-0.279	0.682
-464.128	-95.501	0.628	0.168
-463.113	-4.412	-0.527	0.363
-462.099	271.260	-0.199	-0.349
-461.084	126.519	0.226	0.286
-460.070	11.780	-0.579	0.444
-459.055	38.865	0.234	0.209
-458.040	46.302	-0.321	0.296
-457.026	204.641	-0.130	0.201
-456.011	-48.455	0.250	-0.120
-454.997	-101.601	-0.712	-0.172
-453.982	800.000	-0.133	0.395
-452.968	66.373	0.406	-0.411
-451.953	459.950	-0.354	-0.787
-450.938	-101.600	0.589	0.143
-449.924	23.265	0.548	-0.449
-448.909	-85.521	-0.944	-0.293
-447.895	-90.796	0.245	-0.070
-446.880	-200.000	0.159	-0.862
-445.865	-77.884	-0.451	-0.155
-444.851	-185.211	0.801	-0.012
-443.836	36.606	-0.374	-0.330
-442.822	337.858	0.120	-0.233
-441.807	-113.406	-0.679	-0.133
-440.792	340.169	-0.098	0.191
-439.778	-162.644	0.912	-0.045
-438.763	-21.044	-0.804	0.491
-437.749	-102.127	-0.527	-0.126
-436.734	-4.216	0.490	0.338
-435.719	-0.345	0.196	-0.139
-434.705	-61.662	0.466	0.195
-433.690	-47.847	0.386	0.186
-432.676	-200.000	0.107	-0.509
-431.661	138.273	-0.698	-0.913
-430.646	26.071	-0.250	-0.208
-429.632	41.792	-0.541	0.489
-428.617	-200.000	0.033	0.701
-427.603	-75.584	0.265	-0.094
-426.588	800.000	-0.151	-0.595
-425.573	-78.689	1.046	-0.356
-424.559	-125.443	-0.182	0.028
-423.544	-64.229	-0.295	0.120
-422.530	-58.714	-0.240	0.104
-421.515	-144.737	0.908	-0.083
-420.500	-200.000	-0.011	0.531
-419.486	-7.759	-0.211	0.142
-418.471	-200.000	-0.076	-0.346
-417.457	100.693	0.053	0.061
-416.442	304.262	-0.207	-0.383
-415.428	-172.327	-0.169	0.005
-414.413	281.801	-0.237	-0.423
-413.398	-104.832	0.436	0.100
-412.384	44.919	0.671	-0.615
-411.369	800.000	-0.144	0.403
-410.355	-99.758	0.389	0.097
-409.340	-77.670	-0.396	-0.136
-408.325	-139.174	-0.963	0.103
-407.311	-200.000	0.009	-0.540
-406.296	-200.000	0.015	-1.104
-405.282	27.996	0.523	0.439
-404.267	-200.000	0.046	0.237
-403.252	-77.821	-0.738	0.254
-402.238	112.000	-0.304	-0.366
-401.223	-200.000	-0.088	0.850
-400.209	-86.358	0.919	0.281
-399.194	-150.782	0.665	0.050
-398.179	443.587	0.137	0.299
-397.165	-200.000	0.045	0.655
-396.150	-85.730	0.619	-0.191
-395.136	-143.273	-0.412	-0.039
-394.121	-154.281	-0.935	-0.063
-393.106	-200.000	0.024	0.996
-392.092	-200.000	0.020	0.351
-391.077	82.477	0.466	0.504
-390.063	-19.640	0.178	0.109
-389.048	-200.000	-0.106	-0.556
-388.033	-107.267	0.261	-0.057
-387.019	-6.532	-0.710	-0.481
-386.004	-128.326	0.743	0.105
-384.990	800.000	-0.089	0.316
-383.975	-5.342	0.118	-0.081
-382.960	-15.888	-0.160	-0.101
-381.946	362.418	0.512	-1.022
-380.931	2.668	0.490	-0.353
-379.917	-88.202	0.470	0.140
-378.902	-144.408	-0.387	-0.036
-377.888	800.000	0.122	0.490
-376.873	-169.309	-0.967	0.035
-375.858	-200.000	0.024	0.420
-374.844	145.030	0.217	0.288
-373.829	341.555	0.301	0.586
-372.815	252.565	-0.353	0.598
-371.800	-32.318	-0.231	-0.128
-370.785	800.000	-0.069	-0.273
-369.771	800.000	-0.242	0.673
-368.756	-147.883	-0.519	0.043
-367.742	392.610	0.183	0.378
-366.727	599.789	-0.384	-0.948
-365.712	32.135	0.259	0.222
-364.698	-200.000	-0.046	0.387
-363.683	-56.307	1.126	0.497
-362.669	4.794	0.156	-0.114
-361.654	-200.000	-0.025	-0.278
-360.639	454.030	0.085	0.187
-359.625	-200.000	-0.108	0.516
-358.610	93.362	-0.007	-0.008
-357.596	-200.000	-0.015	-0.473
-356.581	-200.000	0.133	-0.794
-355.566	436.454	0.163	-0.353
-354.552	517.881	-0.090	0.209
-353.537	-200.000	-0.049	0.463
-352.523	-200.000	0.080	-0.632
-351.508	93.344	-0.813	-0.914
-350.493	800.000	-0.171	-0.531
-349.479	-0.304	0.875	-0.618
-348.464	-50.032	-0.088	-0.041
-347.450	-51.778	-0.368	0.170
-346.435	86.666	0.293	-0.321
-345.420	-146.579	0.480	-0.041
-344.406	-101.456	0.350	0.085
-343.391	800.000	-0.038	-0.114
-342.377	75.015	0.650	0.680
-341.362	-200.000	0.076	0.643
-340.348	-200.000	0.051	-0.261
-339.333	91.565	0.307	0.343
-338.318	2.801	-0.603	-0.435
-337.304	-109.513	0.306	0.064
-336.289	-25.829	-0.441	-0.258
-335.275	92.083	-0.202	0.226
-334.260	-112.366	0.414	-0.082
-333.245	224.855	-0.364	0.584
-332.231	18.900	-0.362	-0.288
-331.216	644.431	0.356	-0.903
-330.202	73.537	-0.280	0.291
-329.187	32.368	0.403	-0.345
-328.172	-59.915	0.321	0.136
-327.158	173.047	0.447	-0.640
-326.143	800.000	0.212	-0.788
-325.129	800.000	-0.116	0.360
-324.114	-200.000	0.186	-0.943
-323.099	-54.715	0.451	0.202
-322.085	86.024	-0.322	0.352
-321.070	83.977	-0.458	-0.497
-320.056	302.784	-0.268	0.492
-319.041	80.967	0.245	0.262
-318.026	107.567	0.385	-0.454
-317.012	-74.732	1.072	-0.382
-315.997	-118.214	-0.593	-0.105
-314.983	-61.132	-0.685	-0.287
-313.968	800.000	-0.143	-0.432
-312.953	-129.106	0.663	0.092
-311.939	800.000	0.136	0.475
-310.924	-200.000	0.029	0.183
-309.910	79.697	0.572	-0.609
-308.895	-90.828	-0.404	-0.115
-307.880	-117.660	-0.530	0.095
-306.866	-200.000	0.084	0.715
-305.851	800.000	-0.085	-0.310
-304.837	571.480	0.235	0.569
-303.822	89.516	0.394	0.435
-302.807	-200.000	0.006	0.244
-301.793	-34.120	0.187	0.102
-300.778	-200.000	0.075	-0.469
-299.764	-184.990	-0.844	0.013
-298.749	11.589	-0.563	-0.428
-297.735	302.353	-0.316	-0.579
-296.720	781.668	0.315	-0.854
-295.705	-7.548	1.370	-0.919
-294.691	95.247	-0.537	-0.606
-293.676	20.865	-0.371	0.298
-292.662	-200.000	0.100	-0.442
-291.647	-18.312	-0.377	-0.234
-290.632	406.005	-0.226	0.472
-289.618	-200.000	0.012	0.222
-288.603	501.029	-0.096	0.219
-287.589	76.827	0.555	-0.584
-286.574	8.640	-0.332	-0.248
-285.559	215.322	0.460	-0.723
-284.545	-139.585	0.270	0.028
-283.530	510.964	0.201	0.464
-282.516	7.209	-0.810	-0.599
-281.501	-120.172	1.185	0.201
-280.486	-38.991	-0.641	0.334
-279.472	-160.990	-0.576	-0.030
-278.457	-110.527	0.721	0.148
-277.443	-100.058	0.346	0.085
-276.428	234.471	0.444	0.725
-275.413	-108.529	-0.922	-0.196
-274.399	-119.245	-0.129	-0.022
-273.384	-19.943	-0.592	-0.362
-272.370	74.617	0.427	0.445
-271.355	800.000	0.028	-0.119
-270.340	-200.000	0.031	-0.867
-269.326	-163.217	-0.223	0.011
-268.311	338.989	0.090	-0.173
-267.297	67.002	-0.656	0.662
-266.282	-194.609	-0.228	-0.002
-265.267	-24.476	-1.015	0.599
-264.253	-24.279	0.607	0.359
-263.238	-72.708	0.409	0.149
-262.224	-200.000	0.012	0.195
-261.209	-71.076	-0.732	-0.272
-260.195	-200.000	-0.016	-0.300
-259.180	-200.000	-0.095	0.495
-258.165	-200.000	-0.551	-0.001
-257.151	225.372	-0.388	0.622
-256.136	-200.000	0.009	-0.260
-255.122	-147.459	0.445	0.037
-254.107	800.000	0.065	0.281
-253.092	-52.205	0.411	0.189
-252.078	-200.000	0.000	-0.219
-251.063	-124.724	0.827	0.127
-250.049	517.763	-0.165	-0.381
-249.034	-200.000	-0.116	0.668
-248.019	-44.144	0.265	-0.132
-247.005	637.521	-0.293	0.738
-245.990	246.512	0.141	-0.236
-244.976	-200.000	-0.009	-0.161
-243.961	-200.000	0.943	-0.002
-242.946	94.614	-0.225	0.253
-241.932	800.000	0.214	0.666
-240.917	-28.344	-0.876	-0.500
-239.903	691.758	0.085	0.221
-238.888	396.654	-0.154	0.319
-237.873	-200.000	0.101	-0.717
-236.859	-63.276	0.339	0.138
-235.844	582.509	0.268	0.650
-234.830	81.297	0.271	0.290
-233.815	-79.954	-0.445	0.148
-232.800	-54.726	-0.148	-0.066
-231.786	9.436	0.477	-0.357
-230.771	475.821	0.298	0.665
-229.757	-17.195	-0.807	0.503
-228.742	156.654	-0.401	0.547
-227.727	92.043	-0.310	-0.345
-226.713	-98.680	-0.207	-0.052
-225.698	-200.000	0.220	-0.959
-224.684	189.075	-0.324	-0.480
-223.669	247.625	0.080	0.134
-222.655	800.000	-0.052	0.193
-221.640	-200.000	0.022	-0.350
-220.625	-130.889	-0.500	-0.066
-219.611	-87.103	-0.874	0.263
-218.596	800.000	-0.171	0.482
-217.582	107.245	-0.208	-0.245
-216.567	-75.335	-0.267	-0.094
-215.552	12.131	-0.053	-0.040
-214.538	75.926	-0.241	-0.252
-213.523	-100.055	-0.742	-0.183
-212.509	27.493	-0.333	-0.277
-211.494	200.801	-0.349	-0.530
-210.479	-200.000	-0.005	-0.931
-209.465	-124.918	-0.261	-0.040
-208.450	32.867	0.149	0.127
-207.436	101.508	0.128	0.147
-206.421	-122.660	0.422	-0.067
-205.406	800.000	0.143	0.447
-204.392	89.697	-0.504	-0.555
-203.377	-20.123	-0.408	0.249
-202.363	-193.602	0.833	-0.007
-201.348	-119.488	0.876	-0.150
-200.333	655.337	-0.136	0.345
-199.319	-48.664	-0.171	0.081
-198.304	244.879	-0.114	0.189
-197.290	-0.011	-0.260	-0.183
-196.275	126.254	0.236	0.295
-195.260	800.000	-0.124	-0.530
-194.246	-49.334	-0.268	-0.126
-193.231	-110.524	0.907	0.186
-192.217	48.767	-0.490	0.454
-191.202	-200.000	0.015	0.238
-190.187	8.734	-0.183	-0.136
-189.173	-108.212	0.035	-0.007
-188.158	-31.150	-0.481	-0.268
-187.144	800.000	0.081	-0.280
-186.129	-129.404	0.414	0.057
-185.114	337.389	-0.271	0.520
-184.100	-200.000	-0.031	1.002
-183.085	615.685	-0.254	-0.627
-182.071	-55.897	0.608	0.268
-181.056	-16.022	0.600	0.376
-180.042	-120.977	-0.338	-0.056
-179.027	-200.000	-0.015	-0.590
-178.012	-50.896	0.533	0.247
-176.998	29.277	-0.342	-0.286
-175.983	-128.153	0.443	0.062
-174.969	24.864	-0.169	0.138
-173.954	-175.859	0.679	-0.018
-172.939	-40.778	0.724	-0.370
-171.925	800.000	0.201	0.601
-170.910	266.170	-0.109	-0.188
-169.896	-70.679	-0.552	0.206
-168.881	46.008	-0.546	0.499
-167.866	359.300	-0.136	0.267
-166.852	18.269	-0.208	-0.163
-165.837	169.446	-0.386	0.544
-164.823	-122.490	-0.722	-0.116
-163.808	-149.619	0.810	0.063
-162.793	423.433	0.313	-0.664
-161.779	800.000	0.155	-0.593
-160.764	-38.573	0.425	0.221
-159.750	273.830	-0.141	-0.247
-158.735	59.530	-0.752	0.731
-157.720	127.209	-0.613	0.766
-156.706	800.000	-0.157	0.456
-155.691	-138.862	-0.200	0.021
-154.677	177.970	-0.385	-0.554
-153.662	57.099	0.218	-0.209
-152.647	41.494	-0.442	0.395
-151.633	-200.000	0.010	0.788
-150.618	9.743	-0.541	0.405
-149.604	21.803	-0.622	0.500
-148.589	-88.205	0.189	0.056
-147.574	800.000	-0.106	-0.411
-146.560	-149.794	-1.910	-0.148
-145.545	800.000	-0.197	-0.554
-144.531	179.864	0.357	-0.515
-143.516	54.351	0.283	0.269
-142.502	800.000	-0.164	-0.682
-141.487	-200.000	-0.030	0.302
-140.472	613.937	0.135	0.333
-139.458	-90.350	-0.346	-0.099
-138.443	-65.762	-0.298	-0.118
-137.429	72.227	0.490	-0.503
-136.414	150.565	0.276	-0.369
-135.399	342.869	0.378	0.729
-134.385	-200.000	-0.081	0.602
-133.370	-179.210	0.571	0.013
-132.356	-89.314	-0.222	-0.065
-131.341	800.000	0.301	1.216
-130.326	499.395	0.028	0.063
-129.312	-21.090	0.709	-0.427
-128.297	60.248	0.320	0.312
-127.283	63.136	0.371	-0.366
-126.268	800.000	-0.206	0.735
-125.253	-200.000	-0.061	0.618
-124.239	-77.743	0.302	0.103
-123.224	40.325	0.398	0.352
-122.210	-92.106	-0.585	-0.163
-121.195	125.256	-0.308	0.383
-120.180	135.398	0.401	-0.514
-119.166	800.000	0.028	-0.092
-118.151	138.622	-0.385	0.498
-117.137	284.751	-0.156	0.276
-116.122	731.659	0.144	0.380
-115.107	800.000	0.193	0.603
-114.093	-200.000	0.038	-0.554
-113.078	-49.736	-0.834	0.390
-112.064	-72.191	0.545	-0.199
-111.049	-25.824	-0.469	-0.272
-110.034	-34.878	-0.567	0.305
-109.020	-50.286	0.144	0.067
-108.005	-200.000	-0.138	-0.753
-106.991	212.970	-0.317	-0.493
-105.976	48.679	-0.468	0.432
-104.962	-200.000	0.027	-0.535
-103.947	800.000	0.211	0.801
-102.932	-85.884	-0.457	0.139
-101.918	-42.954	-0.436	-0.218
-100.903	-106.251	0.885	0.195
-99.889	-34.034	0.607	-0.329
-98.874	800.000	0.093	-0.389
-97.859	100.783	0.415	-0.475
-96.845	800.000	0.321	-0.886
-95.830	-65.094	-0.843	0.334
-94.816	-74.660	1.184	-0.419
-93.801	47.645	0.244	-0.224
-92.786	800.000	0.098	0.390
-91.772	-115.124	-1.081	-0.202
-90.757	-110.065	0.200	-0.041
-89.743	63.005	0.612	0.603
-88.728	-111.382	-0.730	-0.146
-87.713	337.218	0.188	-0.360
-86.699	-91.628	0.434	-0.122
-85.684	31.571	-1.034	0.874
-84.670	111.326	0.535	-0.634
-83.655	221.198	-0.241	0.380
-82.640	-146.172	0.328	-0.028
-81.626	-200.000	-0.093	0.464
-80.611	324.089	-0.474	-0.889
-79.597	-82.077	-0.586	0.188
-78.582	-128.862	0.432	-0.060
-77.567	800.000	0.216	0.631
-76.553	83.229	-0.104	0.111
-75.538	140.077	-0.123	-0.159
-74.524	36.311	0.285	-0.247
-73.509	713.335	0.157	0.410
-72.494	-1.830	0.412	0.285
-71.480	114.052	-0.584	-0.698
-70.465	9.770	0.491	-0.366
-69.451	-119.366	0.809	-0.138
-68.436	-200.000	0.110	-0.528
-67.422	-200.000	-0.068	-0.886
-66.407	16.334	-0.363	0.282
-65.392	-72.259	-0.726	0.265
-64.378	-7.212	0.783	-0.521
-63.363	1.561	-0.773	-0.546
-62.349	-82.642	0.340	-0.108
-61.334	180.462	-0.803	-1.158
-60.319	46.268	0.863	-0.785
-59.305	545.756	0.386	-0.906
-58.290	64.506	0.690	0.683
-57.276	627.234	0.467	1.158
-56.261	-200.000	95.521	590.525
-55.246	683.594	1350.368	3459.372
-54.232	204.396	2522.203	3839.551
-53.217	113.629	2246.013	2679.116
-52.203	42.155	1880.590	1677.079
-51.188	36.080	1672.726	1446.239
-50.173	33.172	1630.379	1388.260
-49.159	51.323	1678.805	1565.020
-48.144	51.992	1695.656	1585.647
-47.130	35.345	1655.040	1425.263
-46.115	32.820	1640.481	1394.036
-45.100	32.543	1635.427	1387.653
-44.086	32.668	1631.584	1385.250
-43.071	32.661	1629.342	1383.239
-42.057	32.369	1628.074	1379.971
-41.042	32.529	1626.360	1379.636
-40.027	32.514	1624.255	1377.683
-39.013	32.556	1621.139	1375.295
-37.998	32.324	1620.720	1373.187
-36.984	32.443	1619.830	1373.250
-35.969	32.423	1618.118	1371.600
-34.954	32.745	1615.652	1371.793
-33.940	32.809	1614.198	1370.973
-32.925	32.374	1614.000	1367.590
-31.911	32.695	1610.493	1366.889
-30.896	32.430	1609.618	1364.173
-29.881	32.708	1607.745	1364.546
-28.867	32.418	1606.445	1361.287
-27.852	32.457	1605.550	1360.757
-26.838	32.509	1602.859	1358.797
-25.823	32.755	1600.824	1358.793
-24.809	32.633	1599.859	1357.037
-23.794	32.617	1599.832	1356.848
-22.779	32.715	1596.718	1354.859
-21.765	32.272	1597.200	1352.030
-20.750	32.439	1594.973	1351.290
-19.736	32.644	1593.204	1351.209
-18.721	32.594	1591.965	1349.740
-17.706	32.563	1590.856	1348.531
-16.692	32.585	1588.729	1346.827
-15.677	32.577	1586.823	1345.099
-14.663	32.796	1585.432	1345.431
-13.648	32.551	1584.579	1342.904
-12.633	32.608	1582.650	1341.627
-11.619	32.664	1581.603	1341.084
-10.604	32.674	1579.422	1339.251
-9.590	32.569	1579.298	1338.349
-8.575	32.643	1578.074	1337.782
-7.560	32.561	1576.249	1335.602
-6.546	32.585	1575.900	1335.423
-5.531	32.425	1574.953	1333.430
-4.517	32.393	1574.047	1332.389
-3.502	32.535	1571.694	1331.347
-2.487	32.680	1570.071	1330.943
-1.473	32.302	1558.333	1318.292
-0.458	29.388	1539.131	1281.778
0.556	27.039	1539.083	1248.592
1.571	24.711	1562.980	1251.589
2.586	23.962	1574.796	1255.656
3.600	21.426	1521.678	1195.878
4.615	12.643	1413.576	1054.777
5.629	4.753	1349.596	958.517
6.644	3.163	1342.298	943.504
7.659	3.088	1341.027	942.064
8.673	3.168	1339.567	941.445
9.688	3.502	1336.905	941.532
10.702	2.870	1335.967	936.934
11.717	6.763	1340.565	963.877
12.731	16.099	1358.901	1034.503
13.746	23.524	1370.185	1088.761
14.761	25.175	1372.145	1100.359
15.775	25.253	1370.634	1099.527
16.790	24.692	1370.429	1095.830
17.804	24.464	1369.136	1093.301
18.819	24.672	1368.640	1094.079
19.834	24.605	1368.054	1093.106
20.848	24.998	1366.710	1094.338
21.863	24.984	1365.999	1093.586
22.877	24.957	1365.364	1092.815
23.892	24.782	1364.872	1091.258
24.907	24.915	1363.843	1091.147
25.921	24.792	1362.855	1089.511
26.936	24.951	1361.913	1089.631
27.950	24.946	1361.537	1089.201
28.965	24.706	1360.957	1087.186
29.980	24.703	1359.751	1086.104
30.994	24.998	1358.311	1086.652
32.009	24.922	1357.203	1085.208
33.023	24.954	1355.699	1084.102
34.038	25.192	1354.319	1084.338
35.053	25.008	1353.406	1082.400
36.067	24.954	1353.075	1081.714
37.082	24.703	1352.629	1079.746
38.096	24.725	1351.443	1078.840
39.111	24.859	1350.811	1079.044
40.126	24.766	1349.382	1077.247
41.140	24.861	1348.997	1077.416
42.155	24.831	1347.515	1075.957
43.169	24.812	1347.856	1076.023
44.184	24.661	1347.866	1075.026
45.199	24.627	1347.333	1074.300
46.213	24.945	1347.099	1075.928
47.228	24.830	1347.451	1075.426
48.242	24.852	1345.708	1074.073
49.257	24.597	1345.354	1072.165
50.271	24.764	1342.222	1070.575
51.286	25.212	1340.596	1071.859
52.301	24.956	1339.900	1069.679
53.315	24.844	1339.452	1068.559
54.330	24.896	1337.818	1067.469
55.344	24.592	1337.974	1065.684
56.359	24.787	1336.484	1065.568
57.374	24.576	1336.164	1063.962
58.388	24.867	1334.406	1064.200
59.403	24.857	1333.247	1063.118
60.417	24.762	1333.536	1062.691
61.432	24.597	1333.618	1061.680
62.447	24.671	1332.573	1061.198
63.461	24.553	1331.522	1059.563
64.476	24.502	1329.127	1057.266
65.490	24.641	1328.416	1057.429
66.505	24.620	1327.403	1056.404
67.520	24.535	1325.680	1054.439
68.534	24.353	1326.471	1053.894
69.549	24.404	1325.286	1053.162
70.563	24.555	1324.142	1053.052
71.578	24.384	1322.785	1050.873
72.593	24.374	1322.433	1050.443
73.607	24.469	1320.444	1049.327
74.622	24.635	1319.005	1049.066
75.636	24.428	1319.751	1048.348
76.651	24.390	1319.157	1047.559
77.666	24.366	1319.180	1047.342
78.680	24.278	1318.148	1045.914
79.695	24.218	1318.555	1045.795
80.709	24.600	1316.637	1046.420
81.724	24.889	1315.912	1047.439
82.739	24.853	1314.473	1045.993
83.753	24.849	1314.119	1045.597
84.768	25.006	1313.827	1046.186
85.782	24.985	1312.588	1044.986
86.797	24.908	1311.962	1043.947
87.812	24.847	1309.214	1041.310
88.826	24.883	1308.038	1040.495
89.841	25.199	1307.165	1041.541
90.855	25.075	1307.290	1040.832
91.870	25.027	1306.931	1040.173
92.884	25.065	1306.530	1039.981
93.899	25.417	1304.864	1040.602
94.914	25.232	1304.615	1039.240
95.928	25.136	1304.025	1038.121
96.943	25.173	1302.496	1037.030
97.957	25.102	1302.136	1036.240
98.972	25.348	1300.340	1036.139
99.987	25.124	1300.305	1034.728
101.001	25.028	1299.017	1033.056
102.016	25.057	1297.006	1031.531
103.030	24.926	1298.056	1031.520
104.045	24.773	1297.345	1029.988
105.060	25.095	1294.811	1029.735
106.074	24.669	1293.605	1026.239
107.089	24.671	1291.852	1024.768
108.103	24.404	1292.184	1023.408
109.118	24.373	1290.185	1021.558
110.133	24.647	1288.389	1021.611
111.147	24.533	1288.218	1020.734
112.162	24.582	1287.582	1020.420
113.176	24.711	1285.209	1019.184
114.191	24.694	1285.292	1019.062
115.206	24.884	1283.998	1019.028
116.220	24.829	1282.894	1017.749
117.235	24.670	1281.345	1015.528
118.249	24.542	1279.871	1013.545
119.264	24.669	1278.858	1013.372
120.279	24.744	1279.299	1014.056
121.293	24.507	1278.044	1011.631
122.308	24.594	1278.049	1012.037
123.322	24.407	1276.910	1009.984
124.337	24.628	1275.483	1010.020
125.352	24.368	1274.881	1007.983
126.366	24.273	1274.518	1007.067
127.381	24.522	1272.774	1007.005
128.395	24.288	1271.796	1004.824
129.410	24.040	1271.650	1003.224
130.424	24.060	1270.553	1002.382
131.439	24.388	1269.636	1003.412
132.454	24.507	1269.847	1004.163
133.468	24.685	1268.285	1003.840
134.483	24.539	1268.932	1003.440
135.497	24.729	1267.919	1003.615
136.512	24.982	1265.008	1002.638
137.527	24.811	1264.187	1000.942
138.541	24.581	1264.154	999.545
139.556	24.639	1262.689	998.623
140.570	24.786	1262.357	999.090
141.585	24.855	1261.474	998.688
142.600	25.036	1260.502	998.837
143.614	25.310	1258.999	999.084
144.629	24.971	1258.365	996.606
145.643	25.036	1256.876	995.704
146.658	24.869	1256.382	994.294
147.673	25.217	1254.496	994.646
148.687	24.920	1254.624	993.013
149.702	24.800	1252.499	990.578
150.716	24.424	1251.759	987.823
151.731	24.269	1251.119	986.374
152.746	24.460	1249.711	986.228
153.760	24.790	1248.869	987.298
154.775	25.057	1247.705	987.763
155.789	24.983	1247.155	986.834
156.804	25.004	1245.959	985.914
157.819	24.559	1245.292	982.852
158.833	24.705	1245.500	983.732
159.848	25.039	1243.577	983.964
160.862	25.022	1243.394	983.636
161.877	24.955	1241.430	981.631
162.892	24.502	1241.792	979.345
163.906	24.430	1239.897	977.368
164.921	24.319	1239.502	976.362
165.935	24.723	1239.633	978.590
166.950	24.872	1237.810	977.880
167.964	24.520	1238.208	976.182
168.979	24.718	1236.306	975.676
169.994	24.731	1235.955	975.388
171.008	24.488	1235.461	973.584
172.023	24.587	1235.232	973.860
173.037	24.863	1234.159	974.428
174.052	24.869	1233.349	973.734
175.067	25.030	1232.395	973.772
176.081	24.751	1230.147	970.393
177.096	24.576	1230.004	969.246
178.110	24.566	1229.321	968.568
179.125	24.641	1228.076	967.908
180.140	24.795	1227.245	968.005
181.154	24.915	1225.897	967.502
182.169	24.880	1225.617	967.005
183.183	24.882	1224.763	966.256
184.198	24.765	1223.609	964.633
185.213	25.071	1222.068	964.976
186.227	25.022	1221.795	964.414
187.242	24.905	1221.191	963.224
188.256	25.003	1220.226	962.900
189.271	25.146	1218.883	962.525
190.286	24.965	1217.973	960.748
191.300	24.680	1217.459	958.734
192.315	24.616	1216.261	957.362
193.329	24.985	1216.397	959.357
194.344	24.665	1215.680	956.997
195.359	24.379	1215.112	954.935
196.373	24.243	1214.824	953.894
197.388	24.044	1214.952	952.846
198.402	24.666	1213.756	955.149
199.417	25.061	1213.597	957.050
200.432	25.295	1212.797	957.582
201.446	24.862	1212.920	955.286
202.461	25.054	1211.746	955.297
203.475	24.940	1211.384	954.319
204.490	24.477	1209.173	950.030
205.504	24.603	1207.690	949.452
206.519	24.845	1206.590	949.785
207.534	24.558	1205.821	947.577
208.548	24.262	1205.483	945.655
209.563	24.381	1204.274	945.254
210.577	24.110	1204.567	943.962
211.592	24.617	1202.860	945.224
212.607	25.030	1202.052	946.690
213.621	24.934	1201.524	945.684
214.636	24.828	1200.963	944.599
215.650	24.854	1199.393	943.415
216.665	24.942	1199.166	943.620
217.680	25.008	1199.233	943.933
218.694	24.956	1197.984	942.593
219.709	25.030	1196.615	941.823
220.723	24.930	1195.784	940.561
221.738	24.971	1194.253	939.491
222.753	24.802	1194.926	939.048
223.767	24.737	1194.312	938.140
224.782	25.107	1193.109	939.054
225.796	25.180	1193.361	939.548
226.811	25.217	1191.860	938.481
227.826	25.093	1190.808	936.917
228.840	25.072	1190.532	936.508
229.855	24.638	1190.912	934.456
230.869	24.716	1188.709	933.053
231.884	24.856	1188.209	933.307
232.899	24.389	1187.833	930.494
233.913	24.526	1187.456	930.832
234.928	24.581	1187.103	930.758
235.942	24.660	1185.868	930.120
236.957	24.607	1184.137	928.404
237.972	23.956	1184.322	925.081
238.986	24.267	1183.586	926.042
240.001	24.679	1182.622	927.341
241.015	24.527	1181.402	925.517
242.030	24.720	1181.171	926.251
243.045	24.959	1180.924	927.216
244.059	24.568	1180.902	925.093
245.074	24.967	1179.161	925.709
246.088	25.161	1178.135	925.825
247.103	24.971	1177.419	924.197
248.117	25.376	1176.340	925.358
249.132	25.311	1176.590	925.137
250.147	25.525	1175.904	925.615
251.161	25.567	1176.342	926.098
252.176	25.546	1176.527	926.051
253.190	25.803	1174.303	925.539
254.205	25.820	1173.022	924.536
255.220	25.926	1172.972	924.961
256.234	25.961	1172.715	924.854
257.249	25.978	1171.672	924.035
258.263	25.571	1171.740	921.921
259.278	25.524	1171.190	921.168
260.293	25.890	1170.135	922.131
261.307	25.925	1168.967	921.304
262.322	25.933	1168.462	920.867
263.336	25.957	1168.175	920.682
264.351	25.649	1167.728	918.677
265.366	25.753	1167.415	918.880
266.380	25.669	1165.964	917.227
267.395	25.543	1166.736	917.109
268.409	25.488	1165.429	915.721
269.424	25.327	1164.691	914.244
270.439	25.507	1165.091	915.391
271.453	25.523	1163.251	913.945
272.468	25.341	1161.860	911.849
273.482	25.042	1161.260	909.778
274.497	25.106	1161.916	910.537
275.512	25.235	1160.697	910.157
276.526	25.356	1159.561	909.796
277.541	25.215	1159.010	908.571
278.555	25.284	1158.284	908.271
279.570	25.762	1157.309	909.840
280.585	25.969	1157.073	910.620
281.599	25.649	1155.841	907.954
282.614	25.156	1156.782	906.127
283.628	25.289	1154.429	904.870
284.643	25.357	1152.830	903.881
285.657	25.452	1152.799	904.256
286.672	25.300	1152.139	902.895
287.687	25.458	1151.036	902.742
288.701	25.536	1150.616	902.726
289.716	25.424	1149.301	901.051
290.730	25.335	1149.019	900.303
291.745	25.216	1147.996	898.827
292.760	25.417	1147.606	899.447
293.774	25.479	1147.644	899.710
294.789	25.543	1145.931	898.607
295.803	25.616	1146.600	899.417
296.818	25.554	1144.981	897.759
297.833	25.447	1144.695	896.917
298.847	25.424	1143.175	895.535
299.862	25.488	1142.878	895.541
300.876	25.356	1142.279	894.338
301.891	25.371	1142.495	894.500
302.906	25.705	1140.448	894.480
303.920	25.860	1141.183	895.747
304.935	25.839	1141.268	895.631
305.949	25.805	1139.663	894.121
306.964	25.843	1139.415	894.035
307.979	25.974	1138.278	893.717
308.993	25.864	1136.490	891.687
310.008	25.999	1136.387	892.196
311.022	25.939	1135.259	890.938
312.037	25.809	1134.553	889.660
313.052	25.522	1134.206	887.895
314.066	25.650	1132.824	887.362
315.081	25.409	1131.592	885.130
316.095	25.366	1129.986	883.588
317.110	25.252	1131.012	883.751
318.125	25.283	1129.882	882.937
319.139	25.251	1129.811	882.650
320.154	25.155	1128.588	881.146
321.168	25.072	1128.358	880.477
322.183	25.173	1127.309	880.075
323.197	25.528	1126.635	881.215
324.212	25.727	1125.976	881.593
325.227	25.555	1125.664	880.430
326.241	25.385	1126.254	879.980
327.256	25.630	1124.394	879.650
328.270	25.471	1122.812	877.557
329.285	25.622	1122.411	877.903
330.300	25.647	1122.073	877.681
331.314	25.547	1121.163	876.407
332.329	25.447	1119.706	874.700
333.343	25.252	1120.235	874.087
334.358	25.747	1118.135	874.778
335.373	25.482	1118.855	873.974
336.387	25.786	1117.873	874.607
337.402	25.716	1117.510	873.908
338.416	25.856	1116.538	873.749
339.431	25.665	1116.554	872.756
340.446	26.076	1114.858	873.344
341.460	26.405	1115.125	875.070
342.475	26.233	1114.266	873.487
343.489	26.037	1113.555	871.902
344.504	25.906	1113.468	871.124
345.519	26.096	1112.665	871.336
346.533	26.220	1111.677	871.085
347.548	26.215	1110.976	870.435
348.562	26.370	1109.499	869.948
349.577	26.009	1108.468	867.324
350.592	25.683	1108.416	865.639
351.606	25.573	1107.524	864.339
352.621	25.475	1106.358	862.880
353.635	25.735	1105.041	863.024
354.650	25.439	1104.627	861.204
355.665	25.600	1103.915	861.345
356.679	25.796	1103.602	861.965
357.694	25.889	1103.260	862.064
358.708	25.884	1102.654	861.492
359.723	25.548	1103.106	860.161
360.738	25.820	1101.260	859.945
361.752	26.016	1100.390	860.124
362.767	25.925	1099.664	859.044
363.781	25.924	1098.201	857.823
364.796	26.039	1098.922	858.858
365.810	26.481	1098.077	860.224
366.825	26.430	1098.191	859.991
367.840	26.498	1097.688	859.848
368.854	26.617	1097.520	860.204
369.869	26.542	1096.677	859.110
370.883	26.236	1094.625	855.977
371.898	26.354	1094.523	856.380
372.913	26.186	1094.154	855.219
373.927	26.238	1093.281	854.708
374.942	26.033	1094.322	854.479
375.956	26.293	1092.884	854.509
376.971	26.200	1092.249	853.495
377.986	26.338	1092.094	853.949
379.000	26.750	1090.786	854.794
380.015	26.762	1090.626	854.653
381.029	26.758	1089.591	853.745
382.044	26.566	1089.052	852.343
383.059	26.437	1088.736	851.413
384.073	26.294	1088.308	850.332
385.088	26.361	1087.206	849.711
386.102	26.585	1085.869	849.642
387.117	26.744	1084.303	849.087
388.132	26.244	1083.627	846.143
389.146	26.010	1082.701	844.246
390.161	26.037	1082.657	844.265
391.175	26.035	1081.468	843.252
392.190	26.281	1080.402	843.495
393.205	26.704	1080.207	845.244
394.219	26.355	1080.640	843.876
395.234	26.314	1079.100	842.410
396.248	26.124	1077.597	840.277
397.263	26.022	1076.105	838.564
398.278	26.056	1076.842	839.224
399.292	25.967	1075.756	837.889
400.307	26.199	1075.268	838.512
401.321	25.884	1073.980	835.975
402.336	25.905	1072.808	835.086
403.350	25.829	1072.444	834.374
404.365	26.114	1072.390	835.579
405.380	26.308	1071.563	835.756
406.394	26.527	1070.436	835.819
407.409	26.262	1070.236	834.362
408.423	26.422	1070.543	835.268
409.438	26.810	1068.781	835.609
410.453	26.657	1068.612	834.694
411.467	26.826	1067.022	834.155
412.482	26.403	1067.005	832.122
413.496	26.894	1066.247	833.715
414.511	26.759	1065.761	832.645
415.526	26.677	1065.896	832.299
416.540	26.713	1065.638	832.186
417.555	26.713	1065.405	831.934
418.569	26.724	1064.417	831.136
419.584	26.731	1063.487	830.371
420.599	26.553	1063.316	829.350
421.613	153.714	1403.792	1792.852
422.628	141.373	1453.405	1792.911
