DTS Sentinel unit serial number:	SN413079Multiplexer serial number:	ORYXHardware model number:	OX4-SRSoftware version number:	ORYX F/W v4.00 Oryx Data Collector v3.7.2.0data status	okinstallation	princeton_trtdifferential loss correction	single-endedforward channel	channel 2reverse channel	N/Adate	2019/09/17time	22:47:35forward acquisition time	60.00reverse acquisition time	0.00gamma	496.2192k internal	0.2345k external	0.2345temperature offset calibration	0.9986default loss term (dB/km)	0.3790temperature slope calibration	1.0000multiplexer offset coefficient	1.0000multiplexer slope coefficient	1.0000fibre end	0.00T internal ref (°C)	25.00T ext. ref 1 (°C)	0.18T ext. ref 2 (°C)	18.24length (m)	temperature (°C)	Stokes	anti-Stokes-747.200	124.088	0.048	0.060
-746.185	31.588	-0.186	0.160
-745.171	-78.362	0.291	-0.100
-744.156	-86.155	-0.273	0.084
-743.142	-33.496	0.147	0.081
-742.127	-62.028	0.227	0.095
-741.112	-200.000	-0.013	-0.064
-740.098	800.000	0.059	0.238
-739.083	37.794	-0.182	-0.162
-738.069	627.535	-0.040	-0.101
-737.054	-26.741	-0.198	0.116
-736.039	147.198	0.103	0.138
-735.025	778.047	0.154	0.422
-734.010	-130.627	-0.493	0.066
-732.996	155.676	-0.098	-0.135
-731.981	800.000	0.039	-0.161
-730.966	-28.349	-0.036	0.021
-729.952	-200.000	0.033	-0.180
-728.937	103.848	-0.020	-0.023
-727.923	320.218	0.074	0.141
-726.908	-102.577	-0.142	0.034
-725.894	73.829	-0.092	-0.096
-724.879	29.229	0.096	-0.082
-723.864	-200.000	0.018	-0.307
-722.850	55.763	0.116	-0.112
-721.835	800.000	-0.093	-0.338
-720.821	800.000	0.070	0.252
-719.806	-122.523	-0.463	0.075
-718.791	-162.835	-0.115	-0.006
-717.777	-102.476	-0.229	-0.055
-716.762	-200.000	0.071	0.679
-715.748	654.882	-0.072	0.185
-714.733	-154.613	0.144	-0.010
-713.718	-96.882	-0.361	0.095
-712.704	492.025	-0.051	-0.117
-711.689	800.000	0.019	0.061
-710.675	800.000	0.064	-0.197
-709.660	-119.897	0.267	0.046
-708.645	172.981	0.022	0.031
-707.631	177.928	0.186	-0.271
-706.616	15.179	0.142	-0.111
-705.602	-12.505	-0.187	0.122
-704.587	-92.464	-0.292	0.082
-703.572	238.728	0.060	-0.100
-702.558	-90.365	-0.155	0.045
-701.543	132.840	-0.208	-0.268
-700.529	79.043	0.117	-0.125
-699.514	-95.311	-0.161	-0.043
-698.499	-73.506	-0.200	-0.073
-697.485	291.796	0.090	0.164
-696.470	107.130	-0.273	-0.325
-695.456	102.129	-0.245	0.286
-694.441	-200.000	0.002	-0.077
-693.426	369.931	-0.063	0.127
-692.412	-200.000	-0.061	0.395
-691.397	-200.000	-0.044	-0.234
-690.383	-40.139	-0.247	-0.129
-689.368	-200.000	-0.078	0.430
-688.354	-22.370	0.139	0.084
-687.339	-13.007	0.200	0.130
-686.324	-50.180	-0.210	-0.099
-685.310	-34.075	-0.272	-0.149
-684.295	127.659	0.088	0.112
-683.281	493.492	-0.081	-0.186
-682.266	114.166	0.070	-0.085
-681.251	-200.000	-0.015	-0.209
-680.237	-44.676	-0.316	-0.157
-679.222	47.643	0.144	0.134
-678.208	189.316	-0.306	0.458
-677.193	322.404	0.067	0.127
-676.178	-200.000	-0.049	0.346
-675.164	11.297	-0.071	-0.054
-674.149	-89.021	-0.152	-0.045
-673.135	40.296	-0.335	0.301
-672.120	0.407	0.227	-0.162
-671.105	-47.221	-0.257	-0.125
-670.091	-91.722	-0.380	-0.108
-669.076	-86.890	0.134	0.041
-668.062	-108.352	-0.218	-0.047
-667.047	-77.289	-0.212	0.074
-666.032	-94.057	0.220	0.060
-665.018	-39.089	0.218	-0.114
-664.003	-200.000	-0.006	-0.174
-662.989	-200.000	0.020	-0.289
-661.974	-30.866	-0.093	-0.053
-660.959	-125.401	0.397	0.060
-659.945	24.110	-0.261	0.215
-658.930	-32.712	0.106	0.059
-657.916	21.716	-0.178	0.145
-656.901	-43.293	-0.232	-0.117
-655.886	53.152	-0.163	-0.155
-654.872	21.726	0.204	0.166
-653.857	800.000	0.113	0.409
-652.843	-83.094	-0.297	0.095
-651.828	330.549	-0.126	-0.242
-650.814	-200.000	0.036	0.272
-649.799	433.729	0.228	0.494
-648.784	-154.549	-0.318	0.021
-647.770	360.821	0.136	-0.271
-646.755	800.000	0.115	-0.331
-645.741	192.992	0.074	0.112
-644.726	-159.895	0.160	-0.009
-643.711	-73.919	-0.220	-0.080
-642.697	114.111	0.287	0.348
-641.682	-153.909	-0.167	-0.011
-640.668	800.000	0.089	-0.348
-639.653	55.091	-0.091	0.088
-638.638	73.626	-0.114	0.119
-637.624	-10.522	-0.084	-0.055
-636.609	99.377	-0.151	-0.174
-635.595	-89.498	-0.194	-0.057
-634.580	800.000	-0.016	-0.057
-633.565	800.000	-0.089	0.249
-632.551	173.413	-0.050	0.072
-631.536	-12.683	0.212	-0.138
-630.522	274.275	-0.105	-0.185
-629.507	800.000	0.050	0.149
-628.492	262.986	0.208	0.359
-627.478	-184.000	-0.192	-0.003
-626.463	-200.000	-0.108	-0.635
-625.449	651.825	-0.066	-0.169
-624.434	-191.244	0.074	-0.001
-623.419	-56.517	-0.122	-0.054
-622.405	800.000	0.083	-0.321
-621.390	-144.473	-0.277	0.026
-620.376	-135.061	-0.272	-0.033
-619.361	-25.317	-0.103	0.061
-618.346	609.734	0.126	0.312
-617.332	74.358	-0.172	-0.180
-616.317	191.888	0.145	0.217
-615.303	252.923	-0.069	0.117
-614.288	800.000	0.132	-0.421
-613.273	25.003	-0.303	0.250
-612.259	-62.052	-0.212	-0.088
-611.244	65.033	0.130	-0.131
-610.230	-7.526	0.227	0.153
-609.215	500.036	0.064	-0.146
-608.201	-92.379	0.104	0.029
-607.186	99.427	0.132	-0.152
-606.171	60.375	-0.030	-0.030
-605.157	-123.364	-0.128	0.020
-604.142	-80.779	-0.310	0.103
-603.128	800.000	0.082	0.283
-602.113	-184.993	-0.302	0.005
-601.098	-51.847	0.072	0.034
-600.084	800.000	-0.080	0.265
-599.069	800.000	0.050	-0.198
-598.055	-200.000	-0.028	0.148
-597.040	179.043	0.041	0.059
-596.025	800.000	0.072	-0.271
-595.011	-64.247	0.029	0.012
-593.996	399.769	0.095	-0.198
-592.982	-80.526	-0.332	0.110
-591.967	20.944	-0.149	0.120
-590.952	-130.917	-0.272	0.036
-589.938	35.165	0.163	0.142
-588.923	-5.294	-0.102	0.070
-587.909	800.000	-0.074	0.312
-586.894	44.716	0.148	0.136
-585.879	451.433	0.103	0.226
-584.865	524.750	-0.090	0.211
-583.850	800.000	0.138	-0.454
-582.836	-200.000	0.034	0.208
-581.821	20.600	-0.153	0.123
-580.806	-36.938	-0.238	-0.127
-579.792	-32.782	-0.127	0.070
-578.777	-2.600	0.073	-0.051
-577.763	14.075	0.178	0.138
-576.748	337.253	0.085	-0.164
-575.733	297.054	0.194	0.354
-574.719	-179.617	0.238	-0.005
-573.704	716.619	-0.032	0.085
-572.690	152.876	0.208	-0.282
-571.675	-50.724	-0.151	0.070
-570.661	-161.402	0.016	-0.001
-569.646	-74.368	0.285	-0.102
-568.631	800.000	-0.018	0.072
-567.617	603.309	0.071	0.177
-566.602	-122.245	-0.236	0.038
-565.588	800.000	-0.082	0.229
-564.573	-138.798	-0.356	0.039
-563.558	800.000	0.049	0.181
-562.544	150.843	-0.096	0.129
-561.529	671.795	0.183	0.470
-560.515	-63.595	0.150	0.061
-559.500	278.103	-0.189	0.334
-558.485	-200.000	0.004	-0.224
-557.471	-38.930	0.061	0.032
-556.456	20.883	0.294	-0.236
-555.442	313.219	0.071	-0.132
-554.427	-81.446	0.271	-0.089
-553.412	-106.908	0.321	0.071
-552.398	800.000	0.056	-0.193
-551.383	-74.531	-0.291	0.104
-550.369	-98.533	0.272	0.069
-549.354	-42.439	-0.147	0.074
-548.339	-105.489	0.270	-0.061
-547.325	800.000	0.129	-0.451
-546.310	-139.379	-0.279	-0.030
-545.296	-103.670	0.380	-0.088
-544.281	-50.817	-0.256	0.120
-543.266	-200.000	-0.017	-0.235
-542.252	199.573	-0.034	0.051
-541.237	-99.668	-0.242	0.060
-540.223	800.000	-0.026	-0.078
-539.208	-130.654	-0.299	0.040
-538.193	11.308	-0.365	0.277
-537.179	14.518	-0.183	-0.142
-536.164	-145.966	0.151	0.013
-535.150	-200.000	-0.001	0.130
-534.135	393.068	0.101	-0.208
-533.121	210.607	0.141	-0.219
-532.106	800.000	-0.054	-0.207
-531.091	550.176	0.069	-0.164
-530.077	82.079	0.105	0.113
-529.062	236.949	-0.074	-0.121
-528.048	-120.141	-0.153	0.026
-527.033	-140.566	-0.189	0.019
-526.018	357.295	0.064	0.127
-525.004	-151.923	-0.073	0.005
-523.989	-34.976	0.085	0.046
-522.975	55.994	-0.166	-0.160
-521.960	-140.898	-0.233	0.024
-520.945	-103.440	-0.035	0.008
-519.931	-140.047	0.231	-0.024
-518.916	-150.875	0.129	-0.010
-517.902	16.768	0.115	0.091
-516.887	-32.453	0.220	0.122
-515.872	-41.739	-0.387	-0.197
-514.858	-200.000	-0.010	-0.219
-513.843	-200.000	-0.030	-0.223
-512.829	39.969	-0.196	0.174
-511.814	800.000	-0.054	-0.187
-510.799	622.612	0.154	0.384
-509.785	-150.412	0.279	0.021
-508.770	243.229	-0.066	-0.109
-507.756	394.539	0.076	0.157
-506.741	-55.450	0.224	-0.100
-505.726	-82.629	-0.045	0.014
-504.712	-121.650	0.013	-0.002
-503.697	318.209	0.101	-0.189
-502.683	-4.593	0.080	-0.055
-501.668	800.000	-0.099	0.361
-500.653	18.691	-0.365	-0.289
-499.639	-40.146	-0.364	0.188
-498.624	-143.907	-0.081	0.008
-497.610	-200.000	-0.009	-0.108
-496.595	-128.075	-0.259	0.037
-495.581	182.764	0.098	-0.143
-494.566	-31.102	0.203	-0.114
-493.551	366.884	0.080	0.161
-492.537	-148.962	-0.267	0.021
-491.522	276.638	0.117	0.205
-490.508	47.897	-0.267	0.247
-489.493	180.204	-0.059	0.086
-488.478	-67.626	0.198	0.077
-487.464	-107.956	0.038	-0.008
-486.449	-75.100	0.275	-0.097
-485.435	-95.142	-0.311	0.083
-484.420	325.452	-0.038	-0.073
-483.405	800.000	0.020	-0.084
-482.391	800.000	0.072	-0.247
-481.376	-27.220	0.078	-0.045
-480.362	-50.630	-0.183	0.085
-479.347	-128.334	0.039	-0.005
-478.332	-81.648	0.105	-0.034
-477.318	-200.000	0.042	0.193
-476.303	-73.171	-0.161	-0.058
-475.289	2.618	0.120	-0.086
-474.274	475.830	-0.099	0.221
-473.259	-28.620	0.388	0.221
-472.245	67.912	-0.141	-0.143
-471.230	147.724	-0.024	0.031
-470.216	-193.262	-0.206	-0.002
-469.201	800.000	-0.023	-0.063
-468.186	-200.000	0.017	-0.130
-467.172	315.389	0.100	0.187
-466.157	-200.000	-0.006	0.176
-465.143	10.845	-0.086	-0.065
-464.128	-200.000	0.005	0.121
-463.113	-142.539	0.099	-0.010
-462.099	12.188	0.167	-0.127
-461.084	303.175	-0.122	-0.224
-460.070	-44.277	-0.185	-0.092
-459.055	-200.000	0.031	0.282
-458.040	490.976	0.067	0.151
-457.026	-156.305	0.470	-0.029
-456.011	7.135	-0.377	-0.278
-454.997	447.245	-0.062	-0.136
-453.982	-3.440	0.122	0.084
-452.968	-108.186	-0.218	0.047
-451.953	-78.232	0.340	0.116
-450.938	86.834	0.176	0.193
-449.924	384.129	-0.163	-0.332
-448.909	13.263	-0.145	-0.111
-447.895	-161.298	-0.197	-0.010
-446.880	-107.450	0.363	0.079
-445.865	-143.526	-0.145	0.014
-444.851	362.702	-0.031	0.061
-443.836	-158.426	-0.137	-0.008
-442.822	-51.662	-0.033	0.015
-441.807	695.572	0.029	-0.077
-440.792	-63.082	-0.656	-0.268
-439.778	-107.270	-0.085	0.019
-438.763	65.482	0.179	-0.179
-437.749	-88.920	-0.035	-0.010
-436.734	-200.000	-0.027	-0.170
-435.719	599.802	-0.132	-0.323
-434.705	10.115	0.030	-0.022
-433.690	-109.065	0.344	-0.072
-432.676	-200.000	-0.081	-0.358
-431.661	-200.000	-0.037	-0.181
-430.646	-200.000	0.017	-0.163
-429.632	-117.024	-0.220	-0.040
-428.617	-119.270	0.064	0.011
-427.603	25.025	-0.161	0.132
-426.588	286.434	-0.106	0.190
-425.573	-103.848	-0.350	0.081
-424.559	800.000	0.185	0.657
-423.544	302.054	-0.158	0.289
-422.530	137.375	0.163	-0.211
-421.515	-44.448	-0.266	-0.132
-420.500	189.972	0.072	0.106
-419.486	-107.241	0.342	0.074
-418.471	135.580	-0.149	-0.191
-417.457	380.349	-0.055	0.112
-416.442	-97.552	-0.288	-0.074
-415.428	12.594	-0.096	-0.073
-414.413	-68.054	0.652	-0.251
-413.398	428.936	-0.075	-0.159
-412.384	-175.712	0.415	0.011
-411.369	-49.518	-0.222	0.105
-410.355	401.610	0.156	0.323
-409.340	656.068	0.111	0.281
-408.325	800.000	-0.130	0.411
-407.311	-64.849	0.078	-0.031
-406.296	20.754	-0.202	-0.161
-405.282	-64.138	0.256	0.103
-404.267	706.413	0.107	-0.279
-403.252	-15.853	-0.124	0.078
-402.238	300.773	-0.033	0.059
-401.223	480.303	0.126	0.281
-400.209	-48.749	0.316	0.150
-399.194	369.690	-0.060	0.119
-398.179	-29.061	0.443	0.251
-397.165	295.971	0.112	-0.202
-396.150	800.000	0.041	0.156
-395.136	-200.000	0.011	0.196
-394.121	-42.129	0.449	0.227
-393.106	-176.705	-0.430	-0.011
-392.092	76.621	0.225	0.235
-391.077	561.976	0.195	0.465
-390.063	-92.000	0.114	0.032
-389.048	360.205	-0.027	0.052
-388.033	-0.244	0.232	0.163
-387.019	-18.422	-0.129	0.080
-386.004	-46.395	-0.099	0.048
-384.990	56.442	-0.114	0.109
-383.975	-200.000	-0.023	-0.114
-382.960	175.411	-0.088	0.125
-381.946	98.633	0.257	0.292
-380.931	732.049	0.095	0.251
-379.917	-4.962	-0.281	-0.191
-378.902	-45.876	0.219	-0.107
-377.888	6.501	0.234	0.171
-376.873	-200.000	0.037	-0.246
-375.858	179.135	0.044	-0.064
-374.844	246.049	-0.124	-0.206
-373.829	-124.105	0.218	-0.034
-372.815	9.578	-0.090	-0.067
-371.800	126.842	0.156	-0.195
-370.785	-86.688	0.141	-0.042
-369.771	159.786	-0.147	0.201
-368.756	-74.012	0.073	0.026
-367.742	-85.760	0.260	-0.080
-366.727	-71.768	-0.238	0.087
-365.712	-118.696	0.421	0.073
-364.698	-159.545	0.222	0.012
-363.683	4.633	-0.380	-0.275
-362.669	-130.517	-0.216	-0.029
-361.654	-107.030	0.205	-0.045
-360.639	-46.244	-0.144	0.070
-359.625	-118.795	-0.195	-0.034
-358.610	55.701	0.224	0.214
-357.596	-200.000	-0.008	0.158
-356.581	-200.000	-0.051	0.284
-355.566	100.154	0.100	0.115
-354.552	-200.000	0.017	0.082
-353.537	-197.399	-0.352	-0.002
-352.523	17.987	0.050	0.039
-351.508	-80.233	0.119	0.039
-350.493	128.312	0.214	0.268
-349.479	-4.246	-0.021	-0.014
-348.464	-72.612	0.142	-0.051
-347.450	-45.394	-0.308	0.150
-346.435	-200.000	0.008	-0.184
-345.420	257.245	0.042	0.072
-344.406	-200.000	-0.011	0.147
-343.391	79.204	0.279	0.295
-342.377	118.915	0.096	0.116
-341.362	-153.240	-0.229	0.016
-340.348	-200.000	-0.023	-0.127
-339.333	-31.851	-0.199	0.110
-338.318	-159.312	-0.201	0.011
-337.304	-97.255	-0.238	-0.061
-336.289	-200.000	-0.023	-0.269
-335.275	101.245	-0.139	-0.160
-334.260	-200.000	-0.011	0.126
-333.245	-63.189	-0.178	-0.072
-332.231	-178.847	0.139	0.003
-331.216	-144.151	-0.326	-0.030
-330.202	-200.000	-0.029	0.157
-329.187	-200.000	0.013	0.065
-328.172	800.000	0.025	-0.106
-327.158	5.395	0.188	-0.136
-326.143	-188.851	0.360	-0.004
-325.129	-57.766	-0.561	0.242
-324.114	-200.000	0.002	0.363
-323.099	-200.000	-0.019	-0.244
-322.085	340.584	0.148	0.285
-321.070	-200.000	-0.015	-0.124
-320.056	77.234	0.136	-0.142
-319.041	505.852	0.099	-0.226
-318.026	81.320	-0.112	-0.119
-317.012	800.000	-0.056	0.178
-315.997	390.624	-0.113	-0.232
-314.983	-200.000	0.060	-0.358
-313.968	88.006	0.166	0.181
-312.953	794.634	-0.036	-0.098
-311.939	-120.238	-0.448	-0.075
-310.924	689.100	0.062	-0.158
-309.910	-200.000	-0.030	-0.130
-308.895	-24.153	-0.252	-0.148
-307.880	-200.000	-0.050	-0.423
-306.866	-51.008	-0.150	0.069
-305.851	800.000	0.071	-0.292
-304.837	-6.240	0.137	-0.092
-303.822	-42.093	-0.132	0.067
-302.807	-200.000	-0.000	-0.073
-301.793	-59.839	-0.069	0.029
-300.778	277.389	-0.045	-0.079
-299.764	19.967	0.283	0.225
-298.749	-200.000	0.007	-0.302
-297.735	-200.000	-0.049	-0.243
-296.720	-133.645	-0.326	0.040
-295.705	628.936	-0.071	0.176
-294.691	-94.174	0.319	0.086
-293.676	-200.000	-0.006	0.133
-292.662	-200.000	0.014	-0.164
-291.647	-141.938	0.086	-0.008
-290.632	-14.757	-0.258	0.163
-289.618	-8.018	0.162	0.107
-288.603	297.164	-0.062	-0.112
-287.589	-11.825	0.278	0.180
-286.574	7.407	0.179	-0.131
-285.559	-200.000	-0.020	-0.182
-284.545	-103.278	0.093	-0.022
-283.530	-120.334	-0.139	0.023
-282.516	-60.327	0.129	-0.054
-281.501	-49.040	0.212	0.100
-280.486	198.748	0.091	0.137
-279.472	-200.000	-0.020	0.182
-278.457	-62.297	-0.293	0.120
-277.443	-98.956	0.178	0.044
-276.428	-113.924	-0.149	0.028
-275.413	-200.000	0.001	-0.353
-274.399	-81.881	-0.322	0.104
-273.384	126.063	0.061	0.075
-272.370	-55.194	0.173	0.076
-271.355	30.400	0.131	0.110
-270.340	-200.000	0.020	-0.204
-269.326	88.643	0.165	-0.180
-268.311	-200.000	0.011	-0.256
-267.297	-70.772	-0.111	0.041
-266.282	-161.646	0.137	0.007
-265.267	-21.854	-0.076	0.045
-264.253	111.426	-0.331	0.391
-263.238	38.794	0.130	-0.114
-262.224	109.389	0.022	-0.026
-261.209	-54.574	0.242	-0.108
-260.195	-49.646	-0.046	0.022
-259.180	628.413	-0.100	-0.248
-258.165	513.927	-0.059	0.136
-257.151	191.796	0.073	-0.108
-256.136	237.512	-0.184	-0.299
-255.122	-74.977	0.198	-0.070
-254.107	800.000	0.120	-0.392
-253.092	-110.336	0.263	-0.054
-252.078	-200.000	0.048	-0.350
-251.063	-133.941	-0.503	-0.061
-250.049	23.740	0.138	-0.111
-249.034	-200.000	0.033	0.147
-248.019	186.923	0.191	-0.279
-247.005	800.000	0.029	-0.109
-245.990	65.154	0.206	0.204
-244.976	800.000	0.089	0.273
-243.961	204.639	-0.112	-0.170
-242.946	578.510	-0.015	0.036
-241.932	690.923	0.042	0.109
-240.917	-83.715	-0.160	0.050
-239.903	279.083	0.239	-0.419
-238.888	-70.307	0.076	0.028
-237.873	53.626	-0.174	-0.163
-236.859	9.987	0.140	-0.104
-235.844	-65.215	-0.115	0.045
-234.830	-200.000	0.031	-0.132
-233.815	214.369	-0.138	-0.215
-232.800	-200.000	-0.006	0.177
-231.786	-200.000	0.044	0.304
-230.771	215.459	0.105	0.163
-229.757	-200.000	0.070	0.341
-228.742	800.000	-0.093	0.298
-227.727	45.975	0.058	0.053
-226.713	434.437	0.100	-0.214
-225.698	-200.000	-0.012	0.252
-224.684	-77.703	-0.136	-0.046
-223.669	37.649	-0.130	0.113
-222.655	688.205	-0.032	-0.081
-221.640	194.109	0.129	0.192
-220.625	-200.000	-0.035	0.293
-219.611	-84.276	0.064	0.020
-218.596	72.098	-0.174	-0.178
-217.582	800.000	0.045	-0.142
-216.567	-200.000	-0.078	-0.514
-215.552	157.356	0.084	-0.113
-214.538	272.205	-0.263	-0.454
-213.523	800.000	0.012	-0.039
-212.509	341.091	-0.042	-0.080
-211.494	146.521	-0.088	0.116
-210.479	-200.000	0.001	-0.118
-209.465	627.687	-0.055	-0.136
-208.450	-17.500	0.247	0.152
-207.436	-153.630	-0.214	0.014
-206.421	-42.513	0.103	0.051
-205.406	113.716	0.116	-0.138
-204.392	-123.512	-0.208	0.032
-203.377	-200.000	-0.007	0.231
-202.363	800.000	-0.060	-0.172
-201.348	-200.000	0.086	-0.000
-200.333	108.477	0.100	0.117
-199.319	800.000	-0.103	-0.286
-198.304	-92.850	-0.152	0.042
-197.290	800.000	-0.091	0.254
-196.275	800.000	0.028	-0.111
-195.260	-200.000	0.036	-0.302
-194.246	231.516	-0.052	0.084
-193.231	333.583	0.110	-0.209
-192.217	185.279	-0.063	-0.091
-191.202	92.856	-0.188	0.208
-190.187	-64.865	0.039	0.015
-189.173	-200.000	0.024	-0.276
-188.158	-200.000	0.045	-0.202
-187.144	426.921	-0.045	0.096
-186.129	-100.872	-0.090	0.022
-185.114	-68.897	0.239	0.090
-184.100	195.443	0.103	-0.153
-183.085	-58.759	0.084	-0.036
-182.071	322.336	-0.100	0.186
-181.056	-164.110	0.266	0.012
-180.042	156.205	0.093	0.125
-179.027	800.000	0.037	0.119
-178.012	-106.208	0.361	0.079
-176.998	-200.000	0.076	0.490
-175.983	-57.483	0.185	-0.079
-174.969	800.000	-0.033	0.112
-173.954	264.476	-0.169	0.288
-172.939	225.663	0.028	0.044
-171.925	262.702	-0.066	0.111
-170.910	118.350	0.155	-0.188
-169.896	176.891	0.125	0.178
-168.881	-200.000	0.012	0.134
-167.866	-116.247	0.265	0.048
-166.852	-112.546	-0.262	0.051
-165.837	276.442	0.168	-0.291
-164.823	-200.000	0.022	0.323
-163.808	111.478	0.051	-0.061
-162.793	-76.541	0.210	-0.072
-161.779	98.048	-0.218	-0.246
-160.764	-200.000	0.030	-0.278
-159.750	-116.897	0.337	0.060
-158.735	150.485	-0.222	0.295
-157.720	32.432	0.177	0.150
-156.706	-200.000	-0.041	-0.207
-155.691	165.106	0.117	-0.161
-154.677	-59.691	-0.299	-0.125
-153.662	82.115	0.196	-0.208
-152.647	205.600	-0.148	-0.224
-151.633	168.528	-0.238	-0.332
-150.618	224.745	0.056	-0.088
-149.604	-79.253	0.205	0.068
-148.589	-107.193	-0.218	-0.047
-147.574	-200.000	0.026	0.337
-146.560	54.418	-0.027	-0.025
-145.545	800.000	0.073	0.204
-144.531	-200.000	-0.016	0.233
-143.516	-111.238	-0.113	0.023
-142.502	-32.239	0.213	0.116
-141.487	-98.476	0.181	0.045
-140.472	48.684	0.162	0.148
-139.458	593.762	-0.071	0.172
-138.443	-200.000	-0.047	0.500
-137.429	-123.700	-0.229	-0.035
-136.414	-61.934	0.080	0.033
-135.399	101.841	-0.195	-0.222
-134.385	-200.000	0.056	-0.245
-133.370	268.300	0.046	-0.079
-132.356	-84.468	-0.293	0.091
-131.341	214.957	0.022	0.034
-130.326	-200.000	0.047	-0.206
-129.312	723.904	-0.096	0.250
-128.297	167.361	-0.087	-0.121
-127.283	-200.000	0.008	0.167
-126.268	-200.000	0.004	0.184
-125.253	-200.000	0.045	0.234
-124.239	-42.045	-0.236	0.118
-123.224	10.788	0.315	0.235
-122.210	-200.000	0.006	-0.072
-121.195	800.000	-0.053	0.168
-120.180	51.602	0.170	-0.158
-119.166	-200.000	-0.026	-0.134
-118.151	-200.000	0.172	0.000
-117.137	-187.146	0.234	-0.003
-116.122	777.403	-0.054	0.143
-115.107	-36.133	0.038	0.020
-114.093	-65.692	-0.377	-0.148
-113.078	-99.211	0.103	0.025
-112.064	50.822	-0.200	-0.185
-111.049	46.656	-0.148	0.134
-110.034	59.193	0.187	0.180
-109.020	-16.995	0.301	-0.185
-108.005	33.570	0.123	-0.104
-106.991	375.053	0.142	0.282
-105.976	46.292	-0.128	-0.116
-104.962	-48.502	0.244	0.114
-103.947	23.104	0.267	-0.214
-102.932	-40.729	-0.249	0.126
-101.918	800.000	0.069	-0.233
-100.903	800.000	-0.072	0.296
-99.889	121.354	-0.133	-0.161
-98.874	-65.763	0.146	-0.057
-97.859	800.000	0.109	-0.298
-96.845	287.197	0.195	0.343
-95.830	-110.505	-0.186	-0.038
-94.816	-76.955	0.103	-0.035
-93.801	-74.135	0.290	0.102
-92.786	-128.367	0.188	-0.026
-91.772	-138.995	-0.099	0.010
-90.757	-104.745	0.195	-0.044
-89.743	-200.000	-0.013	0.114
-88.728	15.074	-0.251	0.192
-87.713	-200.000	0.013	0.155
-86.699	800.000	0.092	0.281
-85.684	113.132	0.108	-0.128
-84.670	-147.284	-0.257	0.021
-83.655	-74.540	0.133	-0.047
-82.640	-53.718	0.066	0.029
-81.626	-79.071	-0.051	0.017
-80.611	800.000	-0.128	-0.447
-79.597	-128.398	0.047	-0.006
-78.582	800.000	-0.057	0.174
-77.567	-147.896	-0.373	0.030
-76.553	63.705	0.224	-0.219
-75.538	-166.554	0.239	0.010
-74.524	800.000	0.020	-0.084
-73.509	57.360	-0.115	-0.109
-72.494	282.874	0.121	0.212
-71.480	-51.344	0.109	0.050
-70.465	420.170	0.125	-0.260
-69.451	137.029	0.105	-0.133
-68.436	84.083	-0.043	-0.046
-67.422	-200.000	0.017	0.106
-66.407	-65.520	-0.419	0.164
-65.392	208.106	0.120	0.182
-64.378	-200.000	0.004	0.196
-63.363	-200.000	-0.010	0.174
-62.349	-200.000	0.006	-0.141
-61.334	130.453	-0.907	-1.132
-60.319	21.781	0.722	0.573
-59.305	246.605	-0.620	-1.018
-58.290	339.769	0.741	1.408
-57.276	304.674	0.681	1.232
-56.261	-200.000	120.184	615.380
-55.246	412.236	1531.769	3169.104
-54.232	148.364	2686.485	3532.442
-53.217	90.986	2265.231	2474.136
-52.203	33.494	1881.975	1592.020
-51.188	27.910	1679.431	1378.617
-50.173	25.707	1639.603	1329.615
-49.159	44.864	1705.129	1528.149
-48.144	43.363	1717.977	1528.252
-47.130	27.456	1670.234	1367.438
-46.115	25.038	1655.488	1337.296
-45.100	24.912	1650.520	1332.291
-44.086	24.910	1648.585	1330.658
-43.071	24.892	1645.494	1327.979
-42.057	24.863	1642.965	1325.668
-41.042	24.929	1641.032	1324.548
-40.027	24.894	1639.246	1322.791
-39.013	24.877	1637.449	1321.164
-37.998	24.833	1635.864	1319.507
-36.984	24.910	1634.784	1319.151
-35.969	24.974	1633.118	1318.232
-34.954	24.950	1631.675	1316.834
-33.940	25.024	1629.836	1315.845
-32.925	24.919	1628.430	1313.888
-31.911	24.937	1626.894	1312.724
-30.896	25.005	1625.239	1311.834
-29.881	24.988	1624.152	1310.782
-28.867	25.026	1621.923	1309.210
-27.852	24.927	1620.704	1307.446
-26.838	25.006	1619.137	1306.712
-25.823	25.000	1618.192	1305.855
-24.809	25.006	1616.677	1304.621
-23.794	25.073	1614.909	1303.629
-22.779	25.064	1613.826	1302.638
-21.765	25.033	1612.379	1301.191
-20.750	25.003	1610.557	1299.457
-19.736	24.994	1609.663	1298.613
-18.721	24.979	1608.218	1297.287
-17.706	25.058	1606.518	1296.440
-16.692	25.049	1604.697	1294.854
-15.677	25.057	1603.194	1293.648
-14.663	25.008	1602.440	1292.633
-13.648	25.106	1601.082	1292.190
-12.633	25.039	1599.243	1290.173
-11.619	25.007	1597.714	1288.663
-10.604	24.998	1596.378	1287.466
-9.590	25.166	1594.802	1287.352
-8.575	25.153	1593.129	1285.857
-7.560	25.084	1592.099	1284.479
-6.546	24.994	1591.668	1283.434
-5.531	24.998	1590.553	1282.517
-4.517	25.006	1589.031	1281.295
-3.502	25.008	1588.219	1280.599
-2.487	25.068	1586.651	1279.714
-1.473	24.687	1574.392	1267.075
-0.458	21.540	1554.420	1228.893
0.556	16.284	1555.714	1196.360
1.571	13.860	1578.778	1196.535
2.586	13.448	1590.411	1202.249
3.600	12.322	1537.316	1154.102
4.615	6.811	1432.530	1039.172
5.629	1.345	1373.474	961.695
6.644	0.318	1366.173	950.029
7.659	0.118	1365.877	948.474
8.673	0.159	1364.695	947.828
9.688	0.115	1362.722	946.098
10.702	0.045	1359.106	943.062
11.717	2.768	1362.756	962.619
12.731	9.682	1374.001	1014.087
13.746	15.504	1381.471	1056.234
14.761	16.921	1382.816	1066.087
15.775	16.345	1381.006	1060.981
16.790	15.304	1378.454	1052.393
17.804	14.479	1376.083	1045.318
18.819	14.061	1375.192	1041.934
19.834	13.944	1373.436	1039.776
20.848	13.682	1372.373	1037.244
21.863	13.554	1370.595	1035.006
22.877	13.299	1369.372	1032.398
23.892	13.180	1369.092	1031.356
24.907	13.246	1367.959	1030.821
25.921	13.262	1367.235	1030.286
26.936	13.212	1366.400	1029.252
27.950	13.261	1365.493	1028.785
28.965	13.382	1364.203	1028.470
29.980	13.432	1363.075	1027.843
30.994	13.444	1362.588	1027.455
32.009	13.528	1361.152	1026.807
33.023	13.453	1360.263	1025.579
34.038	13.486	1358.583	1024.423
35.053	13.513	1357.823	1023.931
36.067	13.343	1357.287	1022.386
37.082	13.366	1356.171	1021.595
38.096	13.380	1355.029	1020.730
39.111	13.464	1353.811	1020.237
40.126	13.386	1353.074	1019.114
41.140	13.262	1352.574	1017.885
42.155	13.190	1352.123	1017.009
43.169	13.232	1351.924	1017.031
44.184	13.237	1351.772	1016.854
45.199	13.303	1351.001	1016.593
46.213	13.316	1350.315	1016.063
47.228	13.352	1349.769	1015.784
48.242	13.358	1348.365	1014.677
49.257	13.321	1346.736	1013.133
50.271	13.337	1345.295	1012.058
51.286	13.406	1343.617	1011.129
52.301	13.287	1342.768	1009.673
53.315	13.259	1342.068	1008.886
54.330	13.242	1340.816	1007.753
55.344	13.254	1339.971	1007.103
56.359	13.278	1338.359	1005.949
57.374	13.227	1337.921	1005.217
58.388	13.225	1337.445	1004.761
59.403	13.210	1336.396	1003.792
60.417	13.200	1335.798	1003.193
61.432	13.140	1334.944	1002.095
62.447	13.117	1334.113	1001.245
63.461	13.190	1332.909	1000.695
64.476	13.087	1331.965	999.278
65.490	13.107	1330.705	998.362
66.505	13.185	1328.426	997.036
67.520	13.172	1327.634	996.273
68.534	13.229	1326.119	995.393
69.549	13.199	1325.515	994.672
70.563	13.160	1324.500	993.586
71.578	13.098	1323.266	992.203
72.593	13.153	1321.672	991.246
73.607	13.125	1321.415	990.799
74.622	13.058	1321.216	990.163
75.636	13.096	1320.384	989.675
76.651	13.071	1319.445	988.733
77.666	13.150	1318.862	988.684
78.680	13.082	1318.277	987.752
79.695	13.070	1317.725	987.176
80.709	13.163	1316.054	986.396
81.724	13.182	1315.650	986.120
82.739	13.241	1314.872	985.798
83.753	13.435	1313.345	985.722
84.768	13.333	1312.560	984.437
85.782	13.316	1311.356	983.346
86.797	13.345	1309.946	982.377
87.812	13.292	1308.784	981.103
88.826	13.294	1307.527	980.088
89.841	13.349	1307.120	980.020
90.855	13.323	1305.930	978.890
91.870	13.374	1304.829	978.279
92.884	13.344	1304.164	977.516
93.899	13.340	1303.848	977.169
94.914	13.500	1302.500	977.016
95.928	13.418	1302.103	976.150
96.943	13.531	1300.875	975.804
97.957	13.444	1299.684	974.316
98.972	13.480	1298.704	973.704
99.987	13.388	1298.338	972.801
101.001	13.431	1296.613	971.677
102.016	13.388	1296.118	970.969
103.030	13.428	1295.054	970.317
104.045	13.427	1293.743	969.245
105.060	13.339	1292.775	967.918
106.074	13.309	1291.095	966.401
107.089	13.232	1290.234	965.224
108.103	13.164	1288.978	963.802
109.118	13.129	1287.732	962.581
110.133	13.207	1286.674	962.159
111.147	13.270	1285.248	961.371
112.162	13.288	1283.685	960.222
113.176	13.292	1282.508	959.281
114.191	13.233	1281.964	958.448
115.206	13.313	1280.869	958.004
116.220	13.445	1278.960	957.258
117.235	13.278	1278.598	955.939
118.249	13.290	1277.383	955.011
119.264	13.303	1276.337	954.222
120.279	13.407	1274.696	953.512
121.293	13.210	1274.059	951.813
122.308	13.176	1273.334	950.992
123.322	13.317	1271.711	950.506
124.337	13.219	1270.855	949.218
125.352	13.289	1269.586	948.588
126.366	13.159	1268.613	947.030
127.381	13.216	1267.502	946.448
128.395	13.250	1266.316	945.673
129.410	13.352	1265.130	945.287
130.424	13.210	1265.047	944.325
131.439	13.343	1263.584	943.910
132.454	13.256	1262.492	942.517
133.468	13.337	1261.862	942.424
134.483	13.290	1261.241	941.610
135.497	13.249	1260.401	940.666
136.512	13.314	1258.676	939.666
137.527	13.281	1257.881	938.801
138.541	13.322	1256.149	937.657
139.556	13.444	1254.555	937.073
140.570	13.382	1254.023	936.242
141.585	13.444	1252.260	935.196
142.600	13.365	1251.452	934.063
143.614	13.448	1250.833	933.985
144.629	13.469	1249.618	933.115
145.643	13.477	1248.291	932.084
146.658	13.472	1246.975	930.995
147.673	13.400	1245.523	929.421
148.687	13.430	1244.548	928.783
149.702	13.396	1243.373	927.633
150.716	13.428	1241.755	926.521
151.731	13.395	1241.106	925.771
152.746	13.502	1239.595	925.157
153.760	13.473	1238.331	923.974
154.775	13.476	1237.839	923.543
155.789	13.516	1236.806	922.912
156.804	13.607	1235.285	922.202
157.819	13.595	1234.324	921.336
158.833	13.585	1233.143	920.315
159.848	13.653	1232.605	920.209
160.862	13.588	1231.334	918.820
161.877	13.593	1230.190	917.916
162.892	13.562	1229.070	916.826
163.906	13.486	1228.746	916.083
164.921	13.598	1227.235	915.494
165.935	13.494	1226.847	914.547
166.950	13.548	1225.675	913.890
167.964	13.587	1225.386	913.811
168.979	13.542	1224.263	912.645
169.994	13.575	1223.549	912.211
171.008	13.731	1222.629	912.305
172.023	13.791	1221.500	911.712
173.037	13.737	1221.016	910.972
174.052	13.648	1220.225	909.811
175.067	13.726	1219.160	909.365
176.081	13.684	1218.069	908.243
177.096	13.714	1217.049	907.565
178.110	13.615	1216.204	906.315
179.125	13.749	1214.806	905.921
180.140	13.822	1213.293	905.113
181.154	13.716	1212.339	903.742
182.169	13.841	1211.465	903.694
183.183	13.867	1210.291	902.880
184.198	13.841	1208.830	901.565
185.213	13.852	1207.907	900.859
186.227	13.947	1206.994	900.616
187.242	14.023	1205.544	899.860
188.256	13.968	1204.855	898.971
189.271	13.971	1203.499	897.896
190.286	13.934	1202.517	896.885
191.300	13.796	1202.027	895.696
192.315	13.678	1201.666	894.709
193.329	13.804	1200.633	894.539
194.344	13.846	1200.245	894.401
195.359	13.855	1199.771	894.015
196.373	13.948	1198.675	893.620
197.388	13.872	1198.626	893.094
198.402	14.043	1197.469	893.072
199.417	14.115	1197.118	893.117
200.432	14.047	1196.245	892.026
201.446	14.108	1195.256	891.534
202.461	14.135	1194.550	891.073
203.475	14.135	1193.740	890.391
204.490	14.130	1192.453	889.325
205.504	14.164	1191.145	888.455
206.519	14.201	1189.917	887.655
207.534	14.088	1188.852	886.179
208.548	14.075	1188.376	885.676
209.563	14.062	1187.381	884.791
210.577	14.103	1186.295	884.121
211.592	14.127	1185.629	883.673
212.607	14.264	1184.509	883.487
213.621	14.313	1183.927	883.237
214.636	14.192	1182.591	881.516
215.650	14.259	1181.854	881.248
216.665	14.297	1181.521	881.119
217.680	14.299	1180.237	880.095
218.694	14.332	1179.299	879.490
219.709	14.330	1178.459	878.777
220.723	14.262	1177.737	877.805
221.738	14.375	1176.812	877.632
222.753	14.370	1176.302	877.147
223.767	14.330	1175.752	876.451
224.782	14.379	1174.790	875.913
225.796	14.347	1174.911	875.758
226.811	14.466	1173.664	875.376
227.826	14.393	1173.146	874.526
228.840	14.436	1172.363	874.091
229.855	14.398	1171.477	873.153
230.869	14.541	1170.342	872.982
231.884	14.420	1169.947	871.974
232.899	14.377	1169.366	871.240
233.913	14.467	1168.507	870.991
234.928	14.422	1167.569	869.980
235.942	14.453	1166.899	869.566
236.957	14.354	1166.003	868.307
237.972	14.351	1165.385	867.752
238.986	14.523	1164.323	867.779
240.001	14.507	1164.024	867.398
241.015	14.562	1163.059	866.890
242.030	14.425	1162.704	865.833
243.045	14.551	1161.509	865.520
244.059	14.621	1160.508	865.061
245.074	14.692	1159.294	864.450
246.088	14.561	1159.284	863.689
247.103	14.566	1158.340	862.933
248.117	14.654	1157.631	862.783
249.132	14.663	1157.022	862.299
250.147	14.808	1156.264	862.409
251.161	14.759	1155.293	861.353
252.176	14.926	1154.565	861.596
253.190	14.788	1154.381	860.671
254.205	14.932	1153.812	860.912
255.220	14.913	1153.209	860.286
256.234	14.961	1152.217	859.716
257.249	14.841	1151.798	858.711
258.263	14.939	1150.978	858.526
259.278	14.916	1150.344	857.864
260.293	14.981	1149.858	857.758
261.307	15.046	1149.101	857.447
262.322	15.088	1148.584	857.200
263.336	15.057	1147.734	856.332
264.351	15.151	1147.000	856.192
265.366	15.111	1146.575	855.594
266.380	15.120	1145.803	854.989
267.395	15.187	1145.079	854.713
268.409	15.115	1144.183	853.600
269.424	15.081	1143.670	852.969
270.439	15.064	1142.829	852.183
271.453	15.149	1142.249	852.108
272.468	15.192	1141.119	851.406
273.482	15.101	1140.724	850.576
274.497	15.107	1140.115	850.074
275.512	15.072	1139.799	849.588
276.526	15.234	1138.715	849.524
277.541	15.302	1138.008	849.267
278.555	15.217	1137.023	848.026
279.570	15.178	1136.470	847.343
280.585	15.367	1135.814	847.734
281.599	15.341	1134.737	846.721
282.614	15.341	1133.585	845.787
283.628	15.199	1132.790	844.402
284.643	15.274	1131.846	844.005
285.657	15.393	1130.914	843.834
286.672	15.348	1130.143	842.958
287.687	15.403	1129.006	842.308
288.701	15.381	1128.547	841.782
289.716	15.391	1127.703	841.128
290.730	15.519	1126.985	841.161
291.745	15.435	1126.177	840.060
292.760	15.376	1126.055	839.599
293.774	15.377	1125.032	838.769
294.789	15.615	1124.339	839.366
295.803	15.506	1123.925	838.439
296.818	15.501	1123.159	837.771
297.833	15.415	1122.458	836.741
298.847	15.574	1121.538	836.777
299.862	15.424	1120.737	835.356
300.876	15.581	1120.243	835.697
301.891	15.547	1119.473	834.876
302.906	15.711	1118.645	835.001
303.920	15.561	1118.103	833.778
304.935	15.643	1117.584	833.724
305.949	15.767	1116.943	833.788
306.964	15.843	1116.205	833.540
307.979	15.771	1115.116	832.296
308.993	15.718	1114.591	831.571
310.008	15.796	1114.042	831.472
311.022	15.779	1113.158	830.655
312.037	15.742	1112.223	829.700
313.052	15.727	1111.385	828.928
314.066	15.697	1110.628	828.140
315.081	15.702	1109.841	827.508
316.095	15.796	1109.030	827.289
317.110	15.651	1108.499	826.110
318.125	15.753	1107.605	825.870
319.139	15.682	1107.406	825.300
320.154	15.831	1106.153	825.024
321.168	15.816	1105.311	824.248
322.183	15.847	1105.140	824.201
323.197	15.870	1104.104	823.469
324.212	15.794	1103.930	822.893
325.227	15.866	1103.030	822.503
326.241	15.860	1102.663	822.127
327.256	16.057	1101.405	822.074
328.270	15.941	1100.709	820.916
329.285	15.921	1099.401	819.774
330.300	15.928	1098.848	819.321
331.314	15.971	1097.749	818.638
332.329	15.825	1097.167	817.422
333.343	15.987	1096.368	817.542
334.358	16.008	1095.434	816.874
335.373	16.025	1095.054	816.602
336.387	15.939	1094.338	815.579
337.402	16.080	1093.329	815.439
338.416	16.015	1092.774	814.638
339.431	16.055	1092.297	814.402
340.446	16.170	1091.303	814.144
341.460	16.145	1090.242	813.162
342.475	16.260	1089.525	813.107
343.489	16.201	1089.276	812.565
344.504	16.184	1088.421	811.773
345.519	16.386	1086.916	811.550
346.533	16.307	1086.211	810.575
347.548	16.315	1085.660	810.129
348.562	16.190	1085.361	809.234
349.577	16.220	1084.188	808.430
350.592	16.299	1083.695	808.369
351.606	16.207	1083.193	807.485
352.621	16.226	1082.193	806.759
353.635	16.268	1081.305	806.224
354.650	16.344	1080.556	805.957
355.665	16.306	1080.379	805.573
356.679	16.362	1079.672	805.241
357.694	16.373	1078.921	804.664
358.708	16.326	1078.372	803.957
359.723	16.396	1077.416	803.510
360.738	16.407	1076.772	803.008
361.752	16.487	1076.050	802.780
362.767	16.419	1075.660	802.096
363.781	16.525	1075.145	802.142
364.796	16.436	1075.025	801.558
365.810	16.521	1073.909	801.059
366.825	16.456	1073.717	800.537
367.840	16.564	1073.254	800.634
368.854	16.665	1072.447	800.435
369.869	16.726	1071.211	799.734
370.883	16.630	1070.510	798.686
371.898	16.674	1070.182	798.576
372.913	16.613	1069.556	797.752
373.927	16.836	1068.605	798.023
374.942	16.692	1068.366	797.097
375.956	16.714	1067.819	796.718
376.971	16.663	1067.165	795.921
377.986	16.571	1067.038	795.322
379.000	16.764	1066.075	795.443
380.015	16.896	1065.313	795.422
381.029	16.911	1064.488	794.806
382.044	16.866	1064.033	794.187
383.059	16.887	1063.480	793.803
384.073	16.872	1062.520	792.946
385.088	16.890	1061.425	792.139
386.102	16.868	1061.206	791.803
387.117	16.954	1059.878	791.144
388.132	16.923	1058.811	790.135
389.146	16.784	1058.711	789.341
390.161	16.936	1057.429	789.023
391.175	16.884	1056.973	788.373
392.190	16.921	1056.319	787.986
393.205	17.042	1055.360	787.764
394.219	16.996	1054.369	786.740
395.234	16.898	1053.949	785.902
396.248	16.939	1052.478	784.926
397.263	17.112	1051.500	784.928
398.278	16.987	1051.018	783.920
399.292	16.983	1050.221	783.237
400.307	16.904	1049.810	782.495
401.321	16.924	1049.227	782.086
402.336	17.086	1048.523	782.237
403.350	17.056	1047.626	781.360
404.365	17.162	1047.067	781.362
405.380	17.064	1045.952	780.012
406.394	17.067	1045.604	779.696
407.409	17.172	1045.032	779.683
408.423	17.264	1044.090	779.336
409.438	17.253	1043.408	778.703
410.453	17.323	1042.708	778.432
411.467	17.272	1042.327	777.848
412.482	17.275	1041.640	777.278
413.496	17.269	1041.015	776.715
414.511	17.309	1040.179	776.206
415.526	17.245	1039.807	775.571
416.540	17.415	1039.303	775.897
417.555	17.383	1038.689	775.225
418.569	17.405	1038.317	774.982
419.584	17.382	1037.504	774.202
420.599	17.452	1037.412	774.384
421.613	107.589	1328.355	1485.403
422.628	98.686	1370.680	1485.508
