DTS Sentinel unit serial number:	SN413079Multiplexer serial number:	ORYXHardware model number:	OX4-SRSoftware version number:	ORYX F/W v4.00 Oryx Data Collector v3.7.2.0data status	okinstallation	princeton_trtdifferential loss correction	single-endedforward channel	channel 2reverse channel	N/Adate	2019/09/14time	10:55:35forward acquisition time	60.00reverse acquisition time	0.00gamma	496.2192k internal	0.2314k external	0.2314temperature offset calibration	1.0143default loss term (dB/km)	0.3790temperature slope calibration	1.0000multiplexer offset coefficient	1.0000multiplexer slope coefficient	1.0000fibre end	0.00T internal ref (°C)	35.81T ext. ref 1 (°C)	4.35T ext. ref 2 (°C)	33.34length (m)	temperature (°C)	Stokes	anti-Stokes-747.200	-200.000	-0.041	0.226
-746.185	32.581	-0.106	0.093
-745.171	-93.435	0.187	0.052
-744.156	-200.000	0.008	0.063
-743.142	-63.058	-0.221	0.093
-742.127	-76.938	-0.457	-0.162
-741.112	-93.968	0.270	-0.075
-740.098	-82.015	-0.198	0.066
-739.083	5.861	-0.156	-0.117
-738.069	-137.289	0.134	0.015
-737.054	210.996	0.220	0.350
-736.039	-55.415	-0.278	0.126
-735.025	-200.000	0.077	-0.390
-734.010	800.000	-0.084	-0.265
-732.996	412.771	0.085	-0.184
-731.981	-200.000	-0.068	-0.361
-730.966	-144.908	-0.249	0.023
-729.952	-91.258	0.144	0.042
-728.937	-200.000	0.011	-0.114
-727.923	-65.495	-0.209	-0.085
-726.908	-43.636	-0.231	-0.118
-725.894	100.305	-0.179	0.210
-724.879	13.872	-0.060	-0.047
-723.864	-200.000	0.028	-0.206
-722.850	32.699	-0.142	-0.125
-721.835	-120.477	-0.135	-0.023
-720.821	-200.000	0.013	-0.090
-719.806	800.000	0.035	0.113
-718.791	800.000	-0.094	0.304
-717.777	166.053	-0.065	-0.094
-716.762	76.809	0.069	0.074
-715.748	-99.517	-0.378	-0.096
-714.733	271.644	0.063	-0.112
-713.718	-126.843	-0.073	0.011
-712.704	560.777	0.080	0.195
-711.689	418.794	-0.086	0.185
-710.675	160.060	0.021	-0.030
-709.660	800.000	-0.022	-0.072
-708.645	45.163	0.131	-0.122
-707.631	513.297	-0.104	0.246
-706.616	-12.698	-0.238	0.157
-705.602	128.867	-0.162	0.209
-704.587	563.136	-0.094	-0.229
-703.572	-200.000	-0.036	0.350
-702.558	136.154	0.213	-0.280
-701.543	-200.000	0.004	0.141
-700.529	140.596	0.120	-0.160
-699.514	-200.000	-0.034	0.191
-698.499	234.862	-0.112	0.187
-697.485	-148.611	-0.443	-0.037
-696.470	-200.000	0.052	-0.269
-695.456	800.000	0.113	0.326
-694.441	-145.398	-0.118	0.011
-693.426	-200.000	-0.019	-0.201
-692.412	772.656	-0.017	-0.047
-691.397	166.512	-0.014	-0.020
-690.383	-200.000	0.020	-0.146
-689.368	127.014	-0.066	0.084
-688.354	-200.000	0.002	-0.292
-687.339	-84.634	-0.165	-0.053
-686.324	800.000	-0.055	-0.160
-685.310	-42.825	0.170	-0.087
-684.295	-182.368	-0.266	-0.005
-683.281	104.684	0.067	-0.079
-682.266	45.997	0.255	-0.239
-681.251	-24.121	-0.163	0.098
-680.237	64.493	-0.173	-0.176
-679.222	658.052	-0.090	0.234
-678.208	70.263	-0.070	0.073
-677.193	229.212	0.233	-0.385
-676.178	620.389	0.044	-0.113
-675.164	65.170	-0.062	-0.064
-674.149	-200.000	0.028	-0.299
-673.135	-16.947	-0.086	0.055
-672.120	-47.632	0.098	-0.048
-671.105	196.172	0.140	-0.215
-670.091	-200.000	-0.042	0.449
-669.076	228.593	-0.204	-0.337
-668.062	145.506	0.189	-0.256
-667.047	99.401	-0.165	0.193
-666.032	379.181	0.058	0.121
-665.018	153.544	-0.102	-0.141
-664.003	62.742	-0.086	-0.087
-662.989	-200.000	0.002	-0.179
-661.974	41.819	0.136	-0.125
-660.959	-117.519	-0.094	0.017
-659.945	-97.044	0.315	-0.083
-658.930	-45.580	-0.051	0.026
-657.916	-90.103	-0.367	-0.108
-656.901	-200.000	-0.060	0.329
-655.886	-132.136	0.247	-0.032
-654.872	112.084	0.083	0.102
-653.857	-40.213	-0.214	0.112
-652.843	-76.587	0.103	-0.036
-651.828	-57.035	0.065	-0.029
-650.814	-109.289	0.236	-0.051
-649.799	-23.583	-0.359	-0.217
-648.784	108.078	0.239	-0.287
-647.770	-200.000	0.060	-0.469
-646.755	-32.271	-0.188	0.106
-645.741	-80.350	-0.114	-0.039
-644.726	-70.313	-0.112	-0.043
-643.711	683.235	0.068	-0.179
-642.697	-183.559	0.077	-0.001
-641.682	-116.226	-0.251	-0.047
-640.668	136.825	-0.076	-0.100
-639.653	-200.000	0.046	-0.401
-638.638	11.654	0.098	-0.076
-637.624	77.985	0.112	0.121
-636.609	25.520	-0.210	-0.177
-635.595	800.000	0.044	-0.195
-634.580	800.000	0.072	0.207
-633.565	102.606	-0.144	0.170
-632.551	-52.704	-0.047	-0.022
-631.536	92.412	-0.044	-0.050
-630.522	-83.597	-0.203	0.065
-629.507	164.707	0.099	0.141
-628.492	-200.000	0.008	0.049
-627.478	112.322	0.166	0.202
-626.463	524.581	0.111	0.263
-625.449	510.925	0.069	0.162
-624.434	555.313	-0.051	-0.125
-623.419	453.112	0.101	-0.225
-622.405	-39.766	0.231	-0.122
-621.390	-200.000	0.021	0.216
-620.376	-156.252	0.255	-0.016
-619.361	-19.160	-0.019	-0.012
-618.346	-150.035	-0.310	-0.024
-617.332	-92.722	-0.268	0.076
-616.317	77.494	0.202	-0.217
-615.303	-200.000	-0.033	0.281
-614.288	120.984	0.206	-0.259
-613.273	-58.239	0.077	-0.034
-612.259	-90.391	-0.514	-0.150
-611.244	257.059	-0.084	0.146
-610.230	17.245	-0.117	0.093
-609.215	437.061	0.002	0.005
-608.201	800.000	0.050	0.177
-607.186	800.000	-0.032	0.102
-606.171	-29.088	0.078	0.045
-605.157	-143.197	-0.152	-0.015
-604.142	92.875	-0.105	-0.120
-603.128	-168.569	-0.427	0.016
-602.113	43.150	-0.124	-0.114
-601.098	-51.493	-0.235	-0.111
-600.084	-200.000	-0.067	0.298
-599.069	7.960	0.252	0.190
-598.055	-200.000	-0.000	0.084
-597.040	412.274	-0.076	0.164
-596.025	-183.473	-0.306	0.005
-595.011	531.165	-0.179	0.426
-593.996	-129.182	0.106	-0.015
-592.982	-163.253	-0.272	0.013
-591.967	800.000	0.048	0.140
-590.952	-83.572	0.193	0.062
-589.938	-72.115	-0.231	0.086
-588.923	-194.267	0.537	-0.004
-587.909	273.938	-0.137	-0.244
-586.894	210.034	-0.220	-0.347
-585.879	179.671	0.229	0.337
-584.865	-15.190	-0.057	-0.037
-583.850	800.000	0.059	0.182
-582.836	521.057	0.111	-0.263
-581.821	218.359	0.065	0.104
-580.806	-72.047	-0.113	-0.042
-579.792	236.472	0.152	-0.253
-578.777	-127.057	-0.447	-0.066
-577.763	218.744	0.103	0.166
-576.748	250.890	-0.070	0.120
-575.733	156.567	-0.032	0.044
-574.719	264.943	-0.136	0.239
-573.704	314.867	-0.075	-0.142
-572.690	-78.007	0.331	-0.115
-571.675	258.568	0.049	-0.086
-570.661	99.112	-0.187	-0.217
-569.646	-200.000	0.010	0.074
-568.631	20.603	0.242	0.197
-567.617	69.051	0.201	0.208
-566.602	-200.000	-0.024	0.180
-565.588	-55.982	-0.212	0.095
-564.573	-105.891	0.144	0.033
-563.558	-126.419	-0.254	0.038
-562.544	22.103	-0.229	0.188
-561.529	98.529	0.191	-0.221
-560.515	791.671	-0.081	-0.225
-559.500	161.297	0.132	0.185
-558.485	800.000	0.082	0.273
-557.471	-42.753	-0.204	-0.105
-556.456	231.168	-0.115	0.190
-555.442	-137.769	-0.183	-0.021
-554.427	-106.195	0.174	0.039
-553.412	244.036	0.129	0.219
-552.398	-97.002	-0.019	-0.005
-551.383	-124.436	0.058	0.009
-550.369	-86.707	0.195	0.060
-549.354	-193.137	0.250	-0.002
-548.339	49.889	0.090	0.085
-547.325	-47.653	-0.299	0.146
-546.310	-117.358	0.191	0.035
-545.296	-2.915	-0.214	-0.150
-544.281	-5.337	0.125	-0.087
-543.266	-13.926	0.077	0.050
-542.252	114.588	-0.245	-0.300
-541.237	123.122	-0.179	-0.226
-540.223	-33.744	0.128	0.071
-539.208	-134.125	-0.191	-0.024
-538.193	19.440	0.253	-0.205
-537.179	-17.507	-0.096	-0.061
-536.164	176.952	-0.137	0.200
-535.150	-83.607	0.274	0.088
-534.135	-41.495	-0.140	0.072
-533.121	800.000	0.045	-0.174
-532.106	-177.148	-0.152	-0.004
-531.091	274.520	-0.083	-0.147
-530.077	-31.016	-0.187	-0.106
-529.062	-32.017	0.236	0.133
-528.048	-16.128	-0.094	-0.060
-527.033	-77.893	0.270	0.094
-526.018	800.000	0.016	0.049
-525.004	-200.000	0.007	-0.232
-523.989	-200.000	-0.049	-0.219
-522.975	800.000	-0.083	0.275
-521.960	-111.925	-0.248	-0.050
-520.945	-119.314	0.197	0.034
-519.931	-124.405	0.242	0.038
-518.916	165.505	-0.093	-0.132
-517.902	-161.012	-0.157	-0.008
-516.887	-31.902	-0.216	0.122
-515.872	-149.642	-0.115	-0.009
-514.858	-13.972	-0.071	-0.046
-513.843	-19.886	-0.108	-0.067
-512.829	50.958	0.180	-0.172
-511.814	217.588	0.036	0.058
-510.799	800.000	-0.031	-0.121
-509.785	237.293	-0.050	0.083
-508.770	-200.000	0.024	0.125
-507.756	264.103	-0.024	-0.041
-506.741	21.742	0.166	-0.136
-505.726	-168.710	0.166	0.006
-504.712	35.069	0.183	-0.161
-503.697	-143.123	0.087	0.008
-502.683	256.240	-0.113	-0.194
-501.668	-85.630	-0.382	-0.119
-500.653	-141.123	-0.133	-0.014
-499.639	-130.717	-0.331	-0.045
-498.624	64.948	-0.066	0.067
-497.610	-200.000	0.003	0.202
-496.595	71.512	0.062	0.065
-495.581	-41.895	0.231	0.119
-494.566	607.597	0.082	0.204
-493.551	-99.474	-0.303	0.077
-492.537	-200.000	-0.032	0.248
-491.522	274.784	0.060	-0.107
-490.508	800.000	-0.043	0.141
-489.493	-114.868	0.312	-0.060
-488.478	-163.609	-0.238	0.011
-487.464	-42.147	-0.368	0.189
-486.449	643.798	0.085	-0.219
-485.435	63.525	0.060	0.060
-484.420	76.842	0.034	0.036
-483.405	-4.903	-0.116	-0.080
-482.391	-8.702	-0.078	-0.052
-481.376	-200.000	0.033	-0.148
-480.362	-126.356	0.314	-0.047
-479.347	-42.780	0.279	-0.142
-478.332	-200.000	0.001	-0.015
-477.318	-49.475	0.222	-0.106
-476.303	-150.765	0.197	-0.015
-475.289	800.000	0.064	-0.224
-474.274	-68.295	0.227	-0.089
-473.259	266.447	0.100	0.175
-472.245	-39.004	-0.091	0.048
-471.230	-200.000	-0.026	0.163
-470.216	-73.650	-0.076	0.028
-469.201	-200.000	0.016	0.252
-468.186	800.000	0.074	0.291
-467.172	161.490	0.155	-0.217
-466.157	163.235	0.055	-0.078
-465.143	291.338	0.053	-0.096
-464.128	27.417	0.210	-0.177
-463.113	-131.308	0.233	0.031
-462.099	21.187	-0.144	-0.117
-461.084	501.532	0.091	0.211
-460.070	272.603	-0.053	0.094
-459.055	-42.211	0.164	0.084
-458.040	140.505	-0.157	-0.208
-457.026	-149.742	0.357	0.028
-456.011	-130.790	-0.160	-0.022
-454.997	-200.000	-0.004	-0.268
-453.982	53.288	-0.112	0.108
-452.968	-200.000	-0.057	0.271
-451.953	-152.053	-0.143	-0.010
-450.938	75.952	0.318	-0.337
-449.924	-84.616	-0.195	0.062
-448.909	-68.292	0.069	-0.027
-447.895	-200.000	-0.023	-0.136
-446.880	12.797	-0.033	0.025
-445.865	183.981	-0.080	0.118
-444.851	586.881	-0.168	0.413
-443.836	473.390	0.080	-0.181
-442.822	75.754	0.246	-0.260
-441.807	-200.000	0.047	-0.323
-440.792	13.683	-0.191	-0.149
-439.778	-131.311	0.292	0.039
-438.763	-130.629	-0.066	-0.009
-437.749	265.851	-0.054	0.094
-436.734	-77.829	0.347	-0.120
-435.719	-125.481	-0.435	0.066
-434.705	-130.060	0.287	-0.039
-433.690	22.251	0.144	0.118
-432.676	-13.424	0.122	-0.079
-431.661	41.282	0.071	-0.064
-430.646	-67.072	0.221	0.087
-429.632	-200.000	-0.066	0.359
-428.617	215.381	0.163	-0.258
-427.603	292.914	-0.044	-0.080
-426.588	800.000	0.073	-0.299
-425.573	-3.602	-0.086	0.060
-424.559	800.000	0.053	-0.174
-423.544	-68.216	-0.460	-0.179
-422.530	139.854	0.030	-0.039
-421.515	-71.017	0.191	-0.072
-420.500	-173.750	0.536	0.016
-419.486	202.294	-0.022	0.035
-418.471	-173.470	0.018	-0.001
-417.457	-200.000	0.019	-0.138
-416.442	-131.033	0.179	-0.024
-415.428	-1.679	-0.240	0.169
-414.413	-24.091	-0.031	0.019
-413.398	-200.000	-0.087	0.395
-412.384	-142.588	0.171	-0.017
-411.369	150.123	0.099	-0.135
-410.355	-24.226	-0.214	0.128
-409.340	125.516	0.103	0.131
-408.325	800.000	-0.056	-0.201
-407.311	-63.853	0.192	-0.079
-406.296	155.806	0.069	0.095
-405.282	-42.926	0.349	0.177
-404.267	-145.627	0.155	-0.014
-403.252	-200.000	-0.012	0.184
-402.238	-86.484	-0.112	-0.035
-401.223	-23.372	-0.369	0.222
-400.209	-69.757	0.285	0.109
-399.194	58.618	-0.131	-0.128
-398.179	-200.000	-0.011	-0.341
-397.165	800.000	0.044	0.147
-396.150	-60.221	-0.166	-0.071
-395.136	-200.000	0.026	0.216
-394.121	42.900	-0.181	0.165
-393.106	-94.254	0.084	-0.023
-392.092	-200.000	0.011	0.096
-391.077	95.064	0.211	-0.241
-390.063	-74.807	0.169	-0.061
-389.048	-152.182	0.199	-0.014
-388.033	-132.602	0.187	-0.024
-387.019	800.000	0.019	0.074
-386.004	72.336	-0.201	-0.209
-384.990	-1.793	0.221	-0.156
-383.975	12.415	-0.067	-0.052
-382.960	-200.000	0.057	-0.447
-381.946	788.861	-0.117	-0.322
-380.931	800.000	-0.095	-0.375
-379.917	-123.716	0.237	-0.038
-378.902	-97.539	-0.078	0.020
-377.888	-14.646	-0.171	0.110
-376.873	64.807	0.015	-0.016
-375.858	643.157	-0.040	0.103
-374.844	172.740	-0.163	0.234
-373.829	-120.781	-0.345	-0.058
-372.815	32.249	-0.123	-0.106
-371.800	-55.342	0.240	0.108
-370.785	-73.474	0.213	-0.078
-369.771	-19.018	-0.241	-0.150
-368.756	265.198	-0.055	-0.096
-367.742	-131.588	-0.414	-0.054
-366.727	-152.475	0.211	0.015
-365.712	-68.401	-0.092	0.036
-364.698	800.000	0.035	0.101
-363.683	194.392	-0.262	0.396
-362.669	47.457	-0.212	0.198
-361.654	225.771	-0.144	-0.233
-360.639	800.000	-0.070	0.286
-359.625	-20.036	-0.309	0.191
-358.610	-200.000	-0.093	-0.000
-357.596	-200.000	-0.022	-0.133
-356.581	34.966	-0.152	-0.133
-355.566	-24.467	-0.160	0.095
-354.552	-34.667	0.357	0.195
-353.537	16.197	0.198	0.156
-352.523	-47.169	-0.083	0.040
-351.508	-91.367	0.230	-0.066
-350.493	-152.132	-0.148	-0.011
-349.479	-16.819	-0.201	0.127
-348.464	-40.701	0.141	0.073
-347.450	-115.520	-0.271	-0.051
-346.435	-92.360	-0.090	0.025
-345.420	71.677	-0.208	0.216
-344.406	-91.073	-0.036	-0.010
-343.391	-161.912	0.131	-0.007
-342.377	-200.000	-0.020	-0.409
-341.362	800.000	-0.046	-0.159
-340.348	-200.000	-0.062	0.285
-339.333	-91.447	-0.097	0.028
-338.318	-96.363	0.069	-0.018
-337.304	-90.042	0.156	-0.045
-336.289	-82.438	0.278	-0.090
-335.275	136.466	-0.133	-0.172
-334.260	-16.886	-0.208	-0.131
-333.245	-114.563	0.325	0.062
-332.231	-10.245	-0.344	-0.228
-331.216	-200.000	-0.027	0.476
-330.202	-38.567	-0.336	-0.177
-329.187	-200.000	0.005	-0.035
-328.172	-200.000	0.030	0.211
-327.158	-200.000	0.026	0.220
-326.143	-177.290	0.180	0.004
-325.129	-187.459	-0.362	-0.005
-324.114	-143.590	0.229	0.022
-323.099	116.948	0.161	-0.197
-322.085	-200.000	0.028	0.207
-321.070	-13.488	0.264	0.171
-320.056	-41.909	0.121	-0.062
-319.041	-118.873	-0.230	-0.040
-318.026	-200.000	0.001	0.054
-317.012	800.000	-0.071	0.277
-315.997	-162.468	0.066	-0.003
-314.983	-129.520	-0.110	-0.015
-313.968	11.694	-0.288	0.220
-312.953	-102.260	0.231	0.055
-311.939	-200.000	-0.034	0.237
-310.924	419.008	-0.094	-0.201
-309.910	-28.801	0.291	-0.167
-308.895	380.942	0.034	0.069
-307.880	-164.165	-0.358	0.016
-306.866	800.000	-0.027	0.108
-305.851	58.161	-0.068	-0.067
-304.837	100.528	0.141	0.163
-303.822	-200.000	0.014	-0.202
-302.807	-38.644	-0.221	-0.116
-301.793	184.706	-0.137	0.202
-300.778	800.000	0.067	-0.200
-299.764	-71.735	0.175	-0.065
-298.749	-118.716	0.119	-0.021
-297.735	-47.350	-0.214	0.104
-296.720	95.585	0.183	-0.208
-295.705	-200.000	0.018	-0.165
-294.691	57.351	0.221	-0.214
-293.676	-200.000	-0.035	-0.351
-292.662	287.776	-0.020	-0.035
-291.647	203.577	-0.084	0.129
-290.632	62.940	0.195	0.194
-289.618	43.356	-0.125	0.114
-288.603	-200.000	-0.036	-0.175
-287.589	-200.000	-0.002	-0.189
-286.574	800.000	0.021	-0.076
-285.559	-18.815	0.156	0.097
-284.545	-79.519	0.011	0.004
-283.530	-109.128	0.250	0.053
-282.516	22.688	-0.104	-0.085
-281.501	800.000	0.067	0.222
-280.486	3.200	0.226	0.163
-279.472	47.590	0.137	0.127
-278.457	207.988	0.120	0.187
-277.443	12.520	0.229	0.176
-276.428	800.000	-0.030	0.121
-275.413	571.784	-0.063	0.152
-274.399	-89.542	-0.155	-0.045
-273.384	10.909	-0.049	-0.038
-272.370	800.000	-0.079	0.220
-271.355	13.016	0.186	-0.143
-270.340	263.164	-0.063	0.108
-269.326	0.794	-0.267	-0.190
-268.311	-108.743	0.254	-0.054
-267.297	-102.837	-0.236	0.056
-266.282	6.212	0.103	-0.076
-265.267	62.551	0.105	0.105
-264.253	29.786	-0.095	-0.081
-263.238	800.000	-0.065	-0.184
-262.224	-88.692	0.262	0.077
-261.209	800.000	-0.077	-0.308
-260.195	-1.236	0.254	0.179
-259.180	-36.471	-0.209	0.112
-258.165	177.440	0.077	0.111
-257.151	-114.073	-0.047	-0.009
-256.136	-93.706	-0.296	0.081
-255.122	-36.554	0.299	-0.160
-254.107	-156.475	0.154	0.010
-253.092	214.216	-0.038	-0.059
-252.078	449.724	0.139	0.304
-251.063	-200.000	-0.010	0.098
-250.049	-36.325	-0.239	-0.128
-249.034	116.402	0.026	-0.031
-248.019	-141.395	-0.163	0.016
-247.005	-4.188	0.177	0.122
-245.990	28.918	-0.134	0.113
-244.976	-45.271	0.256	-0.126
-243.961	-43.859	0.192	-0.096
-242.946	154.626	0.182	-0.248
-241.932	50.164	0.068	-0.063
-240.917	-200.000	-0.027	0.243
-239.903	448.413	0.187	0.409
-238.888	-200.000	-0.006	-0.035
-237.873	800.000	-0.095	-0.266
-236.859	19.037	0.165	0.131
-235.844	70.974	-0.115	0.119
-234.830	25.581	-0.214	-0.177
-233.815	-111.396	-0.123	0.025
-232.800	-7.251	0.235	0.158
-231.786	283.341	-0.082	-0.146
-230.771	-21.259	-0.340	0.206
-229.757	800.000	-0.078	0.284
-228.742	-120.976	0.250	-0.042
-227.727	-81.007	0.118	0.039
-226.713	8.371	-0.066	-0.049
-225.698	-36.135	-0.284	0.153
-224.684	-200.000	-0.046	-0.265
-223.669	-200.000	0.043	-0.555
-222.655	-200.000	0.073	0.427
-221.640	-200.000	0.047	0.212
-220.625	208.597	0.072	0.111
-219.611	800.000	-0.168	-0.540
-218.596	733.059	-0.010	-0.026
-217.582	513.801	0.021	-0.048
-216.567	800.000	-0.056	0.207
-215.552	14.442	-0.080	0.062
-214.538	-139.312	0.050	0.005
-213.523	-200.000	0.020	0.090
-212.509	129.472	0.049	-0.062
-211.494	9.395	0.049	-0.037
-210.479	-45.989	-0.268	-0.131
-209.465	-166.860	0.129	0.005
-208.450	-140.404	-0.217	-0.022
-207.436	193.269	-0.043	0.064
-206.421	-200.000	-0.004	0.137
-205.406	-46.372	-0.350	-0.171
-204.392	-87.677	0.273	0.082
-203.377	-113.615	-0.258	0.050
-202.363	-74.428	0.064	0.023
-201.348	-200.000	-0.053	-0.298
-200.333	-150.531	0.258	-0.020
-199.319	-200.000	-0.066	-0.351
-198.304	-196.524	0.332	0.002
-197.290	-200.000	-0.032	-0.168
-196.275	-33.919	-0.498	-0.272
-195.260	-126.489	0.431	-0.064
-194.246	-56.642	0.359	-0.158
-193.231	-79.060	0.151	0.051
-192.217	86.532	-0.087	-0.095
-191.202	71.259	-0.072	0.074
-190.187	-200.000	-0.045	0.354
-189.173	-147.103	-0.216	0.018
-188.158	-169.472	-0.111	-0.004
-187.144	157.591	-0.043	-0.060
-186.129	-12.025	-0.195	-0.127
-185.114	800.000	0.032	-0.135
-184.100	22.669	0.098	0.080
-183.085	-102.429	0.298	-0.071
-182.071	-200.000	-0.034	-0.279
-181.056	800.000	-0.003	0.009
-180.042	49.201	0.153	-0.143
-179.027	530.236	0.039	0.091
-178.012	210.240	0.214	0.333
-176.998	-200.000	0.017	0.257
-175.983	225.553	0.117	0.188
-174.969	-200.000	0.008	0.295
-173.954	2.733	-0.130	0.093
-172.939	200.832	0.050	-0.076
-171.925	186.814	0.119	0.176
-170.910	34.151	0.126	-0.108
-169.896	-175.278	-0.294	0.008
-168.881	-200.000	-0.047	0.304
-167.866	-69.516	0.306	-0.116
-166.852	-200.000	0.011	-0.383
-165.837	559.612	0.082	-0.197
-164.823	244.741	-0.088	0.146
-163.808	-65.235	0.117	-0.047
-162.793	654.483	0.097	-0.247
-161.779	800.000	-0.026	0.079
-160.764	-200.000	-0.258	0.001
-159.750	800.000	-0.112	-0.356
-158.735	180.433	0.170	0.247
-157.720	14.265	0.306	0.236
-156.706	373.055	-0.059	0.119
-155.691	256.865	-0.096	-0.164
-154.677	792.271	-0.027	0.075
-153.662	800.000	-0.085	-0.255
-152.647	-200.000	-0.035	0.308
-151.633	115.161	-0.093	0.113
-150.618	335.239	0.081	-0.155
-149.604	-110.425	0.178	0.037
-148.589	496.883	-0.005	-0.011
-147.574	442.885	-0.013	0.029
-146.560	-21.495	-0.147	0.089
-145.545	202.864	-0.138	0.211
-144.531	-200.000	0.002	0.084
-143.516	800.000	-0.084	0.242
-142.502	-111.858	0.198	0.040
-141.487	-57.979	-0.078	-0.034
-140.472	-200.000	-0.029	0.282
-139.458	-77.952	0.177	0.061
-138.443	-200.000	0.001	-0.194
-137.429	201.704	0.110	0.167
-136.414	181.135	0.054	0.079
-135.399	-56.386	0.245	0.108
-134.385	-31.325	-0.041	-0.023
-133.370	800.000	-0.102	-0.382
-132.356	-98.556	0.154	-0.039
-131.341	-145.367	0.116	0.010
-130.326	709.416	0.092	-0.242
-129.312	142.154	0.011	-0.014
-128.297	-78.321	0.306	0.104
-127.283	-27.083	-0.226	-0.131
-126.268	-78.538	0.129	0.044
-125.253	-88.281	-0.081	0.024
-124.239	225.413	-0.096	-0.153
-123.224	386.177	-0.134	-0.274
-122.210	-200.000	-0.016	-0.140
-121.195	138.475	-0.103	-0.133
-120.180	783.506	-0.072	0.194
-119.166	-58.554	0.180	0.077
-118.151	528.686	0.040	-0.094
-117.137	62.644	-0.117	-0.116
-116.122	344.228	0.046	-0.089
-115.107	-200.000	-0.009	-0.065
-114.093	-43.955	0.226	-0.112
-113.078	-64.011	-0.181	-0.073
-112.064	-41.898	-0.134	0.068
-111.049	-154.492	0.350	-0.023
-110.034	-200.000	0.007	-0.113
-109.020	-151.778	0.360	-0.026
-108.005	-130.714	0.198	-0.026
-106.991	15.224	-0.121	0.094
-105.976	-23.278	0.389	0.232
-104.962	302.624	-0.128	0.234
-103.947	-112.624	-0.175	-0.035
-102.932	197.402	0.155	0.234
-101.918	354.954	-0.118	-0.232
-100.903	-200.000	0.011	-0.066
-99.889	387.901	-0.105	0.215
-98.874	522.621	0.054	-0.125
-97.859	92.179	-0.238	0.265
-96.845	-126.493	0.073	-0.011
-95.830	-62.066	0.147	-0.061
-94.816	-51.884	-0.384	0.176
-93.801	-73.257	0.396	-0.143
-92.786	-200.000	0.056	-0.297
-91.772	117.076	0.121	0.146
-90.757	-149.801	0.197	-0.015
-89.743	29.822	-0.076	-0.064
-88.728	-108.945	-0.055	0.012
-87.713	800.000	-0.039	0.115
-86.699	221.524	-0.230	-0.366
-85.684	11.266	0.273	-0.206
-84.670	0.841	-0.170	0.120
-83.655	-39.245	0.271	-0.141
-82.640	-85.713	0.128	-0.039
-81.626	311.052	-0.029	0.054
-80.611	-95.689	0.209	0.055
-79.597	553.398	0.154	0.366
-78.582	-200.000	0.013	-0.187
-77.567	88.923	0.328	0.361
-76.553	84.129	0.252	-0.272
-75.538	170.855	-0.210	0.297
-74.524	-120.609	0.123	-0.020
-73.509	46.631	-0.117	-0.108
-72.494	415.512	-0.110	0.231
-71.480	-177.343	0.326	0.008
-70.465	-200.000	-0.021	-0.291
-69.451	-11.831	0.154	0.100
-68.436	353.650	-0.151	-0.296
-67.422	-101.554	-0.526	-0.126
-66.407	236.180	0.080	0.130
-65.392	-125.188	-0.177	-0.027
-64.378	51.066	0.151	-0.142
-63.363	-136.432	-0.320	0.037
-62.349	428.365	0.156	0.333
-61.334	10.656	-0.993	-0.747
-60.319	-19.727	0.474	0.290
-59.305	579.666	-0.390	-0.942
-58.290	276.892	0.640	1.123
-57.276	800.000	0.401	1.630
-56.261	-200.000	90.061	513.503
-55.246	548.579	1399.277	3307.337
-54.232	182.362	2634.892	3832.424
-53.217	112.523	2357.605	2815.095
-52.203	45.061	1963.413	1784.648
-51.188	38.968	1746.487	1539.818
-50.173	36.250	1701.670	1479.432
-49.159	51.824	1747.093	1640.208
-48.144	55.279	1764.997	1683.781
-47.130	38.813	1723.313	1517.946
-46.115	35.907	1708.137	1482.178
-45.100	35.686	1703.613	1476.499
-44.086	35.650	1700.654	1473.603
-43.071	35.651	1697.929	1471.189
-42.057	35.660	1695.143	1468.781
-41.042	35.689	1693.452	1467.481
-40.027	35.662	1692.329	1466.244
-39.013	35.598	1690.030	1463.707
-37.998	35.567	1688.702	1462.260
-36.984	35.709	1687.202	1461.986
-35.969	35.791	1685.560	1461.130
-34.954	35.819	1683.865	1459.814
-33.940	35.829	1682.021	1458.229
-32.925	35.846	1679.954	1456.511
-31.911	35.884	1678.111	1455.147
-30.896	35.802	1676.279	1452.881
-29.881	35.818	1674.401	1451.317
-28.867	35.775	1673.870	1450.467
-27.852	35.770	1671.726	1448.522
-26.838	35.806	1670.721	1447.860
-25.823	35.820	1669.060	1446.468
-24.809	35.863	1667.417	1445.311
-23.794	35.859	1666.334	1444.285
-22.779	35.819	1664.706	1442.516
-21.765	35.794	1663.025	1440.815
-20.750	35.825	1661.201	1439.413
-19.736	35.804	1659.844	1438.018
-18.721	35.904	1658.378	1437.441
-17.706	35.903	1656.717	1435.937
-16.692	35.766	1655.272	1433.607
-15.677	35.892	1653.560	1433.001
-14.663	35.885	1652.442	1431.926
-13.648	35.884	1651.384	1430.943
-12.633	35.839	1649.490	1428.911
-11.619	35.878	1647.851	1427.727
-10.604	35.861	1646.237	1426.141
-9.590	35.910	1644.922	1425.311
-8.575	35.899	1643.885	1424.278
-7.560	35.868	1641.960	1422.325
-6.546	35.816	1641.255	1421.269
-5.531	35.767	1640.378	1420.094
-4.517	35.825	1638.889	1419.178
-3.502	35.740	1637.767	1417.520
-2.487	35.924	1636.110	1417.386
-1.473	35.986	1624.896	1408.065
-0.458	33.629	1605.948	1374.540
0.556	31.504	1606.467	1342.369
1.571	29.120	1631.529	1345.787
2.586	28.106	1645.175	1349.445
3.600	24.122	1589.006	1274.806
4.615	14.015	1471.369	1112.977
5.629	5.761	1402.490	1007.896
6.644	4.540	1393.278	993.388
7.659	4.300	1392.304	991.073
8.673	4.233	1391.820	990.215
9.688	4.337	1389.752	989.318
10.702	4.333	1387.537	987.629
11.717	7.889	1394.295	1015.058
12.731	16.828	1411.293	1084.813
13.746	21.801	1418.527	1122.192
14.761	21.037	1415.572	1114.871
15.775	20.016	1412.644	1105.948
16.790	18.952	1410.008	1097.005
17.804	18.183	1407.768	1090.264
18.819	17.841	1406.452	1086.973
19.834	17.540	1405.237	1084.019
20.848	17.270	1404.365	1081.537
21.863	17.025	1402.721	1078.614
22.877	16.947	1401.515	1077.096
23.892	16.942	1400.588	1076.257
24.907	16.870	1399.743	1075.055
25.921	16.901	1398.843	1074.467
26.936	16.999	1397.915	1074.278
27.950	16.905	1397.168	1073.015
28.965	17.128	1396.222	1073.602
29.980	17.242	1394.816	1073.145
30.994	17.281	1393.458	1072.253
32.009	17.339	1392.874	1072.073
33.023	17.334	1391.108	1070.592
34.038	17.175	1390.266	1068.849
35.053	17.137	1388.468	1067.134
36.067	17.201	1387.164	1066.436
37.082	17.070	1386.458	1064.978
38.096	17.263	1385.577	1065.419
39.111	17.173	1384.844	1064.192
40.126	17.131	1383.844	1063.066
41.140	16.990	1382.869	1061.343
42.155	16.820	1382.269	1059.728
43.169	16.888	1382.228	1060.026
44.184	16.801	1381.796	1059.060
45.199	16.769	1381.702	1058.693
46.213	16.918	1380.704	1058.761
47.228	17.010	1380.480	1059.073
48.242	17.076	1378.917	1058.188
49.257	17.014	1377.774	1056.837
50.271	17.132	1375.417	1055.669
51.286	17.055	1374.694	1054.540
52.301	17.101	1373.066	1053.481
53.315	16.981	1372.115	1051.916
54.330	16.850	1371.469	1050.514
55.344	16.930	1369.649	1049.523
56.359	16.921	1369.033	1048.903
57.374	16.828	1368.210	1047.608
58.388	16.750	1367.556	1046.533
59.403	16.640	1367.002	1045.335
60.417	16.727	1366.318	1045.258
61.432	16.816	1365.049	1044.743
62.447	16.708	1363.962	1043.151
63.461	16.624	1362.883	1041.715
64.476	16.513	1362.095	1040.340
65.490	16.631	1360.572	1039.812
66.505	16.698	1358.721	1038.714
67.520	16.724	1357.652	1037.964
68.534	16.663	1357.216	1037.165
69.549	16.678	1355.680	1035.993
70.563	16.650	1354.347	1034.707
71.578	16.615	1352.912	1033.310
72.593	16.503	1352.198	1031.988
73.607	16.540	1351.663	1031.714
74.622	16.432	1351.032	1030.486
75.636	16.573	1350.123	1030.556
76.651	16.611	1349.154	1029.960
77.666	16.546	1348.736	1029.151
78.680	16.598	1348.141	1028.921
79.695	16.584	1347.619	1028.349
80.709	16.686	1346.429	1027.969
81.724	16.765	1346.215	1028.195
82.739	16.959	1344.907	1028.280
83.753	17.050	1344.170	1028.178
84.768	17.055	1343.865	1027.883
85.782	17.185	1342.096	1027.227
86.797	17.104	1341.430	1026.138
87.812	16.990	1339.734	1024.058
88.826	16.983	1338.632	1023.085
89.841	17.053	1337.428	1022.496
90.855	17.161	1336.392	1022.262
91.870	17.150	1335.767	1021.626
92.884	17.114	1335.037	1020.761
93.899	17.221	1333.455	1020.105
94.914	17.241	1332.920	1019.728
95.928	17.294	1332.377	1019.536
96.943	17.155	1331.793	1018.167
97.957	17.105	1330.384	1016.699
98.972	17.171	1329.606	1016.414
99.987	17.213	1328.213	1015.508
101.001	17.137	1327.296	1014.260
102.016	17.119	1326.241	1013.260
103.030	17.113	1325.296	1012.409
104.045	17.152	1324.431	1011.894
105.060	17.033	1323.220	1010.174
106.074	16.845	1321.977	1008.016
107.089	16.718	1320.327	1005.912
108.103	16.673	1319.214	1004.708
109.118	16.664	1317.713	1003.425
110.133	16.618	1316.649	1002.253
111.147	16.781	1314.575	1001.550
112.162	16.850	1313.808	1001.283
113.176	16.870	1312.619	1000.404
114.191	16.800	1311.967	999.406
115.206	16.799	1311.145	998.687
116.220	16.842	1309.425	997.539
117.235	16.857	1308.586	996.901
118.249	16.795	1307.487	995.610
119.264	16.799	1305.883	994.329
120.279	16.662	1305.027	992.782
121.293	16.609	1304.252	991.793
122.308	16.624	1303.314	991.083
123.322	16.666	1301.375	989.766
124.337	16.629	1300.396	988.720
125.352	16.508	1299.846	987.506
126.366	16.636	1298.515	987.156
127.381	16.566	1297.658	986.008
128.395	16.655	1296.432	985.504
129.410	16.673	1295.589	984.884
130.424	16.722	1294.659	984.377
131.439	16.742	1294.080	983.963
132.454	16.805	1293.232	983.593
133.468	16.916	1292.133	983.318
134.483	16.829	1291.915	982.560
135.497	16.892	1290.287	981.599
136.512	16.899	1288.901	980.501
137.527	16.893	1288.109	979.774
138.541	16.890	1286.311	978.304
139.556	16.964	1285.345	977.908
140.570	17.019	1284.607	977.578
141.585	17.034	1283.634	976.838
142.600	17.069	1282.336	975.967
143.614	17.163	1281.517	975.796
144.629	17.258	1280.275	975.306
145.643	17.267	1278.627	974.018
146.658	17.012	1277.759	971.812
147.673	17.096	1275.690	970.630
148.687	17.032	1274.394	969.194
149.702	16.902	1273.518	967.697
150.716	16.888	1271.862	966.274
151.731	16.919	1270.907	965.639
152.746	16.922	1269.874	964.787
153.760	16.974	1268.303	963.803
154.775	16.985	1267.663	963.296
155.789	17.189	1266.326	963.349
156.804	17.086	1265.356	961.941
157.819	17.165	1264.258	961.472
158.833	17.163	1263.484	960.787
159.848	17.202	1263.341	960.816
160.862	17.306	1261.562	959.965
161.877	17.015	1260.498	957.428
162.892	16.860	1259.435	955.662
163.906	17.014	1258.396	955.655
164.921	16.967	1257.331	954.496
165.935	17.075	1256.236	954.189
166.950	17.146	1255.957	954.288
167.964	17.148	1255.167	953.618
168.979	17.024	1254.867	952.611
169.994	17.016	1253.796	951.669
171.008	17.023	1253.190	951.162
172.023	17.093	1252.287	950.782
173.037	17.329	1251.075	951.101
174.052	17.292	1249.971	949.972
175.067	17.115	1249.212	948.320
176.081	16.997	1248.290	946.879
177.096	17.024	1246.994	945.962
178.110	17.066	1246.198	945.506
179.125	17.077	1244.703	944.353
180.140	17.284	1243.394	944.423
181.154	17.214	1242.327	943.146
182.169	17.229	1241.190	942.277
183.183	17.387	1240.057	942.210
184.198	17.437	1238.898	941.521
185.213	17.304	1238.088	940.087
186.227	17.434	1236.513	939.531
187.242	17.444	1235.593	938.799
188.256	17.555	1234.712	938.664
189.271	17.499	1234.012	937.736
190.286	17.376	1232.679	935.962
191.300	17.151	1231.933	934.076
192.315	17.041	1231.037	932.711
193.329	16.957	1230.565	931.811
194.344	17.154	1229.755	932.194
195.359	17.130	1229.450	931.749
196.373	17.172	1229.348	931.820
197.388	17.383	1228.801	932.478
198.402	17.553	1227.819	932.583
199.417	17.640	1226.909	932.284
200.432	17.691	1226.133	931.892
201.446	17.757	1225.678	931.825
202.461	17.814	1224.620	931.249
203.475	17.828	1223.859	930.665
204.490	17.660	1222.586	928.697
205.504	17.516	1221.193	926.773
206.519	17.382	1220.383	925.352
207.534	17.507	1219.127	924.992
208.548	17.510	1218.014	924.082
209.563	17.501	1217.267	923.389
210.577	17.513	1216.506	922.795
211.592	17.540	1215.420	922.033
212.607	17.769	1214.387	922.405
213.621	17.799	1213.482	921.798
214.636	17.701	1212.722	920.611
215.650	17.750	1211.683	920.006
216.665	17.843	1210.786	919.744
217.680	17.828	1209.988	918.977
218.694	17.930	1209.206	918.848
219.709	17.975	1208.377	918.382
220.723	17.881	1207.349	917.015
221.738	17.759	1206.825	915.877
222.753	17.780	1205.903	915.213
223.767	17.877	1205.218	915.131
224.782	17.924	1204.586	914.822
225.796	18.019	1204.618	915.272
226.811	18.046	1203.348	914.373
227.826	17.829	1202.849	912.751
228.840	17.901	1201.610	912.113
229.855	17.890	1200.793	911.358
230.869	17.903	1199.995	910.741
231.884	17.837	1199.381	909.842
232.899	17.940	1198.239	909.442
233.913	17.834	1197.380	908.148
234.928	17.774	1196.598	907.155
235.942	17.739	1195.751	906.242
236.957	17.741	1195.155	905.721
237.972	17.887	1194.554	905.964
238.986	17.753	1193.905	904.677
240.001	17.840	1193.069	904.426
241.015	17.843	1192.313	903.792
242.030	17.937	1191.415	903.529
243.045	17.903	1190.960	902.920
244.059	17.939	1189.889	902.219
245.074	17.990	1189.062	901.780
246.088	18.008	1188.605	901.453
247.103	18.077	1187.422	900.839
248.117	18.161	1186.869	900.783
249.132	18.438	1185.915	901.433
250.147	18.541	1185.128	901.299
251.161	18.589	1184.941	901.327
252.176	18.414	1184.283	899.829
253.190	18.562	1183.814	900.171
254.205	18.574	1183.362	899.808
255.220	18.669	1182.143	899.304
256.234	18.665	1181.673	898.841
257.249	18.622	1180.794	897.869
258.263	18.600	1180.104	897.149
259.278	18.659	1179.651	897.034
260.293	18.593	1179.097	896.190
261.307	18.687	1178.502	896.147
262.322	18.754	1177.896	895.957
263.336	18.754	1177.384	895.492
264.351	18.802	1176.839	895.245
265.366	18.810	1176.202	894.727
266.380	18.821	1175.203	893.943
267.395	18.723	1174.200	892.591
268.409	18.659	1173.499	891.648
269.424	18.636	1173.076	891.128
270.439	18.687	1172.597	890.950
271.453	18.671	1171.648	890.063
272.468	18.603	1170.585	888.826
273.482	18.550	1170.080	888.093
274.497	18.666	1169.666	888.300
275.512	18.705	1168.836	887.792
276.526	18.627	1168.015	886.685
277.541	18.507	1167.329	885.469
278.555	18.587	1166.775	885.381
279.570	18.827	1165.863	885.850
280.585	18.928	1164.981	885.621
281.599	18.844	1164.428	884.688
282.614	18.724	1163.111	882.995
283.628	18.662	1161.835	881.630
284.643	18.834	1160.889	881.715
285.657	18.847	1159.502	880.647
286.672	18.803	1159.298	880.191
287.687	18.785	1158.524	879.434
288.701	18.911	1157.371	879.127
289.716	18.820	1156.661	878.043
290.730	18.775	1156.600	877.691
291.745	18.848	1155.872	877.434
292.760	18.915	1154.912	876.968
293.774	18.925	1154.171	876.375
294.789	19.033	1154.043	876.755
295.803	18.980	1153.078	875.674
296.818	18.925	1152.229	874.669
297.833	18.933	1151.302	873.928
298.847	18.960	1150.360	873.277
299.862	18.949	1149.686	872.633
300.876	18.859	1149.498	871.953
301.891	19.014	1148.623	871.999
302.906	19.140	1147.598	871.781
303.920	19.313	1146.965	872.101
304.935	19.219	1146.858	871.463
305.949	19.431	1145.886	871.720
306.964	19.368	1145.128	870.749
307.979	19.259	1144.680	869.780
308.993	19.277	1143.751	869.089
310.008	19.273	1143.032	868.445
311.022	19.357	1142.263	868.207
312.037	19.361	1141.113	867.275
313.052	19.341	1139.451	865.837
314.066	19.131	1139.406	864.672
315.081	19.110	1138.278	863.634
316.095	19.127	1137.190	862.817
317.110	19.061	1136.857	862.159
318.125	19.081	1136.009	861.537
319.139	19.084	1134.879	860.618
320.154	19.171	1134.234	860.488
321.168	19.084	1133.931	859.747
322.183	19.266	1132.916	859.809
323.197	19.188	1132.794	859.252
324.212	19.259	1132.166	859.052
325.227	19.191	1131.353	858.020
326.241	19.135	1130.994	857.397
327.256	19.194	1129.716	856.643
328.270	19.213	1128.785	855.957
329.285	19.273	1127.740	855.385
330.300	19.251	1127.008	854.646
331.314	19.130	1126.479	853.570
332.329	19.240	1125.254	853.113
333.343	19.308	1124.530	852.824
334.358	19.386	1124.175	852.864
335.373	19.294	1123.579	851.881
336.387	19.300	1122.663	851.142
337.402	19.508	1121.229	851.002
338.416	19.496	1120.373	850.218
339.431	19.636	1119.954	850.517
340.446	19.650	1119.470	850.143
341.460	19.744	1118.874	850.076
342.475	19.764	1118.122	849.529
343.489	19.690	1117.374	848.523
344.504	19.866	1116.012	848.274
345.519	19.714	1115.904	847.374
346.533	19.887	1114.779	847.290
347.548	19.902	1113.890	846.613
348.562	19.909	1113.029	845.917
349.577	19.771	1112.304	844.617
350.592	19.681	1111.297	843.339
351.606	19.551	1110.631	842.127
352.621	19.581	1110.190	841.861
353.635	19.594	1109.007	840.956
354.650	19.556	1108.563	840.360
355.665	19.610	1107.896	840.041
356.679	19.782	1107.110	840.208
357.694	19.625	1106.850	839.174
358.708	19.701	1106.461	839.173
359.723	19.763	1105.474	838.651
360.738	19.823	1104.669	838.255
361.752	19.880	1104.162	838.075
362.767	19.744	1103.584	836.902
363.781	19.803	1103.032	836.694
364.796	19.937	1102.227	836.658
365.810	20.005	1102.078	836.802
366.825	20.085	1101.550	836.712
367.840	20.092	1101.030	836.273
368.854	20.332	1099.978	836.559
369.869	20.192	1099.712	835.607
370.883	20.202	1098.314	834.521
371.898	20.129	1097.519	833.492
372.913	20.139	1096.932	833.021
373.927	20.159	1096.960	833.063
374.942	20.144	1096.200	832.343
375.956	20.136	1095.695	831.847
376.971	20.171	1094.719	831.201
377.986	20.255	1094.291	831.203
379.000	20.327	1093.726	831.043
380.015	20.499	1093.268	831.446
381.029	20.405	1092.839	830.597
382.044	20.402	1092.143	829.978
383.059	20.392	1091.263	829.189
384.073	20.330	1090.377	828.148
385.088	20.535	1089.164	828.130
386.102	20.381	1088.596	826.890
387.117	20.294	1087.294	825.414
388.132	20.290	1086.134	824.442
389.146	20.306	1085.548	824.002
390.161	20.256	1084.830	823.144
391.175	20.191	1084.374	822.419
392.190	20.311	1083.828	822.503
393.205	20.326	1082.810	821.727
394.219	20.454	1082.158	821.767
395.234	20.288	1081.419	820.347
396.248	20.302	1079.975	819.243
397.263	20.299	1078.831	818.288
398.278	20.194	1078.521	817.486
399.292	20.226	1077.782	817.003
400.307	20.240	1076.691	816.172
401.321	20.125	1076.021	815.050
402.336	20.200	1075.428	814.882
403.350	20.321	1074.612	814.759
404.365	20.270	1073.993	813.980
405.380	20.392	1073.330	813.977
406.394	20.380	1072.691	813.366
407.409	20.501	1071.875	813.237
408.423	20.557	1071.480	813.132
409.438	20.622	1070.766	812.818
410.453	20.591	1069.942	811.978
411.467	20.631	1069.476	811.741
412.482	20.759	1068.818	811.765
413.496	20.841	1067.910	811.385
414.511	20.910	1066.835	810.817
415.526	20.935	1066.683	810.748
416.540	20.946	1066.584	810.649
417.555	20.912	1065.759	809.796
418.569	20.767	1065.286	808.688
419.584	20.965	1064.988	809.309
420.599	20.996	1064.139	808.738
421.613	150.773	1401.471	1785.018
422.628	138.701	1450.618	1785.144
