DTS Sentinel unit serial number:	SN413079Multiplexer serial number:	ORYXHardware model number:	OX4-SRSoftware version number:	ORYX F/W v4.00 Oryx Data Collector v3.7.2.0data status	okinstallation	princeton_trtdifferential loss correction	single-endedforward channel	channel 2reverse channel	N/Adate	2019/09/12time	12:57:11forward acquisition time	60.00reverse acquisition time	0.00gamma	496.2192k internal	0.2297k external	0.2297temperature offset calibration	1.0077default loss term (dB/km)	0.3790temperature slope calibration	1.0000multiplexer offset coefficient	1.0000multiplexer slope coefficient	1.0000fibre end	0.00T internal ref (°C)	40.81T ext. ref 1 (°C)	2.06T ext. ref 2 (°C)	37.34length (m)	temperature (°C)	Stokes	anti-Stokes-747.200	5.480	-0.144	0.108
-746.185	546.047	-0.057	-0.140
-745.171	-68.956	0.098	-0.039
-744.156	115.459	-0.088	0.110
-743.142	27.802	-0.225	-0.193
-742.127	-15.626	-0.374	0.243
-741.112	800.000	0.100	-0.396
-740.098	164.601	-0.289	0.416
-739.083	-126.299	0.185	-0.028
-738.069	281.280	0.160	0.292
-737.054	800.000	-0.031	-0.112
-736.039	81.847	-0.292	-0.323
-735.025	-99.820	0.320	0.082
-734.010	-126.029	0.083	0.013
-732.996	280.797	-0.205	-0.374
-731.981	-200.000	0.061	-0.515
-730.966	-96.967	-0.253	-0.068
-729.952	-159.736	-0.195	-0.011
-728.937	-78.662	-0.156	-0.055
-727.923	800.000	0.108	0.403
-726.908	-35.984	-0.116	0.064
-725.894	316.213	0.205	-0.394
-724.879	301.808	0.054	0.102
-723.864	-149.631	-0.554	-0.045
-722.850	-200.000	0.015	0.119
-721.835	511.242	-0.261	0.619
-720.821	-200.000	0.029	0.233
-719.806	-200.000	-0.004	-0.026
-718.791	512.652	0.074	-0.176
-717.777	24.011	-0.231	-0.194
-716.762	-92.293	0.119	-0.034
-715.748	347.216	-0.079	0.158
-714.733	-83.588	0.257	0.084
-713.718	-200.000	0.004	0.109
-712.704	800.000	-0.062	0.185
-711.689	-200.000	-0.051	0.303
-710.675	-56.148	-0.332	-0.151
-709.660	136.200	-0.061	-0.081
-708.645	-66.351	-0.071	0.029
-707.631	59.462	-0.133	-0.133
-706.616	56.018	0.206	-0.204
-705.602	-200.000	-0.033	0.251
-704.587	412.007	-0.071	-0.154
-703.572	307.877	-0.126	0.240
-702.558	-13.613	0.143	-0.094
-701.543	-43.848	0.238	-0.122
-700.529	109.154	0.053	-0.064
-699.514	-117.777	-0.210	-0.039
-698.499	-58.944	0.182	-0.080
-697.485	800.000	-0.101	0.382
-696.470	358.377	0.248	0.506
-695.456	-18.490	-0.127	0.081
-694.441	-15.926	0.010	-0.006
-693.426	-55.208	-0.225	-0.103
-692.412	-93.518	-0.220	0.062
-691.397	224.599	-0.076	-0.125
-690.383	-159.433	-0.303	0.017
-689.368	-112.572	-0.213	0.043
-688.354	-34.053	-0.156	-0.087
-687.339	330.982	-0.079	0.156
-686.324	-134.987	-0.065	-0.008
-685.310	-173.943	-0.291	-0.009
-684.295	-26.951	-0.071	0.042
-683.281	-200.000	0.005	0.052
-682.266	-200.000	0.003	-0.161
-681.251	124.185	-0.054	-0.069
-680.237	-93.773	-0.149	-0.042
-679.222	684.378	-0.046	-0.122
-678.208	41.627	0.123	0.113
-677.193	800.000	-0.071	-0.236
-676.178	-10.957	-0.280	0.188
-675.164	301.033	-0.116	0.218
-674.149	800.000	-0.056	-0.213
-673.135	-114.837	-0.295	0.057
-672.120	-12.323	-0.208	-0.138
-671.105	800.000	0.090	0.295
-670.091	-9.866	-0.171	0.116
-669.076	-200.000	0.017	0.097
-668.062	-114.765	-0.156	0.030
-667.047	519.451	0.055	0.131
-666.032	55.563	-0.146	-0.144
-665.018	399.307	-0.084	0.180
-664.003	-200.000	-0.023	-0.327
-662.989	8.586	0.167	0.128
-661.974	800.000	-0.089	-0.366
-660.959	-69.892	-0.468	0.182
-659.945	800.000	0.102	-0.320
-658.930	244.562	0.051	-0.088
-657.916	-200.000	0.087	-0.453
-656.901	-200.000	0.042	-0.332
-655.886	-14.025	-0.256	-0.168
-654.872	-37.447	0.049	0.027
-653.857	106.986	0.142	-0.172
-652.843	-200.000	0.015	-0.225
-651.828	-36.200	0.337	-0.185
-650.814	-142.090	0.024	0.002
-649.799	725.539	-0.030	0.082
-648.784	66.657	-0.131	0.135
-647.770	-123.432	0.038	-0.006
-646.755	184.563	0.171	0.258
-645.741	59.458	-0.175	-0.176
-644.726	-184.058	-0.200	-0.003
-643.711	460.228	0.040	0.091
-642.697	800.000	-0.066	-0.293
-641.682	16.952	0.222	-0.179
-640.668	433.730	-0.160	0.354
-639.653	239.774	0.169	-0.287
-638.638	-200.000	-0.023	-0.501
-637.624	-200.000	0.010	0.402
-636.609	14.810	0.239	0.190
-635.595	800.000	0.018	0.056
-634.580	-55.563	-0.161	-0.073
-633.565	-115.302	-0.019	-0.004
-632.551	-125.331	0.265	-0.041
-631.536	85.909	-0.287	0.322
-630.522	94.046	-0.124	0.143
-629.507	800.000	0.055	-0.188
-628.492	233.522	0.139	-0.233
-627.478	165.800	0.089	0.128
-626.463	-200.000	0.039	0.435
-625.449	-123.892	-0.071	-0.011
-624.434	-67.549	-0.040	0.016
-623.419	-156.842	-0.203	-0.013
-622.405	-200.000	-0.027	0.181
-621.390	-12.415	0.317	-0.211
-620.376	137.568	-0.234	-0.312
-619.361	-6.449	-0.227	-0.157
-618.346	59.149	0.167	-0.167
-617.332	198.589	0.062	-0.097
-616.317	-91.138	-0.453	-0.132
-615.303	-200.000	-0.056	0.455
-614.288	39.167	0.343	-0.312
-613.273	-200.000	-0.031	-0.250
-612.259	-39.571	-0.281	0.149
-611.244	-47.069	-0.125	-0.062
-610.230	-200.000	0.003	-0.256
-609.215	-97.915	-0.323	-0.085
-608.201	-79.617	0.311	0.106
-607.186	800.000	-0.019	-0.066
-606.171	-20.720	-0.111	0.069
-605.157	-64.584	0.153	-0.063
-604.142	-168.273	0.124	-0.005
-603.128	-113.564	-0.106	-0.021
-602.113	464.825	-0.048	-0.108
-601.098	199.608	0.106	-0.165
-600.084	-200.000	-0.002	0.031
-599.069	800.000	-0.027	0.112
-598.055	-121.002	0.224	0.038
-597.040	364.331	0.052	-0.106
-596.025	480.785	0.082	0.188
-595.011	-64.972	-0.271	0.111
-593.996	28.140	0.225	-0.192
-592.982	8.773	0.214	-0.164
-591.967	-60.896	0.106	0.046
-590.952	-200.000	0.006	0.198
-589.938	160.453	-0.244	0.345
-588.923	78.944	0.085	-0.092
-587.909	-200.000	-0.000	-0.098
-586.894	104.086	0.224	0.267
-585.879	656.655	0.030	0.079
-584.865	-166.950	0.222	0.009
-583.850	-80.232	-0.207	0.070
-582.836	47.396	-0.072	0.068
-581.821	16.426	-0.119	-0.095
-580.806	-116.762	-0.086	0.016
-579.792	117.747	-0.185	0.231
-578.777	499.877	0.065	0.152
-577.763	-200.000	-0.024	0.177
-576.748	363.748	0.075	-0.153
-575.733	800.000	0.045	0.183
-574.719	-77.439	-0.334	0.118
-573.704	-182.054	-0.094	0.002
-572.690	73.483	0.104	-0.110
-571.675	107.073	0.118	-0.142
-570.661	-200.000	0.025	0.235
-569.646	-200.000	-0.005	0.134
-568.631	-157.054	-0.136	-0.008
-567.617	800.000	0.055	0.161
-566.602	109.816	0.043	-0.052
-565.588	148.046	0.027	0.037
-564.573	-200.000	0.069	0.447
-563.558	-147.658	-0.023	0.002
-562.544	144.979	0.152	0.206
-561.529	23.312	0.145	-0.121
-560.515	-140.960	0.126	-0.013
-559.500	-200.000	0.001	-0.063
-558.485	-140.394	-0.102	-0.011
-557.471	230.404	-0.183	-0.304
-556.456	5.167	-0.235	-0.175
-555.442	-23.608	-0.088	0.053
-554.427	800.000	0.063	0.180
-553.412	157.043	0.044	0.062
-552.398	115.087	-0.224	-0.277
-551.383	584.166	-0.069	-0.171
-550.369	73.242	-0.066	0.070
-549.354	60.382	-0.126	-0.126
-548.339	118.575	-0.247	-0.309
-547.325	206.822	0.124	0.196
-546.310	-200.000	-0.005	-0.110
-545.296	14.755	-0.269	-0.213
-544.281	-153.923	-0.031	0.002
-543.266	-138.990	0.127	0.014
-542.252	-20.705	0.208	-0.129
-541.237	468.873	-0.013	0.030
-540.223	34.173	-0.217	-0.192
-539.208	-117.187	0.045	0.008
-538.193	-200.000	-0.083	0.423
-537.179	120.577	0.101	0.127
-536.164	-129.911	-0.201	0.028
-535.150	216.607	0.144	0.231
-534.135	-71.342	-0.030	0.011
-533.121	-70.153	-0.193	-0.074
-532.106	-74.884	0.275	0.100
-531.091	-127.441	-0.071	0.010
-530.077	514.786	0.111	0.263
-529.062	-0.815	-0.180	-0.129
-528.048	791.086	0.056	-0.157
-527.033	-95.087	0.342	0.094
-526.018	-57.400	-0.099	0.044
-525.004	640.637	0.010	-0.025
-523.989	800.000	0.030	0.124
-522.975	-36.643	-0.158	-0.086
-521.960	-64.490	-0.245	-0.101
-520.945	-80.284	0.296	-0.100
-519.931	-90.975	-0.293	0.085
-518.916	27.019	-0.184	-0.156
-517.902	-200.000	0.038	-0.284
-516.887	-200.000	0.026	0.122
-515.872	38.217	0.055	-0.049
-514.858	-184.070	-0.166	-0.003
-513.843	-19.765	0.190	0.119
-512.829	-200.000	-0.018	0.223
-511.814	86.761	0.082	-0.091
-510.799	-24.200	0.077	0.047
-509.785	-200.000	0.024	0.116
-508.770	-56.692	0.348	-0.156
-507.756	659.667	-0.142	-0.369
-506.741	-10.467	-0.147	-0.098
-505.726	-91.307	0.143	-0.041
-504.712	484.912	0.038	-0.088
-503.697	-91.609	0.144	0.041
-502.683	-200.000	-0.346	0.000
-501.668	-50.269	-0.236	-0.113
-500.653	76.965	0.217	0.233
-499.639	-200.000	-0.026	0.223
-498.624	302.183	-0.151	0.282
-497.610	693.105	-0.134	-0.356
-496.595	-161.335	-0.254	-0.013
-495.581	800.000	-0.052	-0.164
-494.566	135.393	-0.171	-0.225
-493.551	-170.878	0.267	0.009
-492.537	-52.538	-0.107	0.050
-491.522	-128.509	0.266	0.038
-490.508	-30.955	0.175	0.100
-489.493	93.042	0.093	-0.106
-488.478	86.395	0.092	-0.103
-487.464	-200.000	-0.054	-0.452
-486.449	-98.347	-0.447	-0.116
-485.435	-200.000	-0.004	-0.304
-484.420	321.410	0.108	-0.208
-483.405	-200.000	-0.112	0.541
-482.391	226.752	0.031	0.051
-481.376	238.730	0.125	-0.210
-480.362	509.694	-0.068	0.160
-479.347	47.464	-0.225	-0.212
-478.332	62.955	0.184	0.186
-477.318	-76.541	0.187	0.066
-476.303	-48.411	0.061	-0.030
-475.289	226.466	0.089	0.146
-474.274	8.562	-0.425	0.323
-473.259	48.201	-0.094	-0.089
-472.245	-200.000	0.017	0.418
-471.230	22.503	-0.083	0.069
-470.216	-200.000	-0.014	-0.122
-469.201	-25.286	-0.074	-0.044
-468.186	53.048	0.143	-0.138
-467.172	-200.000	0.013	0.072
-466.157	25.464	-0.133	0.112
-465.143	-9.695	-0.203	-0.137
-464.128	-104.900	-0.077	0.018
-463.113	-200.000	-0.005	0.037
-462.099	-18.248	0.213	0.135
-461.084	72.585	-0.222	-0.234
-460.070	386.730	-0.124	-0.260
-459.055	-122.529	-0.119	-0.020
-458.040	189.000	-0.085	-0.128
-457.026	-108.784	-0.207	0.045
-456.011	129.493	-0.132	-0.171
-454.997	-108.094	-0.160	0.035
-453.982	141.083	0.154	-0.206
-452.968	-200.000	-0.043	-0.229
-451.953	8.075	-0.154	0.116
-450.938	-139.891	-0.378	0.040
-449.924	-79.563	-0.179	0.061
-448.909	216.707	-0.109	0.175
-447.895	76.105	0.103	-0.110
-446.880	169.859	-0.295	0.426
-445.865	-200.000	-0.039	-0.175
-444.851	307.493	-0.136	-0.255
-443.836	769.895	-0.095	-0.261
-442.822	-200.000	-0.027	0.318
-441.807	127.225	-0.162	-0.208
-440.792	125.737	-0.052	0.066
-439.778	800.000	-0.048	0.143
-438.763	800.000	0.061	-0.188
-437.749	-25.935	-0.310	-0.184
-436.734	294.875	-0.142	0.262
-435.719	25.557	-0.238	-0.200
-434.705	-16.615	-0.187	0.120
-433.690	800.000	-0.150	0.536
-432.676	-45.423	0.093	0.046
-431.661	-9.926	-0.400	-0.269
-430.646	698.006	0.085	0.227
-429.632	634.732	-0.058	0.148
-428.617	800.000	0.063	-0.231
-427.603	14.101	0.098	0.077
-426.588	354.789	-0.088	0.177
-425.573	116.579	0.117	-0.144
-424.559	89.058	-0.094	-0.106
-423.544	-123.819	0.123	0.020
-422.530	107.540	-0.273	-0.328
-421.515	401.780	-0.074	-0.157
-420.500	-200.000	0.028	0.267
-419.486	-125.293	-0.228	0.035
-418.471	-124.260	0.388	-0.061
-417.457	39.849	0.214	-0.193
-416.442	-37.959	0.167	-0.089
-415.428	-106.416	-0.206	0.046
-414.413	23.866	-0.106	0.088
-413.398	-42.147	0.247	0.128
-412.384	524.949	0.022	0.053
-411.369	800.000	-0.131	0.389
-410.355	192.563	0.197	0.299
-409.340	-128.071	-0.159	0.023
-408.325	-61.876	0.201	0.085
-407.311	87.931	0.166	0.186
-406.296	354.999	0.166	0.332
-405.282	114.759	-0.118	0.145
-404.267	-141.373	0.304	-0.031
-403.252	-200.000	-0.026	0.301
-402.238	-129.614	0.357	0.050
-401.223	46.991	-0.238	0.223
-400.209	-43.839	0.180	0.091
-399.194	-11.254	0.268	-0.178
-398.179	-132.366	0.591	0.077
-397.165	800.000	-0.033	0.139
-396.150	-113.733	0.306	-0.060
-395.136	3.203	-0.061	0.045
-394.121	140.784	0.028	-0.038
-393.106	269.956	-0.132	0.234
-392.092	800.000	0.027	0.100
-391.077	-156.490	-0.166	0.010
-390.063	92.911	0.215	-0.244
-389.048	-13.773	0.081	0.053
-388.033	191.824	-0.052	-0.080
-387.019	421.355	0.052	0.112
-386.004	-146.039	-0.267	0.024
-384.990	-14.505	0.308	-0.200
-383.975	800.000	0.075	0.262
-382.960	154.915	-0.115	-0.160
-381.946	351.540	-0.125	-0.248
-380.931	-21.559	0.157	0.096
-379.917	-200.000	0.008	0.506
-378.902	-200.000	-0.002	-0.171
-377.888	-200.000	0.040	0.215
-376.873	-181.090	0.193	0.004
-375.858	-42.716	-0.358	-0.183
-374.844	7.961	-0.135	-0.102
-373.829	800.000	0.094	-0.416
-372.815	160.675	0.090	0.126
-371.800	203.060	-0.207	0.322
-370.785	800.000	-0.039	-0.140
-369.771	152.886	0.132	0.182
-368.756	-23.436	0.290	-0.175
-367.742	36.151	0.181	0.161
-366.727	470.162	-0.095	-0.216
-365.712	28.583	-0.137	-0.116
-364.698	-63.664	-0.033	0.014
-363.683	131.619	0.057	0.074
-362.669	-200.000	0.032	0.168
-361.654	665.478	-0.052	-0.134
-360.639	197.614	0.286	0.439
-359.625	-200.000	0.014	0.095
-358.610	-116.991	0.214	-0.039
-357.596	17.656	0.075	-0.060
-356.581	-200.000	0.014	0.289
-355.566	-168.679	0.067	0.003
-354.552	77.229	-0.107	0.114
-353.537	767.385	0.131	-0.357
-352.523	-200.000	0.004	0.162
-351.508	-37.801	-0.224	0.120
-350.493	-200.000	0.056	-0.432
-349.479	800.000	0.098	-0.277
-348.464	-72.262	0.246	0.092
-347.450	13.982	-0.203	0.159
-346.435	-119.406	-0.687	-0.120
-345.420	-43.967	0.346	0.175
-344.406	-200.000	-0.019	-0.115
-343.391	-200.000	0.045	0.405
-342.377	-200.000	-0.043	-0.198
-341.362	800.000	-0.125	-0.414
-340.348	289.383	0.184	-0.335
-339.333	41.542	-0.143	-0.130
-338.318	17.545	0.160	0.128
-337.304	-55.351	0.015	0.007
-336.289	10.202	0.006	-0.005
-335.275	450.731	-0.091	-0.201
-334.260	-16.603	0.157	-0.100
-333.245	800.000	0.028	-0.101
-332.231	94.240	0.213	0.244
-331.216	-200.000	-0.005	-0.075
-330.202	-83.038	0.150	0.049
-329.187	800.000	-0.107	-0.328
-328.172	-200.000	-0.051	-0.424
-327.158	-96.496	0.178	-0.047
-326.143	58.736	0.176	0.174
-325.129	-200.000	0.019	0.151
-324.114	-93.522	0.234	-0.065
-323.099	299.201	0.110	-0.204
-322.085	-41.254	0.338	0.175
-321.070	-122.990	-0.235	-0.038
-320.056	-200.000	-0.031	0.151
-319.041	403.309	0.026	-0.055
-318.026	124.358	-0.072	0.091
-317.012	45.243	0.435	0.403
-315.997	405.570	-0.062	0.132
-314.983	370.756	-0.138	-0.282
-313.968	-52.948	-0.159	0.073
-312.953	800.000	-0.045	0.192
-311.939	243.356	-0.131	-0.220
-310.924	-87.014	0.231	-0.071
-309.910	-68.693	-0.088	-0.034
-308.895	-85.888	0.207	-0.064
-307.880	14.475	0.265	0.207
-306.866	111.007	-0.340	-0.411
-305.851	721.677	0.048	-0.129
-304.837	-69.197	-0.632	0.244
-303.822	-48.453	0.208	-0.100
-302.807	-200.000	0.008	-0.152
-301.793	-159.936	-0.227	0.012
-300.778	669.186	0.058	0.150
-299.764	287.667	0.115	0.209
-298.749	800.000	-0.017	-0.068
-297.735	-42.127	-0.036	-0.018
-296.720	-200.000	0.013	-0.168
-295.705	32.245	0.291	0.252
-294.691	-119.621	0.138	0.024
-293.676	-200.000	-0.090	-0.514
-292.662	210.150	-0.232	-0.366
-291.647	-200.000	-0.001	0.289
-290.632	576.183	0.050	-0.123
-289.618	-22.817	0.283	0.171
-288.603	308.598	0.097	0.183
-287.589	-40.273	-0.119	0.062
-286.574	-138.253	-0.187	0.021
-285.559	-179.282	0.374	0.008
-284.545	800.000	0.061	0.205
-283.530	52.170	-0.324	0.310
-282.516	60.703	0.347	0.345
-281.501	-74.454	0.304	0.110
-280.486	85.992	-0.158	0.175
-279.472	-54.504	-0.238	0.108
-278.457	-80.859	-0.040	-0.013
-277.443	-12.424	-0.293	0.192
-276.428	-200.000	0.074	-0.373
-275.413	241.666	0.022	0.038
-274.399	91.828	0.229	-0.258
-273.384	82.407	-0.104	-0.113
-272.370	-200.000	0.000	-0.119
-271.355	194.303	-0.079	-0.120
-270.340	168.480	-0.167	0.238
-269.326	800.000	0.013	0.041
-268.311	800.000	0.062	0.211
-267.297	-200.000	0.000	-0.392
-266.282	546.852	0.158	0.378
-265.267	-65.543	0.322	-0.129
-264.253	-78.160	-0.339	-0.117
-263.238	-45.125	0.316	0.158
-262.224	-37.394	-0.175	0.094
-261.209	800.000	0.063	-0.236
-260.195	800.000	0.056	-0.164
-259.180	255.723	0.121	-0.207
-258.165	-50.990	-0.071	-0.033
-257.151	800.000	0.175	-0.574
-256.136	50.687	-0.341	-0.324
-255.122	251.899	-0.114	0.195
-254.107	-92.310	0.216	0.061
-253.092	-200.000	0.052	-0.420
-252.078	800.000	0.054	-0.162
-251.063	-2.725	0.238	-0.167
-250.049	434.262	0.027	-0.059
-249.034	-200.000	-0.081	0.469
-248.019	-44.381	-0.432	-0.217
-247.005	-155.080	0.122	-0.008
-245.990	-166.588	-0.230	-0.010
-244.976	-83.012	-0.144	0.046
-243.961	9.649	0.024	-0.018
-242.946	-200.000	0.012	0.220
-241.932	-96.727	0.101	0.027
-240.917	-200.000	0.018	0.281
-239.903	17.599	0.136	-0.108
-238.888	782.980	0.038	-0.104
-237.873	-200.000	-0.020	-0.243
-236.859	-32.195	-0.089	0.050
-235.844	-161.674	0.195	0.010
-234.830	-44.561	0.195	-0.097
-233.815	-56.955	-0.131	0.058
-232.800	-94.508	-0.201	0.055
-231.786	-130.992	0.338	-0.045
-230.771	-42.810	0.477	0.243
-229.757	-144.727	-0.224	0.021
-228.742	-200.000	-0.036	-0.269
-227.727	-130.082	-0.289	-0.040
-226.713	-140.085	0.117	0.012
-225.698	-123.948	-0.061	-0.010
-224.684	-146.928	0.430	0.037
-223.669	-200.000	0.059	0.349
-222.655	800.000	-0.012	0.037
-221.640	-125.958	-0.070	-0.010
-220.625	325.623	-0.167	-0.319
-219.611	-158.147	-0.342	0.020
-218.596	-200.000	-0.053	-0.336
-217.582	-200.000	0.016	-0.181
-216.567	-103.122	-0.145	0.034
-215.552	692.172	0.076	0.200
-214.538	328.498	-0.005	-0.010
-213.523	-72.479	0.190	0.070
-212.509	379.767	0.062	0.128
-211.494	-200.000	-0.006	-0.050
-210.479	-65.310	-0.084	0.034
-209.465	52.605	-0.175	-0.167
-208.450	285.610	-0.137	0.247
-207.436	53.029	0.273	0.261
-206.421	-64.075	0.250	-0.102
-205.406	800.000	0.015	0.059
-204.392	112.489	0.097	-0.117
-203.377	10.645	0.075	0.057
-202.363	530.609	0.097	0.230
-201.348	-29.930	-0.176	0.100
-200.333	800.000	-0.086	-0.336
-199.319	-3.158	0.378	-0.263
-198.304	800.000	-0.063	-0.193
-197.290	-12.873	0.109	0.071
-196.275	36.443	-0.386	0.341
-195.260	-200.000	-0.047	0.244
-194.246	121.765	0.074	-0.092
-193.231	-113.969	0.097	0.019
-192.217	-180.029	0.064	0.001
-191.202	-12.527	-0.358	-0.234
-190.187	-64.227	-0.200	-0.082
-189.173	20.251	-0.078	-0.063
-188.158	186.154	0.056	-0.083
-187.144	-149.257	-0.291	-0.023
-186.129	69.757	-0.218	0.224
-185.114	-88.591	0.133	-0.040
-184.100	-200.000	0.065	-0.589
-183.085	-200.000	-0.042	0.349
-182.071	90.473	-0.055	-0.061
-181.056	328.513	0.199	0.382
-180.042	-61.891	-0.160	-0.067
-179.027	800.000	-0.074	0.275
-178.012	-0.193	-0.264	-0.187
-176.998	-85.294	0.318	0.099
-175.983	-200.000	0.016	-0.101
-174.969	-158.287	-0.035	-0.002
-173.954	-128.311	0.208	0.030
-172.939	-200.000	-0.046	0.377
-171.925	351.876	-0.064	0.126
-170.910	-158.872	0.212	0.012
-169.896	-28.517	0.085	0.049
-168.881	-139.178	0.274	-0.029
-167.866	800.000	0.113	-0.346
-166.852	260.653	0.136	-0.235
-165.837	332.473	0.087	-0.168
-164.823	-200.000	0.040	0.290
-163.808	-87.268	0.139	-0.042
-162.793	-115.698	-0.132	0.025
-161.779	-54.282	0.243	-0.110
-160.764	-119.030	-0.087	-0.015
-159.750	-174.936	-0.335	0.009
-158.735	114.373	0.319	-0.388
-157.720	-11.138	-0.155	-0.102
-156.706	-41.882	0.161	-0.082
-155.691	-114.432	0.198	-0.038
-154.677	-101.694	0.265	0.064
-153.662	-200.000	0.048	0.366
-152.647	94.571	0.247	-0.280
-151.633	-200.000	-0.072	0.442
-150.618	-30.696	0.202	0.114
-149.604	-57.123	0.167	0.074
-148.589	-22.771	0.153	-0.092
-147.574	-200.000	0.012	0.362
-146.560	-200.000	-0.023	0.188
-145.545	800.000	0.030	-0.111
-144.531	-36.482	0.026	-0.014
-143.516	-200.000	0.047	-0.440
-142.502	-89.778	-0.255	0.074
-141.487	-127.792	0.028	-0.004
-140.472	111.042	0.155	0.186
-139.458	800.000	0.032	0.107
-138.443	-200.000	0.004	0.426
-137.429	42.838	0.274	0.249
-136.414	-87.836	0.162	0.049
-135.399	-46.370	-0.291	-0.142
-134.385	-145.870	-0.279	-0.025
-133.370	-87.283	0.065	0.020
-132.356	800.000	0.044	-0.172
-131.341	-200.000	0.035	0.212
-130.326	36.121	0.085	0.075
-129.312	103.422	-0.086	-0.101
-128.297	15.407	0.253	-0.198
-127.283	148.821	0.142	0.191
-126.268	-48.527	0.119	0.057
-125.253	-46.959	0.096	-0.047
-124.239	16.445	0.241	-0.190
-123.224	-200.000	0.020	0.204
-122.210	780.579	-0.012	0.033
-121.195	-200.000	0.032	0.316
-120.180	-1.376	0.246	-0.173
-119.166	20.605	0.097	-0.078
-118.151	-200.000	0.025	0.312
-117.137	-200.000	-0.041	0.236
-116.122	-31.245	0.085	-0.048
-115.107	-186.245	0.043	0.001
-114.093	800.000	0.050	-0.189
-113.078	73.723	-0.066	-0.069
-112.064	157.262	-0.068	0.093
-111.049	-200.000	0.038	0.230
-110.034	184.405	0.020	-0.030
-109.020	-0.827	0.160	-0.113
-108.005	-200.000	0.017	-0.126
-106.991	-56.457	0.321	0.142
-105.976	237.674	0.070	-0.115
-104.962	-200.000	-0.092	-0.474
-103.947	477.725	-0.071	0.160
-102.932	800.000	0.079	0.221
-101.918	-120.453	0.451	-0.076
-100.903	133.651	-0.104	-0.134
-99.889	-118.374	0.085	-0.015
-98.874	-154.435	-0.175	-0.012
-97.859	-200.000	0.054	-0.439
-96.845	-121.319	-0.440	-0.073
-95.830	-45.655	0.069	-0.034
-94.816	130.959	0.124	0.158
-93.801	-178.125	0.124	-0.003
-92.786	719.265	0.067	-0.178
-91.772	-6.672	-0.045	-0.031
-90.757	634.147	-0.110	0.277
-89.743	-133.842	0.365	0.045
-88.728	-17.011	-0.140	0.088
-87.713	280.372	-0.027	-0.048
-86.699	800.000	-0.035	0.101
-85.684	-75.294	-0.098	0.035
-84.670	141.740	0.094	-0.124
-83.655	-21.582	0.169	0.103
-82.640	-200.000	-0.012	0.219
-81.626	-143.249	-0.384	0.037
-80.611	-68.070	0.391	0.152
-79.597	253.519	0.202	0.343
-78.582	-41.243	0.163	0.084
-77.567	-100.834	-0.252	0.062
-76.553	142.710	-0.227	0.300
-75.538	-138.985	0.217	-0.023
-74.524	752.888	0.079	0.213
-73.509	-200.000	0.116	0.000
-72.494	88.429	0.077	-0.085
-71.480	368.972	0.084	-0.169
-70.465	792.621	-0.060	-0.164
-69.451	-200.000	-0.037	0.197
-68.436	-81.595	-0.148	-0.048
-67.422	-78.849	-0.294	0.100
-66.407	123.287	-0.101	-0.126
-65.392	-200.000	-0.010	-0.054
-64.378	-54.176	0.236	0.107
-63.363	160.968	-0.081	-0.113
-62.349	-16.762	-0.190	-0.120
-61.334	-58.875	-1.026	-0.441
-60.319	-176.543	0.111	0.003
-59.305	800.000	-0.338	-0.960
-58.290	98.646	0.508	0.583
-57.276	800.000	0.477	1.445
-56.261	-200.000	75.954	504.987
-55.246	517.800	1329.697	3092.510
-54.232	145.483	2569.735	3420.661
-53.217	110.892	2351.146	2812.659
-52.203	50.095	1964.156	1842.695
-51.188	44.186	1753.057	1598.242
-50.173	41.273	1707.376	1534.141
-49.159	55.541	1742.018	1676.195
-48.144	60.830	1760.831	1735.222
-47.130	44.060	1725.034	1571.465
-46.115	40.847	1710.761	1533.650
-45.100	40.711	1706.241	1528.493
-44.086	40.666	1703.877	1525.972
-43.071	40.666	1700.811	1523.164
-42.057	40.730	1698.334	1521.371
-41.042	40.674	1696.773	1519.489
-40.027	40.596	1694.843	1517.099
-39.013	40.629	1692.665	1515.341
-37.998	40.680	1691.115	1514.288
-36.984	40.697	1689.712	1513.101
-35.969	40.801	1688.295	1512.563
-34.954	40.891	1686.420	1511.507
-33.940	40.805	1685.011	1509.527
-32.925	40.870	1682.627	1507.827
-31.911	40.879	1680.846	1506.239
-30.896	40.741	1679.184	1503.642
-29.881	40.827	1677.210	1502.472
-28.867	40.757	1675.762	1500.580
-27.852	40.897	1674.257	1500.230
-26.838	40.748	1673.174	1498.082
-25.823	40.876	1671.802	1497.758
-24.809	40.817	1670.398	1495.995
-23.794	40.847	1668.548	1494.501
-22.779	40.815	1667.209	1493.006
-21.765	40.886	1665.920	1492.326
-20.750	40.835	1664.008	1490.171
-19.736	40.865	1662.389	1488.882
-18.721	40.985	1660.834	1488.329
-17.706	40.884	1659.151	1486.013
-16.692	40.885	1657.921	1484.857
-15.677	40.776	1656.923	1483.086
-14.663	40.885	1654.879	1482.014
-13.648	40.838	1653.620	1480.479
-12.633	40.762	1652.150	1478.537
-11.619	40.827	1650.722	1477.687
-10.604	40.784	1649.216	1475.955
-9.590	40.795	1647.882	1474.790
-8.575	40.820	1646.298	1473.495
-7.560	40.838	1644.925	1472.344
-6.546	40.862	1643.538	1471.220
-5.531	40.771	1643.060	1470.061
-4.517	40.805	1641.927	1469.237
-3.502	40.804	1640.730	1468.103
-2.487	40.914	1639.229	1467.512
-1.473	40.927	1627.742	1457.270
-0.458	38.394	1608.101	1421.252
0.556	34.774	1606.632	1385.028
1.571	31.958	1630.807	1384.995
2.586	30.944	1644.930	1389.310
3.600	26.856	1588.453	1311.993
4.615	14.623	1467.557	1129.734
5.629	3.982	1393.295	1003.764
6.644	2.229	1383.113	985.052
7.659	2.069	1382.031	983.159
8.673	2.033	1380.434	981.704
9.688	1.900	1378.610	979.466
10.702	1.703	1375.657	976.018
11.717	5.417	1383.743	1005.588
12.731	16.775	1405.597	1095.204
13.746	25.394	1420.419	1162.705
14.761	26.755	1421.295	1172.129
15.775	26.868	1421.180	1172.664
16.790	26.874	1420.839	1172.312
17.804	27.018	1419.776	1172.263
18.819	27.232	1419.473	1173.293
19.834	27.234	1418.938	1172.756
20.848	27.308	1417.976	1172.336
21.863	27.301	1417.483	1171.779
22.877	27.280	1416.509	1170.735
23.892	27.311	1415.593	1170.072
24.907	27.165	1415.170	1168.680
25.921	27.193	1414.050	1167.835
26.936	27.210	1412.870	1166.865
27.950	27.345	1411.765	1166.716
28.965	27.288	1410.430	1165.143
29.980	27.288	1409.275	1164.089
30.994	27.353	1407.981	1163.326
32.009	27.334	1406.869	1162.187
33.023	27.312	1405.605	1160.902
34.038	27.335	1404.429	1159.974
35.053	27.260	1403.773	1158.850
36.067	27.305	1402.529	1158.004
37.082	27.270	1401.808	1157.084
38.096	27.230	1401.095	1156.143
39.111	27.193	1399.831	1154.761
40.126	27.336	1399.382	1155.193
41.140	27.228	1398.884	1153.996
42.155	27.180	1398.317	1153.121
43.169	27.218	1398.578	1153.475
44.184	27.278	1397.985	1153.264
45.199	27.191	1397.748	1152.418
46.213	27.307	1396.916	1152.366
47.228	27.250	1396.027	1151.167
48.242	27.321	1394.777	1150.485
49.257	27.410	1392.828	1149.334
50.271	27.314	1391.751	1147.741
51.286	27.236	1390.741	1146.316
52.301	27.157	1389.620	1144.794
53.315	27.249	1388.804	1144.597
54.330	27.270	1387.591	1143.627
55.344	27.228	1386.726	1142.548
56.359	27.289	1385.138	1141.526
57.374	27.216	1384.800	1140.687
58.388	27.305	1384.108	1140.571
59.403	27.309	1383.858	1140.292
60.417	27.311	1382.746	1139.286
61.432	27.223	1382.435	1138.376
62.447	27.159	1382.013	1137.531
63.461	27.255	1380.191	1136.532
64.476	27.314	1379.512	1136.239
65.490	27.196	1378.310	1134.409
66.505	27.285	1376.674	1133.520
67.520	27.382	1375.304	1132.897
68.534	27.171	1374.444	1130.773
69.549	27.281	1373.276	1130.399
70.563	27.219	1372.162	1128.996
71.578	27.190	1371.736	1128.364
72.593	27.319	1370.514	1128.060
73.607	27.269	1369.739	1127.010
74.622	27.284	1369.088	1126.466
75.636	27.289	1368.157	1125.637
76.651	27.350	1367.563	1125.421
77.666	27.273	1367.231	1124.575
78.680	27.210	1367.191	1124.055
79.695	27.294	1365.959	1123.458
80.709	27.303	1365.170	1122.768
81.724	27.273	1364.269	1121.742
82.739	27.142	1363.493	1120.195
83.753	27.173	1362.524	1119.492
84.768	27.216	1361.622	1118.916
85.782	27.285	1360.189	1118.064
86.797	27.278	1359.047	1116.983
87.812	27.320	1357.583	1115.939
88.826	27.240	1357.175	1115.016
89.841	27.342	1355.609	1114.252
90.855	27.342	1354.467	1113.216
91.870	27.261	1354.215	1112.415
92.884	27.280	1353.275	1111.659
93.899	27.335	1352.594	1111.341
94.914	27.357	1351.095	1110.142
95.928	27.301	1350.815	1109.472
96.943	27.310	1349.859	1108.647
97.957	27.416	1349.383	1108.801
98.972	27.309	1348.289	1107.151
99.987	27.434	1347.107	1106.843
101.001	27.381	1346.479	1105.910
102.016	27.253	1345.543	1104.266
103.030	27.360	1344.505	1103.963
104.045	27.323	1343.993	1103.225
105.060	27.275	1342.910	1101.941
106.074	27.316	1341.912	1101.277
107.089	27.346	1340.952	1100.571
108.103	27.425	1339.607	1099.849
109.118	27.373	1338.843	1098.808
110.133	27.425	1337.563	1097.978
111.147	27.356	1336.823	1096.856
112.162	27.349	1335.788	1095.866
113.176	27.386	1334.882	1095.251
114.191	27.333	1333.914	1094.038
115.206	27.404	1332.570	1093.267
116.220	27.345	1331.511	1091.945
117.235	27.421	1330.096	1091.146
118.249	27.273	1330.012	1090.090
119.264	27.321	1328.728	1089.234
120.279	27.453	1327.732	1089.106
121.293	27.483	1327.087	1088.660
122.308	27.492	1326.160	1087.860
123.322	27.508	1325.296	1087.148
124.337	27.453	1324.907	1086.409
125.352	27.504	1323.965	1085.843
126.366	27.427	1323.242	1084.692
127.381	27.470	1321.967	1083.807
128.395	27.575	1321.281	1083.772
129.410	27.561	1320.305	1082.797
130.424	27.489	1319.667	1081.747
131.439	27.340	1319.356	1080.513
132.454	27.446	1318.094	1080.013
133.468	27.431	1317.734	1079.531
134.483	27.443	1317.103	1078.994
135.497	27.307	1316.542	1077.632
136.512	27.490	1315.193	1077.515
137.527	27.501	1314.067	1076.561
138.541	27.523	1313.018	1075.737
139.556	27.474	1311.231	1073.888
140.570	27.433	1310.684	1073.107
141.585	27.447	1309.855	1072.412
142.600	27.474	1308.170	1071.099
143.614	27.450	1307.620	1070.409
144.629	27.541	1306.290	1069.764
145.643	27.371	1305.570	1068.080
146.658	27.241	1304.994	1066.754
147.673	27.398	1303.584	1066.422
148.687	27.383	1302.560	1065.403
149.702	27.360	1301.055	1063.942
150.716	27.395	1300.350	1063.481
151.731	27.377	1299.061	1062.224
152.746	27.364	1298.124	1061.291
153.760	27.390	1297.123	1060.528
154.775	27.442	1296.143	1059.935
155.789	27.345	1295.596	1058.829
156.804	27.438	1294.290	1058.209
157.819	27.439	1293.514	1057.490
158.833	27.430	1293.030	1056.946
159.848	27.485	1291.841	1056.203
160.862	27.542	1291.126	1055.852
161.877	27.436	1290.383	1054.537
162.892	27.541	1289.321	1054.187
163.906	27.535	1288.974	1053.775
164.921	27.612	1287.853	1053.209
165.935	27.493	1287.527	1052.161
166.950	27.608	1286.775	1052.117
167.964	27.500	1286.594	1051.253
168.979	27.476	1285.749	1050.330
169.994	27.583	1285.050	1050.284
171.008	27.561	1284.540	1049.648
172.023	27.562	1283.720	1048.890
173.037	27.519	1282.860	1047.848
174.052	27.585	1281.811	1047.276
175.067	27.553	1281.216	1046.514
176.081	27.619	1280.390	1046.125
177.096	27.534	1279.542	1044.853
178.110	27.577	1278.787	1044.389
179.125	27.589	1277.834	1043.590
180.140	27.617	1276.808	1042.820
181.154	27.499	1275.844	1041.266
182.169	27.542	1274.055	1039.956
183.183	27.530	1273.673	1039.485
184.198	27.567	1272.707	1038.813
185.213	27.605	1271.492	1037.950
186.227	27.601	1270.768	1037.241
187.242	27.565	1269.893	1036.230
188.256	27.609	1269.158	1035.791
189.271	27.565	1268.102	1034.590
190.286	27.714	1267.309	1034.692
191.300	27.624	1266.677	1033.574
192.315	27.618	1266.141	1033.016
193.329	27.610	1265.640	1032.470
194.344	27.721	1265.300	1032.730
195.359	27.819	1264.547	1032.576
196.373	27.647	1264.243	1031.265
197.388	27.465	1264.223	1030.127
198.402	27.561	1263.768	1030.209
199.417	27.567	1263.427	1029.872
200.432	27.647	1262.270	1029.286
201.446	27.569	1262.031	1028.562
202.461	27.707	1260.911	1028.340
203.475	27.649	1260.609	1027.671
204.490	27.595	1259.802	1026.622
205.504	27.666	1258.695	1026.029
206.519	27.740	1257.400	1025.298
207.534	27.693	1256.474	1024.186
208.548	27.715	1255.285	1023.251
209.563	27.651	1254.775	1022.387
210.577	27.734	1253.922	1022.068
211.592	27.691	1253.226	1021.166
212.607	27.649	1252.459	1020.214
213.621	27.789	1251.675	1020.272
214.636	27.778	1251.279	1019.793
215.650	27.658	1250.390	1018.308
216.665	27.684	1249.094	1017.311
217.680	27.798	1247.999	1016.966
218.694	27.757	1247.315	1016.088
219.709	27.741	1246.908	1015.579
220.723	27.711	1246.208	1014.752
221.738	27.597	1245.566	1013.506
222.753	27.762	1244.133	1013.165
223.767	27.806	1244.015	1013.221
224.782	27.849	1243.415	1012.882
225.796	27.926	1242.509	1012.484
226.811	27.805	1242.212	1011.482
227.826	27.730	1241.949	1010.761
228.840	27.878	1241.146	1010.835
229.855	27.912	1240.118	1010.100
230.869	27.840	1239.710	1009.279
231.884	27.858	1238.565	1008.359
232.899	27.827	1238.209	1007.806
233.913	27.905	1237.757	1007.779
234.928	27.928	1236.795	1007.036
235.942	27.965	1236.554	1006.954
236.957	28.006	1235.556	1006.274
237.972	27.937	1235.032	1005.380
238.986	27.880	1234.577	1004.607
240.001	27.989	1233.953	1004.609
241.015	27.891	1233.351	1003.495
242.030	27.997	1232.562	1003.345
243.045	27.899	1232.039	1002.294
244.059	27.959	1230.850	1001.566
245.074	27.979	1229.888	1000.806
246.088	28.044	1229.240	1000.545
247.103	28.052	1228.327	999.754
248.117	27.990	1227.528	998.679
249.132	28.016	1226.954	998.265
250.147	28.137	1225.946	998.014
251.161	28.167	1225.117	997.417
252.176	28.200	1224.676	997.151
253.190	28.023	1224.348	995.830
254.205	28.148	1223.381	995.634
255.220	27.997	1222.509	994.016
256.234	27.973	1222.347	993.665
257.249	28.097	1221.408	993.489
258.263	28.019	1221.380	992.952
259.278	28.150	1220.471	992.839
260.293	28.089	1220.088	992.110
261.307	28.223	1219.048	991.899
262.322	28.079	1218.859	990.879
263.336	28.085	1218.387	990.438
264.351	28.065	1217.909	989.856
265.366	28.119	1216.926	989.260
266.380	28.149	1216.329	988.850
267.395	28.176	1215.350	988.112
268.409	28.131	1215.124	987.597
269.424	28.301	1214.062	987.565
270.439	28.253	1213.827	987.025
271.453	28.256	1213.386	986.600
272.468	28.168	1212.175	985.053
273.482	28.147	1211.484	984.292
274.497	28.288	1210.858	984.451
275.512	28.408	1210.401	984.636
276.526	28.263	1209.467	983.014
277.541	28.283	1209.020	982.671
278.555	28.235	1208.675	982.047
279.570	28.208	1207.656	980.984
280.585	28.289	1206.213	980.162
281.599	28.280	1205.933	979.799
282.614	28.299	1205.029	979.079
283.628	28.352	1204.068	978.494
284.643	28.306	1203.371	977.596
285.657	28.267	1202.372	976.490
286.672	28.366	1201.545	976.259
287.687	28.300	1200.794	975.212
288.701	28.407	1200.267	975.269
289.716	28.337	1199.491	974.175
290.730	28.336	1198.945	973.642
291.745	28.476	1197.980	973.518
292.760	28.415	1197.884	973.027
293.774	28.418	1197.417	972.580
294.789	28.502	1196.723	972.376
295.803	28.508	1195.803	971.574
296.818	28.485	1195.370	971.011
297.833	28.422	1194.579	969.950
298.847	28.507	1193.947	969.802
299.862	28.474	1193.114	968.867
300.876	28.598	1192.078	968.591
301.891	28.565	1191.954	968.232
302.906	28.506	1191.668	967.605
303.920	28.493	1190.812	966.755
304.935	28.632	1189.362	966.221
305.949	28.487	1189.165	965.211
306.964	28.535	1188.758	965.052
307.979	28.532	1187.877	964.231
308.993	28.605	1187.223	964.001
310.008	28.701	1186.564	963.885
311.022	28.642	1185.957	962.999
312.037	28.540	1185.067	961.654
313.052	28.514	1184.269	960.783
314.066	28.580	1183.499	960.424
315.081	28.572	1182.725	959.667
316.095	28.685	1181.797	959.419
317.110	28.659	1181.034	958.580
318.125	28.559	1180.996	957.942
319.139	28.617	1180.144	957.467
320.154	28.673	1179.545	957.189
321.168	28.636	1179.014	956.480
322.183	28.617	1178.744	956.076
323.197	28.571	1178.176	955.294
324.212	28.650	1177.423	955.010
325.227	28.696	1176.952	954.779
326.241	28.777	1175.986	954.337
327.256	28.714	1175.331	953.390
328.270	28.789	1174.764	953.235
329.285	28.712	1174.199	952.293
330.300	28.854	1172.887	951.880
331.314	28.781	1171.904	950.620
332.329	28.858	1170.910	950.129
333.343	28.874	1170.833	950.068
334.358	28.830	1170.079	949.143
335.373	28.894	1169.481	948.902
336.387	28.838	1168.442	947.688
337.402	28.897	1167.563	947.197
338.416	28.929	1166.956	946.782
339.431	28.923	1166.685	946.448
340.446	28.980	1166.164	946.238
341.460	28.942	1165.606	945.506
342.475	29.067	1164.307	945.008
343.489	28.986	1163.409	943.780
344.504	29.020	1162.465	943.104
345.519	29.110	1161.440	942.649
346.533	28.985	1161.281	941.797
347.548	28.962	1160.452	940.925
348.562	29.065	1159.542	940.628
349.577	29.139	1158.978	940.469
350.592	28.907	1158.367	938.706
351.606	28.927	1157.776	938.244
352.621	28.990	1157.153	937.979
353.635	28.951	1156.607	937.252
354.650	29.080	1155.556	936.974
355.665	29.112	1155.153	936.728
356.679	29.069	1154.667	936.035
357.694	29.079	1154.302	935.705
358.708	29.125	1153.366	935.096
359.723	29.028	1152.666	933.954
360.738	29.151	1151.719	933.727
361.752	29.093	1151.054	932.814
362.767	29.079	1150.983	932.604
363.781	29.259	1150.105	932.717
364.796	29.198	1149.524	931.857
365.810	29.222	1148.977	931.450
366.825	29.118	1148.507	930.465
367.840	29.215	1147.989	930.450
368.854	29.283	1147.663	930.446
369.869	29.290	1146.310	929.304
370.883	29.256	1145.783	928.621
371.898	29.346	1144.842	928.231
372.913	29.322	1144.695	927.909
373.927	29.277	1143.893	926.949
374.942	29.326	1143.632	926.904
375.956	29.248	1143.201	926.081
376.971	29.291	1142.392	925.559
377.986	29.294	1142.103	925.257
379.000	29.318	1141.490	924.798
380.015	29.346	1141.186	924.611
381.029	29.352	1140.289	923.836
382.044	29.451	1139.371	923.502
383.059	29.371	1138.968	922.697
384.073	29.488	1137.870	922.307
385.088	29.500	1137.201	921.744
386.102	29.443	1136.367	920.703
387.117	29.429	1135.640	919.963
388.132	29.451	1134.836	919.339
389.146	29.367	1134.217	918.339
390.161	29.393	1133.688	917.960
391.175	29.452	1132.763	917.422
392.190	29.554	1132.014	917.242
393.205	29.609	1131.478	916.997
394.219	29.549	1130.824	916.087
395.234	29.550	1130.255	915.553
396.248	29.542	1129.203	914.580
397.263	29.514	1128.175	913.525
398.278	29.604	1127.869	913.643
399.292	29.543	1127.549	913.002
400.307	29.554	1126.641	912.241
401.321	29.703	1125.520	911.987
402.336	29.593	1125.238	911.137
403.350	29.643	1124.754	910.911
404.365	29.709	1123.775	910.360
405.380	29.724	1123.041	909.760
406.394	29.635	1122.790	909.039
407.409	29.751	1121.911	908.813
408.423	29.934	1120.789	908.725
409.438	29.754	1120.398	907.442
410.453	29.786	1120.015	907.212
411.467	29.847	1118.526	906.225
412.482	29.699	1118.534	905.425
413.496	29.823	1117.481	905.099
414.511	29.748	1116.975	904.241
415.526	29.793	1116.942	904.355
416.540	29.786	1116.122	903.576
417.555	29.749	1115.701	902.974
418.569	29.824	1115.030	902.721
419.584	29.909	1114.535	902.653
420.599	29.836	1114.221	901.965
421.613	88.253	1301.350	1372.596
422.628	82.928	1328.598	1372.730
