DTS Sentinel unit serial number:	SN413079Multiplexer serial number:	ORYXHardware model number:	OX4-SRSoftware version number:	ORYX F/W v4.00 Oryx Data Collector v3.7.2.0data status	okinstallation	princeton_trtdifferential loss correction	single-endedforward channel	channel 2reverse channel	N/Adate	2019/09/18time	07:19:35forward acquisition time	60.00reverse acquisition time	0.00gamma	496.2192k internal	0.2349k external	0.2349temperature offset calibration	0.9984default loss term (dB/km)	0.3790temperature slope calibration	1.0000multiplexer offset coefficient	1.0000multiplexer slope coefficient	1.0000fibre end	0.00T internal ref (°C)	23.19T ext. ref 1 (°C)	0.20T ext. ref 2 (°C)	17.55length (m)	temperature (°C)	Stokes	anti-Stokes-747.200	-102.554	0.203	0.049
-746.185	-56.305	0.111	-0.049
-745.171	-8.072	0.337	0.227
-744.156	-200.000	0.020	0.112
-743.142	-200.000	0.084	0.440
-742.127	-200.000	-0.054	0.281
-741.112	-117.587	-0.153	0.028
-740.098	-200.000	-0.020	-0.146
-739.083	0.408	-0.245	-0.174
-738.069	-200.000	-0.015	-0.160
-737.054	800.000	0.037	0.153
-736.039	-125.268	-0.487	-0.074
-735.025	175.707	0.093	-0.134
-734.010	41.731	-0.234	-0.212
-732.996	-200.000	0.005	-0.368
-731.981	-144.883	-0.174	-0.016
-730.966	-94.047	-0.204	0.056
-729.952	233.236	-0.140	-0.230
-728.937	-9.102	0.085	-0.057
-727.923	800.000	0.098	-0.312
-726.908	-98.299	-0.426	0.109
-725.894	606.311	0.061	0.151
-724.879	-112.562	0.429	-0.085
-723.864	-136.044	-0.176	0.021
-722.850	528.838	0.072	0.170
-721.835	-55.811	-0.323	0.144
-720.821	-169.185	-0.248	0.009
-719.806	32.849	0.037	0.032
-718.791	-66.363	-0.178	0.071
-717.777	-200.000	0.009	-0.248
-716.762	-67.485	-0.205	-0.080
-715.748	-200.000	0.037	-0.202
-714.733	296.393	-0.185	0.339
-713.718	-127.839	0.255	0.037
-712.704	-54.514	-0.321	-0.145
-711.689	800.000	0.073	0.209
-710.675	-34.609	-0.238	-0.130
-709.660	-145.796	-0.465	-0.041
-708.645	43.870	-0.274	0.251
-707.631	283.244	-0.015	0.027
-706.616	27.014	-0.150	0.125
-705.602	800.000	-0.003	-0.010
-704.587	333.950	-0.130	-0.251
-703.572	-63.871	0.304	0.124
-702.558	800.000	0.097	0.378
-701.543	116.222	0.086	0.105
-700.529	341.135	-0.171	0.334
-699.514	267.893	0.188	-0.329
-698.499	-74.763	0.363	0.130
-697.485	-200.000	0.040	-0.219
-696.470	-176.212	-0.115	-0.003
-695.456	-200.000	-0.032	0.178
-694.441	84.394	0.097	-0.106
-693.426	320.235	0.187	-0.354
-692.412	-200.000	0.052	0.317
-691.397	-29.305	0.120	0.069
-690.383	561.729	0.096	-0.232
-689.368	116.168	-0.047	0.058
-688.354	-63.417	0.358	-0.147
-687.339	-37.886	-0.428	-0.227
-686.324	210.297	-0.209	-0.327
-685.310	-104.425	-0.269	-0.062
-684.295	200.524	0.211	-0.323
-683.281	-200.000	-0.009	-0.115
-682.266	-200.000	0.053	0.314
-681.251	-200.000	-0.010	0.097
-680.237	-10.203	-0.074	0.049
-679.222	-200.000	-0.055	-0.503
-678.208	-200.000	-0.070	-0.333
-677.193	325.310	0.062	-0.117
-676.178	-82.747	-0.073	0.024
-675.164	800.000	-0.061	0.209
-674.149	356.931	-0.127	0.252
-673.135	217.123	0.062	0.099
-672.120	664.573	-0.105	0.269
-671.105	800.000	-0.093	-0.358
-670.091	111.027	-0.301	-0.361
-669.076	65.518	0.297	0.299
-668.062	-172.368	-0.287	-0.009
-667.047	-109.350	0.528	0.111
-666.032	-1.068	-0.104	-0.073
-665.018	-200.000	0.003	-0.192
-664.003	-186.855	-0.093	0.001
-662.989	419.468	0.191	-0.407
-661.974	466.406	-0.086	-0.192
-660.959	-200.000	-0.067	-0.400
-659.945	-200.000	-0.102	-0.545
-658.930	-200.000	-0.034	0.180
-657.916	-130.267	0.274	-0.037
-656.901	70.937	-0.076	-0.079
-655.886	-69.072	-0.149	-0.057
-654.872	26.543	0.156	-0.130
-653.857	-200.000	-0.023	0.449
-652.843	719.248	0.128	0.337
-651.828	-140.530	0.361	-0.037
-650.814	-27.096	-0.378	-0.219
-649.799	-137.407	-0.195	0.022
-648.784	-200.000	-0.010	0.048
-647.770	-53.291	-0.245	0.112
-646.755	-0.005	0.126	-0.089
-645.741	-200.000	-0.011	0.131
-644.726	-63.306	-0.146	0.060
-643.711	12.909	0.099	-0.076
-642.697	-177.218	0.188	0.005
-641.682	-157.289	-0.066	0.004
-640.668	18.543	0.268	0.213
-639.653	-200.000	-0.029	0.152
-638.638	-200.000	-0.031	-0.482
-637.624	-123.389	0.253	0.040
-636.609	-27.853	-0.202	0.116
-635.595	295.250	-0.237	0.432
-634.580	-82.178	-0.197	-0.064
-633.565	-175.373	-0.320	0.009
-632.551	-79.617	0.336	0.113
-631.536	800.000	-0.099	-0.282
-630.522	-200.000	-0.022	-0.302
-629.507	800.000	-0.057	-0.191
-628.492	264.037	0.218	-0.378
-627.478	353.284	-0.062	0.123
-626.463	-200.000	0.020	-0.218
-625.449	421.818	0.053	-0.113
-624.434	-49.632	-0.301	-0.142
-623.419	30.970	-0.184	-0.157
-622.405	-74.059	-0.027	-0.010
-621.390	-65.516	-0.221	0.088
-620.376	-58.026	0.392	-0.170
-619.361	-200.000	0.000	0.018
-618.346	-42.609	-0.180	0.091
-617.332	-53.876	-0.250	-0.113
-616.317	8.793	0.195	0.146
-615.303	-125.660	-0.049	-0.007
-614.288	279.955	-0.093	-0.165
-613.273	-200.000	-0.008	0.179
-612.259	-92.143	0.088	-0.025
-611.244	99.218	-0.169	-0.194
-610.230	154.974	0.105	0.143
-609.215	330.410	-0.116	-0.221
-608.201	800.000	0.062	-0.241
-607.186	-167.947	-0.125	0.005
-606.171	-174.133	-0.047	0.001
-605.157	6.655	-0.246	-0.182
-604.142	181.933	-0.149	-0.218
-603.128	-200.000	0.023	0.346
-602.113	-120.818	-0.105	0.018
-601.098	-200.000	-0.020	-0.102
-600.084	800.000	0.029	-0.116
-599.069	-91.360	-0.330	0.094
-598.055	45.745	0.259	-0.238
-597.040	101.238	0.185	-0.213
-596.025	-23.951	0.062	-0.037
-595.011	-46.181	0.244	0.119
-593.996	-26.164	0.062	0.036
-592.982	43.513	-0.169	-0.154
-591.967	88.622	0.201	0.222
-590.952	519.096	0.099	0.230
-589.938	-83.611	-0.093	0.030
-588.923	-9.255	0.200	-0.133
-587.909	229.254	-0.186	0.301
-586.894	-131.825	-0.125	0.016
-585.879	-136.396	-0.283	0.033
-584.865	-106.818	0.054	0.012
-583.850	117.208	0.149	0.181
-582.836	800.000	-0.039	0.145
-581.821	-155.281	0.037	0.002
-580.806	-69.893	0.139	0.053
-579.792	-68.247	-0.093	-0.036
-578.777	46.098	0.187	-0.172
-577.763	-200.000	0.036	0.505
-576.748	-5.817	0.171	-0.116
-575.733	-200.000	-0.011	-0.293
-574.719	-59.929	-0.231	-0.098
-573.704	168.270	0.119	-0.168
-572.690	125.288	-0.236	0.295
-571.675	-24.988	-0.159	-0.094
-570.661	-83.741	0.281	-0.089
-569.646	301.484	-0.100	-0.184
-568.631	-144.596	0.413	-0.038
-567.617	-128.464	-0.221	0.031
-566.602	140.307	-0.103	-0.135
-565.588	-27.273	-0.129	-0.075
-564.573	0.080	-0.245	-0.173
-563.558	-105.536	0.197	-0.044
-562.544	-144.092	0.047	-0.004
-561.529	67.749	-0.026	0.026
-560.515	117.983	0.109	0.133
-559.500	-181.469	-0.267	-0.005
-558.485	-8.071	0.063	-0.042
-557.471	-142.201	-0.142	-0.014
-556.456	754.324	0.085	-0.229
-555.442	-153.787	-0.225	-0.015
-554.427	-54.082	-0.124	0.056
-553.412	121.772	0.300	0.371
-552.398	-200.000	-0.004	-0.052
-551.383	-124.983	0.359	0.055
-550.369	-75.086	-0.159	-0.056
-549.354	81.346	-0.146	-0.156
-548.339	-91.396	-0.320	0.091
-547.325	-200.000	-0.057	-0.276
-546.310	728.000	-0.088	0.234
-545.296	-97.801	-0.326	0.084
-544.281	-91.907	-0.372	0.105
-543.266	-200.000	-0.000	0.053
-542.252	392.510	0.058	-0.119
-541.237	63.830	-0.159	0.158
-540.223	-200.000	0.179	-0.000
-539.208	43.983	0.270	-0.245
-538.193	-200.000	0.004	-0.264
-537.179	-109.054	-0.241	-0.051
-536.164	-140.941	-0.278	-0.028
-535.150	-200.000	0.012	0.333
-534.135	211.651	0.180	-0.281
-533.121	-200.000	-0.046	0.324
-532.106	7.921	-0.207	-0.154
-531.091	-46.405	0.173	-0.084
-530.077	-200.000	0.056	0.283
-529.062	-67.154	-0.159	0.062
-528.048	398.506	0.170	-0.353
-527.033	223.407	-0.076	-0.122
-526.018	-122.779	0.360	0.058
-525.004	-143.550	0.232	0.022
-523.989	-56.870	0.203	-0.089
-522.975	-23.974	-0.139	-0.082
-521.960	174.212	-0.188	-0.269
-520.945	11.661	0.159	0.121
-519.931	21.048	0.218	0.175
-518.916	-200.000	0.020	0.133
-517.902	443.862	-0.163	0.354
-516.887	800.000	0.122	0.373
-515.872	-51.581	-0.086	-0.040
-514.858	-86.202	-0.148	0.045
-513.843	181.982	-0.248	-0.361
-512.829	-110.385	-0.311	0.064
-511.814	800.000	-0.030	0.109
-510.799	327.133	0.128	-0.243
-509.785	67.658	0.111	0.112
-508.770	800.000	0.155	-0.429
-507.756	6.512	-0.254	-0.187
-506.741	-90.054	0.283	0.082
-505.726	800.000	0.069	-0.211
-504.712	-149.558	0.357	0.028
-503.697	467.615	-0.103	-0.230
-502.683	-71.121	-0.143	0.053
-501.668	-91.384	0.111	-0.031
-500.653	-14.365	0.025	0.016
-499.639	-179.480	-0.395	0.009
-498.624	-16.112	-0.273	0.172
-497.610	-33.273	0.313	0.171
-496.595	-145.395	0.029	0.003
-495.581	96.967	-0.122	-0.138
-494.566	-168.950	0.212	-0.008
-493.551	11.276	0.238	0.180
-492.537	-200.000	-0.058	0.485
-491.522	800.000	0.017	-0.047
-490.508	-28.814	0.097	0.055
-489.493	249.214	-0.347	0.581
-488.478	-200.000	0.032	-0.352
-487.464	-155.525	0.371	-0.024
-486.449	800.000	-0.114	-0.330
-485.435	-200.000	-0.048	-0.364
-484.420	-200.000	0.347	-0.001
-483.405	-200.000	0.007	-0.103
-482.391	253.623	-0.097	-0.164
-481.376	800.000	-0.071	-0.242
-480.362	-200.000	-0.051	0.234
-479.347	-200.000	0.029	-0.487
-478.332	-147.993	-0.217	-0.018
-477.318	-115.325	0.419	-0.078
-476.303	-200.000	-0.007	-0.168
-475.289	-38.259	-0.101	-0.053
-474.274	-99.453	-0.211	0.052
-473.259	-186.643	0.131	-0.002
-472.245	241.199	-0.068	-0.112
-471.230	215.633	-0.209	-0.327
-470.216	-67.465	-0.323	-0.125
-469.201	191.689	0.077	-0.115
-468.186	67.480	-0.033	-0.034
-467.172	-4.295	-0.301	0.206
-466.157	-136.400	-0.190	0.022
-465.143	78.422	-0.220	-0.232
-464.128	39.051	-0.338	0.298
-463.113	800.000	-0.125	0.379
-462.099	41.552	0.227	-0.203
-461.084	284.776	0.071	-0.126
-460.070	-185.868	-0.109	-0.002
-459.055	193.350	0.092	-0.138
-458.040	-90.303	-0.111	-0.032
-457.026	54.405	-0.088	0.084
-456.011	19.018	-0.181	0.143
-454.997	228.742	0.084	-0.135
-453.982	296.108	-0.230	-0.416
-452.968	108.204	-0.057	0.067
-451.953	355.658	0.052	0.101
-450.938	-176.975	0.366	-0.009
-449.924	4.017	0.166	-0.120
-448.909	-200.000	-0.308	0.001
-447.895	226.974	-0.112	0.180
-446.880	323.410	-0.155	0.292
-445.865	413.194	-0.041	0.087
-444.851	-94.958	-0.195	-0.052
-443.836	-124.415	0.157	-0.024
-442.822	-165.132	0.341	-0.015
-441.807	-111.422	-0.190	-0.038
-440.792	59.336	0.076	-0.074
-439.778	125.570	-0.133	0.166
-438.763	-200.000	-0.045	0.280
-437.749	-34.679	0.060	0.033
-436.734	212.776	-0.122	0.189
-435.719	-146.118	0.280	0.024
-434.705	86.145	0.254	-0.276
-433.690	123.059	-0.142	-0.176
-432.676	127.760	0.225	0.282
-431.661	9.055	0.230	-0.172
-430.646	-200.000	0.020	-0.129
-429.632	-54.434	-0.332	-0.148
-428.617	24.040	0.236	-0.192
-427.603	25.895	0.088	-0.072
-426.588	-200.000	-0.018	0.165
-425.573	128.655	-0.276	-0.347
-424.559	-30.630	0.119	-0.067
-423.544	-93.942	-0.435	0.118
-422.530	578.368	0.065	-0.156
-421.515	509.870	0.033	-0.075
-420.500	800.000	-0.078	0.332
-419.486	-169.147	0.401	-0.015
-418.471	-200.000	-0.030	0.329
-417.457	-144.292	0.217	0.020
-416.442	-200.000	0.075	-0.467
-415.428	104.435	0.113	0.131
-414.413	68.463	0.100	0.101
-413.398	-99.323	0.268	0.067
-412.384	-200.000	-0.000	0.141
-411.369	777.140	0.115	0.310
-410.355	-200.000	0.038	0.261
-409.340	37.510	0.316	-0.276
-408.325	-200.000	-0.022	0.190
-407.311	800.000	-0.086	-0.255
-406.296	-19.611	-0.281	0.171
-405.282	33.494	0.135	-0.115
-404.267	203.218	-0.053	-0.081
-403.252	-200.000	-0.008	0.084
-402.238	1.951	-0.289	0.205
-401.223	-135.744	-0.376	0.044
-400.209	-197.946	0.387	-0.002
-399.194	369.629	0.046	-0.091
-398.179	-78.414	0.220	-0.074
-397.165	57.643	-0.133	-0.128
-396.150	-23.528	0.075	-0.044
-395.136	-148.795	0.165	-0.013
-394.121	116.154	-0.163	0.196
-393.106	400.050	0.115	-0.237
-392.092	-110.478	0.111	-0.023
-391.077	389.760	-0.193	-0.393
-390.063	190.354	0.112	0.166
-389.048	800.000	0.048	0.193
-388.033	148.717	0.192	0.255
-387.019	800.000	0.020	-0.088
-386.004	800.000	0.011	0.036
-384.990	-75.326	0.106	-0.037
-383.975	197.726	0.178	0.267
-382.960	-200.000	-0.003	-0.229
-381.946	79.493	0.106	0.112
-380.931	-145.643	0.473	0.042
-379.917	-188.675	0.229	0.003
-378.902	-200.000	-0.002	0.090
-377.888	361.206	-0.158	-0.313
-376.873	6.298	-0.240	0.175
-375.858	-61.684	0.157	0.065
-374.844	675.562	-0.044	-0.112
-373.829	-122.024	0.244	-0.039
-372.815	-200.000	0.003	0.052
-371.800	-200.000	-0.074	0.476
-370.785	-200.000	-0.022	0.157
-369.771	-200.000	-0.081	-0.452
-368.756	-200.000	0.021	-0.117
-367.742	145.652	0.137	0.181
-366.727	6.811	0.116	-0.085
-365.712	87.171	-0.170	-0.185
-364.698	38.704	0.269	-0.236
-363.683	800.000	-0.053	0.219
-362.669	-93.700	0.275	0.075
-361.654	-115.997	0.173	-0.032
-360.639	416.291	0.134	0.280
-359.625	-94.212	0.351	0.095
-358.610	106.151	-0.051	-0.060
-357.596	-71.495	-0.318	-0.117
-356.581	193.932	0.108	-0.161
-355.566	-100.264	0.158	-0.039
-354.552	464.751	-0.119	0.262
-353.537	338.737	0.075	-0.143
-352.523	-136.710	0.096	0.011
-351.508	-87.579	0.222	-0.066
-350.493	-25.788	0.177	0.103
-349.479	-103.252	-0.105	-0.024
-348.464	54.774	-0.086	0.082
-347.450	10.111	-0.047	-0.035
-346.435	731.970	0.072	0.189
-345.420	800.000	0.052	-0.165
-344.406	335.984	0.084	0.160
-343.391	22.955	-0.277	0.223
-342.377	-118.571	-0.327	0.057
-341.362	78.817	0.171	-0.180
-340.348	-200.000	0.020	0.112
-339.333	-42.833	-0.449	0.224
-338.318	800.000	0.030	0.110
-337.304	-200.000	0.021	0.232
-336.289	25.997	0.277	0.227
-335.275	204.833	0.099	-0.150
-334.260	-29.018	-0.255	0.144
-333.245	-200.000	-0.008	-0.038
-332.231	73.477	-0.182	0.187
-331.216	399.925	0.055	-0.114
-330.202	23.500	0.119	-0.096
-329.187	617.721	0.094	0.231
-328.172	800.000	0.129	-0.444
-327.158	-200.000	-0.020	0.220
-326.143	-93.791	0.073	0.020
-325.129	-59.051	-0.167	0.071
-324.114	800.000	-0.056	-0.226
-323.099	800.000	-0.033	-0.098
-322.085	57.185	-0.100	-0.096
-321.070	-200.000	-0.014	0.347
-320.056	113.501	0.077	-0.092
-319.041	111.422	-0.264	0.312
-318.026	-200.000	-0.017	-0.190
-317.012	-38.697	0.376	0.195
-315.997	-8.555	0.097	0.064
-314.983	-16.075	-0.204	-0.127
-313.968	-73.699	0.241	0.086
-312.953	45.152	0.242	0.219
-311.939	-200.000	-0.040	0.189
-310.924	13.460	-0.306	-0.233
-309.910	37.480	-0.239	-0.208
-308.895	-11.334	0.071	0.046
-307.880	9.485	0.102	-0.076
-306.866	184.323	-0.239	-0.348
-305.851	175.977	-0.058	0.083
-304.837	-147.787	0.152	-0.013
-303.822	81.155	-0.190	-0.202
-302.807	800.000	0.138	0.394
-301.793	288.695	-0.146	0.259
-300.778	-200.000	-0.081	0.363
-299.764	-200.000	-0.017	-0.177
-298.749	360.682	0.085	-0.167
-297.735	-200.000	-0.019	0.161
-296.720	-45.062	-0.132	-0.065
-295.705	-200.000	0.040	0.185
-294.691	800.000	0.087	0.320
-293.676	-147.519	-0.169	0.014
-292.662	12.554	0.234	0.177
-291.647	2.065	0.108	-0.076
-290.632	-200.000	0.046	0.402
-289.618	39.380	-0.101	0.089
-288.603	-156.656	0.233	-0.014
-287.589	220.950	-0.162	-0.256
-286.574	-137.442	0.225	-0.025
-285.559	-90.606	0.261	-0.074
-284.545	-81.698	-0.597	-0.192
-283.530	-72.460	0.092	-0.033
-282.516	800.000	0.036	0.145
-281.501	-200.000	0.033	0.188
-280.486	-172.039	0.022	0.001
-279.472	-17.164	0.329	-0.203
-278.457	64.084	0.223	-0.220
-277.443	-120.997	0.139	0.023
-276.428	800.000	0.040	-0.159
-275.413	334.375	-0.058	-0.111
-274.399	681.842	0.097	0.247
-273.384	49.785	0.171	-0.158
-272.370	-73.386	-0.207	0.074
-271.355	441.254	-0.063	-0.134
-270.340	800.000	-0.028	-0.107
-269.326	-152.788	-0.161	0.011
-268.311	793.972	-0.047	-0.126
-267.297	632.340	0.098	0.243
-266.282	-200.000	0.005	-0.219
-265.267	92.988	0.155	0.171
-264.253	46.547	0.080	0.073
-263.238	202.829	-0.090	-0.136
-262.224	-200.000	0.011	0.189
-261.209	-51.865	0.359	0.164
-260.195	-9.392	-0.049	-0.032
-259.180	-144.413	-0.146	0.013
-258.165	-200.000	-0.007	0.203
-257.151	800.000	0.060	0.257
-256.136	33.569	0.137	-0.117
-255.122	-89.560	-0.501	0.144
-254.107	-108.323	-0.145	-0.031
-253.092	287.954	0.052	0.092
-252.078	663.406	0.141	-0.356
-251.063	167.711	0.165	-0.229
-250.049	764.560	-0.145	0.387
-249.034	162.929	-0.146	0.200
-248.019	-72.547	0.270	0.098
-247.005	-200.000	0.039	-0.396
-245.990	-200.000	0.051	-0.322
-244.976	265.458	-0.063	0.107
-243.961	-104.660	0.100	0.023
-242.946	-21.214	-0.254	-0.152
-241.932	48.630	0.231	0.212
-240.917	15.434	-0.291	-0.224
-239.903	300.940	-0.072	-0.131
-238.888	800.000	0.069	0.213
-237.873	331.805	0.019	0.036
-236.859	-65.073	0.369	0.146
-235.844	-160.420	0.187	-0.010
-234.830	-109.249	0.072	0.015
-233.815	713.973	-0.098	-0.254
-232.800	-35.009	0.227	-0.121
-231.786	281.001	-0.053	-0.092
-230.771	-200.000	-0.013	-0.175
-229.757	-200.000	0.008	-0.246
-228.742	-200.000	-0.026	0.146
-227.727	-147.242	-0.174	0.015
-226.713	75.556	-0.015	0.015
-225.698	31.587	-0.196	-0.165
-224.684	-61.231	0.112	-0.046
-223.669	-117.485	0.037	-0.007
-222.655	-116.765	0.474	-0.085
-221.640	-31.730	-0.263	-0.144
-220.625	-45.742	0.298	-0.144
-219.611	-43.921	-0.067	0.033
-218.596	-105.536	0.302	0.067
-217.582	246.011	0.047	0.077
-216.567	-64.446	0.143	0.057
-215.552	-133.042	-0.022	-0.003
-214.538	205.420	-0.132	-0.200
-213.523	205.209	0.224	-0.340
-212.509	96.235	0.090	0.101
-211.494	-200.000	0.005	0.117
-210.479	86.932	-0.231	-0.250
-209.465	-60.853	-0.287	0.119
-208.450	-26.499	-0.312	-0.179
-207.436	-58.472	0.233	-0.099
-206.421	119.989	0.040	-0.048
-205.406	332.126	-0.120	-0.226
-204.392	-85.087	-0.347	0.106
-203.377	8.071	-0.245	0.180
-202.363	-200.000	0.012	0.152
-201.348	336.101	0.065	-0.122
-200.333	-169.205	-0.337	0.012
-199.319	700.479	-0.037	0.096
-198.304	6.989	-0.433	0.315
-197.290	-142.493	0.290	0.028
-196.275	-121.526	0.212	0.034
-195.260	-20.892	0.245	0.147
-194.246	-200.000	0.004	0.330
-193.231	103.113	0.227	-0.260
-192.217	-200.000	-0.003	-0.017
-191.202	-56.325	-0.207	-0.090
-190.187	-197.007	-0.216	0.001
-189.173	171.515	-0.133	0.187
-188.158	-200.000	0.016	0.195
-187.144	324.007	-0.259	0.484
-186.129	-18.445	-0.163	-0.100
-185.114	89.600	0.076	-0.082
-184.100	800.000	0.112	0.303
-183.085	192.609	0.020	-0.030
-182.071	-159.809	0.258	0.014
-181.056	210.052	0.180	0.276
-180.042	41.201	-0.144	0.127
-179.027	510.368	0.049	-0.111
-178.012	46.715	-0.030	0.027
-176.998	-142.845	0.306	0.029
-175.983	383.698	-0.230	0.463
-174.969	-36.141	0.147	-0.077
-173.954	369.262	0.185	0.366
-172.939	-128.502	-0.339	-0.047
-171.925	800.000	-0.084	0.251
-170.910	-101.016	-0.170	0.041
-169.896	-125.144	0.072	-0.011
-168.881	-95.859	-0.031	-0.008
-167.866	-103.525	-0.152	0.035
-166.852	-110.013	0.497	0.102
-165.837	-182.199	0.120	-0.002
-164.823	-113.498	-0.168	0.032
-163.808	116.729	0.197	-0.236
-162.793	19.340	0.286	-0.224
-161.779	69.465	-0.145	-0.146
-160.764	3.804	-0.287	-0.204
-159.750	-26.064	-0.371	0.213
-158.735	454.589	-0.150	0.325
-157.720	-18.716	0.199	0.121
-156.706	800.000	0.052	-0.209
-155.691	412.193	-0.021	0.044
-154.677	-200.000	-0.015	-0.206
-153.662	-23.551	-0.057	0.033
-152.647	562.053	0.123	-0.291
-151.633	81.483	-0.138	0.146
-150.618	-96.317	-0.111	0.029
-149.604	-26.989	-0.199	-0.114
-148.589	178.316	0.228	-0.325
-147.574	-200.000	-0.026	0.305
-146.560	74.371	-0.170	-0.174
-145.545	-150.682	-0.052	-0.004
-144.531	47.067	0.174	-0.158
-143.516	-175.215	-0.222	0.006
-142.502	-3.696	-0.151	-0.103
-141.487	769.302	-0.028	-0.074
-140.472	97.580	-0.076	0.086
-139.458	28.818	0.433	-0.358
-138.443	36.909	-0.070	0.060
-137.429	-116.011	-0.224	-0.041
-136.414	145.802	0.102	-0.134
-135.399	800.000	-0.096	0.328
-134.385	-200.000	-0.010	-0.289
-133.370	26.764	-0.265	-0.217
-132.356	-109.166	-0.196	0.041
-131.341	47.291	-0.136	-0.123
-130.326	-200.000	0.070	-0.439
-129.312	231.462	0.178	-0.285
-128.297	-173.789	-0.150	-0.004
-127.283	290.011	0.090	-0.159
-126.268	-200.000	0.028	-0.328
-125.253	-17.396	0.120	-0.074
-124.239	106.061	-0.090	-0.104
-123.224	800.000	-0.048	-0.148
-122.210	-200.000	0.051	0.257
-121.195	-115.135	-0.349	0.064
-120.180	800.000	0.053	-0.143
-119.166	800.000	0.079	0.283
-118.151	588.730	-0.057	0.136
-117.137	215.522	-0.257	0.398
-116.122	-200.000	0.001	-0.067
-115.107	201.498	-0.151	0.227
-114.093	-62.224	0.076	-0.031
-113.078	-50.467	-0.139	-0.064
-112.064	800.000	-0.102	-0.354
-111.049	-200.000	-0.003	0.103
-110.034	168.637	-0.182	-0.252
-109.020	246.845	-0.017	-0.028
-108.005	92.713	-0.103	-0.113
-106.991	67.700	0.127	0.127
-105.976	-24.739	-0.200	0.116
-104.962	-74.868	-0.211	-0.074
-103.947	800.000	-0.105	0.383
-102.932	224.930	0.105	0.165
-101.918	-115.538	-0.254	-0.047
-100.903	-200.000	0.011	0.176
-99.889	37.331	0.352	0.304
-98.874	800.000	-0.009	-0.031
-97.859	-4.307	-0.335	0.226
-96.845	-137.630	0.190	0.021
-95.830	118.620	-0.166	-0.199
-94.816	800.000	0.190	-0.526
-93.801	-200.000	-0.031	-0.159
-92.786	139.752	0.121	-0.155
-91.772	320.164	-0.048	0.089
-90.757	168.554	0.021	-0.029
-89.743	-83.655	-0.059	0.018
-88.728	-63.181	-0.111	-0.045
-87.713	800.000	-0.069	-0.188
-86.699	-200.000	-0.037	0.333
-85.684	59.046	-0.298	-0.286
-84.670	88.078	-0.089	-0.097
-83.655	243.020	-0.068	-0.111
-82.640	347.067	-0.160	0.306
-81.626	-141.572	0.192	0.019
-80.611	75.115	0.160	-0.164
-79.597	424.069	-0.181	0.378
-78.582	338.305	-0.107	0.202
-77.567	-82.309	0.155	0.049
-76.553	62.731	0.253	0.246
-75.538	-48.906	-0.028	-0.013
-74.524	515.453	0.048	-0.110
-73.509	-200.000	0.010	-0.054
-72.494	-23.069	-0.369	0.216
-71.480	-83.565	0.340	0.106
-70.465	213.990	-0.371	-0.571
-69.451	800.000	0.050	0.144
-68.436	-23.962	-0.109	-0.063
-67.422	-49.368	0.091	0.042
-66.407	-151.115	0.326	0.024
-65.392	-200.000	0.011	-0.108
-64.378	81.765	0.238	-0.251
-63.363	22.251	0.365	-0.290
-62.349	-200.000	0.005	0.086
-61.334	75.676	-1.225	-1.258
-60.319	23.534	1.019	0.816
-59.305	446.506	-0.530	-1.133
-58.290	221.703	0.877	1.371
-57.276	360.043	0.599	1.166
-56.261	-200.000	125.362	649.364
-55.246	405.185	1582.718	3244.002
-54.232	140.473	2755.018	3535.601
-53.217	89.306	2312.094	2504.824
-52.203	32.332	1917.247	1608.951
-51.188	26.102	1712.314	1389.132
-50.173	24.066	1673.811	1342.505
-49.159	45.909	1742.770	1567.008
-48.144	43.354	1754.329	1557.662
-47.130	25.796	1705.791	1381.269
-46.115	23.351	1689.907	1349.756
-45.100	23.117	1685.236	1344.189
-44.086	23.080	1682.995	1342.074
-43.071	23.057	1680.384	1339.759
-42.057	23.042	1678.673	1338.232
-41.042	23.047	1676.093	1336.158
-40.027	23.119	1674.129	1335.079
-39.013	23.065	1672.520	1333.340
-37.998	23.044	1671.265	1332.130
-36.984	23.084	1669.961	1331.338
-35.969	23.232	1667.954	1330.797
-34.954	23.207	1666.755	1329.595
-33.940	23.193	1664.722	1327.821
-32.925	23.187	1663.221	1326.525
-31.911	23.181	1661.506	1325.056
-30.896	23.140	1660.009	1323.507
-29.881	23.177	1658.096	1322.206
-28.867	23.233	1656.733	1321.487
-27.852	23.139	1655.296	1319.587
-26.838	23.123	1653.947	1318.338
-25.823	23.221	1652.337	1317.731
-24.809	23.167	1651.508	1316.617
-23.794	23.152	1650.059	1315.300
-22.779	23.250	1648.444	1314.683
-21.765	23.243	1646.601	1313.109
-20.750	23.296	1644.804	1312.015
-19.736	23.273	1643.431	1310.698
-18.721	23.193	1642.621	1309.408
-17.706	23.199	1641.093	1308.188
-16.692	23.227	1639.124	1306.768
-15.677	23.170	1638.660	1305.929
-14.663	23.301	1636.434	1305.067
-13.648	23.164	1635.727	1303.445
-12.633	23.187	1633.906	1302.113
-11.619	23.251	1632.187	1301.158
-10.604	23.272	1630.810	1300.160
-9.590	23.215	1629.755	1298.851
-8.575	23.210	1628.257	1297.568
-7.560	23.228	1627.060	1296.694
-6.546	23.199	1625.724	1295.371
-5.531	23.173	1624.845	1294.425
-4.517	23.264	1623.278	1293.788
-3.502	23.164	1622.328	1292.250
-2.487	23.190	1620.736	1291.125
-1.473	22.828	1608.369	1278.601
-0.458	20.004	1588.245	1242.321
0.556	14.974	1590.348	1211.498
1.571	12.839	1613.961	1213.679
2.586	12.590	1626.155	1220.888
3.600	11.679	1571.934	1173.541
4.615	6.477	1464.247	1058.191
5.629	1.269	1405.360	981.912
6.644	0.273	1398.431	970.567
7.659	0.183	1397.544	969.289
8.673	0.215	1396.286	968.535
9.688	0.150	1394.001	966.445
10.702	-0.010	1390.529	962.934
11.717	2.656	1394.126	982.436
12.731	9.295	1404.498	1032.407
13.746	14.898	1412.915	1074.608
14.761	16.625	1414.553	1086.860
15.775	16.178	1412.710	1082.482
16.790	15.277	1409.787	1074.376
17.804	14.499	1407.599	1067.629
18.819	14.096	1406.187	1063.892
19.834	13.858	1405.059	1061.420
20.848	13.702	1403.351	1059.038
21.863	13.376	1402.591	1056.288
22.877	13.114	1401.845	1053.964
23.892	13.187	1400.199	1053.096
24.907	13.205	1399.131	1052.316
25.921	13.230	1398.734	1052.087
26.936	13.196	1397.555	1050.888
27.950	13.243	1396.779	1050.512
28.965	13.247	1396.195	1050.006
29.980	13.303	1394.789	1049.210
30.994	13.413	1394.012	1049.227
32.009	13.475	1392.889	1048.684
33.023	13.433	1392.003	1047.660
34.038	13.313	1390.818	1045.916
35.053	13.313	1389.370	1044.732
36.067	13.318	1388.069	1043.694
37.082	13.346	1387.267	1043.174
38.096	13.369	1386.290	1042.490
39.111	13.297	1385.914	1041.664
40.126	13.261	1384.791	1040.499
41.140	13.231	1383.696	1039.396
42.155	13.171	1383.649	1038.895
43.169	13.220	1383.045	1038.658
44.184	13.225	1382.865	1038.461
45.199	13.210	1382.588	1038.063
46.213	13.270	1381.396	1037.458
47.228	13.232	1380.797	1036.675
48.242	13.309	1379.565	1036.144
49.257	13.270	1378.127	1034.726
50.271	13.361	1376.254	1033.797
51.286	13.200	1375.623	1032.223
52.301	13.257	1373.579	1030.957
53.315	13.319	1372.628	1030.536
54.330	13.261	1371.668	1029.366
55.344	13.268	1370.153	1028.179
56.359	13.301	1369.141	1027.531
57.374	13.194	1368.125	1026.019
58.388	13.121	1367.716	1025.164
59.403	13.065	1367.502	1024.565
60.417	13.156	1366.205	1024.066
61.432	13.158	1365.474	1023.443
62.447	13.104	1364.213	1022.073
63.461	13.072	1363.044	1020.911
64.476	13.001	1362.090	1019.667
65.490	13.209	1360.707	1019.825
66.505	13.123	1358.951	1017.889
67.520	13.137	1357.823	1017.041
68.534	13.231	1356.275	1016.368
69.549	13.159	1356.093	1015.697
70.563	13.108	1354.919	1014.415
71.578	12.998	1354.001	1012.965
72.593	13.094	1352.600	1012.413
73.607	13.018	1352.188	1011.549
74.622	13.041	1351.305	1010.941
75.636	13.025	1350.454	1010.116
76.651	13.124	1349.346	1009.805
77.666	13.074	1348.904	1009.078
78.680	13.100	1348.014	1008.481
79.695	13.019	1347.411	1007.449
80.709	13.153	1346.410	1007.426
81.724	13.134	1345.711	1006.698
82.739	13.144	1344.887	1006.057
83.753	13.205	1343.641	1005.404
84.768	13.287	1342.550	1005.000
85.782	13.275	1341.583	1004.115
86.797	13.291	1340.162	1003.056
87.812	13.190	1338.707	1001.268
88.826	13.217	1337.616	1000.523
89.841	13.244	1336.758	999.962
90.855	13.281	1335.419	999.094
91.870	13.270	1335.186	998.764
92.884	13.354	1333.905	998.221
93.899	13.395	1333.124	997.798
94.914	13.390	1332.601	997.290
95.928	13.426	1331.203	996.371
96.943	13.383	1330.404	995.423
97.957	13.270	1329.614	994.067
98.972	13.360	1328.292	993.530
99.987	13.290	1327.640	992.538
101.001	13.335	1326.426	991.811
102.016	13.387	1325.296	991.186
103.030	13.365	1324.407	990.306
104.045	13.425	1323.164	989.646
105.060	13.342	1322.515	988.576
106.074	13.137	1321.227	986.302
107.089	13.216	1319.587	985.460
108.103	13.166	1318.305	984.122
109.118	13.186	1317.037	983.204
110.133	13.126	1316.143	982.094
111.147	13.230	1314.474	981.380
112.162	13.243	1312.871	980.172
113.176	13.288	1311.745	979.512
114.191	13.172	1311.558	978.602
115.206	13.300	1310.125	978.200
116.220	13.197	1308.939	976.619
117.235	13.277	1307.717	976.093
118.249	13.307	1306.084	974.963
119.264	13.207	1305.196	973.626
120.279	13.229	1304.107	972.857
121.293	13.164	1303.292	971.785
122.308	13.218	1301.929	970.997
123.322	13.164	1300.784	969.741
124.337	13.158	1299.831	968.906
125.352	13.180	1298.764	968.160
126.366	13.214	1297.250	967.139
127.381	13.185	1296.622	966.417
128.395	13.153	1295.377	965.215
129.410	13.107	1294.718	964.371
130.424	13.196	1293.627	963.992
131.439	13.196	1292.867	963.341
132.454	13.254	1291.537	962.602
133.468	13.298	1290.420	961.941
134.483	13.330	1289.718	961.522
135.497	13.243	1288.980	960.378
136.512	13.229	1287.635	959.211
137.527	13.252	1285.949	958.006
138.541	13.212	1284.803	956.833
139.556	13.350	1283.174	956.331
140.570	13.277	1282.403	955.253
141.585	13.335	1281.538	954.856
142.600	13.424	1279.850	954.031
143.614	13.417	1279.257	953.465
144.629	13.571	1277.584	953.016
145.643	13.371	1277.186	951.487
146.658	13.401	1275.601	950.391
147.673	13.327	1274.552	949.101
148.687	13.333	1273.049	947.936
149.702	13.361	1271.981	947.217
150.716	13.330	1270.552	945.889
151.731	13.307	1269.558	944.936
152.746	13.405	1267.852	944.141
153.760	13.533	1266.972	944.134
154.775	13.432	1265.925	942.692
155.789	13.586	1264.535	942.450
156.804	13.451	1263.684	940.968
157.819	13.600	1262.404	940.775
158.833	13.637	1261.534	940.253
159.848	13.673	1260.333	939.482
160.862	13.421	1260.493	938.088
161.877	13.480	1258.719	937.019
162.892	13.521	1257.450	936.223
163.906	13.490	1256.691	935.400
164.921	13.550	1255.665	934.891
165.935	13.568	1254.659	934.161
166.950	13.536	1254.034	933.431
167.964	13.495	1253.191	932.493
168.979	13.467	1252.735	931.911
169.994	13.548	1251.802	931.594
171.008	13.551	1251.193	931.074
172.023	13.585	1250.263	930.487
173.037	13.617	1249.295	929.863
174.052	13.738	1247.915	929.433
175.067	13.616	1247.052	928.024
176.081	13.609	1246.462	927.466
177.096	13.719	1245.188	927.050
178.110	13.688	1244.189	926.051
179.125	13.627	1243.017	924.757
180.140	13.606	1241.937	923.755
181.154	13.740	1240.505	923.355
182.169	13.688	1239.524	922.254
183.183	13.869	1238.130	922.137
184.198	13.736	1237.028	920.501
185.213	13.838	1235.782	920.054
186.227	13.807	1234.936	919.173
187.242	13.902	1233.829	918.796
188.256	13.865	1233.169	918.018
189.271	13.829	1231.945	916.828
190.286	13.721	1231.199	915.594
191.300	13.690	1230.769	915.017
192.315	13.698	1229.543	914.069
193.329	13.801	1228.276	913.618
194.344	13.710	1227.949	912.793
195.359	13.829	1227.366	912.934
196.373	13.972	1226.558	913.035
197.388	13.841	1226.698	912.338
198.402	13.960	1226.075	912.450
199.417	14.058	1224.898	912.031
200.432	13.975	1224.574	911.253
201.446	14.118	1223.237	910.963
202.461	14.124	1222.092	910.062
203.475	14.250	1220.825	909.726
204.490	14.049	1219.609	907.643
205.504	14.061	1218.609	906.881
206.519	13.864	1217.964	905.247
207.534	14.061	1216.618	905.240
208.548	14.129	1215.498	904.697
209.563	14.072	1214.556	903.604
210.577	14.019	1213.922	902.766
211.592	14.224	1212.754	902.932
212.607	14.125	1212.158	901.871
213.621	14.179	1211.325	901.462
214.636	14.157	1210.279	900.487
215.650	14.247	1209.484	900.300
216.665	14.082	1208.608	898.679
217.680	14.172	1207.503	898.261
218.694	14.282	1206.838	898.283
219.709	14.355	1205.618	897.688
220.723	14.321	1204.778	896.800
221.738	14.354	1204.167	896.445
222.753	14.242	1203.849	895.524
223.767	14.301	1203.007	895.135
224.782	14.336	1202.338	894.746
225.796	14.454	1201.446	894.638
226.811	14.431	1200.518	893.743
227.826	14.445	1199.962	893.323
228.840	14.379	1199.364	892.446
229.855	14.460	1198.596	892.232
230.869	14.456	1198.193	891.832
231.884	14.403	1196.885	890.497
232.899	14.391	1196.386	889.979
233.913	14.453	1195.130	889.300
234.928	14.424	1194.573	888.651
235.942	14.368	1193.703	887.626
236.957	14.402	1193.223	887.372
237.972	14.525	1192.620	887.498
238.986	14.413	1191.838	886.242
240.001	14.404	1191.352	885.756
241.015	14.570	1190.073	885.606
242.030	14.561	1189.372	884.960
243.045	14.451	1188.963	883.991
244.059	14.511	1187.842	883.402
245.074	14.578	1186.922	882.993
246.088	14.631	1185.984	882.495
247.103	14.567	1185.325	881.591
248.117	14.676	1184.653	881.587
249.132	14.703	1183.975	881.146
250.147	14.664	1183.379	880.423
251.161	14.841	1182.177	880.381
252.176	14.799	1181.757	879.769
253.190	14.900	1181.153	879.774
254.205	14.839	1181.052	879.302
255.220	14.856	1180.103	878.606
256.234	14.887	1179.683	878.374
257.249	14.949	1178.622	877.833
258.263	14.974	1178.094	877.496
259.278	14.812	1177.453	876.092
260.293	14.861	1177.266	876.132
261.307	15.080	1176.075	876.315
262.322	14.970	1175.637	875.334
263.336	15.014	1174.656	874.755
264.351	14.981	1174.622	874.483
265.366	15.132	1173.542	874.386
266.380	15.114	1172.498	873.439
267.395	14.971	1172.382	872.531
268.409	15.035	1171.566	872.179
269.424	14.971	1170.697	871.120
270.439	15.090	1170.198	871.292
271.453	15.125	1169.184	870.644
272.468	15.100	1167.933	869.505
273.482	14.954	1167.724	868.514
274.497	15.110	1167.093	868.777
275.512	15.123	1166.404	868.251
276.526	15.149	1165.528	867.659
277.541	15.089	1164.849	866.768
278.555	15.214	1164.073	866.761
279.570	15.322	1162.878	866.349
280.585	15.214	1162.478	865.417
281.599	15.255	1161.517	864.836
282.614	15.219	1160.704	863.970
283.628	15.229	1159.154	862.790
284.643	15.252	1158.749	862.530
285.657	15.250	1157.676	861.648
286.672	15.364	1156.569	861.334
287.687	15.298	1155.952	860.457
288.701	15.352	1155.263	860.147
289.716	15.318	1154.475	859.308
290.730	15.468	1153.281	859.111
291.745	15.470	1153.000	858.837
292.760	15.510	1152.228	858.388
293.774	15.372	1151.512	857.074
294.789	15.448	1151.272	857.210
295.803	15.417	1150.965	856.746
296.818	15.433	1149.672	855.786
297.833	15.385	1149.392	855.260
298.847	15.459	1148.187	854.663
299.862	15.462	1147.517	854.105
300.876	15.492	1146.892	853.718
301.891	15.605	1146.035	853.579
302.906	15.660	1145.230	853.181
303.920	15.668	1144.403	852.529
304.935	15.586	1144.028	851.763
305.949	15.633	1143.304	851.387
306.964	15.659	1142.546	850.877
307.979	15.673	1141.777	850.301
308.993	15.640	1141.341	849.733
310.008	15.796	1140.155	849.562
311.022	15.662	1139.647	848.433
312.037	15.803	1138.611	848.295
313.052	15.751	1138.036	847.533
314.066	15.805	1136.508	846.592
315.081	15.728	1135.640	845.482
316.095	15.792	1135.217	845.412
317.110	15.792	1134.725	844.973
318.125	15.802	1133.709	844.190
319.139	15.751	1133.039	843.364
320.154	15.773	1132.374	842.904
321.168	15.792	1131.858	842.540
322.183	15.715	1131.557	841.853
323.197	15.892	1130.552	841.919
324.212	15.820	1129.897	840.994
325.227	15.800	1129.727	840.693
326.241	15.836	1128.965	840.234
327.256	15.775	1127.784	838.973
328.270	15.822	1127.039	838.579
329.285	15.948	1125.721	838.155
330.300	15.688	1125.296	836.469
331.314	15.951	1124.020	836.756
332.329	15.945	1122.982	835.875
333.343	15.909	1122.127	834.986
334.358	15.887	1121.493	834.336
335.373	16.024	1120.538	834.228
336.387	15.859	1120.401	833.234
337.402	15.993	1119.194	832.925
338.416	16.018	1118.427	832.403
339.431	16.041	1118.035	832.155
340.446	16.176	1116.948	831.937
341.460	16.175	1116.296	831.373
342.475	16.197	1115.388	830.729
343.489	16.178	1114.744	830.083
344.504	16.267	1113.638	829.625
345.519	16.315	1112.594	829.008
346.533	16.267	1112.138	828.362
347.548	16.259	1111.492	827.767
348.562	16.150	1110.929	826.741
349.577	16.116	1110.327	826.050
350.592	16.280	1109.264	825.992
351.606	16.174	1108.681	824.965
352.621	16.108	1108.094	824.131
353.635	16.277	1107.104	824.149
354.650	16.232	1106.129	823.133
355.665	16.240	1105.869	822.904
356.679	16.330	1105.024	822.638
357.694	16.352	1104.419	822.224
358.708	16.357	1103.440	821.446
359.723	16.349	1103.190	821.148
360.738	16.357	1102.711	820.761
361.752	16.405	1101.928	820.339
362.767	16.380	1101.472	819.803
363.781	16.454	1100.868	819.638
364.796	16.450	1100.477	819.256
365.810	16.415	1100.105	818.737
366.825	16.534	1099.318	818.656
367.840	16.628	1098.754	818.618
368.854	16.517	1098.119	817.534
369.869	16.590	1097.310	817.214
370.883	16.579	1096.374	816.389
371.898	16.638	1095.411	815.885
372.913	16.590	1094.631	815.003
373.927	16.702	1094.085	815.064
374.942	16.661	1093.807	814.586
375.956	16.726	1093.150	814.336
376.971	16.685	1092.758	813.775
377.986	16.840	1091.894	813.805
379.000	16.642	1091.598	812.561
380.015	16.673	1091.241	812.375
381.029	16.814	1090.441	812.379
382.044	16.792	1089.476	811.486
383.059	16.879	1088.849	811.362
384.073	16.804	1088.479	810.658
385.088	16.849	1087.403	809.997
386.102	16.906	1086.041	809.183
387.117	16.899	1085.030	808.324
388.132	16.908	1084.398	807.828
389.146	16.898	1083.582	807.099
390.161	16.870	1082.497	806.085
391.175	16.869	1081.977	805.625
392.190	16.990	1081.255	805.591
393.205	17.017	1080.517	805.096
394.219	16.998	1079.957	804.517
395.234	16.982	1079.143	803.765
396.248	16.941	1078.130	802.747
397.263	16.977	1077.074	802.056
398.278	16.899	1076.469	801.166
399.292	16.988	1075.302	800.651
400.307	16.982	1074.798	800.175
401.321	16.962	1074.153	799.527
402.336	16.918	1073.519	798.779
403.350	17.017	1072.574	798.472
404.365	17.056	1072.553	798.570
405.380	17.093	1071.661	798.009
406.394	16.990	1070.893	796.883
407.409	17.126	1069.834	796.660
408.423	17.180	1069.225	796.390
409.438	17.322	1068.059	796.113
410.453	17.207	1067.833	795.339
411.467	17.284	1066.817	794.872
412.482	17.259	1066.521	794.465
413.496	17.251	1065.955	793.933
414.511	17.257	1065.449	793.517
415.526	17.310	1064.762	793.179
416.540	17.415	1064.576	793.461
417.555	17.490	1063.806	793.167
418.569	17.416	1063.396	792.448
419.584	17.497	1062.674	792.217
420.599	17.371	1062.444	791.388
421.613	107.871	1331.891	1488.344
422.628	99.605	1371.098	1488.406
