DTS Sentinel unit serial number:	SN413079Multiplexer serial number:	ORYXHardware model number:	OX4-SRSoftware version number:	ORYX F/W v4.00 Oryx Data Collector v3.7.2.0data status	okinstallation	princeton_trtdifferential loss correction	single-endedforward channel	channel 2reverse channel	N/Adate	2019/09/19time	07:47:35forward acquisition time	60.00reverse acquisition time	0.00gamma	496.2192k internal	0.2352k external	0.2352temperature offset calibration	1.0003default loss term (dB/km)	0.3790temperature slope calibration	1.0000multiplexer offset coefficient	1.0000multiplexer slope coefficient	1.0000fibre end	0.00T internal ref (°C)	19.56T ext. ref 1 (°C)	0.55T ext. ref 2 (°C)	14.79length (m)	temperature (°C)	Stokes	anti-Stokes-747.200	109.951	-0.163	0.195
-746.185	34.675	0.217	0.189
-745.171	75.040	0.081	0.085
-744.156	-48.078	0.107	0.051
-743.142	161.360	0.051	0.071
-742.127	-200.000	-0.009	-0.130
-741.112	-94.309	0.329	0.090
-740.098	-99.267	-0.259	0.065
-739.083	202.460	-0.184	0.283
-738.069	14.345	0.253	0.197
-737.054	-32.151	0.221	0.123
-736.039	-108.309	0.018	-0.004
-735.025	-200.000	-0.049	0.368
-734.010	-64.299	-0.310	-0.126
-732.996	-8.584	-0.141	-0.094
-731.981	-71.300	-0.294	-0.110
-730.966	74.263	-0.198	-0.207
-729.952	116.001	0.010	0.013
-728.937	-46.953	-0.209	-0.102
-727.923	-85.897	-0.158	-0.049
-726.908	800.000	0.060	-0.216
-725.894	25.898	-0.034	-0.028
-724.879	-200.000	0.000	0.215
-723.864	420.793	-0.062	-0.132
-722.850	-69.875	-0.485	0.184
-721.835	219.478	-0.052	0.083
-720.821	-153.078	0.151	-0.011
-719.806	89.752	0.047	0.052
-718.791	255.828	-0.030	-0.051
-717.777	98.906	0.048	-0.056
-716.762	8.428	0.293	-0.220
-715.748	-200.000	0.046	-0.303
-714.733	-121.125	-0.159	-0.027
-713.718	-200.000	0.037	-0.268
-712.704	450.915	0.078	0.171
-711.689	451.151	-0.228	-0.501
-710.675	-6.850	-0.235	-0.159
-709.660	70.295	0.043	0.044
-708.645	-149.530	0.183	-0.014
-707.631	-107.973	-0.236	0.051
-706.616	647.624	0.120	-0.307
-705.602	-98.081	-0.288	0.074
-704.587	800.000	-0.070	-0.270
-703.572	154.861	0.159	0.217
-702.558	342.550	0.155	-0.303
-701.543	-112.413	-0.080	0.016
-700.529	394.182	-0.080	0.166
-699.514	-200.000	0.062	0.467
-698.499	-46.905	0.064	0.031
-697.485	25.916	0.057	-0.047
-696.470	326.723	-0.036	-0.069
-695.456	-116.629	0.569	-0.104
-694.441	-200.000	0.030	-0.279
-693.426	-15.904	0.219	-0.139
-692.412	-118.176	-0.162	-0.029
-691.397	-72.031	-0.327	0.121
-690.383	-10.909	0.324	-0.213
-689.368	-74.011	-0.256	-0.092
-688.354	-19.629	0.087	0.054
-687.339	332.255	0.068	0.130
-686.324	234.410	-0.162	-0.266
-685.310	241.676	0.135	-0.225
-684.295	63.879	0.068	-0.068
-683.281	80.293	-0.244	0.261
-682.266	-25.592	0.127	-0.075
-681.251	800.000	-0.164	0.464
-680.237	-95.471	0.233	0.062
-679.222	-74.950	0.203	-0.073
-678.208	-7.825	-0.253	0.170
-677.193	-14.569	-0.174	0.111
-676.178	151.563	-0.194	0.263
-675.164	-82.534	0.281	-0.091
-674.149	-79.501	0.386	0.130
-673.135	-200.000	0.023	0.195
-672.120	800.000	-0.102	-0.367
-671.105	75.908	0.198	-0.208
-670.091	800.000	-0.053	-0.222
-669.076	-200.000	-0.027	-0.189
-668.062	37.584	-0.360	-0.318
-667.047	-14.170	0.128	-0.082
-666.032	800.000	-0.060	0.202
-665.018	800.000	0.043	-0.151
-664.003	-200.000	-0.032	-0.377
-662.989	-36.174	-0.223	0.120
-661.974	419.778	0.095	-0.202
-660.959	161.694	-0.166	-0.232
-659.945	311.100	0.190	-0.354
-658.930	-112.134	-0.261	-0.052
-657.916	-200.000	-0.194	0.000
-656.901	-169.816	0.177	0.006
-655.886	-95.130	-0.185	0.050
-654.872	44.550	0.234	0.214
-653.857	-200.000	0.006	-0.187
-652.843	-122.081	-0.373	0.061
-651.828	203.442	0.164	-0.252
-650.814	191.349	0.164	-0.245
-649.799	-179.276	0.091	0.002
-648.784	-46.683	-0.125	-0.061
-647.770	694.528	0.037	-0.097
-646.755	244.122	0.113	0.189
-645.741	-169.516	-0.084	-0.003
-644.726	604.028	-0.087	0.214
-643.711	-75.272	-0.311	-0.110
-642.697	311.095	-0.223	-0.415
-641.682	-200.000	-0.031	-0.322
-640.668	-200.000	-0.050	0.232
-639.653	-28.065	-0.125	0.072
-638.638	-200.000	0.015	0.180
-637.624	66.610	0.302	-0.305
-636.609	-33.566	-0.474	-0.260
-635.595	-142.802	0.197	0.019
-634.580	-75.284	-0.192	-0.068
-633.565	743.344	-0.065	-0.173
-632.551	-155.237	0.045	0.003
-631.536	-200.000	-0.011	0.129
-630.522	-200.000	0.013	0.079
-629.507	-10.282	-0.253	0.167
-628.492	-101.489	-0.211	-0.051
-627.478	-98.605	-0.184	0.047
-626.463	-65.284	-0.163	0.065
-625.449	-52.567	-0.211	-0.097
-624.434	800.000	0.082	0.275
-623.419	-200.000	-0.002	-0.029
-622.405	259.843	0.150	-0.258
-621.390	-200.000	-0.048	0.432
-620.376	370.332	0.100	-0.201
-619.361	-200.000	-0.048	-0.308
-618.346	-129.321	0.077	0.011
-617.332	445.711	0.053	0.116
-616.317	-80.787	-0.458	0.151
-615.303	-116.626	0.402	-0.073
-614.288	800.000	0.040	-0.172
-613.273	141.065	-0.172	-0.226
-612.259	-200.000	-0.005	0.232
-611.244	-200.000	-0.051	-0.458
-610.230	206.206	-0.117	0.181
-609.215	-200.000	-0.013	0.293
-608.201	44.630	-0.190	-0.173
-607.186	-101.400	0.278	-0.067
-606.171	-51.944	0.230	0.106
-605.157	10.205	0.210	0.159
-604.142	767.218	0.120	-0.324
-603.128	17.193	-0.104	-0.082
-602.113	-4.358	0.002	0.001
-601.098	17.996	-0.198	-0.156
-600.084	-42.711	-0.058	0.029
-599.069	-193.191	-0.517	-0.005
-598.055	-132.399	0.286	0.037
-597.040	-70.724	-0.159	0.060
-596.025	109.690	0.138	-0.164
-595.011	-118.330	-0.198	-0.035
-593.996	198.444	0.073	-0.111
-592.982	4.408	-0.191	0.139
-591.967	-200.000	0.005	-0.056
-590.952	186.975	-0.083	0.123
-589.938	195.575	0.041	-0.062
-588.923	144.229	-0.078	0.103
-587.909	-59.529	-0.403	0.171
-586.894	58.262	0.222	0.216
-585.879	262.738	-0.212	-0.364
-584.865	591.102	-0.033	0.081
-583.850	-77.977	0.235	0.080
-582.836	800.000	-0.087	-0.368
-581.821	-200.000	-0.036	-0.235
-580.806	86.873	-0.119	-0.130
-579.792	-48.467	0.313	-0.149
-578.777	248.132	-0.136	-0.229
-577.763	-137.808	-0.344	0.038
-576.748	-169.473	0.121	-0.004
-575.733	-8.885	-0.166	-0.110
-574.719	-108.410	-0.259	0.055
-573.704	-104.183	0.291	-0.067
-572.690	800.000	-0.049	-0.178
-571.675	179.952	0.166	-0.241
-570.661	711.975	-0.087	-0.229
-569.646	22.277	0.182	0.148
-568.631	-200.000	0.179	0.000
-567.617	-6.490	0.212	-0.143
-566.602	-43.219	0.025	0.012
-565.588	-200.000	-0.019	0.139
-564.573	-200.000	-0.017	-0.240
-563.558	-104.110	0.140	-0.032
-562.544	-200.000	0.015	0.256
-561.529	-95.022	0.110	0.029
-560.515	-153.810	-0.307	0.021
-559.500	119.018	-0.076	-0.093
-558.485	109.707	0.136	-0.162
-557.471	-200.000	-0.013	0.095
-556.456	800.000	-0.028	-0.092
-555.442	-85.549	-0.086	0.026
-554.427	-158.682	0.069	0.004
-553.412	-200.000	0.004	-0.146
-552.398	-110.360	-0.131	0.027
-551.383	659.795	0.066	-0.169
-550.369	397.009	-0.091	-0.189
-549.354	-58.525	-0.221	-0.095
-548.339	-153.692	0.156	-0.011
-547.325	423.516	-0.056	0.119
-546.310	-97.660	0.179	-0.046
-545.296	25.959	-0.215	-0.177
-544.281	-200.000	-0.026	-0.403
-543.266	-99.865	0.190	-0.047
-542.252	-96.389	-0.181	-0.047
-541.237	800.000	0.053	0.207
-540.223	-200.000	0.020	0.200
-539.208	800.000	0.057	0.173
-538.193	98.200	0.221	0.252
-537.179	86.460	0.065	-0.071
-536.164	-55.030	-0.059	-0.026
-535.150	-200.000	0.072	-0.335
-534.135	780.350	-0.055	-0.150
-533.121	1.509	0.101	-0.072
-532.106	6.027	0.241	0.177
-531.091	800.000	0.115	-0.320
-530.077	-45.708	-0.044	-0.022
-529.062	-2.116	0.191	-0.133
-528.048	60.787	0.161	0.158
-527.033	37.986	-0.282	0.248
-526.018	800.000	0.058	-0.219
-525.004	165.391	0.119	-0.166
-523.989	-200.000	0.005	0.180
-522.975	310.276	0.021	0.038
-521.960	800.000	-0.023	-0.096
-520.945	-200.000	0.025	0.243
-519.931	217.566	-0.029	0.046
-518.916	340.292	-0.271	0.523
-517.902	74.689	-0.146	0.152
-516.887	-86.426	-0.346	0.105
-515.872	15.829	-0.269	0.209
-514.858	-138.602	-0.048	-0.005
-513.843	-136.870	-0.130	0.015
-512.829	138.145	-0.119	-0.154
-511.814	342.259	-0.300	0.581
-510.799	178.111	-0.154	0.222
-509.785	356.838	-0.173	-0.340
-508.770	-75.038	-0.273	-0.097
-507.756	561.964	-0.117	0.279
-506.741	-200.000	-0.019	0.273
-505.726	61.708	-0.029	0.029
-504.712	-22.369	-0.128	-0.077
-503.697	169.937	0.229	-0.324
-502.683	-125.539	-0.215	0.032
-501.668	707.721	0.166	-0.432
-500.653	147.766	0.058	0.077
-499.639	255.260	-0.126	0.213
-498.624	266.197	0.080	0.138
-497.610	-115.162	0.175	-0.033
-496.595	-172.235	0.083	0.003
-495.581	92.961	0.121	0.135
-494.566	-125.504	-0.263	-0.039
-493.551	-200.000	0.002	0.115
-492.537	800.000	0.075	0.235
-491.522	800.000	0.018	0.062
-490.508	-15.652	0.187	0.118
-489.493	-141.765	-0.081	0.008
-488.478	-111.183	0.100	0.020
-487.464	-200.000	0.038	0.185
-486.449	-200.000	-0.052	0.415
-485.435	-38.314	-0.227	0.119
-484.420	-200.000	0.016	0.143
-483.405	-136.680	0.155	-0.018
-482.391	-16.214	0.330	-0.207
-481.376	66.532	0.193	0.194
-480.362	-200.000	-0.024	-0.441
-479.347	-133.166	-0.048	-0.006
-478.332	-143.114	-0.024	-0.002
-477.318	-83.219	-0.326	-0.103
-476.303	-185.715	0.127	0.002
-475.289	-200.000	-0.021	0.460
-474.274	-200.000	0.018	0.213
-473.259	437.747	0.133	0.287
-472.245	-200.000	0.036	-0.232
-471.230	-1.934	-0.113	-0.078
-470.216	63.540	-0.236	0.234
-469.201	-130.292	-0.298	0.040
-468.186	144.757	-0.176	-0.232
-467.172	-63.049	0.191	0.078
-466.157	676.728	-0.081	-0.209
-465.143	159.149	0.317	0.435
-464.128	143.063	-0.041	-0.053
-463.113	43.308	0.251	0.226
-462.099	630.114	0.147	-0.366
-461.084	-140.175	-0.267	-0.028
-460.070	-25.028	-0.222	-0.130
-459.055	-133.109	0.055	-0.007
-458.040	15.230	-0.168	0.130
-457.026	64.643	-0.228	-0.227
-456.011	-68.602	-0.137	-0.052
-454.997	-36.227	0.245	0.131
-453.982	83.056	-0.360	-0.386
-452.968	172.852	-0.082	-0.116
-451.953	-141.128	0.077	-0.008
-450.938	800.000	-0.037	0.110
-449.924	20.601	0.259	0.207
-448.909	-105.274	0.165	-0.037
-447.895	800.000	-0.109	-0.467
-446.880	54.865	-0.329	-0.313
-445.865	47.000	0.055	-0.051
-444.851	800.000	-0.037	0.158
-443.836	-76.200	0.435	-0.151
-442.822	-200.000	-0.011	0.196
-441.807	-46.759	-0.183	-0.088
-440.792	-200.000	0.008	-0.479
-439.778	-200.000	0.012	0.082
-438.763	-65.713	0.440	0.174
-437.749	121.572	0.085	0.105
-436.734	112.458	-0.119	-0.142
-435.719	-200.000	-0.023	0.272
-434.705	-6.234	-0.256	0.172
-433.690	-200.000	-0.071	0.555
-432.676	-99.562	0.458	-0.113
-431.661	487.783	0.062	0.139
-430.646	-5.554	-0.070	0.047
-429.632	-200.000	-0.093	0.486
-428.617	24.296	0.215	0.175
-427.603	142.384	0.077	0.101
-426.588	-192.840	-0.223	0.002
-425.573	-200.000	-0.005	0.158
-424.559	800.000	-0.172	-0.599
-423.544	65.298	0.141	0.140
-422.530	800.000	0.033	-0.126
-421.515	146.190	0.193	-0.255
-420.500	-121.537	-0.078	0.013
-419.486	67.159	0.160	0.161
-418.471	-21.799	0.345	0.206
-417.457	-200.000	-0.030	0.366
-416.442	262.334	-0.103	0.175
-415.428	205.797	0.140	-0.215
-414.413	455.950	0.187	0.408
-413.398	-170.636	-0.210	-0.007
-412.384	800.000	-0.069	0.233
-411.369	95.728	0.310	-0.349
-410.355	-111.799	-0.180	-0.036
-409.340	153.307	-0.250	0.336
-408.325	42.826	-0.107	0.096
-407.311	-26.613	0.145	0.083
-406.296	-165.250	0.173	-0.007
-405.282	800.000	0.098	0.286
-404.267	79.303	0.234	0.247
-403.252	-200.000	0.053	-0.244
-402.238	-111.286	0.174	-0.035
-401.223	-200.000	0.026	-0.116
-400.209	61.121	-0.098	-0.096
-399.194	-49.141	0.446	0.210
-398.179	14.370	-0.181	-0.139
-397.165	554.689	-0.028	-0.066
-396.150	-61.737	0.285	-0.117
-395.136	-200.000	0.008	0.065
-394.121	-120.360	-0.254	0.042
-393.106	-200.000	-0.066	0.290
-392.092	-200.000	0.001	-0.086
-391.077	323.258	-0.135	0.253
-390.063	800.000	0.116	0.365
-389.048	-64.424	0.160	0.064
-388.033	73.179	-0.067	-0.069
-387.019	-4.241	0.161	-0.110
-386.004	98.156	-0.247	-0.280
-384.990	-96.630	0.155	0.040
-383.975	173.099	-0.103	0.146
-382.960	49.072	-0.157	-0.145
-381.946	103.142	0.158	-0.183
-380.931	800.000	-0.043	-0.165
-379.917	800.000	0.034	0.141
-378.902	800.000	-0.031	-0.117
-377.888	-57.125	0.309	-0.134
-376.873	-101.589	-0.192	-0.046
-375.858	800.000	-0.064	-0.273
-374.844	-200.000	0.005	-0.101
-373.829	13.208	0.233	0.177
-372.815	4.543	0.216	-0.156
-371.800	27.912	-0.159	0.131
-370.785	96.506	0.127	0.143
-369.771	-20.216	0.170	0.103
-368.756	355.307	-0.153	0.300
-367.742	-8.354	-0.161	0.107
-366.727	-90.464	0.241	0.069
-365.712	-14.263	-0.168	0.106
-364.698	-2.614	0.145	-0.100
-363.683	800.000	-0.025	0.092
-362.669	-127.376	-0.229	0.033
-361.654	-200.000	-0.069	-0.434
-360.639	800.000	0.021	-0.075
-359.625	-27.212	-0.222	-0.127
-358.610	59.871	-0.165	0.160
-357.596	800.000	0.040	-0.148
-356.581	465.418	-0.063	0.138
-355.566	57.255	0.284	0.272
-354.552	-40.362	-0.128	0.065
-353.537	-198.482	0.224	0.001
-352.523	157.848	0.025	-0.034
-351.508	26.558	-0.127	0.104
-350.493	714.899	0.116	-0.303
-349.479	-162.047	0.166	0.008
-348.464	-108.643	-0.291	-0.061
-347.450	-118.425	0.116	0.020
-346.435	-26.538	-0.089	0.051
-345.420	25.533	-0.247	-0.201
-344.406	-133.272	0.097	-0.012
-343.391	-110.620	-0.321	-0.065
-342.377	-187.012	0.168	-0.002
-341.362	-114.898	-0.410	-0.077
-340.348	710.126	-0.069	0.179
-339.333	-200.000	0.011	0.247
-338.318	-121.028	0.229	0.038
-337.304	320.012	0.183	-0.341
-336.289	-120.308	-0.180	-0.030
-335.275	-43.016	-0.164	-0.082
-334.260	267.989	0.207	-0.356
-333.245	1.290	0.104	-0.073
-332.231	-80.913	0.165	0.054
-331.216	-200.000	-0.004	0.036
-330.202	251.832	-0.182	-0.305
-329.187	23.032	0.358	-0.289
-328.172	-99.640	0.306	0.075
-327.158	-8.969	0.164	-0.108
-326.143	-200.000	-0.055	-0.266
-325.129	589.704	0.032	-0.078
-324.114	215.345	-0.105	0.164
-323.099	43.783	0.255	-0.229
-322.085	-200.000	0.056	-0.272
-321.070	-82.899	-0.069	0.022
-320.056	-200.000	0.008	0.095
-319.041	800.000	0.062	-0.183
-318.026	283.663	-0.038	-0.068
-317.012	-200.000	0.011	0.254
-315.997	-90.229	-0.102	-0.029
-314.983	-200.000	0.049	-0.239
-313.968	-37.811	-0.189	0.098
-312.953	-200.000	-0.033	-0.150
-311.939	-200.000	-0.037	-0.413
-310.924	-200.000	-0.070	0.337
-309.910	21.611	-0.074	-0.059
-308.895	491.017	0.088	-0.197
-307.880	-64.767	-0.379	-0.150
-306.866	332.862	-0.139	0.263
-305.851	800.000	-0.087	0.284
-304.837	-200.000	0.012	0.217
-303.822	3.772	0.079	-0.056
-302.807	-125.062	0.443	0.067
-301.793	-200.000	-0.025	0.377
-300.778	131.606	0.077	-0.097
-299.764	157.026	0.079	0.107
-298.749	-81.650	-0.255	0.082
-297.735	-127.864	-0.119	-0.017
-296.720	-106.106	0.402	0.088
-295.705	-121.771	0.121	0.020
-294.691	-7.952	0.067	0.044
-293.676	-82.552	-0.095	0.030
-292.662	327.841	-0.125	0.236
-291.647	800.000	-0.047	0.183
-290.632	-90.131	-0.058	0.017
-289.618	208.292	0.072	0.110
-288.603	-194.689	0.222	-0.002
-287.589	-68.828	0.073	0.028
-286.574	-23.325	0.300	-0.177
-285.559	800.000	-0.036	0.101
-284.545	-17.217	-0.056	0.035
-283.530	-118.358	-0.133	0.023
-282.516	-1.068	0.159	0.110
-281.501	17.204	0.223	-0.174
-280.486	-200.000	0.054	-0.280
-279.472	-4.003	-0.219	0.149
-278.457	536.629	0.078	-0.181
-277.443	-200.000	-0.019	0.155
-276.428	239.115	-0.135	-0.219
-275.413	104.968	0.236	0.273
-274.399	-200.000	0.026	-0.466
-273.384	-75.290	0.085	-0.030
-272.370	-143.001	0.329	0.031
-271.355	-54.031	0.269	0.120
-270.340	-20.262	0.137	0.083
-269.326	800.000	-0.050	0.138
-268.311	32.697	0.147	-0.125
-267.297	-200.000	-0.028	-0.241
-266.282	581.067	0.073	0.174
-265.267	-22.639	0.250	-0.148
-264.253	-200.000	0.011	-0.095
-263.238	682.398	0.080	0.205
-262.224	67.324	-0.120	-0.120
-261.209	230.067	0.155	-0.248
-260.195	-200.000	-0.042	-0.226
-259.180	-26.717	-0.092	-0.053
-258.165	188.054	-0.230	0.337
-257.151	152.949	-0.178	-0.238
-256.136	-75.157	0.228	0.080
-255.122	-200.000	-0.029	0.145
-254.107	143.459	-0.138	-0.180
-253.092	-61.124	0.339	0.140
-252.078	67.098	-0.064	0.064
-251.063	327.642	-0.057	0.106
-250.049	110.318	0.205	-0.241
-249.034	-200.000	-0.071	-0.345
-248.019	55.557	0.135	0.128
-247.005	-126.294	-0.117	0.017
-245.990	-139.257	0.058	-0.006
-244.976	-58.070	-0.131	0.056
-243.961	184.787	-0.089	-0.129
-242.946	-155.155	0.187	0.012
-241.932	69.681	-0.296	0.298
-240.917	-112.678	-0.182	-0.035
-239.903	-55.532	-0.318	-0.139
-238.888	-21.262	0.276	-0.165
-237.873	-200.000	0.030	0.370
-236.859	107.605	0.143	0.167
-235.844	182.033	-0.065	0.093
-234.830	-200.000	0.012	-0.168
-233.815	-200.000	0.013	0.081
-232.800	20.470	-0.015	-0.011
-231.786	-61.065	-0.126	-0.052
-230.771	800.000	0.090	-0.383
-229.757	-73.369	-0.061	0.022
-228.742	706.386	0.167	-0.431
-227.727	50.976	-0.289	-0.268
-226.713	-78.310	0.290	0.097
-225.698	210.004	-0.240	0.369
-224.684	-200.000	-0.044	0.416
-223.669	-200.000	-0.003	0.022
-222.655	52.819	-0.265	0.248
-221.640	35.257	-0.158	-0.135
-220.625	177.856	0.161	0.229
-219.611	-62.075	0.198	0.081
-218.596	-167.526	-0.450	-0.018
-217.582	-86.992	0.204	-0.061
-216.567	587.397	0.105	-0.253
-215.552	139.355	-0.276	0.356
-214.538	491.505	-0.134	0.299
-213.523	532.597	0.139	0.322
-212.509	-200.000	0.017	-0.224
-211.494	207.175	-0.111	-0.169
-210.479	-61.676	0.160	-0.065
-209.465	800.000	0.064	0.232
-208.450	-200.000	0.006	0.055
-207.436	800.000	0.026	0.085
-206.421	119.600	-0.132	-0.159
-205.406	637.684	0.070	-0.174
-204.392	-147.271	0.364	0.030
-203.377	-94.648	0.269	-0.072
-202.363	-122.194	-0.137	0.022
-201.348	758.869	0.014	0.036
-200.333	26.383	0.141	-0.115
-199.319	-134.022	0.210	0.025
-198.304	-86.893	-0.079	0.024
-197.290	9.920	-0.134	-0.099
-196.275	201.890	-0.225	0.339
-195.260	-200.000	0.001	0.080
-194.246	800.000	0.025	-0.073
-193.231	17.530	0.375	0.291
-192.217	-200.000	-0.042	0.292
-191.202	-99.507	-0.197	0.048
-190.187	-153.781	-0.086	0.006
-189.173	800.000	0.053	-0.186
-188.158	144.575	-0.203	-0.265
-187.144	-159.191	0.279	0.015
-186.129	275.618	0.048	-0.083
-185.114	-200.000	-0.027	-0.309
-184.100	640.589	0.088	0.219
-183.085	31.908	0.189	0.159
-182.071	423.682	-0.073	0.153
-181.056	800.000	0.049	-0.201
-180.042	546.581	-0.028	-0.066
-179.027	28.213	-0.115	-0.094
-178.012	-23.521	0.168	0.098
-176.998	-43.342	-0.162	-0.080
-175.983	-200.000	0.037	0.204
-174.969	-10.734	0.270	0.174
-173.954	82.645	-0.092	0.097
-172.939	438.366	0.107	0.228
-171.925	-11.729	0.257	0.165
-170.910	-200.000	-0.001	-0.132
-169.896	126.375	0.207	-0.256
-168.881	-7.282	0.294	0.194
-167.866	-200.000	-0.002	-0.152
-166.852	-158.691	-0.091	0.005
-165.837	-200.000	0.075	-0.000
-164.823	4.374	0.187	-0.133
-163.808	800.000	0.072	-0.200
-162.793	188.516	-0.258	-0.377
-161.779	-182.015	-0.236	-0.004
-160.764	-160.039	0.065	0.003
-159.750	-200.000	-0.036	-0.469
-158.735	-71.766	-0.142	0.052
-157.720	-103.907	-0.034	-0.008
-156.706	-89.008	-0.155	0.045
-155.691	290.918	0.081	0.143
-154.677	-73.026	-0.110	0.040
-153.662	671.760	0.069	0.174
-152.647	392.635	-0.100	0.204
-151.633	41.298	-0.194	-0.171
-150.618	37.274	0.329	0.284
-149.604	558.351	-0.073	0.172
-148.589	-62.035	-0.174	-0.071
-147.574	-68.918	0.140	0.053
-146.560	199.153	0.078	-0.117
-145.545	106.139	-0.226	0.261
-144.531	-172.571	0.210	-0.006
-143.516	-140.385	0.131	0.013
-142.502	-154.654	0.145	-0.009
-141.487	800.000	0.058	-0.161
-140.472	-152.226	0.498	-0.035
-139.458	-194.187	-0.162	0.001
-138.443	-85.138	-0.313	0.095
-137.429	-10.817	-0.189	0.122
-136.414	-169.581	-0.303	0.011
-135.399	118.199	0.066	-0.080
-134.385	536.328	-0.018	0.042
-133.370	-142.360	-0.366	-0.035
-132.356	230.484	0.090	-0.143
-131.341	-27.397	0.274	0.155
-130.326	-50.916	0.158	0.072
-129.312	43.446	-0.472	-0.420
-128.297	416.328	0.114	0.237
-127.283	104.995	0.172	0.198
-126.268	-200.000	-0.006	-0.049
-125.253	-111.451	0.202	-0.040
-124.239	-83.477	-0.326	-0.102
-123.224	-200.000	-0.013	-0.086
-122.210	166.739	0.231	-0.318
-121.195	-119.128	-0.308	0.052
-120.180	19.652	-0.262	-0.205
-119.166	-58.126	0.300	0.127
-118.151	362.987	0.219	-0.428
-117.137	-75.224	0.152	0.053
-116.122	-79.103	-0.218	-0.072
-115.107	-200.000	-0.001	-0.462
-114.093	238.739	0.122	-0.198
-113.078	800.000	0.092	0.262
-112.064	-200.000	-0.004	0.377
-111.049	67.604	0.145	-0.144
-110.034	191.772	-0.152	-0.223
-109.020	647.231	-0.071	0.176
-108.005	-140.272	0.113	-0.011
-106.991	-120.045	0.175	0.029
-105.976	800.000	-0.075	0.261
-104.962	578.637	-0.075	-0.180
-103.947	96.982	-0.109	-0.122
-102.932	16.098	0.348	-0.267
-101.918	30.004	-0.148	0.123
-100.903	220.546	0.195	-0.304
-99.889	-198.566	-0.066	0.000
-98.874	503.390	0.046	-0.103
-97.859	-200.000	-0.011	0.163
-96.845	-102.448	0.414	0.096
-95.830	212.400	-0.097	0.149
-94.816	-152.660	0.257	-0.018
-93.801	-200.000	0.004	0.190
-92.786	486.909	-0.129	0.287
-91.772	-158.723	0.081	0.005
-90.757	-97.943	-0.229	-0.057
-89.743	-200.000	0.030	-0.139
-88.728	684.774	0.034	0.086
-87.713	1.697	-0.093	0.065
-86.699	-23.830	0.080	-0.046
-85.684	800.000	-0.120	-0.349
-84.670	-200.000	0.029	0.415
-83.655	-91.222	-0.209	-0.058
-82.640	-81.825	-0.317	0.101
-81.626	144.651	0.087	0.114
-80.611	5.660	-0.356	0.256
-79.597	-90.622	0.062	-0.017
-78.582	44.742	-0.147	0.131
-77.567	-160.159	-0.246	-0.013
-76.553	-200.000	-0.018	-0.122
-75.538	-200.000	0.021	-0.142
-74.524	800.000	0.132	0.424
-73.509	-200.000	0.006	-0.265
-72.494	-200.000	-0.008	-0.341
-71.480	-84.414	0.452	-0.139
-70.465	-200.000	0.575	-0.002
-69.451	800.000	0.039	0.151
-68.436	-200.000	-0.062	0.335
-67.422	-39.906	0.090	-0.046
-66.407	-200.000	0.038	0.408
-65.392	-200.000	0.006	-0.282
-64.378	-56.719	0.037	0.016
-63.363	-200.000	-0.059	-0.276
-62.349	296.057	0.092	-0.163
-61.334	117.706	-1.078	-1.289
-60.319	13.423	0.649	0.489
-59.305	342.387	-0.623	-1.184
-58.290	236.168	0.790	1.268
-57.276	766.564	0.537	1.417
-56.261	-200.000	136.499	631.750
-55.246	332.926	1657.430	3109.789
-54.232	134.384	2808.500	3536.098
-53.217	77.555	2315.211	2392.959
-52.203	28.032	1912.519	1566.365
-51.188	22.306	1705.995	1353.257
-50.173	20.619	1668.203	1310.527
-49.159	41.780	1743.186	1533.961
-48.144	38.409	1751.733	1515.367
-47.130	22.017	1702.474	1348.033
-46.115	19.666	1687.154	1317.939
-45.100	19.480	1681.945	1312.400
-44.086	19.494	1679.291	1310.387
-43.071	19.513	1676.530	1308.322
-42.057	19.432	1674.737	1306.257
-41.042	19.459	1672.675	1304.799
-40.027	19.389	1671.059	1302.960
-39.013	19.297	1669.049	1300.648
-37.998	19.391	1667.306	1299.945
-36.984	19.422	1666.335	1299.372
-35.969	19.583	1664.147	1298.825
-34.954	19.611	1662.423	1297.639
-33.940	19.524	1661.051	1295.860
-32.925	19.483	1659.537	1294.325
-31.911	19.410	1658.315	1292.775
-30.896	19.518	1656.383	1292.021
-29.881	19.533	1654.668	1290.748
-28.867	19.585	1652.846	1289.661
-27.852	19.606	1651.801	1288.949
-26.838	19.644	1650.048	1287.813
-25.823	19.605	1649.111	1286.740
-24.809	19.630	1647.823	1285.870
-23.794	19.608	1646.427	1284.566
-22.779	19.596	1645.020	1283.333
-21.765	19.566	1643.462	1281.840
-20.750	19.623	1641.614	1280.773
-19.736	19.578	1640.846	1279.786
-18.721	19.660	1639.041	1278.935
-17.706	19.577	1637.681	1277.214
-16.692	19.644	1636.308	1276.587
-15.677	19.576	1635.017	1275.021
-14.663	19.590	1633.448	1273.856
-13.648	19.657	1632.212	1273.332
-12.633	19.561	1631.060	1271.675
-11.619	19.602	1628.938	1270.275
-10.604	19.524	1628.061	1268.970
-9.590	19.586	1625.985	1267.755
-8.575	19.692	1624.928	1267.653
-7.560	19.572	1624.388	1266.302
-6.546	19.680	1622.473	1265.554
-5.531	19.614	1621.818	1264.506
-4.517	19.567	1620.610	1263.172
-3.502	19.703	1619.279	1263.082
-2.487	19.666	1617.650	1261.488
-1.473	19.381	1605.122	1249.602
-0.458	16.771	1586.234	1216.136
0.556	12.310	1589.173	1187.616
1.571	10.432	1612.884	1191.431
2.586	10.301	1624.049	1198.606
3.600	9.690	1569.656	1153.985
4.615	5.504	1464.529	1048.600
5.629	1.284	1408.964	981.480
6.644	0.595	1402.582	972.512
7.659	0.579	1401.765	971.755
8.673	0.557	1400.335	970.535
9.688	0.469	1398.271	968.452
10.702	0.279	1395.034	964.910
11.717	2.475	1397.655	980.715
12.731	8.314	1405.839	1023.907
13.746	14.276	1415.318	1069.112
14.761	16.713	1419.035	1087.492
15.775	16.450	1417.285	1084.367
16.790	15.520	1414.246	1075.992
17.804	14.772	1411.816	1069.262
18.819	14.315	1410.692	1065.396
19.834	14.132	1409.300	1063.076
20.848	13.885	1408.036	1060.456
21.863	13.619	1407.000	1057.884
22.877	13.401	1405.585	1055.330
23.892	13.489	1404.905	1055.288
24.907	13.529	1403.586	1054.460
25.921	13.511	1402.682	1053.574
26.936	13.472	1401.928	1052.668
27.950	13.615	1400.663	1052.533
28.965	13.597	1399.840	1051.705
29.980	13.533	1399.335	1050.829
30.994	13.652	1398.166	1050.611
32.009	13.819	1396.928	1050.644
33.023	13.727	1395.704	1049.052
34.038	13.695	1394.826	1048.097
35.053	13.632	1393.861	1046.876
36.067	13.652	1392.426	1045.832
37.082	13.697	1391.243	1045.138
38.096	13.668	1390.608	1044.384
39.111	13.617	1389.751	1043.331
40.126	13.575	1389.283	1042.619
41.140	13.593	1388.028	1041.697
42.155	13.437	1388.133	1040.705
43.169	13.454	1388.024	1040.636
44.184	13.566	1387.330	1040.729
45.199	13.460	1387.155	1039.843
46.213	13.583	1386.147	1039.762
47.228	13.559	1385.543	1039.069
48.242	13.536	1384.390	1037.971
49.257	13.620	1382.552	1037.022
50.271	13.534	1381.335	1035.483
51.286	13.586	1380.133	1034.816
52.301	13.559	1378.625	1033.422
53.315	13.563	1377.705	1032.664
54.330	13.567	1376.644	1031.807
55.344	13.444	1375.344	1029.974
56.359	13.527	1374.014	1029.402
57.374	13.418	1373.248	1028.062
58.388	13.466	1372.631	1027.805
59.403	13.516	1371.921	1027.494
60.417	13.513	1370.975	1026.674
61.432	13.447	1370.047	1025.482
62.447	13.491	1368.987	1024.867
63.461	13.440	1367.884	1023.635
64.476	13.332	1367.370	1022.492
65.490	13.376	1365.854	1021.540
66.505	13.491	1364.115	1020.858
67.520	13.463	1363.053	1019.806
68.534	13.329	1362.282	1018.310
69.549	13.425	1361.212	1018.011
70.563	13.529	1359.542	1017.309
71.578	13.458	1358.491	1015.999
72.593	13.342	1358.224	1014.996
73.607	13.439	1356.650	1014.328
74.622	13.473	1355.728	1013.758
75.636	13.406	1355.614	1013.169
76.651	13.455	1354.551	1012.587
77.666	13.368	1354.286	1011.764
78.680	13.431	1353.589	1011.543
79.695	13.350	1352.923	1010.461
80.709	13.479	1351.786	1010.308
81.724	13.454	1351.100	1009.554
82.739	13.468	1350.132	1008.826
83.753	13.484	1349.231	1008.162
84.768	13.702	1347.455	1008.069
85.782	13.651	1346.622	1007.047
86.797	13.547	1345.709	1005.643
87.812	13.527	1344.022	1004.174
88.826	13.530	1342.769	1003.168
89.841	13.559	1341.441	1002.262
90.855	13.625	1340.461	1001.842
91.870	13.697	1339.445	1001.426
92.884	13.572	1339.315	1000.484
93.899	13.648	1337.893	999.792
94.914	13.709	1337.387	999.694
95.928	13.653	1336.356	998.495
96.943	13.691	1335.397	997.924
97.957	13.660	1334.289	996.818
98.972	13.698	1332.976	995.980
99.987	13.684	1332.184	995.212
101.001	13.691	1331.339	994.537
102.016	13.685	1330.397	993.708
103.030	13.625	1329.668	992.719
104.045	13.696	1328.254	992.001
105.060	13.662	1327.310	991.005
106.074	13.550	1326.120	989.354
107.089	13.511	1324.413	987.763
108.103	13.445	1323.788	986.818
109.118	13.546	1321.951	985.961
110.133	13.498	1320.762	984.702
111.147	13.550	1319.532	984.008
112.162	13.495	1318.142	982.555
113.176	13.622	1316.553	982.035
114.191	13.627	1315.782	981.403
115.206	13.528	1315.093	980.222
116.220	13.644	1313.389	979.545
117.235	13.471	1312.821	978.016
118.249	13.574	1311.291	977.399
119.264	13.580	1310.017	976.396
120.279	13.581	1309.083	975.620
121.293	13.554	1308.055	974.608
122.308	13.557	1307.250	973.939
123.322	13.490	1306.441	972.860
124.337	13.574	1305.019	972.206
125.352	13.579	1304.031	971.412
126.366	13.485	1302.350	969.527
127.381	13.547	1301.098	968.871
128.395	13.552	1300.258	968.189
129.410	13.581	1299.178	967.466
130.424	13.580	1298.382	966.781
131.439	13.554	1297.872	966.166
132.454	13.570	1296.721	965.315
133.468	13.539	1296.025	964.534
134.483	13.594	1294.718	963.792
135.497	13.554	1293.773	962.771
136.512	13.581	1292.534	961.924
137.527	13.560	1290.955	960.542
138.541	13.566	1289.573	959.462
139.556	13.647	1288.592	959.115
140.570	13.733	1287.380	958.628
141.585	13.635	1286.544	957.354
142.600	13.742	1284.923	956.681
143.614	13.797	1284.155	956.338
144.629	13.752	1283.584	955.572
145.643	13.753	1281.730	954.113
146.658	13.728	1280.787	953.183
147.673	13.717	1279.664	952.199
148.687	13.726	1278.600	951.376
149.702	13.785	1276.919	950.378
150.716	13.744	1275.461	948.972
151.731	13.752	1274.544	948.252
152.746	13.811	1273.083	947.417
153.760	13.861	1271.536	946.467
154.775	13.851	1270.594	945.628
155.789	13.879	1269.770	945.092
156.804	13.833	1268.611	943.883
157.819	13.823	1267.534	942.939
158.833	13.862	1266.970	942.656
159.848	13.858	1265.659	941.574
160.862	13.917	1264.281	940.804
161.877	13.950	1263.366	940.225
162.892	13.732	1262.269	938.096
163.906	13.823	1261.196	937.726
164.921	13.898	1260.447	937.510
165.935	13.910	1259.495	936.789
166.950	14.037	1258.540	936.707
167.964	13.844	1258.441	935.465
168.979	13.899	1257.282	934.832
169.994	13.931	1256.746	934.530
171.008	14.026	1255.508	934.059
172.023	13.940	1254.665	932.865
173.037	13.964	1254.177	932.557
174.052	14.049	1252.947	932.037
175.067	13.965	1252.269	930.980
176.081	14.039	1251.276	930.574
177.096	13.925	1250.196	929.051
178.110	14.021	1248.783	928.453
179.125	14.115	1247.432	927.894
180.140	14.035	1246.495	926.668
181.154	14.104	1245.099	925.932
182.169	14.021	1244.070	924.619
183.183	14.175	1242.758	924.423
184.198	14.170	1241.851	923.639
185.213	14.211	1240.431	922.726
186.227	14.119	1239.854	921.704
187.242	14.272	1238.488	921.454
188.256	14.273	1237.167	920.395
189.271	14.282	1236.469	919.847
190.286	14.208	1235.049	918.301
191.300	14.107	1234.543	917.286
192.315	14.050	1234.206	916.639
193.329	14.062	1233.351	915.988
194.344	14.106	1232.734	915.691
195.359	14.290	1231.260	915.526
196.373	14.370	1231.190	915.834
197.388	14.320	1230.869	915.240
198.402	14.368	1230.280	914.983
199.417	14.382	1229.555	914.441
200.432	14.432	1228.684	913.987
201.446	14.446	1227.789	913.314
202.461	14.441	1227.219	912.784
203.475	14.474	1226.092	912.047
204.490	14.466	1224.507	910.741
205.504	14.470	1223.196	909.708
206.519	14.413	1222.161	908.550
207.534	14.485	1220.989	907.989
208.548	14.338	1220.390	906.662
209.563	14.395	1219.531	906.254
210.577	14.536	1218.234	905.975
211.592	14.503	1217.575	905.225
212.607	14.499	1216.865	904.599
213.621	14.544	1216.024	904.138
214.636	14.530	1214.947	903.178
215.650	14.505	1214.120	902.347
216.665	14.616	1212.804	901.892
217.680	14.622	1212.238	901.421
218.694	14.631	1211.131	900.568
219.709	14.699	1210.678	900.517
220.723	14.599	1209.755	899.213
221.738	14.754	1208.706	899.189
222.753	14.697	1208.048	898.313
223.767	14.743	1207.531	898.097
224.782	14.703	1206.931	897.357
225.796	14.707	1206.178	896.737
226.811	14.824	1205.431	896.732
227.826	14.772	1204.992	896.044
228.840	14.800	1204.304	895.606
229.855	14.781	1202.762	894.276
230.869	14.703	1202.301	893.438
231.884	14.759	1201.609	893.146
232.899	14.799	1200.453	892.422
233.913	14.787	1200.216	892.100
234.928	14.774	1199.280	891.256
235.942	14.707	1198.440	890.197
236.957	14.783	1197.456	889.794
237.972	14.817	1196.741	889.366
238.986	14.783	1196.439	888.877
240.001	14.905	1195.753	888.940
241.015	14.765	1194.737	887.363
242.030	14.920	1193.368	887.089
243.045	14.894	1193.158	886.717
244.059	14.896	1192.087	885.853
245.074	14.966	1191.198	885.486
246.088	15.008	1190.668	885.231
247.103	14.958	1190.352	884.657
248.117	14.892	1189.700	883.747
249.132	14.966	1188.479	883.151
250.147	15.150	1187.511	883.322
251.161	15.101	1186.884	882.520
252.176	15.296	1185.917	882.751
253.190	15.238	1185.277	881.889
254.205	15.317	1184.802	881.875
255.220	15.273	1184.284	881.177
256.234	15.197	1184.199	880.636
257.249	15.175	1182.932	879.504
258.263	15.259	1182.033	879.199
259.278	15.357	1181.458	879.204
260.293	15.270	1181.007	878.336
261.307	15.355	1180.097	878.027
262.322	15.308	1180.129	877.724
263.336	15.386	1178.955	877.186
264.351	15.372	1178.398	876.620
265.366	15.439	1177.947	876.553
266.380	15.470	1176.665	875.688
267.395	15.463	1175.909	875.008
268.409	15.424	1175.303	874.276
269.424	15.395	1174.656	873.569
270.439	15.491	1174.285	873.712
271.453	15.448	1173.713	872.988
272.468	15.459	1172.463	872.039
273.482	15.453	1171.620	871.301
274.497	15.487	1171.166	871.066
275.512	15.559	1169.831	870.366
276.526	15.561	1169.347	869.942
277.541	15.519	1168.496	869.013
278.555	15.490	1168.207	868.570
279.570	15.604	1166.741	867.991
280.585	15.723	1166.200	868.128
281.599	15.729	1165.472	867.540
282.614	15.632	1164.568	866.292
283.628	15.644	1163.048	865.146
284.643	15.691	1162.301	864.755
285.657	15.770	1161.406	864.421
286.672	15.729	1160.641	863.560
287.687	15.709	1159.331	862.409
288.701	15.674	1159.008	861.912
289.716	15.786	1158.511	862.040
290.730	15.832	1157.413	861.385
291.745	15.768	1157.043	860.703
292.760	15.856	1156.064	860.348
293.774	15.879	1155.259	859.790
294.789	15.877	1154.761	859.336
295.803	15.851	1154.341	858.813
296.818	15.995	1153.207	858.630
297.833	15.870	1152.456	857.358
298.847	15.959	1151.655	857.135
299.862	15.848	1151.034	856.035
300.876	15.860	1150.336	855.502
301.891	15.964	1149.308	855.190
302.906	16.046	1148.701	855.074
303.920	15.935	1148.083	853.976
304.935	16.075	1147.539	854.207
305.949	16.065	1146.798	853.532
306.964	16.052	1146.485	853.154
307.979	16.076	1145.396	852.391
308.993	16.104	1144.627	851.887
310.008	16.067	1143.853	851.046
311.022	16.109	1143.164	850.672
312.037	16.122	1142.301	850.019
313.052	16.093	1141.480	849.187
314.066	16.100	1140.267	848.244
315.081	16.149	1139.565	847.894
316.095	16.214	1138.862	847.623
317.110	16.150	1138.030	846.606
318.125	16.021	1137.580	845.547
319.139	16.022	1136.829	844.920
320.154	16.218	1136.012	845.222
321.168	16.135	1135.472	844.330
322.183	16.086	1134.911	843.591
323.197	16.143	1134.291	843.341
324.212	16.199	1133.602	843.036
325.227	16.122	1133.199	842.274
326.241	16.196	1132.585	842.115
327.256	16.367	1131.161	841.832
328.270	16.205	1130.760	840.651
329.285	16.218	1129.544	839.739
330.300	16.231	1128.794	839.173
331.314	16.300	1127.782	838.689
332.329	16.261	1126.661	837.588
333.343	16.349	1125.700	837.234
334.358	16.467	1124.601	836.928
335.373	16.381	1124.246	836.162
336.387	16.384	1123.651	835.661
337.402	16.464	1122.912	835.435
338.416	16.452	1122.089	834.689
339.431	16.439	1121.108	833.819
340.446	16.350	1121.164	833.349
341.460	16.549	1119.967	833.366
342.475	16.536	1119.163	832.631
343.489	16.551	1118.341	832.017
344.504	16.634	1117.292	831.571
345.519	16.550	1117.030	830.893
346.533	16.648	1115.474	830.140
347.548	16.540	1115.164	829.307
348.562	16.610	1114.570	829.135
349.577	16.660	1113.460	828.484
350.592	16.586	1112.516	827.345
351.606	16.673	1111.558	826.981
352.621	16.630	1111.363	826.557
353.635	16.568	1110.697	825.684
354.650	16.635	1110.038	825.448
355.665	16.573	1109.469	824.648
356.679	16.794	1108.349	824.819
357.694	16.737	1107.650	823.950
358.708	16.761	1107.352	823.769
359.723	16.813	1106.660	823.435
360.738	16.743	1105.996	822.528
361.752	16.924	1105.178	822.728
362.767	16.781	1104.784	821.665
363.781	16.752	1104.463	821.215
364.796	16.838	1104.003	821.218
365.810	16.848	1102.967	820.422
366.825	16.906	1102.281	820.121
367.840	16.966	1101.719	819.917
368.854	16.986	1101.234	819.585
369.869	17.056	1100.600	819.374
370.883	16.989	1099.897	818.458
371.898	16.957	1098.866	817.465
372.913	16.963	1098.437	817.099
373.927	17.005	1098.018	816.919
374.942	17.012	1097.368	816.395
375.956	17.034	1096.843	816.039
376.971	17.087	1096.097	815.666
377.986	17.144	1095.295	815.272
379.000	17.155	1095.271	815.235
380.015	17.193	1094.176	814.527
381.029	17.124	1093.913	813.933
382.044	17.231	1092.968	813.670
383.059	17.207	1092.268	812.959
384.073	17.270	1091.571	812.670
385.088	17.251	1090.188	811.477
386.102	17.155	1089.723	810.603
387.117	17.248	1088.315	809.925
388.132	17.305	1087.377	809.429
389.146	17.341	1086.584	808.936
390.161	17.303	1085.784	808.088
391.175	17.203	1085.700	807.480
392.190	17.430	1084.629	807.689
393.205	17.398	1084.226	807.167
394.219	17.392	1083.220	806.319
395.234	17.436	1082.269	805.745
396.248	17.279	1081.143	804.095
397.263	17.420	1080.029	803.860
398.278	17.461	1079.660	803.711
399.292	17.390	1078.929	802.757
400.307	17.338	1078.125	801.845
401.321	17.319	1077.568	801.271
402.336	17.409	1076.862	801.096
403.350	17.389	1076.243	800.472
404.365	17.426	1075.609	800.103
405.380	17.421	1074.958	799.526
406.394	17.389	1073.967	798.565
407.409	17.418	1073.355	798.175
408.423	17.641	1072.370	798.420
409.438	17.608	1071.669	797.673
410.453	17.499	1071.430	796.913
411.467	17.686	1070.278	796.863
412.482	17.662	1069.941	796.428
413.496	17.727	1069.124	796.053
414.511	17.738	1068.262	795.389
415.526	17.758	1068.050	795.254
416.540	17.750	1067.291	794.584
417.555	17.807	1067.102	794.638
418.569	17.710	1066.941	793.997
419.584	17.948	1065.852	794.223
420.599	17.798	1065.638	793.295
421.613	109.191	1333.079	1491.750
422.628	100.945	1371.962	1491.828
