DTS Sentinel unit serial number:	SN413079Multiplexer serial number:	ORYXHardware model number:	OX4-SRSoftware version number:	ORYX F/W v4.00 Oryx Data Collector v3.7.2.0data status	okinstallation	princeton_trtdifferential loss correction	single-endedforward channel	channel 2reverse channel	N/Adate	2019/09/19time	09:15:35forward acquisition time	60.00reverse acquisition time	0.00gamma	496.2192k internal	0.2352k external	0.2352temperature offset calibration	1.0000default loss term (dB/km)	0.3790temperature slope calibration	1.0000multiplexer offset coefficient	1.0000multiplexer slope coefficient	1.0000fibre end	0.00T internal ref (°C)	22.14T ext. ref 1 (°C)	0.61T ext. ref 2 (°C)	19.28length (m)	temperature (°C)	Stokes	anti-Stokes-747.200	-12.696	-0.143	0.093
-746.185	800.000	0.018	0.055
-745.171	-121.770	0.208	-0.034
-744.156	96.338	-0.235	0.268
-743.142	122.198	0.036	0.045
-742.127	800.000	-0.094	0.359
-741.112	108.336	0.100	-0.119
-740.098	11.259	-0.118	0.090
-739.083	-200.000	-0.020	-0.190
-738.069	-200.000	-0.016	-0.136
-737.054	800.000	-0.023	0.076
-736.039	33.084	-0.112	0.097
-735.025	667.718	-0.089	0.229
-734.010	-200.000	-0.038	-0.199
-732.996	183.355	0.008	0.012
-731.981	175.391	-0.138	0.199
-730.966	247.393	-0.063	-0.106
-729.952	31.025	-0.281	-0.240
-728.937	74.481	-0.121	0.127
-727.923	324.956	-0.162	-0.309
-726.908	31.349	0.015	0.013
-725.894	-35.301	-0.197	0.107
-724.879	-200.000	-0.006	0.192
-723.864	540.978	-0.037	-0.087
-722.850	-200.000	-0.015	-0.133
-721.835	-87.295	0.150	0.045
-720.821	33.289	0.083	0.072
-719.806	71.026	-0.316	-0.327
-718.791	170.908	0.106	-0.152
-717.777	344.279	-0.058	0.113
-716.762	72.375	-0.294	-0.305
-715.748	-200.000	0.020	0.134
-714.733	99.512	0.362	0.417
-713.718	57.592	0.284	-0.276
-712.704	-72.891	0.076	-0.028
-711.689	109.467	0.082	-0.098
-710.675	-5.087	0.352	0.241
-709.660	620.484	-0.087	0.218
-708.645	42.439	0.420	-0.381
-707.631	-200.000	-0.040	-0.348
-706.616	-25.899	0.229	-0.134
-705.602	451.158	0.071	0.155
-704.587	175.863	-0.136	0.197
-703.572	14.599	-0.325	0.253
-702.558	758.998	-0.053	0.142
-701.543	-1.028	-0.107	0.075
-700.529	39.344	-0.055	-0.049
-699.514	468.098	-0.082	0.183
-698.499	-113.098	-0.186	0.037
-697.485	-200.000	-0.011	0.190
-696.470	800.000	0.052	-0.200
-695.456	-200.000	0.078	-0.423
-694.441	780.394	-0.047	0.128
-693.426	-121.764	-0.272	-0.045
-692.412	-125.344	-0.221	-0.034
-691.397	463.037	-0.097	-0.215
-690.383	-86.311	-0.024	-0.007
-689.368	143.837	0.072	-0.095
-688.354	-28.177	-0.122	0.070
-687.339	-181.668	-0.512	0.010
-686.324	-200.000	0.016	-0.185
-685.310	9.646	-0.026	-0.020
-684.295	-157.643	-0.181	0.011
-683.281	-79.263	0.042	-0.014
-682.266	13.879	-0.159	-0.123
-681.251	-200.000	0.063	-0.414
-680.237	800.000	-0.087	0.246
-679.222	224.313	0.257	-0.413
-678.208	105.017	0.075	-0.088
-677.193	48.509	0.247	-0.230
-676.178	-84.788	-0.047	-0.015
-675.164	-200.000	-0.012	-0.181
-674.149	-200.000	-0.029	-0.256
-673.135	800.000	0.035	0.149
-672.120	-200.000	-0.089	0.394
-671.105	26.148	0.086	-0.071
-670.091	466.260	0.116	-0.259
-669.076	800.000	-0.089	0.295
-668.062	-108.861	-0.374	0.080
-667.047	-43.496	-0.140	0.070
-666.032	800.000	0.098	0.348
-665.018	225.495	-0.022	0.035
-664.003	29.088	0.205	-0.173
-662.989	204.118	0.156	-0.241
-661.974	-135.500	-0.181	0.021
-660.959	800.000	-0.088	-0.383
-659.945	-39.392	-0.135	-0.070
-658.930	-200.000	0.229	0.001
-657.916	209.457	-0.173	-0.270
-656.901	800.000	0.071	-0.226
-655.886	-155.520	0.244	0.016
-654.872	51.369	-0.242	0.228
-653.857	-68.227	-0.193	0.075
-652.843	48.438	-0.307	-0.286
-651.828	-200.000	-0.047	0.254
-650.814	112.193	0.109	-0.131
-649.799	-23.585	-0.092	-0.055
-648.784	167.950	-0.222	0.314
-647.770	373.061	0.076	0.153
-646.755	800.000	0.038	-0.132
-645.741	-86.522	-0.335	-0.102
-644.726	-126.003	0.336	-0.050
-643.711	800.000	-0.060	0.239
-642.697	201.230	-0.192	-0.293
-641.682	167.149	-0.101	-0.143
-640.668	85.828	-0.219	0.239
-639.653	-9.090	0.342	0.227
-638.638	174.711	-0.171	0.245
-637.624	-50.196	0.280	-0.132
-636.609	104.408	0.071	-0.083
-635.595	-3.580	0.297	-0.205
-634.580	-99.401	-0.128	0.032
-633.565	-69.877	0.163	0.062
-632.551	99.003	-0.052	-0.059
-631.536	-112.043	-0.193	0.039
-630.522	119.615	0.207	-0.254
-629.507	-14.298	-0.208	-0.133
-628.492	-16.006	-0.184	-0.117
-627.478	800.000	0.060	0.166
-626.463	-24.355	0.271	0.160
-625.449	138.310	-0.102	0.132
-624.434	-62.590	-0.151	-0.062
-623.419	-64.349	0.271	0.110
-622.405	227.092	-0.124	0.200
-621.390	-160.796	-0.235	0.012
-620.376	-109.424	0.185	-0.039
-619.361	800.000	0.116	0.341
-618.346	260.400	-0.007	-0.013
-617.332	-75.191	-0.374	-0.133
-616.317	-46.949	-0.297	-0.144
-615.303	-153.684	-0.140	0.010
-614.288	26.962	0.195	0.162
-613.273	8.689	0.239	-0.179
-612.259	-200.000	0.008	0.162
-611.244	288.995	-0.115	0.206
-610.230	-35.478	0.367	0.198
-609.215	627.236	-0.094	0.235
-608.201	-200.000	0.003	0.099
-607.186	159.368	0.142	0.196
-606.171	-200.000	0.017	-0.139
-605.157	48.840	-0.134	-0.125
-604.142	1.665	-0.143	-0.102
-603.128	398.450	0.056	-0.115
-602.113	4.814	-0.134	-0.098
-601.098	-108.562	0.157	0.034
-600.084	371.517	-0.061	0.123
-599.069	-38.723	-0.108	-0.056
-598.055	90.472	0.057	-0.063
-597.040	-178.295	0.277	0.006
-596.025	-200.000	-0.035	-0.255
-595.011	142.333	0.164	-0.216
-593.996	35.102	0.469	-0.408
-592.982	-200.000	-0.009	0.053
-591.967	-200.000	0.011	-0.089
-590.952	35.786	0.260	0.227
-589.938	-152.073	-0.116	0.008
-588.923	88.100	-0.183	-0.201
-587.909	58.643	0.170	0.166
-586.894	41.050	0.260	0.233
-585.879	-48.778	-0.272	0.130
-584.865	-183.415	-0.081	0.001
-583.850	-200.000	0.014	0.224
-582.836	232.081	0.129	-0.210
-581.821	172.058	-0.214	-0.304
-580.806	78.037	-0.107	0.113
-579.792	-52.575	0.204	0.093
-578.777	150.407	0.230	0.310
-577.763	-112.689	-0.179	-0.035
-576.748	418.652	0.039	-0.083
-575.733	-38.547	0.211	-0.111
-574.719	-84.088	0.145	0.046
-573.704	-200.000	-0.005	0.231
-572.690	-199.130	0.295	-0.002
-571.675	-200.000	0.063	-0.345
-570.661	127.177	0.124	-0.156
-569.646	-200.000	-0.022	0.149
-568.631	-200.000	0.011	-0.051
-567.617	-200.000	-0.031	0.142
-566.602	755.422	0.157	-0.420
-565.588	-26.365	0.228	0.133
-564.573	-200.000	-0.178	0.001
-563.558	-48.768	-0.126	0.060
-562.544	72.840	-0.131	0.136
-561.529	371.843	-0.118	-0.237
-560.515	800.000	0.119	0.332
-559.500	41.807	-0.234	0.210
-558.485	-79.516	-0.341	-0.114
-557.471	-26.007	0.141	-0.082
-556.456	800.000	-0.045	0.181
-555.442	728.698	-0.063	0.168
-554.427	-200.000	-0.059	-0.296
-553.412	-16.512	0.352	-0.221
-552.398	23.462	-0.147	0.119
-551.383	-94.777	-0.153	0.041
-550.369	-41.627	0.103	-0.053
-549.354	48.395	0.285	0.264
-548.339	80.608	0.197	-0.210
-547.325	112.692	-0.245	0.294
-546.310	-156.757	-0.329	0.020
-545.296	212.164	0.150	-0.234
-544.281	-103.411	0.105	-0.024
-543.266	-137.045	-0.065	-0.007
-542.252	231.429	-0.125	0.204
-541.237	-143.369	-0.173	-0.016
-540.223	392.094	-0.123	0.254
-539.208	-200.000	0.011	0.280
-538.193	16.088	-0.169	-0.132
-537.179	-135.024	-0.670	0.080
-536.164	80.768	0.130	-0.138
-535.150	67.370	-0.105	0.106
-534.135	56.898	0.117	-0.113
-533.121	2.959	0.237	-0.170
-532.106	-47.044	0.121	-0.058
-531.091	475.515	0.152	-0.339
-530.077	276.791	-0.030	-0.053
-529.062	-200.000	-0.022	0.099
-528.048	-0.692	-0.312	0.219
-527.033	-164.896	0.444	-0.020
-526.018	54.858	0.202	0.193
-525.004	-18.148	0.134	-0.083
-523.989	-156.388	0.246	-0.015
-522.975	-76.978	0.150	0.052
-521.960	37.261	-0.223	0.196
-520.945	-125.095	-0.237	-0.036
-519.931	-200.000	-0.008	0.135
-518.916	-147.970	-0.487	0.040
-517.902	-156.514	-0.203	0.013
-516.887	-112.183	-0.306	0.061
-515.872	133.816	0.116	-0.148
-514.858	-63.384	-0.118	0.048
-513.843	-200.000	0.063	0.308
-512.829	-145.750	-0.327	0.029
-511.814	-61.721	0.364	0.151
-510.799	31.392	-0.289	0.246
-509.785	-66.553	-0.209	0.082
-508.770	-159.979	0.112	-0.006
-507.756	210.979	0.133	0.207
-506.741	-23.634	-0.280	-0.166
-505.726	211.573	0.108	-0.168
-504.712	-132.916	-0.032	0.004
-503.697	-47.809	-0.218	0.104
-502.683	-80.287	0.268	-0.089
-501.668	336.345	0.055	-0.106
-500.653	165.526	-0.086	0.120
-499.639	800.000	0.020	0.081
-498.624	29.431	-0.158	0.132
-497.610	800.000	-0.171	-0.487
-496.595	20.256	-0.029	0.023
-495.581	-100.268	0.166	-0.041
-494.566	-94.544	-0.263	-0.071
-493.551	21.197	0.149	0.119
-492.537	-95.763	-0.392	-0.103
-491.522	-129.564	-0.098	-0.013
-490.508	69.458	-0.071	-0.073
-489.493	-200.000	0.028	-0.205
-488.478	561.784	0.124	0.297
-487.464	-32.689	-0.092	0.051
-486.449	-200.000	-0.027	0.428
-485.435	-141.916	-0.201	-0.020
-484.420	-47.778	0.108	-0.052
-483.405	214.320	-0.034	-0.053
-482.391	143.447	-0.114	0.150
-481.376	23.497	-0.128	-0.104
-480.362	122.856	0.042	0.052
-479.347	33.186	-0.160	0.137
-478.332	-25.317	0.147	-0.086
-477.318	-133.254	-0.131	0.016
-476.303	0.957	-0.138	-0.098
-475.289	472.512	0.065	0.145
-474.274	-147.200	0.063	-0.005
-473.259	102.806	-0.011	0.013
-472.245	541.338	-0.114	-0.267
-471.230	800.000	0.060	-0.177
-470.216	-200.000	0.008	-0.178
-469.201	-191.949	-0.225	-0.002
-468.186	2.615	0.066	0.047
-467.172	-200.000	0.022	-0.145
-466.157	-58.349	-0.077	0.033
-465.143	-100.512	-0.053	0.013
-464.128	87.863	-0.158	-0.173
-463.113	356.325	-0.136	0.268
-462.099	548.121	-0.146	0.344
-461.084	-84.302	-0.348	0.109
-460.070	45.289	0.117	-0.106
-459.055	-79.575	-0.127	0.042
-458.040	-200.000	-0.065	0.362
-457.026	1.473	0.260	-0.185
-456.011	267.081	0.073	-0.126
-454.997	-71.431	0.322	0.119
-453.982	312.412	0.056	-0.103
-452.968	97.679	0.192	0.218
-451.953	800.000	-0.035	0.130
-450.938	-49.624	0.314	-0.147
-449.924	40.461	0.097	0.086
-448.909	-11.246	0.185	-0.120
-447.895	-200.000	-0.044	-0.355
-446.880	50.948	0.103	0.096
-445.865	68.675	0.073	0.074
-444.851	800.000	-0.111	-0.403
-443.836	697.266	0.052	0.134
-442.822	134.462	0.050	0.064
-441.807	-59.045	0.314	0.134
-440.792	-7.008	0.210	-0.140
-439.778	-51.507	-0.031	0.014
-438.763	-107.737	0.443	0.095
-437.749	346.857	-0.135	0.262
-436.734	800.000	-0.078	0.234
-435.719	-158.831	-0.173	-0.010
-434.705	-99.384	0.377	0.094
-433.690	-106.393	0.323	0.071
-432.676	279.585	0.050	0.088
-431.661	-200.000	0.002	0.079
-430.646	-93.453	0.064	0.018
-429.632	726.657	-0.081	0.214
-428.617	-200.000	-0.016	0.288
-427.603	-42.088	-0.236	0.119
-426.588	-44.585	0.135	-0.067
-425.573	800.000	0.041	-0.150
-424.559	-37.115	-0.199	0.105
-423.544	264.371	-0.127	0.217
-422.530	271.536	-0.067	0.117
-421.515	727.597	-0.060	-0.158
-420.500	-86.148	-0.194	-0.059
-419.486	-200.000	-0.025	-0.135
-418.471	-200.000	-0.027	0.285
-417.457	-200.000	-0.010	0.173
-416.442	-56.918	0.344	0.150
-415.428	366.314	0.072	0.142
-414.413	-200.000	0.008	-0.231
-413.398	-44.387	0.089	-0.044
-412.384	166.523	0.119	-0.166
-411.369	-127.535	0.028	0.004
-410.355	-11.082	0.113	-0.073
-409.340	289.427	0.047	-0.085
-408.325	351.007	0.096	0.187
-407.311	-200.000	0.029	-0.158
-406.296	-39.451	-0.091	0.047
-405.282	47.754	0.294	-0.271
-404.267	-200.000	0.003	-0.077
-403.252	115.684	-0.137	0.165
-402.238	123.529	-0.084	-0.104
-401.223	-172.721	0.046	-0.001
-400.209	-200.000	0.013	-0.167
-399.194	314.546	-0.099	0.183
-398.179	722.904	-0.023	-0.061
-397.165	-200.000	-0.035	-0.352
-396.150	-134.692	-0.355	0.042
-395.136	-136.557	0.225	0.026
-394.121	-123.827	0.262	0.041
-393.106	51.212	0.068	0.063
-392.092	10.192	-0.074	0.055
-391.077	62.227	0.203	-0.200
-390.063	-127.673	-0.350	-0.050
-389.048	800.000	-0.067	0.245
-388.033	-200.000	-0.085	0.389
-387.019	432.741	-0.219	0.468
-386.004	-200.000	0.006	-0.228
-384.990	58.314	0.142	-0.137
-383.975	-130.099	0.217	-0.029
-382.960	465.644	0.106	-0.232
-381.946	322.834	0.175	-0.328
-380.931	-14.059	-0.199	0.126
-379.917	800.000	-0.045	0.161
-378.902	-65.682	0.126	-0.050
-377.888	-27.462	0.244	0.139
-376.873	-124.054	0.158	-0.024
-375.858	800.000	-0.121	-0.446
-374.844	497.726	0.035	0.079
-373.829	212.872	-0.151	-0.234
-372.815	45.879	0.092	-0.083
-371.800	3.804	0.069	-0.050
-370.785	-200.000	-0.072	-0.371
-369.771	-200.000	-0.034	-0.264
-368.756	-200.000	-0.086	0.430
-367.742	-116.644	-0.105	-0.019
-366.727	94.863	0.070	0.078
-365.712	47.760	-0.220	-0.202
-364.698	-34.286	0.070	0.038
-363.683	-200.000	0.031	-0.168
-362.669	101.526	0.078	0.090
-361.654	-138.713	0.441	-0.047
-360.639	6.171	0.202	0.147
-359.625	-144.576	-0.439	0.040
-358.610	-200.000	0.038	-0.175
-357.596	94.131	-0.110	0.123
-356.581	68.560	-0.079	-0.080
-355.566	-200.000	-0.026	-0.218
-354.552	293.652	-0.184	-0.329
-353.537	-99.717	-0.027	-0.007
-352.523	45.667	0.272	-0.247
-351.508	-200.000	0.004	-0.025
-350.493	-200.000	0.078	-0.413
-349.479	-101.431	-0.081	0.019
-348.464	83.624	-0.121	0.129
-347.450	184.007	0.147	0.214
-346.435	487.146	-0.145	0.325
-345.420	-200.000	-0.040	0.415
-344.406	322.537	-0.150	0.281
-343.391	188.842	-0.280	-0.412
-342.377	-200.000	-0.101	0.450
-341.362	600.547	0.152	-0.372
-340.348	800.000	0.044	0.143
-339.333	-35.950	-0.202	0.107
-338.318	-61.674	0.264	0.109
-337.304	-200.000	-0.039	0.283
-336.289	267.901	0.055	-0.094
-335.275	-200.000	0.023	-0.115
-334.260	136.761	-0.039	0.050
-333.245	-56.297	-0.176	0.077
-332.231	-32.322	-0.006	-0.003
-331.216	57.979	0.242	-0.232
-330.202	-200.000	0.026	0.408
-329.187	800.000	-0.131	0.467
-328.172	800.000	-0.041	-0.156
-327.158	460.967	0.095	-0.207
-326.143	-85.326	-0.087	-0.027
-325.129	276.043	-0.266	-0.464
-324.114	-97.742	0.138	-0.035
-323.099	-141.025	0.063	0.006
-322.085	-200.000	0.009	0.060
-321.070	-36.368	0.340	0.180
-320.056	0.598	0.177	-0.125
-319.041	800.000	0.048	-0.163
-318.026	-37.176	-0.244	0.128
-317.012	-122.522	0.355	-0.057
-315.997	14.225	-0.115	-0.088
-314.983	-200.000	-0.020	0.222
-313.968	-153.603	-0.286	-0.019
-312.953	800.000	-0.103	0.305
-311.939	67.610	0.140	0.141
-310.924	12.293	0.193	0.146
-309.910	-102.291	-0.191	-0.045
-308.895	-9.415	-0.295	0.193
-307.880	74.943	-0.086	-0.089
-306.866	-26.136	0.209	-0.120
-305.851	-75.147	-0.091	0.032
-304.837	-14.232	0.080	0.050
-303.822	5.020	0.135	0.098
-302.807	262.969	0.143	0.244
-301.793	367.869	0.105	-0.208
-300.778	-35.656	-0.231	0.123
-299.764	46.231	0.091	-0.082
-298.749	13.162	0.292	-0.222
-297.735	-39.552	0.067	0.035
-296.720	-188.155	-0.303	-0.004
-295.705	-51.689	0.324	-0.148
-294.691	-200.000	-0.059	-0.271
-293.676	190.734	0.140	0.207
-292.662	-200.000	-0.007	-0.214
-291.647	191.213	0.229	0.338
-290.632	125.146	-0.194	-0.240
-289.618	650.138	-0.166	-0.416
-288.603	800.000	-0.021	-0.077
-287.589	-51.301	-0.141	0.065
-286.574	81.421	-0.146	0.154
-285.559	-85.953	-0.061	-0.019
-284.545	-200.000	-0.027	-0.361
-283.530	-200.000	-0.044	-0.244
-282.516	-168.687	0.481	0.018
-281.501	104.998	0.157	0.181
-280.486	-37.950	-0.115	0.060
-279.472	253.853	0.167	-0.280
-278.457	661.760	0.056	-0.140
-277.443	-200.000	-0.013	-0.110
-276.428	800.000	-0.040	0.130
-275.413	-200.000	-0.012	0.091
-274.399	135.576	-0.093	0.118
-273.384	485.884	0.071	0.157
-272.370	149.023	0.083	0.110
-271.355	-140.661	0.087	0.009
-270.340	25.949	-0.334	-0.273
-269.326	-25.895	-0.123	0.071
-268.311	638.407	0.183	0.455
-267.297	800.000	-0.048	-0.156
-266.282	-54.918	-0.223	-0.099
-265.267	800.000	-0.048	-0.172
-264.253	-148.348	-0.143	0.011
-263.238	800.000	-0.057	0.163
-262.224	-31.987	0.193	0.106
-261.209	-85.217	-0.115	0.035
-260.195	-1.842	0.035	-0.024
-259.180	319.709	-0.058	0.107
-258.165	207.500	-0.217	0.332
-257.151	450.353	0.143	-0.309
-256.136	161.353	0.050	-0.069
-255.122	-200.000	-0.002	0.044
-254.107	-11.453	-0.214	0.138
-253.092	-200.000	0.044	-0.209
-252.078	-26.312	-0.272	-0.156
-251.063	397.778	-0.145	0.296
-250.049	-200.000	0.004	0.147
-249.034	280.595	0.120	0.210
-248.019	240.034	-0.045	0.073
-247.005	36.838	0.247	-0.213
-245.990	223.686	-0.098	0.155
-244.976	32.395	-0.098	0.083
-243.961	429.391	0.123	0.260
-242.946	-61.262	0.137	0.056
-241.932	-146.051	-0.173	-0.015
-240.917	388.439	0.070	-0.142
-239.903	-32.844	0.252	-0.137
-238.888	-19.420	0.110	0.066
-237.873	-196.794	-0.473	-0.003
-236.859	-200.000	0.039	0.262
-235.844	-179.537	-0.322	0.007
-234.830	-47.018	0.200	0.096
-233.815	105.633	-0.138	-0.160
-232.800	-75.809	-0.306	-0.106
-231.786	51.521	0.163	0.151
-230.771	-69.889	0.359	0.134
-229.757	-200.000	0.070	0.303
-228.742	-200.000	0.018	0.129
-227.727	65.612	-0.097	-0.096
-226.713	-114.149	-0.225	0.043
-225.698	-126.217	0.175	0.026
-224.684	-200.000	0.032	0.370
-223.669	-29.818	-0.182	-0.102
-222.655	519.052	0.058	-0.133
-221.640	4.535	0.168	0.120
-220.625	-116.845	0.185	0.033
-219.611	-10.784	-0.258	-0.167
-218.596	313.528	0.205	-0.378
-217.582	691.376	0.120	0.307
-216.567	-118.562	0.051	0.009
-215.552	220.039	-0.075	-0.117
-214.538	-19.516	0.195	-0.118
-213.523	-10.780	0.283	0.183
-212.509	274.035	0.100	-0.172
-211.494	163.914	-0.060	-0.083
-210.479	800.000	-0.072	0.217
-209.465	483.350	-0.026	-0.059
-208.450	800.000	0.007	-0.022
-207.436	-47.278	-0.125	-0.060
-206.421	271.042	0.055	0.095
-205.406	83.204	0.111	-0.118
-204.392	294.238	-0.193	-0.345
-203.377	-200.000	0.064	0.435
-202.363	-24.170	0.318	-0.185
-201.348	140.994	0.040	-0.052
-200.333	-98.033	0.299	-0.075
-199.319	211.092	0.098	-0.151
-198.304	266.859	0.132	-0.226
-197.290	402.454	0.069	-0.142
-196.275	160.024	-0.121	0.164
-195.260	391.740	-0.086	-0.174
-194.246	319.948	0.220	0.407
-193.231	486.283	0.102	0.227
-192.217	126.143	-0.053	-0.065
-191.202	463.679	-0.182	-0.397
-190.187	-51.722	-0.055	-0.025
-189.173	800.000	-0.091	-0.252
-188.158	-17.315	-0.181	-0.111
-187.144	249.044	-0.273	-0.451
-186.129	-200.000	-0.011	-0.129
-185.114	-200.000	0.019	-0.431
-184.100	-11.383	-0.155	0.099
-183.085	-38.857	-0.045	0.023
-182.071	-167.855	0.303	0.012
-181.056	-166.281	-0.268	0.011
-180.042	-132.658	0.189	-0.024
-179.027	-200.000	-0.008	0.130
-178.012	800.000	-0.077	-0.275
-176.998	-20.350	-0.041	-0.025
-175.983	-79.666	0.095	0.031
-174.969	-78.961	-0.143	0.048
-173.954	-21.495	-0.249	-0.148
-172.939	-1.620	0.368	-0.253
-171.925	309.593	0.070	-0.128
-170.910	277.090	0.105	-0.182
-169.896	13.788	-0.374	-0.284
-168.881	158.424	-0.063	0.086
-167.866	800.000	0.043	-0.134
-166.852	123.455	0.032	0.039
-165.837	-200.000	0.101	-0.462
-164.823	800.000	0.031	0.098
-163.808	295.826	-0.055	-0.098
-162.793	-32.457	-0.130	0.071
-161.779	-200.000	-0.027	-0.119
-160.764	-193.696	0.297	-0.002
-159.750	-200.000	0.067	-0.426
-158.735	-98.359	0.202	-0.051
-157.720	-186.971	0.128	-0.002
-156.706	-200.000	-0.022	0.230
-155.691	-23.651	-0.379	0.221
-154.677	4.728	-0.105	0.075
-153.662	321.777	-0.018	-0.033
-152.647	594.779	0.085	-0.205
-151.633	-15.703	-0.237	-0.147
-150.618	-151.698	0.201	0.014
-149.604	106.110	0.122	0.141
-148.589	-200.000	0.002	-0.044
-147.574	176.124	-0.127	-0.180
-146.560	48.975	0.180	-0.165
-145.545	-10.796	0.280	-0.180
-144.531	-60.016	-0.031	0.013
-143.516	-107.761	-0.386	-0.082
-142.502	-74.151	0.331	-0.117
-141.487	35.655	-0.045	0.039
-140.472	175.944	0.137	-0.194
-139.458	-200.000	-0.011	0.210
-138.443	176.164	0.145	-0.205
-137.429	800.000	-0.036	0.148
-136.414	-200.000	0.003	0.154
-135.399	136.111	0.263	0.334
-134.385	800.000	-0.074	-0.270
-133.370	-18.717	-0.128	0.077
-132.356	-200.000	-0.057	-0.426
-131.341	285.124	0.128	-0.224
-130.326	-77.016	0.167	0.057
-129.312	235.517	-0.044	0.070
-128.297	-200.000	-0.021	-0.335
-127.283	-138.499	0.095	0.010
-126.268	-80.814	-0.185	-0.060
-125.253	-200.000	0.068	-0.318
-124.239	98.052	-0.066	-0.074
-123.224	156.434	-0.126	0.169
-122.210	41.297	-0.153	0.135
-121.195	-111.683	0.111	0.022
-120.180	731.970	0.015	0.039
-119.166	-90.042	-0.162	0.046
-118.151	403.391	0.085	-0.173
-117.137	800.000	0.063	-0.187
-116.122	-200.000	-0.016	-0.216
-115.107	-50.259	-0.085	0.039
-114.093	56.006	-0.205	0.193
-113.078	541.111	0.056	0.129
-112.064	-118.309	0.356	-0.062
-111.049	-141.919	0.344	0.033
-110.034	-36.478	0.210	0.110
-109.020	-200.000	-0.032	-0.141
-108.005	-148.271	0.079	-0.006
-106.991	800.000	0.070	-0.245
-105.976	800.000	0.094	0.306
-104.962	307.462	0.114	0.208
-103.947	800.000	-0.077	-0.225
-102.932	67.640	-0.149	0.148
-101.918	-92.739	0.176	-0.048
-100.903	34.843	-0.117	0.099
-99.889	-61.304	0.077	-0.032
-98.874	7.435	-0.294	-0.214
-97.859	-18.595	0.162	-0.098
-96.845	-33.455	-0.328	-0.176
-95.830	-200.000	0.011	0.089
-94.816	-175.280	-0.185	0.005
-93.801	123.349	-0.193	-0.236
-92.786	-144.548	-0.154	0.014
-91.772	800.000	-0.095	0.270
-90.757	11.485	-0.369	-0.275
-89.743	-99.700	0.440	-0.107
-88.728	-70.759	0.075	-0.028
-87.713	-200.000	-0.007	-0.142
-86.699	161.168	-0.010	-0.013
-85.684	-100.810	0.240	0.057
-84.670	-129.264	0.245	-0.033
-83.655	-14.233	0.250	-0.157
-82.640	542.945	-0.012	-0.028
-81.626	-12.352	0.228	0.145
-80.611	-119.817	-0.074	-0.012
-79.597	-73.713	0.369	-0.131
-78.582	-81.384	-0.206	0.066
-77.567	-19.358	-0.139	0.084
-76.553	-200.000	-0.010	-0.143
-75.538	260.035	0.062	0.104
-74.524	-135.755	-0.439	0.050
-73.509	303.917	0.096	0.173
-72.494	309.486	-0.047	0.085
-71.480	-94.825	-0.263	-0.069
-70.465	-27.178	-0.104	0.059
-69.451	800.000	-0.042	0.159
-68.436	-71.224	0.184	0.067
-67.422	18.320	-0.162	0.126
-66.407	800.000	0.089	-0.340
-65.392	514.318	-0.184	0.416
-64.378	-44.815	0.433	0.210
-63.363	57.129	0.137	0.130
-62.349	2.851	0.156	0.110
-61.334	98.772	-0.990	-1.110
-60.319	86.581	0.993	1.064
-59.305	572.240	-0.604	-1.430
-58.290	443.094	0.707	1.504
-57.276	800.000	0.540	1.727
-56.261	-200.000	126.982	627.651
-55.246	368.651	1618.095	3177.827
-54.232	135.163	2800.617	3534.677
-53.217	85.887	2332.987	2492.037
-52.203	31.297	1929.565	1608.636
-51.188	25.068	1721.874	1387.382
-50.173	22.953	1682.906	1339.912
-49.159	44.133	1752.436	1560.360
-48.144	41.592	1763.437	1550.395
-47.130	24.732	1715.062	1379.087
-46.115	22.253	1699.150	1347.268
-45.100	22.129	1694.184	1342.334
-44.086	22.059	1691.666	1339.750
-43.071	21.963	1689.469	1337.229
-42.057	21.941	1687.094	1335.123
-41.042	22.078	1685.200	1334.617
-40.027	22.089	1683.101	1332.984
-39.013	21.961	1681.642	1330.802
-37.998	22.029	1680.383	1330.266
-36.984	22.056	1678.537	1328.958
-35.969	22.071	1677.448	1328.158
-34.954	22.148	1675.414	1327.075
-33.940	22.131	1673.532	1325.407
-32.925	22.114	1671.680	1323.761
-31.911	22.124	1670.236	1322.638
-30.896	22.121	1668.646	1321.299
-29.881	22.153	1667.519	1320.595
-28.867	22.092	1665.848	1318.763
-27.852	22.131	1663.863	1317.433
-26.838	22.158	1662.773	1316.719
-25.823	22.191	1660.893	1315.429
-24.809	22.111	1660.244	1314.259
-23.794	22.168	1658.719	1313.425
-22.779	22.224	1656.619	1312.130
-21.765	22.064	1655.512	1310.012
-20.750	22.041	1653.863	1308.483
-19.736	22.094	1653.172	1308.278
-18.721	22.186	1651.141	1307.300
-17.706	22.179	1649.656	1306.026
-16.692	22.240	1647.867	1305.010
-15.677	22.205	1646.407	1303.536
-14.663	22.202	1645.933	1303.087
-13.648	22.209	1644.237	1301.749
-12.633	22.205	1642.799	1300.526
-11.619	22.142	1641.201	1298.748
-10.604	22.218	1639.413	1297.839
-9.590	22.185	1638.360	1296.713
-8.575	22.237	1636.622	1295.670
-7.560	22.176	1635.559	1294.325
-6.546	22.236	1634.652	1293.994
-5.531	22.218	1633.558	1292.948
-4.517	22.161	1632.574	1291.702
-3.502	22.268	1630.737	1290.978
-2.487	22.271	1629.500	1289.970
-1.473	22.095	1617.988	1279.527
-0.458	19.745	1599.617	1248.006
0.556	15.513	1602.851	1221.666
1.571	13.650	1628.608	1227.411
2.586	13.322	1640.489	1233.810
3.600	12.168	1585.383	1183.933
4.615	6.791	1476.184	1066.076
5.629	1.637	1417.577	990.184
6.644	0.712	1410.351	979.056
7.659	0.652	1409.805	978.207
8.673	0.639	1408.538	977.156
9.688	0.447	1406.761	974.594
10.702	0.330	1402.938	971.103
11.717	3.042	1405.506	990.286
12.731	9.384	1415.930	1038.591
13.746	15.015	1424.313	1081.126
14.761	17.026	1426.900	1095.996
15.775	16.596	1424.827	1091.533
16.790	15.532	1422.767	1082.996
17.804	14.726	1420.112	1075.694
18.819	14.452	1418.702	1072.767
19.834	14.145	1417.581	1069.850
20.848	13.933	1416.392	1067.496
21.863	13.656	1415.164	1064.695
22.877	13.521	1413.661	1062.603
23.892	13.436	1412.560	1061.142
24.907	13.387	1411.827	1060.180
25.921	13.512	1410.940	1060.221
26.936	13.583	1409.981	1059.860
27.950	13.500	1408.879	1058.408
28.965	13.666	1407.429	1058.285
29.980	13.624	1407.168	1057.725
30.994	13.628	1406.176	1056.914
32.009	13.656	1404.928	1056.058
33.023	13.590	1403.845	1054.733
34.038	13.671	1402.524	1054.164
35.053	13.695	1401.719	1053.615
36.067	13.640	1400.349	1052.141
37.082	13.652	1399.598	1051.565
38.096	13.737	1398.376	1051.092
39.111	13.792	1397.251	1050.502
40.126	13.608	1396.864	1048.954
41.140	13.566	1396.120	1048.031
42.155	13.489	1395.474	1046.967
43.169	13.452	1395.362	1046.562
44.184	13.424	1395.219	1046.183
45.199	13.576	1394.431	1046.458
46.213	13.509	1393.947	1045.580
47.228	13.624	1393.037	1045.528
48.242	13.540	1391.722	1043.920
49.257	13.542	1390.596	1042.997
50.271	13.624	1388.651	1041.963
51.286	13.487	1387.630	1040.241
52.301	13.506	1386.601	1039.496
53.315	13.521	1385.533	1038.698
54.330	13.478	1384.231	1037.360
55.344	13.450	1383.103	1036.249
56.359	13.528	1381.805	1035.676
57.374	13.597	1380.594	1035.103
58.388	13.528	1380.397	1034.435
59.403	13.433	1379.949	1033.415
60.417	13.388	1379.116	1032.422
61.432	13.482	1378.074	1032.136
62.447	13.515	1376.937	1031.397
63.461	13.436	1375.671	1029.864
64.476	13.441	1374.536	1028.957
65.490	13.462	1373.597	1028.294
66.505	13.438	1371.864	1026.758
67.520	13.354	1370.852	1025.387
68.534	13.475	1369.631	1025.128
69.549	13.554	1368.080	1024.368
70.563	13.461	1367.374	1023.173
71.578	13.373	1366.180	1021.644
72.593	13.358	1365.032	1020.605
73.607	13.431	1364.383	1020.479
74.622	13.287	1363.460	1018.814
75.636	13.411	1362.397	1018.691
76.651	13.395	1361.854	1018.097
77.666	13.399	1361.426	1017.714
78.680	13.406	1360.847	1017.231
79.695	13.307	1360.048	1015.938
80.709	13.446	1358.837	1015.792
81.724	13.468	1357.909	1015.146
82.739	13.463	1357.058	1014.392
83.753	13.560	1356.242	1014.282
84.768	13.611	1354.733	1013.378
85.782	13.558	1353.719	1012.204
86.797	13.594	1352.419	1011.363
87.812	13.529	1351.038	1009.843
88.826	13.519	1350.062	1008.966
89.841	13.486	1349.049	1007.916
90.855	13.538	1347.686	1007.124
91.870	13.544	1346.646	1006.299
92.884	13.550	1345.924	1005.705
93.899	13.584	1345.270	1005.334
94.914	13.568	1344.631	1004.667
95.928	13.591	1343.750	1004.063
96.943	13.667	1342.459	1003.466
97.957	13.564	1341.808	1002.270
98.972	13.612	1340.587	1001.559
99.987	13.649	1339.685	1001.021
101.001	13.777	1337.902	1000.371
102.016	13.691	1337.085	999.155
103.030	13.686	1336.558	998.639
104.045	13.608	1335.866	997.566
105.060	13.566	1334.615	996.293
106.074	13.621	1333.145	995.438
107.089	13.565	1331.733	993.957
108.103	13.530	1330.488	992.732
109.118	13.462	1329.475	991.477
110.133	13.523	1327.922	990.601
111.147	13.547	1326.281	989.430
112.162	13.539	1325.051	988.377
113.176	13.630	1323.988	988.042
114.191	13.540	1322.892	986.596
115.206	13.574	1321.527	985.697
116.220	13.594	1320.437	984.916
117.235	13.596	1319.509	984.149
118.249	13.578	1318.317	983.061
119.264	13.568	1317.392	982.226
120.279	13.590	1315.721	981.024
121.293	13.501	1315.335	980.123
122.308	13.569	1313.783	979.281
123.322	13.534	1313.020	978.421
124.337	13.590	1311.734	977.708
125.352	13.527	1310.657	976.443
126.366	13.599	1309.271	975.753
127.381	13.507	1308.395	974.468
128.395	13.515	1307.287	973.609
129.410	13.488	1306.113	972.488
130.424	13.544	1305.430	972.218
131.439	13.515	1304.451	971.236
132.454	13.553	1303.558	970.705
133.468	13.542	1302.362	969.667
134.483	13.435	1302.122	968.778
135.497	13.665	1300.025	968.470
136.512	13.499	1299.025	966.674
137.527	13.538	1297.707	965.836
138.541	13.548	1296.307	964.765
139.556	13.559	1295.226	963.939
140.570	13.723	1293.822	963.762
141.585	13.786	1292.153	962.798
142.600	13.729	1291.486	961.888
143.614	13.660	1291.171	961.167
144.629	13.735	1289.781	960.480
145.643	13.672	1288.604	959.159
146.658	13.720	1287.281	958.364
147.673	13.697	1286.154	957.310
148.687	13.696	1284.687	956.128
149.702	13.742	1283.519	955.434
150.716	13.691	1282.470	954.277
151.731	13.807	1280.895	953.690
152.746	13.795	1279.677	952.628
153.760	13.790	1278.417	951.575
154.775	13.867	1277.184	951.013
155.789	13.846	1276.044	949.960
156.804	13.813	1275.279	949.123
157.819	13.909	1273.896	948.553
158.833	13.865	1272.938	947.505
159.848	13.866	1272.174	946.858
160.862	13.823	1271.510	946.035
161.877	13.829	1270.258	945.055
162.892	13.758	1269.646	944.115
163.906	13.812	1268.278	943.321
164.921	13.954	1266.950	943.055
165.935	13.850	1266.397	941.971
166.950	13.878	1265.208	941.160
167.964	13.912	1264.759	940.937
168.979	13.851	1264.015	939.954
169.994	13.882	1263.266	939.490
171.008	13.897	1262.538	938.946
172.023	14.027	1261.027	938.474
173.037	14.031	1260.276	937.857
174.052	14.011	1259.893	937.378
175.067	14.003	1258.657	936.327
176.081	14.020	1257.616	935.566
177.096	14.034	1256.643	934.841
178.110	14.022	1255.796	934.058
179.125	14.066	1254.734	933.431
180.140	13.974	1253.463	931.888
181.154	14.067	1251.825	931.109
182.169	14.141	1250.475	930.437
183.183	14.115	1249.533	929.511
184.198	14.118	1248.598	928.748
185.213	14.125	1247.290	927.729
186.227	14.089	1246.550	926.900
187.242	14.103	1245.848	926.370
188.256	14.331	1244.325	926.426
189.271	14.257	1243.076	925.003
190.286	14.202	1241.808	923.670
191.300	14.159	1241.504	923.124
192.315	14.044	1240.598	921.735
193.329	14.073	1240.171	921.495
194.344	14.161	1239.517	921.416
195.359	14.187	1239.194	921.237
196.373	14.238	1238.427	920.870
197.388	14.180	1238.276	920.354
198.402	14.289	1237.535	920.324
199.417	14.399	1236.658	920.197
200.432	14.402	1235.695	919.417
201.446	14.343	1235.061	918.540
202.461	14.498	1233.290	917.990
203.475	14.453	1232.610	917.155
204.490	14.379	1231.582	915.903
205.504	14.306	1230.537	914.643
206.519	14.462	1229.256	914.467
207.534	14.489	1227.488	913.219
208.548	14.459	1227.127	912.708
209.563	14.357	1226.588	911.669
210.577	14.457	1225.205	911.103
211.592	14.508	1224.121	910.496
212.607	14.655	1223.298	910.608
213.621	14.439	1222.729	908.922
214.636	14.514	1221.645	908.447
215.650	14.551	1220.955	908.053
216.665	14.645	1219.901	907.700
217.680	14.686	1218.712	906.959
218.694	14.636	1217.808	905.936
219.709	14.679	1217.045	905.519
220.723	14.693	1216.206	904.893
221.738	14.627	1215.498	903.925
222.753	14.587	1215.225	903.425
223.767	14.586	1214.600	902.879
224.782	14.682	1213.413	902.435
225.796	14.747	1212.947	902.357
226.811	14.726	1212.372	901.736
227.826	14.827	1210.850	901.069
228.840	14.848	1210.458	900.812
229.855	14.760	1209.919	899.859
230.869	14.731	1208.919	898.877
231.884	14.826	1207.993	898.624
232.899	14.741	1207.415	897.657
233.913	14.689	1206.818	896.852
234.928	14.773	1205.705	896.397
235.942	14.748	1205.646	896.139
236.957	14.715	1204.562	895.078
237.972	14.752	1203.388	894.322
238.986	14.700	1203.358	893.943
240.001	14.698	1202.552	893.254
241.015	14.806	1201.189	892.741
242.030	14.869	1200.328	892.356
243.045	14.940	1199.556	892.082
244.059	14.843	1199.186	891.213
245.074	14.897	1198.401	890.836
246.088	14.951	1197.093	890.073
247.103	14.961	1196.191	889.378
248.117	14.948	1195.848	888.978
249.132	15.085	1194.758	888.815
250.147	15.023	1194.411	888.150
251.161	15.108	1193.308	887.701
252.176	15.136	1192.462	887.143
253.190	15.144	1191.891	886.677
254.205	15.190	1191.427	886.502
255.220	15.190	1191.133	886.204
256.234	15.238	1190.350	885.794
257.249	15.188	1189.976	885.174
258.263	15.237	1188.733	884.432
259.278	15.279	1188.087	884.090
260.293	15.201	1187.828	883.411
261.307	15.319	1186.898	883.261
262.322	15.309	1186.453	882.801
263.336	15.312	1185.829	882.272
264.351	15.366	1184.662	881.608
265.366	15.407	1184.273	881.456
266.380	15.322	1183.635	880.461
267.395	15.505	1182.106	880.202
268.409	15.337	1182.001	879.166
269.424	15.386	1181.567	879.025
270.439	15.507	1180.419	878.726
271.453	15.380	1180.025	877.686
272.468	15.458	1178.828	877.129
273.482	15.380	1178.461	876.368
274.497	15.553	1177.234	876.284
275.512	15.484	1176.826	875.541
276.526	15.505	1175.950	874.924
277.541	15.515	1175.238	874.368
278.555	15.513	1174.611	873.811
279.570	15.564	1173.927	873.494
280.585	15.599	1173.009	872.915
281.599	15.647	1172.084	872.395
282.614	15.641	1171.276	871.689
283.628	15.668	1169.661	870.546
284.643	15.639	1168.965	869.801
285.657	15.639	1168.211	869.167
286.672	15.492	1167.482	867.786
287.687	15.734	1166.295	868.079
288.701	15.856	1165.249	867.851
289.716	15.732	1164.792	866.794
290.730	15.804	1163.715	866.285
291.745	15.789	1163.276	865.807
292.760	15.706	1162.839	864.978
293.774	15.714	1162.329	864.559
294.789	15.740	1161.912	864.310
295.803	15.893	1160.823	864.208
296.818	15.739	1160.082	862.792
297.833	15.712	1159.120	861.860
298.847	15.812	1158.537	861.864
299.862	15.859	1157.641	861.360
300.876	15.856	1156.882	860.703
301.891	15.869	1156.385	860.325
302.906	15.968	1155.659	860.215
303.920	15.906	1154.827	859.200
304.935	15.978	1154.254	859.066
305.949	16.041	1153.507	858.757
306.964	16.145	1152.579	858.520
307.979	15.955	1152.276	857.247
308.993	16.030	1151.600	857.052
310.008	16.207	1150.110	856.764
311.022	16.157	1149.146	855.717
312.037	16.195	1148.715	855.516
313.052	16.151	1147.277	854.144
314.066	16.054	1146.690	853.143
315.081	16.056	1146.041	852.593
316.095	16.044	1145.610	852.138
317.110	16.098	1144.736	851.681
318.125	16.116	1144.127	851.247
319.139	16.030	1143.681	850.404
320.154	16.075	1142.847	849.934
321.168	15.971	1142.143	848.814
322.183	16.109	1141.045	848.618
323.197	16.087	1140.615	848.110
324.212	16.159	1140.091	848.011
325.227	16.231	1139.250	847.671
326.241	16.275	1138.722	847.424
327.256	16.200	1138.104	846.514
328.270	16.175	1137.021	845.508
329.285	16.193	1135.828	844.633
330.300	16.234	1134.563	843.823
331.314	16.219	1134.006	843.259
332.329	16.262	1133.441	842.979
333.343	16.366	1132.134	842.452
334.358	16.279	1131.855	841.735
335.373	16.268	1130.965	840.943
336.387	16.270	1130.152	840.276
337.402	16.418	1129.067	840.132
338.416	16.426	1128.702	839.824
339.431	16.476	1127.495	839.100
340.446	16.451	1126.908	838.464
341.460	16.505	1126.637	838.458
342.475	16.462	1125.873	837.602
343.489	16.473	1124.978	836.915
344.504	16.596	1123.399	836.278
345.519	16.473	1123.134	835.399
346.533	16.534	1122.240	834.957
347.548	16.680	1121.184	834.819
348.562	16.707	1120.547	834.402
349.577	16.600	1119.759	833.216
350.592	16.594	1119.041	832.578
351.606	16.685	1118.163	832.300
352.621	16.533	1117.980	831.341
353.635	16.603	1116.950	830.848
354.650	16.505	1116.400	829.883
355.665	16.559	1115.776	829.612
356.679	16.629	1114.903	829.230
357.694	16.631	1114.301	828.720
358.708	16.668	1113.441	828.187
359.723	16.776	1112.543	827.975
360.738	16.648	1112.613	827.325
361.752	16.674	1111.653	826.670
362.767	16.765	1111.284	826.766
363.781	16.677	1110.865	825.951
364.796	16.809	1110.015	825.889
365.810	16.927	1109.051	825.672
366.825	16.753	1108.710	824.500
367.840	16.961	1107.633	824.638
368.854	16.919	1107.265	824.085
369.869	16.934	1106.591	823.584
370.883	16.982	1105.530	822.956
371.898	17.083	1104.486	822.595
372.913	16.955	1104.316	821.771
373.927	16.977	1103.874	821.477
374.942	17.008	1103.554	821.318
375.956	17.053	1102.766	820.878
376.971	16.979	1101.984	819.865
377.986	17.086	1101.887	820.238
379.000	17.154	1100.877	819.739
380.015	17.172	1100.234	819.273
381.029	17.168	1099.389	818.558
382.044	17.192	1099.109	818.390
383.059	17.140	1098.372	817.518
384.073	17.226	1097.515	817.219
385.088	17.281	1096.460	816.628
386.102	17.315	1095.291	815.849
387.117	17.332	1094.248	815.079
388.132	17.188	1093.590	813.827
389.146	17.224	1092.612	813.203
390.161	17.227	1092.133	812.788
391.175	17.215	1091.229	811.986
392.190	17.306	1090.891	812.097
393.205	17.397	1089.761	811.620
394.219	17.338	1089.147	810.808
395.234	17.363	1088.099	810.076
396.248	17.393	1087.060	809.373
397.263	17.536	1085.668	808.941
398.278	17.269	1085.929	807.797
399.292	17.264	1085.120	807.102
400.307	17.435	1084.231	807.177
401.321	17.291	1083.701	806.029
402.336	17.319	1082.859	805.467
403.350	17.497	1082.020	805.613
404.365	17.425	1081.236	804.619
405.380	17.425	1080.903	804.296
406.394	17.368	1080.138	803.390
407.409	17.532	1079.324	803.488
408.423	17.499	1078.764	802.843
409.438	17.576	1077.840	802.448
410.453	17.577	1077.087	801.820
411.467	17.612	1076.180	801.237
412.482	17.715	1075.431	801.093
413.496	17.624	1074.772	800.106
414.511	17.671	1074.532	800.077
415.526	17.675	1074.059	799.670
416.540	17.657	1073.591	799.166
417.555	17.699	1072.552	798.519
418.569	17.706	1072.474	798.424
419.584	17.790	1071.511	798.029
420.599	17.810	1071.135	797.771
421.613	108.384	1332.463	1487.588
422.628	100.347	1370.467	1487.655
