DTS Sentinel unit serial number:	SN413079Multiplexer serial number:	ORYXHardware model number:	OX4-SRSoftware version number:	ORYX F/W v4.00 Oryx Data Collector v3.7.2.0data status	okinstallation	princeton_trtdifferential loss correction	single-endedforward channel	channel 2reverse channel	N/Adate	2019/09/18time	20:47:34forward acquisition time	60.00reverse acquisition time	0.00gamma	496.2192k internal	0.2341k external	0.2341temperature offset calibration	1.0021default loss term (dB/km)	0.3790temperature slope calibration	1.0000multiplexer offset coefficient	1.0000multiplexer slope coefficient	1.0000fibre end	0.00T internal ref (°C)	27.23T ext. ref 1 (°C)	0.86T ext. ref 2 (°C)	18.48length (m)	temperature (°C)	Stokes	anti-Stokes-747.200	-200.000	0.036	-0.331
-746.185	-23.085	-0.136	-0.082
-745.171	46.149	0.225	0.209
-744.156	686.443	-0.045	0.119
-743.142	800.000	-0.129	0.405
-742.127	-43.184	-0.210	0.107
-741.112	347.568	0.100	-0.197
-740.098	-139.414	-0.217	0.023
-739.083	-40.316	-0.146	0.076
-738.069	9.685	-0.131	0.099
-737.054	-73.967	0.383	0.139
-736.039	-48.331	-0.271	-0.131
-735.025	-40.104	-0.049	0.026
-734.010	-200.000	0.044	-0.196
-732.996	385.126	-0.263	-0.543
-731.981	-200.000	-0.021	-0.278
-730.966	286.380	0.177	0.319
-729.952	-109.617	0.026	0.006
-728.937	-200.000	0.003	-0.137
-727.923	800.000	-0.077	-0.244
-726.908	426.479	-0.156	0.337
-725.894	81.095	0.126	0.136
-724.879	574.694	-0.112	0.274
-723.864	-45.069	-0.303	-0.151
-722.850	-110.248	-0.316	-0.066
-721.835	-111.585	-0.601	-0.122
-720.821	-38.970	0.099	0.052
-719.806	-200.000	0.030	0.131
-718.791	20.253	0.042	-0.034
-717.777	800.000	-0.059	0.216
-716.762	-200.000	0.045	-0.450
-715.748	-39.766	-0.044	-0.023
-714.733	800.000	0.074	0.285
-713.718	800.000	-0.077	-0.278
-712.704	-134.710	0.283	-0.034
-711.689	291.983	-0.034	-0.063
-710.675	-79.636	-0.181	-0.061
-709.660	-200.000	-0.027	0.189
-708.645	86.971	0.179	0.198
-707.631	-200.000	0.392	0.002
-706.616	-200.000	0.025	0.271
-705.602	-163.727	-0.116	-0.005
-704.587	-24.205	-0.147	0.088
-703.572	-200.000	0.000	-0.022
-702.558	-99.990	0.195	-0.049
-701.543	-34.200	0.117	0.064
-700.529	387.243	0.208	-0.431
-699.514	1.999	-0.334	-0.241
-698.499	-200.000	0.005	-0.317
-697.485	-77.623	-0.224	-0.078
-696.470	-140.461	-0.024	0.003
-695.456	223.126	-0.125	-0.201
-694.441	69.899	-0.031	0.032
-693.426	-200.000	-0.000	-0.175
-692.412	2.112	-0.131	0.094
-691.397	581.818	0.051	-0.125
-690.383	-200.000	0.051	0.231
-689.368	291.119	0.078	0.143
-688.354	254.585	-0.081	-0.139
-687.339	328.667	-0.164	-0.315
-686.324	-55.990	-0.220	-0.098
-685.310	-119.444	-0.160	-0.028
-684.295	-200.000	-0.026	0.184
-683.281	316.591	-0.089	-0.169
-682.266	-92.962	0.039	0.011
-681.251	-103.548	-0.205	0.048
-680.237	-10.499	0.173	-0.115
-679.222	-96.286	0.141	0.037
-678.208	-200.000	0.035	0.181
-677.193	-200.000	-0.023	-0.122
-676.178	800.000	0.054	-0.209
-675.164	-33.611	-0.344	0.190
-674.149	-200.000	-0.009	0.085
-673.135	112.081	-0.142	-0.171
-672.120	84.314	0.172	-0.187
-671.105	583.373	-0.090	0.221
-670.091	-200.000	0.021	0.261
-669.076	-200.000	-0.003	-0.256
-668.062	40.442	-0.264	-0.237
-667.047	403.283	0.049	0.104
-666.032	123.745	-0.077	-0.097
-665.018	152.670	-0.218	-0.298
-664.003	74.123	0.229	-0.240
-662.989	-129.439	0.040	-0.006
-661.974	-200.000	-0.011	-0.089
-660.959	800.000	0.100	-0.281
-659.945	-83.556	-0.420	-0.134
-658.930	-84.422	0.136	-0.043
-657.916	-200.000	-0.022	-0.279
-656.901	-8.516	0.172	0.116
-655.886	-103.477	0.441	0.104
-654.872	-109.580	-0.183	0.039
-653.857	-81.936	-0.091	-0.030
-652.843	-96.632	0.235	-0.062
-651.828	17.186	-0.042	-0.034
-650.814	-200.000	-0.009	-0.092
-649.799	-171.323	-0.292	0.010
-648.784	396.218	0.056	0.117
-647.770	-159.515	0.462	0.026
-646.755	800.000	-0.029	-0.120
-645.741	-200.000	0.009	-0.290
-644.726	-26.092	0.285	-0.167
-643.711	-124.132	0.323	-0.051
-642.697	-163.735	0.165	0.008
-641.682	37.154	-0.299	0.264
-640.668	588.289	0.110	-0.271
-639.653	-118.480	0.298	-0.053
-638.638	800.000	0.084	-0.239
-637.624	800.000	0.046	-0.141
-636.609	-36.494	0.383	0.206
-635.595	-200.000	0.001	0.111
-634.580	800.000	-0.113	-0.339
-633.565	800.000	-0.054	0.222
-632.551	7.873	-0.310	0.232
-631.536	-6.161	-0.077	0.053
-630.522	253.662	-0.182	0.310
-629.507	21.286	-0.276	-0.224
-628.492	143.650	-0.174	0.232
-627.478	-172.674	0.071	-0.002
-626.463	69.034	-0.128	-0.132
-625.449	-131.794	-0.174	0.023
-624.434	-35.699	0.317	0.171
-623.419	-49.760	-0.230	-0.109
-622.405	-53.261	0.484	0.221
-621.390	130.419	0.235	-0.300
-620.376	33.946	0.098	-0.085
-619.361	-39.845	0.051	0.026
-618.346	63.434	-0.264	-0.264
-617.332	800.000	-0.041	0.118
-616.317	749.629	0.100	0.270
-615.303	103.045	0.119	0.139
-614.288	28.505	-0.363	0.306
-613.273	323.429	0.123	0.234
-612.259	178.225	0.122	0.178
-611.244	-72.200	0.245	0.090
-610.230	800.000	-0.115	-0.399
-609.215	-160.765	-0.247	0.013
-608.201	-200.000	0.039	-0.250
-607.186	-108.024	-0.230	0.050
-606.171	46.296	-0.226	0.209
-605.157	-170.719	0.099	-0.003
-604.142	800.000	0.125	0.354
-603.128	-109.404	-0.129	-0.027
-602.113	-101.668	-0.106	0.026
-601.098	689.298	-0.038	-0.100
-600.084	800.000	0.098	0.319
-599.069	99.466	-0.081	-0.094
-598.055	-154.342	-0.097	-0.007
-597.040	-200.000	0.006	0.070
-596.025	187.848	-0.097	0.144
-595.011	-23.392	0.050	-0.030
-593.996	18.113	0.138	-0.110
-592.982	-68.535	0.147	0.057
-591.967	-200.000	0.021	0.208
-590.952	-13.857	0.254	-0.164
-589.938	129.625	-0.070	0.089
-588.923	-33.138	-0.306	-0.169
-587.909	-126.179	-0.155	0.023
-586.894	168.690	-0.072	-0.102
-585.879	79.521	-0.048	0.051
-584.865	-16.075	0.215	0.136
-583.850	-20.243	-0.029	-0.018
-582.836	3.429	-0.093	-0.067
-581.821	39.711	0.056	-0.050
-580.806	-51.192	0.279	0.130
-579.792	464.680	-0.151	0.336
-578.777	800.000	-0.072	0.218
-577.763	164.894	0.166	0.233
-576.748	396.140	-0.118	0.245
-575.733	25.726	-0.195	-0.161
-574.719	-60.045	0.018	0.008
-573.704	162.522	0.192	-0.269
-572.690	-200.000	-0.051	-0.231
-571.675	56.783	0.232	0.225
-570.661	800.000	0.130	0.393
-569.646	-200.000	-0.035	-0.188
-568.631	200.332	-0.248	0.380
-567.617	-200.000	0.012	-0.215
-566.602	-200.000	-0.046	0.246
-565.588	104.486	-0.206	-0.241
-564.573	207.742	0.180	0.280
-563.558	800.000	-0.036	-0.135
-562.544	260.138	-0.181	-0.311
-561.529	-3.039	0.148	-0.103
-560.515	800.000	0.054	-0.193
-559.500	422.862	-0.097	-0.208
-558.485	113.551	-0.154	-0.186
-557.471	-160.238	-0.061	0.003
-556.456	-200.000	-0.063	-0.371
-555.442	-112.843	-0.096	-0.019
-554.427	-21.919	0.272	-0.164
-553.412	137.269	-0.180	-0.234
-552.398	-83.107	0.112	-0.036
-551.383	71.250	-0.043	0.044
-550.369	800.000	-0.060	-0.187
-549.354	800.000	0.062	0.211
-548.339	-200.000	0.002	-0.375
-547.325	-200.000	0.000	0.063
-546.310	-41.330	-0.207	-0.106
-545.296	100.187	0.105	-0.121
-544.281	53.022	-0.096	0.092
-543.266	-2.448	0.137	0.095
-542.252	139.195	0.228	-0.299
-541.237	172.070	0.242	-0.346
-540.223	-151.050	0.323	-0.024
-539.208	36.393	-0.333	0.292
-538.193	36.781	0.103	-0.091
-537.179	122.071	0.186	0.231
-536.164	-67.844	0.171	0.067
-535.150	115.570	-0.171	0.208
-534.135	-26.416	-0.162	-0.094
-533.121	524.467	-0.092	0.215
-532.106	-155.976	-0.127	0.008
-531.091	-50.843	0.051	0.024
-530.077	-137.881	0.250	-0.028
-529.062	60.882	0.285	-0.281
-528.048	43.833	0.174	-0.159
-527.033	-200.000	0.057	0.269
-526.018	372.730	0.232	0.469
-525.004	-47.428	0.170	-0.082
-523.989	17.533	-0.294	-0.232
-522.975	800.000	-0.057	-0.192
-521.960	358.079	-0.060	-0.118
-520.945	266.593	-0.030	-0.053
-519.931	495.813	0.113	0.259
-518.916	-200.000	0.056	0.255
-517.902	54.227	-0.116	-0.111
-516.887	17.712	0.109	0.086
-515.872	-62.606	-0.018	0.007
-514.858	154.381	0.217	-0.296
-513.843	89.536	-0.207	0.229
-512.829	-97.184	-0.204	0.053
-511.814	-200.000	-0.040	-0.188
-510.799	241.797	0.104	-0.173
-509.785	-133.507	0.111	0.014
-508.770	166.575	0.114	-0.161
-507.756	-108.528	0.101	0.022
-506.741	148.414	0.187	-0.250
-505.726	-99.404	-0.166	0.042
-504.712	56.104	-0.263	-0.254
-503.697	-120.383	0.547	0.092
-502.683	175.029	0.120	-0.172
-501.668	-173.296	-0.437	0.013
-500.653	-129.989	-0.169	0.023
-499.639	-33.615	-0.329	-0.180
-498.624	800.000	-0.031	0.103
-497.610	1.097	0.109	-0.078
-496.595	800.000	0.090	0.277
-495.581	160.895	0.148	-0.206
-494.566	800.000	0.047	-0.169
-493.551	-150.630	0.047	-0.004
-492.537	15.625	-0.376	0.293
-491.522	-59.212	-0.125	-0.054
-490.508	-200.000	-0.008	0.186
-489.493	800.000	0.012	0.041
-488.478	-87.079	-0.250	0.076
-487.464	-74.307	0.329	-0.118
-486.449	348.680	-0.101	-0.198
-485.435	-62.586	-0.316	-0.130
-484.420	-77.896	-0.205	0.070
-483.405	-92.056	0.190	-0.053
-482.391	-200.000	0.000	0.153
-481.376	-200.000	0.104	0.453
-480.362	-200.000	-0.003	-0.032
-479.347	-31.844	0.265	-0.148
-478.332	-127.880	-0.187	0.027
-477.318	-200.000	0.051	0.429
-476.303	-116.659	0.271	-0.049
-475.289	-200.000	-0.036	-0.308
-474.274	-12.998	-0.267	0.172
-473.259	-200.000	-0.057	0.500
-472.245	-60.840	0.064	0.027
-471.230	-53.148	-0.405	0.184
-470.216	-99.097	0.263	0.066
-469.201	31.757	0.103	0.088
-468.186	-120.686	0.074	0.012
-467.172	122.956	-0.091	0.113
-466.157	11.768	-0.170	-0.129
-465.143	69.008	0.122	0.124
-464.128	135.333	0.060	-0.077
-463.113	-200.000	0.042	0.462
-462.099	210.980	-0.068	-0.106
-461.084	-200.000	0.084	0.606
-460.070	-24.300	-0.279	0.165
-459.055	293.180	0.061	0.110
-458.040	-129.278	0.245	-0.034
-457.026	221.659	-0.191	0.305
-456.011	414.588	-0.167	0.352
-454.997	176.084	-0.220	-0.317
-453.982	191.170	0.057	0.086
-452.968	-3.138	0.171	0.118
-451.953	220.607	0.018	0.028
-450.938	-200.000	-0.051	-0.402
-449.924	59.169	0.277	-0.270
-448.909	-200.000	0.050	-0.403
-447.895	-9.009	0.376	0.249
-446.880	-104.319	0.375	0.086
-445.865	-200.000	-0.024	0.243
-444.851	-133.675	-0.147	0.018
-443.836	158.144	-0.205	-0.281
-442.822	800.000	-0.085	-0.322
-441.807	800.000	0.114	0.321
-440.792	29.915	-0.132	0.112
-439.778	155.542	0.072	-0.098
-438.763	-113.782	-0.275	-0.053
-437.749	-35.066	0.342	-0.185
-436.734	-125.759	0.214	-0.032
-435.719	-157.053	-0.104	0.006
-434.705	46.153	0.166	0.152
-433.690	35.612	-0.246	-0.214
-432.676	-199.473	-0.057	-0.000
-431.661	-150.294	0.334	0.026
-430.646	181.057	-0.092	0.134
-429.632	-99.862	-0.145	-0.036
-428.617	800.000	0.041	-0.170
-427.603	-200.000	-0.034	-0.244
-426.588	-200.000	-0.080	0.412
-425.573	1.007	0.274	0.195
-424.559	287.987	0.078	-0.140
-423.544	69.584	0.054	0.055
-422.530	-80.574	-0.152	0.050
-421.515	-142.134	-0.341	-0.033
-420.500	674.552	-0.075	-0.192
-419.486	-100.097	0.218	-0.054
-418.471	-75.255	-0.084	-0.030
-417.457	104.705	-0.161	-0.187
-416.442	-182.721	0.207	0.004
-415.428	25.734	-0.279	-0.230
-414.413	13.421	-0.147	-0.113
-413.398	-5.336	0.085	0.058
-412.384	122.936	-0.182	0.225
-411.369	-58.973	-0.183	0.078
-410.355	321.179	0.047	0.087
-409.340	-200.000	-0.001	0.227
-408.325	800.000	0.072	0.293
-407.311	-20.963	0.060	0.036
-406.296	3.317	-0.331	-0.238
-405.282	206.765	0.245	-0.378
-404.267	-200.000	-0.042	0.319
-403.252	-51.954	0.054	-0.025
-402.238	97.344	-0.111	0.126
-401.223	240.014	-0.011	0.019
-400.209	-200.000	-0.045	0.326
-399.194	20.437	-0.117	-0.093
-398.179	12.516	0.087	-0.067
-397.165	358.453	-0.159	-0.315
-396.150	800.000	-0.054	0.177
-395.136	41.293	0.101	-0.090
-394.121	-200.000	0.015	-0.084
-393.106	748.694	0.065	-0.174
-392.092	-200.000	-0.063	-0.469
-391.077	724.215	0.162	-0.428
-390.063	18.558	0.249	0.197
-389.048	-200.000	0.007	-0.030
-388.033	-200.000	0.085	0.399
-387.019	10.287	-0.235	0.177
-386.004	241.664	0.101	-0.166
-384.990	-200.000	0.034	0.195
-383.975	-126.292	-0.138	0.020
-382.960	-200.000	-0.031	0.325
-381.946	24.201	-0.061	0.050
-380.931	-134.278	-0.280	0.034
-379.917	465.817	0.028	-0.061
-378.902	79.117	-0.127	-0.134
-377.888	696.800	0.040	-0.104
-376.873	231.279	-0.132	0.214
-375.858	800.000	0.135	0.399
-374.844	-200.000	0.014	-0.099
-373.829	-191.966	0.309	-0.003
-372.815	800.000	0.035	0.105
-371.800	-2.259	-0.098	-0.068
-370.785	-200.000	0.031	0.155
-369.771	800.000	-0.075	0.219
-368.756	48.369	-0.097	-0.089
-367.742	800.000	-0.027	-0.109
-366.727	-113.711	-0.270	-0.052
-365.712	156.343	0.133	-0.181
-364.698	-146.753	0.233	0.020
-363.683	800.000	-0.062	0.189
-362.669	-188.742	0.149	0.002
-361.654	-200.000	0.005	0.076
-360.639	187.379	0.217	-0.319
-359.625	2.388	0.066	-0.047
-358.610	99.745	-0.111	-0.126
-357.596	-200.000	-0.003	-0.216
-356.581	75.889	-0.075	0.078
-355.566	28.262	0.211	-0.176
-354.552	-200.000	0.009	0.110
-353.537	-60.935	0.270	-0.113
-352.523	-200.000	0.053	-0.255
-351.508	-200.000	-0.002	0.208
-350.493	60.994	0.160	-0.157
-349.479	57.606	0.145	0.140
-348.464	-72.767	0.467	-0.170
-347.450	-66.887	-0.325	0.127
-346.435	-200.000	-0.010	-0.177
-345.420	5.680	-0.163	-0.119
-344.406	-200.000	0.004	-0.133
-343.391	-44.419	0.094	-0.046
-342.377	-79.553	0.135	-0.045
-341.362	-200.000	-0.019	-0.197
-340.348	322.009	-0.118	-0.221
-339.333	-20.651	0.323	0.196
-338.318	397.056	0.073	0.150
-337.304	564.224	0.137	-0.327
-336.289	40.312	-0.125	-0.111
-335.275	-34.246	-0.276	0.150
-334.260	70.926	0.231	-0.236
-333.245	-200.000	0.005	-0.255
-332.231	2.639	0.065	-0.047
-331.216	-50.377	0.284	-0.132
-330.202	-200.000	0.019	0.204
-329.187	800.000	-0.011	0.046
-328.172	267.267	-0.106	-0.182
-327.158	800.000	0.067	0.239
-326.143	214.965	-0.136	-0.212
-325.129	-200.000	-0.031	0.265
-324.114	800.000	0.083	0.279
-323.099	800.000	0.024	-0.098
-322.085	269.946	-0.190	-0.329
-321.070	-200.000	-0.033	0.199
-320.056	-200.000	0.022	0.194
-319.041	-122.404	-0.235	-0.038
-318.026	174.369	-0.218	0.311
-317.012	-70.411	-0.249	-0.093
-315.997	191.329	0.063	0.093
-314.983	-200.000	-0.020	-0.098
-313.968	800.000	0.046	0.141
-312.953	-151.399	-0.138	-0.010
-311.939	-200.000	-0.004	-0.342
-310.924	713.626	0.144	-0.375
-309.910	-22.428	0.310	0.185
-308.895	-82.487	-0.334	0.107
-307.880	-200.000	0.044	-0.238
-306.866	800.000	-0.085	-0.298
-305.851	-200.000	-0.002	0.252
-304.837	-200.000	-0.037	0.300
-303.822	-200.000	-0.030	-0.247
-302.807	229.637	-0.151	0.242
-301.793	-24.728	-0.148	-0.087
-300.778	-92.123	-0.189	0.053
-299.764	-54.982	0.018	0.008
-298.749	625.696	0.061	-0.152
-297.735	-65.195	-0.066	-0.026
-296.720	-142.929	0.410	-0.039
-295.705	108.115	0.104	-0.122
-294.691	-133.766	-0.342	-0.042
-293.676	180.864	0.067	0.098
-292.662	33.768	0.050	-0.043
-291.647	158.653	-0.155	-0.212
-290.632	800.000	-0.063	0.173
-289.618	-21.153	-0.288	0.174
-288.603	224.812	-0.118	-0.188
-287.589	146.205	-0.071	0.093
-286.574	-136.321	0.415	-0.048
-285.559	316.252	0.164	-0.305
-284.545	-76.979	-0.250	-0.086
-283.530	-200.000	0.040	0.230
-282.516	-170.488	-0.294	0.010
-281.501	-101.192	0.318	-0.077
-280.486	-200.000	0.009	-0.209
-279.472	800.000	-0.126	-0.381
-278.457	118.006	0.298	-0.361
-277.443	-200.000	0.062	-0.000
-276.428	95.946	0.208	-0.234
-275.413	143.071	-0.106	0.138
-274.399	-72.130	-0.083	0.030
-273.384	338.034	-0.081	0.155
-272.370	785.084	-0.036	-0.098
-271.355	-200.000	0.014	-0.130
-270.340	-54.908	-0.210	-0.093
-269.326	2.185	0.302	-0.215
-268.311	-77.762	-0.225	-0.077
-267.297	-145.102	0.044	-0.004
-266.282	174.490	0.063	0.090
-265.267	-63.692	-0.056	-0.023
-264.253	259.919	0.129	0.220
-263.238	-98.118	0.275	0.070
-262.224	-70.117	0.399	-0.149
-261.209	-200.000	0.018	0.197
-260.195	58.077	-0.038	0.036
-259.180	-176.268	0.155	-0.004
-258.165	-136.226	0.169	-0.019
-257.151	38.922	0.218	0.192
-256.136	117.974	0.308	-0.373
-255.122	143.261	-0.092	0.121
-254.107	-57.732	-0.025	0.011
-253.092	-121.838	-0.536	-0.087
-252.078	23.059	0.235	-0.190
-251.063	-200.000	0.008	-0.184
-250.049	30.913	0.076	0.064
-249.034	417.543	0.139	-0.292
-248.019	41.645	0.111	-0.098
-247.005	-58.291	0.248	0.106
-245.990	125.941	0.101	-0.126
-244.976	1.053	0.133	-0.094
-243.961	511.528	-0.107	-0.245
-242.946	-200.000	0.022	0.111
-241.932	33.575	-0.156	0.133
-240.917	-90.501	-0.352	-0.100
-239.903	164.189	-0.183	0.254
-238.888	101.069	0.131	-0.150
-237.873	800.000	0.064	-0.206
-236.859	-200.000	0.043	0.194
-235.844	83.171	-0.187	0.200
-234.830	-35.055	-0.226	0.121
-233.815	169.304	0.149	0.209
-232.800	112.962	0.226	0.270
-231.786	-200.000	-0.066	-0.343
-230.771	45.027	0.067	-0.061
-229.757	684.337	-0.077	0.197
-228.742	-76.200	0.077	0.027
-227.727	272.028	-0.126	-0.218
-226.713	800.000	-0.094	0.326
-225.698	800.000	0.084	-0.235
-224.684	-19.544	-0.232	0.141
-223.669	-96.399	-0.201	0.052
-222.655	-104.269	0.165	0.038
-221.640	61.918	-0.113	-0.110
-220.625	-160.291	-0.431	-0.023
-219.611	-200.000	-0.019	-0.246
-218.596	34.689	0.068	-0.059
-217.582	-81.377	0.039	-0.013
-216.567	100.430	-0.113	-0.129
-215.552	800.000	0.086	0.256
-214.538	214.044	0.067	-0.105
-213.523	-109.766	0.296	0.061
-212.509	-136.722	0.229	0.026
-211.494	-38.144	0.252	-0.131
-210.479	-97.042	-0.404	0.104
-209.465	800.000	-0.054	0.223
-208.450	-200.000	0.018	0.087
-207.436	-33.429	0.020	0.011
-206.421	-79.782	-0.191	-0.063
-205.406	-179.778	-0.252	-0.005
-204.392	-151.350	0.120	0.009
-203.377	800.000	-0.126	0.348
-202.363	315.120	0.114	-0.210
-201.348	-143.797	0.147	-0.014
-200.333	-200.000	-0.015	0.244
-199.319	97.009	-0.166	-0.186
-198.304	350.019	0.155	0.300
-197.290	96.692	-0.243	-0.273
-196.275	-115.583	0.210	-0.039
-195.260	503.477	0.092	-0.209
-194.246	281.533	0.126	0.221
-193.231	-200.000	-0.003	-0.086
-192.217	800.000	0.039	-0.117
-191.202	-139.609	-0.142	0.015
-190.187	-13.363	0.271	0.172
-189.173	-200.000	0.006	0.331
-188.158	-126.539	-0.352	0.051
-187.144	800.000	0.099	0.270
-186.129	-85.967	-0.167	0.051
-185.114	-96.039	0.251	0.066
-184.100	787.658	-0.134	0.362
-183.085	-79.576	0.286	0.095
-182.071	465.204	-0.117	-0.257
-181.056	87.227	-0.172	-0.187
-180.042	800.000	-0.017	-0.065
-179.027	69.352	-0.062	-0.063
-178.012	-43.047	-0.297	0.147
-176.998	107.816	0.135	0.157
-175.983	223.658	-0.091	-0.144
-174.969	-31.081	-0.231	-0.128
-173.954	-58.557	-0.198	0.084
-172.939	-200.000	-0.038	0.262
-171.925	30.504	0.222	-0.186
-170.910	54.235	-0.218	-0.205
-169.896	-19.923	0.117	-0.071
-168.881	153.124	-0.149	0.200
-167.866	96.199	-0.225	0.252
-166.852	76.595	0.153	0.159
-165.837	-23.763	-0.135	0.079
-164.823	-106.814	-0.235	0.051
-163.808	800.000	0.036	0.135
-162.793	-53.613	-0.214	-0.096
-161.779	-200.000	-0.005	0.036
-160.764	103.840	-0.069	-0.080
-159.750	91.033	0.252	0.277
-158.735	-200.000	0.024	0.127
-157.720	-100.674	0.039	-0.009
-156.706	12.149	-0.021	0.016
-155.691	-53.991	-0.192	-0.086
-154.677	-116.243	0.229	-0.042
-153.662	256.331	-0.047	-0.079
-152.647	97.917	-0.036	-0.040
-151.633	-80.857	-0.198	0.064
-150.618	-59.212	-0.266	0.112
-149.604	-21.579	0.302	-0.180
-148.589	800.000	0.060	0.236
-147.574	-103.308	0.292	0.067
-146.560	2.275	0.035	-0.025
-145.545	-137.380	-0.161	0.018
-144.531	122.908	-0.237	-0.290
-143.516	125.728	-0.286	-0.354
-142.502	135.664	-0.134	0.171
-141.487	-35.188	-0.201	-0.107
-140.472	-23.707	0.176	-0.104
-139.458	-76.361	-0.236	-0.081
-138.443	-187.471	0.374	-0.005
-137.429	362.563	0.098	-0.192
-136.414	800.000	0.035	0.126
-135.399	-60.651	0.110	0.046
-134.385	-109.300	0.112	0.023
-133.370	-68.921	-0.461	0.174
-132.356	-200.000	0.008	-0.161
-131.341	250.670	-0.163	-0.271
-130.326	800.000	-0.029	-0.085
-129.312	800.000	-0.026	-0.077
-128.297	-44.666	0.206	0.101
-127.283	246.754	-0.087	0.143
-126.268	252.356	-0.038	0.063
-125.253	-160.367	0.144	0.008
-124.239	528.441	-0.113	0.262
-123.224	328.635	0.116	0.219
-122.210	-165.452	-0.073	0.003
-121.195	800.000	-0.037	0.115
-120.180	39.134	-0.227	-0.198
-119.166	489.052	0.042	-0.093
-118.151	116.945	-0.155	-0.187
-117.137	-200.000	0.038	0.172
-116.122	-168.450	-0.083	-0.003
-115.107	328.087	0.087	0.163
-114.093	800.000	-0.036	0.147
-113.078	-156.819	0.221	-0.013
-112.064	223.673	-0.160	-0.252
-111.049	177.975	-0.154	-0.219
-110.034	294.030	0.088	-0.156
-109.020	-145.926	-0.096	0.008
-108.005	-4.673	0.127	-0.085
-106.991	259.746	-0.119	-0.202
-105.976	-24.455	0.133	-0.078
-104.962	762.173	0.159	0.423
-103.947	-14.509	-0.120	0.075
-102.932	27.120	0.040	0.033
-101.918	-73.076	0.314	-0.113
-100.903	170.754	-0.154	-0.216
-99.889	-200.000	-0.027	0.122
-98.874	800.000	0.058	-0.233
-97.859	-191.188	-0.221	-0.002
-96.845	-61.120	0.191	-0.079
-95.830	61.700	-0.377	0.367
-94.816	236.897	-0.111	-0.179
-93.801	-172.875	-0.166	-0.005
-92.786	129.957	0.090	-0.113
-91.772	-23.049	-0.165	-0.097
-90.757	403.123	-0.170	0.349
-89.743	169.890	0.192	-0.268
-88.728	41.148	0.175	-0.154
-87.713	-36.957	-0.344	0.180
-86.699	-200.000	0.011	0.529
-85.684	-142.389	0.408	0.039
-84.670	-53.028	0.086	0.038
-83.655	117.692	0.218	-0.262
-82.640	482.288	0.071	-0.158
-81.626	-157.881	-0.254	-0.015
-80.611	-22.591	-0.309	-0.183
-79.597	-56.354	-0.325	-0.141
-78.582	-200.000	-0.088	0.465
-77.567	53.243	0.117	-0.109
-76.553	53.737	0.107	-0.101
-75.538	-82.564	0.230	-0.073
-74.524	192.471	-0.089	0.131
-73.509	800.000	0.072	-0.224
-72.494	-200.000	-0.030	0.291
-71.480	-200.000	0.006	0.242
-70.465	-88.243	-0.128	0.037
-69.451	-58.249	0.205	0.087
-68.436	-25.344	-0.281	0.162
-67.422	-27.332	0.190	0.108
-66.407	597.222	0.120	0.289
-65.392	-200.000	0.045	0.492
-64.378	407.031	0.087	0.179
-63.363	35.464	0.252	0.216
-62.349	19.833	0.195	0.153
-61.334	67.756	-1.035	-1.032
-60.319	40.634	0.607	0.534
-59.305	397.963	-0.496	-1.012
-58.290	114.102	0.991	1.177
-57.276	800.000	0.329	1.380
-56.261	-200.000	113.482	636.143
-55.246	465.528	1483.487	3239.287
-54.232	151.762	2654.770	3529.747
-53.217	93.139	2268.005	2501.339
-52.203	35.735	1887.311	1618.137
-51.188	30.483	1684.069	1404.254
-50.173	28.018	1643.237	1351.945
-49.159	46.421	1701.522	1539.166
-48.144	45.743	1715.059	1546.236
-47.130	29.894	1671.924	1389.483
-46.115	27.296	1657.902	1358.408
-45.100	27.140	1652.744	1352.963
-44.086	27.171	1650.012	1350.901
-43.071	27.186	1647.269	1348.713
-42.057	27.020	1645.559	1346.034
-41.042	27.188	1643.313	1345.382
-40.027	27.184	1641.488	1343.808
-39.013	27.085	1639.915	1341.733
-37.998	27.086	1638.232	1340.316
-36.984	27.073	1636.897	1339.069
-35.969	27.233	1635.326	1338.914
-34.954	27.252	1633.588	1337.572
-33.940	27.173	1632.009	1335.652
-32.925	27.125	1630.799	1334.252
-31.911	27.195	1628.616	1332.926
-30.896	27.182	1627.130	1331.566
-29.881	27.200	1625.269	1330.116
-28.867	27.161	1623.936	1328.691
-27.852	27.214	1622.501	1327.848
-26.838	27.281	1620.699	1326.810
-25.823	27.296	1619.203	1325.646
-24.809	27.328	1617.809	1324.684
-23.794	27.232	1617.006	1323.275
-22.779	27.215	1615.354	1321.748
-21.765	27.248	1614.138	1320.938
-20.750	27.250	1612.007	1319.160
-19.736	27.252	1610.901	1318.212
-18.721	27.329	1609.575	1317.637
-17.706	27.291	1608.007	1316.022
-16.692	27.236	1606.326	1314.196
-15.677	27.202	1605.322	1313.082
-14.663	27.408	1603.259	1312.823
-13.648	27.334	1601.895	1311.123
-12.633	27.324	1600.306	1309.701
-11.619	27.230	1599.455	1308.271
-10.604	27.280	1597.966	1307.363
-9.590	27.315	1596.689	1306.518
-8.575	27.330	1595.585	1305.672
-7.560	27.198	1594.557	1303.832
-6.546	27.328	1592.360	1302.914
-5.531	27.328	1591.997	1302.566
-4.517	27.174	1590.739	1300.382
-3.502	27.275	1589.442	1299.992
-2.487	27.333	1587.931	1299.115
-1.473	26.606	1575.378	1283.648
-0.458	22.808	1554.631	1240.062
0.556	17.441	1553.454	1200.572
1.571	14.499	1575.133	1196.145
2.586	13.848	1586.075	1199.642
3.600	12.600	1533.554	1151.092
4.615	7.448	1429.460	1039.189
5.629	1.975	1370.505	961.807
6.644	0.915	1363.197	949.942
7.659	0.885	1361.876	948.752
8.673	0.851	1360.695	947.633
9.688	0.769	1358.834	945.739
10.702	0.585	1355.800	942.397
11.717	3.236	1358.747	960.925
12.731	9.811	1368.784	1009.169
13.746	15.744	1376.744	1052.167
14.761	17.359	1378.995	1063.910
15.775	16.794	1377.077	1058.804
16.790	15.826	1374.446	1050.646
17.804	15.123	1371.882	1044.208
18.819	14.640	1370.873	1040.342
19.834	14.470	1369.532	1038.172
20.848	14.176	1368.512	1035.477
21.863	13.854	1367.276	1032.448
22.877	13.819	1365.945	1031.136
23.892	13.728	1365.075	1029.822
24.907	13.714	1364.080	1028.897
25.921	13.684	1363.415	1028.118
26.936	13.731	1362.725	1027.795
27.950	13.768	1361.199	1026.784
28.965	13.927	1360.001	1026.772
29.980	13.914	1359.177	1025.980
30.994	13.872	1358.893	1025.416
32.009	13.883	1357.682	1024.479
33.023	13.953	1356.265	1023.746
34.038	13.945	1355.523	1023.050
35.053	13.799	1354.263	1021.106
36.067	13.881	1353.008	1020.579
37.082	13.901	1352.414	1020.158
38.096	13.896	1350.986	1018.965
39.111	13.784	1350.962	1018.169
40.126	13.778	1349.760	1017.136
41.140	13.662	1348.949	1015.719
42.155	13.716	1348.793	1015.846
43.169	13.737	1348.264	1015.489
44.184	13.720	1348.252	1015.284
45.199	13.588	1348.143	1014.301
46.213	13.729	1346.953	1014.179
47.228	13.855	1346.015	1014.151
48.242	13.864	1344.853	1013.243
49.257	13.754	1343.583	1011.527
50.271	13.722	1342.167	1010.173
51.286	13.820	1340.608	1009.510
52.301	13.819	1339.580	1008.641
53.315	13.886	1337.869	1007.669
54.330	13.772	1337.409	1006.539
55.344	13.701	1336.180	1005.100
56.359	13.753	1335.097	1004.507
57.374	13.745	1334.113	1003.634
58.388	13.686	1333.537	1002.755
59.403	13.673	1332.944	1002.137
60.417	13.631	1332.319	1001.326
61.432	13.789	1330.942	1001.157
62.447	13.686	1330.134	999.838
63.461	13.573	1329.461	998.566
64.476	13.640	1327.899	997.705
65.490	13.618	1327.297	997.035
66.505	13.646	1325.498	995.759
67.520	13.705	1324.085	994.966
68.534	13.731	1323.229	994.388
69.549	13.719	1321.974	993.285
70.563	13.683	1321.134	992.350
71.578	13.716	1319.525	991.257
72.593	13.532	1318.861	989.569
73.607	13.587	1318.032	989.184
74.622	13.620	1316.904	988.451
75.636	13.564	1316.057	987.394
76.651	13.653	1315.145	987.154
77.666	13.585	1314.862	986.445
78.680	13.667	1314.724	986.741
79.695	13.674	1313.528	985.799
80.709	13.634	1312.634	984.806
81.724	13.558	1312.459	984.134
82.739	13.741	1310.460	983.637
83.753	13.758	1309.490	982.921
84.768	13.760	1309.175	982.605
85.782	13.820	1307.750	981.808
86.797	13.831	1306.126	980.567
87.812	13.686	1305.267	978.978
88.826	13.794	1304.775	979.158
89.841	13.790	1303.334	977.971
90.855	13.802	1302.056	976.993
91.870	13.910	1301.241	976.928
92.884	13.794	1300.643	975.710
93.899	13.912	1299.449	975.425
94.914	13.887	1298.856	974.745
95.928	13.939	1297.770	974.148
96.943	13.887	1297.306	973.409
97.957	13.812	1296.411	972.211
98.972	13.837	1295.487	971.580
99.987	13.807	1293.933	970.151
101.001	13.912	1292.979	969.963
102.016	13.896	1292.096	969.122
103.030	13.887	1291.479	968.526
104.045	13.871	1289.859	967.132
105.060	13.859	1288.839	966.207
106.074	13.813	1288.167	965.350
107.089	13.798	1286.485	963.922
108.103	13.675	1285.260	962.201
109.118	13.713	1284.101	961.473
110.133	13.752	1282.592	960.482
111.147	13.680	1281.467	959.138
112.162	13.753	1280.096	958.445
113.176	13.790	1279.286	957.973
114.191	13.800	1278.014	956.990
115.206	13.766	1276.910	955.883
116.220	13.706	1275.815	954.635
117.235	13.904	1274.399	954.626
118.249	13.816	1273.740	953.546
119.264	13.804	1272.520	952.476
120.279	13.776	1271.448	951.431
121.293	13.775	1270.263	950.453
122.308	13.756	1269.174	949.447
123.322	13.741	1267.925	948.341
124.337	13.751	1267.310	947.857
125.352	13.775	1266.218	947.095
126.366	13.683	1264.930	945.522
127.381	13.758	1264.104	945.249
128.395	13.743	1262.719	944.043
129.410	13.759	1261.794	943.356
130.424	13.813	1261.356	943.251
131.439	13.768	1260.132	941.999
132.454	13.713	1258.876	940.667
133.468	13.803	1258.265	940.635
134.483	13.778	1257.258	939.657
135.497	13.795	1256.419	939.044
136.512	13.673	1255.325	937.451
137.527	13.745	1253.587	936.481
138.541	13.819	1252.187	935.766
139.556	13.811	1250.928	934.697
140.570	13.889	1249.633	934.090
141.585	13.871	1248.362	932.955
142.600	13.857	1247.328	932.018
143.614	13.899	1246.692	931.698
144.629	13.933	1245.520	930.933
145.643	14.107	1244.142	930.792
146.658	13.942	1243.449	929.266
147.673	13.922	1241.847	927.878
148.687	13.855	1240.849	926.674
149.702	13.768	1239.392	925.022
150.716	13.931	1238.142	924.910
151.731	13.990	1236.672	924.059
152.746	13.903	1235.738	922.799
153.760	13.916	1234.660	921.982
154.775	13.915	1233.499	921.031
155.789	14.016	1231.744	920.195
156.804	14.037	1231.192	919.822
157.819	13.982	1230.397	918.841
158.833	14.038	1229.147	918.132
159.848	14.082	1228.133	917.536
160.862	14.095	1227.341	916.939
161.877	14.252	1225.817	916.583
162.892	13.992	1225.448	914.791
163.906	14.036	1224.357	914.143
164.921	14.053	1223.244	913.320
165.935	14.039	1222.447	912.568
166.950	14.051	1221.876	912.128
167.964	14.062	1221.461	911.799
168.979	14.184	1220.726	911.837
169.994	14.078	1219.654	910.379
171.008	14.167	1218.739	910.101
172.023	14.098	1218.165	909.213
173.037	14.176	1217.425	909.004
174.052	14.195	1216.551	908.377
175.067	14.158	1215.313	907.171
176.081	14.064	1214.877	906.250
177.096	14.036	1214.050	905.403
178.110	14.090	1212.311	904.322
179.125	14.210	1210.876	903.823
180.140	14.276	1209.851	903.333
181.154	14.222	1209.032	902.349
182.169	14.292	1207.640	901.608
183.183	14.273	1206.156	900.320
184.198	14.305	1205.150	899.664
185.213	14.357	1203.754	898.822
186.227	14.414	1202.813	898.346
187.242	14.409	1202.087	897.698
188.256	14.389	1201.312	896.930
189.271	14.532	1200.124	896.733
190.286	14.305	1199.199	894.742
191.300	14.321	1198.664	894.351
192.315	14.234	1198.257	893.501
193.329	14.329	1197.229	893.163
194.344	14.273	1196.399	892.169
195.359	14.320	1196.088	892.106
196.373	14.352	1195.406	891.694
197.388	14.381	1194.831	891.338
198.402	14.489	1193.963	891.188
199.417	14.517	1193.488	890.909
200.432	14.533	1192.888	890.465
201.446	14.642	1192.037	890.332
202.461	14.588	1190.852	889.081
203.475	14.519	1190.307	888.226
204.490	14.617	1188.704	887.472
205.504	14.667	1187.070	886.444
206.519	14.501	1186.162	884.805
207.534	14.562	1185.234	884.356
208.548	14.578	1184.462	883.787
209.563	14.597	1183.624	883.186
210.577	14.607	1182.475	882.300
211.592	14.536	1181.901	881.421
212.607	14.693	1180.682	881.263
213.621	14.749	1180.208	881.126
214.636	14.675	1179.182	879.890
215.650	14.650	1178.405	879.102
216.665	14.776	1177.342	878.892
217.680	14.767	1176.266	877.964
218.694	14.716	1175.770	877.251
219.709	14.898	1174.169	876.931
220.723	14.827	1173.746	876.168
221.738	14.819	1173.202	875.640
222.753	14.862	1172.566	875.312
223.767	14.826	1171.604	874.331
224.782	14.965	1170.981	874.515
225.796	15.017	1170.322	874.219
226.811	14.991	1169.727	873.562
227.826	14.956	1168.929	872.702
228.840	14.949	1168.688	872.411
229.855	14.937	1167.746	871.566
230.869	14.826	1166.997	870.353
231.884	14.999	1165.833	870.309
232.899	14.930	1165.142	869.354
233.913	14.823	1164.950	868.577
234.928	14.921	1163.860	868.200
235.942	14.858	1163.276	867.359
236.957	14.957	1162.410	867.153
237.972	14.975	1161.333	866.362
238.986	14.979	1160.527	865.706
240.001	14.988	1160.162	865.407
241.015	15.073	1159.225	865.070
242.030	15.023	1158.585	864.254
243.045	15.133	1157.801	864.161
244.059	15.085	1156.874	863.146
245.074	15.054	1156.240	862.435
246.088	15.248	1154.643	862.167
247.103	15.190	1154.835	861.938
248.117	15.108	1154.137	860.918
249.132	15.338	1153.135	861.274
250.147	15.332	1152.400	860.618
251.161	15.301	1151.614	859.797
252.176	15.277	1151.103	859.215
253.190	15.370	1150.195	858.937
254.205	15.473	1149.839	859.122
255.220	15.343	1149.287	857.970
256.234	15.418	1148.763	857.888
257.249	15.407	1147.869	857.085
258.263	15.404	1147.193	856.493
259.278	15.382	1147.007	856.166
260.293	15.499	1145.883	855.848
261.307	15.593	1145.178	855.725
262.322	15.571	1144.877	855.311
263.336	15.596	1144.051	854.747
264.351	15.673	1143.197	854.423
265.366	15.618	1142.924	853.863
266.380	15.534	1142.256	852.862
267.395	15.500	1141.745	852.234
268.409	15.558	1140.387	851.439
269.424	15.439	1140.165	850.591
270.439	15.622	1139.380	850.858
271.453	15.561	1138.624	849.909
272.468	15.537	1137.608	848.955
273.482	15.610	1137.046	848.830
274.497	15.619	1136.817	848.628
275.512	15.648	1136.127	848.183
276.526	15.689	1135.155	847.591
277.541	15.626	1134.779	846.918
278.555	15.680	1133.566	846.209
279.570	15.841	1132.650	846.261
280.585	15.792	1132.054	845.494
281.599	15.727	1131.547	844.715
282.614	15.801	1130.568	844.280
283.628	15.885	1129.090	843.523
284.643	15.801	1128.326	842.457
285.657	15.906	1127.423	842.233
286.672	15.941	1126.729	841.815
287.687	15.867	1125.627	840.549
288.701	15.855	1125.078	840.005
289.716	15.849	1124.031	839.116
290.730	15.840	1123.787	838.815
291.745	15.804	1123.350	838.239
292.760	15.894	1122.390	837.895
293.774	16.018	1121.831	838.019
294.789	16.006	1121.621	837.726
295.803	15.905	1120.847	836.576
296.818	15.965	1120.122	836.258
297.833	16.026	1119.012	835.658
298.847	16.017	1118.260	834.979
299.862	16.043	1117.377	834.374
300.876	16.158	1116.635	834.314
301.891	16.159	1115.670	833.522
302.906	16.034	1115.702	832.854
303.920	16.110	1115.321	832.873
304.935	16.187	1114.555	832.607
305.949	16.203	1113.450	831.788
306.964	16.169	1112.997	831.209
307.979	16.239	1111.872	830.638
308.993	16.305	1111.072	830.294
310.008	16.329	1110.589	829.974
311.022	16.303	1109.822	829.200
312.037	16.205	1109.089	828.102
313.052	16.276	1108.011	827.569
314.066	16.238	1106.856	826.449
315.081	16.387	1106.049	826.500
316.095	16.280	1105.599	825.567
317.110	16.182	1105.245	824.753
318.125	16.248	1104.091	824.140
319.139	16.173	1103.887	823.546
320.154	16.248	1102.785	823.020
321.168	16.184	1102.529	822.444
322.183	16.194	1101.453	821.615
323.197	16.283	1101.061	821.682
324.212	16.397	1100.086	821.438
325.227	16.321	1099.767	820.759
326.241	16.295	1099.718	820.521
327.256	16.440	1098.371	820.150
328.270	16.347	1097.188	818.743
329.285	16.327	1096.755	818.249
330.300	16.319	1095.814	817.435
331.314	16.354	1094.631	816.651
332.329	16.355	1094.044	816.144
333.343	16.403	1092.888	815.442
334.358	16.361	1092.311	814.738
335.373	16.487	1091.484	814.654
336.387	16.479	1090.732	813.983
337.402	16.524	1089.825	813.450
338.416	16.523	1089.193	812.902
339.431	16.610	1088.400	812.656
340.446	16.693	1087.793	812.528
341.460	16.697	1087.301	812.108
342.475	16.605	1086.740	811.176
343.489	16.743	1085.579	810.902
344.504	16.668	1084.821	809.906
345.519	16.723	1084.150	809.593
346.533	16.803	1083.307	809.277
347.548	16.817	1082.381	808.578
348.562	16.826	1081.691	808.034
349.577	16.792	1080.805	807.141
350.592	16.849	1079.821	806.606
351.606	16.735	1079.166	805.502
352.621	16.777	1078.918	805.446
353.635	16.709	1078.234	804.537
354.650	16.716	1077.621	804.043
355.665	16.716	1076.912	803.442
356.679	16.765	1075.657	802.668
357.694	16.778	1075.561	802.589
358.708	16.817	1075.322	802.523
359.723	16.896	1074.359	802.109
360.738	16.952	1073.364	801.557
361.752	16.908	1073.014	801.019
362.767	16.875	1072.570	800.458
363.781	16.889	1072.472	800.381
364.796	17.009	1071.445	800.112
365.810	16.955	1070.903	799.378
366.825	17.068	1070.149	799.280
367.840	17.007	1069.875	798.714
368.854	17.091	1069.261	798.581
369.869	17.097	1068.405	797.901
370.883	17.159	1067.524	797.461
371.898	17.244	1066.891	797.317
372.913	17.161	1066.021	796.209
373.927	17.262	1065.282	796.059
374.942	17.076	1065.023	794.926
375.956	17.290	1064.273	795.295
376.971	17.231	1063.688	794.512
377.986	17.192	1063.380	794.031
379.000	17.294	1062.636	793.882
380.015	17.302	1062.307	793.603
381.029	17.239	1061.998	793.005
382.044	17.326	1060.842	792.480
383.059	17.205	1060.384	791.503
384.073	17.376	1059.403	791.496
385.088	17.454	1058.245	790.923
386.102	17.299	1057.931	789.901
387.117	17.488	1056.495	789.634
388.132	17.412	1055.581	788.530
389.146	17.278	1055.039	787.433
390.161	17.352	1054.230	787.102
391.175	17.418	1053.814	787.028
392.190	17.430	1053.298	786.630
393.205	17.431	1052.521	785.980
394.219	17.572	1051.113	785.511
395.234	17.508	1050.531	784.712
396.248	17.506	1049.524	783.880
397.263	17.518	1048.537	783.129
398.278	17.432	1047.873	782.168
399.292	17.461	1047.066	781.631
400.307	17.475	1046.486	781.193
401.321	17.498	1045.942	780.825
402.336	17.476	1045.549	780.361
403.350	17.472	1044.805	779.716
404.365	17.571	1043.842	779.384
405.380	17.597	1043.199	778.953
406.394	17.479	1042.529	777.845
407.409	17.655	1041.636	777.911
408.423	17.726	1041.069	777.745
409.438	17.627	1040.504	776.800
410.453	17.696	1039.682	776.432
411.467	17.756	1038.919	776.069
412.482	17.825	1038.224	775.794
413.496	17.897	1037.624	775.602
414.511	17.872	1036.686	774.723
415.526	17.793	1036.619	774.245
416.540	17.873	1035.916	774.012
417.555	17.897	1035.189	773.512
418.569	17.917	1035.264	773.591
419.584	17.957	1034.264	772.955
420.599	17.876	1034.216	772.485
421.613	107.888	1326.994	1482.640
422.628	98.898	1369.620	1482.728
