DTS Sentinel unit serial number:	SN413079Multiplexer serial number:	ORYXHardware model number:	OX4-SRSoftware version number:	ORYX F/W v4.00 Oryx Data Collector v3.7.2.0data status	okinstallation	princeton_trtdifferential loss correction	single-endedforward channel	channel 2reverse channel	N/Adate	2019/09/19time	02:35:35forward acquisition time	60.00reverse acquisition time	0.00gamma	496.2192k internal	0.2353k external	0.2353temperature offset calibration	1.0019default loss term (dB/km)	0.3790temperature slope calibration	1.0000multiplexer offset coefficient	1.0000multiplexer slope coefficient	1.0000fibre end	0.00T internal ref (°C)	21.00T ext. ref 1 (°C)	0.66T ext. ref 2 (°C)	14.78length (m)	temperature (°C)	Stokes	anti-Stokes-747.200	141.220	0.075	0.099
-746.185	-64.042	-0.644	0.262
-745.171	800.000	0.106	-0.294
-744.156	-200.000	0.003	-0.021
-743.142	143.928	0.125	-0.167
-742.127	1.835	-0.083	0.060
-741.112	132.170	-0.254	-0.326
-740.098	800.000	-0.104	0.365
-739.083	-200.000	-0.005	0.047
-738.069	-4.245	0.299	0.206
-737.054	-47.343	0.239	-0.116
-736.039	-17.103	-0.306	0.192
-735.025	-200.000	0.073	0.383
-734.010	51.337	0.177	-0.168
-732.996	-200.000	-0.029	-0.262
-731.981	-45.684	0.239	0.118
-730.966	263.907	-0.115	-0.199
-729.952	5.507	-0.037	-0.027
-728.937	197.156	-0.125	-0.191
-727.923	20.206	0.123	-0.099
-726.908	-200.000	-0.012	-0.208
-725.894	26.735	0.084	0.070
-724.879	-200.000	0.052	-0.238
-723.864	-200.000	0.015	-0.213
-722.850	-39.338	0.284	0.149
-721.835	40.515	-0.359	0.322
-720.821	162.054	0.189	-0.264
-719.806	-70.553	-0.284	-0.107
-718.791	84.796	0.078	-0.085
-717.777	-200.000	-0.051	0.231
-716.762	250.591	-0.199	-0.336
-715.748	102.958	-0.170	-0.199
-714.733	800.000	-0.091	-0.393
-713.718	116.270	0.155	-0.189
-712.704	345.856	-0.099	-0.194
-711.689	800.000	-0.053	-0.185
-710.675	-101.029	-0.049	-0.012
-709.660	269.166	-0.053	-0.092
-708.645	254.063	-0.031	0.052
-707.631	-0.777	-0.197	-0.139
-706.616	-148.866	-0.273	0.022
-705.602	-200.000	0.010	-0.245
-704.587	380.965	0.163	-0.333
-703.572	-154.523	0.237	-0.016
-702.558	-193.881	-0.089	-0.001
-701.543	744.930	-0.059	-0.159
-700.529	85.710	-0.124	-0.135
-699.514	72.488	0.272	-0.282
-698.499	-200.000	-0.054	-0.435
-697.485	-200.000	0.007	0.065
-696.470	232.793	0.142	-0.232
-695.456	800.000	0.105	0.297
-694.441	-200.000	-0.026	0.297
-693.426	-200.000	-0.011	-0.301
-692.412	-24.749	-0.314	0.186
-691.397	-190.565	-0.074	-0.001
-690.383	-64.420	0.216	-0.087
-689.368	69.326	-0.367	0.376
-688.354	604.078	0.224	0.556
-687.339	100.839	0.128	0.148
-686.324	-61.099	0.348	-0.146
-685.310	0.094	0.153	0.109
-684.295	63.834	-0.215	-0.215
-683.281	-167.109	0.075	-0.003
-682.266	-25.566	-0.073	0.043
-681.251	33.639	-0.102	-0.088
-680.237	-200.000	0.029	0.495
-679.222	124.161	-0.166	0.207
-678.208	-66.921	-0.184	-0.072
-677.193	-89.057	-0.141	0.041
-676.178	-18.635	-0.451	-0.279
-675.164	-126.951	0.089	0.013
-674.149	124.661	0.090	-0.112
-673.135	-78.706	-0.020	-0.007
-672.120	469.423	0.038	0.085
-671.105	186.239	-0.157	-0.233
-670.091	-200.000	-0.086	-0.000
-669.076	-200.000	0.037	-0.192
-668.062	23.517	-0.144	0.118
-667.047	97.023	-0.144	0.164
-666.032	-116.948	0.240	0.044
-665.018	-200.000	0.076	-0.389
-664.003	800.000	-0.042	-0.126
-662.989	-76.219	0.071	-0.025
-661.974	-100.015	0.141	0.035
-660.959	-137.699	-0.324	0.036
-659.945	-109.250	-0.258	-0.054
-658.930	-128.617	0.072	0.010
-657.916	-200.000	-0.016	0.081
-656.901	21.258	-0.271	-0.218
-655.886	-106.019	-0.292	0.065
-654.872	-52.423	0.289	-0.133
-653.857	800.000	0.093	0.347
-652.843	214.150	-0.100	0.157
-651.828	-200.000	0.077	0.407
-650.814	-180.529	0.466	-0.010
-649.799	-200.000	-0.012	-0.181
-648.784	440.308	-0.047	0.101
-647.770	-12.985	0.015	-0.010
-646.755	211.893	-0.102	-0.159
-645.741	-20.974	0.085	0.052
-644.726	-137.274	-0.118	-0.013
-643.711	-12.042	-0.124	0.081
-642.697	268.235	0.116	0.202
-641.682	175.656	0.076	0.110
-640.668	662.901	0.076	-0.196
-639.653	60.993	0.264	-0.260
-638.638	-200.000	-0.025	0.175
-637.624	128.426	-0.128	-0.161
-636.609	35.800	-0.277	-0.242
-635.595	-49.374	0.237	0.112
-634.580	-200.000	-0.078	0.359
-633.565	-200.000	-0.046	0.249
-632.551	301.531	-0.303	-0.555
-631.536	800.000	-0.034	0.126
-630.522	800.000	-0.025	0.087
-629.507	53.303	-0.151	0.144
-628.492	188.923	0.041	-0.061
-627.478	-200.000	-0.066	-0.302
-626.463	800.000	-0.107	0.317
-625.449	63.942	0.258	-0.258
-624.434	7.011	-0.187	-0.138
-623.419	74.871	0.106	0.110
-622.405	-16.679	-0.174	0.109
-621.390	-168.345	-0.261	-0.010
-620.376	-200.000	-0.005	-0.139
-619.361	109.838	0.192	0.229
-618.346	-200.000	0.002	-0.301
-617.332	-27.614	-0.340	0.196
-616.317	-87.349	-0.112	-0.034
-615.303	464.443	-0.088	0.196
-614.288	-54.272	-0.136	-0.061
-613.273	-74.572	0.058	0.021
-612.259	-10.854	0.292	0.191
-611.244	654.661	0.143	-0.363
-610.230	800.000	-0.058	0.205
-609.215	759.458	0.021	0.056
-608.201	40.891	0.044	-0.039
-607.186	681.835	-0.059	0.153
-606.171	-144.778	-0.099	0.009
-605.157	56.134	-0.146	-0.141
-604.142	-200.000	0.008	-0.435
-603.128	-200.000	0.082	-0.394
-602.113	11.543	0.125	0.095
-601.098	-82.782	-0.208	0.067
-600.084	164.509	-0.103	-0.144
-599.069	-43.563	0.277	0.139
-598.055	301.692	-0.024	-0.045
-597.040	800.000	-0.190	-0.523
-596.025	516.524	0.091	0.210
-595.011	-176.145	0.137	-0.004
-593.996	-63.716	-0.080	-0.032
-592.982	-63.802	-0.387	-0.157
-591.967	-47.405	-0.325	-0.157
-590.952	-112.524	0.237	0.047
-589.938	-99.015	-0.085	-0.021
-588.923	495.846	-0.076	0.172
-587.909	-200.000	0.001	-0.125
-586.894	76.867	0.131	0.138
-585.879	-200.000	-0.000	0.210
-584.865	-34.313	0.088	0.048
-583.850	-200.000	0.032	0.163
-582.836	800.000	-0.108	0.384
-581.821	39.429	0.160	-0.142
-580.806	-0.780	-0.142	-0.100
-579.792	-50.538	-0.149	0.070
-578.777	278.101	0.031	-0.055
-577.763	-117.706	-0.074	-0.013
-576.748	-43.534	0.123	-0.061
-575.733	7.024	-0.117	0.086
-574.719	59.268	0.139	-0.135
-573.704	114.101	-0.143	-0.172
-572.690	-191.599	-0.105	0.001
-571.675	523.912	0.070	0.163
-570.661	261.269	0.048	-0.082
-569.646	2.105	0.278	0.199
-568.631	-200.000	-0.003	0.233
-567.617	330.877	-0.234	-0.447
-566.602	534.239	-0.159	0.374
-565.588	-124.100	-0.229	0.036
-564.573	-97.504	-0.273	0.070
-563.558	-200.000	-0.046	-0.352
-562.544	-200.000	-0.016	-0.107
-561.529	-1.901	-0.200	-0.139
-560.515	347.744	-0.100	0.196
-559.500	626.760	-0.053	0.132
-558.485	228.487	-0.043	0.070
-557.471	-53.461	0.138	0.062
-556.456	150.558	0.037	0.050
-555.442	-200.000	-0.006	-0.288
-554.427	428.572	0.106	0.227
-553.412	-26.456	0.198	0.115
-552.398	78.319	0.026	-0.027
-551.383	259.328	0.182	-0.311
-550.369	-88.860	0.334	-0.098
-549.354	-105.923	-0.196	0.044
-548.339	-31.853	0.219	0.122
-547.325	-89.572	0.182	-0.053
-546.310	27.212	-0.262	-0.218
-545.296	-200.000	-0.040	-0.342
-544.281	-200.000	0.019	-0.120
-543.266	-200.000	0.014	-0.229
-542.252	-23.591	0.114	-0.067
-541.237	-200.000	-0.001	0.148
-540.223	800.000	-0.107	0.437
-539.208	-200.000	0.007	-0.171
-538.193	-200.000	-0.021	-0.179
-537.179	-200.000	-0.009	0.086
-536.164	-63.357	0.145	-0.059
-535.150	-63.545	-0.115	0.047
-534.135	-76.891	-0.266	-0.092
-533.121	-200.000	-0.013	0.081
-532.106	-54.397	-0.059	0.026
-531.091	800.000	0.136	0.432
-530.077	-200.000	-0.494	0.002
-529.062	-200.000	-0.034	0.278
-528.048	-31.879	-0.149	0.083
-527.033	800.000	0.083	-0.302
-526.018	340.383	0.055	0.106
-525.004	5.774	-0.164	0.120
-523.989	-8.208	-0.067	-0.045
-522.975	5.410	0.164	0.120
-521.960	203.323	0.195	-0.298
-520.945	256.072	-0.307	0.521
-519.931	-200.000	0.036	0.193
-518.916	145.724	-0.114	0.151
-517.902	800.000	-0.059	0.169
-516.887	-5.063	-0.221	-0.151
-515.872	203.287	0.129	-0.198
-514.858	-1.834	-0.219	-0.152
-513.843	-69.802	0.282	-0.106
-512.829	-49.789	-0.126	0.059
-511.814	800.000	0.000	0.001
-510.799	800.000	-0.081	-0.232
-509.785	-25.293	0.272	-0.159
-508.770	-165.650	-0.213	-0.009
-507.756	800.000	0.062	0.210
-506.741	-121.312	-0.323	0.053
-505.726	-97.232	0.090	-0.023
-504.712	237.059	-0.170	0.277
-503.697	21.624	-0.046	-0.037
-502.683	-101.401	-0.092	-0.022
-501.668	187.304	0.100	-0.147
-500.653	-26.069	0.457	-0.265
-499.639	-105.076	-0.131	0.030
-498.624	800.000	-0.086	-0.275
-497.610	227.965	-0.086	-0.138
-496.595	-200.000	-0.079	-0.389
-495.581	22.633	0.386	-0.312
-494.566	-54.983	-0.191	0.085
-493.551	-200.000	0.034	0.165
-492.537	800.000	-0.058	-0.192
-491.522	-60.790	0.258	0.108
-490.508	-200.000	0.083	-0.433
-489.493	-200.000	-0.033	0.270
-488.478	800.000	-0.077	-0.279
-487.464	209.468	-0.066	0.102
-486.449	-85.299	-0.077	0.024
-485.435	691.471	0.031	0.079
-484.420	-59.244	0.171	0.073
-483.405	192.313	-0.064	0.095
-482.391	146.130	0.262	0.347
-481.376	-87.559	-0.240	0.072
-480.362	-130.286	0.334	-0.045
-479.347	-64.936	-0.068	0.027
-478.332	-151.629	-0.076	-0.006
-477.318	203.986	0.137	-0.210
-476.303	-167.613	-0.206	-0.008
-475.289	-200.000	0.057	-0.417
-474.274	8.888	0.101	-0.075
-473.259	386.079	-0.067	0.137
-472.245	-190.575	0.093	0.001
-471.230	299.855	-0.173	0.314
-470.216	-91.406	0.146	0.041
-469.201	-115.331	0.325	0.060
-468.186	-126.174	0.215	-0.032
-467.172	800.000	-0.002	-0.009
-466.157	96.431	0.059	0.067
-465.143	-24.795	0.134	0.078
-464.128	74.943	0.270	0.281
-463.113	622.614	-0.091	0.226
-462.099	191.394	0.057	-0.085
-461.084	800.000	0.019	0.060
-460.070	-200.000	0.003	-0.386
-459.055	245.163	-0.118	-0.196
-458.040	-183.208	-0.311	-0.005
-457.026	-200.000	-0.031	-0.140
-456.011	200.886	-0.201	0.304
-454.997	-84.492	0.211	0.066
-453.982	-158.745	0.541	0.031
-452.968	-40.772	-0.072	0.037
-451.953	136.475	0.212	0.273
-450.938	331.820	-0.180	0.343
-449.924	-94.385	0.106	0.028
-448.909	-55.499	0.142	-0.063
-447.895	-49.966	0.135	0.063
-446.880	222.901	-0.096	-0.153
-445.865	-89.153	-0.176	-0.051
-444.851	-113.419	-0.244	0.047
-443.836	796.498	-0.198	-0.538
-442.822	800.000	-0.009	-0.026
-441.807	603.012	0.131	-0.320
-440.792	-200.000	-0.015	-0.210
-439.778	255.625	0.172	-0.290
-438.763	-65.942	-0.082	-0.032
-437.749	-62.758	0.167	-0.068
-436.734	566.661	0.058	-0.139
-435.719	-200.000	0.048	0.282
-434.705	424.607	0.138	0.292
-433.690	622.969	-0.090	-0.223
-432.676	-200.000	-0.034	-0.250
-431.661	-3.818	0.271	0.185
-430.646	-140.458	-0.413	-0.042
-429.632	-9.290	0.222	0.146
-428.617	-109.219	-0.095	0.020
-427.603	-123.250	0.206	0.032
-426.588	-200.000	0.065	-0.320
-425.573	800.000	-0.100	-0.306
-424.559	-109.911	-0.411	-0.085
-423.544	-112.681	0.468	-0.092
-422.530	-56.800	-0.250	0.109
-421.515	-165.340	0.164	0.007
-420.500	36.173	-0.257	0.223
-419.486	-43.816	-0.168	0.083
-418.471	484.371	-0.032	0.071
-417.457	-200.000	0.034	-0.175
-416.442	5.649	-0.115	-0.084
-415.428	110.216	-0.184	-0.217
-414.413	195.683	0.110	-0.165
-413.398	-24.708	-0.130	0.076
-412.384	-97.663	0.228	-0.058
-411.369	1.899	-0.229	0.162
-410.355	-16.440	-0.324	-0.202
-409.340	-70.219	-0.043	-0.016
-408.325	268.308	0.086	-0.149
-407.311	189.807	-0.105	0.155
-406.296	-27.573	0.201	-0.115
-405.282	-200.000	0.020	0.235
-404.267	592.947	-0.126	-0.306
-403.252	3.774	-0.204	0.147
-402.238	158.685	0.239	-0.326
-401.223	-200.000	0.010	0.245
-400.209	-200.000	0.010	-0.059
-399.194	79.254	0.068	-0.072
-398.179	-200.000	-0.042	0.341
-397.165	-76.601	0.271	0.094
-396.150	-48.968	0.147	-0.069
-395.136	-23.177	0.063	0.037
-394.121	24.997	0.360	0.294
-393.106	-38.632	-0.243	-0.126
-392.092	-53.929	-0.224	-0.100
-391.077	-39.517	0.290	0.149
-390.063	-200.000	-0.010	0.088
-389.048	26.745	-0.034	-0.028
-388.033	800.000	-0.035	-0.106
-387.019	174.154	-0.038	-0.054
-386.004	156.951	-0.155	-0.211
-384.990	-85.363	0.375	-0.115
-383.975	-200.000	-0.033	-0.203
-382.960	156.339	0.056	-0.076
-381.946	800.000	0.033	-0.109
-380.931	-200.000	-0.012	0.085
-379.917	-200.000	0.004	0.033
-378.902	91.200	0.209	0.231
-377.888	-149.274	-0.064	-0.005
-376.873	-200.000	0.018	0.156
-375.858	-200.000	0.008	-0.134
-374.844	-200.000	-0.488	0.000
-373.829	-102.203	-0.140	-0.033
-372.815	57.652	-0.241	-0.232
-371.800	-40.057	0.225	-0.115
-370.785	242.730	-0.068	-0.111
-369.771	117.675	0.071	-0.086
-368.756	-172.686	-0.172	0.005
-367.742	-142.648	0.141	0.014
-366.727	49.834	-0.197	-0.183
-365.712	92.694	0.064	-0.071
-364.698	-16.627	-0.103	0.064
-363.683	687.381	0.086	0.222
-362.669	-52.647	-0.334	-0.152
-361.654	97.631	-0.109	0.123
-360.639	-200.000	-0.087	0.423
-359.625	-139.761	0.188	-0.020
-358.610	-155.424	0.244	-0.015
-357.596	166.221	0.220	-0.307
-356.581	-131.285	0.385	0.050
-355.566	-46.140	0.212	-0.102
-354.552	-71.127	0.272	0.100
-353.537	-140.636	-0.177	-0.018
-352.523	85.092	0.132	0.142
-351.508	342.431	-0.131	0.252
-350.493	188.199	0.016	0.024
-349.479	-200.000	0.080	0.354
-348.464	800.000	-0.107	-0.303
-347.450	-88.523	0.131	-0.038
-346.435	-39.825	-0.028	0.015
-345.420	-88.776	-0.302	-0.088
-344.406	-30.286	-0.105	-0.059
-343.391	373.425	0.089	0.177
-342.377	-17.739	-0.283	-0.175
-341.362	15.240	-0.171	-0.132
-340.348	124.096	0.165	0.203
-339.333	215.160	-0.129	0.200
-338.318	-200.000	-0.020	0.167
-337.304	-200.000	-0.003	-0.014
-336.289	-76.063	0.214	0.074
-335.275	512.504	0.102	-0.234
-334.260	8.854	0.365	-0.270
-333.245	-200.000	-0.077	-0.340
-332.231	-93.236	0.311	-0.085
-331.216	370.393	0.066	0.131
-330.202	416.890	-0.113	-0.236
-329.187	153.825	-0.223	0.300
-328.172	-200.000	-0.071	0.329
-327.158	-25.613	-0.250	-0.144
-326.143	116.305	0.192	-0.231
-325.129	-47.665	-0.190	0.090
-324.114	-105.983	-0.173	-0.038
-323.099	-30.973	-0.079	-0.044
-322.085	-92.758	-0.274	0.075
-321.070	-200.000	-0.000	0.176
-320.056	-168.630	-0.284	-0.011
-319.041	-184.720	0.284	0.004
-318.026	-139.691	0.253	0.026
-317.012	-34.233	-0.103	-0.056
-315.997	-200.000	-0.002	0.154
-314.983	-184.545	0.430	0.007
-313.968	178.201	-0.030	0.043
-312.953	-189.570	0.432	-0.005
-311.939	-118.729	0.194	-0.033
-310.924	-88.161	0.105	-0.031
-309.910	236.640	0.109	-0.177
-308.895	-19.522	-0.261	-0.158
-307.880	-200.000	0.012	0.113
-306.866	626.720	-0.114	0.282
-305.851	-6.738	-0.051	-0.034
-304.837	800.000	-0.038	0.109
-303.822	-168.949	-0.139	-0.005
-302.807	-200.000	0.019	-0.151
-301.793	-39.734	-0.211	0.108
-300.778	800.000	-0.065	0.256
-299.764	-200.000	0.007	0.402
-298.749	-200.000	0.011	-0.278
-297.735	-134.646	-0.210	0.025
-296.720	-200.000	0.006	-0.038
-295.705	-200.000	-0.057	-0.269
-294.691	20.859	0.380	-0.302
-293.676	800.000	0.021	-0.072
-292.662	-35.615	-0.100	-0.053
-291.647	800.000	-0.102	0.295
-290.632	800.000	0.107	0.352
-289.618	-72.474	-0.027	-0.010
-288.603	-47.932	-0.116	-0.055
-287.589	-200.000	0.018	-0.092
-286.574	800.000	-0.047	-0.173
-285.559	65.222	0.071	0.071
-284.545	304.929	-0.054	-0.099
-283.530	59.504	0.196	0.189
-282.516	-200.000	0.003	-0.095
-281.501	10.908	0.080	0.060
-280.486	594.683	-0.090	0.218
-279.472	47.316	-0.269	0.245
-278.457	-200.000	-0.007	-0.136
-277.443	122.897	-0.075	-0.092
-276.428	-66.444	0.307	-0.119
-275.413	225.961	0.085	0.135
-274.399	-200.000	-0.063	-0.377
-273.384	86.524	-0.103	0.112
-272.370	545.571	-0.088	0.205
-271.355	-55.376	0.066	0.029
-270.340	82.164	-0.244	-0.259
-269.326	319.058	0.149	0.276
-268.311	-200.000	0.030	-0.410
-267.297	-29.622	-0.064	0.036
-266.282	-200.000	-0.027	-0.258
-265.267	-42.231	0.144	0.072
-264.253	404.292	0.095	-0.195
-263.238	-148.570	0.492	-0.039
-262.224	32.343	-0.162	-0.137
-261.209	-128.377	0.286	0.040
-260.195	-49.017	0.277	0.130
-259.180	-123.625	-0.259	0.040
-258.165	568.830	-0.117	0.279
-257.151	-95.199	0.363	0.096
-256.136	-200.000	-0.003	-0.092
-255.122	-16.685	-0.287	-0.177
-254.107	49.985	0.219	0.202
-253.092	273.561	0.179	0.309
-252.078	511.242	0.149	0.339
-251.063	310.059	0.142	-0.260
-250.049	800.000	-0.065	0.226
-249.034	-106.714	0.258	-0.056
-248.019	3.391	-0.022	0.016
-247.005	229.950	-0.091	-0.146
-245.990	-111.898	0.198	0.039
-244.976	800.000	-0.119	0.370
-243.961	-37.248	0.206	-0.108
-242.946	-134.458	-0.407	0.049
-241.932	800.000	-0.121	-0.354
-240.917	18.148	0.393	0.306
-239.903	-0.807	-0.213	0.148
-238.888	171.829	0.348	0.488
-237.873	-200.000	0.041	0.403
-236.859	-200.000	0.019	0.179
-235.844	-200.000	-0.002	0.077
-234.830	-87.049	-0.310	-0.092
-233.815	-5.155	0.078	0.052
-232.800	-85.209	0.359	-0.110
-231.786	354.054	-0.057	0.110
-230.771	114.664	0.217	0.259
-229.757	-106.891	-0.193	0.042
-228.742	33.005	0.129	-0.109
-227.727	-176.584	0.154	-0.004
-226.713	-200.000	0.007	0.201
-225.698	417.212	-0.232	-0.484
-224.684	-106.814	0.093	-0.020
-223.669	89.573	-0.057	0.062
-222.655	-200.000	0.001	0.120
-221.640	-140.919	-0.210	-0.021
-220.625	578.692	0.177	-0.423
-219.611	-200.000	-0.058	-0.346
-218.596	-200.000	-0.044	-0.223
-217.582	732.759	-0.066	0.172
-216.567	155.618	0.068	0.092
-215.552	-92.660	0.379	-0.104
-214.538	383.549	-0.144	-0.290
-213.523	699.865	-0.034	-0.088
-212.509	74.518	-0.100	-0.102
-211.494	-166.718	0.151	-0.006
-210.479	-8.451	-0.356	0.234
-209.465	-200.000	0.038	0.364
-208.450	800.000	-0.076	0.268
-207.436	243.746	-0.163	-0.266
-206.421	-130.907	-0.188	-0.025
-205.406	-200.000	0.011	0.048
-204.392	-13.856	-0.344	0.217
-203.377	-123.409	0.205	-0.032
-202.363	800.000	0.027	-0.108
-201.348	730.189	0.232	-0.606
-200.333	543.959	-0.197	-0.458
-199.319	-147.407	-0.331	-0.027
-198.304	-99.866	-0.221	0.054
-197.290	-161.820	0.189	-0.009
-196.275	2.873	0.193	-0.136
-195.260	59.475	0.141	0.135
-194.246	140.940	0.061	-0.079
-193.231	-2.823	-0.449	0.307
-192.217	57.795	0.244	0.233
-191.202	709.532	-0.031	0.079
-190.187	-126.895	-0.135	0.019
-189.173	-150.385	-0.111	0.008
-188.158	-200.000	-0.003	0.186
-187.144	-74.367	-0.045	0.016
-186.129	45.161	0.294	-0.265
-185.114	108.911	-0.159	0.186
-184.100	3.492	-0.164	0.116
-183.085	776.665	0.104	0.277
-182.071	183.243	0.268	0.386
-181.056	-39.852	-0.248	0.127
-180.042	172.386	-0.084	0.118
-179.027	58.306	-0.219	0.210
-178.012	800.000	0.043	-0.159
-176.998	447.158	0.270	0.579
-175.983	126.566	-0.156	-0.192
-174.969	-106.616	-0.028	0.006
-173.954	745.618	0.091	-0.238
-172.939	45.136	-0.073	0.065
-171.925	67.492	-0.284	-0.282
-170.910	594.246	-0.097	0.234
-169.896	-9.483	0.305	0.198
-168.881	-113.615	0.130	-0.025
-167.866	141.100	-0.098	0.127
-166.852	-82.817	0.396	0.125
-165.837	-141.177	-0.253	0.025
-164.823	-97.281	0.186	0.047
-163.808	459.873	0.128	0.278
-162.793	-200.000	0.074	0.374
-161.779	-81.268	0.158	0.051
-160.764	171.627	0.107	0.150
-159.750	800.000	0.052	0.157
-158.735	608.063	0.099	-0.240
-157.720	44.019	0.164	-0.146
-156.706	-97.795	-0.229	0.058
-155.691	261.553	-0.246	-0.415
-154.677	11.872	0.131	-0.098
-153.662	-36.625	0.162	0.085
-152.647	224.714	0.038	0.060
-151.633	-17.979	0.162	-0.099
-150.618	-107.028	0.214	0.046
-149.604	800.000	-0.039	-0.138
-148.589	-71.805	-0.099	-0.036
-147.574	800.000	0.050	-0.153
-146.560	-200.000	-0.009	0.159
-145.545	-200.000	-0.010	-0.072
-144.531	122.765	0.256	0.311
-143.516	321.562	0.198	-0.366
-142.502	-75.167	0.125	-0.043
-141.487	-200.000	-0.028	0.179
-140.472	-200.000	-0.008	-0.054
-139.458	-99.626	-0.118	0.029
-138.443	-200.000	-0.001	-0.263
-137.429	-49.944	0.455	-0.210
-136.414	-175.256	0.249	-0.007
-135.399	-174.811	-0.207	-0.006
-134.385	153.344	0.085	-0.113
-133.370	374.488	0.178	0.353
-132.356	-62.603	0.244	0.099
-131.341	-51.918	-0.459	-0.208
-130.326	-21.464	0.336	0.199
-129.312	-200.000	0.025	0.165
-128.297	-132.301	0.375	0.047
-127.283	19.057	0.208	-0.162
-126.268	-22.839	0.139	-0.081
-125.253	-52.305	0.117	-0.053
-124.239	17.888	-0.175	0.135
-123.224	-200.000	0.053	0.371
-122.210	-200.000	0.004	0.400
-121.195	584.579	0.084	-0.200
-120.180	-50.797	-0.147	-0.067
-119.166	706.430	-0.127	0.326
-118.151	127.077	-0.182	0.224
-117.137	215.827	-0.138	-0.213
-116.122	49.586	0.154	0.141
-115.107	-200.000	0.021	0.217
-114.093	-93.177	-0.044	-0.012
-113.078	800.000	-0.026	-0.103
-112.064	-200.000	-0.072	-0.358
-111.049	147.618	-0.049	-0.064
-110.034	800.000	-0.066	0.182
-109.020	67.620	-0.129	0.128
-108.005	620.154	-0.063	-0.155
-106.991	-69.657	-0.119	-0.044
-105.976	-183.614	-0.302	0.005
-104.962	122.757	-0.061	-0.074
-103.947	768.970	0.097	-0.257
-102.932	218.491	0.188	0.291
-101.918	800.000	-0.080	0.242
-100.903	201.792	0.126	-0.189
-99.889	147.603	-0.153	0.200
-98.874	-112.295	-0.092	0.018
-97.859	713.126	-0.094	-0.242
-96.845	280.826	-0.194	-0.337
-95.830	39.250	0.134	0.116
-94.816	-64.706	-0.215	-0.085
-93.801	-200.000	-0.023	0.517
-92.786	-200.000	-0.040	0.348
-91.772	169.285	0.077	0.106
-90.757	-200.000	0.011	0.084
-89.743	-44.483	0.151	0.073
-88.728	50.550	0.126	0.116
-87.713	-112.546	-0.294	-0.057
-86.699	-200.000	-0.007	-0.231
-85.684	190.761	0.086	0.126
-84.670	-133.958	0.278	0.034
-83.655	-3.741	0.077	0.052
-82.640	800.000	-0.005	-0.015
-81.626	185.629	0.053	0.076
-80.611	-70.712	0.205	0.075
-79.597	10.648	0.078	0.058
-78.582	-200.000	-0.008	-0.078
-77.567	19.266	-0.108	0.084
-76.553	-200.000	-0.058	0.416
-75.538	219.969	-0.152	0.236
-74.524	459.642	0.100	0.216
-73.509	211.115	0.124	0.190
-72.494	414.589	0.087	0.179
-71.480	-200.000	-0.023	0.203
-70.465	-92.117	0.421	0.116
-69.451	470.893	0.072	0.158
-68.436	165.437	0.158	0.216
-67.422	-199.152	0.085	0.000
-66.407	-15.542	0.201	0.125
-65.392	800.000	-0.070	0.206
-64.378	-200.000	-0.020	0.221
-63.363	-121.209	-0.295	0.048
-62.349	-135.171	-0.247	0.029
-61.334	51.993	-1.155	-1.068
-60.319	167.305	0.617	0.850
-59.305	800.000	-0.400	-1.203
-58.290	209.923	1.083	1.648
-57.276	800.000	0.464	1.310
-56.261	-200.000	136.323	683.567
-55.246	339.772	1677.585	3174.359
-54.232	134.157	2812.793	3536.692
-53.217	82.522	2311.522	2435.158
-52.203	29.859	1909.831	1578.704
-51.188	24.004	1705.365	1364.876
-50.173	22.062	1667.601	1320.014
-49.159	43.986	1742.274	1548.998
-48.144	41.048	1750.066	1533.269
-47.130	23.448	1701.715	1357.482
-46.115	20.988	1685.882	1326.107
-45.100	20.955	1680.466	1321.548
-44.086	20.834	1678.782	1319.256
-43.071	20.866	1675.724	1317.036
-42.057	20.868	1673.592	1315.327
-41.042	20.914	1671.816	1314.224
-40.027	20.908	1669.859	1312.589
-39.013	20.795	1668.447	1310.576
-37.998	20.773	1666.599	1308.912
-36.984	20.839	1665.520	1308.508
-35.969	20.873	1664.532	1307.933
-34.954	20.992	1662.669	1307.311
-33.940	20.989	1660.605	1305.615
-32.925	21.021	1658.658	1304.265
-31.911	20.992	1656.715	1302.469
-30.896	20.955	1655.434	1301.138
-29.881	21.025	1653.730	1300.267
-28.867	20.981	1652.152	1298.652
-27.852	21.009	1651.637	1298.404
-26.838	20.947	1649.924	1296.541
-25.823	21.021	1648.210	1295.691
-24.809	21.067	1646.843	1294.907
-23.794	21.089	1645.745	1294.157
-22.779	21.114	1644.039	1292.951
-21.765	21.015	1642.773	1291.167
-20.750	20.967	1641.171	1289.504
-19.736	21.007	1640.011	1288.836
-18.721	21.069	1637.814	1287.519
-17.706	21.053	1636.646	1286.431
-16.692	21.042	1635.101	1285.086
-15.677	21.036	1633.984	1284.113
-14.663	21.095	1632.669	1283.457
-13.648	21.031	1631.287	1281.848
-12.633	21.092	1629.452	1280.804
-11.619	21.052	1628.434	1279.662
-10.604	21.030	1626.954	1278.289
-9.590	21.023	1625.555	1277.088
-8.575	21.040	1624.525	1276.347
-7.560	21.084	1623.212	1275.588
-6.546	21.108	1621.759	1274.574
-5.531	21.012	1621.117	1273.317
-4.517	21.102	1619.586	1272.717
-3.502	21.015	1618.848	1271.456
-2.487	21.152	1617.022	1270.966
-1.473	20.606	1604.922	1257.464
-0.458	17.656	1584.987	1220.698
0.556	13.105	1587.563	1189.492
1.571	10.961	1611.917	1191.936
2.586	10.842	1624.320	1200.117
3.600	10.267	1569.394	1155.334
4.615	5.861	1464.347	1048.508
5.629	1.567	1407.250	979.914
6.644	0.674	1401.604	970.170
7.659	0.604	1400.298	968.728
8.673	0.681	1399.175	968.362
9.688	0.690	1396.218	966.284
10.702	0.672	1393.122	963.943
11.717	2.769	1395.687	979.025
12.731	8.820	1405.232	1024.414
13.746	14.943	1414.088	1070.061
14.761	17.222	1416.764	1086.584
15.775	16.798	1414.747	1082.230
16.790	15.692	1412.728	1073.533
17.804	14.897	1411.178	1067.190
18.819	14.648	1408.880	1063.767
19.834	14.357	1407.820	1061.022
20.848	14.161	1406.336	1058.565
21.863	13.877	1405.011	1055.668
22.877	13.667	1404.574	1053.908
23.892	13.652	1402.754	1052.355
24.907	13.581	1402.306	1051.476
25.921	13.658	1400.846	1050.777
26.936	13.674	1400.490	1050.519
27.950	13.850	1399.125	1050.514
28.965	13.755	1398.867	1049.629
29.980	13.928	1396.878	1049.131
30.994	13.901	1396.393	1048.504
32.009	13.953	1395.062	1047.740
33.023	13.876	1394.416	1046.680
34.038	13.846	1393.235	1045.510
35.053	13.879	1391.373	1044.230
36.067	13.848	1390.769	1043.485
37.082	13.856	1389.981	1042.855
38.096	13.906	1388.413	1041.898
39.111	13.873	1387.625	1041.007
40.126	13.830	1386.741	1039.983
41.140	13.734	1386.372	1039.015
42.155	13.720	1385.943	1038.516
43.169	13.679	1385.889	1038.123
44.184	13.637	1385.747	1037.664
45.199	13.654	1385.103	1037.196
46.213	13.735	1384.256	1036.976
47.228	13.813	1383.329	1036.680
48.242	13.808	1381.879	1035.468
49.257	13.831	1380.512	1034.495
50.271	13.777	1378.768	1032.762
51.286	13.781	1378.082	1032.178
52.301	13.845	1376.299	1031.148
53.315	13.802	1375.207	1029.972
54.330	13.794	1374.064	1028.974
55.344	13.725	1373.615	1028.123
56.359	13.731	1372.067	1026.911
57.374	13.644	1371.517	1025.872
58.388	13.685	1370.511	1025.278
59.403	13.683	1369.757	1024.611
60.417	13.673	1368.821	1023.760
61.432	13.685	1368.154	1023.243
62.447	13.570	1367.564	1022.004
63.461	13.542	1366.339	1020.827
64.476	13.522	1365.624	1020.075
65.490	13.582	1363.620	1018.858
66.505	13.660	1362.100	1018.111
67.520	13.656	1360.386	1016.715
68.534	13.728	1360.066	1016.827
69.549	13.629	1359.012	1015.342
70.563	13.649	1357.478	1014.230
71.578	13.631	1356.192	1013.073
72.593	13.507	1355.665	1011.832
73.607	13.579	1355.016	1011.693
74.622	13.590	1353.632	1010.637
75.636	13.589	1353.145	1010.179
76.651	13.557	1352.540	1009.445
77.666	13.566	1352.112	1009.087
78.680	13.648	1351.381	1008.952
79.695	13.612	1350.410	1007.921
80.709	13.662	1349.657	1007.576
81.724	13.721	1348.772	1007.181
82.739	13.764	1347.745	1006.588
83.753	13.687	1346.947	1005.438
84.768	13.780	1345.980	1005.190
85.782	13.858	1344.465	1004.438
86.797	13.860	1342.948	1003.229
87.812	13.769	1341.944	1001.842
88.826	13.775	1340.758	1000.901
89.841	13.711	1340.554	1000.274
90.855	13.864	1338.644	999.684
91.870	13.783	1338.462	998.971
92.884	13.871	1337.079	998.382
93.899	13.890	1336.333	997.850
94.914	13.869	1335.625	997.106
95.928	13.817	1334.925	996.183
96.943	13.899	1333.332	995.398
97.957	13.852	1333.052	994.819
98.972	13.867	1331.718	993.826
99.987	13.929	1330.328	993.072
101.001	13.849	1329.905	992.189
102.016	13.815	1329.270	991.423
103.030	13.944	1327.537	990.813
104.045	13.735	1327.261	989.272
105.060	13.758	1325.841	988.267
106.074	13.734	1324.517	987.051
107.089	13.686	1323.566	985.968
108.103	13.746	1321.594	984.767
109.118	13.710	1320.472	983.630
110.133	13.639	1318.888	981.941
111.147	13.702	1317.757	981.389
112.162	13.723	1316.636	980.589
113.176	13.784	1315.297	979.867
114.191	13.755	1314.295	978.861
115.206	13.790	1313.223	978.182
116.220	13.785	1311.571	976.834
117.235	13.878	1310.892	976.792
118.249	13.888	1309.616	975.812
119.264	13.727	1308.714	974.110
120.279	13.794	1307.455	973.477
121.293	13.680	1306.689	972.152
122.308	13.811	1305.398	971.877
123.322	13.685	1304.769	970.584
124.337	13.605	1303.545	969.115
125.352	13.740	1302.431	968.995
126.366	13.686	1301.382	967.812
127.381	13.693	1300.147	966.851
128.395	13.797	1299.059	966.557
129.410	13.707	1298.368	965.437
130.424	13.808	1297.092	964.991
131.439	13.834	1296.197	964.387
132.454	13.742	1294.984	962.867
133.468	13.787	1294.342	962.565
134.483	13.913	1292.875	962.120
135.497	13.872	1292.097	961.218
136.512	13.842	1290.495	959.769
137.527	13.729	1289.609	958.369
138.541	13.785	1288.024	957.434
139.556	13.850	1286.956	956.929
140.570	13.851	1285.782	955.978
141.585	13.931	1284.220	955.189
142.600	13.940	1283.510	954.631
143.614	13.977	1282.602	954.080
144.629	13.983	1281.444	953.169
145.643	13.918	1280.319	951.877
146.658	14.105	1278.938	951.839
147.673	13.979	1277.569	950.012
148.687	13.911	1276.407	948.679
149.702	13.830	1275.677	947.587
150.716	13.889	1273.870	946.500
151.731	13.952	1272.730	945.925
152.746	14.020	1270.999	944.941
153.760	13.975	1270.200	944.007
154.775	13.974	1269.649	943.510
155.789	14.000	1268.760	942.916
156.804	14.041	1267.196	941.902
157.819	14.070	1266.087	941.158
158.833	14.124	1264.958	940.537
159.848	14.063	1264.597	939.843
160.862	14.090	1263.276	938.932
161.877	14.156	1262.192	938.416
162.892	13.982	1261.088	936.528
163.906	14.056	1260.188	936.196
164.921	14.039	1258.918	935.073
165.935	14.124	1258.338	935.040
166.950	14.149	1257.228	934.272
167.964	14.171	1256.679	933.903
168.979	14.155	1256.519	933.615
169.994	14.109	1255.411	932.449
171.008	14.234	1254.187	932.159
172.023	14.172	1253.473	931.198
173.037	14.183	1252.792	930.671
174.052	14.335	1251.884	930.763
175.067	14.256	1250.895	929.505
176.081	14.137	1249.792	927.938
177.096	14.218	1248.832	927.595
178.110	14.361	1247.272	927.151
179.125	14.144	1246.582	925.348
180.140	14.108	1245.481	924.248
181.154	14.279	1243.755	923.837
182.169	14.294	1242.306	922.761
183.183	14.267	1241.925	922.244
184.198	14.344	1240.229	921.329
185.213	14.361	1239.452	920.767
186.227	14.415	1237.926	919.849
187.242	14.395	1237.187	919.110
188.256	14.493	1236.189	918.826
189.271	14.419	1235.181	917.590
190.286	14.243	1234.285	915.875
191.300	14.328	1233.306	915.530
192.315	14.281	1232.906	914.895
193.329	14.270	1232.166	914.206
194.344	14.364	1231.477	914.131
195.359	14.363	1230.700	913.468
196.373	14.439	1230.214	913.441
197.388	14.412	1230.141	913.157
198.402	14.429	1229.319	912.562
199.417	14.595	1228.877	913.061
200.432	14.559	1228.011	912.141
201.446	14.588	1227.289	911.679
202.461	14.690	1225.936	911.151
203.475	14.744	1224.785	910.511
204.490	14.670	1223.342	908.953
205.504	14.695	1222.404	908.314
206.519	14.595	1221.439	906.973
207.534	14.574	1220.347	905.967
208.548	14.643	1219.264	905.457
209.563	14.614	1218.753	904.837
210.577	14.676	1217.590	904.233
211.592	14.695	1216.540	903.475
212.607	14.673	1215.825	902.744
213.621	14.732	1214.858	902.267
214.636	14.778	1213.739	901.600
215.650	14.770	1212.846	900.818
216.665	14.806	1211.711	900.090
217.680	14.845	1210.751	899.504
218.694	14.834	1210.812	899.411
219.709	14.843	1209.423	898.349
220.723	14.854	1208.792	897.860
221.738	14.911	1207.605	897.206
222.753	14.994	1206.784	896.960
223.767	14.882	1206.321	895.938
224.782	15.008	1205.697	896.067
225.796	14.975	1205.254	895.481
226.811	15.043	1204.423	895.150
227.826	15.006	1203.587	894.250
228.840	14.973	1202.939	893.514
229.855	15.048	1201.696	892.913
230.869	15.071	1200.976	892.423
231.884	14.813	1200.672	890.741
232.899	14.938	1199.699	890.607
233.913	14.961	1199.074	890.184
234.928	14.958	1198.373	889.570
235.942	15.006	1197.360	888.994
236.957	15.061	1196.452	888.534
237.972	15.104	1195.374	887.884
238.986	15.016	1195.112	887.143
240.001	14.975	1194.924	886.706
241.015	15.174	1193.284	886.463
242.030	15.158	1192.718	885.884
243.045	15.152	1192.102	885.313
244.059	15.110	1191.162	884.318
245.074	15.252	1190.543	884.530
246.088	15.170	1189.442	883.200
247.103	15.184	1188.449	882.456
248.117	15.227	1187.718	882.065
249.132	15.393	1186.911	882.260
250.147	15.333	1186.560	881.606
251.161	15.374	1185.492	880.950
252.176	15.403	1185.027	880.678
253.190	15.333	1184.202	879.621
254.205	15.449	1183.367	879.530
255.220	15.474	1183.205	879.463
256.234	15.491	1182.883	879.233
257.249	15.380	1181.972	877.896
258.263	15.459	1181.119	877.600
259.278	15.502	1180.329	877.158
260.293	15.438	1180.204	876.655
261.307	15.555	1179.341	876.549
262.322	15.578	1178.751	876.153
263.336	15.590	1177.974	875.556
264.351	15.541	1177.476	874.854
265.366	15.616	1176.815	874.675
266.380	15.494	1176.592	873.801
267.395	15.788	1174.782	873.906
268.409	15.635	1174.521	872.841
269.424	15.654	1173.612	872.185
270.439	15.761	1172.726	872.004
271.453	15.745	1172.365	871.577
272.468	15.663	1171.388	870.349
273.482	15.749	1170.420	869.994
274.497	15.721	1170.361	869.731
275.512	15.669	1169.302	868.596
276.526	15.779	1168.457	868.460
277.541	15.792	1167.637	867.841
278.555	15.632	1166.732	866.268
279.570	15.801	1166.090	866.585
280.585	15.766	1165.692	866.034
281.599	15.825	1164.720	865.535
282.614	15.859	1163.463	864.701
283.628	15.835	1162.489	863.777
284.643	15.847	1161.447	862.987
285.657	15.824	1160.728	862.260
286.672	15.936	1159.569	861.894
287.687	15.831	1159.249	861.042
288.701	15.966	1158.023	860.745
289.716	15.939	1156.930	859.722
290.730	15.927	1156.739	859.441
291.745	15.955	1155.651	858.701
292.760	16.057	1154.945	858.621
293.774	16.023	1154.343	857.922
294.789	16.138	1154.001	858.177
295.803	16.037	1153.698	857.363
296.818	16.021	1152.739	856.495
297.833	16.049	1151.905	855.940
298.847	16.084	1150.747	855.181
299.862	16.044	1150.152	854.458
300.876	16.151	1149.426	854.387
301.891	16.188	1149.038	854.212
302.906	16.131	1148.112	853.156
303.920	16.249	1147.437	853.180
304.935	16.294	1146.686	852.772
305.949	16.246	1146.045	851.979
306.964	16.330	1145.026	851.566
307.979	16.336	1144.523	851.147
308.993	16.267	1143.940	850.290
310.008	16.429	1142.690	850.101
311.022	16.403	1141.768	849.208
312.037	16.408	1141.053	848.627
313.052	16.306	1140.395	847.550
314.066	16.314	1139.291	846.697
315.081	16.328	1138.759	846.296
316.095	16.365	1137.944	845.800
317.110	16.320	1136.934	844.750
318.125	16.417	1135.957	844.433
319.139	16.295	1135.718	843.572
320.154	16.351	1134.877	843.152
321.168	16.361	1134.452	842.815
322.183	16.363	1133.435	841.991
323.197	16.400	1132.764	841.604
324.212	16.430	1132.549	841.517
325.227	16.373	1132.034	840.777
326.241	16.524	1130.866	840.587
327.256	16.416	1130.457	839.670
328.270	16.343	1129.503	838.528
329.285	16.461	1128.630	838.388
330.300	16.510	1127.610	837.801
331.314	16.437	1126.614	836.625
332.329	16.467	1125.852	836.134
333.343	16.472	1125.041	835.484
334.358	16.391	1124.381	834.520
335.373	16.705	1123.102	835.043
336.387	16.480	1122.594	833.482
337.402	16.483	1121.800	832.834
338.416	16.661	1121.183	833.179
339.431	16.660	1120.633	832.691
340.446	16.693	1119.465	831.913
341.460	16.733	1119.075	831.746
342.475	16.781	1118.271	831.309
343.489	16.740	1117.155	830.207
344.504	16.829	1116.155	829.825
345.519	16.851	1115.857	829.636
346.533	16.818	1115.097	828.835
347.548	16.859	1113.967	828.123
348.562	17.060	1113.082	828.376
349.577	16.837	1112.311	826.642
350.592	16.855	1111.558	826.095
351.606	16.901	1110.844	825.716
352.621	16.875	1110.394	825.180
353.635	16.764	1109.764	824.099
354.650	16.900	1108.589	823.813
355.665	16.865	1108.044	823.165
356.679	16.867	1107.343	822.584
357.694	16.967	1106.819	822.608
358.708	16.940	1106.300	822.015
359.723	17.043	1105.727	822.018
360.738	16.897	1104.963	820.672
361.752	17.045	1104.408	820.901
362.767	17.006	1104.023	820.354
363.781	17.175	1102.710	820.120
364.796	17.140	1102.757	819.917
365.810	17.178	1101.804	819.319
366.825	17.088	1101.800	818.805
367.840	17.109	1101.204	818.394
368.854	17.156	1100.356	817.917
369.869	17.209	1099.507	817.471
370.883	17.205	1098.264	816.453
371.898	17.198	1097.900	816.077
372.913	17.183	1097.480	815.618
373.927	17.153	1097.038	815.075
374.942	17.278	1095.923	814.773
375.956	17.252	1095.776	814.469
376.971	17.242	1095.292	813.990
377.986	17.324	1094.546	813.754
379.000	17.421	1093.775	813.573
380.015	17.411	1093.129	812.973
381.029	17.455	1092.512	812.651
382.044	17.492	1091.567	812.056
383.059	17.444	1091.284	811.540
384.073	17.488	1090.155	810.840
385.088	17.648	1088.911	810.606
386.102	17.507	1088.128	809.281
387.117	17.455	1087.560	808.539
388.132	17.461	1086.553	807.748
389.146	17.443	1085.968	807.156
390.161	17.482	1085.169	806.676
391.175	17.502	1083.996	805.829
392.190	17.425	1083.658	805.141
393.205	17.432	1083.452	804.949
394.219	17.455	1082.425	804.221
395.234	17.571	1081.335	803.891
396.248	17.615	1079.949	802.995
397.263	17.604	1079.000	802.166
398.278	17.594	1078.659	801.795
399.292	17.584	1077.670	800.941
400.307	17.603	1076.971	800.442
401.321	17.572	1076.923	800.191
402.336	17.610	1076.050	799.646
403.350	17.610	1075.284	799.008
404.365	17.594	1074.350	798.168
405.380	17.649	1073.901	798.022
406.394	17.679	1072.743	797.229
407.409	17.754	1072.129	797.052
408.423	17.757	1071.286	796.373
409.438	17.884	1070.596	796.380
410.453	17.804	1069.946	795.452
411.467	17.768	1069.478	794.868
412.482	17.783	1068.671	794.266
413.496	17.913	1067.865	794.204
414.511	17.950	1067.434	793.985
415.526	17.938	1066.926	793.481
416.540	17.988	1066.458	793.292
417.555	18.095	1065.686	793.146
418.569	18.005	1065.414	792.455
419.584	17.985	1064.962	791.957
420.599	18.117	1064.268	791.981
421.613	109.859	1332.046	1490.631
422.628	101.560	1371.004	1490.699
