DTS Sentinel unit serial number:	SN413079Multiplexer serial number:	ORYXHardware model number:	OX4-SRSoftware version number:	ORYX F/W v4.00 Oryx Data Collector v3.7.2.0data status	okinstallation	princeton_trtdifferential loss correction	single-endedforward channel	channel 2reverse channel	N/Adate	2019/09/18time	07:23:34forward acquisition time	60.00reverse acquisition time	0.00gamma	496.2192k internal	0.2349k external	0.2349temperature offset calibration	0.9982default loss term (dB/km)	0.3790temperature slope calibration	1.0000multiplexer offset coefficient	1.0000multiplexer slope coefficient	1.0000fibre end	0.00T internal ref (°C)	23.19T ext. ref 1 (°C)	0.20T ext. ref 2 (°C)	17.52length (m)	temperature (°C)	Stokes	anti-Stokes-747.200	-200.000	-0.046	0.278
-746.185	800.000	-0.096	0.289
-745.171	-111.684	0.299	0.060
-744.156	-200.000	0.001	-0.033
-743.142	-200.000	0.008	-0.179
-742.127	-200.000	-0.031	0.181
-741.112	431.122	-0.076	0.165
-740.098	13.872	-0.469	0.364
-739.083	513.237	-0.066	-0.153
-738.069	800.000	-0.082	0.306
-737.054	-136.951	-0.245	-0.028
-736.039	-5.429	-0.162	-0.111
-735.025	-200.000	-0.025	-0.311
-734.010	-99.451	-0.507	-0.127
-732.996	42.783	0.007	-0.007
-731.981	550.852	-0.097	-0.233
-730.966	30.439	0.182	0.156
-729.952	74.894	0.104	0.109
-728.937	-200.000	-0.001	-0.143
-727.923	191.431	0.200	0.301
-726.908	-200.000	0.050	-0.349
-725.894	13.344	0.127	0.098
-724.879	-200.000	0.053	-0.374
-723.864	207.911	-0.148	0.231
-722.850	-200.000	-0.004	-0.024
-721.835	-23.509	0.165	-0.099
-720.821	-58.208	-0.026	0.011
-719.806	80.015	-0.159	-0.171
-718.791	104.448	-0.087	0.102
-717.777	-200.000	-0.021	0.182
-716.762	-14.730	-0.135	-0.087
-715.748	67.440	0.175	-0.179
-714.733	-117.787	0.204	-0.036
-713.718	-45.666	-0.113	0.056
-712.704	250.879	0.059	-0.100
-711.689	-200.000	0.010	-0.093
-710.675	471.729	-0.097	-0.218
-709.660	-152.796	0.238	-0.017
-708.645	275.000	-0.067	0.118
-707.631	-200.000	0.044	-0.241
-706.616	44.373	-0.124	-0.113
-705.602	-67.024	-0.203	0.080
-704.587	-63.245	-0.414	-0.170
-703.572	14.052	0.326	0.253
-702.558	224.464	-0.018	0.028
-701.543	46.881	0.136	0.126
-700.529	-100.318	0.294	-0.073
-699.514	471.621	0.108	0.242
-698.499	800.000	0.114	-0.322
-697.485	800.000	-0.098	-0.421
-696.470	-200.000	0.013	0.158
-695.456	-130.281	0.337	0.046
-694.441	-12.856	0.084	-0.055
-693.426	-200.000	0.021	-0.210
-692.412	-19.205	0.030	0.019
-691.397	686.514	-0.085	0.223
-690.383	435.806	-0.037	-0.080
-689.368	156.629	0.148	-0.204
-688.354	-200.000	-0.068	0.387
-687.339	12.108	0.233	-0.179
-686.324	280.978	0.075	-0.134
-685.310	-132.739	-0.158	0.020
-684.295	361.748	-0.161	-0.323
-683.281	-196.584	0.186	-0.001
-682.266	284.223	-0.150	-0.269
-681.251	-93.298	-0.211	0.058
-680.237	-164.322	0.276	-0.013
-679.222	82.104	0.157	-0.170
-678.208	-86.821	-0.238	0.073
-677.193	154.493	-0.129	-0.177
-676.178	-8.808	-0.253	-0.169
-675.164	-46.765	0.101	-0.049
-674.149	440.217	-0.064	-0.139
-673.135	143.400	-0.141	-0.187
-672.120	-200.000	0.013	0.149
-671.105	-200.000	-0.012	0.093
-670.091	-114.986	-0.253	0.048
-669.076	-80.831	-0.222	0.073
-668.062	800.000	-0.052	-0.167
-667.047	-45.315	0.096	0.047
-666.032	-200.000	0.031	-0.167
-665.018	-200.000	0.003	0.149
-664.003	-129.736	-0.268	0.037
-662.989	267.620	0.154	-0.268
-661.974	410.798	-0.086	0.182
-660.959	-200.000	0.047	-0.348
-659.945	100.169	0.129	-0.149
-658.930	246.435	0.200	0.335
-657.916	800.000	0.096	0.293
-656.901	434.166	0.047	-0.103
-655.886	5.305	-0.151	-0.111
-654.872	571.727	-0.191	0.463
-653.857	800.000	0.045	-0.164
-652.843	102.025	-0.161	-0.188
-651.828	-200.000	0.010	0.141
-650.814	-85.234	0.364	-0.113
-649.799	-53.932	0.182	0.083
-648.784	-53.096	-0.416	0.190
-647.770	800.000	0.132	-0.470
-646.755	-93.549	0.348	-0.096
-645.741	-200.000	0.023	0.138
-644.726	-41.849	-0.157	-0.080
-643.711	119.702	-0.173	-0.213
-642.697	43.881	-0.166	0.152
-641.682	800.000	0.099	0.309
-640.668	-46.050	-0.182	0.089
-639.653	-200.000	0.006	0.084
-638.638	-24.687	0.238	-0.141
-637.624	-200.000	-0.006	-0.394
-636.609	-133.857	0.349	0.043
-635.595	-140.885	0.154	-0.016
-634.580	-119.314	-0.111	-0.019
-633.565	-52.191	-0.085	0.039
-632.551	18.974	0.199	0.158
-631.536	-95.697	-0.507	-0.135
-630.522	-59.099	-0.033	0.014
-629.507	-25.142	0.181	-0.107
-628.492	-165.384	-0.076	-0.003
-627.478	-180.347	-0.236	0.005
-626.463	335.651	0.107	-0.207
-625.449	-92.830	-0.042	0.012
-624.434	-200.000	-0.044	0.328
-623.419	800.000	-0.083	0.262
-622.405	800.000	0.088	-0.329
-621.390	-200.000	0.043	-0.387
-620.376	168.620	0.114	0.162
-619.361	403.568	0.079	-0.166
-618.346	-42.530	-0.173	0.088
-617.332	127.910	0.326	-0.412
-616.317	-200.000	-0.027	0.172
-615.303	-94.322	-0.347	-0.094
-614.288	-7.830	-0.054	-0.036
-613.273	-6.493	0.248	0.168
-612.259	161.714	-0.175	0.243
-611.244	-200.000	0.012	-0.117
-610.230	124.936	0.227	-0.284
-609.215	575.102	0.149	-0.362
-608.201	-200.000	-0.035	0.301
-607.186	153.488	0.067	0.091
-606.171	201.347	0.114	-0.175
-605.157	60.450	0.086	0.084
-604.142	-200.000	0.053	0.236
-603.128	-145.912	-0.226	-0.020
-602.113	-141.869	-0.135	0.013
-601.098	72.400	-0.116	0.120
-600.084	-75.860	0.242	-0.085
-599.069	-94.996	-0.250	-0.067
-598.055	-200.000	-0.015	0.125
-597.040	11.436	-0.091	-0.069
-596.025	-103.107	-0.156	-0.037
-595.011	369.269	0.060	0.121
-593.996	114.560	-0.047	0.057
-592.982	800.000	-0.154	0.512
-591.967	-134.155	-0.068	-0.008
-590.952	-113.691	-0.129	0.025
-589.938	-128.751	-0.402	-0.056
-588.923	39.660	-0.102	-0.091
-587.909	-200.000	0.310	-0.000
-586.894	576.283	-0.059	-0.142
-585.879	16.510	-0.338	-0.265
-584.865	40.048	-0.173	-0.155
-583.850	-110.044	-0.255	0.053
-582.836	800.000	-0.103	0.338
-581.821	764.125	-0.135	0.363
-580.806	-8.223	0.203	-0.135
-579.792	178.689	-0.090	0.130
-578.777	-200.000	-0.036	0.170
-577.763	-200.000	-0.029	-0.242
-576.748	181.771	0.104	-0.153
-575.733	358.941	-0.097	-0.192
-574.719	162.918	-0.158	-0.220
-573.704	-200.000	0.084	0.701
-572.690	336.960	-0.106	-0.204
-571.675	39.186	0.346	0.307
-570.661	-178.326	-0.339	-0.008
-569.646	800.000	0.037	-0.105
-568.631	649.578	-0.057	0.145
-567.617	130.084	-0.085	0.108
-566.602	19.100	0.093	-0.074
-565.588	-128.820	0.079	-0.011
-564.573	171.622	-0.098	0.140
-563.558	28.143	-0.125	-0.104
-562.544	-200.000	-0.036	-0.210
-561.529	238.952	0.065	-0.107
-560.515	81.883	0.221	0.238
-559.500	11.400	-0.076	0.057
-558.485	72.059	0.192	0.198
-557.471	-55.364	-0.173	-0.077
-556.456	-12.609	0.117	0.076
-555.442	-44.641	-0.117	-0.058
-554.427	-16.261	-0.209	0.131
-553.412	20.678	0.160	0.128
-552.398	280.317	-0.109	0.192
-551.383	-200.000	-0.005	0.134
-550.369	65.785	0.144	0.145
-549.354	-20.952	-0.092	-0.056
-548.339	-200.000	-0.029	-0.174
-547.325	37.642	0.121	-0.107
-546.310	85.509	-0.230	-0.251
-545.296	-176.864	0.049	-0.001
-544.281	-47.729	-0.264	0.127
-543.266	307.482	0.158	-0.292
-542.252	-115.169	0.163	-0.031
-541.237	-200.000	-0.068	0.360
-540.223	51.520	0.179	0.169
-539.208	81.542	-0.127	-0.136
-538.193	-37.612	0.044	-0.023
-537.179	-15.196	-0.046	-0.029
-536.164	69.799	0.226	-0.231
-535.150	800.000	0.054	-0.192
-534.135	631.558	0.088	-0.220
-533.121	401.120	-0.061	-0.128
-532.106	-200.000	-0.038	-0.384
-531.091	-200.000	-0.052	0.367
-530.077	161.514	0.031	0.043
-529.062	295.541	0.041	0.075
-528.048	-137.845	-0.185	-0.020
-527.033	71.341	-0.156	-0.161
-526.018	-77.981	0.331	-0.113
-525.004	-48.349	0.129	0.061
-523.989	329.677	-0.005	-0.009
-522.975	119.287	-0.119	-0.146
-521.960	452.825	0.094	0.205
-520.945	44.721	-0.097	0.089
-519.931	-200.000	0.076	0.458
-518.916	-200.000	0.038	0.189
-517.902	-101.132	-0.144	0.035
-516.887	117.645	-0.239	-0.291
-515.872	156.401	-0.086	0.117
-514.858	302.411	0.141	0.259
-513.843	-168.056	0.342	0.013
-512.829	-40.449	0.208	0.107
-511.814	-200.000	0.013	-0.101
-510.799	-200.000	-0.006	-0.205
-509.785	605.068	0.045	-0.111
-508.770	-7.680	-0.219	-0.146
-507.756	7.133	0.036	-0.027
-506.741	-89.574	-0.026	0.008
-505.726	800.000	-0.087	-0.240
-504.712	-23.309	-0.251	-0.149
-503.697	800.000	-0.034	0.114
-502.683	103.682	-0.249	-0.290
-501.668	-21.956	-0.056	0.034
-500.653	-200.000	-0.020	0.178
-499.639	-6.447	-0.179	0.121
-498.624	-96.243	-0.109	0.029
-497.610	-110.678	-0.200	-0.041
-496.595	120.604	0.146	0.179
-495.581	-99.359	-0.253	-0.063
-494.566	-69.948	-0.180	-0.068
-493.551	800.000	-0.079	-0.291
-492.537	-52.032	0.234	-0.107
-491.522	-66.241	-0.342	-0.135
-490.508	-112.250	0.248	-0.049
-489.493	-153.437	-0.311	-0.021
-488.478	-200.000	0.052	-0.439
-487.464	-14.277	0.344	-0.219
-486.449	668.701	0.064	-0.164
-485.435	-23.106	0.191	-0.114
-484.420	-58.460	0.110	-0.047
-483.405	300.953	0.128	-0.234
-482.391	800.000	0.045	0.173
-481.376	-19.034	0.110	0.068
-480.362	-75.883	0.231	-0.081
-479.347	358.920	0.055	0.108
-478.332	-123.089	0.458	-0.073
-477.318	23.455	0.129	0.105
-476.303	-47.965	0.334	0.160
-475.289	-156.448	-0.322	-0.020
-474.274	242.569	0.063	0.105
-473.259	-200.000	-0.033	0.169
-472.245	-177.509	-0.242	-0.006
-471.230	110.466	-0.290	-0.344
-470.216	-200.000	-0.017	-0.084
-469.201	26.133	-0.106	0.088
-468.186	74.714	-0.127	-0.132
-467.172	-164.238	-0.300	-0.014
-466.157	12.055	0.136	0.103
-465.143	-200.000	0.029	0.135
-464.128	-200.000	-0.038	-0.361
-463.113	-18.156	0.210	0.130
-462.099	182.185	-0.190	-0.277
-461.084	94.938	0.137	-0.154
-460.070	-89.100	0.250	0.073
-459.055	-200.000	0.049	-0.271
-458.040	243.316	-0.060	-0.099
-457.026	-200.000	0.042	0.222
-456.011	-140.772	0.221	0.022
-454.997	-60.982	-0.137	0.057
-453.982	-138.312	-0.074	-0.008
-452.968	-200.000	-0.023	0.252
-451.953	548.851	-0.030	0.072
-450.938	73.631	-0.101	0.105
-449.924	-88.643	-0.172	0.051
-448.909	644.786	0.085	0.214
-447.895	-91.633	-0.142	0.040
-446.880	55.908	-0.246	-0.235
-445.865	800.000	-0.034	0.106
-444.851	-54.459	-0.241	-0.108
-443.836	357.409	-0.015	-0.030
-442.822	800.000	0.046	-0.176
-441.807	-143.805	0.233	0.022
-440.792	94.730	0.107	0.120
-439.778	-113.941	-0.198	-0.038
-438.763	-168.486	-0.098	-0.004
-437.749	261.606	0.050	-0.086
-436.734	800.000	0.072	-0.233
-435.719	-139.140	-0.254	0.027
-434.705	-127.275	0.358	0.052
-433.690	-132.239	-0.265	0.034
-432.676	-200.000	0.025	0.109
-431.661	-144.543	-0.155	0.014
-430.646	231.404	-0.103	-0.167
-429.632	304.184	0.090	-0.165
-428.617	61.647	-0.142	-0.140
-427.603	-122.377	-0.314	-0.050
-426.588	-55.743	0.170	0.075
-425.573	-140.558	-0.196	0.020
-424.559	-200.000	-0.001	-0.022
-423.544	-112.639	0.267	-0.052
-422.530	297.024	0.094	-0.170
-421.515	-93.127	-0.224	-0.062
-420.500	-200.000	0.022	-0.367
-419.486	704.730	0.102	0.266
-418.471	-106.867	-0.159	-0.035
-417.457	-79.140	-0.303	-0.101
-416.442	-21.673	0.418	0.251
-415.428	-200.000	0.039	0.275
-414.413	38.500	-0.172	0.151
-413.398	800.000	-0.084	-0.275
-412.384	5.347	0.115	0.084
-411.369	556.617	-0.147	-0.350
-410.355	619.927	-0.039	0.096
-409.340	-42.123	0.230	-0.116
-408.325	-1.453	-0.389	0.271
-407.311	31.349	0.379	0.321
-406.296	-87.894	0.013	0.004
-405.282	800.000	-0.064	0.199
-404.267	176.390	0.106	-0.152
-403.252	53.800	-0.113	0.107
-402.238	800.000	-0.101	0.366
-401.223	800.000	-0.039	-0.140
-400.209	345.141	0.039	0.076
-399.194	63.384	-0.125	-0.124
-398.179	20.553	0.258	-0.205
-397.165	563.031	-0.020	0.048
-396.150	197.631	-0.104	0.157
-395.136	-115.475	0.184	0.034
-394.121	121.962	-0.062	-0.076
-393.106	-0.987	0.280	-0.195
-392.092	-171.743	0.188	-0.006
-391.077	800.000	0.066	-0.205
-390.063	-200.000	0.040	-0.194
-389.048	-157.442	-0.072	0.004
-388.033	800.000	0.091	-0.256
-387.019	-200.000	-0.011	-0.138
-386.004	-138.006	0.336	0.037
-384.990	-151.554	-0.054	0.004
-383.975	-19.496	-0.378	0.231
-382.960	-48.097	0.099	0.047
-381.946	-115.682	-0.069	0.013
-380.931	-200.000	-0.000	-0.372
-379.917	800.000	-0.027	0.074
-378.902	-70.712	0.071	-0.026
-377.888	-127.970	0.217	0.031
-376.873	-46.444	0.058	-0.028
-375.858	-200.000	-0.027	0.147
-374.844	-103.463	-0.276	-0.064
-373.829	130.358	-0.129	0.163
-372.815	652.316	-0.090	0.226
-371.800	496.739	-0.052	0.118
-370.785	-89.385	0.473	-0.137
-369.771	-78.172	0.161	-0.055
-368.756	-116.779	0.194	0.035
-367.742	77.757	-0.176	0.184
-366.727	242.765	-0.052	0.085
-365.712	-111.947	0.055	0.011
-364.698	-133.544	0.095	-0.012
-363.683	-21.926	0.231	-0.138
-362.669	366.229	-0.151	-0.299
-361.654	-127.485	0.313	0.045
-360.639	13.358	-0.124	-0.094
-359.625	-200.000	-0.034	-0.297
-358.610	515.995	0.130	0.298
-357.596	78.898	-0.172	0.182
-356.581	-75.164	0.128	-0.045
-355.566	-66.613	-0.180	-0.070
-354.552	20.690	0.200	-0.159
-353.537	800.000	0.079	-0.318
-352.523	-130.037	0.218	0.029
-351.508	48.058	-0.196	-0.180
-350.493	-0.080	-0.221	-0.154
-349.479	800.000	-0.047	0.192
-348.464	-27.769	-0.265	0.151
-347.450	-200.000	-0.016	-0.280
-346.435	-175.070	0.170	-0.005
-345.420	46.277	-0.170	0.155
-344.406	-86.535	-0.175	0.053
-343.391	59.342	0.277	0.268
-342.377	150.055	0.143	0.191
-341.362	-200.000	0.011	0.265
-340.348	-90.477	-0.066	-0.019
-339.333	-200.000	-0.056	0.286
-338.318	-200.000	0.005	-0.411
-337.304	358.967	-0.167	0.328
-336.289	-75.551	-0.434	0.152
-335.275	660.964	-0.032	0.080
-334.260	-200.000	-0.029	0.213
-333.245	-200.000	0.034	-0.165
-332.231	-74.823	-0.015	-0.005
-331.216	180.870	0.040	0.058
-330.202	224.824	0.137	0.217
-329.187	246.707	0.054	0.089
-328.172	-53.326	0.307	-0.138
-327.158	-200.000	0.040	0.192
-326.143	-142.574	-0.190	-0.018
-325.129	-16.554	0.178	-0.111
-324.114	-61.365	0.256	0.106
-323.099	62.681	-0.221	-0.217
-322.085	-60.982	0.171	-0.071
-321.070	595.123	0.029	0.069
-320.056	-62.130	0.107	0.044
-319.041	-11.543	-0.180	0.116
-318.026	-200.000	0.012	0.193
-317.012	-187.273	-0.245	-0.003
-315.997	-49.114	-0.259	-0.122
-314.983	22.739	-0.211	-0.170
-313.968	-104.435	-0.224	0.051
-312.953	-200.000	-0.023	-0.230
-311.939	70.990	0.025	0.025
-310.924	307.081	0.170	-0.310
-309.910	800.000	0.039	0.163
-308.895	200.415	0.180	0.271
-307.880	-200.000	0.073	0.474
-306.866	-163.815	-0.287	0.013
-305.851	800.000	0.119	-0.325
-304.837	-200.000	-0.050	-0.256
-303.822	-75.980	0.318	-0.110
-302.807	-200.000	0.000	0.070
-301.793	56.279	0.112	0.107
-300.778	9.646	0.199	0.148
-299.764	-123.539	0.103	-0.016
-298.749	-90.206	0.062	-0.018
-297.735	-70.595	0.287	-0.106
-296.720	721.852	0.089	0.233
-295.705	72.617	-0.276	0.283
-294.691	-64.973	-0.151	-0.060
-293.676	800.000	0.107	-0.329
-292.662	-200.000	-0.011	-0.351
-291.647	500.358	0.155	-0.351
-290.632	-132.767	0.276	-0.035
-289.618	-143.641	-0.147	-0.014
-288.603	-53.746	0.161	-0.072
-287.589	95.848	-0.162	-0.181
-286.574	422.578	0.012	0.026
-285.559	-200.000	0.019	0.153
-284.545	-48.640	0.170	0.080
-283.530	-95.445	0.160	0.042
-282.516	-64.038	-0.355	0.142
-281.501	8.129	-0.215	0.158
-280.486	82.289	0.080	0.085
-279.472	211.484	0.066	-0.101
-278.457	-49.244	0.366	0.172
-277.443	270.617	0.158	0.273
-276.428	-116.750	0.122	-0.022
-275.413	32.422	0.121	-0.102
-274.399	620.438	-0.023	0.056
-273.384	-37.024	-0.288	-0.151
-272.370	-49.287	0.397	-0.186
-271.355	-99.481	-0.200	-0.049
-270.340	-70.673	0.183	-0.068
-269.326	-10.768	0.255	-0.165
-268.311	-175.701	-0.185	0.005
-267.297	800.000	-0.086	-0.367
-266.282	355.869	-0.110	-0.214
-265.267	598.172	0.018	-0.044
-264.253	-58.238	-0.184	0.078
-263.238	800.000	0.091	-0.260
-262.224	45.366	-0.204	-0.184
-261.209	143.625	0.255	-0.332
-260.195	-189.926	-0.482	0.005
-259.180	-115.466	0.292	-0.054
-258.165	-90.843	-0.270	0.076
-257.151	166.165	-0.201	0.279
-256.136	-76.736	0.317	-0.109
-255.122	-97.293	-0.286	-0.073
-254.107	-200.000	0.045	0.289
-253.092	800.000	-0.041	0.176
-252.078	-200.000	0.128	0.608
-251.063	86.626	0.119	-0.128
-250.049	-200.000	0.021	-0.198
-249.034	-200.000	0.003	0.123
-248.019	-200.000	-0.004	0.205
-247.005	145.143	0.072	0.094
-245.990	-77.046	0.361	0.123
-244.976	-107.176	-0.177	-0.038
-243.961	-27.592	0.227	-0.129
-242.946	83.398	-0.250	-0.267
-241.932	-200.000	-0.046	-0.306
-240.917	156.326	-0.107	0.144
-239.903	-200.000	-0.015	-0.070
-238.888	-94.282	-0.220	-0.059
-237.873	-200.000	0.043	0.267
-236.859	154.856	0.124	-0.167
-235.844	800.000	0.018	0.055
-234.830	-159.823	-0.264	0.014
-233.815	115.618	0.178	-0.213
-232.800	35.598	0.119	0.102
-231.786	-66.553	0.265	-0.103
-230.771	-104.378	-0.109	-0.025
-229.757	654.742	-0.040	-0.100
-228.742	-80.552	-0.248	-0.081
-227.727	-57.363	-0.164	0.071
-226.713	448.868	0.029	0.064
-225.698	-154.990	0.196	0.013
-224.684	-60.243	0.041	0.017
-223.669	-200.000	0.022	0.161
-222.655	9.577	0.139	0.103
-221.640	289.099	-0.073	-0.129
-220.625	800.000	-0.085	0.312
-219.611	-98.489	-0.220	0.055
-218.596	397.405	-0.052	-0.106
-217.582	221.764	0.167	0.263
-216.567	209.311	0.169	-0.259
-215.552	269.558	0.103	-0.176
-214.538	64.842	0.390	0.385
-213.523	467.646	-0.093	-0.205
-212.509	-38.652	-0.108	0.056
-211.494	-200.000	0.023	0.171
-210.479	-22.621	-0.163	0.096
-209.465	-53.566	-0.276	0.124
-208.450	79.967	0.265	-0.279
-207.436	190.064	0.041	0.060
-206.421	689.641	-0.054	0.137
-205.406	-200.000	0.001	-0.049
-204.392	-128.859	0.160	0.022
-203.377	800.000	0.043	0.178
-202.363	269.365	0.175	0.300
-201.348	15.781	0.321	-0.247
-200.333	-200.000	-0.001	0.212
-199.319	-117.790	0.080	0.014
-198.304	-20.257	0.198	0.119
-197.290	25.576	0.155	-0.127
-196.275	389.128	-0.072	0.146
-195.260	180.012	0.192	-0.275
-194.246	33.330	0.040	-0.034
-193.231	315.798	0.050	0.091
-192.217	-185.123	-0.249	0.004
-191.202	800.000	0.112	-0.305
-190.187	75.656	-0.060	-0.062
-189.173	-162.527	0.181	-0.009
-188.158	132.352	0.238	0.299
-187.144	-200.000	-0.013	0.203
-186.129	-200.000	-0.047	-0.203
-185.114	-200.000	0.029	0.127
-184.100	20.196	0.253	-0.200
-183.085	100.369	-0.056	-0.063
-182.071	-117.849	-0.318	0.056
-181.056	354.185	0.071	0.137
-180.042	-200.000	-0.078	0.375
-179.027	-35.851	0.196	0.104
-178.012	-137.149	-0.175	-0.019
-176.998	151.745	-0.120	0.159
-175.983	103.121	-0.160	0.183
-174.969	-63.453	-0.237	-0.095
-173.954	192.084	0.164	0.242
-172.939	128.616	0.023	-0.029
-171.925	153.778	0.068	0.091
-170.910	-30.497	0.139	0.077
-169.896	86.713	-0.138	-0.148
-168.881	480.548	-0.115	0.255
-167.866	800.000	-0.036	0.108
-166.852	-200.000	-0.029	-0.162
-165.837	223.447	-0.061	-0.096
-164.823	-200.000	-0.021	0.323
-163.808	800.000	0.043	0.142
-162.793	585.029	-0.090	0.217
-161.779	-144.103	0.083	-0.008
-160.764	-200.000	0.016	-0.129
-159.750	-120.729	0.333	-0.055
-158.735	-200.000	0.006	0.036
-157.720	-131.025	0.135	-0.018
-156.706	-117.373	-0.217	-0.038
-155.691	-200.000	0.037	0.180
-154.677	800.000	0.100	0.274
-153.662	129.498	-0.071	0.089
-152.647	-200.000	0.016	-0.084
-151.633	800.000	-0.083	-0.236
-150.618	783.137	0.046	-0.124
-149.604	800.000	0.089	-0.275
-148.589	200.472	0.082	-0.124
-147.574	140.156	0.325	-0.419
-146.560	210.260	-0.076	0.117
-145.545	-92.633	-0.079	0.022
-144.531	46.953	0.122	0.111
-143.516	-200.000	-0.026	0.335
-142.502	-200.000	0.010	0.072
-141.487	-200.000	0.015	0.101
-140.472	-50.307	0.111	-0.051
-139.458	100.097	0.058	0.065
-138.443	253.548	-0.138	-0.231
-137.429	-72.550	-0.445	0.160
-136.414	-34.637	-0.122	0.065
-135.399	-116.790	-0.194	0.035
-134.385	800.000	-0.042	0.142
-133.370	241.398	0.141	-0.229
-132.356	-115.590	-0.142	-0.026
-131.341	-74.525	-0.167	0.059
-130.326	437.478	-0.050	0.106
-129.312	72.717	-0.271	-0.276
-128.297	253.314	-0.195	0.324
-127.283	800.000	-0.061	0.216
-126.268	-117.056	-0.093	-0.016
-125.253	-200.000	-0.031	-0.247
-124.239	-163.409	-0.211	-0.010
-123.224	-96.251	0.361	-0.093
-122.210	26.626	-0.336	-0.274
-121.195	145.616	0.120	-0.157
-120.180	-37.261	0.416	0.217
-119.166	-113.208	0.467	0.090
-118.151	-200.000	0.030	-0.229
-117.137	127.646	-0.021	0.026
-116.122	80.644	0.134	-0.141
-115.107	-63.636	-0.218	-0.087
-114.093	800.000	-0.035	-0.132
-113.078	-84.889	-0.087	-0.027
-112.064	-69.746	0.299	0.111
-111.049	-12.318	0.152	0.097
-110.034	-4.317	-0.283	-0.191
-109.020	61.724	0.341	0.331
-108.005	-36.617	-0.329	-0.172
-106.991	-74.703	0.165	-0.058
-105.976	35.956	0.143	-0.122
-104.962	-200.000	0.034	0.155
-103.947	-168.378	-0.147	-0.005
-102.932	-0.186	0.255	-0.177
-101.918	-41.699	-0.258	0.129
-100.903	-85.072	-0.168	-0.051
-99.889	39.550	0.045	0.039
-98.874	421.360	-0.018	-0.038
-97.859	800.000	-0.052	-0.162
-96.845	-168.612	-0.322	-0.012
-95.830	102.897	-0.131	0.149
-94.816	26.036	0.254	-0.206
-93.801	-121.730	0.167	-0.027
-92.786	290.657	0.118	0.209
-91.772	-200.000	-0.023	0.177
-90.757	-200.000	-0.022	0.095
-89.743	-9.297	0.033	-0.022
-88.728	-200.000	-0.035	-0.184
-87.713	51.334	0.330	-0.305
-86.699	-154.202	-0.053	-0.003
-85.684	107.119	0.088	0.102
-84.670	117.381	0.110	-0.132
-83.655	-200.000	0.055	-0.323
-82.640	-69.946	-0.031	-0.012
-81.626	-63.728	0.109	0.043
-80.611	71.905	0.105	-0.106
-79.597	-200.000	-0.060	-0.282
-78.582	-110.346	0.205	-0.041
-77.567	121.160	-0.141	-0.171
-76.553	-103.604	-0.144	-0.033
-75.538	232.606	-0.190	-0.304
-74.524	800.000	0.070	-0.231
-73.509	60.669	-0.448	0.432
-72.494	800.000	0.134	-0.479
-71.480	-159.015	-0.355	-0.020
-70.465	-200.000	0.004	-0.268
-69.451	-73.920	-0.399	-0.141
-68.436	-200.000	-0.006	0.120
-67.422	56.415	-0.124	-0.117
-66.407	123.566	-0.180	0.220
-65.392	800.000	-0.007	-0.023
-64.378	691.548	0.057	0.145
-63.363	593.219	0.074	-0.178
-62.349	-121.003	-0.397	0.065
-61.334	316.134	-0.859	-1.577
-60.319	-14.322	0.755	0.473
-59.305	210.750	-0.742	-1.134
-58.290	190.095	0.862	1.259
-57.276	349.731	0.675	1.296
-56.261	-200.000	124.848	644.965
-55.246	405.640	1579.514	3239.136
-54.232	140.548	2753.372	3534.385
-53.217	89.286	2313.505	2506.246
-52.203	32.385	1917.908	1610.014
-51.188	26.048	1713.354	1389.606
-50.173	24.043	1674.131	1342.636
-49.159	45.691	1743.753	1566.284
-48.144	43.325	1754.680	1557.804
-47.130	25.763	1706.499	1381.638
-46.115	23.322	1690.349	1349.931
-45.100	23.155	1685.723	1344.917
-44.086	23.087	1683.598	1342.649
-43.071	23.067	1681.304	1340.617
-42.057	23.075	1678.929	1338.729
-41.042	23.077	1676.841	1337.030
-40.027	23.052	1675.030	1335.343
-39.013	23.073	1673.220	1334.007
-37.998	22.993	1672.179	1332.518
-36.984	23.106	1670.223	1331.758
-35.969	23.232	1668.467	1331.255
-34.954	23.179	1667.760	1330.235
-33.940	23.172	1665.280	1328.152
-32.925	23.157	1663.766	1326.783
-31.911	23.127	1662.073	1325.157
-30.896	23.202	1660.244	1324.203
-29.881	23.110	1659.074	1322.529
-28.867	23.185	1657.430	1321.730
-27.852	23.160	1655.830	1320.213
-26.838	23.233	1654.388	1319.553
-25.823	23.179	1653.296	1318.230
-24.809	23.263	1651.857	1317.655
-23.794	23.251	1650.137	1316.137
-22.779	23.214	1649.056	1314.950
-21.765	23.213	1646.839	1313.123
-20.750	23.152	1645.841	1311.823
-19.736	23.176	1644.407	1310.803
-18.721	23.225	1642.425	1309.534
-17.706	23.209	1641.160	1308.359
-16.692	23.235	1639.459	1307.143
-15.677	23.190	1638.747	1306.191
-14.663	23.281	1637.092	1305.492
-13.648	23.199	1635.870	1303.860
-12.633	23.213	1634.171	1302.557
-11.619	23.255	1632.661	1301.612
-10.604	23.243	1631.218	1300.323
-9.590	23.248	1629.669	1299.073
-8.575	23.276	1628.701	1298.455
-7.560	23.226	1627.210	1296.847
-6.546	23.181	1626.764	1296.113
-5.531	23.239	1625.135	1295.185
-4.517	23.206	1623.830	1293.854
-3.502	23.172	1623.183	1293.040
-2.487	23.366	1621.058	1292.710
-1.473	22.887	1608.747	1279.374
-0.458	20.145	1588.630	1243.681
0.556	15.090	1591.049	1213.112
1.571	12.915	1614.837	1215.137
2.586	12.584	1627.454	1222.059
3.600	11.736	1572.320	1174.469
4.615	6.412	1464.650	1058.257
5.629	1.155	1405.905	981.747
6.644	0.315	1398.238	970.900
7.659	0.230	1397.506	969.755
8.673	0.163	1396.776	968.734
9.688	0.092	1394.586	966.672
10.702	-0.051	1391.131	963.278
11.717	2.547	1394.845	982.439
12.731	9.361	1404.357	1032.932
13.746	15.039	1412.730	1075.588
14.761	16.604	1415.416	1087.604
15.775	16.167	1413.201	1082.999
16.790	15.254	1410.335	1074.854
17.804	14.399	1408.308	1067.737
18.819	14.075	1407.059	1064.622
19.834	13.772	1405.769	1061.613
20.848	13.622	1404.068	1059.278
21.863	13.314	1403.116	1056.499
22.877	13.173	1401.592	1054.360
23.892	13.121	1400.550	1053.146
24.907	13.105	1399.964	1052.514
25.921	13.100	1399.000	1051.663
26.936	13.225	1398.035	1051.644
27.950	13.302	1397.114	1051.345
28.965	13.357	1395.813	1050.623
29.980	13.326	1395.134	1049.818
30.994	13.303	1394.231	1048.904
32.009	13.312	1393.816	1048.553
33.023	13.366	1392.329	1047.686
34.038	13.340	1391.218	1046.589
35.053	13.322	1389.739	1045.272
36.067	13.236	1389.046	1044.119
37.082	13.280	1387.356	1043.033
38.096	13.260	1387.069	1042.600
39.111	13.292	1386.194	1042.050
40.126	13.158	1385.463	1040.565
41.140	13.076	1384.631	1039.328
42.155	13.126	1383.909	1039.011
43.169	13.129	1384.139	1039.113
44.184	13.152	1383.259	1038.503
45.199	13.133	1382.658	1037.841
46.213	13.179	1382.231	1037.715
47.228	13.194	1381.365	1037.070
48.242	13.183	1380.328	1036.132
49.257	13.281	1378.368	1035.179
50.271	13.232	1376.701	1033.528
51.286	13.283	1375.653	1032.969
52.301	13.299	1374.200	1031.885
53.315	13.228	1373.436	1030.779
54.330	13.239	1371.806	1029.533
55.344	13.141	1371.172	1028.357
56.359	13.260	1369.538	1027.782
57.374	13.110	1369.224	1026.519
58.388	13.157	1368.226	1025.972
59.403	13.085	1367.675	1025.024
60.417	13.174	1366.465	1024.580
61.432	13.081	1365.868	1023.460
62.447	13.038	1364.935	1022.406
63.461	13.063	1363.518	1021.409
64.476	13.005	1362.585	1020.261
65.490	13.108	1361.163	1019.744
66.505	13.037	1359.688	1018.108
67.520	13.187	1358.204	1017.832
68.534	13.186	1357.032	1016.859
69.549	13.157	1356.237	1015.997
70.563	13.104	1354.990	1014.646
71.578	13.081	1353.800	1013.524
72.593	13.073	1352.621	1012.499
73.607	13.070	1352.452	1012.268
74.622	12.959	1351.502	1010.788
75.636	13.091	1350.596	1010.826
76.651	12.996	1350.197	1009.856
77.666	13.012	1349.399	1009.266
78.680	13.028	1348.715	1008.767
79.695	13.037	1347.945	1008.159
80.709	13.056	1347.363	1007.750
81.724	13.190	1346.280	1007.664
82.739	13.179	1345.178	1006.683
83.753	13.232	1343.686	1005.802
84.768	13.237	1343.043	1005.261
85.782	13.200	1341.643	1003.899
86.797	13.174	1340.740	1002.978
87.812	13.220	1339.195	1002.010
88.826	13.189	1338.537	1001.246
89.841	13.232	1336.661	1000.014
90.855	13.227	1336.208	999.557
91.870	13.209	1335.089	998.522
92.884	13.245	1334.659	998.325
93.899	13.298	1333.625	997.787
94.914	13.379	1332.720	997.506
95.928	13.328	1331.856	996.465
96.943	13.276	1331.029	995.443
97.957	13.293	1330.125	994.781
98.972	13.309	1328.930	993.900
99.987	13.331	1327.513	992.885
101.001	13.318	1326.642	992.065
102.016	13.300	1325.751	991.201
103.030	13.273	1325.093	990.465
104.045	13.282	1323.982	989.599
105.060	13.267	1322.452	988.275
106.074	13.270	1321.108	987.205
107.089	13.209	1319.771	985.752
108.103	13.133	1318.895	984.557
109.118	13.014	1317.542	982.755
110.133	13.136	1316.034	982.268
111.147	13.132	1314.666	981.134
112.162	13.104	1313.721	980.177
113.176	13.210	1312.604	979.882
114.191	13.285	1311.271	979.247
115.206	13.236	1309.954	977.888
116.220	13.247	1309.056	977.199
117.235	13.172	1308.176	976.011
118.249	13.223	1307.104	975.422
119.264	13.184	1305.771	974.116
120.279	13.251	1304.297	973.322
121.293	13.133	1303.597	972.021
122.308	13.213	1302.048	971.251
123.322	13.128	1301.123	969.972
124.337	13.172	1300.570	969.733
125.352	13.128	1299.126	968.314
126.366	13.146	1297.776	967.324
127.381	13.198	1296.302	966.444
128.395	13.152	1295.693	965.640
129.410	13.137	1295.084	965.009
130.424	13.244	1293.916	964.681
131.439	13.183	1293.158	963.674
132.454	13.224	1292.141	963.070
133.468	13.183	1291.071	961.950
134.483	13.296	1290.135	961.824
135.497	13.242	1288.971	960.555
136.512	13.252	1287.861	959.703
137.527	13.201	1286.452	958.274
138.541	13.168	1285.191	957.054
139.556	13.231	1283.977	956.434
140.570	13.206	1283.086	955.540
141.585	13.288	1281.103	954.451
142.600	13.440	1280.238	954.596
143.614	13.352	1279.777	953.665
144.629	13.377	1278.196	952.548
145.643	13.310	1277.660	951.673
146.658	13.363	1275.930	950.605
147.673	13.398	1274.355	949.551
148.687	13.373	1273.566	948.734
149.702	13.370	1271.937	947.423
150.716	13.383	1270.696	946.487
151.731	13.395	1269.583	945.644
152.746	13.342	1268.564	944.496
153.760	13.447	1266.782	943.685
154.775	13.363	1266.261	942.734
155.789	13.491	1264.687	942.208
156.804	13.519	1264.065	941.819
157.819	13.468	1262.832	940.533
158.833	13.482	1262.085	939.971
159.848	13.544	1261.272	939.635
160.862	13.552	1260.184	938.786
161.877	13.571	1258.988	937.921
162.892	13.537	1257.567	936.587
163.906	13.439	1257.050	935.560
164.921	13.556	1255.592	935.052
165.935	13.509	1255.070	934.315
166.950	13.509	1254.617	933.900
167.964	13.465	1253.183	932.499
168.979	13.491	1252.924	932.370
169.994	13.543	1252.409	932.196
171.008	13.484	1251.240	930.912
172.023	13.549	1250.524	930.666
173.037	13.597	1249.737	930.267
174.052	13.620	1248.945	929.724
175.067	13.488	1247.680	927.957
176.081	13.585	1246.684	927.681
177.096	13.535	1245.775	926.639
178.110	13.566	1244.845	926.040
179.125	13.638	1243.386	925.274
180.140	13.710	1241.786	924.406
181.154	13.597	1241.107	923.189
182.169	13.635	1240.118	922.580
183.183	13.777	1238.364	921.986
184.198	13.763	1237.567	921.232
185.213	13.672	1236.694	919.993
186.227	13.787	1235.122	919.382
187.242	13.838	1234.245	918.930
188.256	13.879	1233.183	918.285
189.271	13.813	1232.269	917.158
190.286	13.813	1230.977	916.114
191.300	13.574	1230.579	914.419
192.315	13.642	1229.622	914.003
193.329	13.645	1228.938	913.430
194.344	13.665	1228.413	913.068
195.359	13.803	1227.752	913.254
196.373	13.856	1227.325	913.149
197.388	13.867	1226.744	912.694
198.402	13.904	1226.646	912.747
199.417	13.964	1225.596	912.213
200.432	14.011	1224.642	911.683
201.446	14.056	1223.799	911.217
202.461	13.948	1223.081	910.012
203.475	13.987	1221.878	909.249
204.490	13.973	1220.724	908.232
205.504	14.057	1219.156	907.445
206.519	14.054	1217.750	906.303
207.534	13.997	1216.869	905.257
208.548	13.996	1215.949	904.487
209.563	14.048	1215.229	904.156
210.577	13.922	1214.629	902.941
211.592	14.223	1213.088	903.349
212.607	14.190	1212.408	902.584
213.621	14.149	1211.647	901.716
214.636	14.138	1210.332	900.601
215.650	14.154	1209.908	900.289
216.665	14.184	1208.986	899.689
217.680	14.137	1208.217	898.781
218.694	14.302	1206.999	898.688
219.709	14.314	1206.161	898.047
220.723	14.298	1205.794	897.609
221.738	14.298	1204.885	896.853
222.753	14.412	1203.996	896.726
223.767	14.296	1203.084	895.342
224.782	14.433	1202.174	895.321
225.796	14.372	1202.088	894.853
226.811	14.405	1201.441	894.469
227.826	14.304	1201.299	893.740
228.840	14.406	1199.697	893.015
229.855	14.363	1199.210	892.345
230.869	14.342	1198.417	891.561
231.884	14.337	1197.495	890.771
232.899	14.282	1197.197	890.175
233.913	14.303	1196.250	889.504
234.928	14.280	1195.557	888.791
235.942	14.424	1194.277	888.528
236.957	14.397	1193.697	887.875
237.972	14.482	1192.688	887.498
238.986	14.419	1192.103	886.649
240.001	14.469	1191.075	886.068
241.015	14.384	1190.770	885.315
242.030	14.462	1189.914	885.014
243.045	14.478	1189.385	884.629
244.059	14.561	1188.091	884.026
245.074	14.504	1187.480	883.190
246.088	14.552	1186.641	882.743
247.103	14.626	1185.792	882.423
248.117	14.504	1185.406	881.415
249.132	14.797	1184.090	881.905
250.147	14.816	1182.974	881.097
251.161	14.786	1182.920	880.817
252.176	14.731	1182.233	879.941
253.190	14.821	1181.844	880.046
254.205	14.924	1180.910	879.813
255.220	14.941	1180.349	879.409
256.234	14.795	1180.036	878.332
257.249	14.916	1178.806	877.972
258.263	14.952	1178.364	877.755
259.278	14.892	1178.199	877.238
260.293	14.976	1177.169	876.834
261.307	14.949	1176.979	876.473
262.322	15.029	1175.713	875.870
263.336	15.046	1175.103	875.430
264.351	14.971	1174.410	874.445
265.366	15.076	1174.242	874.787
266.380	15.016	1173.281	873.682
267.395	14.999	1172.476	872.917
268.409	15.023	1171.608	872.319
269.424	14.972	1170.863	871.421
270.439	15.015	1170.505	871.301
271.453	15.128	1169.364	870.965
272.468	15.091	1168.616	870.134
273.482	14.931	1167.960	868.741
274.497	15.086	1167.488	869.117
275.512	15.109	1166.419	868.364
276.526	15.088	1165.812	867.726
277.541	15.111	1165.040	867.194
278.555	15.161	1164.492	866.967
279.570	15.211	1163.448	866.371
280.585	15.304	1162.696	866.214
281.599	15.174	1161.986	864.938
282.614	15.184	1161.083	864.240
283.628	15.120	1159.957	862.996
284.643	15.316	1158.564	862.894
285.657	15.314	1158.007	862.392
286.672	15.256	1157.153	861.384
287.687	15.265	1156.375	860.771
288.701	15.335	1155.703	860.554
289.716	15.319	1154.845	859.760
290.730	15.245	1154.213	858.834
291.745	15.322	1153.441	858.578
292.760	15.387	1152.482	858.119
293.774	15.349	1152.371	857.767
294.789	15.399	1151.578	857.356
295.803	15.399	1150.842	856.732
296.818	15.387	1150.079	856.027
297.833	15.312	1149.462	855.108
298.847	15.437	1148.522	854.972
299.862	15.452	1147.352	854.099
300.876	15.381	1147.100	853.477
301.891	15.571	1146.358	853.813
302.906	15.582	1145.624	853.249
303.920	15.502	1144.828	852.171
304.935	15.615	1144.452	852.395
305.949	15.596	1143.338	851.388
306.964	15.699	1142.747	851.396
307.979	15.678	1142.313	850.893
308.993	15.642	1142.002	850.402
310.008	15.728	1140.477	849.629
311.022	15.656	1140.233	849.006
312.037	15.760	1139.007	848.540
313.052	15.767	1137.951	847.717
314.066	15.692	1137.268	846.754
315.081	15.598	1136.469	845.610
316.095	15.639	1135.921	845.334
317.110	15.688	1135.106	844.901
318.125	15.770	1133.969	844.391
319.139	15.756	1133.453	843.860
320.154	15.724	1132.611	843.000
321.168	15.677	1132.302	842.459
322.183	15.720	1131.588	842.067
323.197	15.735	1130.812	841.492
324.212	15.856	1130.184	841.554
325.227	15.773	1129.736	840.731
326.241	15.786	1128.974	840.153
327.256	15.698	1128.464	839.261
328.270	15.788	1127.388	838.835
329.285	15.626	1126.418	837.233
330.300	15.889	1125.124	837.506
331.314	15.906	1124.173	836.807
332.329	15.844	1123.369	835.828
333.343	15.887	1122.544	835.353
334.358	15.907	1121.660	834.723
335.373	15.915	1120.868	834.097
336.387	15.939	1120.123	833.587
337.402	15.967	1119.555	833.229
338.416	15.961	1118.814	832.575
339.431	15.997	1118.281	832.284
340.446	16.092	1117.447	832.059
341.460	16.027	1116.797	831.180
342.475	16.094	1115.722	830.637
343.489	16.160	1115.044	830.382
344.504	16.145	1114.141	829.565
345.519	16.266	1113.253	829.421
346.533	16.346	1112.294	829.028
347.548	16.260	1111.765	828.139
348.562	16.279	1110.782	827.424
349.577	16.163	1110.502	826.575
350.592	16.156	1109.323	825.593
351.606	16.224	1108.331	825.111
352.621	16.137	1107.939	824.324
353.635	16.267	1107.314	824.421
354.650	16.192	1106.650	823.486
355.665	16.159	1106.207	822.923
356.679	16.224	1105.508	822.645
357.694	16.321	1104.792	822.513
358.708	16.376	1104.068	822.168
359.723	16.297	1103.389	821.206
360.738	16.430	1102.638	821.222
361.752	16.376	1101.860	820.308
362.767	16.447	1101.637	820.415
363.781	16.395	1101.117	819.701
364.796	16.478	1100.397	819.494
365.810	16.481	1099.467	818.743
366.825	16.522	1098.972	818.500
367.840	16.500	1098.725	818.137
368.854	16.625	1098.065	818.181
369.869	16.606	1097.463	817.568
370.883	16.489	1096.577	816.270
371.898	16.661	1095.402	816.152
372.913	16.582	1094.959	815.367
373.927	16.612	1094.394	815.020
374.942	16.579	1094.296	814.714
375.956	16.695	1093.583	814.672
376.971	16.682	1092.797	813.950
377.986	16.651	1092.181	813.271
379.000	16.740	1091.631	813.219
380.015	16.772	1090.957	812.796
381.029	16.685	1090.418	811.908
382.044	16.845	1089.633	812.016
383.059	16.842	1089.000	811.459
384.073	16.806	1088.505	810.847
385.088	16.947	1087.076	810.382
386.102	16.803	1086.324	809.061
387.117	16.849	1085.504	808.601
388.132	16.753	1084.655	807.438
389.146	16.662	1084.187	806.586
390.161	16.772	1083.173	806.283
391.175	16.798	1082.486	805.824
392.190	16.892	1081.727	805.637
393.205	16.890	1081.030	805.036
394.219	16.961	1080.036	804.558
395.234	16.912	1079.150	803.599
396.248	16.868	1078.079	802.518
397.263	16.910	1077.307	802.070
398.278	16.979	1076.736	801.901
399.292	16.943	1075.975	801.098
400.307	16.896	1074.889	799.995
401.321	16.997	1074.570	800.163
402.336	16.894	1073.770	799.008
403.350	17.075	1072.926	799.164
404.365	16.987	1072.121	798.078
405.380	17.006	1071.455	797.602
406.394	16.933	1071.335	797.097
407.409	17.106	1070.272	797.049
408.423	17.195	1069.365	796.722
409.438	17.098	1068.910	795.856
410.453	17.251	1067.757	795.643
411.467	17.153	1067.363	794.823
412.482	17.226	1066.413	794.387
413.496	17.135	1065.994	793.580
414.511	17.280	1065.152	793.557
415.526	17.171	1065.068	792.915
416.540	17.369	1064.719	793.509
417.555	17.321	1064.075	792.737
418.569	17.351	1063.637	792.478
419.584	17.437	1062.883	792.251
420.599	17.389	1062.441	791.623
421.613	107.557	1332.014	1487.173
422.628	99.308	1371.230	1487.265
