DTS Sentinel unit serial number:	SN413079Multiplexer serial number:	ORYXHardware model number:	OX4-SRSoftware version number:	ORYX F/W v4.00 Oryx Data Collector v3.7.2.0data status	okinstallation	princeton_trtdifferential loss correction	single-endedforward channel	channel 2reverse channel	N/Adate	2019/09/12time	18:48:49forward acquisition time	15.00reverse acquisition time	0.00gamma	496.2192k internal	0.2324k external	0.2324temperature offset calibration	1.0129default loss term (dB/km)	0.3790temperature slope calibration	1.0000multiplexer offset coefficient	1.0000multiplexer slope coefficient	1.0000fibre end	0.00T internal ref (°C)	32.94T ext. ref 1 (°C)	2.97T ext. ref 2 (°C)	27.41length (m)	temperature (°C)	Stokes	anti-Stokes-747.200	-200.000	0.081	0.542
-746.185	-56.137	0.440	0.198
-745.171	-200.000	0.028	-0.878
-744.156	-45.570	0.046	-0.023
-743.142	258.798	0.288	-0.502
-742.127	-200.000	0.046	0.226
-741.112	-200.000	-0.024	-0.365
-740.098	105.095	0.179	0.214
-739.083	-95.063	0.464	0.127
-738.069	-49.393	-0.982	-0.473
-737.054	-200.000	-0.004	-0.114
-736.039	306.277	-0.109	-0.205
-735.025	100.154	0.111	-0.130
-734.010	114.559	0.389	-0.478
-732.996	24.339	-0.730	-0.608
-731.981	113.221	-0.217	-0.266
-730.966	-118.404	0.179	0.032
-729.952	-200.000	-0.062	-0.946
-728.937	29.006	0.184	0.157
-727.923	-86.530	-0.997	0.309
-726.908	4.148	-0.554	0.409
-725.894	-200.000	-0.006	-0.374
-724.879	-81.049	-0.188	0.063
-723.864	-147.300	-0.062	0.005
-722.850	169.859	0.219	0.315
-721.835	102.055	0.229	0.270
-720.821	686.905	0.071	0.188
-719.806	112.705	0.253	0.309
-718.791	-18.403	-0.466	0.293
-717.777	-200.000	-0.077	0.391
-716.762	-9.734	-0.192	0.129
-715.748	800.000	-0.277	0.839
-714.733	-130.426	0.412	-0.056
-713.718	247.166	0.179	-0.305
-712.704	800.000	-0.022	-0.061
-711.689	-100.240	0.384	0.096
-710.675	-200.000	-0.091	-1.301
-709.660	-31.322	-0.147	0.083
-708.645	-149.573	-0.478	0.038
-707.631	113.489	0.537	-0.657
-706.616	-127.367	0.324	-0.048
-705.602	31.409	-0.272	-0.236
-704.587	165.180	0.463	0.659
-703.572	614.361	0.283	-0.716
-702.558	4.967	0.964	0.715
-701.543	-151.242	0.385	0.029
-700.529	-97.799	-0.154	0.040
-699.514	-144.084	-0.507	0.048
-698.499	-134.033	-0.624	0.078
-697.485	90.872	0.195	-0.220
-696.470	5.091	0.143	0.106
-695.456	203.736	0.432	-0.674
-694.441	64.019	-0.578	0.586
-693.426	84.927	0.259	-0.286
-692.412	-200.000	0.122	0.541
-691.397	-7.126	-0.081	-0.056
-690.383	418.008	0.196	-0.421
-689.368	555.991	0.123	0.298
-688.354	281.079	0.346	0.624
-687.339	323.623	-0.317	0.609
-686.324	164.401	0.047	0.067
-685.310	-157.976	0.820	-0.049
-684.295	115.439	-0.328	-0.403
-683.281	353.372	-0.362	0.723
-682.266	-147.049	0.991	0.085
-681.251	-51.780	-0.708	-0.332
-680.237	-163.385	0.532	0.026
-679.222	-145.345	-0.680	-0.062
-678.208	-200.000	0.073	0.569
-677.193	231.123	0.151	0.249
-676.178	-24.766	-1.065	-0.637
-675.164	110.912	0.589	-0.713
-674.149	-59.218	0.552	0.240
-673.135	-81.799	-0.659	0.217
-672.120	79.258	0.400	-0.432
-671.105	142.519	-0.397	-0.531
-670.091	-200.000	0.020	-0.139
-669.076	44.543	-0.512	0.473
-668.062	-27.315	-0.668	-0.391
-667.047	-113.416	-0.804	-0.159
-666.032	301.262	-0.210	0.390
-665.018	27.989	0.552	0.469
-664.003	-41.796	0.503	0.260
-662.989	-142.007	0.288	-0.029
-661.974	-13.449	-0.636	0.415
-660.959	-114.340	-0.347	-0.067
-659.945	-85.217	-0.117	0.037
-658.930	92.958	0.306	-0.348
-657.916	-200.000	0.017	-0.135
-656.901	-200.000	0.007	-0.270
-655.886	255.722	-0.298	-0.514
-654.872	-158.701	-0.250	-0.014
-653.857	-138.982	-0.702	0.077
-652.843	-200.000	-0.019	-0.677
-651.828	-66.526	-0.593	0.237
-650.814	2.747	0.286	-0.208
-649.799	-200.000	-0.033	0.165
-648.784	-57.419	0.796	0.352
-647.770	64.021	-0.565	0.572
-646.755	-200.000	0.021	-0.426
-645.741	-200.000	0.116	0.786
-644.726	114.154	-0.388	-0.474
-643.711	-137.624	-0.451	0.051
-642.697	157.480	-0.429	0.597
-641.682	-99.125	-0.560	0.142
-640.668	107.605	-0.529	0.633
-639.653	-200.000	0.052	0.345
-638.638	42.664	-0.486	0.445
-637.624	372.740	0.149	-0.305
-636.609	121.960	-0.185	-0.232
-635.595	-146.868	0.941	-0.081
-634.580	-200.000	-0.080	0.515
-633.565	-166.549	0.558	-0.023
-632.551	-9.303	-0.419	0.282
-631.536	-138.304	0.364	0.040
-630.522	399.341	-0.304	0.640
-629.507	261.589	0.163	0.283
-628.492	18.038	0.359	0.288
-627.478	81.309	0.324	0.351
-626.463	-41.275	1.047	0.542
-625.449	28.050	-0.576	-0.488
-624.434	-200.000	-0.033	-0.514
-623.419	-151.293	1.039	0.078
-622.405	34.925	0.338	-0.297
-621.390	237.501	-0.171	-0.285
-620.376	10.035	-0.651	-0.497
-619.361	-131.409	0.190	-0.025
-618.346	-49.978	-0.540	0.257
-617.332	-13.905	0.380	0.246
-616.317	362.266	-0.210	0.423
-615.303	-200.000	0.233	1.068
-614.288	20.721	-0.176	0.143
-613.273	-71.631	0.430	0.161
-612.259	-200.000	-0.094	-1.110
-611.244	122.238	0.388	0.486
-610.230	473.751	0.221	0.500
-609.215	-175.576	-0.948	-0.026
-608.201	24.211	-0.401	0.332
-607.186	-200.000	0.091	0.439
-606.171	-83.808	-0.526	-0.168
-605.157	-93.477	0.347	-0.096
-604.142	-49.009	0.298	-0.143
-603.128	-98.369	-0.416	-0.107
-602.113	-200.000	-0.076	-0.356
-601.098	-200.000	-0.031	-0.171
-600.084	-121.355	0.421	0.070
-599.069	-150.000	-0.430	-0.034
-598.055	-11.877	-0.455	-0.300
-597.040	-37.332	-1.074	-0.576
-596.025	-76.023	0.578	0.205
-595.011	80.213	0.239	-0.258
-593.996	-66.007	-0.250	0.100
-592.982	-96.798	-1.072	0.283
-591.967	-28.540	-0.456	-0.264
-590.952	-64.731	-1.146	-0.466
-589.938	-39.269	-0.193	0.102
-588.923	-82.185	0.528	0.173
-587.909	800.000	0.106	0.454
-586.894	-16.711	0.463	-0.294
-585.879	800.000	0.158	0.457
-584.865	-200.000	0.064	0.999
-583.850	-200.000	-0.074	-0.528
-582.836	-133.743	0.691	-0.086
-581.821	102.124	-0.178	0.208
-580.806	-9.882	-0.158	0.105
-579.792	-144.043	-0.574	0.054
-578.777	-54.420	0.389	-0.177
-577.763	-200.000	-0.026	0.465
-576.748	21.348	-0.537	0.438
-575.733	-200.000	-0.102	-0.463
-574.719	-40.882	-0.690	0.358
-573.704	54.730	-0.428	-0.413
-572.690	60.614	-0.472	0.468
-571.675	32.692	0.660	0.572
-570.661	-75.402	0.592	-0.212
-569.646	42.899	0.349	-0.319
-568.631	-83.203	-0.620	-0.200
-567.617	-200.000	-0.034	-0.197
-566.602	-106.346	-0.156	-0.035
-565.588	-200.000	-0.142	0.902
-564.573	800.000	0.216	-0.911
-563.558	800.000	0.120	-0.462
-562.544	800.000	0.058	-0.219
-561.529	-55.172	-0.152	-0.069
-560.515	800.000	0.032	0.123
-559.500	144.407	0.091	0.122
-558.485	-200.000	-0.046	-0.203
-557.471	9.616	0.631	0.479
-556.456	46.926	0.738	-0.687
-555.442	151.575	0.289	-0.395
-554.427	-74.383	0.386	0.140
-553.412	32.548	-0.340	0.295
-552.398	-200.000	-0.075	-0.368
-551.383	2.835	0.393	0.286
-550.369	-50.882	-0.426	0.201
-549.354	-200.000	-0.019	0.088
-548.339	-200.000	-0.045	0.827
-547.325	23.418	0.347	-0.285
-546.310	434.041	0.326	0.709
-545.296	-105.107	0.162	-0.037
-544.281	176.740	-0.298	0.434
-543.266	800.000	-0.314	-0.927
-542.252	-51.173	-0.640	-0.300
-541.237	-160.878	-0.433	-0.023
-540.223	336.344	0.066	-0.129
-539.208	-91.449	-0.415	-0.119
-538.193	-111.777	-0.938	-0.190
-537.179	-105.979	-0.390	-0.088
-536.164	14.334	0.305	-0.238
-535.150	43.950	0.222	-0.204
-534.135	-81.769	-0.305	0.100
-533.121	-132.650	0.430	0.055
-532.106	111.261	-0.319	0.385
-531.091	-148.050	-0.262	0.022
-530.077	99.906	-0.140	-0.162
-529.062	-135.106	0.324	-0.039
-528.048	147.284	0.410	-0.552
-527.033	800.000	-0.236	-0.708
-526.018	-200.000	0.014	-0.209
-525.004	-12.321	0.197	0.129
-523.989	-185.743	-0.225	0.003
-522.975	-200.000	0.019	-0.823
-521.960	-194.839	0.936	-0.007
-520.945	-200.000	-0.062	0.500
-519.931	-200.000	0.212	-1.028
-518.916	-42.000	0.128	0.066
-517.902	-200.000	-0.047	0.753
-516.887	-158.082	-0.520	0.031
-515.872	7.708	0.563	0.422
-514.858	-200.000	0.036	0.213
-513.843	133.393	-0.296	-0.383
-512.829	-18.159	0.162	-0.101
-511.814	780.537	0.174	-0.476
-510.799	115.631	0.371	0.454
-509.785	376.540	-0.184	-0.375
-508.770	-65.118	0.538	-0.217
-507.756	160.210	-0.462	0.644
-506.741	547.753	-0.318	0.762
-505.726	-200.000	0.002	0.781
-504.712	9.326	0.238	-0.180
-503.697	800.000	0.087	-0.376
-502.683	-94.467	-0.613	-0.167
-501.668	800.000	-0.004	0.014
-500.653	-10.097	-0.185	-0.123
-499.639	-10.900	0.525	-0.347
-498.624	758.992	0.273	-0.740
-497.610	769.399	-0.233	-0.634
-496.595	8.526	-0.145	0.109
-495.581	-200.000	-0.010	0.079
-494.566	-12.781	-0.359	0.234
-493.551	-17.662	-0.516	0.324
-492.537	-37.605	-0.167	0.089
-491.522	230.712	0.100	-0.163
-490.508	642.992	0.382	-0.973
-489.493	-72.926	-0.690	-0.254
-488.478	-184.889	0.350	0.006
-487.464	-88.459	0.862	-0.257
-486.449	-200.000	-0.079	-0.481
-485.435	140.108	-0.578	0.761
-484.420	-29.131	0.489	0.280
-483.405	143.346	-0.256	-0.341
-482.391	-110.749	0.799	-0.165
-481.376	42.105	0.202	0.183
-480.362	-200.000	-0.040	-0.612
-479.347	88.848	-0.372	0.413
-478.332	-179.282	0.562	-0.012
-477.318	13.378	-0.134	-0.104
-476.303	-113.631	0.127	-0.025
-475.289	161.022	0.441	0.615
-474.274	53.330	-0.133	-0.128
-473.259	-86.736	0.587	0.179
-472.245	-50.075	0.306	-0.145
-471.230	-200.000	-0.013	0.364
-470.216	-145.536	-0.148	0.013
-469.201	-75.291	0.615	0.219
-468.186	-200.000	-0.082	-0.491
-467.172	97.925	-0.399	-0.458
-466.157	-31.966	-0.408	-0.228
-465.143	-200.000	-0.025	0.527
-464.128	-118.316	-0.849	0.151
-463.113	-200.000	0.046	-0.484
-462.099	-200.000	-0.150	-1.033
-461.084	32.227	-0.240	0.207
-460.070	105.398	-0.122	-0.144
-459.055	-55.732	-0.563	0.251
-458.040	236.165	0.060	0.099
-457.026	-200.000	-0.092	0.603
-456.011	64.513	-0.486	-0.489
-454.997	800.000	0.013	-0.043
-453.982	-56.440	0.938	-0.415
-452.968	429.464	-0.188	-0.405
-451.953	-200.000	-0.300	-0.001
-450.938	-200.000	0.041	0.510
-449.924	267.953	-0.284	-0.497
-448.909	100.931	0.256	-0.297
-447.895	-104.385	0.265	-0.061
-446.880	800.000	-0.357	-0.999
-445.865	-141.476	-0.745	-0.075
-444.851	-155.831	-0.652	-0.041
-443.836	117.806	-0.169	0.208
-442.822	94.336	0.118	0.134
-441.807	-78.686	0.545	0.186
-440.792	-68.325	-0.233	0.090
-439.778	294.680	-0.245	-0.447
-438.763	17.276	0.164	0.130
-437.749	-59.640	0.533	-0.228
-436.734	-200.000	0.006	-0.144
-435.719	800.000	0.186	0.521
-434.705	-91.319	0.339	-0.097
-433.690	32.444	0.418	0.360
-432.676	360.424	-0.159	-0.317
-431.661	39.073	-0.415	0.370
-430.646	-58.242	-0.272	-0.118
-429.632	-88.224	-0.492	0.147
-428.617	-101.566	0.469	-0.114
-427.603	545.086	-0.193	-0.459
-426.588	-200.000	0.036	0.490
-425.573	-103.471	-0.897	0.210
-424.559	800.000	0.067	0.270
-423.544	-200.000	0.034	-0.268
-422.530	-188.917	-0.329	-0.004
-421.515	424.777	0.151	0.325
-420.500	-60.573	0.460	-0.195
-419.486	522.879	0.259	-0.607
-418.471	-107.936	-0.763	-0.165
-417.457	-200.000	-0.050	-0.800
-416.442	678.768	0.148	0.385
-415.428	-83.235	0.799	-0.256
-414.413	-200.000	0.013	0.216
-413.398	-63.762	-0.796	-0.325
-412.384	-200.000	-0.109	0.846
-411.369	-47.492	-0.470	0.227
-410.355	-56.658	0.256	-0.113
-409.340	-200.000	0.001	0.401
-408.325	-70.664	0.439	-0.165
-407.311	-55.096	-0.488	-0.219
-406.296	-82.102	0.487	0.158
-405.282	-127.921	0.589	-0.084
-404.267	677.758	0.178	0.461
-403.252	800.000	0.037	-0.152
-402.238	402.504	-0.476	0.997
-401.223	-200.000	0.229	-1.158
-400.209	-58.046	-0.440	0.191
-399.194	-92.449	-0.642	-0.180
-398.179	180.619	-0.115	0.167
-397.165	534.495	0.294	-0.693
-396.150	9.864	-0.407	-0.307
-395.136	-34.125	0.210	-0.115
-394.121	341.232	-0.127	-0.246
-393.106	-131.864	-0.703	0.092
-392.092	-200.000	0.035	-0.242
-391.077	207.042	-0.247	-0.384
-390.063	146.094	-0.178	0.238
-389.048	1.228	-0.628	-0.449
-388.033	44.787	-0.800	-0.733
-387.019	-61.873	0.859	-0.358
-386.004	179.618	-0.557	0.811
-384.990	-100.304	0.832	0.206
-383.975	-62.186	-0.759	-0.315
-382.960	-85.471	-0.604	-0.187
-381.946	-125.712	0.830	0.125
-380.931	-27.700	-0.622	0.359
-379.917	117.396	-0.358	0.438
-378.902	-93.418	0.790	-0.218
-377.888	465.761	-0.086	0.192
-376.873	71.632	0.552	0.571
-375.858	-53.336	0.496	0.226
-374.844	168.617	-0.183	0.259
-373.829	698.730	-0.428	-1.120
-372.815	-200.000	-0.066	-0.670
-371.800	-172.312	0.393	0.012
-370.785	-200.000	0.041	-0.620
-369.771	-200.000	-0.108	-0.637
-368.756	20.345	0.446	-0.358
-367.742	-22.709	0.155	-0.093
-366.727	165.636	-0.715	1.005
-365.712	-200.000	0.089	0.412
-364.698	-200.000	-0.063	-0.288
-363.683	-89.827	0.402	0.117
-362.669	-104.055	0.655	-0.152
-361.654	206.366	-0.110	-0.170
-360.639	165.476	-0.540	0.759
-359.625	58.146	0.388	0.378
-358.610	-62.772	0.361	0.149
-357.596	132.336	-0.117	-0.150
-356.581	69.978	0.057	-0.058
-355.566	153.506	-0.548	-0.746
-354.552	800.000	-0.178	0.746
-353.537	711.111	-0.140	0.367
-352.523	223.739	0.050	0.081
-351.508	-77.049	-0.524	0.182
-350.493	410.410	0.227	0.479
-349.479	179.442	-0.373	0.543
-348.464	-200.000	0.042	-0.307
-347.450	20.118	-0.352	-0.282
-346.435	52.239	0.209	0.198
-345.420	87.192	-0.469	0.515
-344.406	-62.361	-0.510	0.211
-343.391	-46.009	0.187	0.092
-342.377	-200.000	-0.024	0.543
-341.362	562.983	0.211	0.507
-340.348	-99.422	-0.442	-0.111
-339.333	197.410	0.051	0.077
-338.318	-200.000	-0.016	0.728
-337.304	62.680	-0.138	-0.137
-336.289	645.227	-0.176	-0.446
-335.275	109.044	0.206	0.244
-334.260	-62.172	0.316	0.131
-333.245	-166.164	1.117	0.047
-332.231	16.152	0.093	-0.073
-331.216	-120.686	-0.139	-0.023
-330.202	-110.473	-0.472	-0.097
-329.187	87.040	0.168	-0.185
-328.172	-86.266	0.734	-0.224
-327.158	-9.357	0.297	-0.197
-326.143	-50.922	0.739	-0.345
-325.129	341.607	0.410	0.796
-324.114	-200.000	0.071	-0.320
-323.099	800.000	-0.227	-0.729
-322.085	-171.910	-0.646	0.021
-321.070	368.189	0.152	-0.305
-320.056	285.210	-0.058	-0.104
-319.041	-142.550	-0.497	0.048
-318.026	-67.238	0.110	-0.043
-317.012	-2.173	-0.336	0.234
-315.997	113.847	0.428	0.516
-314.983	-25.768	-0.574	0.336
-313.968	48.729	0.123	0.115
-312.953	35.775	0.333	0.291
-311.939	31.173	0.485	0.413
-310.924	-96.423	-0.260	0.068
-309.910	-87.755	0.430	0.129
-308.895	-69.939	0.930	0.352
-307.880	-19.413	-0.139	-0.086
-306.866	210.129	-0.552	0.860
-305.851	249.611	0.185	0.310
-304.837	800.000	-0.030	-0.132
-303.822	133.817	-0.293	0.376
-302.807	-124.760	0.890	-0.137
-301.793	229.024	0.201	0.325
-300.778	-21.190	-0.116	0.071
-299.764	573.893	-0.158	0.382
-298.749	-200.000	-0.033	-0.479
-297.735	409.718	-0.093	0.196
-296.720	51.723	-0.121	-0.114
-295.705	778.424	-0.262	-0.711
-294.691	91.932	-0.544	-0.607
-293.676	-200.000	-0.064	1.152
-292.662	328.331	0.326	0.622
-291.647	-71.638	0.510	0.189
-290.632	-20.005	0.266	0.163
-289.618	37.072	-0.370	0.325
-288.603	647.818	0.147	0.373
-287.589	800.000	0.117	-0.329
-286.574	-118.746	0.136	0.024
-285.559	45.764	0.651	-0.596
-284.545	222.587	0.231	-0.369
-283.530	-145.460	-0.489	0.044
-282.516	84.280	0.244	-0.265
-281.501	-200.000	-0.135	0.615
-280.486	117.571	0.185	-0.226
-279.472	-164.091	-0.685	0.031
-278.457	-200.000	0.004	0.239
-277.443	-60.008	-0.238	-0.101
-276.428	-55.092	-0.194	-0.086
-275.413	267.120	0.482	-0.835
-274.399	20.573	0.515	-0.413
-273.384	-79.699	0.507	0.169
-272.370	724.766	0.047	0.125
-271.355	800.000	0.163	0.566
-270.340	244.559	0.118	0.196
-269.326	-200.000	0.136	0.985
-268.311	-60.729	0.407	-0.171
-267.297	800.000	-0.092	-0.370
-266.282	-64.989	-0.723	-0.289
-265.267	484.624	0.149	-0.337
-264.253	-200.000	-0.057	-1.553
-263.238	177.515	0.081	-0.117
-262.224	-144.968	-0.570	0.052
-261.209	-200.000	-0.034	0.283
-260.195	-129.315	0.491	-0.068
-259.180	800.000	0.288	-0.803
-258.165	-39.297	0.347	0.180
-257.151	-85.336	0.339	-0.105
-256.136	-173.082	1.088	-0.033
-255.122	-92.591	-0.617	0.171
-254.107	-8.272	-0.364	-0.242
-253.092	800.000	0.129	0.468
-252.078	106.245	0.136	-0.160
-251.063	709.571	-0.289	0.757
-250.049	33.613	-0.778	0.670
-249.034	-125.724	-0.504	0.076
-248.019	136.645	0.204	-0.264
-247.005	-82.063	-0.478	-0.155
-245.990	164.355	-0.450	-0.627
-244.976	-200.000	-0.139	0.686
-243.961	770.168	-0.058	0.157
-242.946	-200.000	0.026	0.129
-241.932	-108.917	0.523	0.111
-240.917	292.056	-0.200	0.361
-239.903	-200.000	0.088	0.610
-238.888	-96.993	-0.167	0.043
-237.873	-150.504	0.405	-0.031
-236.859	-145.955	0.218	-0.019
-235.844	126.788	-0.196	-0.245
-234.830	292.320	-0.448	-0.807
-233.815	444.836	0.213	-0.462
-232.800	-200.000	0.051	0.363
-231.786	115.852	0.226	-0.273
-230.771	-200.000	-0.064	0.636
-229.757	508.955	-0.337	-0.774
-228.742	0.246	0.656	-0.463
-227.727	71.135	-0.394	-0.404
-226.713	-178.746	0.624	0.014
-225.698	716.638	-0.091	0.240
-224.684	483.395	-0.026	-0.058
-223.669	431.843	0.068	-0.146
-222.655	800.000	0.161	-0.456
-221.640	660.362	0.091	-0.232
-220.625	6.144	-0.386	0.283
-219.611	-34.699	-0.826	-0.446
-218.596	800.000	-0.020	-0.081
-217.582	-200.000	-0.089	-0.906
-216.567	-112.584	0.086	-0.017
-215.552	18.480	-0.536	-0.423
-214.538	357.508	-0.192	0.379
-213.523	260.949	-0.180	0.308
-212.509	-200.000	0.007	-0.350
-211.494	110.215	0.228	0.271
-210.479	-80.024	-0.112	-0.037
-209.465	-200.000	0.173	0.838
-208.450	-200.000	-0.015	0.505
-207.436	-102.341	0.899	0.213
-206.421	-56.370	-0.876	-0.385
-205.406	-200.000	0.005	0.128
-204.392	104.436	0.614	-0.715
-203.377	-95.635	0.657	-0.174
-202.363	800.000	0.353	0.966
-201.348	105.337	-0.587	-0.684
-200.333	-200.000	0.000	0.224
-199.319	-51.841	0.401	-0.184
-198.304	235.777	-0.207	0.338
-197.290	228.988	0.276	-0.445
-196.275	-195.790	-0.502	0.004
-195.260	-162.229	-0.858	-0.042
-194.246	-14.273	0.576	0.367
-193.231	800.000	-0.148	0.478
-192.217	445.400	0.150	0.326
-191.202	648.711	-0.226	0.571
-190.187	-130.106	0.182	-0.025
-189.173	-126.869	0.447	-0.065
-188.158	19.623	-1.209	0.961
-187.144	256.149	0.377	-0.638
-186.129	587.824	-0.064	0.156
-185.114	657.913	0.162	-0.412
-184.100	-69.286	1.054	-0.400
-183.085	237.198	0.615	-1.005
-182.071	-114.822	-0.626	0.118
-181.056	-200.000	-0.037	-0.284
-180.042	61.860	-0.327	0.322
-179.027	100.344	0.182	0.209
-178.012	-149.703	-0.350	-0.027
-176.998	-9.793	-0.350	0.230
-175.983	-94.915	0.584	-0.156
-174.969	-200.000	-0.018	-0.420
-173.954	-200.000	0.066	-0.726
-172.939	-99.388	0.324	-0.081
-171.925	444.304	-0.401	0.867
-170.910	-18.405	0.414	-0.256
-169.896	101.421	-0.533	-0.613
-168.881	39.901	0.342	0.303
-167.866	-1.157	0.420	0.293
-166.852	276.451	-0.349	0.611
-165.837	53.060	0.596	-0.563
-164.823	800.000	-0.032	0.132
-163.808	-93.551	1.340	-0.366
-162.793	337.659	0.332	0.636
-161.779	77.053	0.430	0.450
-160.764	317.720	0.144	-0.268
-159.750	266.165	0.226	0.390
-158.735	90.319	0.277	-0.305
-157.720	219.967	-0.176	-0.278
-156.706	548.208	-0.281	-0.665
-155.691	-145.859	0.280	0.025
-154.677	-49.497	0.609	-0.286
-153.662	178.151	0.505	0.727
-152.647	-7.633	0.271	-0.181
-151.633	800.000	0.246	-0.764
-150.618	-16.022	0.572	0.359
-149.604	-34.787	-0.570	0.307
-148.589	800.000	-0.072	0.288
-147.574	292.285	0.197	0.354
-146.560	-0.467	0.312	-0.218
-145.545	83.204	0.288	-0.309
-144.531	-3.989	0.593	-0.405
-143.516	71.979	0.172	-0.176
-142.502	245.967	0.185	0.308
-141.487	800.000	-0.147	0.402
-140.472	-200.000	-0.026	0.889
-139.458	800.000	0.238	0.817
-138.443	-16.255	-0.028	0.018
-137.429	-200.000	-0.178	0.796
-136.414	756.808	-0.102	-0.272
-135.399	-102.493	1.038	0.245
-134.385	-200.000	-0.104	1.046
-133.370	-22.331	0.195	0.116
-132.356	-200.000	0.186	-0.832
-131.341	43.472	0.327	-0.294
-130.326	-33.511	0.291	0.158
-129.312	-138.732	0.361	0.039
-128.297	-135.961	-0.993	-0.115
-127.283	-94.225	0.104	0.028
-126.268	-200.000	0.062	-1.060
-125.253	-200.000	-0.057	-0.784
-124.239	-200.000	-0.053	0.525
-123.224	281.801	0.286	-0.504
-122.210	-171.332	-0.573	-0.019
-121.195	-180.337	0.323	-0.007
-120.180	-200.000	-0.121	0.531
-119.166	147.334	-0.213	0.282
-118.151	271.198	0.404	-0.700
-117.137	352.833	-0.287	0.561
-116.122	135.952	0.692	0.888
-115.107	-187.585	-0.784	0.010
-114.093	-178.570	0.612	0.014
-113.078	-200.000	-0.077	-1.032
-112.064	-200.000	0.080	0.542
-111.049	97.133	0.198	0.224
-110.034	110.625	0.257	0.304
-109.020	-85.705	-0.375	-0.114
-108.005	233.770	-0.087	0.141
-106.991	191.055	-0.533	0.789
-105.976	-71.691	0.909	-0.334
-104.962	250.657	0.069	-0.116
-103.947	-103.483	0.910	0.211
-102.932	733.164	-0.052	-0.138
-101.918	-200.000	0.044	-0.480
-100.903	451.714	-0.155	-0.336
-99.889	-97.113	0.119	0.031
-98.874	18.824	-0.114	-0.090
-97.859	-155.955	0.070	0.004
-96.845	-34.759	-0.502	0.270
-95.830	39.015	0.537	-0.473
-94.816	-104.064	-0.407	-0.093
-93.801	-125.220	0.454	0.068
-92.786	-8.807	-0.474	-0.313
-91.772	-114.168	0.360	0.069
-90.757	200.824	0.424	0.641
-89.743	-142.628	0.954	0.092
-88.728	-45.330	-0.888	-0.433
-87.713	800.000	-0.113	-0.355
-86.699	115.042	-0.530	0.636
-85.684	198.883	-0.218	0.328
-84.670	-149.811	-0.361	0.028
-83.655	-200.000	0.137	0.741
-82.640	-200.000	0.025	-0.493
-81.626	800.000	0.032	0.097
-80.611	-16.010	-0.328	-0.205
-79.597	-15.903	-0.777	0.486
-78.582	-97.098	-0.292	-0.075
-77.567	342.755	-0.197	0.380
-76.553	330.287	-0.104	0.196
-75.538	-41.485	0.003	-0.002
-74.524	21.581	-0.064	-0.051
-73.509	-25.127	0.375	-0.219
-72.494	-53.028	-0.367	0.166
-71.480	167.491	-0.212	-0.296
-70.465	800.000	-0.080	0.340
-69.451	300.389	0.192	-0.348
-68.436	630.272	-0.191	0.475
-67.422	358.356	-0.112	0.220
-66.407	-200.000	-0.001	-0.307
-65.392	61.482	0.296	-0.290
-64.378	14.945	0.057	0.044
-63.363	-47.084	0.387	0.186
-62.349	-112.737	0.540	-0.105
-61.334	-23.659	-1.388	-0.818
-60.319	800.000	-0.111	-0.390
-59.305	527.260	-0.366	-0.848
-58.290	-200.000	0.841	-0.004
-57.276	58.963	0.696	0.673
-56.261	-200.000	96.293	579.083
-55.246	665.246	1361.663	3454.239
-54.232	201.976	2534.765	3839.556
-53.217	112.839	2251.144	2679.077
-52.203	42.273	1883.461	1681.181
-51.188	36.311	1673.226	1448.880
-50.173	33.584	1629.656	1391.119
-49.159	51.770	1678.861	1568.885
-48.144	52.614	1695.425	1590.582
-47.130	35.742	1655.402	1428.988
-46.115	33.016	1640.857	1396.267
-45.100	32.729	1636.813	1390.654
-44.086	32.899	1632.627	1388.287
-43.071	32.789	1630.749	1385.829
-42.057	32.673	1629.131	1383.551
-41.042	33.059	1625.084	1382.883
-40.027	33.102	1623.508	1381.799
-39.013	32.809	1622.203	1378.497
-37.998	32.724	1621.867	1377.532
-36.984	33.060	1619.189	1377.653
-35.969	32.978	1617.898	1375.907
-34.954	32.981	1616.445	1374.635
-33.940	32.970	1614.563	1372.897
-32.925	33.025	1612.946	1371.867
-31.911	33.054	1610.704	1370.122
-30.896	33.016	1609.652	1368.892
-29.881	32.755	1609.459	1366.786
-28.867	32.820	1606.550	1364.734
-27.852	32.929	1605.320	1364.416
-26.838	32.907	1604.423	1363.447
-25.823	33.256	1600.587	1362.647
-24.809	32.862	1600.893	1360.015
-23.794	32.760	1600.232	1358.663
-22.779	32.878	1597.038	1356.744
-21.765	32.790	1595.774	1354.983
-20.750	32.995	1594.382	1355.218
-19.736	33.117	1591.890	1353.918
-18.721	32.940	1591.588	1352.343
-17.706	33.133	1590.479	1352.728
-16.692	33.030	1588.460	1350.219
-15.677	32.903	1587.453	1348.404
-14.663	33.121	1585.331	1348.104
-13.648	33.089	1584.653	1347.246
-12.633	33.082	1583.141	1345.856
-11.619	32.815	1581.352	1342.385
-10.604	32.974	1580.433	1342.681
-9.590	32.889	1578.767	1340.605
-8.575	33.045	1577.021	1340.176
-7.560	32.702	1577.383	1337.999
-6.546	32.850	1574.483	1336.537
-5.531	32.849	1574.304	1336.325
-4.517	32.879	1573.475	1335.780
-3.502	33.023	1571.943	1335.440
-2.487	33.147	1570.245	1334.822
-1.473	32.568	1557.938	1320.252
-0.458	29.670	1538.308	1283.470
0.556	27.067	1539.475	1252.120
1.571	24.733	1561.202	1253.347
2.586	24.241	1573.096	1259.304
3.600	21.400	1521.675	1198.589
4.615	12.216	1413.065	1054.206
5.629	4.258	1347.140	956.037
6.644	2.983	1339.841	942.950
7.659	3.023	1337.221	941.265
8.673	2.870	1337.759	940.627
9.688	3.004	1334.375	938.981
10.702	2.775	1332.375	936.093
11.717	6.254	1339.375	962.236
12.731	15.730	1356.762	1033.105
13.746	23.237	1368.255	1088.092
14.761	24.870	1369.613	1099.111
15.775	24.972	1369.345	1099.427
16.790	24.965	1368.619	1098.702
17.804	24.945	1368.016	1097.998
18.819	25.471	1367.147	1100.429
19.834	25.136	1367.582	1098.629
20.848	25.177	1366.252	1097.710
21.863	25.469	1365.977	1099.181
22.877	25.336	1365.209	1097.651
23.892	25.254	1365.126	1096.983
24.907	25.114	1363.699	1094.890
25.921	25.365	1362.055	1095.002
26.936	25.461	1361.007	1094.645
27.950	25.390	1359.823	1093.165
28.965	25.461	1357.959	1092.000
29.980	25.180	1358.262	1090.443
30.994	25.258	1357.814	1090.456
32.009	25.333	1356.863	1090.055
33.023	25.514	1354.711	1089.324
34.038	25.460	1353.483	1087.917
35.053	25.534	1353.165	1088.013
36.067	25.239	1353.059	1086.047
37.082	25.242	1351.552	1084.755
38.096	25.526	1350.229	1085.316
39.111	25.583	1348.819	1084.427
40.126	25.203	1349.513	1082.595
41.140	25.377	1348.197	1082.493
42.155	25.301	1348.475	1082.166
43.169	25.065	1348.697	1080.825
44.184	25.508	1347.763	1082.645
45.199	25.289	1348.105	1081.509
46.213	25.349	1347.074	1080.946
47.228	25.466	1345.288	1080.122
48.242	25.429	1344.191	1078.924
49.257	25.472	1343.360	1078.416
50.271	25.171	1342.589	1075.896
51.286	25.463	1341.165	1076.408
52.301	25.201	1339.473	1073.387
53.315	25.024	1340.563	1073.110
54.330	25.434	1337.716	1073.182
55.344	25.439	1336.490	1072.136
56.359	25.495	1336.437	1072.331
57.374	25.169	1335.527	1069.565
58.388	25.319	1334.438	1069.489
59.403	25.570	1333.976	1070.522
60.417	25.398	1333.454	1068.983
61.432	25.367	1333.014	1068.349
62.447	25.310	1332.617	1067.601
63.461	25.481	1331.117	1067.316
64.476	25.373	1330.840	1066.360
65.490	25.304	1329.890	1065.096
66.505	25.539	1327.493	1064.474
67.520	25.451	1325.872	1062.559
68.534	25.431	1325.639	1062.161
69.549	25.307	1324.746	1060.618
70.563	25.566	1323.688	1061.206
71.578	25.451	1323.283	1060.110
72.593	25.484	1321.771	1058.997
73.607	25.370	1321.175	1057.754
74.622	25.247	1321.088	1056.869
75.636	25.598	1320.374	1058.266
76.651	25.508	1318.803	1056.385
77.666	25.492	1318.241	1055.747
78.680	25.659	1317.594	1056.121
79.695	25.562	1317.544	1055.416
80.709	25.658	1316.737	1055.239
81.724	25.383	1315.815	1052.797
82.739	25.440	1315.761	1052.990
83.753	25.566	1314.484	1052.617
84.768	25.581	1314.269	1052.439
85.782	25.456	1312.444	1050.152
86.797	25.631	1311.262	1050.137
87.812	25.440	1310.058	1047.967
88.826	25.676	1308.417	1047.936
89.841	25.432	1308.184	1046.234
90.855	25.441	1308.107	1046.129
91.870	25.561	1306.311	1045.303
92.884	25.574	1306.299	1045.275
93.899	25.464	1304.886	1043.411
94.914	25.428	1304.680	1042.945
95.928	25.541	1303.698	1042.727
96.943	25.449	1302.785	1041.369
97.957	25.412	1301.887	1040.346
98.972	25.670	1301.264	1041.250
99.987	25.638	1299.863	1039.852
101.001	25.277	1300.579	1038.241
102.016	25.398	1298.050	1036.829
103.030	25.532	1297.619	1037.166
104.045	25.481	1296.379	1035.788
105.060	25.720	1295.807	1036.616
106.074	25.338	1295.537	1034.110
107.089	25.435	1293.573	1033.007
108.103	25.537	1292.695	1032.805
109.118	25.232	1292.700	1030.961
110.133	25.570	1290.422	1030.993
111.147	25.734	1289.661	1031.235
112.162	25.805	1287.535	1029.849
113.176	25.674	1287.976	1029.362
114.191	25.604	1285.858	1027.178
115.206	25.496	1284.638	1025.498
116.220	25.522	1284.343	1025.316
117.235	25.233	1283.576	1022.966
118.249	25.374	1281.779	1022.245
119.264	25.580	1280.389	1022.220
120.279	25.607	1280.251	1022.173
121.293	25.397	1280.424	1021.024
122.308	25.395	1279.402	1020.109
123.322	25.587	1278.182	1020.137
124.337	25.614	1277.832	1019.916
125.352	25.769	1276.592	1019.719
126.366	25.619	1276.792	1018.937
127.381	25.366	1275.584	1016.453
128.395	25.462	1274.416	1015.974
129.410	25.568	1273.546	1015.789
130.424	25.271	1272.667	1013.321
131.439	25.550	1270.340	1012.948
132.454	25.548	1269.831	1012.445
133.468	25.468	1270.376	1012.336
134.483	25.455	1270.307	1012.121
135.497	25.604	1269.851	1012.505
136.512	25.458	1268.130	1010.221
137.527	25.509	1267.295	1009.756
138.541	25.488	1266.782	1009.139
139.556	25.673	1264.329	1008.134
140.570	25.497	1263.711	1006.565
141.585	25.471	1262.634	1005.471
142.600	25.359	1261.792	1004.088
143.614	25.943	1260.124	1005.929
144.629	25.705	1260.496	1004.810
145.643	25.562	1258.769	1002.545
146.658	25.403	1257.401	1000.481
147.673	25.454	1256.052	999.608
148.687	25.584	1256.376	1000.496
149.702	25.642	1254.628	999.342
150.716	25.322	1253.170	996.316
151.731	25.305	1251.843	995.078
152.746	25.354	1251.800	995.227
153.760	25.520	1251.211	995.592
154.775	25.737	1249.174	995.078
155.789	25.743	1249.161	995.017
156.804	25.511	1247.628	992.423
157.819	25.123	1247.144	989.811
158.833	25.220	1246.780	989.968
159.848	25.649	1246.001	991.626
160.862	25.720	1244.205	990.503
161.877	25.646	1244.309	990.091
162.892	25.714	1242.401	988.856
163.906	25.786	1242.231	989.031
164.921	25.748	1240.985	987.744
165.935	25.630	1240.532	986.645
166.950	25.665	1239.886	986.241
167.964	25.513	1240.298	985.642
168.979	25.909	1238.738	986.488
169.994	25.679	1238.494	984.946
171.008	25.800	1237.088	984.402
172.023	25.640	1237.321	983.624
173.037	25.810	1236.078	983.476
174.052	25.785	1235.642	982.906
175.067	25.572	1234.583	980.818
176.081	25.578	1232.516	979.122
177.096	25.459	1233.440	979.122
178.110	25.446	1232.996	978.611
179.125	25.696	1231.030	978.321
180.140	25.678	1229.177	976.667
181.154	25.715	1228.372	976.139
182.169	25.689	1228.101	975.697
183.183	25.581	1226.450	973.713
184.198	25.645	1226.195	973.773
185.213	26.002	1223.805	973.719
186.227	25.943	1224.324	973.724
187.242	25.940	1222.774	972.386
188.256	25.837	1222.311	971.382
189.271	26.003	1220.918	971.084
190.286	25.674	1220.565	968.943
191.300	25.792	1220.061	969.093
192.315	25.430	1220.481	967.392
193.329	25.702	1219.165	967.727
194.344	26.125	1217.350	968.468
195.359	25.729	1217.658	966.503
196.373	25.469	1216.577	964.163
197.388	25.443	1215.791	963.317
198.402	25.488	1216.658	964.161
199.417	25.673	1215.967	964.517
200.432	25.906	1214.634	964.624
201.446	25.742	1214.613	963.645
202.461	25.557	1213.715	961.854
203.475	25.452	1213.356	960.927
204.490	25.526	1212.112	960.253
205.504	25.572	1210.678	959.274
206.519	25.515	1209.805	958.193
207.534	25.246	1209.247	956.235
208.548	25.418	1208.596	956.550
209.563	25.577	1206.532	955.680
210.577	25.138	1206.359	953.125
211.592	25.283	1206.334	953.789
212.607	25.658	1205.102	954.723
213.621	25.867	1204.068	954.923
214.636	25.592	1203.450	952.896
215.650	25.784	1202.948	953.426
216.665	25.497	1201.689	950.831
217.680	25.493	1201.022	950.193
218.694	25.641	1200.016	950.097
219.709	25.662	1198.713	949.092
220.723	25.717	1198.313	948.983
221.738	25.664	1197.765	948.186
222.753	25.528	1196.656	946.504
223.767	25.748	1195.022	946.288
224.782	25.495	1196.773	946.255
225.796	25.711	1196.165	946.832
226.811	25.678	1195.130	945.751
227.826	25.352	1195.667	944.379
228.840	25.533	1193.599	943.613
229.855	25.700	1191.981	943.124
230.869	25.432	1192.160	941.780
231.884	25.677	1190.849	941.942
232.899	25.312	1190.861	939.955
233.913	25.332	1190.383	939.602
234.928	25.661	1189.339	940.416
235.942	25.524	1188.876	939.251
236.957	25.282	1187.505	936.824
237.972	25.437	1186.541	936.787
238.986	25.213	1187.184	936.042
240.001	25.368	1185.821	935.690
241.015	25.588	1185.025	936.127
242.030	25.700	1184.024	935.834
243.045	25.652	1183.682	935.231
244.059	25.648	1182.658	934.318
245.074	25.831	1182.869	935.356
246.088	25.646	1183.188	934.563
247.103	25.545	1182.164	933.149
248.117	25.762	1180.178	932.621
249.132	25.897	1179.241	932.496
250.147	26.200	1178.860	933.681
251.161	25.966	1178.275	931.924
252.176	26.137	1177.200	931.877
253.190	25.903	1177.095	930.501
254.205	25.913	1176.692	930.154
255.220	26.562	1174.897	931.996
256.234	26.196	1175.257	930.310
257.249	25.912	1174.778	928.388
258.263	26.010	1173.420	927.733
259.278	25.978	1173.620	927.647
260.293	25.831	1173.044	926.356
261.307	26.207	1172.290	927.611
262.322	26.331	1172.365	928.221
263.336	26.210	1170.555	926.087
264.351	26.007	1169.926	924.468
265.366	25.978	1169.722	924.076
266.380	26.314	1169.013	925.153
267.395	26.299	1168.520	924.603
268.409	26.210	1167.521	923.279
269.424	26.004	1168.154	922.641
270.439	26.101	1166.573	921.808
271.453	26.121	1165.451	920.942
272.468	25.944	1164.893	919.516
273.482	25.983	1164.099	919.009
274.497	25.906	1163.644	918.175
275.512	25.911	1163.255	917.810
276.526	25.826	1162.637	916.809
277.541	26.012	1161.638	916.887
278.555	26.032	1160.789	916.239
279.570	26.045	1160.668	916.128
280.585	26.278	1159.764	916.515
281.599	26.028	1158.615	914.256
282.614	25.869	1157.634	912.597
283.628	25.993	1156.702	912.410
284.643	26.112	1156.237	912.564
285.657	26.091	1154.909	911.332
286.672	26.017	1154.113	910.250
287.687	26.026	1152.528	908.963
288.701	26.104	1152.401	909.174
289.716	26.226	1151.768	909.209
290.730	26.081	1152.350	908.858
291.745	26.463	1150.358	909.128
292.760	26.096	1149.345	906.402
293.774	26.130	1148.539	905.858
294.789	26.597	1148.810	908.336
295.803	26.139	1148.790	905.942
296.818	26.293	1146.582	904.891
297.833	26.250	1146.748	904.727
298.847	25.986	1146.556	903.173
299.862	25.914	1146.406	902.613
300.876	26.004	1144.878	901.781
301.891	26.040	1145.009	901.986
302.906	26.083	1144.289	901.549
303.920	26.506	1143.544	902.998
304.935	26.338	1142.913	901.579
305.949	26.300	1142.333	900.854
306.964	26.367	1140.928	899.998
307.979	26.224	1140.514	898.883
308.993	25.981	1140.573	897.639
310.008	26.166	1138.169	896.587
311.022	26.205	1138.138	896.677
312.037	26.244	1137.500	896.286
313.052	26.100	1137.164	895.229
314.066	26.050	1135.947	893.943
315.081	25.871	1134.835	892.105
316.095	25.858	1134.649	891.816
317.110	25.971	1134.475	892.160
318.125	25.868	1133.472	890.781
319.139	26.245	1131.287	890.843
320.154	26.287	1130.358	890.242
321.168	26.077	1131.274	889.850
322.183	26.018	1131.130	889.368
323.197	26.149	1130.544	889.469
324.212	25.828	1130.013	887.392
325.227	26.230	1128.984	888.484
326.241	26.289	1128.523	888.333
327.256	25.873	1128.394	886.111
328.270	26.070	1127.196	886.055
329.285	26.006	1126.127	884.826
330.300	26.098	1124.827	884.177
331.314	25.899	1125.470	883.626
332.329	26.261	1123.331	883.642
333.343	26.353	1122.760	883.561
334.358	26.372	1121.937	882.930
335.373	26.184	1122.529	882.399
336.387	26.306	1120.979	881.697
337.402	26.074	1120.720	880.284
338.416	26.235	1119.887	880.334
339.431	26.475	1118.807	880.576
340.446	26.684	1118.259	881.084
341.460	26.424	1118.059	879.585
342.475	26.529	1117.378	879.482
343.489	26.639	1116.259	879.059
344.504	26.459	1115.813	877.754
345.519	26.505	1114.655	876.990
346.533	26.534	1112.797	875.591
347.548	26.540	1113.109	875.789
348.562	26.410	1113.157	875.120
349.577	26.287	1112.566	873.981
350.592	26.498	1110.580	873.361
351.606	26.242	1109.782	871.424
352.621	26.464	1109.319	872.053
353.635	26.353	1107.380	869.916
354.650	25.942	1108.170	868.483
355.665	25.827	1107.602	867.406
356.679	26.341	1106.772	869.151
357.694	26.643	1105.469	869.501
358.708	26.467	1105.592	868.674
359.723	26.440	1104.903	867.926
360.738	26.152	1105.665	867.067
361.752	26.343	1104.422	866.930
362.767	26.297	1103.326	865.774
363.781	26.300	1103.181	865.597
364.796	26.252	1102.397	864.677
365.810	26.490	1102.139	865.539
366.825	26.841	1101.342	866.509
367.840	26.925	1100.039	865.810
368.854	26.803	1100.700	865.670
369.869	26.804	1098.523	863.886
370.883	26.194	1098.385	860.795
371.898	26.674	1097.685	862.459
372.913	26.463	1097.212	861.004
373.927	26.486	1096.914	860.802
374.942	26.533	1097.683	861.555
375.956	26.317	1096.492	859.516
376.971	26.289	1095.620	858.623
377.986	26.593	1094.817	859.361
379.000	26.956	1094.590	860.827
380.015	26.691	1093.152	858.370
381.029	26.516	1093.033	857.369
382.044	26.780	1091.825	857.596
383.059	26.720	1090.775	856.413
384.073	26.657	1090.085	855.495
385.088	26.881	1089.276	855.842
386.102	26.674	1089.198	854.727
387.117	26.552	1087.755	852.948
388.132	26.794	1086.535	853.050
389.146	26.611	1086.811	852.333
390.161	26.456	1085.757	850.702
391.175	26.469	1084.709	849.865
392.190	26.520	1083.555	849.126
393.205	26.903	1082.785	850.242
394.219	26.736	1082.473	849.138
395.234	26.597	1081.995	848.037
396.248	26.559	1080.235	846.406
397.263	26.535	1079.558	845.687
398.278	26.698	1077.732	844.946
399.292	26.621	1079.241	845.694
400.307	26.706	1078.117	845.134
401.321	26.481	1077.883	843.826
402.336	26.183	1077.350	841.946
403.350	26.307	1076.176	841.529
404.365	26.544	1075.891	842.337
405.380	26.517	1074.754	841.245
406.394	26.327	1073.938	839.649
407.409	26.612	1073.164	840.292
408.423	27.102	1071.753	841.386
409.438	26.654	1072.484	839.806
410.453	26.968	1071.125	840.123
411.467	26.835	1070.612	839.031
412.482	26.492	1070.811	837.523
413.496	26.655	1070.090	837.641
414.511	26.714	1069.588	837.445
415.526	26.900	1068.441	837.334
416.540	26.690	1068.145	836.058
417.555	26.917	1067.139	836.244
418.569	26.768	1067.443	835.719
419.584	26.793	1066.905	835.339
420.599	26.882	1065.472	834.555
421.613	152.687	1404.478	1793.035
422.628	140.473	1453.832	1793.101
