DTS Sentinel unit serial number:	SN413079Multiplexer serial number:	ORYXHardware model number:	OX4-SRSoftware version number:	ORYX F/W v4.00 Oryx Data Collector v3.7.2.0data status	okinstallation	princeton_trtdifferential loss correction	single-endedforward channel	channel 2reverse channel	N/Adate	2019/09/14time	15:23:35forward acquisition time	60.00reverse acquisition time	0.00gamma	496.2192k internal	0.2303k external	0.2303temperature offset calibration	1.0146default loss term (dB/km)	0.3790temperature slope calibration	1.0000multiplexer offset coefficient	1.0000multiplexer slope coefficient	1.0000fibre end	0.00T internal ref (°C)	39.02T ext. ref 1 (°C)	5.11T ext. ref 2 (°C)	33.64length (m)	temperature (°C)	Stokes	anti-Stokes-747.200	-200.000	0.034	-0.295
-746.185	350.598	0.149	0.300
-745.171	-200.000	-0.008	0.120
-744.156	-200.000	-0.055	0.394
-743.142	-154.043	0.397	0.027
-742.127	557.546	-0.052	0.129
-741.112	800.000	-0.072	-0.224
-740.098	565.573	-0.145	-0.359
-739.083	-43.031	0.174	-0.090
-738.069	-200.000	0.026	0.341
-737.054	54.119	0.216	0.211
-736.039	62.482	-0.139	0.141
-735.025	-94.237	-0.176	-0.049
-734.010	13.710	-0.100	0.079
-732.996	-119.369	0.342	-0.061
-731.981	196.968	-0.069	-0.107
-730.966	-74.311	0.212	0.078
-729.952	800.000	-0.053	-0.211
-728.937	229.790	-0.143	-0.239
-727.923	37.721	-0.167	0.151
-726.908	-101.780	0.123	-0.030
-725.894	-5.710	-0.113	0.079
-724.879	203.176	0.182	-0.287
-723.864	-200.000	-0.022	0.177
-722.850	678.625	0.100	-0.264
-721.835	800.000	0.027	-0.102
-720.821	-148.377	0.239	-0.020
-719.806	187.913	-0.250	-0.381
-718.791	195.501	-0.153	-0.237
-717.777	-43.143	0.145	-0.075
-716.762	168.826	0.083	-0.120
-715.748	-102.918	0.276	-0.067
-714.733	1.042	0.077	-0.056
-713.718	15.356	0.105	0.084
-712.704	-47.405	0.338	-0.167
-711.689	76.174	-0.131	-0.141
-710.675	800.000	0.051	-0.205
-709.660	-200.000	-0.036	0.220
-708.645	198.181	0.151	-0.235
-707.631	-132.464	0.313	0.041
-706.616	-86.560	0.362	-0.113
-705.602	-27.664	0.250	0.148
-704.587	181.976	0.109	0.163
-703.572	-72.046	0.031	0.012
-702.558	-66.442	-0.076	0.031
-701.543	-139.200	0.192	-0.021
-700.529	-30.783	0.298	-0.171
-699.514	82.724	-0.088	0.097
-698.499	31.614	-0.300	-0.262
-697.485	131.913	-0.190	0.248
-696.470	75.602	-0.091	-0.098
-695.456	-35.008	-0.244	0.135
-694.441	-80.840	-0.157	-0.053
-693.426	68.888	0.114	0.119
-692.412	51.354	-0.118	-0.114
-691.397	-101.758	-0.261	0.064
-690.383	-162.334	0.165	0.008
-689.368	15.286	0.191	-0.152
-688.354	138.092	-0.110	0.146
-687.339	42.918	-0.088	0.082
-686.324	89.671	-0.167	0.189
-685.310	495.362	0.019	-0.044
-684.295	-53.798	0.037	-0.017
-683.281	-200.000	-0.004	0.023
-682.266	800.000	-0.137	0.428
-681.251	-80.474	-0.269	0.091
-680.237	-200.000	0.002	-0.576
-679.222	-200.000	-0.024	-0.204
-678.208	-3.097	0.118	-0.084
-677.193	-200.000	0.077	-0.371
-676.178	12.424	-0.220	-0.172
-675.164	-0.786	0.038	-0.028
-674.149	-67.729	-0.190	-0.076
-673.135	-134.887	-0.167	-0.021
-672.120	-200.000	-0.002	-0.029
-671.105	-200.000	-0.033	-0.183
-670.091	-200.000	0.002	0.009
-669.076	-186.102	-0.327	-0.005
-668.062	-122.995	0.335	0.055
-667.047	161.118	0.141	0.200
-666.032	-55.091	-0.071	0.032
-665.018	207.407	-0.052	0.083
-664.003	-99.457	-0.221	0.056
-662.989	33.383	0.085	0.075
-661.974	484.713	0.119	-0.275
-660.959	-148.632	0.082	-0.007
-659.945	-79.319	-0.187	-0.064
-658.930	216.048	-0.013	0.021
-657.916	-200.000	0.008	-0.169
-656.901	324.190	0.162	-0.315
-655.886	-160.282	0.378	-0.021
-654.872	151.598	0.162	0.224
-653.857	-10.682	-0.061	0.041
-652.843	39.259	0.300	0.272
-651.828	137.598	-0.117	-0.156
-650.814	-200.000	0.017	-0.106
-649.799	-200.000	-0.058	-0.319
-648.784	-110.198	0.196	0.041
-647.770	-99.853	-0.102	0.026
-646.755	443.570	-0.077	0.171
-645.741	77.199	0.144	0.155
-644.726	800.000	0.010	0.040
-643.711	800.000	0.102	0.289
-642.697	18.216	0.297	-0.241
-641.682	-200.000	0.032	0.288
-640.668	-32.736	0.260	-0.147
-639.653	76.756	0.062	-0.067
-638.638	55.821	-0.154	-0.152
-637.624	266.715	-0.029	0.051
-636.609	104.244	-0.282	-0.336
-635.595	759.587	-0.002	0.004
-634.580	295.846	-0.105	-0.194
-633.565	-15.366	-0.371	-0.241
-632.551	-133.261	0.204	0.026
-631.536	800.000	-0.047	-0.201
-630.522	294.553	-0.195	-0.362
-629.507	185.668	-0.063	-0.095
-628.492	800.000	0.076	0.224
-627.478	-200.000	-0.008	0.104
-626.463	-149.364	0.215	-0.017
-625.449	-200.000	-0.044	0.225
-624.434	-157.377	-0.170	0.010
-623.419	7.899	-0.075	-0.057
-622.405	36.938	-0.211	-0.189
-621.390	-7.344	0.262	-0.180
-620.376	-108.194	0.275	0.060
-619.361	264.777	-0.070	0.123
-618.346	-60.287	-0.154	0.066
-617.332	-85.437	0.136	0.043
-616.317	-200.000	-0.021	-0.180
-615.303	271.039	0.135	0.241
-614.288	-200.000	0.018	0.116
-613.273	-90.651	0.048	-0.014
-612.259	-200.000	0.002	0.032
-611.244	-116.401	-0.429	-0.080
-610.230	-200.000	-0.039	-0.294
-609.215	40.100	0.148	-0.135
-608.201	-105.198	-0.366	0.085
-607.186	-111.208	-0.137	0.028
-606.171	-184.124	-0.227	-0.004
-605.157	-90.111	-0.345	0.102
-604.142	-31.089	-0.140	0.080
-603.128	800.000	0.097	0.341
-602.113	8.013	-0.117	-0.089
-601.098	800.000	-0.188	-0.604
-600.084	-112.782	-0.114	-0.023
-599.069	800.000	0.012	0.053
-598.055	112.480	0.138	-0.169
-597.040	-200.000	-0.011	0.142
-596.025	-200.000	0.016	0.192
-595.011	-200.000	0.053	-0.414
-593.996	180.263	-0.025	-0.038
-592.982	-170.372	0.417	-0.015
-591.967	33.367	0.368	-0.324
-590.952	-154.408	0.233	-0.016
-589.938	-130.182	0.095	0.013
-588.923	800.000	-0.042	0.122
-587.909	629.472	0.050	-0.129
-586.894	-104.029	0.171	0.040
-585.879	-200.000	0.008	0.146
-584.865	12.779	-0.266	0.208
-583.850	163.640	-0.018	0.026
-582.836	-97.579	-0.432	0.114
-581.821	800.000	-0.032	0.096
-580.806	-200.000	0.060	0.346
-579.792	-200.000	0.029	0.201
-578.777	-149.413	0.035	0.003
-577.763	800.000	-0.023	0.095
-576.748	170.459	-0.128	0.186
-575.733	6.481	0.353	0.266
-574.719	152.925	-0.038	0.052
-573.704	-143.965	-0.208	-0.020
-572.690	-122.041	-0.111	0.018
-571.675	-200.000	-0.017	-0.152
-570.661	-151.824	-0.374	0.028
-569.646	-74.363	-0.279	0.102
-568.631	800.000	0.013	0.041
-567.617	69.098	-0.059	-0.062
-566.602	-96.900	-0.210	0.056
-565.588	71.476	0.212	0.223
-564.573	78.180	0.368	0.397
-563.558	-108.268	0.320	0.070
-562.544	28.036	0.111	0.094
-561.529	-121.228	0.419	-0.071
-560.515	-200.000	0.028	-0.303
-559.500	-23.330	-0.375	-0.228
-558.485	493.941	0.077	-0.180
-557.471	19.324	-0.235	0.191
-556.456	-82.695	0.141	0.046
-555.442	0.087	0.234	0.169
-554.427	-63.562	0.138	0.057
-553.412	800.000	0.111	-0.339
-552.398	-27.093	0.029	0.017
-551.383	-200.000	-0.033	-0.197
-550.369	322.741	0.060	-0.115
-549.354	516.405	-0.052	-0.124
-548.339	-141.886	-0.426	0.043
-547.325	257.675	0.134	-0.233
-546.310	26.245	-0.100	-0.084
-545.296	48.796	0.183	0.174
-544.281	114.062	0.177	-0.218
-543.266	260.224	-0.104	-0.181
-542.252	800.000	-0.058	-0.180
-541.237	519.092	-0.057	-0.136
-540.223	114.656	-0.137	-0.168
-539.208	-200.000	0.008	-0.214
-538.193	-60.630	0.216	-0.093
-537.179	-63.744	-0.196	0.081
-536.164	-200.000	-0.001	0.224
-535.150	755.423	-0.074	0.203
-534.135	-2.279	0.284	-0.201
-533.121	-194.932	0.016	-0.000
-532.106	-155.510	-0.103	0.007
-531.091	-136.993	-0.196	0.023
-530.077	-154.386	0.245	0.017
-529.062	-61.917	-0.149	-0.063
-528.048	1.348	-0.228	-0.166
-527.033	-200.000	0.003	0.097
-526.018	-17.054	0.231	0.147
-525.004	-1.531	0.137	-0.098
-523.989	-200.000	-0.062	-0.309
-522.975	-158.845	-0.080	0.005
-521.960	22.362	-0.051	-0.042
-520.945	175.851	0.163	0.239
-519.931	215.442	-0.136	-0.219
-518.916	-5.543	0.173	-0.120
-517.902	800.000	0.140	0.444
-516.887	-113.768	-0.184	-0.036
-515.872	-70.446	0.062	-0.024
-514.858	113.701	0.196	0.240
-513.843	-200.000	0.020	0.096
-512.829	510.604	0.099	0.233
-511.814	-8.141	0.162	0.111
-510.799	-9.858	-0.190	0.128
-509.785	800.000	-0.050	0.193
-508.770	-97.131	-0.219	0.058
-507.756	-28.890	0.117	0.068
-506.741	40.539	0.158	0.144
-505.726	-46.103	0.452	0.225
-504.712	-200.000	-0.029	0.220
-503.697	475.970	-0.159	-0.363
-502.683	-61.838	-0.271	0.115
-501.668	112.784	0.157	-0.192
-500.653	125.593	0.112	0.143
-499.639	-85.458	-0.176	-0.055
-498.624	-50.910	0.102	0.049
-497.610	36.578	-0.211	-0.188
-496.595	-85.495	0.161	0.051
-495.581	-200.000	0.000	0.031
-494.566	122.172	-0.050	0.063
-493.551	-180.937	0.341	-0.007
-492.537	62.242	-0.118	0.118
-491.522	439.443	-0.084	-0.186
-490.508	-200.000	-0.073	-0.338
-489.493	-127.885	-0.295	0.043
-488.478	106.906	-0.068	0.082
-487.464	18.428	-0.198	-0.160
-486.449	-200.000	-0.031	-0.337
-485.435	-200.000	-0.019	-0.456
-484.420	89.034	0.211	0.237
-483.405	4.757	0.206	-0.153
-482.391	-125.367	-0.240	0.037
-481.376	-26.333	0.047	0.028
-480.362	176.490	-0.172	0.252
-479.347	-200.000	-0.002	0.384
-478.332	71.460	-0.204	0.214
-477.318	107.068	0.127	-0.152
-476.303	606.287	0.018	-0.046
-475.289	-200.000	-0.210	0.000
-474.274	51.380	0.149	0.143
-473.259	-54.014	0.144	-0.066
-472.245	-57.575	0.094	-0.041
-471.230	24.458	-0.156	-0.130
-470.216	710.605	-0.176	0.471
-469.201	-200.000	0.003	0.206
-468.186	-156.386	0.188	-0.012
-467.172	78.188	-0.155	0.167
-466.157	-55.351	0.224	0.101
-465.143	122.699	0.176	0.222
-464.128	800.000	-0.067	-0.219
-463.113	8.688	-0.428	0.325
-462.099	45.402	-0.202	0.188
-461.084	122.618	0.182	0.229
-460.070	104.800	-0.041	-0.049
-459.055	8.382	-0.069	0.052
-458.040	-200.000	-0.000	0.267
-457.026	-157.723	-0.186	0.011
-456.011	-200.000	0.345	0.001
-454.997	458.951	-0.174	0.390
-453.982	-18.435	-0.178	-0.112
-452.968	-200.000	-0.025	-0.369
-451.953	-200.000	-0.030	0.188
-450.938	15.787	-0.081	0.064
-449.924	-52.833	-0.164	0.076
-448.909	10.860	-0.162	0.125
-447.895	83.363	0.223	0.245
-446.880	72.329	-0.120	0.126
-445.865	211.220	0.106	-0.168
-444.851	149.370	0.105	0.143
-443.836	-45.877	0.336	-0.167
-442.822	269.673	0.105	-0.185
-441.807	-200.000	-0.018	0.332
-440.792	362.634	0.096	0.194
-439.778	-99.589	0.288	-0.073
-438.763	-200.000	0.016	0.145
-437.749	564.765	0.048	-0.117
-436.734	75.781	0.135	-0.144
-435.719	-90.929	-0.193	0.056
-434.705	-200.000	0.029	-0.155
-433.690	-200.000	-0.028	0.152
-432.676	-55.405	0.102	0.046
-431.661	386.562	-0.138	-0.287
-430.646	-88.076	-0.047	0.014
-429.632	-200.000	0.010	-0.133
-428.617	69.963	-0.070	0.072
-427.603	66.519	-0.086	0.088
-426.588	-200.000	0.071	-0.352
-425.573	-200.000	0.050	-0.277
-424.559	-200.000	-0.016	-0.258
-423.544	184.138	0.047	-0.069
-422.530	800.000	-0.055	-0.184
-421.515	-22.530	0.281	0.171
-420.500	-127.140	-0.206	-0.030
-419.486	101.202	0.305	-0.357
-418.471	-34.698	0.093	0.051
-417.457	-148.537	0.151	-0.012
-416.442	-56.247	0.150	0.067
-415.428	-200.000	0.003	-0.226
-414.413	-50.270	-0.117	-0.056
-413.398	170.353	0.052	-0.075
-412.384	71.405	-0.277	0.290
-411.369	-28.660	-0.268	0.155
-410.355	429.302	0.087	0.189
-409.340	609.028	-0.088	-0.221
-408.325	-68.446	-0.324	-0.126
-407.311	22.928	-0.205	0.169
-406.296	800.000	-0.139	0.446
-405.282	-142.128	-0.572	-0.057
-404.267	-108.678	0.073	-0.016
-403.252	-200.000	0.017	0.397
-402.238	-200.000	0.089	0.430
-401.223	603.441	0.008	-0.019
-400.209	-55.569	0.082	0.037
-399.194	-99.565	0.148	-0.037
-398.179	-0.538	0.208	-0.149
-397.165	24.865	0.146	-0.122
-396.150	24.189	-0.180	0.149
-395.136	-99.122	0.422	0.107
-394.121	-200.000	-0.037	-0.178
-393.106	122.009	-0.183	-0.230
-392.092	487.787	0.088	-0.202
-391.077	-80.953	0.235	0.078
-390.063	-61.605	-0.072	0.030
-389.048	213.040	0.126	-0.200
-388.033	800.000	-0.125	-0.398
-387.019	-186.651	-0.221	0.003
-386.004	497.326	0.047	0.109
-384.990	122.315	-0.061	0.076
-383.975	-62.115	0.101	0.042
-382.960	-64.214	-0.367	0.150
-381.946	-200.000	-0.011	0.056
-380.931	111.207	0.210	0.254
-379.917	680.610	0.073	-0.191
-378.902	800.000	0.016	0.051
-377.888	-168.791	-0.250	-0.009
-376.873	-15.470	0.238	-0.153
-375.858	-150.707	0.298	-0.023
-374.844	-99.457	-0.315	-0.080
-373.829	332.298	0.088	-0.172
-372.815	726.564	-0.114	-0.306
-371.800	-42.526	-0.175	-0.089
-370.785	-200.000	-0.013	0.170
-369.771	441.087	0.045	-0.099
-368.756	101.050	-0.192	-0.224
-367.742	-93.052	0.289	-0.081
-366.727	126.325	0.030	0.038
-365.712	-83.331	-0.395	-0.127
-364.698	-73.377	-0.106	0.039
-363.683	149.333	-0.144	-0.196
-362.669	87.328	0.119	-0.133
-361.654	-11.930	-0.097	-0.064
-360.639	-107.429	0.281	-0.062
-359.625	-65.343	0.201	-0.081
-358.610	50.264	-0.134	-0.127
-357.596	632.446	-0.098	-0.249
-356.581	800.000	0.132	-0.382
-355.566	-119.389	-0.470	0.082
-354.552	161.526	-0.138	0.194
-353.537	256.108	-0.066	0.114
-352.523	-200.000	0.038	0.287
-351.508	-104.521	-0.305	-0.071
-350.493	-60.001	-0.171	0.073
-349.479	254.032	-0.053	0.090
-348.464	-7.204	0.245	0.167
-347.450	-136.443	0.313	-0.036
-346.435	-141.676	-0.165	0.017
-345.420	600.510	0.078	-0.194
-344.406	-55.081	-0.165	-0.075
-343.391	800.000	-0.069	0.262
-342.377	9.165	0.011	0.008
-341.362	327.937	0.067	0.130
-340.348	164.273	-0.121	0.172
-339.333	478.722	0.071	0.161
-338.318	-156.048	0.070	-0.004
-337.304	-0.270	0.273	0.194
-336.289	-64.300	0.180	-0.073
-335.275	122.861	-0.209	-0.262
-334.260	800.000	-0.031	0.097
-333.245	169.792	0.125	-0.180
-332.231	-28.961	0.092	-0.053
-331.216	50.949	0.189	0.179
-330.202	49.277	-0.085	-0.080
-329.187	-174.462	-0.161	0.005
-328.172	-141.690	0.140	-0.014
-327.158	-53.395	0.124	0.057
-326.143	446.934	0.204	0.449
-325.129	-78.444	-0.228	0.078
-324.114	-110.458	0.454	0.094
-323.099	-19.662	0.142	-0.088
-322.085	-42.987	-0.365	0.186
-321.070	-133.390	0.103	0.013
-320.056	-17.991	0.150	0.094
-319.041	-46.103	-0.090	0.045
-318.026	-200.000	-0.065	0.362
-317.012	-92.384	-0.241	0.068
-315.997	-111.363	0.256	0.052
-314.983	-200.000	-0.025	0.187
-313.968	83.892	-0.071	-0.078
-312.953	-99.194	0.115	0.029
-311.939	14.917	0.134	0.105
-310.924	610.107	-0.127	0.317
-309.910	130.492	-0.071	-0.091
-308.895	-200.000	0.038	-0.202
-307.880	538.088	-0.126	0.301
-306.866	206.373	0.131	-0.204
-305.851	-18.337	-0.220	0.138
-304.837	-143.510	-0.306	-0.029
-303.822	-93.679	0.204	-0.056
-302.807	545.746	-0.056	0.133
-301.793	18.861	-0.122	0.098
-300.778	52.921	0.156	0.150
-299.764	28.762	-0.104	-0.089
-298.749	-200.000	0.040	0.401
-297.735	-153.779	-0.324	-0.022
-296.720	-130.159	0.265	-0.036
-295.705	76.770	0.150	0.160
-294.691	-1.398	-0.214	-0.151
-293.676	-156.893	0.177	0.011
-292.662	-107.006	0.152	0.034
-291.647	75.708	0.046	-0.048
-290.632	-200.000	0.042	0.271
-289.618	274.023	-0.094	-0.166
-288.603	639.898	-0.036	-0.091
-287.589	800.000	-0.127	-0.432
-286.574	141.742	0.089	0.118
-285.559	-9.978	0.250	-0.166
-284.545	800.000	-0.033	-0.124
-283.530	-200.000	-0.004	-0.122
-282.516	-200.000	-0.069	-0.324
-281.501	-200.000	-0.003	-0.224
-280.486	800.000	0.028	0.088
-279.472	648.319	-0.094	0.241
-278.457	250.155	0.158	-0.268
-277.443	78.152	-0.100	0.106
-276.428	-149.790	0.159	0.012
-275.413	800.000	0.074	0.323
-274.399	-2.289	0.395	-0.277
-273.384	-70.631	0.242	-0.092
-272.370	-85.552	-0.318	0.099
-271.355	310.246	0.031	-0.057
-270.340	-43.189	-0.059	0.030
-269.326	-22.889	-0.120	0.072
-268.311	-69.225	0.418	-0.161
-267.297	6.628	0.278	-0.207
-266.282	-108.963	0.076	-0.016
-265.267	-48.616	-0.285	0.137
-264.253	800.000	0.101	-0.337
-263.238	-24.751	0.279	-0.166
-262.224	-74.189	0.167	0.060
-261.209	133.596	-0.210	0.271
-260.195	-200.000	0.002	-0.017
-259.180	-54.268	-0.256	0.116
-258.165	-177.543	0.098	0.002
-257.151	800.000	0.071	-0.266
-256.136	-200.000	-0.004	-0.284
-255.122	137.871	-0.230	-0.301
-254.107	-200.000	0.010	0.295
-253.092	-21.535	0.063	-0.038
-252.078	188.509	-0.072	-0.107
-251.063	58.121	0.094	-0.092
-250.049	-71.424	0.288	-0.108
-249.034	-200.000	-0.003	0.368
-248.019	96.868	0.108	-0.124
-247.005	800.000	-0.062	0.186
-245.990	383.939	-0.041	0.084
-244.976	203.977	0.275	-0.426
-243.961	800.000	-0.020	0.060
-242.946	169.952	-0.059	0.085
-241.932	364.598	-0.125	0.252
-240.917	158.118	-0.172	-0.238
-239.903	219.680	0.122	0.195
-238.888	-109.368	-0.157	0.033
-237.873	-200.000	0.026	-0.200
-236.859	481.319	0.134	0.305
-235.844	-200.000	0.077	-0.426
-234.830	3.341	0.200	-0.145
-233.815	-200.000	0.008	-0.206
-232.800	-46.918	-0.300	0.147
-231.786	619.841	-0.084	-0.211
-230.771	-200.000	-0.016	0.254
-229.757	703.505	0.062	0.163
-228.742	302.393	0.131	-0.243
-227.727	460.698	-0.169	-0.375
-226.713	761.528	-0.129	-0.349
-225.698	-200.000	-0.021	-0.203
-224.684	-163.520	0.137	-0.007
-223.669	-32.510	0.133	0.074
-222.655	159.069	0.213	-0.296
-221.640	800.000	-0.038	-0.121
-220.625	-75.218	-0.328	-0.117
-219.611	-200.000	0.005	0.378
-218.596	25.062	0.123	0.101
-217.582	-200.000	0.004	-0.098
-216.567	-200.000	-0.004	-0.289
-215.552	25.869	0.218	0.182
-214.538	-200.000	-0.001	0.106
-213.523	236.064	-0.215	0.355
-212.509	-171.977	0.251	-0.008
-211.494	-45.931	0.311	0.153
-210.479	92.246	-0.101	-0.114
-209.465	-53.796	-0.122	-0.055
-208.450	51.396	-0.188	0.179
-207.436	-200.000	-0.028	0.218
-206.421	51.958	-0.249	-0.237
-205.406	119.416	0.150	-0.185
-204.392	8.436	0.190	0.143
-203.377	-200.000	0.024	-0.301
-202.363	19.321	-0.104	-0.083
-201.348	116.056	-0.135	-0.165
-200.333	2.368	-0.184	-0.133
-199.319	143.556	0.103	-0.137
-198.304	-93.504	-0.325	-0.090
-197.290	-200.000	0.004	-0.218
-196.275	-19.026	0.169	-0.105
-195.260	-200.000	0.004	0.188
-194.246	165.482	-0.132	-0.186
-193.231	-44.121	-0.205	-0.103
-192.217	43.769	-0.049	0.045
-191.202	-200.000	0.035	-0.277
-190.187	17.041	0.067	-0.053
-189.173	-170.085	-0.234	-0.008
-188.158	168.985	-0.084	-0.120
-187.144	-145.331	0.422	0.038
-186.129	-75.885	0.019	0.007
-185.114	-200.000	-0.003	-0.066
-184.100	24.587	0.113	0.093
-183.085	-153.539	0.028	-0.002
-182.071	-52.256	-0.111	-0.051
-181.056	132.454	-0.285	0.367
-180.042	-200.000	-0.005	0.040
-179.027	232.457	0.134	0.219
-178.012	-161.409	-0.145	0.007
-176.998	-200.000	0.026	0.268
-175.983	-29.107	0.199	-0.114
-174.969	-24.912	-0.124	-0.073
-173.954	27.500	0.307	-0.257
-172.939	-33.127	0.333	-0.184
-171.925	-200.000	-0.027	0.120
-170.910	257.596	-0.049	-0.083
-169.896	-200.000	-0.016	0.435
-168.881	-52.978	-0.346	0.159
-167.866	334.503	-0.085	-0.164
-166.852	-87.556	-0.202	0.061
-165.837	37.463	0.272	-0.240
-164.823	310.030	0.152	0.284
-163.808	-100.619	-0.110	0.027
-162.793	-48.281	0.328	0.158
-161.779	-200.000	-0.026	0.143
-160.764	-200.000	-0.045	0.211
-159.750	796.498	0.021	0.057
-158.735	321.969	-0.142	-0.270
-157.720	310.602	-0.093	-0.173
-156.706	78.476	-0.028	0.030
-155.691	800.000	-0.065	0.217
-154.677	190.380	0.160	0.239
-153.662	17.577	0.338	0.267
-152.647	57.117	-0.117	0.114
-151.633	-8.694	-0.107	0.071
-150.618	9.307	-0.364	0.274
-149.604	735.396	-0.096	-0.256
-148.589	-200.000	-0.027	0.314
-147.574	51.793	0.294	0.278
-146.560	-18.990	0.227	-0.140
-145.545	50.087	0.289	-0.272
-144.531	192.215	0.342	-0.514
-143.516	179.686	-0.027	0.039
-142.502	158.838	0.115	0.158
-141.487	-200.000	0.004	0.296
-140.472	-160.075	0.312	-0.017
-139.458	-29.335	-0.292	-0.166
-138.443	7.157	0.193	-0.144
-137.429	-28.389	-0.150	-0.086
-136.414	-56.601	-0.151	-0.067
-135.399	58.406	-0.133	0.130
-134.385	137.431	0.078	0.102
-133.370	203.752	0.215	0.330
-132.356	-156.669	-0.139	-0.009
-131.341	800.000	-0.059	0.206
-130.326	-88.373	0.053	0.016
-129.312	-111.595	0.539	-0.109
-128.297	-200.000	-0.038	-0.293
-127.283	800.000	0.030	-0.113
-126.268	340.986	-0.102	-0.198
-125.253	35.149	0.076	-0.067
-124.239	-200.000	0.041	-0.467
-123.224	339.615	-0.117	0.227
-122.210	-144.425	0.222	-0.020
-121.195	207.541	0.136	0.211
-120.180	-199.074	0.105	-0.001
-119.166	73.833	0.122	-0.127
-118.151	580.337	-0.075	-0.184
-117.137	-200.000	-0.041	-0.285
-116.122	-200.000	0.151	0.000
-115.107	800.000	-0.017	-0.061
-114.093	-40.737	0.127	0.066
-113.078	-170.499	0.446	0.015
-112.064	228.544	0.073	0.118
-111.049	-200.000	0.041	0.197
-110.034	-97.114	-0.158	-0.041
-109.020	113.391	0.060	-0.073
-108.005	491.109	-0.061	0.138
-106.991	-132.573	0.179	0.023
-105.976	-200.000	0.138	-0.001
-104.962	-200.000	-0.027	0.375
-103.947	-200.000	0.032	-0.145
-102.932	67.279	0.156	0.158
-101.918	-200.000	0.010	-0.088
-100.903	-69.988	0.407	0.154
-99.889	-21.889	-0.163	-0.099
-98.874	-22.357	0.113	-0.068
-97.859	202.678	-0.093	0.143
-96.845	-175.537	-0.210	0.006
-95.830	-110.591	0.246	-0.051
-94.816	-13.623	0.023	-0.015
-93.801	800.000	-0.044	0.162
-92.786	227.262	-0.027	-0.044
-91.772	-200.000	-0.018	-0.202
-90.757	753.925	0.036	0.096
-89.743	369.599	-0.047	-0.094
-88.728	120.336	0.067	-0.083
-87.713	-32.047	-0.071	-0.040
-86.699	800.000	-0.014	-0.054
-85.684	-200.000	-0.009	0.148
-84.670	89.890	0.139	-0.154
-83.655	-105.788	-0.101	-0.023
-82.640	83.304	0.060	-0.065
-81.626	175.861	-0.187	0.270
-80.611	-200.000	0.054	0.258
-79.597	64.964	0.066	-0.066
-78.582	800.000	-0.029	0.104
-77.567	-200.000	-0.024	-0.153
-76.553	35.456	-0.120	-0.104
-75.538	300.119	-0.136	-0.248
-74.524	133.451	-0.018	-0.023
-73.509	5.018	0.270	0.197
-72.494	-95.387	0.063	0.017
-71.480	8.656	0.205	0.153
-70.465	-123.061	0.082	-0.013
-69.451	186.419	-0.087	0.129
-68.436	-79.492	-0.168	-0.056
-67.422	-200.000	0.025	0.245
-66.407	-91.198	-0.239	-0.068
-65.392	-74.608	0.231	0.082
-64.378	472.638	-0.097	-0.218
-63.363	800.000	0.068	-0.258
-62.349	87.192	0.069	0.076
-61.334	21.422	-0.824	-0.665
-60.319	-2.802	0.455	0.315
-59.305	-200.000	0.064	-1.120
-58.290	552.543	0.288	0.685
-57.276	800.000	0.382	1.376
-56.261	-200.000	82.142	498.555
-55.246	562.086	1364.537	3273.167
-54.232	184.222	2596.086	3811.712
-53.217	115.292	2356.555	2853.971
-52.203	47.906	1966.759	1821.635
-51.188	42.226	1752.318	1578.394
-50.173	39.397	1706.514	1515.341
-49.159	53.831	1745.166	1662.104
-48.144	58.181	1763.437	1713.231
-47.130	42.085	1725.407	1552.813
-46.115	39.061	1710.912	1516.409
-45.100	38.939	1705.928	1510.999
-44.086	38.846	1703.830	1508.359
-43.071	38.825	1701.349	1505.947
-42.057	38.778	1699.452	1503.847
-41.042	38.863	1696.391	1501.728
-40.027	38.935	1694.287	1500.359
-39.013	38.934	1692.355	1498.576
-37.998	38.870	1690.788	1496.643
-36.984	38.897	1689.522	1495.667
-35.969	39.018	1687.713	1494.925
-34.954	39.099	1685.940	1493.917
-33.940	39.019	1684.625	1492.085
-32.925	38.966	1682.625	1489.852
-31.911	39.085	1680.608	1488.910
-30.896	39.089	1678.542	1487.051
-29.881	39.021	1677.130	1485.224
-28.867	39.017	1675.962	1484.102
-27.852	39.065	1674.365	1482.992
-26.838	39.038	1672.720	1481.268
-25.823	39.027	1671.298	1479.871
-24.809	39.046	1669.746	1478.580
-23.794	38.987	1668.736	1477.183
-22.779	39.094	1666.939	1476.339
-21.765	39.055	1665.376	1474.598
-20.750	38.994	1663.794	1472.684
-19.736	39.017	1661.978	1471.192
-18.721	39.053	1660.838	1470.392
-17.706	39.042	1658.795	1468.443
-16.692	39.061	1657.404	1467.294
-15.677	39.073	1656.489	1466.514
-14.663	38.999	1654.908	1464.508
-13.648	39.030	1653.477	1463.417
-12.633	39.040	1651.763	1461.915
-11.619	38.966	1650.639	1460.313
-10.604	38.972	1648.800	1458.669
-9.590	39.045	1647.457	1457.963
-8.575	38.986	1646.107	1456.276
-7.560	39.118	1644.473	1455.750
-6.546	39.055	1643.625	1454.472
-5.531	39.008	1642.676	1453.231
-4.517	39.049	1640.514	1451.559
-3.502	38.995	1639.737	1450.421
-2.487	38.991	1638.523	1449.255
-1.473	38.842	1625.999	1437.035
-0.458	35.780	1604.900	1396.143
0.556	32.830	1603.320	1355.672
1.571	29.862	1626.213	1353.233
2.586	28.755	1639.331	1355.864
3.600	24.795	1584.224	1281.860
4.615	14.879	1469.270	1122.502
5.629	6.583	1399.705	1015.998
6.644	5.171	1390.945	1000.503
7.659	5.144	1389.357	999.100
8.673	5.059	1388.025	997.512
9.688	5.087	1386.648	996.614
10.702	5.122	1383.697	994.628
11.717	8.493	1390.472	1020.969
12.731	17.292	1406.763	1089.466
13.746	22.083	1413.549	1125.398
14.761	21.062	1410.433	1116.291
15.775	19.940	1408.073	1107.152
16.790	18.961	1405.123	1098.481
17.804	18.087	1402.560	1090.804
18.819	17.649	1401.635	1087.193
19.834	17.398	1399.893	1084.151
20.848	17.155	1398.853	1081.703
21.863	16.905	1397.726	1079.145
22.877	16.703	1396.680	1076.956
23.892	16.727	1395.562	1076.148
24.907	16.754	1394.610	1075.494
25.921	16.714	1393.801	1074.521
26.936	16.758	1392.903	1074.009
27.950	16.864	1391.620	1073.597
28.965	16.937	1390.657	1073.219
29.980	17.016	1389.761	1072.936
30.994	17.109	1388.565	1072.502
32.009	17.148	1387.381	1071.744
33.023	17.103	1386.271	1070.504
34.038	17.081	1384.606	1068.984
35.053	16.949	1383.739	1067.390
36.067	16.915	1382.379	1066.032
37.082	16.858	1381.585	1064.969
38.096	17.003	1381.030	1065.360
39.111	17.004	1380.211	1064.637
40.126	16.869	1379.104	1062.842
41.140	16.649	1378.575	1060.966
42.155	16.659	1377.399	1060.025
43.169	16.602	1377.558	1059.698
44.184	16.560	1377.161	1059.034
45.199	16.616	1376.887	1059.083
46.213	16.722	1375.834	1058.840
47.228	16.888	1375.290	1059.364
48.242	16.875	1373.976	1058.180
49.257	16.851	1372.301	1056.645
50.271	16.888	1370.864	1055.675
51.286	16.868	1369.554	1054.450
52.301	16.876	1368.280	1053.426
53.315	16.807	1366.974	1051.897
54.330	16.802	1366.123	1051.119
55.344	16.694	1364.532	1049.135
56.359	16.721	1363.702	1048.567
57.374	16.713	1362.902	1047.813
58.388	16.555	1362.723	1046.607
59.403	16.653	1361.335	1046.053
60.417	16.598	1360.600	1045.052
61.432	16.555	1359.876	1044.141
62.447	16.501	1359.177	1043.177
63.461	16.521	1357.879	1042.211
64.476	16.491	1356.523	1040.895
65.490	16.569	1354.889	1040.028
66.505	16.492	1353.427	1038.342
67.520	16.509	1352.268	1037.463
68.534	16.547	1351.331	1036.887
69.549	16.568	1350.459	1036.258
70.563	16.572	1349.321	1035.316
71.578	16.408	1348.349	1033.475
72.593	16.310	1347.628	1032.231
73.607	16.319	1346.597	1031.406
74.622	16.364	1345.776	1030.958
75.636	16.306	1345.562	1030.352
76.651	16.408	1344.497	1030.066
77.666	16.493	1343.888	1030.024
78.680	16.414	1343.313	1029.014
79.695	16.490	1342.543	1028.797
80.709	16.525	1341.569	1028.168
81.724	16.602	1340.505	1027.730
82.739	16.620	1339.976	1027.343
83.753	16.807	1338.902	1027.564
84.768	16.903	1338.243	1027.548
85.782	16.990	1337.184	1027.170
86.797	16.944	1335.769	1025.717
87.812	16.700	1334.577	1023.236
88.826	16.841	1333.154	1022.904
89.841	16.893	1331.922	1022.185
90.855	16.973	1330.614	1021.571
91.870	17.006	1330.067	1021.259
92.884	16.937	1329.513	1020.331
93.899	16.913	1328.929	1019.646
94.914	17.119	1327.719	1019.865
95.928	17.064	1326.843	1018.770
96.943	16.946	1326.175	1017.459
97.957	17.024	1324.793	1016.779
98.972	16.991	1323.823	1015.744
99.987	16.955	1322.966	1014.780
101.001	16.913	1322.057	1013.742
102.016	16.953	1320.826	1012.949
103.030	16.999	1320.183	1012.642
104.045	16.938	1319.477	1011.648
105.060	16.858	1317.748	1009.753
106.074	16.745	1316.462	1008.009
107.089	16.517	1315.238	1005.625
108.103	16.482	1313.888	1004.294
109.118	16.438	1312.631	1002.985
110.133	16.616	1311.260	1002.904
111.147	16.531	1309.984	1001.338
112.162	16.559	1308.904	1000.590
113.176	16.622	1307.372	999.701
114.191	16.723	1306.576	999.601
115.206	16.720	1305.292	998.509
116.220	16.706	1303.921	997.288
117.235	16.607	1303.089	995.984
118.249	16.735	1301.382	995.341
119.264	16.666	1300.205	993.951
120.279	16.564	1299.492	992.716
121.293	16.524	1298.562	991.686
122.308	16.543	1297.234	990.692
123.322	16.557	1296.398	990.050
124.337	16.435	1295.535	988.591
125.352	16.501	1294.428	988.042
126.366	16.429	1293.053	986.486
127.381	16.400	1292.221	985.596
128.395	16.501	1291.111	985.250
129.410	16.559	1290.339	984.913
130.424	16.544	1289.867	984.376
131.439	16.665	1288.278	983.778
132.454	16.670	1287.814	983.365
133.468	16.778	1286.553	982.942
134.483	16.773	1286.008	982.414
135.497	16.756	1285.072	981.512
136.512	16.816	1283.660	980.695
137.527	16.730	1282.712	979.384
138.541	16.791	1281.367	978.626
139.556	16.821	1279.930	977.615
140.570	16.814	1279.061	976.822
141.585	16.927	1278.091	976.648
142.600	17.017	1276.680	976.002
143.614	17.048	1275.845	975.452
144.629	17.041	1274.944	974.636
145.643	16.991	1273.550	973.202
146.658	16.933	1272.325	971.843
147.673	16.865	1270.645	970.087
148.687	16.762	1269.834	968.795
149.702	16.795	1268.365	967.772
150.716	16.748	1266.763	966.198
151.731	16.903	1265.976	966.398
152.746	16.712	1264.959	964.449
153.760	16.751	1263.988	963.841
154.775	16.949	1262.519	963.765
155.789	16.926	1261.572	962.824
156.804	16.901	1260.641	961.888
157.819	16.972	1259.514	961.344
158.833	16.993	1258.743	960.792
159.848	17.122	1257.892	960.783
160.862	16.986	1257.084	959.316
161.877	17.035	1255.083	957.980
162.892	16.840	1254.352	956.237
163.906	16.769	1253.793	955.323
164.921	16.824	1252.638	954.670
165.935	16.863	1251.297	953.782
166.950	16.894	1251.397	953.950
167.964	16.922	1250.245	953.141
168.979	16.995	1249.756	953.098
169.994	16.809	1249.190	951.533
171.008	16.973	1247.777	951.297
172.023	17.020	1247.297	951.108
173.037	17.104	1246.622	950.981
174.052	17.122	1245.300	949.988
175.067	16.976	1244.509	948.486
176.081	16.840	1243.087	946.559
177.096	16.871	1242.305	946.048
178.110	16.977	1240.982	945.549
179.125	17.060	1239.553	944.839
180.140	17.017	1238.584	943.777
181.154	17.179	1237.258	943.584
182.169	17.021	1236.489	942.037
183.183	17.101	1235.347	941.527
184.198	17.160	1233.934	940.697
185.213	17.256	1232.683	940.187
186.227	17.177	1232.038	939.177
187.242	17.206	1230.827	938.328
188.256	17.378	1229.703	938.341
189.271	17.375	1228.524	937.342
190.286	17.283	1227.502	935.970
191.300	16.882	1226.480	932.902
192.315	16.807	1225.881	931.951
193.329	16.821	1225.582	931.719
194.344	17.035	1224.572	932.043
195.359	17.003	1224.516	931.744
196.373	17.153	1223.697	931.865
197.388	17.274	1223.018	931.924
198.402	17.421	1222.475	932.235
199.417	17.473	1222.410	932.387
200.432	17.608	1221.185	932.108
201.446	17.575	1220.498	931.324
202.461	17.577	1219.447	930.448
203.475	17.681	1218.452	930.175
204.490	17.529	1217.516	928.549
205.504	17.455	1215.630	926.623
206.519	17.357	1215.299	925.756
207.534	17.346	1213.568	924.298
208.548	17.403	1212.725	923.884
209.563	17.437	1211.836	923.310
210.577	17.462	1211.055	922.768
211.592	17.380	1210.461	921.790
212.607	17.554	1209.384	921.829
213.621	17.609	1208.544	921.406
214.636	17.634	1207.877	920.952
215.650	17.653	1206.686	920.061
216.665	17.666	1205.646	919.257
217.680	17.650	1204.909	918.527
218.694	17.777	1204.046	918.476
219.709	17.786	1203.015	917.657
220.723	17.763	1202.657	917.179
221.738	17.687	1202.226	916.356
222.753	17.577	1201.794	915.358
223.767	17.774	1200.475	915.328
224.782	17.856	1199.953	915.292
225.796	17.916	1199.127	914.900
226.811	17.934	1198.535	914.462
227.826	17.758	1198.068	913.083
228.840	17.758	1197.086	912.256
229.855	17.766	1196.150	911.503
230.869	17.696	1195.520	910.571
231.884	17.709	1194.501	909.783
232.899	17.717	1193.732	909.157
233.913	17.655	1192.683	907.948
234.928	17.653	1192.171	907.467
235.942	17.617	1191.441	906.639
236.957	17.532	1190.805	905.624
237.972	17.706	1189.826	905.724
238.986	17.705	1189.471	905.371
240.001	17.602	1188.847	904.268
241.015	17.640	1187.926	903.685
242.030	17.903	1186.565	903.962
243.045	17.748	1186.324	902.881
244.059	17.902	1185.119	902.696
245.074	17.798	1184.477	901.580
246.088	17.858	1183.637	901.176
247.103	17.885	1182.963	900.730
248.117	17.999	1182.223	900.688
249.132	18.166	1181.852	901.200
250.147	18.216	1181.356	901.008
251.161	18.400	1180.300	901.094
252.176	18.324	1179.749	900.191
253.190	18.385	1179.046	899.896
254.205	18.463	1178.586	899.872
255.220	18.468	1178.173	899.508
256.234	18.492	1177.151	898.770
257.249	18.470	1176.485	898.067
258.263	18.467	1175.738	897.403
259.278	18.550	1174.880	897.105
260.293	18.450	1174.697	896.359
261.307	18.517	1173.951	896.060
262.322	18.578	1173.441	895.912
263.336	18.555	1172.669	895.123
264.351	18.571	1172.446	894.959
265.366	18.555	1171.822	894.319
266.380	18.634	1170.461	893.614
267.395	18.508	1169.938	892.478
268.409	18.456	1169.054	891.452
269.424	18.477	1168.326	890.929
270.439	18.506	1167.814	890.612
271.453	18.622	1166.673	890.265
272.468	18.519	1165.973	889.117
273.482	18.307	1165.563	887.628
274.497	18.355	1164.830	887.236
275.512	18.467	1163.894	887.026
276.526	18.383	1163.448	886.171
277.541	18.545	1162.372	886.111
278.555	18.576	1161.761	885.731
279.570	18.640	1161.099	885.477
280.585	18.812	1160.341	885.705
281.599	18.715	1159.500	884.486
282.614	18.683	1158.412	883.413
283.628	18.518	1157.403	881.718
284.643	18.687	1156.544	881.853
285.657	18.570	1155.524	880.399
286.672	18.754	1154.304	880.332
287.687	18.763	1153.200	879.461
288.701	18.785	1152.720	879.129
289.716	18.694	1151.709	877.815
290.730	18.673	1151.348	877.355
291.745	18.690	1150.726	876.890
292.760	18.752	1150.094	876.646
293.774	18.873	1149.286	876.572
294.789	18.844	1149.397	876.427
295.803	18.975	1148.080	876.016
296.818	18.857	1147.398	874.818
297.833	18.841	1146.347	873.855
298.847	18.842	1145.783	873.352
299.862	18.769	1145.010	872.317
300.876	18.823	1144.131	871.841
301.891	18.927	1143.826	872.064
302.906	18.991	1143.043	871.713
303.920	18.975	1142.476	871.123
304.935	19.025	1141.871	870.837
305.949	19.236	1140.989	871.155
306.964	19.102	1140.786	870.246
307.979	19.041	1139.955	869.223
308.993	19.026	1138.909	868.274
310.008	19.084	1138.110	867.881
311.022	19.123	1137.207	867.312
312.037	19.133	1136.560	866.795
313.052	19.193	1135.123	865.920
314.066	19.081	1133.971	864.406
315.081	18.920	1133.512	863.171
316.095	18.901	1132.569	862.278
317.110	18.945	1132.445	862.331
318.125	19.006	1131.282	861.672
319.139	18.944	1130.504	860.693
320.154	18.947	1130.249	860.440
321.168	19.032	1129.268	860.040
322.183	18.965	1128.837	859.300
323.197	19.020	1128.089	858.930
324.212	19.148	1127.498	859.044
325.227	19.117	1126.869	858.332
326.241	19.153	1125.983	857.763
327.256	19.214	1125.426	857.564
328.270	19.129	1124.176	856.114
329.285	19.161	1123.423	855.622
330.300	19.112	1122.859	854.874
331.314	19.132	1121.505	853.868
332.329	19.168	1120.580	853.267
333.343	19.170	1120.061	852.808
334.358	19.135	1119.591	852.198
335.373	19.255	1118.805	852.118
336.387	19.340	1117.914	851.785
337.402	19.368	1117.093	851.223
338.416	19.431	1116.279	850.838
339.431	19.439	1115.882	850.501
340.446	19.480	1115.000	849.952
341.460	19.554	1114.586	849.927
342.475	19.521	1113.711	849.020
343.489	19.566	1113.141	848.733
344.504	19.734	1111.948	848.576
345.519	19.675	1111.278	847.697
346.533	19.707	1110.189	846.951
347.548	19.703	1109.672	846.461
348.562	19.784	1109.113	846.357
349.577	19.622	1107.966	844.615
350.592	19.507	1106.859	843.133
351.606	19.402	1106.529	842.295
352.621	19.409	1105.552	841.513
353.635	19.499	1104.801	841.305
354.650	19.447	1104.055	840.405
355.665	19.616	1103.354	840.623
356.679	19.565	1103.010	840.039
357.694	19.541	1102.590	839.525
358.708	19.657	1101.792	839.408
359.723	19.651	1101.031	838.723
360.738	19.738	1100.501	838.667
361.752	19.684	1099.900	837.873
362.767	19.708	1099.140	837.339
363.781	19.707	1098.581	836.833
364.796	19.745	1098.415	836.818
365.810	19.832	1097.607	836.547
366.825	19.969	1096.892	836.593
367.840	20.027	1096.718	836.666
368.854	20.018	1095.972	835.979
369.869	20.140	1094.882	835.658
370.883	20.016	1093.871	834.217
371.898	20.084	1093.111	833.889
372.913	20.050	1092.617	833.277
373.927	20.075	1091.951	832.815
374.942	20.116	1091.624	832.690
375.956	20.132	1091.396	832.518
376.971	20.086	1090.435	831.493
377.986	20.158	1089.785	831.267
379.000	20.168	1089.421	830.964
380.015	20.279	1089.210	831.260
381.029	20.278	1088.416	830.579
382.044	20.263	1087.112	829.438
383.059	20.387	1086.401	829.413
384.073	20.246	1085.909	828.289
385.088	20.357	1084.952	828.016
386.102	20.355	1084.032	827.230
387.117	20.158	1083.266	825.636
388.132	20.032	1082.066	824.049
389.146	20.196	1081.003	823.945
390.161	20.182	1080.317	823.285
391.175	20.141	1079.843	822.657
392.190	20.165	1079.473	822.414
393.205	20.296	1078.503	822.222
394.219	20.273	1077.843	821.537
395.234	20.202	1076.951	820.452
396.248	20.157	1075.746	819.249
397.263	20.304	1074.566	818.968
398.278	19.950	1074.381	817.085
399.292	20.054	1073.127	816.549
400.307	20.178	1072.230	816.377
401.321	20.131	1072.068	815.961
402.336	20.176	1071.286	815.507
403.350	20.121	1070.507	814.584
404.365	20.140	1070.058	814.258
405.380	20.239	1069.396	814.148
406.394	20.306	1068.568	813.757
407.409	20.314	1068.048	813.327
408.423	20.401	1067.366	813.143
409.438	20.417	1066.668	812.615
410.453	20.615	1065.777	812.790
411.467	20.630	1064.861	812.089
412.482	20.710	1063.819	811.598
413.496	20.668	1063.374	810.992
414.511	20.669	1063.448	810.978
415.526	20.758	1062.696	810.751
416.540	20.724	1062.386	810.282
417.555	20.815	1062.023	810.358
418.569	20.741	1061.219	809.329
419.584	20.709	1060.853	808.830
420.599	20.772	1060.120	808.489
421.613	146.474	1395.114	1764.123
422.628	134.670	1443.927	1764.258
