DTS Sentinel unit serial number:	SN413079Multiplexer serial number:	ORYXHardware model number:	OX4-SRSoftware version number:	ORYX F/W v4.00 Oryx Data Collector v3.7.2.0data status	okinstallation	princeton_trtdifferential loss correction	single-endedforward channel	channel 2reverse channel	N/Adate	2019/09/14time	23:35:34forward acquisition time	60.00reverse acquisition time	0.00gamma	496.2192k internal	0.2324k external	0.2324temperature offset calibration	1.0054default loss term (dB/km)	0.3790temperature slope calibration	1.0000multiplexer offset coefficient	1.0000multiplexer slope coefficient	1.0000fibre end	0.00T internal ref (°C)	32.31T ext. ref 1 (°C)	4.65T ext. ref 2 (°C)	27.33length (m)	temperature (°C)	Stokes	anti-Stokes-747.200	36.342	-0.178	-0.158
-746.185	15.729	-0.196	0.156
-745.171	-73.865	-0.308	-0.113
-744.156	-68.558	0.081	-0.032
-743.142	800.000	-0.042	-0.134
-742.127	800.000	-0.042	0.133
-741.112	29.912	0.013	-0.011
-740.098	-116.245	0.309	-0.058
-739.083	-14.844	0.352	-0.228
-738.069	186.849	-0.032	0.048
-737.054	-19.628	-0.177	0.110
-736.039	95.318	-0.198	-0.228
-735.025	152.691	-0.045	0.061
-734.010	-200.000	-0.012	-0.104
-732.996	-158.036	-0.407	-0.024
-731.981	751.898	0.021	0.057
-730.966	382.845	0.094	0.196
-729.952	648.618	-0.095	0.246
-728.937	-96.974	-0.445	0.118
-727.923	-200.000	0.004	-0.060
-726.908	-200.000	-0.055	-0.309
-725.894	-50.119	-0.403	0.193
-724.879	556.888	0.121	0.294
-723.864	218.069	0.039	0.064
-722.850	-98.941	0.164	0.042
-721.835	-180.156	-0.157	0.003
-720.821	125.134	0.155	-0.197
-719.806	-17.036	0.162	0.103
-718.791	-36.919	0.213	0.115
-717.777	-18.556	0.064	-0.040
-716.762	-131.734	0.415	0.055
-715.748	-124.252	0.050	0.008
-714.733	327.651	0.057	0.111
-713.718	598.553	0.102	-0.254
-712.704	-200.000	0.044	0.212
-711.689	431.855	0.205	-0.449
-710.675	278.203	-0.092	-0.164
-709.660	-200.000	-0.040	-0.187
-708.645	11.329	0.275	0.212
-707.631	-34.132	-0.105	-0.058
-706.616	-72.316	0.204	-0.076
-705.602	-200.000	0.005	-0.029
-704.587	-200.000	0.014	-0.123
-703.572	-89.519	0.103	-0.031
-702.558	-197.797	0.052	0.000
-701.543	348.121	0.204	0.406
-700.529	426.469	-0.144	-0.314
-699.514	276.356	-0.192	-0.344
-698.499	94.079	0.065	-0.075
-697.485	627.552	0.051	-0.129
-696.470	639.366	0.146	0.374
-695.456	-49.756	0.444	-0.213
-694.441	122.473	-0.120	0.151
-693.426	119.438	0.071	0.088
-692.412	41.004	-0.168	0.153
-691.397	-200.000	-0.033	0.215
-690.383	800.000	-0.047	-0.187
-689.368	-200.000	0.002	0.345
-688.354	-200.000	-0.007	-0.371
-687.339	158.704	0.113	0.158
-686.324	-200.000	0.070	0.000
-685.310	699.228	-0.080	-0.213
-684.295	55.404	-0.108	-0.105
-683.281	642.888	-0.111	-0.285
-682.266	24.199	0.194	0.162
-681.251	-63.870	-0.132	-0.054
-680.237	9.456	-0.164	0.125
-679.222	-174.491	0.213	0.006
-678.208	-32.303	0.080	-0.045
-677.193	-99.641	-0.305	0.077
-676.178	800.000	-0.073	0.303
-675.164	-200.000	-0.041	-0.256
-674.149	496.477	0.028	0.065
-673.135	70.579	-0.128	-0.133
-672.120	189.057	-0.128	0.193
-671.105	380.233	-0.072	0.148
-670.091	-200.000	-0.000	-0.106
-669.076	-65.818	-0.220	-0.089
-668.062	49.432	0.198	0.188
-667.047	-154.094	-0.127	0.009
-666.032	800.000	-0.025	0.092
-665.018	43.777	0.141	-0.130
-664.003	15.494	-0.206	-0.163
-662.989	-200.000	-0.010	0.114
-661.974	263.200	0.155	-0.270
-660.959	9.963	-0.279	0.213
-659.945	-117.530	-0.367	0.067
-658.930	174.891	-0.095	-0.138
-657.916	45.236	-0.145	-0.134
-656.901	800.000	-0.074	0.246
-655.886	-87.872	-0.252	-0.076
-654.872	235.438	-0.133	0.221
-653.857	-80.397	0.245	0.082
-652.843	296.336	0.216	-0.399
-651.828	88.686	-0.074	-0.083
-650.814	-200.000	0.007	-0.143
-649.799	646.198	-0.099	-0.254
-648.784	-200.000	-0.002	-0.119
-647.770	-200.000	-0.073	-0.354
-646.755	-88.422	0.116	-0.035
-645.741	-95.198	0.276	-0.075
-644.726	165.341	0.093	0.132
-643.711	-200.000	0.071	0.320
-642.697	150.326	0.065	-0.088
-641.682	-200.000	-0.010	0.194
-640.668	-200.000	0.008	-0.138
-639.653	-92.845	0.224	0.063
-638.638	78.130	0.090	-0.097
-637.624	779.619	-0.133	-0.367
-636.609	191.037	-0.205	-0.310
-635.595	-73.752	0.139	-0.051
-634.580	800.000	-0.087	-0.285
-633.565	-134.666	-0.117	-0.014
-632.551	-68.886	0.285	-0.111
-631.536	-200.000	-0.039	-0.188
-630.522	-142.645	0.079	0.008
-629.507	283.910	-0.168	-0.304
-628.492	31.486	-0.178	0.154
-627.478	184.745	0.057	0.085
-626.463	800.000	-0.057	-0.204
-625.449	-109.608	-0.056	0.012
-624.434	23.781	0.105	0.087
-623.419	-52.341	0.285	0.133
-622.405	-101.828	-0.106	0.026
-621.390	-139.330	0.091	0.010
-620.376	122.175	-0.305	0.383
-619.361	5.289	-0.163	0.120
-618.346	143.360	-0.201	0.268
-617.332	800.000	-0.137	0.410
-616.317	-48.784	0.171	-0.082
-615.303	490.628	-0.049	-0.113
-614.288	-200.000	-0.007	-0.034
-613.273	-45.146	-0.225	0.112
-612.259	-90.878	-0.308	0.089
-611.244	-102.282	-0.250	0.060
-610.230	-11.946	-0.119	0.079
-609.215	714.779	-0.095	0.253
-608.201	-200.000	0.009	-0.119
-607.186	450.026	0.106	0.234
-606.171	53.746	0.227	-0.219
-605.157	-143.815	-0.069	0.007
-604.142	47.116	-0.202	-0.189
-603.128	-200.000	0.000	0.118
-602.113	37.960	-0.277	0.247
-601.098	-96.208	-0.075	-0.020
-600.084	-65.498	0.287	-0.116
-599.069	800.000	0.052	-0.165
-598.055	-110.752	-0.206	-0.043
-597.040	-61.810	0.283	-0.119
-596.025	-105.122	-0.386	-0.089
-595.011	-121.099	-0.150	0.025
-593.996	-200.000	-0.028	0.142
-592.982	800.000	-0.099	-0.289
-591.967	30.445	-0.305	0.261
-590.952	800.000	-0.062	-0.260
-589.938	-154.766	0.222	-0.015
-588.923	105.755	0.033	-0.040
-587.909	553.238	-0.117	-0.282
-586.894	-20.919	-0.145	-0.089
-585.879	-100.220	0.079	-0.020
-584.865	-200.000	-0.059	-0.338
-583.850	-200.000	-0.037	-0.255
-582.836	522.605	-0.058	0.138
-581.821	-52.942	0.179	-0.083
-580.806	431.410	-0.090	0.196
-579.792	221.954	0.090	-0.146
-578.777	-200.000	0.017	0.301
-577.763	-143.218	0.491	0.047
-576.748	146.795	-0.183	-0.247
-575.733	-51.737	-0.154	0.072
-574.719	800.000	-0.074	-0.237
-573.704	-200.000	-0.012	0.124
-572.690	800.000	0.067	-0.248
-571.675	-200.000	-0.013	-0.291
-570.661	-82.166	0.102	0.033
-569.646	-43.131	-0.296	-0.150
-568.631	800.000	-0.091	-0.319
-567.617	244.079	-0.067	0.114
-566.602	110.067	-0.068	0.081
-565.588	-44.254	0.247	0.124
-564.573	800.000	0.010	0.032
-563.558	-155.406	0.202	0.013
-562.544	800.000	0.135	-0.380
-561.529	756.565	0.115	0.311
-560.515	105.384	-0.370	0.438
-559.500	-91.631	0.256	-0.073
-558.485	-92.190	-0.222	-0.063
-557.471	800.000	-0.013	0.037
-556.456	107.445	0.275	-0.328
-555.442	-153.123	-0.028	-0.002
-554.427	35.655	-0.102	0.090
-553.412	-8.889	-0.377	0.253
-552.398	199.469	-0.179	0.275
-551.383	34.254	0.284	-0.248
-550.369	431.216	0.112	0.243
-549.354	800.000	0.065	-0.206
-548.339	78.537	-0.138	0.148
-547.325	-200.000	-0.010	0.209
-546.310	44.166	-0.140	-0.129
-545.296	201.736	-0.060	-0.093
-544.281	254.346	-0.113	0.194
-543.266	-200.000	-0.028	-0.280
-542.252	13.117	0.156	-0.121
-541.237	-146.742	0.256	-0.022
-540.223	15.372	0.070	0.055
-539.208	287.345	0.136	0.247
-538.193	-43.615	0.188	-0.095
-537.179	-75.489	0.259	0.092
-536.164	218.172	0.162	0.259
-535.150	-100.004	-0.351	-0.088
-534.135	110.610	0.225	-0.271
-533.121	-9.350	0.377	0.252
-532.106	-73.146	-0.307	-0.113
-531.091	-200.000	0.040	-0.337
-530.077	-159.297	0.098	0.006
-529.062	-94.152	-0.359	0.099
-528.048	195.385	0.269	-0.409
-527.033	-12.382	0.241	-0.158
-526.018	-82.800	-0.166	0.054
-525.004	-200.000	-0.032	-0.191
-523.989	182.996	0.113	0.166
-522.975	56.557	0.066	-0.064
-521.960	-64.542	-0.112	0.045
-520.945	232.886	0.149	0.244
-519.931	158.116	-0.136	0.188
-518.916	-11.279	-0.160	-0.105
-517.902	-112.547	-0.283	-0.056
-516.887	68.672	0.157	0.161
-515.872	155.055	0.092	-0.127
-514.858	800.000	-0.048	-0.192
-513.843	800.000	-0.105	-0.349
-512.829	99.529	-0.278	-0.322
-511.814	116.216	-0.181	0.222
-510.799	365.514	0.048	-0.097
-509.785	-34.577	0.560	-0.307
-508.770	-78.768	0.381	0.130
-507.756	-200.000	0.013	-0.154
-506.741	-116.757	0.223	-0.041
-505.726	207.520	0.169	0.264
-504.712	-118.333	-0.066	0.012
-503.697	-108.522	0.152	-0.033
-502.683	-141.914	-0.249	0.025
-501.668	-45.525	0.287	-0.142
-500.653	-200.000	0.027	-0.142
-499.639	-82.858	-0.285	0.092
-498.624	-102.739	-0.245	0.058
-497.610	-138.889	-0.063	0.007
-496.595	800.000	0.092	-0.310
-495.581	82.496	-0.067	0.073
-494.566	-88.428	0.289	-0.086
-493.551	-97.003	0.284	0.074
-492.537	800.000	0.070	-0.278
-491.522	182.056	-0.050	0.074
-490.508	12.857	0.032	0.025
-489.493	800.000	0.058	-0.205
-488.478	-200.000	-0.032	0.174
-487.464	-42.588	-0.263	0.134
-486.449	103.636	0.053	0.063
-485.435	-200.000	0.020	0.334
-484.420	-24.155	-0.198	-0.118
-483.405	219.564	-0.134	-0.214
-482.391	-146.751	-0.248	-0.021
-481.376	-200.000	-0.008	-0.073
-480.362	57.358	0.144	0.141
-479.347	-51.475	-0.187	-0.087
-478.332	-45.607	-0.186	0.092
-477.318	169.510	0.184	0.262
-476.303	48.097	-0.280	-0.261
-475.289	-200.000	-0.021	-0.280
-474.274	-101.261	-0.055	-0.013
-473.259	159.619	0.052	-0.073
-472.245	765.116	0.112	0.303
-471.230	-161.794	0.225	0.011
-470.216	-200.000	-0.002	0.102
-469.201	-77.086	-0.212	0.074
-468.186	344.549	0.136	0.267
-467.172	-46.715	-0.377	-0.184
-466.157	113.540	0.085	0.103
-465.143	193.369	-0.123	0.186
-464.128	-2.341	-0.094	0.066
-463.113	-172.842	0.282	0.009
-462.099	28.661	0.212	0.180
-461.084	800.000	-0.081	-0.231
-460.070	-150.283	-0.265	0.020
-459.055	-200.000	0.008	-0.088
-458.040	-200.000	0.025	-0.155
-457.026	134.270	0.159	-0.206
-456.011	-118.357	-0.292	0.052
-454.997	-41.905	-0.219	-0.112
-453.982	489.219	-0.125	0.286
-452.968	437.437	-0.061	-0.133
-451.953	105.826	-0.048	0.057
-450.938	75.701	-0.094	-0.099
-449.924	-200.000	0.024	-0.310
-448.909	522.265	-0.080	0.187
-447.895	800.000	0.075	-0.249
-446.880	-171.756	-0.204	0.007
-445.865	800.000	-0.078	-0.260
-444.851	-28.110	0.204	0.117
-443.836	-18.210	-0.128	-0.080
-442.822	-200.000	-0.008	-0.499
-441.807	-200.000	0.063	-0.317
-440.792	-145.353	0.228	0.020
-439.778	-200.000	-0.037	0.330
-438.763	246.688	-0.348	-0.586
-437.749	-55.884	0.143	0.064
-436.734	-86.643	-0.343	-0.105
-435.719	-66.479	0.318	0.126
-434.705	-16.290	0.269	0.170
-433.690	-101.945	0.220	-0.053
-432.676	-200.000	0.038	0.318
-431.661	-148.115	0.134	0.011
-430.646	-54.591	-0.129	-0.058
-429.632	210.362	-0.137	-0.215
-428.617	-158.513	-0.265	0.015
-427.603	-200.000	0.020	0.184
-426.588	353.801	0.241	-0.477
-425.573	79.389	-0.113	-0.121
-424.559	800.000	-0.104	0.327
-423.544	-125.721	-0.158	-0.024
-422.530	-50.976	0.154	0.072
-421.515	-117.383	0.274	-0.049
-420.500	-11.719	0.089	-0.058
-419.486	43.557	-0.105	0.095
-418.471	-200.000	0.032	-0.148
-417.457	800.000	-0.078	0.240
-416.442	-31.830	0.125	0.070
-415.428	20.301	-0.143	0.115
-414.413	-81.877	-0.180	0.059
-413.398	-200.000	-0.023	0.358
-412.384	281.983	-0.020	0.035
-411.369	-200.000	-0.049	0.296
-410.355	-200.000	-0.027	-0.280
-409.340	128.141	-0.060	-0.076
-408.325	-22.720	-0.204	-0.123
-407.311	-200.000	0.020	0.150
-406.296	-31.517	0.250	-0.140
-405.282	-200.000	-0.006	0.166
-404.267	-147.773	0.215	0.018
-403.252	-200.000	0.026	0.302
-402.238	216.037	-0.132	-0.209
-401.223	-81.388	-0.350	-0.115
-400.209	800.000	-0.122	0.348
-399.194	-132.505	0.325	0.042
-398.179	800.000	0.061	-0.249
-397.165	-129.768	0.382	-0.052
-396.150	359.146	0.118	0.234
-395.136	800.000	0.028	0.103
-394.121	-200.000	-0.027	0.341
-393.106	239.973	0.151	0.251
-392.092	428.753	0.187	0.401
-391.077	800.000	-0.128	0.360
-390.063	480.692	-0.027	-0.061
-389.048	-200.000	-0.027	-0.406
-388.033	274.793	0.206	-0.364
-387.019	-200.000	0.005	0.081
-386.004	-100.064	0.201	-0.050
-384.990	-200.000	0.016	0.075
-383.975	36.315	0.293	-0.257
-382.960	69.981	-0.179	0.184
-381.946	-26.876	0.237	-0.138
-380.931	-200.000	0.008	0.256
-379.917	-112.749	0.084	-0.017
-378.902	489.264	-0.093	-0.211
-377.888	-13.125	0.184	-0.119
-376.873	177.337	0.117	-0.169
-375.858	314.312	0.112	0.209
-374.844	-131.063	0.026	0.003
-373.829	-74.694	0.218	0.078
-372.815	54.672	0.223	0.214
-371.800	-38.674	-0.274	-0.144
-370.785	-200.000	-0.001	0.294
-369.771	-200.000	0.021	0.109
-368.756	-20.161	0.180	0.110
-367.742	-77.633	0.065	0.023
-366.727	-200.000	0.023	0.224
-365.712	1.033	0.216	0.154
-364.698	380.014	-0.053	0.108
-363.683	-81.644	0.133	-0.043
-362.669	800.000	-0.062	-0.254
-361.654	-94.888	-0.062	0.017
-360.639	-156.993	0.211	-0.013
-359.625	-132.322	-0.157	0.020
-358.610	-200.000	0.056	0.472
-357.596	800.000	0.014	-0.049
-356.581	-9.579	-0.098	-0.065
-355.566	-200.000	-0.004	-0.164
-354.552	-98.794	0.217	-0.055
-353.537	-200.000	-0.008	0.282
-352.523	83.940	0.125	-0.136
-351.508	264.515	-0.166	-0.287
-350.493	-200.000	0.018	-0.157
-349.479	40.911	-0.125	-0.112
-348.464	-200.000	0.031	0.154
-347.450	-200.000	-0.013	0.166
-346.435	-71.069	-0.173	-0.065
-345.420	-200.000	0.004	0.173
-344.406	43.260	-0.225	-0.204
-343.391	-80.883	0.111	-0.036
-342.377	15.486	-0.136	-0.106
-341.362	57.392	0.145	-0.140
-340.348	81.531	-0.120	0.129
-339.333	-81.272	0.148	0.049
-338.318	-51.719	-0.130	-0.060
-337.304	800.000	0.047	0.130
-336.289	800.000	-0.048	-0.153
-335.275	-200.000	-0.007	-0.072
-334.260	290.476	-0.157	0.284
-333.245	167.624	0.133	-0.188
-332.231	169.225	-0.290	-0.411
-331.216	-7.076	-0.110	-0.074
-330.202	55.763	-0.105	-0.101
-329.187	367.845	0.187	0.376
-328.172	46.617	-0.033	0.030
-327.158	6.149	0.154	0.113
-326.143	-138.559	0.265	0.029
-325.129	-200.000	-0.043	0.217
-324.114	-83.774	0.517	-0.164
-323.099	-200.000	0.072	-0.563
-322.085	-200.000	-0.052	-0.292
-321.070	9.009	-0.222	0.167
-320.056	662.589	-0.079	0.202
-319.041	130.204	-0.145	-0.184
-318.026	-6.450	-0.101	-0.068
-317.012	87.177	-0.138	-0.151
-315.997	-99.155	0.216	-0.054
-314.983	169.638	0.118	-0.168
-313.968	420.889	0.132	0.281
-312.953	-16.552	0.237	-0.149
-311.939	-200.000	0.034	-0.161
-310.924	800.000	0.034	0.105
-309.910	800.000	-0.036	-0.118
-308.895	-149.477	-0.200	-0.016
-307.880	-105.680	-0.120	-0.027
-306.866	-49.357	-0.236	0.112
-305.851	-27.192	-0.084	0.049
-304.837	-122.987	-0.217	0.035
-303.822	305.827	-0.097	0.179
-302.807	-41.534	0.033	0.017
-301.793	-200.000	-0.022	0.194
-300.778	591.551	0.043	0.104
-299.764	307.248	-0.166	-0.307
-298.749	185.802	-0.025	0.037
-297.735	61.025	-0.148	0.146
-296.720	47.650	-0.224	0.207
-295.705	-92.155	0.088	0.025
-294.691	-200.000	-0.021	0.286
-293.676	-40.877	-0.399	0.205
-292.662	-0.983	0.172	0.121
-291.647	92.115	-0.125	0.140
-290.632	-200.000	-0.002	-0.031
-289.618	-200.000	-0.038	-0.341
-288.603	-119.243	-0.275	0.048
-287.589	299.819	0.064	-0.116
-286.574	-200.000	-0.019	0.261
-285.559	-80.924	0.539	0.177
-284.545	-200.000	0.008	-0.230
-283.530	148.449	-0.149	-0.200
-282.516	13.424	0.048	0.037
-281.501	-43.071	-0.369	0.185
-280.486	124.244	0.048	0.060
-279.472	-200.000	-0.012	-0.154
-278.457	-155.585	-0.186	0.012
-277.443	-148.403	0.083	-0.007
-276.428	242.576	0.082	0.137
-275.413	800.000	0.053	-0.226
-274.399	-186.481	0.396	-0.006
-273.384	273.633	-0.183	-0.321
-272.370	-87.264	-0.302	0.091
-271.355	800.000	-0.091	-0.307
-270.340	83.059	0.168	0.181
-269.326	105.470	0.228	0.267
-268.311	12.367	-0.204	-0.156
-267.297	-55.359	0.198	-0.088
-266.282	-19.267	-0.221	-0.136
-265.267	-90.949	0.454	-0.129
-264.253	276.341	0.060	-0.105
-263.238	-108.852	-0.165	-0.035
-262.224	-9.421	0.271	0.179
-261.209	119.284	-0.135	-0.166
-260.195	117.888	-0.084	-0.102
-259.180	-88.951	0.186	0.055
-258.165	-63.345	0.098	0.040
-257.151	-200.000	0.026	-0.180
-256.136	255.082	-0.070	-0.118
-255.122	-160.998	-0.184	0.010
-254.107	87.207	0.066	-0.072
-253.092	-168.791	0.554	0.021
-252.078	-143.505	-0.512	-0.048
-251.063	103.239	-0.156	0.181
-250.049	800.000	-0.058	0.197
-249.034	800.000	0.098	-0.304
-248.019	-129.399	-0.206	-0.028
-247.005	-200.000	-0.007	0.316
-245.990	-111.450	0.227	-0.046
-244.976	595.082	-0.087	0.212
-243.961	-200.000	0.002	0.099
-242.946	101.253	0.384	-0.443
-241.932	51.393	-0.244	0.229
-240.917	22.703	-0.299	-0.243
-239.903	221.122	0.048	-0.076
-238.888	242.512	0.114	0.188
-237.873	800.000	-0.054	0.185
-236.859	22.883	-0.127	0.103
-235.844	800.000	-0.069	0.192
-234.830	-200.000	-0.010	-0.204
-233.815	363.965	0.138	0.274
-232.800	48.403	0.367	0.340
-231.786	-152.521	-0.337	0.024
-230.771	337.247	0.010	-0.018
-229.757	345.990	0.109	0.212
-228.742	-200.000	0.011	0.224
-227.727	-43.685	0.230	-0.115
-226.713	-144.357	0.143	0.013
-225.698	-21.661	-0.026	-0.015
-224.684	158.843	0.154	0.211
-223.669	-116.654	0.169	0.031
-222.655	769.807	0.044	0.119
-221.640	-49.623	-0.346	-0.163
-220.625	-28.536	-0.223	-0.127
-219.611	-200.000	-0.069	-0.359
-218.596	-200.000	-0.018	0.311
-217.582	54.419	0.218	0.208
-216.567	143.241	-0.076	-0.100
-215.552	-62.211	0.317	-0.131
-214.538	45.141	-0.141	-0.129
-213.523	-104.761	0.070	-0.016
-212.509	-161.623	-0.420	-0.021
-211.494	-104.345	0.439	-0.101
-210.479	-107.904	-0.187	0.040
-209.465	95.108	-0.148	0.167
-208.450	-90.392	0.289	0.083
-207.436	601.205	0.056	0.136
-206.421	10.449	-0.070	-0.053
-205.406	49.777	-0.094	0.087
-204.392	-27.963	0.084	0.048
-203.377	21.419	-0.255	0.205
-202.363	-200.000	-0.024	0.195
-201.348	800.000	0.072	0.248
-200.333	10.608	0.109	-0.082
-199.319	92.791	-0.063	-0.071
-198.304	-200.000	-0.049	0.310
-197.290	6.491	0.173	-0.127
-196.275	70.357	0.107	-0.109
-195.260	-102.102	-0.182	-0.043
-194.246	387.810	0.106	-0.216
-193.231	-200.000	-0.007	0.050
-192.217	800.000	0.121	-0.351
-191.202	-19.452	-0.134	-0.082
-190.187	544.297	-0.128	-0.303
-189.173	-47.538	-0.199	0.096
-188.158	303.557	0.114	0.209
-187.144	800.000	-0.079	-0.225
-186.129	800.000	0.025	-0.083
-185.114	-30.807	0.111	0.062
-184.100	800.000	0.027	0.091
-183.085	-200.000	0.018	0.194
-182.071	73.050	0.052	0.054
-181.056	-200.000	0.032	0.359
-180.042	71.187	-0.097	0.099
-179.027	-200.000	0.079	0.410
-178.012	450.665	0.082	-0.180
-176.998	-200.000	0.012	-0.126
-175.983	674.871	0.104	-0.267
-174.969	-164.358	0.286	0.013
-173.954	-200.000	-0.061	-0.288
-172.939	471.384	0.090	0.201
-171.925	-11.389	0.275	0.179
-170.910	384.082	-0.117	-0.239
-169.896	-103.982	0.081	0.019
-168.881	800.000	-0.016	-0.048
-167.866	-200.000	-0.041	0.202
-166.852	800.000	0.068	0.272
-165.837	71.942	0.118	0.121
-164.823	800.000	-0.029	0.096
-163.808	29.521	-0.203	0.171
-162.793	529.101	0.029	-0.069
-161.779	-51.065	-0.220	0.102
-160.764	207.376	0.188	0.289
-159.750	-200.000	-0.013	-0.100
-158.735	27.976	-0.030	-0.025
-157.720	-142.003	-0.497	0.049
-156.706	47.314	-0.268	0.246
-155.691	800.000	-0.078	0.257
-154.677	-14.678	0.230	-0.146
-153.662	115.931	-0.047	0.057
-152.647	-113.284	0.510	0.099
-151.633	-2.900	-0.123	0.085
-150.618	287.015	-0.207	0.369
-149.604	-94.145	-0.295	-0.080
-148.589	-40.772	-0.116	0.059
-147.574	-200.000	-0.048	0.445
-146.560	44.125	-0.108	-0.098
-145.545	-3.117	-0.116	0.080
-144.531	168.513	0.132	0.185
-143.516	-74.273	0.386	0.138
-142.502	96.127	0.018	0.020
-141.487	-113.127	0.465	-0.090
-140.472	-110.656	-0.165	0.034
-139.458	82.959	-0.233	-0.250
-138.443	-200.000	0.040	-0.350
-137.429	218.218	0.059	-0.092
-136.414	-70.645	0.134	-0.050
-135.399	800.000	0.077	0.213
-134.385	-200.000	0.005	0.227
-133.370	-104.485	-0.265	-0.060
-132.356	-200.000	-0.023	-0.247
-131.341	-47.457	-0.210	-0.100
-130.326	62.712	-0.139	-0.137
-129.312	23.730	0.138	0.112
-128.297	2.118	-0.150	-0.106
-127.283	800.000	0.046	-0.197
-126.268	40.097	0.016	0.014
-125.253	725.020	-0.144	0.377
-124.239	262.915	-0.064	-0.109
-123.224	82.949	0.166	-0.178
-122.210	-200.000	-0.003	-0.072
-121.195	-44.910	0.222	-0.109
-120.180	-19.968	0.290	0.177
-119.166	-21.513	0.104	0.062
-118.151	-146.512	0.159	-0.014
-117.137	-200.000	0.024	-0.272
-116.122	-200.000	0.060	-0.398
-115.107	-104.357	-0.332	-0.076
-114.093	26.934	-0.099	0.082
-113.078	800.000	0.145	0.396
-112.064	0.178	0.163	0.115
-111.049	-140.019	-0.048	0.005
-110.034	385.404	-0.069	0.140
-109.020	372.245	0.050	0.100
-108.005	328.428	0.068	0.129
-106.991	-36.793	-0.358	0.189
-105.976	-72.110	-0.235	-0.086
-104.962	-131.874	0.216	0.028
-103.947	791.535	0.023	-0.063
-102.932	182.835	0.124	0.180
-101.918	-127.482	0.160	0.023
-100.903	-95.027	0.366	0.098
-99.889	54.016	0.079	0.075
-98.874	65.723	0.098	0.098
-97.859	800.000	-0.127	0.347
-96.845	-93.740	0.195	-0.053
-95.830	76.174	-0.334	-0.348
-94.816	-200.000	0.005	0.229
-93.801	-12.471	-0.242	0.156
-92.786	-200.000	0.025	0.281
-91.772	-83.497	-0.097	0.031
-90.757	-39.675	-0.266	0.137
-89.743	288.299	0.087	-0.156
-88.728	64.285	-0.199	-0.197
-87.713	-120.307	-0.155	-0.026
-86.699	8.363	0.325	0.240
-85.684	425.287	-0.063	-0.133
-84.670	-200.000	0.004	0.067
-83.655	687.877	-0.030	0.078
-82.640	107.581	0.166	-0.194
-81.626	-200.000	0.035	0.184
-80.611	-120.986	-0.264	0.044
-79.597	-83.891	0.371	0.116
-78.582	387.651	-0.074	0.150
-77.567	-155.546	-0.107	-0.007
-76.553	36.199	0.117	0.102
-75.538	-84.485	0.116	0.036
-74.524	-200.000	-0.022	-0.356
-73.509	-200.000	0.012	-0.052
-72.494	-200.000	0.001	0.012
-71.480	349.532	0.116	0.225
-70.465	-103.775	0.348	-0.080
-69.451	800.000	-0.048	-0.173
-68.436	226.768	0.201	-0.321
-67.422	177.651	0.125	-0.180
-66.407	110.194	0.168	0.198
-65.392	131.199	0.343	0.433
-64.378	800.000	0.134	0.532
-63.363	-164.267	-0.466	-0.021
-62.349	-174.446	0.207	0.006
-61.334	33.605	-0.963	-0.823
-60.319	284.880	0.336	0.595
-59.305	-200.000	-0.061	-0.957
-58.290	273.771	0.675	1.173
-57.276	-200.000	0.399	1.814
-56.261	-200.000	95.063	586.890
-55.246	665.579	1368.662	3473.846
-54.232	199.204	2550.569	3841.215
-53.217	114.408	2268.189	2714.384
-52.203	41.893	1895.823	1689.587
-51.188	35.642	1686.046	1455.417
-50.173	32.925	1641.889	1397.175
-49.159	50.191	1687.660	1565.927
-48.144	51.744	1704.151	1592.810
-47.130	35.270	1665.272	1434.474
-46.115	32.448	1650.863	1401.033
-45.100	32.360	1645.927	1396.135
-44.086	32.184	1643.435	1392.669
-43.071	32.180	1641.128	1390.628
-42.057	32.192	1638.581	1388.504
-41.042	32.204	1636.661	1386.907
-40.027	32.268	1634.691	1385.658
-39.013	32.132	1633.205	1383.338
-37.998	32.134	1631.818	1382.122
-36.984	32.231	1629.956	1381.206
-35.969	32.353	1628.596	1380.890
-34.954	32.389	1626.828	1379.602
-33.940	32.234	1624.979	1376.844
-32.925	32.225	1623.431	1375.412
-31.911	32.225	1621.911	1374.067
-30.896	32.234	1619.988	1372.454
-29.881	32.277	1618.364	1371.335
-28.867	32.265	1617.149	1370.164
-27.852	32.306	1615.407	1368.936
-26.838	32.295	1613.763	1367.403
-25.823	32.419	1611.996	1366.752
-24.809	32.346	1610.587	1364.976
-23.794	32.384	1609.214	1364.034
-22.779	32.293	1608.281	1362.527
-21.765	32.328	1606.277	1361.028
-20.750	32.318	1604.662	1359.538
-19.736	32.324	1603.606	1358.630
-18.721	32.391	1602.393	1358.031
-17.706	32.318	1600.811	1356.110
-16.692	32.403	1598.614	1354.813
-15.677	32.349	1597.691	1353.584
-14.663	32.428	1596.380	1352.989
-13.648	32.418	1594.728	1351.463
-12.633	32.307	1593.177	1349.296
-11.619	32.432	1591.368	1348.611
-10.604	32.320	1590.348	1346.888
-9.590	32.288	1589.732	1346.081
-8.575	32.384	1587.785	1345.067
-7.560	32.386	1586.707	1344.118
-6.546	32.373	1585.507	1342.956
-5.531	32.359	1584.133	1341.633
-4.517	32.273	1583.499	1340.434
-3.502	32.257	1581.985	1338.987
-2.487	32.418	1580.606	1338.911
-1.473	31.998	1569.137	1326.175
-0.458	29.400	1549.553	1291.408
0.556	25.538	1549.885	1259.635
1.571	23.205	1573.515	1262.111
2.586	22.630	1586.306	1268.120
3.600	20.097	1531.969	1206.961
4.615	12.159	1424.298	1070.427
5.629	5.696	1361.983	983.067
6.644	4.793	1354.332	971.824
7.659	4.632	1353.042	969.810
8.673	4.577	1352.064	968.676
9.688	4.599	1349.862	967.150
10.702	4.469	1347.389	964.490
11.717	7.543	1353.035	987.588
12.731	14.897	1366.292	1043.215
13.746	19.469	1373.188	1076.990
14.761	19.135	1371.369	1073.382
15.775	18.204	1368.408	1065.176
16.790	17.093	1365.933	1056.250
17.804	16.331	1363.775	1049.753
18.819	15.945	1362.397	1046.202
19.834	15.677	1361.160	1043.493
20.848	15.410	1359.785	1040.694
21.863	15.226	1358.760	1038.675
22.877	15.085	1357.566	1036.798
23.892	15.035	1356.681	1035.722
24.907	15.077	1355.719	1035.157
25.921	15.071	1354.744	1034.281
26.936	15.148	1354.068	1034.148
27.950	15.125	1353.142	1033.209
28.965	15.174	1352.157	1032.664
29.980	15.270	1351.276	1032.492
30.994	15.422	1349.401	1031.905
32.009	15.366	1348.415	1030.718
33.023	15.435	1347.229	1030.144
34.038	15.298	1345.721	1028.058
35.053	15.190	1345.257	1026.948
36.067	15.224	1343.734	1025.904
37.082	15.219	1342.946	1025.181
38.096	15.253	1342.198	1024.727
39.111	15.290	1341.062	1023.997
40.126	15.155	1340.420	1022.593
41.140	14.984	1339.531	1020.779
42.155	14.978	1338.720	1020.032
43.169	14.952	1338.963	1019.970
44.184	14.849	1338.518	1018.913
45.199	14.968	1337.937	1019.106
46.213	15.013	1337.511	1018.967
47.228	15.136	1336.696	1019.002
48.242	14.983	1336.008	1017.454
49.257	15.149	1333.913	1016.781
50.271	15.129	1332.298	1015.335
51.286	15.182	1331.258	1014.778
52.301	15.180	1329.773	1013.545
53.315	15.082	1328.831	1012.141
54.330	14.995	1327.552	1010.550
55.344	14.973	1326.695	1009.680
56.359	14.965	1325.468	1008.606
57.374	15.026	1324.604	1008.230
58.388	14.922	1323.748	1006.861
59.403	14.916	1323.335	1006.424
60.417	14.939	1322.266	1005.660
61.432	14.890	1322.104	1005.152
62.447	14.895	1321.014	1004.266
63.461	14.811	1319.423	1002.459
64.476	14.857	1318.484	1001.937
65.490	14.756	1317.458	1000.463
66.505	14.844	1315.705	999.570
67.520	14.860	1314.814	998.899
68.534	14.920	1313.682	998.307
69.549	14.901	1312.586	997.274
70.563	14.879	1311.434	996.180
71.578	14.652	1310.739	994.210
72.593	14.689	1309.669	993.534
73.607	14.684	1308.623	992.622
74.622	14.680	1308.254	992.232
75.636	14.679	1307.747	991.752
76.651	14.757	1306.655	991.298
77.666	14.740	1306.215	990.773
78.680	14.703	1305.954	990.271
79.695	14.687	1305.540	989.775
80.709	14.771	1304.638	989.502
81.724	14.904	1303.747	989.526
82.739	14.937	1302.889	988.983
83.753	15.078	1302.040	989.081
84.768	15.230	1300.681	988.860
85.782	15.254	1299.533	988.042
86.797	15.136	1298.670	986.604
87.812	15.075	1297.775	985.473
88.826	15.172	1296.378	984.895
89.841	15.136	1295.303	983.784
90.855	15.180	1294.438	983.298
91.870	15.208	1293.247	982.468
92.884	15.186	1292.739	981.869
93.899	15.211	1292.098	981.438
94.914	15.300	1291.109	981.120
95.928	15.357	1290.222	980.693
96.943	15.129	1289.603	978.805
97.957	15.253	1288.179	978.363
98.972	15.256	1287.378	977.687
99.987	15.243	1286.266	976.679
101.001	15.229	1285.477	975.909
102.016	15.230	1284.573	975.143
103.030	15.202	1283.535	974.107
104.045	15.277	1282.619	973.762
105.060	15.194	1281.277	972.172
106.074	14.999	1280.055	970.030
107.089	14.927	1278.552	968.389
108.103	14.884	1277.420	967.196
109.118	15.032	1275.380	966.422
110.133	14.975	1274.470	965.320
111.147	14.932	1272.905	963.797
112.162	14.955	1271.666	962.910
113.176	14.990	1270.933	962.468
114.191	15.118	1269.823	962.281
115.206	15.043	1268.685	960.902
116.220	15.052	1267.496	959.968
117.235	14.958	1266.158	958.331
118.249	14.901	1265.689	957.564
119.264	14.911	1264.552	956.678
120.279	14.875	1263.206	955.365
121.293	14.917	1261.896	954.534
122.308	14.758	1261.188	953.007
123.322	14.756	1260.251	952.198
124.337	14.804	1259.235	951.623
125.352	14.761	1257.916	950.298
126.366	14.871	1256.854	950.036
127.381	14.888	1255.722	949.195
128.395	14.927	1254.962	948.756
129.410	14.930	1254.240	948.144
130.424	14.949	1253.074	947.285
131.439	14.944	1252.062	946.410
132.454	14.940	1251.063	945.546
133.468	14.996	1250.816	945.592
134.483	14.987	1249.780	944.673
135.497	14.971	1248.798	943.760
136.512	15.040	1247.318	942.946
137.527	15.062	1246.124	942.084
138.541	15.036	1244.987	940.996
139.556	15.069	1243.803	940.203
140.570	15.167	1242.866	939.959
141.585	15.213	1241.372	939.007
142.600	15.290	1240.177	938.448
143.614	15.254	1239.902	937.956
144.629	15.269	1238.622	936.988
145.643	15.244	1237.398	935.842
146.658	15.260	1236.333	935.041
147.673	15.229	1235.062	933.825
148.687	15.116	1233.690	932.075
149.702	15.036	1232.462	930.618
150.716	15.034	1231.170	929.551
151.731	14.983	1229.870	928.205
152.746	15.049	1228.796	927.680
153.760	15.113	1227.633	927.072
154.775	15.349	1226.320	927.307
155.789	15.204	1225.746	925.986
156.804	15.178	1224.993	925.194
157.819	15.258	1223.488	924.413
158.833	15.334	1222.735	924.183
159.848	15.424	1221.921	923.979
160.862	15.352	1220.933	922.756
161.877	15.329	1219.274	921.293
162.892	15.184	1218.272	919.659
163.906	15.162	1217.436	918.826
164.921	15.261	1216.570	918.635
165.935	15.136	1216.206	917.594
166.950	15.220	1215.172	917.192
167.964	15.339	1214.298	917.102
168.979	15.256	1213.692	916.112
169.994	15.354	1213.013	916.050
171.008	15.214	1212.797	915.044
172.023	15.368	1211.598	914.898
173.037	15.479	1210.611	914.673
174.052	15.479	1209.751	913.946
175.067	15.285	1209.046	912.275
176.081	15.239	1208.002	911.159
177.096	15.143	1207.482	910.165
178.110	15.338	1206.176	910.155
179.125	15.313	1204.629	908.771
180.140	15.430	1203.142	908.202
181.154	15.280	1202.427	906.775
182.169	15.563	1200.725	906.936
183.183	15.553	1199.665	906.004
184.198	15.640	1198.800	905.736
185.213	15.427	1197.993	903.900
186.227	15.616	1196.444	903.670
187.242	15.595	1195.774	902.968
188.256	15.685	1195.110	902.873
189.271	15.608	1193.943	901.495
190.286	15.432	1193.178	899.899
191.300	15.266	1192.419	898.354
192.315	15.279	1191.078	897.332
193.329	15.369	1190.137	897.028
194.344	15.446	1189.624	896.974
195.359	15.489	1189.436	896.984
196.373	15.408	1188.974	896.123
197.388	15.590	1188.783	896.867
198.402	15.760	1188.445	897.440
199.417	15.754	1187.789	896.836
200.432	15.883	1186.550	896.506
201.446	15.855	1186.167	895.987
202.461	15.934	1185.006	895.452
203.475	16.002	1184.054	895.019
204.490	15.752	1182.767	892.636
205.504	15.692	1181.609	891.369
206.519	15.787	1180.186	890.718
207.534	15.814	1179.261	890.082
208.548	15.803	1178.425	889.315
209.563	15.763	1177.553	888.369
210.577	15.720	1176.930	887.593
211.592	15.775	1176.302	887.331
212.607	15.982	1175.123	887.455
213.621	16.007	1173.964	886.631
214.636	15.916	1173.573	885.781
215.650	15.930	1172.368	884.864
216.665	15.927	1171.852	884.381
217.680	15.994	1170.606	883.714
218.694	16.107	1169.067	883.062
219.709	16.044	1169.273	882.812
220.723	16.032	1168.468	882.064
221.738	16.026	1167.713	881.385
222.753	16.032	1166.749	880.608
223.767	16.056	1166.232	880.267
224.782	16.167	1165.584	880.280
225.796	16.217	1164.881	879.933
226.811	16.213	1164.122	879.262
227.826	16.001	1164.015	877.995
228.840	16.173	1162.940	878.004
229.855	16.099	1162.546	877.241
230.869	16.077	1161.299	876.110
231.884	15.964	1160.343	874.723
232.899	16.091	1159.447	874.629
233.913	16.038	1158.928	873.884
234.928	15.998	1158.168	873.027
235.942	15.883	1157.864	872.125
236.957	16.020	1156.590	871.797
237.972	15.990	1156.158	871.243
238.986	16.202	1155.132	871.488
240.001	16.019	1154.731	870.161
241.015	15.966	1154.285	869.475
242.030	16.154	1152.834	869.272
243.045	16.268	1151.858	869.050
244.059	16.267	1151.593	868.764
245.074	16.259	1151.003	868.203
246.088	16.266	1149.782	867.240
247.103	16.343	1148.760	866.791
248.117	16.310	1148.709	866.506
249.132	16.467	1147.493	866.315
250.147	16.538	1147.203	866.382
251.161	16.774	1146.524	867.003
252.176	16.703	1145.748	865.977
253.190	16.673	1145.400	865.484
254.205	16.788	1144.855	865.579
255.220	16.796	1144.155	865.014
256.234	16.784	1143.650	864.498
257.249	16.790	1142.488	863.571
258.263	16.674	1142.356	862.807
259.278	16.744	1141.348	862.322
260.293	16.843	1140.731	862.284
261.307	16.846	1140.686	862.189
262.322	16.931	1139.352	861.539
263.336	16.889	1138.970	860.960
264.351	16.940	1138.368	860.685
265.366	16.794	1137.805	859.443
266.380	16.821	1136.996	858.891
267.395	16.866	1135.932	858.242
268.409	16.808	1135.114	857.256
269.424	16.847	1134.774	857.120
270.439	16.847	1134.076	856.514
271.453	16.779	1133.443	855.618
272.468	16.714	1132.263	854.322
273.482	16.693	1131.561	853.612
274.497	16.731	1130.850	853.194
275.512	16.796	1130.584	853.246
276.526	16.817	1129.734	852.633
277.541	16.772	1129.056	851.822
278.555	16.868	1128.178	851.565
279.570	16.933	1127.619	851.395
280.585	16.957	1127.012	850.981
281.599	17.148	1125.621	850.811
282.614	16.973	1124.752	849.201
283.628	16.869	1123.991	848.034
284.643	17.012	1122.665	847.672
285.657	16.949	1122.053	846.819
286.672	17.008	1121.118	846.334
287.687	16.963	1120.290	845.412
288.701	17.036	1119.768	845.306
289.716	17.070	1118.529	844.465
290.730	17.077	1117.659	843.769
291.745	17.133	1117.378	843.758
292.760	17.080	1116.567	842.809
293.774	17.087	1116.022	842.356
294.789	17.150	1115.924	842.523
295.803	17.206	1115.033	842.051
296.818	17.167	1114.342	841.261
297.833	17.193	1113.166	840.426
298.847	17.129	1112.778	839.745
299.862	17.179	1111.795	839.175
300.876	17.192	1111.417	838.879
301.891	17.284	1110.811	838.803
302.906	17.418	1109.971	838.754
303.920	17.476	1109.101	838.308
304.935	17.521	1108.499	838.001
305.949	17.473	1107.958	837.282
306.964	17.476	1107.104	836.576
307.979	17.511	1106.479	836.202
308.993	17.414	1105.889	835.208
310.008	17.610	1105.085	835.487
311.022	17.466	1104.497	834.264
312.037	17.509	1103.795	833.868
313.052	17.466	1102.562	832.654
314.066	17.472	1101.365	831.704
315.081	17.273	1100.801	830.232
316.095	17.222	1100.440	829.639
317.110	17.266	1099.501	829.070
318.125	17.277	1098.574	828.355
319.139	17.355	1098.140	828.333
320.154	17.231	1097.733	827.350
321.168	17.295	1096.961	827.003
322.183	17.298	1096.262	826.418
323.197	17.432	1095.579	826.484
324.212	17.423	1094.778	825.762
325.227	17.515	1094.249	825.733
326.241	17.446	1093.863	825.035
327.256	17.373	1093.236	824.136
328.270	17.486	1091.925	823.625
329.285	17.459	1091.192	822.868
330.300	17.403	1090.288	821.840
331.314	17.425	1089.193	821.048
332.329	17.444	1088.564	820.595
333.343	17.448	1087.813	819.973
334.358	17.673	1086.787	820.212
335.373	17.692	1086.061	819.681
336.387	17.686	1085.224	818.950
337.402	17.503	1085.046	817.862
338.416	17.667	1084.251	817.979
339.431	17.605	1083.559	817.088
340.446	17.806	1083.194	817.702
341.460	17.793	1082.523	817.061
342.475	18.056	1081.031	817.120
343.489	17.897	1079.991	815.506
344.504	17.874	1079.835	815.202
345.519	18.036	1078.707	815.053
346.533	18.057	1077.983	814.533
347.548	18.118	1076.943	813.965
348.562	18.054	1076.442	813.212
349.577	17.904	1075.816	811.951
350.592	17.895	1074.546	810.879
351.606	17.775	1074.246	810.012
352.621	17.831	1073.372	809.545
353.635	17.854	1072.558	808.968
354.650	17.881	1071.925	808.547
355.665	17.900	1071.060	807.916
356.679	17.909	1070.663	807.584
357.694	17.933	1070.534	807.529
358.708	18.062	1069.650	807.404
359.723	18.022	1069.146	806.759
360.738	18.184	1068.004	806.595
361.752	18.058	1067.732	805.720
362.767	18.022	1067.305	805.159
363.781	17.885	1067.132	804.312
364.796	18.100	1066.148	804.512
365.810	18.268	1065.423	804.680
366.825	18.334	1064.971	804.579
367.840	18.218	1064.597	803.681
368.854	18.428	1064.184	804.285
369.869	18.369	1063.438	803.373
370.883	18.362	1062.535	802.587
371.898	18.148	1061.836	800.983
372.913	18.312	1060.943	801.006
373.927	18.356	1060.408	800.737
374.942	18.351	1060.196	800.483
375.956	18.409	1059.433	800.110
376.971	18.369	1058.791	799.366
377.986	18.336	1058.645	799.033
379.000	18.561	1057.755	799.336
380.015	18.568	1057.228	798.902
381.029	18.606	1056.556	798.502
382.044	18.515	1055.808	797.440
383.059	18.625	1054.788	797.111
384.073	18.526	1054.513	796.371
385.088	18.500	1053.476	795.399
386.102	18.465	1052.706	794.583
387.117	18.482	1051.490	793.673
388.132	18.359	1050.799	792.514
389.146	18.456	1050.011	792.296
390.161	18.467	1049.237	791.695
391.175	18.553	1048.586	791.529
392.190	18.522	1047.804	790.726
393.205	18.665	1046.967	790.684
394.219	18.679	1046.354	790.217
395.234	18.667	1045.239	789.251
396.248	18.625	1044.345	788.313
397.263	18.520	1043.531	787.144
398.278	18.401	1043.111	786.213
399.292	18.472	1042.383	785.919
400.307	18.398	1041.300	784.696
401.321	18.422	1040.822	784.373
402.336	18.458	1040.331	784.102
403.350	18.462	1039.792	783.641
404.365	18.410	1038.929	782.687
405.380	18.560	1037.987	782.592
406.394	18.721	1037.367	782.791
407.409	18.729	1036.840	782.355
408.423	18.768	1036.150	781.945
409.438	18.914	1035.199	781.824
410.453	18.856	1034.822	781.205
411.467	18.923	1034.004	780.822
412.482	18.989	1033.519	780.689
413.496	18.974	1032.775	779.990
414.511	18.950	1032.335	779.478
415.526	19.063	1031.814	779.529
416.540	19.140	1031.705	779.726
417.555	19.018	1030.971	778.547
418.569	19.124	1029.897	778.147
419.584	19.012	1029.816	777.512
420.599	19.074	1029.311	777.341
421.613	151.079	1400.501	1793.842
422.628	137.812	1454.586	1793.913
