DTS Sentinel unit serial number:	SN413079Multiplexer serial number:	ORYXHardware model number:	OX4-SRSoftware version number:	ORYX F/W v4.00 Oryx Data Collector v3.7.2.0data status	okinstallation	princeton_trtdifferential loss correction	single-endedforward channel	channel 2reverse channel	N/Adate	2019/09/18time	14:03:35forward acquisition time	60.00reverse acquisition time	0.00gamma	496.2192k internal	0.2319k external	0.2319temperature offset calibration	0.9998default loss term (dB/km)	0.3790temperature slope calibration	1.0000multiplexer offset coefficient	1.0000multiplexer slope coefficient	1.0000fibre end	0.00T internal ref (°C)	34.45T ext. ref 1 (°C)	0.66T ext. ref 2 (°C)	28.87length (m)	temperature (°C)	Stokes	anti-Stokes-747.200	-154.737	0.070	-0.005
-746.185	-58.819	-0.301	0.132
-745.171	800.000	-0.112	-0.347
-744.156	80.179	-0.233	-0.254
-743.142	18.231	0.217	0.175
-742.127	70.279	0.138	0.144
-741.112	-61.189	0.279	-0.119
-740.098	-120.896	-0.241	0.041
-739.083	493.726	0.070	0.162
-738.069	-200.000	-0.049	0.401
-737.054	-115.534	-0.107	-0.020
-736.039	106.508	0.096	0.115
-735.025	82.089	-0.047	0.051
-734.010	-109.279	0.037	-0.008
-732.996	-35.020	0.105	0.058
-731.981	24.495	0.439	0.368
-730.966	-200.000	-0.028	0.241
-729.952	-89.684	-0.026	-0.008
-728.937	-21.494	0.138	0.085
-727.923	-200.000	0.011	-0.109
-726.908	103.987	-0.120	0.142
-725.894	116.333	-0.186	-0.230
-724.879	84.237	0.165	0.182
-723.864	-45.913	-0.028	0.014
-722.850	211.684	0.189	-0.300
-721.835	-200.000	0.014	0.226
-720.821	-200.000	-0.017	-0.093
-719.806	424.926	0.062	-0.135
-718.791	800.000	-0.106	-0.338
-717.777	508.577	0.135	0.317
-716.762	-52.851	0.276	0.128
-715.748	45.283	-0.105	-0.098
-714.733	295.965	-0.077	-0.142
-713.718	334.483	0.112	-0.218
-712.704	45.564	-0.224	-0.209
-711.689	95.027	-0.136	0.156
-710.675	659.480	-0.032	-0.082
-709.660	71.370	0.253	-0.265
-708.645	35.997	-0.131	0.117
-707.631	-200.000	-0.002	0.117
-706.616	-105.509	0.196	0.045
-705.602	522.808	-0.168	0.399
-704.587	-185.770	-0.369	-0.006
-703.572	65.517	0.294	-0.300
-702.558	-200.000	0.013	-0.222
-701.543	327.880	-0.044	0.086
-700.529	-200.000	0.015	-0.240
-699.514	492.983	0.067	-0.154
-698.499	211.864	-0.132	-0.210
-697.485	298.314	-0.105	-0.194
-696.470	665.776	-0.048	0.126
-695.456	-200.000	0.031	-0.147
-694.441	-176.786	-0.187	0.005
-693.426	-136.765	0.074	0.009
-692.412	-200.000	-0.026	0.341
-691.397	-129.599	-0.102	-0.014
-690.383	-54.942	0.059	0.027
-689.368	191.322	0.048	0.073
-688.354	232.315	0.090	-0.149
-687.339	-75.454	0.400	0.144
-686.324	317.631	0.026	-0.050
-685.310	-90.409	-0.161	-0.047
-684.295	10.797	0.066	0.051
-683.281	-157.807	-0.049	-0.003
-682.266	-149.179	0.284	-0.023
-681.251	-22.008	-0.271	0.166
-680.237	144.328	-0.211	-0.284
-679.222	-91.796	0.386	-0.111
-678.208	-149.631	0.257	-0.020
-677.193	661.324	-0.141	0.366
-676.178	-82.909	0.164	0.054
-675.164	247.133	0.181	-0.308
-674.149	-13.454	-0.096	0.063
-673.135	34.871	0.151	0.133
-672.120	164.580	0.023	-0.033
-671.105	-124.693	0.204	0.032
-670.091	-169.503	-0.087	-0.003
-669.076	68.525	-0.252	0.260
-668.062	-200.000	0.029	0.233
-667.047	-25.115	-0.208	0.124
-666.032	800.000	0.087	0.310
-665.018	150.728	-0.171	-0.234
-664.003	73.502	0.193	-0.204
-662.989	41.755	-0.187	-0.171
-661.974	-64.777	0.221	0.090
-660.959	-36.456	-0.265	-0.144
-659.945	-200.000	0.024	0.192
-658.930	498.499	0.050	0.115
-657.916	-200.000	0.027	0.149
-656.901	-57.942	-0.379	-0.167
-655.886	464.264	0.043	-0.098
-654.872	-84.268	-0.139	0.044
-653.857	-200.000	-0.006	-0.230
-652.843	-53.807	0.260	-0.120
-651.828	-200.000	0.021	-0.262
-650.814	744.864	-0.106	0.288
-649.799	-33.715	0.283	0.157
-648.784	171.542	-0.111	0.160
-647.770	30.345	-0.190	0.164
-646.755	-200.000	0.017	-0.111
-645.741	119.644	-0.041	0.052
-644.726	-32.107	0.199	0.112
-643.711	-193.017	-0.385	0.003
-642.697	-200.000	-0.013	0.224
-641.682	-157.578	-0.201	-0.012
-640.668	-33.487	-0.356	-0.198
-639.653	-136.283	-0.377	-0.044
-638.638	153.947	0.154	-0.213
-637.624	122.391	0.073	0.092
-636.609	-89.898	0.157	0.046
-635.595	636.524	0.073	-0.187
-634.580	269.860	0.078	-0.138
-633.565	-57.024	-0.190	0.084
-632.551	-200.000	0.018	-0.109
-631.536	152.428	-0.021	0.029
-630.522	88.470	0.143	-0.160
-629.507	-200.000	0.088	0.476
-628.492	-76.916	0.327	-0.115
-627.478	114.549	0.097	0.119
-626.463	-200.000	-0.015	0.132
-625.449	-47.582	0.235	0.115
-624.434	-200.000	-0.036	-0.230
-623.419	-160.690	0.229	-0.012
-622.405	-200.000	-0.028	0.206
-621.390	-39.549	0.440	0.232
-620.376	800.000	-0.040	0.146
-619.361	-26.144	-0.397	-0.235
-618.346	-83.677	0.154	-0.049
-617.332	80.002	-0.170	-0.184
-616.317	-27.386	0.206	0.121
-615.303	-4.725	0.192	0.133
-614.288	-96.496	0.299	0.080
-613.273	56.068	0.272	-0.266
-612.259	-167.390	-0.455	-0.018
-611.244	-35.352	-0.306	-0.168
-610.230	647.726	0.081	-0.209
-609.215	-38.643	0.357	0.190
-608.201	-200.000	0.005	-0.069
-607.186	22.063	0.256	-0.211
-606.171	-200.000	-0.017	-0.190
-605.157	226.276	0.103	-0.167
-604.142	97.314	-0.143	-0.165
-603.128	97.356	-0.083	-0.095
-602.113	-151.579	0.439	0.033
-601.098	-200.000	0.286	0.001
-600.084	198.924	-0.186	-0.286
-599.069	131.015	-0.117	-0.151
-598.055	2.352	0.228	-0.166
-597.040	54.821	0.158	-0.154
-596.025	-47.005	-0.178	-0.088
-595.011	-61.224	0.374	-0.159
-593.996	61.998	0.205	-0.205
-592.982	42.814	0.091	-0.083
-591.967	-200.000	0.032	0.228
-590.952	-133.194	-0.260	0.033
-589.938	-20.375	-0.064	0.040
-588.923	183.007	-0.158	-0.234
-587.909	-200.000	-0.023	0.227
-586.894	-143.035	0.271	0.026
-585.879	706.410	0.115	0.306
-584.865	-121.471	0.366	0.061
-583.850	206.148	0.131	-0.206
-582.836	37.860	-0.196	0.175
-581.821	-200.000	-0.026	0.408
-580.806	92.500	0.087	0.099
-579.792	-5.615	0.189	0.130
-578.777	-190.387	-0.222	0.002
-577.763	-36.294	0.103	-0.056
-576.748	-73.672	-0.381	-0.139
-575.733	-72.258	0.177	-0.066
-574.719	-98.466	0.083	0.021
-573.704	518.045	0.024	-0.057
-572.690	-30.630	0.316	-0.180
-571.675	-194.179	0.340	-0.003
-570.661	-200.000	-0.023	0.112
-569.646	257.991	0.098	0.170
-568.631	174.771	0.106	0.154
-567.617	34.802	-0.077	0.067
-566.602	222.547	0.122	-0.197
-565.588	-200.000	-0.004	0.145
-564.573	-121.361	0.374	-0.063
-563.558	189.253	0.087	-0.131
-562.544	-200.000	-0.063	0.371
-561.529	800.000	-0.027	0.105
-560.515	-200.000	-0.002	-0.172
-559.500	416.957	0.070	-0.151
-558.485	-200.000	-0.008	-0.078
-557.471	-200.000	0.013	-0.112
-556.456	14.944	0.043	0.033
-555.442	100.759	-0.022	0.025
-554.427	-145.751	0.041	-0.004
-553.412	184.788	-0.054	0.080
-552.398	102.093	-0.195	0.229
-551.383	-77.296	0.219	-0.076
-550.369	-200.000	0.018	-0.194
-549.354	-200.000	-0.000	-0.056
-548.339	-81.809	-0.169	0.055
-547.325	-131.046	-0.349	-0.047
-546.310	800.000	0.073	0.308
-545.296	-174.184	0.016	0.000
-544.281	-32.014	0.262	-0.147
-543.266	-200.000	0.029	0.164
-542.252	197.555	0.016	-0.024
-541.237	111.696	0.122	0.148
-540.223	53.349	0.356	-0.343
-539.208	-42.462	0.060	-0.031
-538.193	-32.820	-0.329	0.184
-537.179	61.528	0.210	-0.210
-536.164	116.295	-0.118	0.146
-535.150	158.267	0.115	-0.161
-534.135	122.988	0.052	0.065
-533.121	-35.873	-0.069	-0.037
-532.106	41.988	-0.137	0.125
-531.091	242.768	0.202	-0.340
-530.077	52.898	0.096	-0.092
-529.062	82.555	-0.189	-0.206
-528.048	90.210	-0.101	0.114
-527.033	-200.000	-0.004	0.106
-526.018	670.505	-0.077	-0.201
-525.004	130.250	0.118	0.151
-523.989	193.277	-0.031	0.047
-522.975	40.317	-0.093	-0.084
-521.960	-149.572	0.203	0.016
-520.945	-200.000	0.032	0.157
-519.931	156.578	-0.319	0.442
-518.916	-200.000	0.044	0.285
-517.902	-200.000	0.019	-0.152
-516.887	800.000	-0.088	-0.270
-515.872	-116.290	0.318	0.059
-514.858	-11.628	0.309	-0.203
-513.843	-200.000	-0.026	0.146
-512.829	-89.424	-0.233	0.069
-511.814	213.401	-0.064	0.102
-510.799	-84.495	0.161	-0.051
-509.785	-141.001	0.268	0.028
-508.770	-200.000	-0.009	0.207
-507.756	61.080	-0.144	-0.143
-506.741	260.579	-0.157	-0.273
-505.726	-63.842	0.236	-0.097
-504.712	98.689	0.092	-0.106
-503.697	660.796	-0.188	-0.486
-502.683	604.065	-0.098	0.245
-501.668	-105.800	0.398	0.090
-500.653	-76.757	-0.218	0.077
-499.639	-114.575	-0.219	0.042
-498.624	-125.508	-0.171	0.026
-497.610	42.432	0.101	0.092
-496.595	82.303	-0.077	0.084
-495.581	-180.818	0.375	0.008
-494.566	-151.399	-0.170	0.013
-493.551	-93.966	-0.041	-0.011
-492.537	-200.000	0.016	0.247
-491.522	40.587	0.132	0.119
-490.508	599.259	0.098	0.245
-489.493	182.295	-0.118	-0.175
-488.478	-176.865	-0.180	-0.005
-487.464	-107.760	0.092	-0.020
-486.449	0.619	0.297	0.213
-485.435	-159.085	-0.096	-0.005
-484.420	-171.426	0.112	0.004
-483.405	-200.000	-0.029	0.295
-482.391	163.315	-0.144	0.203
-481.376	-189.510	0.135	-0.002
-480.362	-200.000	0.038	-0.298
-479.347	-130.306	-0.548	0.075
-478.332	222.088	-0.217	-0.349
-477.318	-180.473	0.276	-0.006
-476.303	-200.000	-0.017	0.129
-475.289	-200.000	-0.002	-0.142
-474.274	-200.000	0.033	-0.214
-473.259	37.552	0.218	-0.194
-472.245	135.244	-0.137	-0.179
-471.230	-200.000	0.036	-0.171
-470.216	-93.362	-0.227	-0.063
-469.201	-200.000	-0.041	0.183
-468.186	116.462	-0.168	0.206
-467.172	-200.000	0.080	0.670
-466.157	-200.000	-0.026	0.197
-465.143	-200.000	0.010	0.322
-464.128	-184.072	0.180	0.003
-463.113	-78.694	-0.257	-0.088
-462.099	800.000	0.089	0.280
-461.084	-138.978	0.061	-0.007
-460.070	45.097	-0.228	-0.210
-459.055	621.110	-0.030	-0.076
-458.040	-99.945	-0.214	0.053
-457.026	-72.915	0.175	-0.065
-456.011	-200.000	0.022	0.230
-454.997	385.388	-0.051	0.106
-453.982	-126.160	-0.475	0.071
-452.968	-200.000	-0.018	0.343
-451.953	-200.000	-0.017	0.198
-450.938	94.546	0.061	-0.069
-449.924	-184.611	-0.311	-0.005
-448.909	-81.807	-0.292	-0.096
-447.895	54.646	0.226	-0.218
-446.880	800.000	-0.087	0.324
-445.865	28.558	-0.086	-0.073
-444.851	43.209	0.164	0.150
-443.836	-39.016	-0.223	-0.117
-442.822	800.000	0.075	-0.301
-441.807	800.000	-0.058	-0.165
-440.792	289.726	0.109	-0.198
-439.778	-131.980	-0.142	-0.019
-438.763	131.989	0.197	0.254
-437.749	-18.238	-0.217	0.135
-436.734	-112.140	0.040	-0.008
-435.719	16.358	-0.030	-0.024
-434.705	482.181	-0.206	-0.467
-433.690	-55.527	-0.245	-0.110
-432.676	-200.000	0.040	-0.340
-431.661	71.635	0.122	-0.127
-430.646	86.490	-0.210	0.231
-429.632	-34.274	0.377	-0.207
-428.617	800.000	-0.019	-0.072
-427.603	800.000	-0.062	0.205
-426.588	-139.263	-0.180	0.019
-425.573	-105.789	-0.289	-0.065
-424.559	233.905	-0.052	-0.086
-423.544	-87.235	-0.080	-0.024
-422.530	-128.044	-0.267	-0.038
-421.515	-200.000	0.000	-0.447
-420.500	-200.000	0.036	0.436
-419.486	-5.214	0.279	-0.192
-418.471	141.711	-0.204	0.270
-417.457	-147.976	-0.153	-0.013
-416.442	800.000	0.111	0.340
-415.428	-200.000	0.049	-0.474
-414.413	-34.693	-0.197	0.108
-413.398	95.180	-0.121	-0.137
-412.384	-137.617	-0.196	-0.022
-411.369	-68.345	0.080	0.031
-410.355	-200.000	-0.016	-0.247
-409.340	-87.040	0.145	-0.044
-408.325	176.569	0.131	-0.191
-407.311	424.374	-0.089	-0.192
-406.296	-200.000	-0.031	0.323
-405.282	-200.000	0.037	0.325
-404.267	216.844	0.035	0.055
-403.252	-23.999	-0.083	0.050
-402.238	714.251	0.083	-0.219
-401.223	-64.362	-0.363	0.147
-400.209	68.842	-0.121	-0.124
-399.194	-56.047	0.251	0.112
-398.179	55.159	0.030	-0.029
-397.165	-200.000	0.004	0.123
-396.150	-83.309	-0.232	0.074
-395.136	-158.765	0.431	-0.025
-394.121	30.806	-0.161	-0.138
-393.106	-200.000	0.030	-0.247
-392.092	13.543	0.326	0.253
-391.077	-200.000	-0.031	0.249
-390.063	49.954	-0.120	-0.113
-389.048	800.000	-0.015	0.042
-388.033	800.000	-0.087	-0.363
-387.019	-111.409	-0.153	-0.031
-386.004	-120.856	-0.418	0.070
-384.990	-200.000	-0.021	0.428
-383.975	-166.957	0.140	-0.006
-382.960	165.876	-0.070	-0.099
-381.946	-133.815	-0.107	0.013
-380.931	83.459	-0.139	0.151
-379.917	-114.007	0.218	0.042
-378.902	17.867	0.040	-0.032
-377.888	-10.978	0.103	0.068
-376.873	123.306	-0.147	0.184
-375.858	-65.581	-0.094	-0.037
-374.844	800.000	-0.016	-0.063
-373.829	-83.406	0.065	-0.021
-372.815	-110.812	0.198	-0.041
-371.800	220.818	-0.024	0.038
-370.785	427.676	0.024	0.052
-369.771	-200.000	-0.061	0.365
-368.756	288.970	0.014	0.025
-367.742	-200.000	-0.010	0.287
-366.727	-160.468	0.511	-0.027
-365.712	-111.414	-0.299	-0.061
-364.698	361.005	0.063	0.126
-363.683	47.092	-0.239	-0.221
-362.669	-34.043	-0.070	0.038
-361.654	-200.000	-0.054	0.265
-360.639	75.736	-0.106	-0.112
-359.625	-102.368	0.290	-0.069
-358.610	-102.077	0.182	0.044
-357.596	-179.866	-0.406	0.009
-356.581	-74.992	0.420	-0.150
-355.566	-105.074	0.154	-0.035
-354.552	-48.060	0.139	-0.067
-353.537	42.105	-0.319	-0.288
-352.523	-200.000	-0.034	0.164
-351.508	62.890	-0.144	0.144
-350.493	2.990	0.167	0.121
-349.479	-47.788	-0.187	0.090
-348.464	337.005	0.044	0.085
-347.450	800.000	-0.025	0.091
-346.435	490.212	-0.078	0.177
-345.420	-55.535	0.164	-0.073
-344.406	-57.047	-0.104	-0.046
-343.391	-125.434	0.091	0.014
-342.377	800.000	0.030	0.097
-341.362	800.000	0.065	-0.279
-340.348	-75.967	0.019	-0.007
-339.333	-88.725	-0.267	0.079
-338.318	611.613	-0.034	-0.084
-337.304	253.447	0.090	-0.152
-336.289	122.021	0.017	0.021
-335.275	-200.000	0.027	-0.169
-334.260	-137.892	0.050	0.006
-333.245	-132.097	-0.089	0.011
-332.231	683.408	-0.049	-0.127
-331.216	-138.144	0.168	0.019
-330.202	-200.000	0.056	0.293
-329.187	318.741	0.017	0.032
-328.172	-200.000	-0.035	-0.214
-327.158	-200.000	0.011	0.295
-326.143	-144.570	0.151	-0.014
-325.129	-54.091	-0.181	0.082
-324.114	6.536	-0.033	-0.024
-323.099	-65.092	-0.236	-0.095
-322.085	-144.834	-0.147	0.013
-321.070	-162.395	-0.386	0.019
-320.056	-24.207	-0.151	-0.090
-319.041	-45.590	0.165	-0.081
-318.026	30.959	0.108	-0.092
-317.012	-148.486	-0.131	-0.011
-315.997	-97.978	0.176	-0.045
-314.983	-200.000	0.022	-0.243
-313.968	590.804	-0.139	-0.342
-312.953	-200.000	0.052	-0.337
-311.939	697.182	0.083	0.217
-310.924	-200.000	-0.019	0.219
-309.910	75.515	0.265	-0.279
-308.895	483.812	0.044	0.100
-307.880	-200.000	0.005	0.203
-306.866	800.000	-0.078	0.291
-305.851	-100.914	-0.221	-0.054
-304.837	-112.290	-0.268	0.054
-303.822	-83.039	-0.093	-0.030
-302.807	-172.565	-0.097	0.003
-301.793	45.301	0.125	0.115
-300.778	6.047	0.267	0.197
-299.764	-46.300	0.271	0.133
-298.749	9.126	0.248	-0.186
-297.735	5.058	-0.291	-0.213
-296.720	-36.916	-0.263	0.140
-295.705	-142.151	0.456	0.045
-294.691	122.131	-0.166	-0.206
-293.676	-200.000	-0.012	-0.102
-292.662	-200.000	-0.054	-0.330
-291.647	329.392	-0.128	0.245
-290.632	-14.484	0.322	-0.206
-289.618	700.266	0.077	-0.201
-288.603	96.199	0.041	-0.047
-287.589	-192.309	0.186	-0.002
-286.574	-83.128	-0.129	-0.041
-285.559	-200.000	0.036	-0.295
-284.545	322.217	-0.095	-0.179
-283.530	8.849	0.293	-0.219
-282.516	136.434	-0.149	0.194
-281.501	800.000	-0.046	-0.131
-280.486	-194.859	0.046	0.000
-279.472	324.892	0.098	0.187
-278.457	257.259	0.040	-0.068
-277.443	-51.794	-0.211	0.098
-276.428	-200.000	0.036	0.227
-275.413	139.733	0.126	0.165
-274.399	-15.232	-0.141	-0.090
-273.384	-97.504	-0.073	0.019
-272.370	-7.017	0.235	0.158
-271.355	-200.000	-0.007	-0.068
-270.340	-30.762	-0.112	0.063
-269.326	800.000	0.075	0.256
-268.311	-200.000	-0.064	-0.282
-267.297	-200.000	0.022	-0.146
-266.282	-171.127	-0.170	0.006
-265.267	62.486	-0.214	0.212
-264.253	-200.000	-0.018	-0.331
-263.238	-94.750	0.170	-0.046
-262.224	150.678	-0.129	0.174
-261.209	800.000	0.049	0.174
-260.195	87.075	0.263	-0.288
-259.180	-124.635	-0.196	0.030
-258.165	-200.000	0.004	-0.256
-257.151	103.369	0.096	0.112
-256.136	134.255	0.061	-0.078
-255.122	-73.050	0.287	-0.104
-254.107	5.948	-0.190	-0.140
-253.092	-121.265	-0.100	0.017
-252.078	641.336	0.152	0.383
-251.063	774.967	0.025	-0.067
-250.049	-100.864	0.108	-0.026
-249.034	149.839	-0.138	-0.185
-248.019	800.000	-0.047	-0.149
-247.005	-68.609	-0.262	0.101
-245.990	-37.571	-0.030	0.016
-244.976	-8.691	-0.114	0.076
-243.961	78.879	0.360	0.382
-242.946	431.022	0.155	0.332
-241.932	-17.623	0.219	0.136
-240.917	800.000	-0.095	-0.272
-239.903	-200.000	-0.049	-0.262
-238.888	414.712	-0.218	-0.460
-237.873	-41.325	-0.251	0.128
-236.859	800.000	-0.032	0.125
-235.844	-74.931	0.172	-0.061
-234.830	404.773	0.101	-0.212
-233.815	-125.212	0.105	-0.016
-232.800	35.085	0.260	-0.226
-231.786	55.704	0.123	0.118
-230.771	705.687	0.069	0.180
-229.757	289.534	-0.126	-0.227
-228.742	662.457	-0.115	0.294
-227.727	-18.096	-0.204	-0.127
-226.713	-39.355	0.122	0.064
-225.698	-131.763	0.132	-0.017
-224.684	-160.154	0.125	0.007
-223.669	74.213	-0.214	0.223
-222.655	-110.663	-0.086	0.018
-221.640	-51.496	-0.072	-0.033
-220.625	83.636	-0.290	-0.313
-219.611	-132.142	-0.243	0.031
-218.596	131.891	-0.069	0.088
-217.582	-57.334	0.272	0.119
-216.567	-83.030	-0.093	0.030
-215.552	492.619	0.042	0.094
-214.538	-200.000	-0.010	0.109
-213.523	-200.000	0.062	-0.383
-212.509	164.322	-0.195	0.273
-211.494	-115.072	0.052	0.010
-210.479	-96.655	-0.382	0.100
-209.465	539.754	0.076	-0.179
-208.450	-200.000	0.028	-0.213
-207.436	142.657	-0.130	-0.171
-206.421	1.324	0.208	0.148
-205.406	800.000	-0.148	0.439
-204.392	-200.000	-0.018	-0.221
-203.377	800.000	0.099	-0.373
-202.363	-81.316	-0.187	0.061
-201.348	800.000	0.094	0.295
-200.333	-79.531	0.183	0.061
-199.319	166.823	0.091	-0.127
-198.304	210.674	-0.300	-0.467
-197.290	-200.000	-0.001	0.096
-196.275	245.269	-0.042	0.069
-195.260	-88.884	-0.292	0.086
-194.246	-200.000	0.015	0.214
-193.231	9.871	0.262	-0.197
-192.217	41.787	0.141	-0.127
-191.202	-148.864	0.164	-0.013
-190.187	-2.723	-0.278	-0.193
-189.173	278.259	0.192	0.339
-188.158	-161.533	0.158	0.008
-187.144	221.145	0.070	0.112
-186.129	-118.662	-0.177	0.031
-185.114	101.864	-0.102	0.117
-184.100	-200.000	0.050	-0.484
-183.085	69.078	0.066	0.067
-182.071	-200.000	-0.025	-0.342
-181.056	-200.000	0.038	0.172
-180.042	788.652	0.073	0.199
-179.027	-200.000	-0.010	0.049
-178.012	199.085	-0.322	0.489
-176.998	800.000	0.086	-0.305
-175.983	316.843	-0.016	0.031
-174.969	48.088	0.194	-0.180
-173.954	37.537	0.109	0.096
-172.939	-200.000	0.103	0.473
-171.925	84.642	-0.158	0.171
-170.910	-132.580	-0.500	-0.063
-169.896	-200.000	-0.040	-0.190
-168.881	-109.868	0.123	0.026
-167.866	800.000	-0.094	0.316
-166.852	-11.254	0.210	-0.137
-165.837	508.153	0.013	-0.030
-164.823	739.358	-0.024	0.064
-163.808	-200.000	-0.017	0.354
-162.793	-41.547	0.030	-0.015
-161.779	474.914	-0.099	0.221
-160.764	-200.000	0.054	-0.234
-159.750	428.491	0.057	-0.122
-158.735	-200.000	0.038	-0.182
-157.720	-86.584	-0.102	0.031
-156.706	365.823	-0.064	0.127
-155.691	-119.146	-0.304	0.052
-154.677	-200.000	-0.027	-0.382
-153.662	800.000	0.115	0.403
-152.647	800.000	0.071	-0.221
-151.633	-76.031	-0.033	-0.011
-150.618	505.989	-0.101	-0.230
-149.604	73.108	0.178	0.184
-148.589	-200.000	-0.010	-0.192
-147.574	-200.000	0.002	0.071
-146.560	-200.000	0.055	-0.337
-145.545	235.766	-0.038	0.062
-144.531	460.521	0.163	0.359
-143.516	523.873	-0.056	-0.129
-142.502	-200.000	-0.045	0.301
-141.487	-37.932	0.241	-0.126
-140.472	-200.000	-0.002	0.224
-139.458	-94.454	-0.476	0.128
-138.443	287.830	0.063	-0.114
-137.429	-45.912	-0.223	0.109
-136.414	105.034	-0.187	0.218
-135.399	-200.000	0.015	0.157
-134.385	239.895	0.169	0.278
-133.370	-18.438	-0.430	0.265
-132.356	50.778	-0.119	0.112
-131.341	-81.799	-0.022	-0.007
-130.326	800.000	-0.052	0.165
-129.312	111.660	0.073	-0.087
-128.297	-200.000	0.031	-0.168
-127.283	-122.608	0.239	-0.038
-126.268	58.147	0.083	-0.081
-125.253	-85.141	0.192	0.059
-124.239	432.646	-0.180	-0.385
-123.224	171.098	-0.027	0.038
-122.210	309.619	-0.056	-0.103
-121.195	65.158	-0.190	0.189
-120.180	800.000	0.058	0.233
-119.166	463.277	-0.097	0.215
-118.151	-55.390	0.423	-0.187
-117.137	211.449	0.041	0.064
-116.122	-64.407	0.275	-0.111
-115.107	424.693	0.062	0.132
-114.093	-36.407	0.342	0.182
-113.078	-118.866	-0.472	0.082
-112.064	-200.000	0.003	-0.538
-111.049	48.415	-0.190	-0.176
-110.034	110.092	-0.071	0.084
-109.020	207.714	-0.162	-0.250
-108.005	533.054	0.061	0.143
-106.991	179.525	-0.055	0.080
-105.976	-200.000	-0.027	-0.128
-104.962	-119.977	0.199	0.034
-103.947	800.000	0.047	0.142
-102.932	337.679	-0.103	0.198
-101.918	146.791	0.147	-0.195
-100.903	-192.898	0.136	0.001
-99.889	-9.520	0.235	-0.155
-98.874	-200.000	-0.008	0.123
-97.859	-92.978	-0.136	0.037
-96.845	428.074	0.064	-0.137
-95.830	-200.000	0.020	0.233
-94.816	-57.551	0.042	-0.018
-93.801	-182.870	0.449	-0.008
-92.786	280.030	0.140	-0.246
-91.772	63.144	0.214	-0.211
-90.757	-92.218	0.294	-0.082
-89.743	-9.427	-0.170	-0.112
-88.728	800.000	0.065	0.221
-87.713	800.000	0.017	0.074
-86.699	-117.799	-0.128	0.023
-85.684	-112.837	-0.075	0.015
-84.670	585.643	-0.069	0.168
-83.655	-74.794	0.264	0.094
-82.640	-54.923	-0.208	0.093
-81.626	800.000	0.056	0.211
-80.611	-35.661	-0.094	-0.050
-79.597	-200.000	0.003	0.175
-78.582	763.560	0.151	0.404
-77.567	-49.102	-0.270	0.127
-76.553	-159.183	-0.251	-0.014
-75.538	-100.269	0.165	0.040
-74.524	23.513	0.199	0.162
-73.509	-54.726	0.373	0.166
-72.494	46.469	-0.190	-0.174
-71.480	-63.172	0.109	0.044
-70.465	-111.363	-0.209	0.042
-69.451	800.000	-0.081	-0.223
-68.436	106.506	0.170	0.199
-67.422	104.350	0.242	0.281
-66.407	-200.000	-0.010	-0.201
-65.392	42.507	0.331	-0.297
-64.378	586.278	-0.028	-0.069
-63.363	36.771	0.078	0.068
-62.349	-32.301	0.066	0.036
-61.334	140.652	-0.748	-0.973
-60.319	-200.000	0.157	0.875
-59.305	464.350	-0.300	-0.661
-58.290	263.454	0.532	0.911
-57.276	464.035	0.709	1.561
-56.261	-200.000	95.712	544.224
-55.246	499.455	1421.941	3228.074
-54.232	145.496	2650.549	3495.802
-53.217	103.867	2346.331	2714.833
-52.203	43.467	1954.972	1759.680
-51.188	37.752	1739.653	1521.346
-50.173	34.882	1695.463	1460.756
-49.159	50.438	1741.554	1621.219
-48.144	53.134	1759.378	1658.633
-47.130	37.129	1717.660	1497.067
-46.115	34.484	1702.312	1463.368
-45.100	34.376	1697.319	1458.191
-44.086	34.404	1694.360	1455.812
-43.071	34.327	1691.819	1452.980
-42.057	34.335	1689.168	1450.706
-41.042	34.349	1687.427	1449.262
-40.027	34.345	1685.338	1447.382
-39.013	34.318	1683.097	1445.192
-37.998	34.334	1681.402	1443.798
-36.984	34.286	1680.359	1442.483
-35.969	34.455	1678.481	1442.090
-34.954	34.540	1676.917	1441.332
-33.940	34.476	1675.026	1439.170
-32.925	34.425	1673.248	1437.196
-31.911	34.412	1671.479	1435.525
-30.896	34.450	1669.789	1434.301
-29.881	34.373	1668.350	1432.432
-28.867	34.423	1666.382	1431.056
-27.852	34.412	1665.137	1429.850
-26.838	34.461	1663.347	1428.625
-25.823	34.401	1662.200	1427.133
-24.809	34.506	1660.394	1426.307
-23.794	34.426	1659.621	1424.990
-22.779	34.497	1657.433	1423.586
-21.765	34.497	1655.782	1422.114
-20.750	34.511	1653.749	1420.418
-19.736	34.488	1653.012	1419.558
-18.721	34.547	1651.074	1418.275
-17.706	34.503	1649.528	1416.563
-16.692	34.494	1648.192	1415.291
-15.677	34.399	1646.722	1413.268
-14.663	34.435	1645.388	1412.332
-13.648	34.513	1643.921	1411.593
-12.633	34.436	1642.273	1409.557
-11.619	34.499	1640.643	1408.568
-10.604	34.496	1639.191	1407.245
-9.590	34.591	1637.652	1406.563
-8.575	34.532	1636.322	1404.930
-7.560	34.482	1635.337	1403.662
-6.546	34.500	1634.026	1402.616
-5.531	34.536	1633.117	1402.038
-4.517	34.485	1631.587	1400.299
-3.502	34.459	1630.374	1399.011
-2.487	34.640	1628.626	1398.782
-1.473	34.219	1617.725	1386.297
-0.458	31.079	1596.118	1345.128
0.556	25.246	1594.645	1303.942
1.571	22.240	1617.762	1300.529
2.586	21.238	1629.724	1302.561
3.600	18.973	1577.113	1244.031
4.615	10.820	1463.400	1099.295
5.629	2.494	1395.038	993.973
6.644	0.795	1386.330	976.715
7.659	0.683	1384.593	974.684
8.673	0.580	1383.744	973.338
9.688	0.572	1381.999	971.970
10.702	0.385	1379.007	968.577
11.717	4.055	1384.853	996.240
12.731	12.627	1397.811	1060.936
13.746	17.361	1404.430	1096.454
14.761	17.404	1403.285	1095.741
15.775	16.600	1400.892	1088.606
16.790	15.577	1398.143	1079.803
17.804	14.750	1396.256	1072.942
18.819	14.391	1394.283	1069.025
19.834	14.006	1393.704	1066.016
20.848	13.881	1391.683	1063.576
21.863	13.712	1389.910	1061.045
22.877	13.400	1389.070	1058.318
23.892	13.365	1388.644	1057.676
24.907	13.318	1387.575	1056.469
25.921	13.255	1387.071	1055.585
26.936	13.380	1385.948	1055.437
27.950	13.442	1384.942	1054.972
28.965	13.458	1384.330	1054.515
29.980	13.565	1383.035	1054.117
30.994	13.597	1381.786	1053.277
32.009	13.634	1381.015	1052.829
33.023	13.597	1379.982	1051.714
34.038	13.588	1378.648	1050.543
35.053	13.535	1377.331	1049.113
36.067	13.463	1376.408	1047.862
37.082	13.541	1375.491	1047.562
38.096	13.558	1374.401	1046.749
39.111	13.572	1373.319	1045.919
40.126	13.429	1372.713	1044.464
41.140	13.377	1372.551	1043.919
42.155	13.340	1371.964	1043.148
43.169	13.294	1371.494	1042.410
44.184	13.340	1371.170	1042.360
45.199	13.335	1370.737	1041.903
46.213	13.442	1369.901	1041.855
47.228	13.478	1368.852	1041.189
48.242	13.446	1367.982	1040.235
49.257	13.503	1366.400	1039.296
50.271	13.483	1364.804	1037.863
51.286	13.510	1363.415	1036.888
52.301	13.537	1362.166	1036.016
53.315	13.445	1361.131	1034.560
54.330	13.442	1360.030	1033.611
55.344	13.362	1359.372	1032.519
56.359	13.288	1358.233	1031.104
57.374	13.509	1357.060	1031.500
58.388	13.410	1355.561	1029.652
59.403	13.398	1355.788	1029.661
60.417	13.354	1355.017	1028.710
61.432	13.403	1353.456	1027.737
62.447	13.296	1353.178	1026.772
63.461	13.251	1351.514	1025.140
64.476	13.270	1350.294	1024.239
65.490	13.297	1349.494	1023.710
66.505	13.429	1347.740	1023.106
67.520	13.362	1346.673	1021.792
68.534	13.373	1345.615	1020.962
69.549	13.378	1344.912	1020.369
70.563	13.393	1343.120	1019.017
71.578	13.323	1342.220	1017.811
72.593	13.289	1341.232	1016.761
73.607	13.294	1340.243	1015.955
74.622	13.235	1339.494	1014.933
75.636	13.224	1338.392	1013.943
76.651	13.248	1338.057	1013.747
77.666	13.320	1337.666	1013.797
78.680	13.238	1337.470	1013.057
79.695	13.236	1336.420	1012.161
80.709	13.259	1335.565	1011.567
81.724	13.322	1334.505	1011.061
82.739	13.274	1333.938	1010.246
83.753	13.408	1332.544	1009.920
84.768	13.416	1331.231	1008.885
85.782	13.489	1330.178	1008.442
86.797	13.548	1328.738	1007.622
87.812	13.386	1327.608	1005.689
88.826	13.402	1326.239	1004.659
89.841	13.478	1325.113	1004.179
90.855	13.507	1324.066	1003.474
91.870	13.451	1324.026	1003.016
92.884	13.537	1322.582	1002.353
93.899	13.538	1322.327	1002.076
94.914	13.619	1320.815	1001.329
95.928	13.560	1319.940	1000.223
96.943	13.563	1319.348	999.702
97.957	13.454	1318.506	998.318
98.972	13.555	1317.251	997.888
99.987	13.519	1316.229	996.813
101.001	13.479	1315.559	995.973
102.016	13.549	1314.272	995.332
103.030	13.551	1313.533	994.696
104.045	13.519	1312.776	993.846
105.060	13.516	1311.236	992.570
106.074	13.422	1310.201	991.137
107.089	13.331	1308.923	989.535
108.103	13.320	1307.825	988.553
109.118	13.377	1306.453	987.769
110.133	13.346	1305.266	986.603
111.147	13.361	1304.137	985.747
112.162	13.462	1302.565	985.074
113.176	13.446	1301.555	984.132
114.191	13.408	1300.386	982.930
115.206	13.417	1299.817	982.471
116.220	13.438	1298.338	981.390
117.235	13.391	1297.029	980.032
118.249	13.364	1296.307	979.240
119.264	13.492	1294.775	978.754
120.279	13.442	1293.577	977.467
121.293	13.355	1293.045	976.465
122.308	13.448	1291.833	976.009
123.322	13.382	1290.937	974.859
124.337	13.460	1289.763	974.347
125.352	13.397	1288.740	973.118
126.366	13.479	1287.535	972.603
127.381	13.449	1286.692	971.704
128.395	13.380	1285.259	970.130
129.410	13.448	1284.433	969.818
130.424	13.564	1283.658	969.829
131.439	13.439	1282.691	968.279
132.454	13.525	1281.488	967.787
133.468	13.545	1281.070	967.503
134.483	13.521	1279.861	966.366
135.497	13.449	1278.790	965.055
136.512	13.489	1277.710	964.387
137.527	13.445	1276.340	963.012
138.541	13.550	1274.533	962.170
139.556	13.428	1273.591	960.665
140.570	13.588	1272.597	960.762
141.585	13.580	1271.184	959.562
142.600	13.571	1270.017	958.545
143.614	13.602	1269.059	957.915
144.629	13.617	1268.035	957.144
145.643	13.638	1266.666	956.148
146.658	13.550	1265.518	954.690
147.673	13.651	1264.267	954.242
148.687	13.514	1262.872	952.316
149.702	13.562	1261.595	951.543
150.716	13.574	1259.894	950.246
151.731	13.524	1259.357	949.473
152.746	13.624	1257.887	948.849
153.760	13.615	1257.033	948.070
154.775	13.588	1255.443	946.636
155.789	13.634	1254.157	945.843
156.804	13.674	1253.459	945.464
157.819	13.624	1252.723	944.537
158.833	13.742	1251.348	944.090
159.848	13.732	1250.414	943.247
160.862	13.638	1249.773	942.145
161.877	13.689	1248.364	941.290
162.892	13.617	1247.247	939.955
163.906	13.577	1246.545	939.116
164.921	13.581	1245.906	938.570
165.935	13.663	1244.869	938.172
166.950	13.734	1244.089	937.901
167.964	13.772	1243.125	937.309
168.979	13.722	1242.508	936.479
169.994	13.789	1241.574	936.069
171.008	13.808	1240.984	935.646
172.023	13.734	1240.203	934.557
173.037	13.891	1239.144	934.565
174.052	13.883	1238.384	933.863
175.067	13.861	1237.231	932.788
176.081	13.837	1236.471	931.994
177.096	13.794	1235.886	931.231
178.110	13.773	1234.472	929.967
179.125	13.796	1233.303	929.129
180.140	13.954	1232.151	929.066
181.154	13.892	1230.582	927.455
182.169	13.906	1229.743	926.818
183.183	14.016	1228.627	926.506
184.198	13.924	1227.799	925.291
185.213	13.932	1226.621	924.366
186.227	14.050	1225.324	923.959
187.242	14.051	1224.516	923.276
188.256	14.174	1223.032	922.757
189.271	14.127	1222.381	921.924
190.286	13.987	1221.226	920.195
191.300	13.898	1220.650	919.185
192.315	13.916	1219.855	918.607
193.329	13.870	1219.123	917.719
194.344	13.924	1218.515	917.479
195.359	13.996	1218.287	917.626
196.373	14.032	1217.514	917.157
197.388	13.998	1216.904	916.429
198.402	14.151	1216.311	916.749
199.417	14.154	1215.648	916.184
200.432	14.086	1215.280	915.450
201.446	14.262	1214.269	915.573
202.461	14.223	1213.516	914.710
203.475	14.265	1212.230	913.893
204.490	14.223	1210.861	912.549
205.504	14.229	1209.315	911.336
206.519	14.188	1208.076	910.099
207.534	14.206	1207.105	909.382
208.548	14.259	1206.303	908.987
209.563	14.285	1205.812	908.681
210.577	14.288	1204.991	907.996
211.592	14.329	1203.909	907.323
212.607	14.315	1203.717	907.023
213.621	14.337	1202.331	906.019
214.636	14.399	1201.449	905.613
215.650	14.348	1200.484	904.525
216.665	14.477	1199.692	904.549
217.680	14.497	1198.256	903.494
218.694	14.452	1197.414	902.535
219.709	14.541	1196.992	902.621
220.723	14.444	1195.779	901.101
221.738	14.467	1195.483	900.925
222.753	14.505	1194.536	900.335
223.767	14.507	1193.876	899.768
224.782	14.550	1193.275	899.466
225.796	14.560	1192.750	899.046
226.811	14.613	1191.863	898.582
227.826	14.610	1190.677	897.596
228.840	14.546	1190.482	897.023
229.855	14.532	1189.737	896.306
230.869	14.658	1188.953	896.316
231.884	14.657	1187.915	895.445
232.899	14.525	1187.360	894.241
233.913	14.502	1186.653	893.505
234.928	14.639	1185.707	893.451
235.942	14.550	1184.965	892.335
236.957	14.583	1184.074	891.759
237.972	14.583	1183.624	891.341
238.986	14.611	1182.894	890.864
240.001	14.595	1182.115	890.115
241.015	14.668	1180.847	889.468
242.030	14.639	1180.268	888.801
243.045	14.635	1179.840	888.378
244.059	14.753	1178.691	888.062
245.074	14.676	1178.187	887.192
246.088	14.844	1176.788	886.951
247.103	14.803	1176.323	886.304
248.117	14.863	1175.376	885.832
249.132	14.863	1175.131	885.567
250.147	14.991	1173.909	885.247
251.161	14.885	1173.195	884.069
252.176	14.887	1172.932	883.806
253.190	14.936	1172.119	883.372
254.205	15.000	1171.453	883.131
255.220	15.116	1170.649	883.059
256.234	15.017	1170.223	882.137
257.249	15.161	1169.315	882.130
258.263	15.143	1168.539	881.373
259.278	15.086	1168.230	880.764
260.293	15.200	1167.495	880.732
261.307	15.140	1166.942	879.921
262.322	15.173	1166.407	879.614
263.336	15.238	1165.759	879.384
264.351	15.241	1165.094	878.822
265.366	15.222	1164.086	877.884
266.380	15.235	1163.661	877.558
267.395	15.211	1162.529	876.499
268.409	15.254	1161.886	876.158
269.424	15.178	1161.825	875.641
270.439	15.283	1160.870	875.390
271.453	15.333	1159.719	874.709
272.468	15.260	1159.253	873.896
273.482	15.272	1158.375	873.220
274.497	15.213	1157.813	872.412
275.512	15.233	1157.296	872.048
276.526	15.295	1156.045	871.354
277.541	15.231	1155.688	870.673
278.555	15.344	1155.011	870.673
279.570	15.365	1154.273	870.148
280.585	15.425	1153.419	869.739
281.599	15.528	1152.136	869.228
282.614	15.537	1151.043	868.373
283.628	15.433	1150.302	867.200
284.643	15.469	1149.116	866.413
285.657	15.510	1148.642	866.190
286.672	15.530	1147.257	865.172
287.687	15.539	1146.794	864.793
288.701	15.441	1145.938	863.566
289.716	15.518	1145.047	863.216
290.730	15.585	1144.273	862.898
291.745	15.549	1143.725	862.224
292.760	15.482	1143.574	861.693
293.774	15.583	1142.644	861.435
294.789	15.674	1142.013	861.348
295.803	15.633	1141.338	860.552
296.818	15.669	1140.365	859.927
297.833	15.722	1139.520	859.485
298.847	15.735	1138.840	858.961
299.862	15.635	1138.125	857.833
300.876	15.643	1137.631	857.426
301.891	15.711	1136.400	856.770
302.906	15.721	1136.330	856.696
303.920	15.757	1135.434	856.125
304.935	15.777	1134.711	855.605
305.949	15.797	1134.174	855.229
306.964	15.829	1133.550	854.843
307.979	15.865	1132.904	854.463
308.993	15.896	1131.966	853.835
310.008	15.912	1131.014	853.123
311.022	15.891	1130.196	852.327
312.037	16.017	1129.538	852.390
313.052	15.857	1128.744	850.908
314.066	15.853	1127.669	850.002
315.081	15.802	1126.892	849.083
316.095	15.827	1125.784	848.298
317.110	15.919	1125.845	848.733
318.125	15.896	1124.829	847.779
319.139	15.926	1124.100	847.307
320.154	15.961	1123.200	846.727
321.168	15.833	1123.052	845.895
322.183	15.844	1122.609	845.543
323.197	15.892	1121.546	844.912
324.212	15.893	1121.053	844.468
325.227	16.014	1120.291	844.427
326.241	16.017	1119.634	843.869
327.256	16.028	1118.641	843.103
328.270	15.973	1117.864	842.168
329.285	15.989	1116.890	841.437
330.300	16.067	1115.733	840.884
331.314	16.032	1114.848	839.965
332.329	16.118	1113.870	839.586
333.343	16.090	1113.382	839.001
334.358	16.133	1112.349	838.363
335.373	16.123	1111.628	837.696
336.387	16.242	1110.801	837.588
337.402	16.140	1110.167	836.531
338.416	16.187	1109.450	836.148
339.431	16.140	1108.876	835.413
340.446	16.272	1108.014	835.339
341.460	16.276	1107.881	835.188
342.475	16.373	1106.775	834.758
343.489	16.265	1105.915	833.501
344.504	16.396	1104.746	833.196
345.519	16.370	1103.901	832.355
346.533	16.340	1103.267	831.652
347.548	16.421	1102.441	831.358
348.562	16.503	1101.477	830.961
349.577	16.479	1100.394	829.950
350.592	16.434	1099.831	829.230
351.606	16.453	1099.556	829.047
352.621	16.486	1098.502	828.337
353.635	16.343	1098.332	827.436
354.650	16.306	1097.433	826.506
355.665	16.467	1096.734	826.692
356.679	16.427	1096.290	826.091
357.694	16.429	1095.434	825.383
358.708	16.518	1094.536	825.066
359.723	16.454	1094.181	824.411
360.738	16.448	1093.728	823.967
361.752	16.557	1093.088	823.947
362.767	16.623	1092.145	823.485
363.781	16.599	1091.689	822.950
364.796	16.747	1090.698	822.850
365.810	16.693	1090.300	822.211
366.825	16.541	1089.914	821.111
367.840	16.630	1089.570	821.211
368.854	16.921	1088.469	821.719
369.869	16.741	1088.099	820.497
370.883	16.811	1086.870	819.833
371.898	16.860	1085.861	819.237
372.913	16.749	1085.558	818.403
373.927	16.785	1085.206	818.235
374.942	16.893	1084.488	818.143
375.956	16.860	1083.865	817.443
376.971	16.895	1083.460	817.235
377.986	16.785	1082.938	816.237
379.000	16.903	1082.070	816.078
380.015	17.002	1081.565	816.102
381.029	17.012	1080.931	815.599
382.044	17.010	1080.532	815.219
383.059	16.984	1079.630	814.338
384.073	17.057	1078.785	813.981
385.088	17.175	1077.494	813.498
386.102	17.008	1076.978	812.240
387.117	17.099	1075.972	811.842
388.132	17.033	1075.100	810.799
389.146	16.980	1074.584	810.082
390.161	16.985	1073.840	809.475
391.175	17.038	1072.691	808.790
392.190	17.127	1072.366	808.895
393.205	17.087	1071.622	808.076
394.219	17.070	1070.561	807.124
395.234	17.090	1069.608	806.428
396.248	17.104	1068.560	805.632
397.263	17.013	1067.681	804.465
398.278	17.167	1066.924	804.555
399.292	17.145	1065.912	803.614
400.307	17.164	1065.635	803.425
401.321	17.101	1065.099	802.654
402.336	17.219	1064.506	802.691
403.350	17.154	1064.083	801.995
404.365	17.190	1062.898	801.199
405.380	17.259	1062.061	800.826
406.394	17.218	1061.515	800.151
407.409	17.269	1060.732	799.729
408.423	17.330	1059.935	799.342
409.438	17.238	1059.426	798.455
410.453	17.403	1058.787	798.678
411.467	17.439	1057.616	797.893
412.482	17.346	1057.071	796.978
413.496	17.455	1056.288	796.824
414.511	17.576	1055.736	796.903
415.526	17.462	1055.360	796.016
416.540	17.509	1055.326	796.140
417.555	17.582	1054.542	795.822
418.569	17.487	1054.220	795.064
419.584	17.545	1053.446	794.679
420.599	17.641	1052.705	794.496
421.613	99.934	1316.674	1447.752
422.628	92.087	1355.082	1447.878
