DTS Sentinel unit serial number:	SN413079Multiplexer serial number:	ORYXHardware model number:	OX4-SRSoftware version number:	ORYX F/W v4.00 Oryx Data Collector v3.7.2.0data status	okinstallation	princeton_trtdifferential loss correction	single-endedforward channel	channel 2reverse channel	N/Adate	2019/09/19time	05:23:35forward acquisition time	60.00reverse acquisition time	0.00gamma	496.2192k internal	0.2351k external	0.2351temperature offset calibration	1.0015default loss term (dB/km)	0.3790temperature slope calibration	1.0000multiplexer offset coefficient	1.0000multiplexer slope coefficient	1.0000fibre end	0.00T internal ref (°C)	19.42T ext. ref 1 (°C)	0.60T ext. ref 2 (°C)	13.02length (m)	temperature (°C)	Stokes	anti-Stokes-747.200	173.192	0.363	0.523
-746.185	-68.239	-0.141	-0.055
-745.171	-31.915	-0.069	-0.038
-744.156	-200.000	0.039	0.368
-743.142	377.409	0.140	0.285
-742.127	141.179	-0.107	0.141
-741.112	768.771	0.053	0.145
-740.098	-92.437	-0.283	-0.079
-739.083	-159.988	-0.115	-0.006
-738.069	-179.537	-0.195	-0.004
-737.054	197.353	-0.054	0.082
-736.039	-0.776	-0.235	0.166
-735.025	4.727	0.186	0.136
-734.010	800.000	-0.058	-0.192
-732.996	-82.572	0.113	0.037
-731.981	-119.188	-0.112	-0.020
-730.966	-29.021	-0.279	-0.160
-729.952	-27.062	-0.157	-0.091
-728.937	22.035	-0.329	-0.268
-727.923	-200.000	0.067	0.375
-726.908	-71.697	-0.072	0.027
-725.894	-1.611	0.111	0.078
-724.879	158.097	0.119	-0.164
-723.864	58.944	-0.083	0.081
-722.850	-200.000	-0.067	-0.295
-721.835	-17.032	0.269	-0.169
-720.821	-69.128	-0.372	-0.143
-719.806	-200.000	0.042	-0.311
-718.791	-90.313	0.137	0.040
-717.777	-103.731	-0.231	0.054
-716.762	800.000	-0.013	-0.046
-715.748	273.904	0.070	0.124
-714.733	-138.462	-0.160	-0.018
-713.718	-88.636	0.415	-0.123
-712.704	-17.919	0.232	-0.145
-711.689	800.000	0.025	-0.081
-710.675	352.913	-0.064	0.127
-709.660	-78.722	0.146	-0.050
-708.645	-15.724	-0.117	0.074
-707.631	42.479	-0.161	-0.146
-706.616	412.949	-0.080	0.170
-705.602	47.776	-0.222	-0.207
-704.587	-95.928	-0.031	-0.008
-703.572	250.829	0.249	0.421
-702.558	-200.000	0.428	-0.000
-701.543	-200.000	-0.108	-0.567
-700.529	-200.000	0.015	0.316
-699.514	400.302	0.108	-0.227
-698.499	800.000	0.057	-0.191
-697.485	-95.512	-0.169	0.045
-696.470	64.818	0.073	-0.074
-695.456	-59.440	0.111	-0.047
-694.441	-138.178	-0.209	0.023
-693.426	626.108	0.150	-0.377
-692.412	-200.000	0.021	0.234
-691.397	-88.815	0.192	0.057
-690.383	90.348	0.020	-0.023
-689.368	-200.000	-0.072	-0.462
-688.354	-126.492	-0.468	-0.069
-687.339	-27.937	0.132	0.076
-686.324	183.508	0.140	-0.206
-685.310	800.000	-0.040	-0.139
-684.295	-200.000	-0.024	0.393
-683.281	-142.732	-0.312	0.030
-682.266	34.546	-0.167	0.145
-681.251	740.811	-0.072	0.191
-680.237	40.668	0.193	-0.173
-679.222	-29.992	0.360	0.204
-678.208	800.000	-0.026	-0.103
-677.193	-96.097	0.192	-0.051
-676.178	-163.137	-0.118	-0.006
-675.164	-200.000	-0.009	-0.149
-674.149	-99.365	-0.176	0.044
-673.135	-42.889	-0.084	-0.043
-672.120	-155.344	-0.106	-0.007
-671.105	-75.527	0.044	0.015
-670.091	-101.363	0.016	-0.004
-669.076	-85.762	0.181	0.056
-668.062	338.056	-0.081	0.157
-667.047	99.458	-0.136	0.156
-666.032	-126.736	0.409	-0.060
-665.018	481.990	-0.092	0.208
-664.003	-200.000	0.004	0.389
-662.989	243.518	0.171	-0.285
-661.974	800.000	0.091	-0.289
-660.959	-40.993	-0.295	-0.152
-659.945	32.915	-0.118	0.102
-658.930	376.549	0.010	-0.021
-657.916	800.000	0.065	-0.255
-656.901	70.331	-0.162	0.166
-655.886	164.820	-0.090	0.126
-654.872	-82.093	0.257	0.083
-653.857	-0.595	-0.058	-0.041
-652.843	-200.000	-0.025	0.178
-651.828	-200.000	-0.033	0.257
-650.814	82.997	-0.135	0.146
-649.799	-28.542	0.048	0.028
-648.784	-200.000	0.018	0.267
-647.770	-122.777	0.149	0.024
-646.755	-119.618	0.076	0.013
-645.741	10.266	-0.102	0.077
-644.726	-200.000	0.013	0.140
-643.711	-146.401	0.181	-0.016
-642.697	28.676	-0.141	0.119
-641.682	43.134	0.272	0.247
-640.668	-49.461	-0.164	-0.078
-639.653	-167.416	-0.067	-0.003
-638.638	90.986	-0.080	0.090
-637.624	-200.000	-0.038	0.211
-636.609	34.518	-0.190	-0.165
-635.595	675.002	-0.040	-0.102
-634.580	-33.760	-0.262	-0.144
-633.565	378.677	0.048	0.099
-632.551	-24.603	-0.171	-0.101
-631.536	-15.639	0.101	0.064
-630.522	-200.000	0.053	-0.344
-629.507	8.055	-0.137	0.102
-628.492	213.128	-0.092	0.144
-627.478	-48.611	0.258	-0.123
-626.463	-200.000	0.018	-0.090
-625.449	66.676	-0.206	-0.208
-624.434	-200.000	-0.003	-0.040
-623.419	-139.046	-0.301	-0.032
-622.405	-63.003	0.211	-0.087
-621.390	451.018	-0.068	0.148
-620.376	132.979	-0.047	0.061
-619.361	250.955	0.223	-0.376
-618.346	-166.521	-0.185	-0.008
-617.332	-10.444	-0.362	0.238
-616.317	-155.047	0.379	0.025
-615.303	264.577	-0.073	0.127
-614.288	-65.810	-0.157	-0.062
-613.273	-70.083	-0.332	0.125
-612.259	800.000	-0.059	-0.226
-611.244	-136.802	0.190	-0.022
-610.230	-42.450	-0.241	-0.122
-609.215	93.147	-0.150	0.168
-608.201	39.365	0.014	0.012
-607.186	-200.000	0.012	-0.062
-606.171	-46.498	-0.100	0.049
-605.157	-123.069	-0.068	0.011
-604.142	43.550	-0.066	0.060
-603.128	-200.000	0.043	-0.759
-602.113	-200.000	0.005	0.065
-601.098	130.872	-0.242	0.308
-600.084	-200.000	0.061	-0.315
-599.069	-100.886	0.159	-0.039
-598.055	-42.935	0.173	-0.087
-597.040	399.340	0.045	-0.095
-596.025	-200.000	0.002	0.213
-595.011	-133.239	-0.210	-0.026
-593.996	208.019	0.094	0.146
-592.982	-75.565	-0.105	0.037
-591.967	32.264	0.121	-0.103
-590.952	-200.000	0.028	-0.341
-589.938	-200.000	-0.002	0.081
-588.923	-200.000	-0.003	0.127
-587.909	-109.644	0.280	-0.059
-586.894	50.470	-0.116	0.109
-585.879	478.499	0.069	-0.155
-584.865	114.058	-0.328	-0.395
-583.850	263.968	-0.041	-0.071
-582.836	-102.587	-0.192	-0.046
-581.821	800.000	0.036	0.111
-580.806	-135.250	-0.241	0.029
-579.792	-6.345	-0.323	0.219
-578.777	76.022	-0.177	0.186
-577.763	-148.962	0.198	-0.016
-576.748	-1.175	0.218	0.153
-575.733	54.187	0.252	0.241
-574.719	-180.432	-0.166	-0.003
-573.704	-136.881	0.061	-0.007
-572.690	800.000	0.035	-0.138
-571.675	73.999	0.188	0.195
-570.661	6.886	0.322	0.238
-569.646	-54.162	-0.145	-0.065
-568.631	800.000	-0.057	0.176
-567.617	-15.008	0.266	0.169
-566.602	198.567	0.105	0.159
-565.588	800.000	-0.020	-0.064
-564.573	60.953	0.331	-0.325
-563.558	800.000	0.072	-0.217
-562.544	-129.812	0.096	0.013
-561.529	58.180	-0.362	0.351
-560.515	-154.731	0.314	0.021
-559.500	75.471	0.094	-0.098
-558.485	189.433	0.077	0.114
-557.471	395.633	0.117	0.242
-556.456	800.000	0.091	0.306
-555.442	0.339	-0.115	0.082
-554.427	43.767	-0.150	-0.136
-553.412	-200.000	0.057	-0.340
-552.398	-200.000	-0.037	-0.162
-551.383	-95.527	0.116	0.031
-550.369	-102.660	0.194	0.046
-549.354	800.000	0.093	0.272
-548.339	39.280	-0.176	0.156
-547.325	-96.204	-0.044	0.012
-546.310	215.639	-0.146	-0.229
-545.296	-200.000	-0.020	-0.302
-544.281	-53.254	0.244	0.111
-543.266	43.559	0.346	0.313
-542.252	-36.328	-0.313	0.167
-541.237	-200.000	-0.004	0.128
-540.223	-200.000	-0.009	0.285
-539.208	-200.000	-0.012	-0.279
-538.193	-131.956	-0.330	0.043
-537.179	65.696	-0.183	-0.183
-536.164	-200.000	-0.047	-0.241
-535.150	274.935	-0.108	-0.190
-534.135	-33.418	-0.370	-0.202
-533.121	-200.000	-0.039	-0.237
-532.106	279.174	0.141	0.250
-531.091	-123.587	0.098	-0.015
-530.077	-118.164	-0.319	-0.056
-529.062	-65.795	0.096	0.038
-528.048	-200.000	0.001	0.045
-527.033	-68.827	0.262	-0.100
-526.018	91.889	0.085	-0.094
-525.004	59.805	0.179	-0.175
-523.989	-200.000	0.052	-0.552
-522.975	227.747	0.074	-0.120
-521.960	800.000	0.025	-0.096
-520.945	-200.000	-0.027	0.171
-519.931	620.444	0.128	0.317
-518.916	800.000	0.016	-0.062
-517.902	-200.000	-0.020	0.203
-516.887	-61.233	-0.377	0.157
-515.872	-108.870	0.389	-0.082
-514.858	-115.659	-0.205	-0.038
-513.843	-180.928	0.237	0.005
-512.829	-39.705	-0.110	0.057
-511.814	678.282	-0.145	-0.373
-510.799	266.247	0.143	0.248
-509.785	22.376	-0.125	-0.101
-508.770	-200.000	-0.011	-0.146
-507.756	-171.458	-0.217	-0.007
-506.741	-200.000	0.034	0.455
-505.726	62.683	-0.316	0.313
-504.712	128.735	-0.155	0.195
-503.697	-10.464	-0.300	-0.196
-502.683	213.802	-0.084	0.132
-501.668	21.857	-0.190	0.153
-500.653	-89.067	0.151	-0.044
-499.639	71.357	-0.135	0.139
-498.624	-62.980	-0.278	0.113
-497.610	1.281	0.144	0.102
-496.595	109.399	0.121	-0.143
-495.581	43.368	0.105	-0.094
-494.566	-69.015	0.211	-0.081
-493.551	-200.000	-0.134	-0.000
-492.537	-200.000	-0.036	-0.220
-491.522	800.000	-0.098	0.273
-490.508	-133.179	-0.213	0.027
-489.493	-78.393	0.405	0.137
-488.478	-105.226	-0.315	-0.071
-487.464	471.424	-0.031	0.069
-486.449	-200.000	0.062	0.287
-485.435	132.363	0.120	-0.153
-484.420	1.075	0.185	-0.131
-483.405	28.840	0.104	-0.087
-482.391	-102.150	0.106	-0.025
-481.376	-185.131	0.163	0.003
-480.362	-104.950	0.328	-0.074
-479.347	-188.148	0.458	0.006
-478.332	-85.157	-0.274	0.085
-477.318	142.337	-0.226	0.296
-476.303	87.282	-0.160	0.174
-475.289	-34.664	0.376	-0.203
-474.274	305.656	0.078	-0.142
-473.259	-71.809	0.082	0.030
-472.245	520.716	0.032	-0.073
-471.230	157.670	0.102	0.139
-470.216	60.666	-0.177	0.173
-469.201	-200.000	-0.008	-0.244
-468.186	800.000	0.082	0.280
-467.172	-2.298	-0.309	0.214
-466.157	-93.172	-0.157	0.043
-465.143	-28.156	-0.192	-0.110
-464.128	-116.274	-0.071	-0.013
-463.113	97.660	0.084	0.096
-462.099	211.440	0.128	-0.200
-461.084	-68.444	0.196	-0.075
-460.070	800.000	0.068	-0.196
-459.055	800.000	-0.015	0.042
-458.040	648.574	0.090	0.227
-457.026	523.326	0.047	0.109
-456.011	167.783	0.116	-0.162
-454.997	452.066	0.109	0.238
-453.982	-2.152	-0.149	-0.103
-452.968	-0.792	-0.294	-0.205
-451.953	193.987	0.180	-0.270
-450.938	800.000	0.036	-0.117
-449.924	118.524	-0.081	-0.098
-448.909	-176.448	0.139	0.004
-447.895	240.906	-0.123	-0.203
-446.880	23.695	-0.132	0.108
-445.865	-200.000	-0.047	0.276
-444.851	37.332	0.075	-0.065
-443.836	800.000	0.014	-0.041
-442.822	509.322	0.084	0.193
-441.807	57.770	-0.188	0.182
-440.792	648.891	-0.058	-0.147
-439.778	87.766	-0.020	-0.022
-438.763	800.000	0.059	-0.201
-437.749	800.000	-0.038	-0.112
-436.734	-155.514	-0.266	-0.017
-435.719	-47.638	-0.360	0.172
-434.705	-109.048	0.288	-0.060
-433.690	264.205	0.075	-0.129
-432.676	-66.086	0.341	-0.134
-431.661	48.712	-0.164	-0.152
-430.646	-121.214	-0.320	0.053
-429.632	-3.029	0.303	0.209
-428.617	-177.598	-0.180	-0.004
-427.603	-26.569	0.060	-0.035
-426.588	-103.310	0.193	-0.045
-425.573	141.329	0.138	-0.180
-424.559	524.612	0.073	-0.169
-423.544	-144.805	-0.265	-0.024
-422.530	-200.000	-0.042	-0.188
-421.515	345.852	0.071	0.137
-420.500	-77.244	-0.092	-0.031
-419.486	184.524	0.220	-0.322
-418.471	441.184	0.065	-0.140
-417.457	800.000	0.050	-0.142
-416.442	605.473	-0.082	0.200
-415.428	-200.000	0.087	-0.000
-414.413	-127.491	0.285	-0.041
-413.398	700.075	-0.103	0.268
-412.384	-57.393	-0.076	-0.033
-411.369	172.821	0.118	-0.168
-410.355	-69.397	0.480	0.181
-409.340	156.988	0.074	0.100
-408.325	-41.788	-0.229	0.116
-407.311	-53.686	0.193	-0.087
-406.296	93.034	-0.140	0.156
-405.282	-16.504	-0.154	0.096
-404.267	-68.602	-0.084	0.032
-403.252	241.717	0.042	-0.070
-402.238	-59.613	0.075	-0.032
-401.223	170.953	0.089	-0.125
-400.209	205.412	0.114	0.174
-399.194	442.408	0.005	-0.010
-398.179	800.000	-0.060	0.252
-397.165	172.757	0.144	-0.204
-396.150	50.793	0.102	-0.095
-395.136	-200.000	-0.086	0.483
-394.121	31.763	-0.166	0.140
-393.106	-98.563	0.148	0.037
-392.092	-28.814	-0.102	0.058
-391.077	16.312	0.191	0.148
-390.063	-200.000	0.001	0.030
-389.048	-139.869	0.280	0.029
-388.033	106.823	0.082	-0.095
-387.019	216.263	-0.154	-0.241
-386.004	800.000	0.017	-0.067
-384.990	11.265	-0.186	-0.140
-383.975	95.700	-0.103	-0.116
-382.960	800.000	-0.034	-0.098
-381.946	-109.771	0.022	0.005
-380.931	-64.309	0.066	0.027
-379.917	242.250	0.093	-0.154
-378.902	-200.000	0.102	0.000
-377.888	117.880	-0.267	0.323
-376.873	48.564	-0.286	-0.263
-375.858	62.877	0.278	-0.274
-374.844	206.839	-0.116	0.177
-373.829	-69.412	0.253	-0.095
-372.815	43.783	-0.165	-0.148
-371.800	74.111	-0.090	-0.093
-370.785	-66.567	-0.130	-0.051
-369.771	-100.753	-0.063	-0.015
-368.756	91.328	-0.042	-0.046
-367.742	800.000	0.027	0.107
-366.727	55.967	-0.193	0.184
-365.712	800.000	0.086	-0.337
-364.698	-15.420	0.150	0.094
-363.683	-40.245	0.272	-0.139
-362.669	-28.681	-0.291	-0.165
-361.654	641.758	-0.118	-0.296
-360.639	-200.000	0.001	0.124
-359.625	-91.988	-0.042	0.012
-358.610	-7.623	0.059	0.040
-357.596	365.283	0.030	0.059
-356.581	432.224	-0.060	0.128
-355.566	-31.113	0.199	0.110
-354.552	56.503	0.132	0.126
-353.537	-138.619	0.107	0.012
-352.523	-200.000	0.074	-0.486
-351.508	5.174	-0.212	-0.153
-350.493	108.146	0.188	0.220
-349.479	-200.000	0.029	0.207
-348.464	399.284	-0.100	-0.205
-347.450	-200.000	-0.021	0.119
-346.435	-200.000	0.001	-0.036
-345.420	-200.000	0.022	-0.142
-344.406	800.000	-0.083	0.249
-343.391	-18.889	0.135	0.083
-342.377	80.350	-0.146	-0.154
-341.362	106.234	-0.058	-0.067
-340.348	-140.857	-0.123	-0.012
-339.333	460.242	-0.085	-0.185
-338.318	-113.400	0.130	0.025
-337.304	60.356	0.203	-0.197
-336.289	-200.000	0.024	-0.324
-335.275	-85.125	-0.294	0.091
-334.260	26.810	-0.214	0.176
-333.245	487.066	-0.049	-0.110
-332.231	-51.463	-0.107	0.049
-331.216	-200.000	-0.028	-0.366
-330.202	414.562	-0.086	0.181
-329.187	-200.000	0.024	0.215
-328.172	490.614	0.096	-0.215
-327.158	800.000	0.080	0.322
-326.143	382.287	0.083	0.168
-325.129	-200.000	0.001	-0.100
-324.114	800.000	-0.024	-0.082
-323.099	-117.075	-0.318	-0.057
-322.085	66.578	0.170	-0.170
-321.070	73.245	0.009	-0.009
-320.056	194.236	-0.038	-0.056
-319.041	154.572	-0.088	0.118
-318.026	-142.481	0.164	0.016
-317.012	-82.924	-0.253	-0.080
-315.997	-158.451	0.547	0.031
-314.983	-72.759	0.255	-0.092
-313.968	800.000	0.069	-0.260
-312.953	509.888	-0.064	0.147
-311.939	-91.342	-0.082	-0.023
-310.924	420.326	-0.071	0.150
-309.910	79.930	-0.164	0.173
-308.895	-121.198	0.202	0.033
-307.880	321.713	-0.155	-0.290
-306.866	-20.723	0.047	0.028
-305.851	9.366	-0.128	0.095
-304.837	-200.000	0.021	0.194
-303.822	-200.000	0.005	-0.070
-302.807	782.848	-0.029	-0.077
-301.793	-200.000	-0.007	0.132
-300.778	800.000	-0.030	-0.104
-299.764	1.624	0.229	0.162
-298.749	172.363	0.117	-0.164
-297.735	116.500	0.222	0.267
-296.720	3.389	-0.226	-0.161
-295.705	680.056	0.117	-0.300
-294.691	567.432	-0.138	-0.328
-293.676	174.759	0.081	0.115
-292.662	149.030	0.022	0.030
-291.647	-100.000	0.151	-0.037
-290.632	-132.916	-0.018	0.002
-289.618	800.000	0.026	-0.080
-288.603	800.000	0.066	0.212
-287.589	119.914	-0.157	-0.190
-286.574	239.759	0.130	0.213
-285.559	-92.844	-0.352	-0.096
-284.545	63.736	0.101	0.100
-283.530	225.218	0.073	-0.116
-282.516	209.355	-0.098	-0.150
-281.501	-200.000	-0.025	-0.122
-280.486	114.601	0.145	-0.173
-279.472	-5.822	-0.088	0.059
-278.457	-53.085	0.050	-0.022
-277.443	94.925	-0.183	0.204
-276.428	16.231	-0.171	-0.132
-275.413	206.337	0.161	0.245
-274.399	44.120	0.316	0.284
-273.384	212.281	-0.055	0.085
-272.370	758.931	0.124	-0.328
-271.355	-9.658	-0.299	-0.195
-270.340	26.547	-0.151	0.124
-269.326	-200.000	-0.011	0.120
-268.311	109.526	0.130	0.153
-267.297	71.513	0.257	0.262
-266.282	-49.942	0.062	0.029
-265.267	-183.769	-0.449	0.007
-264.253	-200.000	-0.039	0.456
-263.238	629.528	0.076	0.187
-262.224	-8.347	-0.148	-0.097
-261.209	61.642	0.242	0.236
-260.195	-38.963	0.488	0.252
-259.180	-90.447	0.293	0.083
-258.165	-131.607	0.069	-0.009
-257.151	-200.000	-0.026	0.159
-256.136	-200.000	-0.099	0.479
-255.122	67.982	0.151	0.152
-254.107	133.511	0.101	-0.128
-253.092	44.324	-0.091	0.081
-252.078	-200.000	-0.033	0.345
-251.063	181.757	-0.059	-0.086
-250.049	-115.409	0.173	0.032
-249.034	800.000	-0.056	-0.206
-248.019	-20.816	0.015	0.009
-247.005	9.252	-0.279	0.207
-245.990	-59.889	-0.202	-0.085
-244.976	-134.632	0.280	0.033
-243.961	61.452	0.125	0.121
-242.946	251.728	0.105	-0.175
-241.932	-200.000	-0.004	0.027
-240.917	-200.000	-0.016	0.244
-239.903	800.000	0.048	-0.162
-238.888	-114.136	0.056	-0.011
-237.873	425.788	0.083	-0.175
-236.859	762.057	-0.063	-0.166
-235.844	-97.848	-0.229	0.058
-234.830	-200.000	0.015	-0.219
-233.815	-200.000	0.033	0.154
-232.800	-108.562	-0.163	-0.034
-231.786	-77.198	-0.384	0.131
-230.771	-121.444	0.130	0.021
-229.757	-192.134	-0.175	-0.002
-228.742	411.414	-0.096	0.199
-227.727	-200.000	-0.022	-0.185
-226.713	165.012	0.214	0.296
-225.698	57.698	0.056	0.054
-224.684	584.735	0.142	0.341
-223.669	-134.081	-0.249	-0.030
-222.655	738.169	0.058	-0.151
-221.640	-96.719	0.316	-0.081
-220.625	-64.524	0.063	-0.025
-219.611	-15.741	-0.138	-0.086
-218.596	-200.000	0.023	-0.196
-217.582	21.608	-0.122	0.097
-216.567	41.277	-0.074	0.065
-215.552	-200.000	-0.009	-0.066
-214.538	-200.000	-0.020	0.130
-213.523	55.092	0.191	-0.180
-212.509	-40.712	0.064	-0.032
-211.494	388.791	0.177	-0.359
-210.479	800.000	0.027	-0.107
-209.465	652.772	-0.059	0.149
-208.450	375.769	-0.088	0.175
-207.436	-55.578	0.066	-0.029
-206.421	235.806	0.141	-0.228
-205.406	-200.000	0.057	-0.364
-204.392	-194.361	0.182	-0.001
-203.377	-200.000	-0.043	-0.243
-202.363	113.344	-0.299	0.355
-201.348	-187.105	-0.256	-0.003
-200.333	-81.030	0.063	0.021
-199.319	800.000	0.065	-0.274
-198.304	-200.000	-0.081	-0.360
-197.290	-101.458	-0.296	-0.070
-196.275	194.658	0.144	0.213
-195.260	-200.000	0.055	-0.278
-194.246	-200.000	-0.009	-0.053
-193.231	225.087	-0.083	0.131
-192.217	-162.656	0.091	0.004
-191.202	-69.334	-0.268	-0.101
-190.187	-22.405	0.101	0.060
-189.173	254.546	0.199	0.333
-188.158	-126.615	0.088	-0.013
-187.144	323.715	-0.103	0.192
-186.129	-10.019	0.167	-0.108
-185.114	663.512	0.098	0.246
-184.100	800.000	-0.144	0.498
-183.085	136.392	0.095	-0.121
-182.071	203.392	-0.072	-0.109
-181.056	116.043	0.181	0.216
-180.042	-55.389	-0.141	-0.062
-179.027	111.170	0.177	-0.208
-178.012	-200.000	0.016	0.337
-176.998	800.000	0.032	-0.103
-175.983	361.659	-0.172	-0.336
-174.969	-200.000	-0.353	0.000
-173.954	-23.404	-0.246	-0.144
-172.939	59.347	-0.202	0.194
-171.925	-10.768	-0.247	-0.159
-170.910	-200.000	0.035	-0.155
-169.896	-49.331	0.291	-0.135
-168.881	-110.280	-0.143	0.029
-167.866	-200.000	-0.078	-0.336
-166.852	-90.399	0.285	-0.081
-165.837	326.892	0.122	0.228
-164.823	96.825	0.123	0.137
-163.808	800.000	-0.073	0.211
-162.793	-41.737	0.386	-0.194
-161.779	99.758	-0.234	0.264
-160.764	-200.000	0.063	-0.352
-159.750	-200.000	0.024	-0.177
-158.735	800.000	-0.075	0.286
-157.720	84.034	-0.146	0.156
-156.706	448.217	0.008	0.017
-155.691	34.973	0.086	-0.074
-154.677	-200.000	-0.023	0.440
-153.662	800.000	-0.072	-0.217
-152.647	-200.000	0.000	0.043
-151.633	169.911	0.118	-0.165
-150.618	-20.531	0.323	-0.194
-149.604	-169.343	0.179	0.006
-148.589	-104.095	0.170	0.039
-147.574	395.338	0.079	0.161
-146.560	-47.426	-0.291	0.138
-145.545	-9.881	-0.053	0.034
-144.531	548.803	-0.057	0.134
-143.516	-200.000	-0.030	0.179
-142.502	-119.229	0.134	0.023
-141.487	195.898	-0.030	0.044
-140.472	-119.417	0.282	0.048
-139.458	-200.000	0.048	-0.374
-138.443	800.000	-0.105	-0.309
-137.429	-200.000	0.006	-0.325
-136.414	-82.256	0.163	0.052
-135.399	-134.578	0.275	-0.033
-134.385	148.777	0.345	-0.454
-133.370	-55.341	0.278	0.121
-132.356	89.348	-0.181	-0.196
-131.341	-38.330	0.241	-0.124
-130.326	800.000	-0.089	0.275
-129.312	163.326	0.140	-0.191
-128.297	-10.037	-0.213	-0.138
-127.283	800.000	-0.034	-0.143
-126.268	68.747	-0.250	-0.250
-125.253	587.454	0.044	0.106
-124.239	-200.000	-0.077	0.525
-123.224	-200.000	-0.004	0.059
-122.210	198.644	-0.145	-0.216
-121.195	560.021	0.101	-0.238
-120.180	-30.855	0.262	-0.144
-119.166	148.211	0.103	0.136
-118.151	-48.507	0.122	0.057
-117.137	-200.000	0.024	0.175
-116.122	-26.833	-0.233	-0.133
-115.107	546.845	-0.105	-0.244
-114.093	112.214	-0.057	0.068
-113.078	32.625	-0.207	0.174
-112.064	202.153	0.344	-0.517
-111.049	800.000	-0.113	-0.307
-110.034	-59.114	-0.170	0.071
-109.020	191.188	-0.092	-0.134
-108.005	143.038	0.102	-0.131
-106.991	800.000	0.067	0.222
-105.976	15.585	-0.053	-0.040
-104.962	-118.783	0.251	-0.043
-103.947	-200.000	0.059	0.326
-102.932	-43.980	0.329	0.161
-101.918	86.538	0.239	-0.256
-100.903	-200.000	0.031	0.261
-99.889	89.935	0.217	0.236
-98.874	-153.786	0.232	0.015
-97.859	-44.058	-0.083	0.041
-96.845	800.000	-0.052	-0.184
-95.830	800.000	0.059	-0.172
-94.816	-200.000	-0.022	0.252
-93.801	-53.259	-0.231	-0.103
-92.786	-92.528	0.150	0.041
-91.772	-200.000	-0.087	-0.385
-90.757	471.385	0.073	-0.160
-89.743	-122.302	0.133	-0.021
-88.728	-38.059	-0.212	0.109
-87.713	-169.548	-0.059	-0.002
-86.699	-93.558	-0.228	0.061
-85.684	556.664	-0.054	-0.126
-84.670	-200.000	0.021	0.198
-83.655	-95.783	0.115	0.030
-82.640	-200.000	0.043	0.205
-81.626	-155.690	-0.122	-0.008
-80.611	241.024	0.103	0.167
-79.597	-200.000	-0.054	0.353
-78.582	415.325	-0.027	-0.056
-77.567	5.480	-0.049	0.035
-76.553	-166.192	0.362	0.015
-75.538	688.683	-0.034	0.085
-74.524	-163.622	0.166	0.008
-73.509	38.739	-0.177	-0.153
-72.494	40.832	0.181	0.159
-71.480	32.948	-0.275	-0.232
-70.465	-117.999	0.237	-0.041
-69.451	-167.207	0.125	-0.005
-68.436	-165.145	0.426	-0.018
-67.422	-23.858	-0.130	0.076
-66.407	154.294	0.162	-0.216
-65.392	-200.000	0.001	0.286
-64.378	64.056	0.055	0.054
-63.363	-80.031	0.187	0.061
-62.349	800.000	-0.079	-0.220
-61.334	77.799	-1.252	-1.297
-60.319	38.488	0.846	0.733
-59.305	188.946	-0.897	-1.305
-58.290	274.292	0.817	1.406
-57.276	226.163	0.730	1.150
-56.261	-200.000	136.967	630.466
-55.246	344.001	1641.963	3127.372
-54.232	137.169	2783.958	3535.418
-53.217	77.177	2299.547	2373.903
-52.203	27.684	1905.528	1558.167
-51.188	22.234	1700.801	1349.017
-50.173	20.472	1664.257	1306.738
-49.159	41.878	1738.286	1530.888
-48.144	38.023	1746.870	1508.658
-47.130	21.650	1699.256	1343.097
-46.115	19.515	1683.411	1314.285
-45.100	19.351	1678.118	1308.853
-44.086	19.309	1675.613	1306.534
-43.071	19.279	1672.997	1304.212
-42.057	19.278	1670.654	1302.326
-41.042	19.304	1669.045	1301.217
-40.027	19.319	1666.927	1299.628
-39.013	19.252	1664.889	1297.480
-37.998	19.200	1664.251	1296.544
-36.984	19.266	1662.095	1295.308
-35.969	19.436	1660.484	1295.275
-34.954	19.376	1659.168	1293.747
-33.940	19.384	1657.520	1292.472
-32.925	19.382	1655.940	1291.177
-31.911	19.359	1654.667	1289.959
-30.896	19.416	1652.382	1288.550
-29.881	19.343	1651.574	1287.329
-28.867	19.514	1649.166	1286.677
-27.852	19.393	1648.393	1285.114
-26.838	19.449	1646.350	1283.892
-25.823	19.419	1645.404	1282.876
-24.809	19.452	1644.081	1282.041
-23.794	19.430	1642.802	1280.829
-22.779	19.509	1640.947	1279.917
-21.765	19.480	1640.161	1279.039
-20.750	19.421	1637.983	1276.856
-19.736	19.463	1637.057	1276.392
-18.721	19.512	1635.398	1275.411
-17.706	19.451	1634.623	1274.306
-16.692	19.505	1632.352	1272.879
-15.677	19.460	1631.377	1271.743
-14.663	19.432	1630.221	1270.582
-13.648	19.502	1628.698	1269.861
-12.633	19.504	1626.604	1268.194
-11.619	19.467	1625.370	1266.905
-10.604	19.495	1623.513	1265.617
-9.590	19.415	1622.467	1264.165
-8.575	19.502	1621.276	1263.823
-7.560	19.469	1620.022	1262.553
-6.546	19.472	1619.460	1262.083
-5.531	19.438	1618.362	1260.930
-4.517	19.381	1616.952	1259.363
-3.502	19.460	1615.906	1259.080
-2.487	19.529	1614.263	1258.255
-1.473	19.085	1601.231	1244.836
-0.458	16.010	1581.725	1207.616
0.556	11.423	1584.001	1176.379
1.571	9.192	1607.506	1177.396
2.586	9.077	1618.577	1184.551
3.600	8.704	1563.938	1141.804
4.615	5.026	1460.433	1041.609
5.629	1.267	1406.025	978.512
6.644	0.642	1399.941	970.182
7.659	0.623	1399.326	969.542
8.673	0.626	1397.719	968.363
9.688	0.499	1395.902	966.208
10.702	0.388	1391.838	962.601
11.717	2.360	1393.905	976.545
12.731	7.976	1402.185	1018.244
13.746	14.261	1412.160	1065.744
14.761	16.953	1416.086	1085.873
15.775	16.562	1414.097	1081.750
16.790	15.577	1411.725	1073.551
17.804	14.924	1409.085	1067.282
18.819	14.504	1407.760	1063.504
19.834	14.318	1406.639	1061.382
20.848	14.131	1405.086	1058.925
21.863	13.811	1403.941	1055.931
22.877	13.600	1402.858	1053.683
23.892	13.600	1402.153	1053.061
24.907	13.568	1401.188	1052.036
25.921	13.531	1400.203	1050.969
26.936	13.651	1399.195	1050.881
27.950	13.728	1398.097	1050.449
28.965	13.634	1397.605	1049.396
29.980	13.749	1396.580	1049.262
30.994	13.765	1395.614	1048.544
32.009	13.766	1394.575	1047.677
33.023	13.734	1393.521	1046.587
34.038	13.610	1392.752	1045.136
35.053	13.699	1391.070	1044.339
36.067	13.648	1389.844	1043.006
37.082	13.747	1388.907	1042.832
38.096	13.679	1388.306	1041.863
39.111	13.761	1386.942	1041.264
40.126	13.643	1386.490	1040.094
41.140	13.650	1385.467	1039.274
42.155	13.747	1384.904	1039.366
43.169	13.635	1384.865	1038.546
44.184	13.535	1384.897	1037.851
45.199	13.538	1384.350	1037.371
46.213	13.569	1383.698	1036.985
47.228	13.649	1382.725	1036.664
48.242	13.662	1381.176	1035.490
49.257	13.707	1380.113	1034.880
50.271	13.634	1378.706	1033.278
51.286	13.699	1377.165	1032.440
52.301	13.593	1376.683	1031.326
53.315	13.643	1374.968	1030.261
54.330	13.567	1374.109	1029.055
55.344	13.632	1372.613	1028.245
56.359	13.683	1371.733	1027.812
57.374	13.552	1370.823	1026.227
58.388	13.554	1370.154	1025.647
59.403	13.537	1369.537	1024.991
60.417	13.561	1368.858	1024.540
61.432	13.508	1368.507	1023.856
62.447	13.491	1366.972	1022.516
63.461	13.464	1365.886	1021.446
64.476	13.455	1364.994	1020.632
65.490	13.456	1363.663	1019.551
66.505	13.540	1362.049	1018.773
67.520	13.515	1360.315	1017.231
68.534	13.484	1359.794	1016.564
69.549	13.558	1358.167	1015.713
70.563	13.496	1357.411	1014.674
71.578	13.501	1355.934	1013.509
72.593	13.539	1354.639	1012.684
73.607	13.507	1354.048	1011.961
74.622	13.402	1353.940	1011.146
75.636	13.464	1353.303	1010.959
76.651	13.509	1351.993	1010.166
77.666	13.438	1351.227	1009.074
78.680	13.499	1350.742	1008.994
79.695	13.490	1350.237	1008.469
80.709	13.498	1349.360	1007.777
81.724	13.658	1347.909	1007.578
82.739	13.614	1347.369	1006.818
83.753	13.590	1346.308	1005.788
84.768	13.705	1344.852	1005.311
85.782	13.661	1343.876	1004.221
86.797	13.606	1342.815	1003.011
87.812	13.590	1341.615	1001.929
88.826	13.541	1340.517	1000.721
89.841	13.726	1338.711	1000.401
90.855	13.627	1338.172	999.315
91.870	13.658	1337.353	998.799
92.884	13.728	1335.708	997.902
93.899	13.806	1334.947	997.716
94.914	13.765	1334.284	996.886
95.928	13.938	1333.144	996.985
96.943	13.876	1332.395	995.965
97.957	13.701	1331.907	994.463
98.972	13.672	1330.906	993.456
99.987	13.763	1329.338	992.737
101.001	13.698	1328.481	991.624
102.016	13.828	1327.329	991.451
103.030	13.700	1326.788	990.193
104.045	13.694	1325.858	989.380
105.060	13.767	1324.092	988.408
106.074	13.698	1322.937	987.050
107.089	13.573	1321.817	985.383
108.103	13.581	1320.754	984.552
109.118	13.633	1319.152	983.577
110.133	13.643	1317.682	982.451
111.147	13.637	1316.455	981.419
112.162	13.648	1314.968	980.287
113.176	13.673	1313.920	979.568
114.191	13.709	1313.214	979.163
115.206	13.709	1311.847	978.059
116.220	13.610	1310.316	976.248
117.235	13.626	1309.812	975.878
118.249	13.675	1308.458	975.075
119.264	13.670	1307.215	974.033
120.279	13.672	1305.973	973.032
121.293	13.693	1304.983	972.328
122.308	13.579	1304.003	970.846
123.322	13.690	1302.734	970.463
124.337	13.591	1302.062	969.298
125.352	13.762	1300.508	969.055
126.366	13.658	1299.612	967.699
127.381	13.579	1298.400	966.247
128.395	13.621	1297.456	965.702
129.410	13.697	1296.425	965.295
130.424	13.705	1295.724	964.734
131.439	13.657	1294.217	963.246
132.454	13.654	1293.587	962.677
133.468	13.716	1292.589	962.207
134.483	13.747	1291.432	961.442
135.497	13.711	1290.215	960.244
136.512	13.709	1289.010	959.249
137.527	13.702	1287.898	958.297
138.541	13.697	1285.786	956.610
139.556	13.696	1284.982	955.921
140.570	13.694	1283.891	955.016
141.585	13.803	1282.491	954.513
142.600	13.829	1281.675	953.974
143.614	13.813	1280.607	953.001
144.629	13.812	1279.442	952.045
145.643	13.839	1278.453	951.380
146.658	13.943	1276.936	950.762
147.673	13.765	1275.793	948.809
148.687	13.845	1274.786	948.433
149.702	13.724	1273.468	946.677
150.716	13.793	1271.874	945.803
151.731	13.707	1271.154	944.691
152.746	13.794	1269.714	944.035
153.760	13.971	1268.437	944.009
154.775	13.907	1267.373	942.766
155.789	13.931	1265.831	941.674
156.804	13.997	1264.847	941.231
157.819	13.949	1264.230	940.418
158.833	13.890	1263.490	939.450
159.848	14.022	1262.147	939.116
160.862	14.044	1261.406	938.607
161.877	13.943	1260.415	937.217
162.892	13.924	1259.135	936.075
163.906	13.871	1258.040	934.879
164.921	14.020	1256.970	934.838
165.935	14.088	1256.446	934.749
166.950	14.043	1255.383	933.622
167.964	13.984	1254.735	932.724
168.979	13.993	1254.226	932.314
169.994	14.060	1253.242	931.879
171.008	14.004	1252.941	931.257
172.023	14.120	1251.952	931.091
173.037	14.153	1250.841	930.367
174.052	14.120	1249.643	929.205
175.067	14.083	1248.863	928.336
176.081	14.065	1248.205	927.666
177.096	14.196	1246.932	927.367
178.110	14.151	1245.518	925.985
179.125	14.148	1243.997	924.754
180.140	14.113	1243.268	923.938
181.154	14.045	1242.246	922.717
182.169	14.143	1241.067	922.304
183.183	14.241	1239.699	921.751
184.198	14.238	1238.400	920.686
185.213	14.273	1237.472	920.105
186.227	14.296	1236.020	919.076
187.242	14.206	1235.206	917.889
188.256	14.337	1234.155	917.749
189.271	14.210	1233.525	916.502
190.286	14.202	1232.480	915.599
191.300	14.115	1231.686	914.448
192.315	14.159	1231.143	914.207
193.329	14.233	1230.071	913.735
194.344	14.161	1229.625	912.928
195.359	14.268	1228.936	912.923
196.373	14.323	1228.387	912.735
197.388	14.370	1227.813	912.485
198.402	14.245	1227.580	911.547
199.417	14.446	1226.513	911.774
200.432	14.531	1225.820	911.641
201.446	14.489	1224.971	910.701
202.461	14.478	1223.972	909.819
203.475	14.568	1222.859	909.405
204.490	14.539	1221.531	908.173
205.504	14.575	1219.970	907.132
206.519	14.467	1219.179	905.874
207.534	14.418	1218.356	904.920
208.548	14.382	1217.964	904.353
209.563	14.522	1216.322	903.813
210.577	14.521	1215.171	902.870
211.592	14.633	1214.570	902.951
212.607	14.609	1213.706	902.100
213.621	14.688	1212.818	901.786
214.636	14.534	1212.172	900.394
215.650	14.681	1210.515	899.877
216.665	14.689	1210.203	899.605
217.680	14.666	1209.147	898.619
218.694	14.744	1208.355	898.370
219.709	14.647	1208.085	897.566
220.723	14.725	1206.491	896.723
221.738	14.766	1205.848	896.383
222.753	14.739	1205.766	896.101
223.767	14.776	1204.580	895.341
224.782	14.769	1204.110	894.873
225.796	14.771	1203.503	894.353
226.811	14.828	1202.375	893.742
227.826	14.977	1201.653	893.922
228.840	14.859	1201.135	892.826
229.855	14.855	1200.871	892.529
230.869	14.914	1199.245	891.554
231.884	14.852	1198.829	890.837
232.899	14.808	1197.837	889.786
233.913	14.780	1197.316	889.170
234.928	14.807	1196.535	888.659
235.942	14.872	1195.681	888.289
236.957	14.916	1194.993	887.936
237.972	14.851	1193.986	886.764
238.986	14.790	1193.924	886.313
240.001	14.859	1193.148	886.026
241.015	14.974	1191.424	885.274
242.030	14.969	1191.177	884.988
243.045	15.060	1189.631	884.243
244.059	14.914	1189.718	883.455
245.074	15.070	1187.968	882.901
246.088	15.111	1187.799	882.913
247.103	15.029	1186.912	881.745
248.117	15.085	1186.504	881.660
249.132	15.104	1185.548	880.972
250.147	15.204	1184.866	880.909
251.161	15.298	1183.761	880.503
252.176	15.196	1184.042	880.100
253.190	15.237	1183.074	879.519
254.205	15.235	1182.386	878.919
255.220	15.312	1181.917	878.896
256.234	15.370	1180.628	878.163
257.249	15.321	1180.411	877.668
258.263	15.408	1179.272	877.196
259.278	15.356	1179.152	876.758
260.293	15.382	1178.425	876.277
261.307	15.360	1177.930	875.717
262.322	15.494	1177.095	875.716
263.336	15.506	1176.085	874.949
264.351	15.534	1175.533	874.609
265.366	15.541	1174.609	873.882
266.380	15.514	1174.226	873.379
267.395	15.547	1173.591	872.997
268.409	15.487	1172.991	872.162
269.424	15.520	1172.029	871.545
270.439	15.467	1171.340	870.680
271.453	15.548	1170.542	870.426
272.468	15.603	1169.457	869.828
273.482	15.497	1169.168	868.986
274.497	15.558	1168.563	868.775
275.512	15.549	1167.977	868.217
276.526	15.635	1166.787	867.699
277.541	15.563	1166.205	866.818
278.555	15.524	1165.638	866.119
279.570	15.694	1164.523	866.091
280.585	15.669	1163.760	865.318
281.599	15.726	1162.633	864.695
282.614	15.775	1161.876	864.307
283.628	15.750	1160.657	863.195
284.643	15.671	1160.103	862.305
285.657	15.867	1158.897	862.334
286.672	15.688	1158.047	860.711
287.687	15.851	1156.672	860.446
288.701	15.689	1156.557	859.456
289.716	15.816	1155.298	859.095
290.730	15.884	1154.731	858.943
291.745	15.826	1153.993	858.022
292.760	15.982	1152.933	857.950
293.774	15.958	1152.791	857.650
294.789	15.961	1152.269	857.196
295.803	15.912	1151.565	856.349
296.818	15.885	1151.090	855.782
297.833	15.929	1150.069	855.172
298.847	15.795	1149.810	854.226
299.862	15.991	1148.820	854.408
300.876	16.067	1147.566	853.784
301.891	16.041	1146.695	852.930
302.906	16.106	1146.507	853.040
303.920	16.132	1145.368	852.251
304.935	16.069	1144.782	851.423
305.949	16.070	1144.712	851.297
306.964	16.133	1143.919	850.953
307.979	16.112	1142.870	849.989
308.993	16.229	1141.771	849.686
310.008	16.252	1141.296	849.373
311.022	16.167	1140.676	848.408
312.037	16.266	1139.785	848.167
313.052	16.174	1138.987	847.037
314.066	16.181	1137.735	846.067
315.081	16.340	1136.821	846.111
316.095	16.258	1136.399	845.308
317.110	16.160	1135.693	844.218
318.125	16.165	1134.905	843.584
319.139	16.243	1133.901	843.151
320.154	16.179	1133.430	842.406
321.168	16.118	1133.217	841.871
322.183	16.344	1131.719	841.812
323.197	16.264	1131.779	841.380
324.212	16.287	1131.172	840.970
325.227	16.322	1130.487	840.562
326.241	16.334	1129.720	839.974
327.256	16.208	1128.942	838.698
328.270	16.288	1127.982	838.307
329.285	16.273	1126.998	837.425
330.300	16.201	1126.423	836.567
331.314	16.354	1125.073	836.252
332.329	16.345	1124.370	835.609
333.343	16.363	1123.322	834.845
334.358	16.475	1122.437	834.665
335.373	16.456	1121.844	834.058
336.387	16.492	1120.937	833.489
337.402	16.418	1120.348	832.611
338.416	16.472	1119.581	832.232
339.431	16.567	1119.213	832.353
340.446	16.573	1118.283	831.617
341.460	16.599	1117.772	831.289
342.475	16.587	1117.142	830.690
343.489	16.645	1115.663	829.803
344.504	16.667	1114.841	829.227
345.519	16.650	1113.897	828.367
346.533	16.762	1112.837	828.052
347.548	16.744	1112.254	827.455
348.562	16.741	1111.767	827.005
349.577	16.746	1111.121	826.476
350.592	16.686	1110.046	825.313
351.606	16.724	1109.401	824.944
352.621	16.721	1108.952	824.523
353.635	16.633	1108.185	823.454
354.650	16.689	1107.052	822.809
355.665	16.766	1106.379	822.609
356.679	16.769	1105.787	822.112
357.694	16.738	1105.732	821.849
358.708	16.784	1105.123	821.547
359.723	16.969	1103.941	821.492
360.738	16.846	1103.063	820.171
361.752	16.838	1103.237	820.187
362.767	16.920	1102.016	819.603
363.781	16.894	1101.780	819.228
364.796	16.789	1101.414	818.378
365.810	16.950	1100.624	818.494
366.825	17.029	1099.840	818.220
367.840	16.969	1099.328	817.480
368.854	17.037	1098.740	817.297
369.869	17.012	1097.888	816.470
370.883	17.013	1097.142	815.847
371.898	16.969	1096.704	815.238
372.913	17.039	1095.838	814.860
373.927	16.996	1095.456	814.294
374.942	17.048	1094.950	814.099
375.956	17.043	1094.277	813.503
376.971	17.074	1093.621	813.090
377.986	17.191	1092.871	813.022
379.000	17.270	1092.079	812.735
380.015	17.199	1091.796	812.113
381.029	17.304	1091.110	812.032
382.044	17.336	1090.340	811.542
383.059	17.311	1089.631	810.824
384.073	17.295	1088.932	810.154
385.088	17.354	1087.894	809.593
386.102	17.344	1087.222	808.975
387.117	17.302	1085.899	807.715
388.132	17.307	1085.054	807.041
389.146	17.361	1084.100	806.517
390.161	17.276	1083.654	805.708
391.175	17.367	1083.014	805.593
392.190	17.258	1082.669	804.748
393.205	17.355	1081.580	804.327
394.219	17.399	1081.055	804.075
395.234	17.392	1080.010	803.194
396.248	17.477	1078.592	802.466
397.263	17.488	1077.485	801.625
398.278	17.432	1077.105	801.008
399.292	17.401	1076.524	800.360
400.307	17.385	1075.747	799.637
401.321	17.347	1075.509	799.210
402.336	17.479	1074.585	799.071
403.350	17.508	1073.875	798.610
404.365	17.526	1073.138	798.077
405.380	17.417	1072.919	797.329
406.394	17.497	1071.672	796.708
407.409	17.600	1070.920	796.560
408.423	17.632	1069.861	795.850
409.438	17.610	1069.313	795.269
410.453	17.801	1068.342	795.370
411.467	17.813	1067.883	795.013
412.482	17.702	1067.527	794.161
413.496	17.760	1066.459	793.566
414.511	17.729	1066.112	793.093
415.526	17.855	1065.398	793.075
416.540	17.815	1065.422	792.837
417.555	17.868	1064.406	792.258
418.569	17.767	1064.295	791.637
419.584	17.868	1063.576	791.502
420.599	17.904	1062.963	791.140
421.613	109.426	1333.085	1491.714
422.628	101.085	1372.386	1491.797
