DTS Sentinel unit serial number:	SN413079Multiplexer serial number:	ORYXHardware model number:	OX4-SRSoftware version number:	ORYX F/W v4.00 Oryx Data Collector v3.7.2.0data status	okinstallation	princeton_trtdifferential loss correction	single-endedforward channel	channel 2reverse channel	N/Adate	2019/09/15time	02:55:35forward acquisition time	60.00reverse acquisition time	0.00gamma	496.2192k internal	0.2326k external	0.2326temperature offset calibration	1.0034default loss term (dB/km)	0.3790temperature slope calibration	1.0000multiplexer offset coefficient	1.0000multiplexer slope coefficient	1.0000fibre end	0.00T internal ref (°C)	31.27T ext. ref 1 (°C)	4.57T ext. ref 2 (°C)	25.67length (m)	temperature (°C)	Stokes	anti-Stokes-747.200	-22.374	-0.378	0.231
-746.185	-0.009	-0.160	0.115
-745.171	-200.000	-0.014	-0.258
-744.156	-200.000	0.029	0.186
-743.142	800.000	0.043	-0.150
-742.127	-200.000	-0.035	0.213
-741.112	800.000	-0.132	-0.513
-740.098	-200.000	-0.313	-0.001
-739.083	68.429	0.073	0.076
-738.069	163.237	-0.199	0.282
-737.054	-200.000	0.011	0.225
-736.039	229.976	-0.188	-0.310
-735.025	-200.000	0.000	0.038
-734.010	9.947	-0.117	0.090
-732.996	-18.509	-0.055	-0.035
-731.981	407.142	-0.069	-0.148
-730.966	-33.022	-0.071	-0.040
-729.952	-93.728	-0.262	0.073
-728.937	33.112	-0.177	-0.155
-727.923	-151.650	-0.267	0.020
-726.908	-100.026	-0.182	-0.046
-725.894	303.227	-0.136	-0.255
-724.879	-200.000	0.008	-0.138
-723.864	11.594	-0.078	-0.060
-722.850	45.753	0.118	-0.110
-721.835	208.917	0.106	0.168
-720.821	60.750	-0.103	-0.103
-719.806	89.879	-0.142	-0.160
-718.791	58.750	-0.293	-0.290
-717.777	800.000	-0.046	0.185
-716.762	-200.000	-0.022	-0.445
-715.748	122.175	0.157	-0.198
-714.733	768.838	0.171	0.470
-713.718	288.390	-0.069	-0.125
-712.704	800.000	0.045	-0.145
-711.689	405.813	0.081	-0.173
-710.675	484.979	0.041	-0.095
-709.660	-200.000	-0.003	0.076
-708.645	168.774	0.038	-0.054
-707.631	117.403	0.088	-0.110
-706.616	254.118	0.123	0.212
-705.602	800.000	0.042	-0.165
-704.587	800.000	-0.029	0.097
-703.572	90.854	0.273	0.308
-702.558	-29.184	-0.282	0.163
-701.543	471.556	0.112	-0.255
-700.529	-73.083	-0.198	-0.073
-699.514	800.000	-0.142	-0.418
-698.499	249.296	-0.199	-0.340
-697.485	-200.000	0.017	-0.183
-696.470	-95.502	-0.037	0.010
-695.456	-86.880	-0.335	0.103
-694.441	460.925	-0.154	0.346
-693.426	-2.379	-0.078	-0.055
-692.412	-200.000	0.046	-0.211
-691.397	-23.976	-0.305	0.184
-690.383	-83.772	0.226	0.072
-689.368	-7.310	-0.191	-0.130
-688.354	-200.000	-0.091	-0.451
-687.339	800.000	-0.106	-0.449
-686.324	-200.000	-0.028	0.137
-685.310	-41.012	-0.256	0.133
-684.295	-56.059	0.155	-0.070
-683.281	-142.960	-0.392	0.038
-682.266	40.710	-0.161	-0.146
-681.251	-131.128	-0.315	-0.042
-680.237	-200.000	0.055	-0.302
-679.222	-113.177	0.576	-0.114
-678.208	229.601	0.079	-0.131
-677.193	169.576	0.323	0.464
-676.178	-76.759	0.160	-0.056
-675.164	164.303	-0.094	0.133
-674.149	-28.837	0.289	0.167
-673.135	-156.761	-0.218	-0.014
-672.120	-200.000	-0.055	-0.297
-671.105	-85.722	0.280	-0.087
-670.091	-150.498	-0.126	0.010
-669.076	207.052	-0.144	0.225
-668.062	698.218	0.082	-0.217
-667.047	-12.413	0.334	0.220
-666.032	-18.780	0.238	-0.149
-665.018	-50.282	-0.120	-0.057
-664.003	-200.000	-0.015	0.248
-662.989	244.979	-0.087	-0.148
-661.974	-200.000	0.033	-0.381
-660.959	166.159	0.064	0.091
-659.945	-88.058	0.049	-0.015
-658.930	800.000	0.050	-0.140
-657.916	78.016	-0.159	-0.170
-656.901	-8.652	-0.424	-0.286
-655.886	-169.685	-0.088	0.003
-654.872	181.635	-0.100	-0.148
-653.857	-8.095	0.169	-0.115
-652.843	-200.000	-0.016	-0.330
-651.828	380.242	-0.189	-0.389
-650.814	800.000	0.146	-0.466
-649.799	11.241	0.134	0.103
-648.784	80.120	0.172	-0.185
-647.770	-151.967	0.332	-0.024
-646.755	113.582	-0.124	0.152
-645.741	-200.000	0.052	0.231
-644.726	-40.774	0.214	0.111
-643.711	-200.000	-0.001	-0.158
-642.697	800.000	0.010	-0.038
-641.682	-81.472	-0.215	-0.071
-640.668	-138.079	-0.084	-0.009
-639.653	-79.509	-0.127	0.043
-638.638	-200.000	0.019	0.162
-637.624	800.000	0.094	-0.301
-636.609	192.807	-0.128	0.194
-635.595	28.653	-0.148	0.126
-634.580	800.000	-0.077	0.321
-633.565	-74.164	-0.139	0.050
-632.551	115.273	-0.263	-0.322
-631.536	156.488	0.126	-0.175
-630.522	35.028	0.171	0.150
-629.507	-33.896	0.189	0.105
-628.492	-145.339	-0.204	0.018
-627.478	-99.629	-0.467	-0.118
-626.463	-34.865	-0.166	0.091
-625.449	-16.590	-0.239	-0.152
-624.434	-128.166	-0.217	0.031
-623.419	21.824	-0.080	-0.066
-622.405	800.000	-0.110	0.476
-621.390	-76.845	0.152	0.053
-620.376	-127.732	-0.248	0.036
-619.361	-51.257	-0.186	-0.087
-618.346	-200.000	0.020	-0.299
-617.332	73.864	0.135	0.142
-616.317	-94.244	0.423	0.116
-615.303	-200.000	0.024	0.262
-614.288	800.000	-0.061	0.215
-613.273	40.574	-0.247	-0.223
-612.259	-86.680	-0.230	-0.071
-611.244	-84.125	0.188	-0.060
-610.230	800.000	0.036	-0.103
-609.215	-132.272	-0.255	-0.033
-608.201	66.489	-0.194	-0.197
-607.186	-117.959	-0.325	-0.058
-606.171	-66.998	0.327	-0.130
-605.157	800.000	0.065	-0.261
-604.142	293.383	-0.058	0.105
-603.128	-11.969	-0.053	-0.035
-602.113	-8.523	0.355	-0.240
-601.098	367.404	0.057	0.115
-600.084	47.689	-0.194	-0.182
-599.069	800.000	-0.088	0.282
-598.055	535.808	-0.015	-0.036
-597.040	-41.738	-0.406	0.209
-596.025	-28.983	-0.363	-0.209
-595.011	-200.000	-0.030	0.141
-593.996	786.900	0.120	-0.330
-592.982	386.648	-0.055	0.114
-591.967	800.000	0.069	0.195
-590.952	800.000	-0.007	0.026
-589.938	-10.735	-0.214	-0.142
-588.923	26.980	-0.014	-0.011
-587.909	-200.000	-0.012	-0.069
-586.894	-43.938	0.126	-0.064
-585.879	350.786	-0.102	0.202
-584.865	-78.843	0.276	-0.094
-583.850	-200.000	-0.005	0.163
-582.836	-200.000	0.044	-0.299
-581.821	-200.000	-0.002	0.031
-580.806	-200.000	-0.026	0.248
-579.792	330.752	0.123	-0.237
-578.777	433.702	-0.140	-0.304
-577.763	337.148	0.035	-0.068
-576.748	-143.275	0.201	-0.019
-575.733	32.398	-0.158	0.137
-574.719	-200.000	0.024	-0.183
-573.704	-200.000	0.022	0.339
-572.690	-200.000	-0.088	-0.473
-571.675	40.887	-0.163	0.148
-570.661	210.480	0.220	0.347
-569.646	28.001	0.229	-0.194
-568.631	85.751	-0.034	-0.038
-567.617	800.000	-0.061	0.214
-566.602	172.115	0.230	0.331
-565.588	-26.995	0.235	-0.138
-564.573	-200.000	0.055	0.257
-563.558	800.000	0.021	0.060
-562.544	326.922	-0.136	-0.261
-561.529	-148.226	0.298	-0.025
-560.515	-200.000	0.032	0.149
-559.500	-200.000	0.017	-0.359
-558.485	662.177	-0.030	-0.079
-557.471	-170.042	-0.176	-0.006
-556.456	-154.285	-0.166	-0.011
-555.442	-103.627	-0.158	-0.037
-554.427	-15.522	-0.229	-0.146
-553.412	-200.000	0.025	-0.145
-552.398	407.468	-0.132	-0.279
-551.383	317.572	-0.127	0.240
-550.369	-115.333	0.450	0.085
-549.354	584.789	-0.023	0.057
-548.339	800.000	-0.103	-0.327
-547.325	-127.057	-0.098	-0.014
-546.310	-97.583	0.178	-0.046
-545.296	10.896	-0.068	0.052
-544.281	111.774	-0.158	-0.190
-543.266	800.000	0.073	-0.221
-542.252	-200.000	-0.035	-0.179
-541.237	41.912	0.019	-0.017
-540.223	-65.985	0.044	-0.018
-539.208	98.624	-0.178	0.205
-538.193	-159.352	-0.314	0.018
-537.179	-103.144	0.131	0.031
-536.164	-5.330	0.250	0.172
-535.150	-95.225	0.167	-0.045
-534.135	-200.000	-0.029	0.391
-533.121	158.361	0.196	-0.272
-532.106	-26.133	-0.084	-0.049
-531.091	-200.000	0.095	0.528
-530.077	-11.798	-0.061	0.040
-529.062	0.464	0.273	0.195
-528.048	94.524	-0.070	-0.079
-527.033	-200.000	-0.003	0.028
-526.018	59.639	0.247	-0.244
-525.004	122.246	0.136	-0.170
-523.989	-200.000	-0.044	-0.246
-522.975	-200.000	0.063	0.348
-521.960	800.000	-0.040	-0.153
-520.945	-200.000	0.082	-0.395
-519.931	800.000	0.036	-0.110
-518.916	277.371	-0.069	0.122
-517.902	150.349	-0.087	0.118
-516.887	-130.665	-0.028	0.004
-515.872	-84.398	0.090	-0.029
-514.858	14.744	-0.144	-0.112
-513.843	-123.628	0.197	0.031
-512.829	199.305	-0.048	-0.073
-511.814	-200.000	-0.323	0.001
-510.799	-200.000	-0.003	0.086
-509.785	-94.791	0.089	-0.024
-508.770	185.027	0.123	0.183
-507.756	2.627	0.037	-0.027
-506.741	313.444	-0.125	0.235
-505.726	630.699	-0.109	0.277
-504.712	35.927	0.033	0.029
-503.697	-44.677	-0.446	-0.222
-502.683	120.968	0.357	-0.444
-501.668	800.000	0.039	0.165
-500.653	22.427	-0.262	-0.214
-499.639	201.508	0.102	0.157
-498.624	30.109	0.074	-0.063
-497.610	-90.518	0.099	-0.029
-496.595	800.000	0.102	-0.312
-495.581	-200.000	0.023	0.153
-494.566	25.718	-0.080	-0.067
-493.551	37.927	-0.050	0.044
-492.537	58.730	-0.265	0.260
-491.522	-200.000	-0.001	0.113
-490.508	5.852	0.096	0.071
-489.493	-86.712	-0.363	0.111
-488.478	6.026	0.263	-0.195
-487.464	-29.775	0.108	-0.061
-486.449	32.340	0.070	0.060
-485.435	-50.200	-0.292	-0.138
-484.420	-8.890	0.075	0.050
-483.405	-200.000	-0.022	-0.310
-482.391	800.000	-0.127	0.405
-481.376	21.015	0.191	-0.155
-480.362	24.274	-0.265	0.219
-479.347	-43.358	0.238	0.120
-478.332	305.584	-0.119	-0.222
-477.318	-166.812	0.207	0.009
-476.303	-142.143	0.237	-0.023
-475.289	-180.955	-0.180	-0.004
-474.274	-200.000	0.009	0.278
-473.259	60.327	0.172	-0.170
-472.245	-59.522	0.102	0.044
-471.230	399.836	0.158	0.330
-470.216	-106.407	-0.004	0.001
-469.201	-200.000	-0.013	-0.107
-468.186	62.143	0.033	0.033
-467.172	-77.259	-0.076	-0.026
-466.157	-45.169	-0.195	0.097
-465.143	-162.121	-0.357	-0.018
-464.128	-200.000	-0.004	-0.203
-463.113	-101.486	0.184	0.045
-462.099	800.000	-0.059	-0.182
-461.084	52.427	-0.271	-0.258
-460.070	-158.144	0.187	0.011
-459.055	3.463	0.183	-0.133
-458.040	-200.000	-0.007	-0.080
-457.026	-200.000	-0.001	0.048
-456.011	-78.500	0.219	-0.075
-454.997	-110.906	0.102	0.021
-453.982	-24.327	0.166	-0.099
-452.968	10.630	0.234	0.178
-451.953	800.000	-0.089	0.285
-450.938	-91.149	-0.131	0.037
-449.924	4.495	0.169	0.124
-448.909	800.000	0.098	0.311
-447.895	-200.000	-0.072	0.354
-446.880	239.172	0.137	0.228
-445.865	800.000	0.078	0.318
-444.851	-12.290	0.322	0.210
-443.836	56.219	-0.182	-0.176
-442.822	122.459	-0.050	0.063
-441.807	633.344	0.060	0.152
-440.792	800.000	-0.013	0.049
-439.778	352.997	-0.044	0.086
-438.763	3.033	-0.027	-0.019
-437.749	258.926	-0.141	0.242
-436.734	-27.643	-0.220	0.127
-435.719	-129.495	0.162	-0.022
-434.705	98.216	0.096	-0.110
-433.690	800.000	-0.011	-0.047
-432.676	314.986	0.125	0.236
-431.661	143.204	-0.097	0.128
-430.646	191.171	-0.062	-0.093
-429.632	4.793	0.229	-0.168
-428.617	53.208	0.219	0.209
-427.603	-50.330	0.247	0.116
-426.588	800.000	0.063	0.195
-425.573	607.946	0.119	-0.295
-424.559	-166.819	0.215	0.009
-423.544	23.245	-0.063	0.052
-422.530	278.304	-0.075	0.134
-421.515	172.023	0.119	-0.170
-420.500	-180.368	0.339	-0.007
-419.486	-85.056	-0.320	0.100
-418.471	-200.000	-0.005	-0.234
-417.457	-200.000	0.024	0.127
-416.442	283.044	-0.054	-0.096
-415.428	-153.259	-0.167	-0.012
-414.413	6.967	-0.171	-0.127
-413.398	8.627	0.312	-0.234
-412.384	200.089	0.014	0.021
-411.369	433.557	-0.152	-0.329
-410.355	794.668	-0.099	0.271
-409.340	-200.000	0.072	-0.332
-408.325	800.000	-0.049	-0.165
-407.311	-137.074	-0.419	-0.048
-406.296	9.664	0.084	-0.063
-405.282	-74.998	-0.145	0.052
-404.267	-143.395	0.222	-0.021
-403.252	58.276	-0.098	-0.096
-402.238	484.363	0.161	-0.364
-401.223	-200.000	-0.013	-0.113
-400.209	40.889	-0.097	0.087
-399.194	69.654	0.143	-0.147
-398.179	-200.000	0.054	-0.237
-397.165	-119.747	-0.229	0.039
-396.150	-17.537	0.304	-0.190
-395.136	-200.000	-0.019	-0.151
-394.121	-30.188	-0.120	-0.068
-393.106	48.679	-0.061	0.057
-392.092	1.707	-0.211	0.151
-391.077	215.547	-0.050	-0.080
-390.063	-147.711	0.196	0.016
-389.048	-75.706	0.166	0.059
-388.033	-155.142	0.149	0.010
-387.019	11.816	0.068	-0.052
-386.004	-200.000	0.001	-0.207
-384.990	65.701	-0.272	-0.274
-383.975	-0.086	-0.158	-0.112
-382.960	-19.867	-0.145	0.089
-381.946	800.000	0.024	0.091
-380.931	-99.526	0.247	-0.062
-379.917	-96.895	-0.189	-0.049
-378.902	-54.738	0.230	-0.103
-377.888	14.674	0.138	0.107
-376.873	-200.000	0.061	-0.376
-375.858	-37.724	-0.247	-0.131
-374.844	160.245	-0.101	-0.139
-373.829	-200.000	-0.046	-0.213
-372.815	800.000	0.058	0.217
-371.800	170.961	-0.115	0.164
-370.785	735.323	0.019	-0.050
-369.771	376.646	0.159	-0.323
-368.756	-156.104	-0.451	0.028
-367.742	-162.743	0.511	0.025
-366.727	5.611	0.103	0.075
-365.712	-19.130	0.123	0.076
-364.698	-68.182	-0.246	-0.095
-363.683	800.000	-0.021	-0.081
-362.669	-155.652	0.343	0.022
-361.654	172.537	0.194	0.277
-360.639	-157.254	-0.416	0.025
-359.625	-165.803	-0.089	0.004
-358.610	212.765	0.091	-0.142
-357.596	61.672	-0.304	0.300
-356.581	-200.000	0.067	0.441
-355.566	507.648	-0.168	-0.388
-354.552	-99.586	-0.498	0.124
-353.537	-200.000	-0.024	0.151
-352.523	1.684	0.143	0.103
-351.508	308.737	-0.097	-0.180
-350.493	-200.000	0.065	0.283
-349.479	-52.324	0.183	0.084
-348.464	-43.190	-0.283	-0.142
-347.450	-57.332	-0.344	-0.150
-346.435	-86.510	0.249	0.076
-345.420	-42.427	-0.194	0.098
-344.406	-144.362	-0.159	-0.015
-343.391	-16.101	0.201	0.127
-342.377	-200.000	-0.066	-0.352
-341.362	-128.333	0.175	0.025
-340.348	249.615	0.096	0.162
-339.333	1.072	-0.119	-0.085
-338.318	625.608	0.043	-0.109
-337.304	-200.000	0.029	0.216
-336.289	-150.376	-0.264	-0.020
-335.275	642.864	-0.023	0.059
-334.260	92.748	-0.089	-0.099
-333.245	19.970	-0.043	0.034
-332.231	-200.000	0.059	-0.357
-331.216	-44.746	-0.208	-0.103
-330.202	-3.174	-0.233	-0.161
-329.187	160.841	0.112	0.155
-328.172	361.414	0.018	-0.036
-327.158	31.526	0.253	0.216
-326.143	-200.000	-0.007	-0.101
-325.129	-3.993	0.224	0.154
-324.114	-163.957	-0.118	0.005
-323.099	350.926	-0.216	-0.423
-322.085	800.000	-0.102	-0.299
-321.070	800.000	-0.095	0.324
-320.056	35.207	-0.217	-0.189
-319.041	-95.291	-0.366	-0.098
-318.026	55.938	-0.071	-0.068
-317.012	-19.437	-0.254	-0.156
-315.997	-4.537	0.144	-0.099
-314.983	79.036	-0.280	-0.297
-313.968	-98.491	0.043	0.011
-312.953	46.162	0.010	-0.009
-311.939	5.338	-0.176	-0.128
-310.924	16.847	-0.129	-0.102
-309.910	-200.000	-0.003	-0.121
-308.895	-83.449	-0.377	0.120
-307.880	-200.000	-0.018	-0.256
-306.866	800.000	-0.109	-0.314
-305.851	109.785	-0.229	-0.272
-304.837	-58.234	0.368	-0.159
-303.822	-78.604	0.083	0.028
-302.807	9.838	0.134	-0.101
-301.793	126.075	0.156	0.195
-300.778	205.056	0.138	0.212
-299.764	-71.224	0.047	0.017
-298.749	-124.433	0.313	-0.048
-297.735	-101.454	-0.207	-0.050
-296.720	-200.000	0.016	0.239
-295.705	800.000	-0.038	0.143
-294.691	283.085	0.222	0.394
-293.676	161.072	-0.146	0.202
-292.662	92.376	0.137	-0.153
-291.647	-5.604	-0.109	-0.074
-290.632	-65.740	-0.228	-0.091
-289.618	-32.907	0.220	-0.121
-288.603	-181.725	0.338	-0.006
-287.589	-70.227	0.250	-0.094
-286.574	306.013	0.186	-0.344
-285.559	404.181	0.041	-0.085
-284.545	800.000	-0.085	0.364
-283.530	-41.768	0.263	-0.134
-282.516	800.000	-0.127	0.360
-281.501	-27.558	-0.046	-0.027
-280.486	364.864	0.033	-0.067
-279.472	-59.794	-0.294	0.125
-278.457	-200.000	-0.014	0.131
-277.443	-31.993	-0.108	0.060
-276.428	546.273	-0.116	-0.276
-275.413	-156.501	0.489	-0.030
-274.399	-18.349	0.116	0.072
-273.384	-47.844	0.249	0.119
-272.370	-195.501	0.235	0.002
-271.355	-200.000	-0.008	0.136
-270.340	70.306	0.204	0.209
-269.326	-8.962	0.221	-0.146
-268.311	800.000	-0.027	-0.103
-267.297	800.000	0.020	0.055
-266.282	9.677	-0.247	0.185
-265.267	800.000	-0.092	-0.288
-264.253	-141.142	0.360	0.036
-263.238	-28.275	-0.417	0.238
-262.224	57.195	-0.137	-0.132
-261.209	800.000	-0.014	0.046
-260.195	-33.952	0.189	-0.103
-259.180	-127.934	0.203	0.029
-258.165	190.764	0.022	0.033
-257.151	177.258	0.113	-0.163
-256.136	-200.000	0.021	0.183
-255.122	-200.000	0.009	-0.080
-254.107	-39.090	0.273	-0.142
-253.092	800.000	-0.043	0.166
-252.078	-75.831	0.124	-0.044
-251.063	74.284	0.185	0.192
-250.049	-74.861	0.088	-0.031
-249.034	130.921	-0.167	-0.212
-248.019	-152.467	-0.143	-0.010
-247.005	276.773	0.062	-0.108
-245.990	35.380	0.248	0.216
-244.976	-200.000	-0.031	-0.200
-243.961	-7.602	0.287	0.192
-242.946	-200.000	-0.002	0.072
-241.932	499.823	-0.061	-0.140
-240.917	-200.000	0.003	0.270
-239.903	270.103	0.057	0.100
-238.888	287.277	0.111	0.198
-237.873	-13.080	0.057	-0.037
-236.859	800.000	0.037	0.159
-235.844	335.047	0.091	0.174
-234.830	158.865	-0.185	0.254
-233.815	-181.807	-0.332	-0.006
-232.800	-200.000	0.238	-0.001
-231.786	-8.377	-0.137	-0.091
-230.771	236.842	0.264	-0.432
-229.757	-200.000	-0.019	-0.184
-228.742	800.000	-0.023	-0.083
-227.727	402.276	0.032	-0.066
-226.713	-4.503	0.393	0.268
-225.698	-158.033	0.137	0.008
-224.684	467.910	0.123	-0.274
-223.669	-39.366	0.338	0.175
-222.655	800.000	-0.049	0.191
-221.640	-200.000	0.022	0.404
-220.625	-119.413	0.142	-0.024
-219.611	112.364	0.237	0.284
-218.596	-129.041	-0.441	-0.061
-217.582	84.148	0.081	0.088
-216.567	-200.000	-0.041	-0.217
-215.552	-200.000	0.004	0.043
-214.538	-164.604	-0.153	-0.007
-213.523	-140.676	-0.128	0.013
-212.509	78.971	0.086	-0.091
-211.494	-176.727	0.133	0.003
-210.479	35.574	0.184	-0.160
-209.465	48.264	0.289	0.267
-208.450	132.954	0.092	-0.118
-207.436	-144.354	0.290	-0.027
-206.421	-200.000	-0.007	0.104
-205.406	-118.698	-0.287	0.050
-204.392	-200.000	0.019	0.085
-203.377	17.970	-0.164	-0.129
-202.363	800.000	0.093	0.367
-201.348	99.664	0.124	-0.142
-200.333	800.000	0.040	0.169
-199.319	26.088	-0.145	0.119
-198.304	-118.390	-0.142	-0.025
-197.290	-200.000	-0.035	0.347
-196.275	-112.173	-0.228	-0.045
-195.260	-200.000	-0.029	-0.197
-194.246	720.940	0.058	0.153
-193.231	-99.132	0.145	0.036
-192.217	-60.460	0.292	0.122
-191.202	98.878	-0.115	0.131
-190.187	-167.693	-0.086	0.003
-189.173	-80.216	0.158	-0.052
-188.158	-200.000	-0.027	0.120
-187.144	-124.796	-0.310	-0.047
-186.129	122.365	-0.051	0.063
-185.114	56.415	0.187	0.180
-184.100	450.124	-0.136	0.296
-183.085	211.248	-0.194	-0.301
-182.071	-200.000	-0.003	0.145
-181.056	-200.000	-0.059	-0.317
-180.042	-87.486	0.240	-0.072
-179.027	-113.350	-0.243	0.047
-178.012	-200.000	0.013	0.081
-176.998	160.412	-0.167	-0.230
-175.983	217.076	-0.175	-0.274
-174.969	-200.000	0.042	-0.222
-173.954	-154.665	0.091	-0.006
-172.939	-123.857	-0.307	0.048
-171.925	-141.759	0.178	0.018
-170.910	-200.000	-0.040	0.213
-169.896	37.375	0.108	-0.094
-168.881	-200.000	0.007	0.182
-167.866	13.320	-0.039	0.030
-166.852	-90.332	-0.334	-0.096
-165.837	-200.000	-0.017	0.086
-164.823	-104.630	-0.293	0.067
-163.808	-200.000	-0.046	0.470
-162.793	800.000	-0.106	-0.395
-161.779	308.069	0.118	0.217
-160.764	28.425	0.165	0.138
-159.750	-119.136	0.083	-0.014
-158.735	-15.909	-0.311	0.195
-157.720	184.500	0.164	0.239
-156.706	173.705	-0.100	0.142
-155.691	-81.491	-0.194	-0.063
-154.677	12.901	-0.428	-0.326
-153.662	800.000	0.054	0.175
-152.647	-132.310	0.465	0.059
-151.633	-50.691	0.184	0.086
-150.618	-200.000	0.016	0.119
-149.604	40.160	-0.276	-0.244
-148.589	-98.170	-0.246	0.062
-147.574	536.963	0.046	-0.108
-146.560	-36.131	-0.046	0.025
-145.545	-144.294	-0.229	0.021
-144.531	-79.341	0.127	0.042
-143.516	-12.419	0.115	-0.074
-142.502	-200.000	-0.008	0.049
-141.487	639.899	-0.058	0.145
-140.472	-139.188	0.136	0.014
-139.458	-124.061	0.426	-0.066
-138.443	419.937	-0.120	-0.252
-137.429	-200.000	0.028	-0.329
-136.414	48.722	0.040	-0.037
-135.399	-122.372	0.258	0.041
-134.385	12.770	0.135	0.103
-133.370	224.472	0.158	0.252
-132.356	-167.150	-0.210	0.008
-131.341	104.282	0.035	0.040
-130.326	115.766	-0.110	0.132
-129.312	-104.695	0.252	0.057
-128.297	-200.000	-0.005	-0.084
-127.283	-108.430	0.062	-0.013
-126.268	500.247	-0.067	0.152
-125.253	-99.725	0.123	0.030
-124.239	496.629	0.041	-0.094
-123.224	800.000	-0.133	-0.457
-122.210	-200.000	-0.017	0.196
-121.195	403.406	-0.039	-0.081
-120.180	-200.000	0.033	0.219
-119.166	-200.000	-0.027	-0.278
-118.151	42.920	0.227	0.204
-117.137	-123.830	-0.188	-0.029
-116.122	119.073	0.188	0.228
-115.107	-56.677	0.080	0.035
-114.093	-110.176	-0.135	-0.028
-113.078	69.444	0.210	-0.213
-112.064	139.314	0.191	-0.247
-111.049	132.462	-0.187	0.237
-110.034	112.168	-0.213	0.253
-109.020	-39.806	0.188	-0.097
-108.005	800.000	-0.039	0.107
-106.991	-136.971	0.192	0.022
-105.976	727.888	0.192	-0.505
-104.962	0.753	-0.257	-0.181
-103.947	-19.010	-0.068	-0.042
-102.932	-200.000	-0.007	0.217
-101.918	-79.063	-0.167	-0.056
-100.903	720.891	-0.039	-0.103
-99.889	129.082	-0.227	-0.286
-98.874	-200.000	-0.020	0.136
-97.859	15.455	-0.362	-0.280
-96.845	-3.755	-0.191	-0.131
-95.830	-133.544	0.068	0.008
-94.816	156.455	-0.070	0.095
-93.801	-28.493	0.207	-0.118
-92.786	-158.570	-0.248	0.014
-91.772	-75.222	0.451	0.158
-90.757	800.000	-0.029	0.122
-89.743	-120.245	-0.055	-0.009
-88.728	-20.119	-0.189	0.114
-87.713	-122.433	-0.178	-0.029
-86.699	-188.722	0.218	0.003
-85.684	800.000	-0.034	0.106
-84.670	90.222	-0.212	-0.233
-83.655	89.139	0.157	-0.172
-82.640	53.092	-0.007	-0.007
-81.626	-200.000	-0.040	0.305
-80.611	-200.000	0.014	0.100
-79.597	-21.524	0.083	0.050
-78.582	232.789	0.284	-0.458
-77.567	-29.806	0.160	-0.089
-76.553	328.833	-0.064	-0.121
-75.538	27.990	-0.229	-0.190
-74.524	191.165	0.139	0.205
-73.509	86.760	0.192	0.209
-72.494	27.975	0.281	0.233
-71.480	-58.556	-0.304	0.130
-70.465	-157.646	-0.084	-0.005
-69.451	-150.583	0.119	-0.009
-68.436	-15.398	-0.038	0.024
-67.422	241.323	-0.123	0.202
-66.407	-200.000	-0.002	-0.167
-65.392	61.591	-0.220	0.215
-64.378	-142.606	0.145	0.014
-63.363	17.984	0.086	-0.068
-62.349	538.515	0.079	0.184
-61.334	67.999	-0.933	-0.937
-60.319	16.760	0.765	0.595
-59.305	561.373	-0.371	-0.880
-58.290	680.914	0.460	1.177
-57.276	800.000	0.496	1.399
-56.261	-200.000	99.791	610.818
-55.246	600.720	1405.115	3426.041
-54.232	192.369	2594.200	3843.634
-53.217	112.410	2272.437	2699.028
-52.203	40.788	1894.746	1677.771
-51.188	34.652	1684.003	1444.850
-50.173	31.839	1640.919	1387.052
-49.159	50.374	1690.126	1568.153
-48.144	51.802	1705.644	1593.192
-47.130	34.169	1665.778	1425.365
-46.115	31.381	1651.468	1392.331
-45.100	31.197	1646.977	1387.121
-44.086	31.213	1644.190	1384.838
-43.071	31.091	1641.907	1381.959
-42.057	31.110	1639.174	1379.747
-41.042	31.182	1637.444	1378.764
-40.027	31.156	1635.409	1376.805
-39.013	31.115	1633.379	1374.737
-37.998	31.114	1631.985	1373.502
-36.984	31.071	1630.839	1372.166
-35.969	31.235	1629.181	1371.927
-34.954	31.302	1627.170	1370.665
-33.940	31.350	1625.398	1369.475
-32.925	31.203	1624.490	1367.573
-31.911	31.258	1622.255	1366.047
-30.896	31.349	1620.354	1365.053
-29.881	31.340	1618.969	1363.770
-28.867	31.248	1617.190	1361.545
-27.852	31.183	1616.148	1360.140
-26.838	31.192	1614.098	1358.422
-25.823	31.246	1613.011	1357.849
-24.809	31.247	1611.728	1356.719
-23.794	31.321	1609.951	1355.710
-22.779	31.345	1608.720	1354.795
-21.765	31.356	1606.865	1353.257
-20.750	31.394	1604.880	1351.804
-19.736	31.190	1604.977	1350.361
-18.721	31.243	1602.718	1348.789
-17.706	31.267	1601.316	1347.728
-16.692	31.207	1600.012	1346.143
-15.677	31.311	1598.250	1345.354
-14.663	31.283	1597.744	1344.672
-13.648	31.376	1595.623	1343.503
-12.633	31.349	1594.210	1342.066
-11.619	31.326	1592.477	1340.394
-10.604	31.297	1591.292	1339.133
-9.590	31.320	1589.625	1337.841
-8.575	31.345	1588.732	1337.219
-7.560	31.311	1587.827	1336.155
-6.546	31.254	1586.601	1334.664
-5.531	31.334	1585.335	1334.122
-4.517	31.294	1584.366	1332.962
-3.502	31.318	1583.152	1332.062
-2.487	31.357	1581.430	1330.842
-1.473	30.993	1569.591	1318.250
-0.458	28.094	1550.218	1281.645
0.556	23.904	1550.082	1249.785
1.571	21.562	1573.113	1251.516
2.586	20.956	1586.042	1257.321
3.600	18.716	1532.546	1199.176
4.615	11.399	1426.593	1068.426
5.629	5.489	1365.310	985.307
6.644	4.641	1358.455	974.962
7.659	4.549	1356.765	973.086
8.673	4.466	1356.014	971.942
9.688	4.624	1353.782	971.240
10.702	4.426	1350.680	967.700
11.717	7.190	1356.367	988.964
12.731	14.299	1368.460	1042.336
13.746	18.822	1375.899	1076.316
14.761	18.795	1374.775	1075.169
15.775	17.733	1372.207	1066.429
16.790	16.669	1369.273	1057.413
17.804	15.939	1366.913	1050.941
18.819	15.544	1365.535	1047.325
19.834	15.288	1364.324	1044.712
20.848	15.024	1363.522	1042.361
21.863	14.811	1361.755	1039.593
22.877	14.668	1361.201	1038.188
23.892	14.617	1360.147	1036.971
24.907	14.494	1359.750	1035.816
25.921	14.589	1358.279	1035.195
26.936	14.739	1357.428	1035.380
27.950	14.652	1356.334	1033.920
28.965	14.775	1355.537	1033.982
29.980	14.828	1354.633	1033.524
30.994	14.951	1352.975	1032.930
32.009	15.010	1351.813	1032.315
33.023	14.923	1350.938	1031.019
34.038	14.945	1348.984	1029.571
35.053	14.888	1348.162	1028.504
36.067	14.790	1347.145	1027.031
37.082	14.823	1346.215	1026.438
38.096	14.865	1344.982	1025.663
39.111	14.870	1344.633	1025.338
40.126	14.780	1344.280	1024.424
41.140	14.744	1342.347	1022.641
42.155	14.538	1342.298	1021.252
43.169	14.535	1342.149	1021.028
44.184	14.651	1341.882	1021.449
45.199	14.576	1341.450	1020.566
46.213	14.696	1340.595	1020.561
47.228	14.659	1340.126	1019.889
48.242	14.837	1338.707	1019.802
49.257	14.725	1337.012	1017.741
50.271	14.761	1335.370	1016.621
51.286	14.773	1334.580	1016.000
52.301	14.668	1333.573	1014.506
53.315	14.679	1331.987	1013.276
54.330	14.642	1330.901	1012.139
55.344	14.565	1329.894	1010.815
56.359	14.672	1328.368	1010.215
57.374	14.680	1327.525	1009.531
58.388	14.515	1327.078	1008.102
59.403	14.614	1326.332	1008.046
60.417	14.612	1325.616	1007.399
61.432	14.461	1325.210	1006.091
62.447	14.481	1323.806	1005.055
63.461	14.501	1322.460	1004.069
64.476	14.465	1321.643	1003.140
65.490	14.533	1320.369	1002.496
66.505	14.525	1318.718	1001.103
67.520	14.496	1317.729	1000.093
68.534	14.492	1317.204	999.577
69.549	14.439	1316.513	998.647
70.563	14.523	1314.720	997.701
71.578	14.453	1313.490	996.265
72.593	14.401	1312.909	995.423
73.607	14.321	1312.217	994.334
74.622	14.304	1311.425	993.543
75.636	14.334	1310.555	992.973
76.651	14.375	1309.893	992.629
77.666	14.406	1309.561	992.479
78.680	14.427	1308.839	991.966
79.695	14.415	1308.275	991.381
80.709	14.540	1307.220	991.237
81.724	14.599	1306.463	990.922
82.739	14.650	1305.513	990.419
83.753	14.665	1304.800	989.879
84.768	14.732	1304.135	989.686
85.782	14.824	1302.876	989.186
86.797	14.755	1301.592	987.712
87.812	14.667	1300.226	986.074
88.826	14.734	1299.166	985.576
89.841	14.756	1298.409	985.044
90.855	14.910	1296.979	984.781
91.870	14.834	1296.324	983.749
92.884	14.783	1296.036	983.139
93.899	14.923	1294.622	982.804
94.914	14.902	1294.305	982.352
95.928	14.792	1293.590	981.076
96.943	14.836	1292.467	980.396
97.957	14.866	1291.558	979.798
98.972	14.859	1290.120	978.581
99.987	14.852	1289.253	977.794
101.001	14.890	1288.082	977.038
102.016	14.903	1286.923	976.150
103.030	14.866	1286.774	975.734
104.045	14.839	1285.780	974.738
105.060	14.684	1284.428	972.727
106.074	14.620	1282.986	971.173
107.089	14.511	1281.611	969.413
108.103	14.432	1280.546	968.065
109.118	14.474	1279.174	967.185
110.133	14.574	1277.617	966.500
111.147	14.548	1276.188	965.182
112.162	14.485	1275.599	964.290
113.176	14.573	1274.260	963.696
114.191	14.621	1273.231	963.112
115.206	14.659	1272.140	962.424
116.220	14.590	1270.739	960.878
117.235	14.548	1269.571	959.671
118.249	14.536	1268.882	958.997
119.264	14.493	1268.213	958.156
120.279	14.514	1266.668	957.025
121.293	14.586	1265.103	956.171
122.308	14.473	1264.229	954.777
123.322	14.374	1263.319	953.440
124.337	14.411	1262.785	953.163
125.352	14.464	1261.371	952.314
126.366	14.513	1260.001	951.478
127.381	14.523	1259.408	951.004
128.395	14.526	1258.561	950.297
129.410	14.609	1257.129	949.605
130.424	14.602	1256.885	949.293
131.439	14.647	1255.550	948.457
132.454	14.644	1254.589	947.633
133.468	14.595	1253.719	946.614
134.483	14.636	1253.079	946.280
135.497	14.638	1252.487	945.757
136.512	14.604	1251.035	944.386
137.527	14.679	1249.649	943.679
138.541	14.655	1248.375	942.499
139.556	14.755	1246.911	941.875
140.570	14.665	1246.107	940.676
141.585	14.844	1244.879	940.671
142.600	14.822	1243.674	939.555
143.614	14.823	1243.459	939.318
144.629	14.998	1241.842	938.992
145.643	14.960	1240.505	937.687
146.658	14.837	1239.290	935.998
147.673	14.768	1237.845	934.439
148.687	14.739	1236.492	933.168
149.702	14.742	1235.422	932.296
150.716	14.666	1234.155	930.833
151.731	14.819	1232.643	930.465
152.746	14.669	1232.003	929.062
153.760	14.761	1230.625	928.453
154.775	14.745	1229.791	927.654
155.789	14.839	1228.825	927.366
156.804	14.917	1228.036	927.121
157.819	14.732	1227.095	925.300
158.833	14.986	1226.039	925.829
159.848	15.022	1225.081	925.222
160.862	15.070	1223.916	924.527
161.877	14.914	1222.696	922.662
162.892	14.929	1221.386	921.675
163.906	14.800	1220.983	920.579
164.921	14.792	1220.129	919.807
165.935	14.854	1219.051	919.256
166.950	14.983	1217.869	918.993
167.964	14.952	1217.443	918.417
168.979	14.878	1216.757	917.413
169.994	14.936	1216.173	917.210
171.008	14.890	1215.700	916.519
172.023	15.055	1214.653	916.556
173.037	15.046	1214.053	915.969
174.052	15.096	1212.925	915.312
175.067	14.913	1212.035	913.562
176.081	14.978	1211.003	913.054
177.096	14.868	1210.139	911.724
178.110	14.955	1208.943	911.217
179.125	14.949	1207.998	910.392
180.140	14.907	1206.885	909.245
181.154	15.014	1205.403	908.627
182.169	15.025	1204.217	907.713
183.183	15.195	1203.052	907.673
184.198	15.045	1202.074	906.045
185.213	15.219	1200.883	906.010
186.227	15.180	1200.186	905.192
187.242	15.246	1198.770	904.399
188.256	15.266	1198.257	904.041
189.271	15.339	1197.104	903.484
190.286	15.213	1196.308	902.122
191.300	14.851	1195.449	899.451
192.315	14.871	1194.956	899.107
193.329	14.908	1193.975	898.488
194.344	15.062	1193.411	898.810
195.359	15.021	1192.926	898.146
196.373	15.142	1192.454	898.358
197.388	15.202	1191.819	898.125
198.402	15.350	1191.379	898.508
199.417	15.532	1190.441	898.691
200.432	15.530	1190.117	898.360
201.446	15.473	1189.215	897.293
202.461	15.510	1188.453	896.834
203.475	15.524	1187.768	896.312
204.490	15.410	1186.009	894.300
205.504	15.225	1185.173	892.604
206.519	15.417	1183.499	892.288
207.534	15.308	1182.483	890.866
208.548	15.478	1181.637	891.047
209.563	15.407	1181.225	890.283
210.577	15.295	1180.130	888.783
211.592	15.393	1179.300	888.600
212.607	15.662	1178.486	889.332
213.621	15.434	1177.917	887.619
214.636	15.558	1176.263	886.947
215.650	15.576	1175.546	886.424
216.665	15.553	1174.411	885.369
217.680	15.640	1173.747	885.249
218.694	15.669	1172.937	884.709
219.709	15.676	1172.227	884.136
220.723	15.576	1171.439	882.937
221.738	15.633	1170.760	882.647
222.753	15.648	1169.940	882.030
223.767	15.597	1169.558	881.394
224.782	15.721	1168.738	881.349
225.796	15.797	1167.897	881.034
226.811	15.713	1167.481	880.200
227.826	15.837	1166.459	880.001
228.840	15.692	1165.873	878.723
229.855	15.753	1165.088	878.376
230.869	15.732	1164.436	877.693
231.884	15.707	1163.500	876.781
232.899	15.663	1162.738	875.901
233.913	15.641	1162.026	875.171
234.928	15.736	1161.146	874.925
235.942	15.585	1160.725	873.746
236.957	15.666	1159.998	873.545
237.972	15.675	1159.037	872.790
238.986	15.640	1158.488	872.116
240.001	15.746	1157.728	872.015
241.015	15.747	1156.680	871.153
242.030	15.779	1155.615	870.444
243.045	15.771	1155.411	870.172
244.059	15.878	1154.465	869.931
245.074	15.879	1153.572	869.187
246.088	15.892	1152.491	868.363
247.103	15.922	1152.452	868.412
248.117	16.028	1151.524	868.180
249.132	16.070	1150.917	867.862
250.147	16.247	1150.130	868.105
251.161	16.101	1149.832	867.053
252.176	16.238	1148.628	866.770
253.190	16.311	1148.162	866.719
254.205	16.438	1147.552	866.830
255.220	16.360	1147.123	866.033
256.234	16.223	1146.594	864.854
257.249	16.355	1145.722	864.795
258.263	16.359	1145.176	864.324
259.278	16.411	1144.197	863.774
260.293	16.414	1143.942	863.525
261.307	16.481	1143.332	863.326
262.322	16.401	1142.990	862.586
263.336	16.491	1142.079	862.280
264.351	16.435	1141.148	861.215
265.366	16.628	1140.605	861.712
266.380	16.510	1139.991	860.572
267.395	16.524	1138.908	859.748
268.409	16.475	1138.123	858.829
269.424	16.419	1137.735	858.180
270.439	16.339	1137.547	857.555
271.453	16.476	1136.205	857.161
272.468	16.351	1135.464	855.894
273.482	16.423	1134.508	855.463
274.497	16.404	1134.507	855.289
275.512	16.521	1133.588	855.113
276.526	16.474	1132.659	854.100
277.541	16.482	1131.946	853.524
278.555	16.525	1131.326	853.201
279.570	16.716	1130.783	853.679
280.585	16.663	1129.588	852.434
281.599	16.709	1128.901	852.073
282.614	16.595	1127.781	850.575
283.628	16.686	1126.439	849.949
284.643	16.597	1126.032	849.117
285.657	16.587	1125.272	848.418
286.672	16.575	1124.650	847.817
287.687	16.626	1123.686	847.270
288.701	16.692	1122.823	846.873
289.716	16.564	1122.072	845.590
290.730	16.738	1121.027	845.600
291.745	16.722	1120.752	845.237
292.760	16.688	1120.205	844.581
293.774	16.823	1119.101	844.345
294.789	16.818	1118.602	843.869
295.803	16.832	1118.471	843.767
296.818	16.796	1117.680	842.912
297.833	16.840	1116.700	842.318
298.847	16.782	1115.964	841.402
299.862	16.891	1114.790	840.984
300.876	16.823	1114.489	840.347
301.891	17.061	1113.452	840.669
302.906	16.947	1113.283	839.900
303.920	17.060	1112.710	839.951
304.935	17.107	1111.811	839.433
305.949	17.126	1111.363	839.114
306.964	17.054	1110.873	838.314
307.979	17.013	1109.649	837.115
308.993	16.983	1109.332	836.653
310.008	17.204	1108.321	836.904
311.022	17.169	1107.932	836.366
312.037	17.142	1107.174	835.585
313.052	17.166	1105.768	834.570
314.066	17.072	1104.994	833.451
315.081	16.992	1103.933	832.181
316.095	17.011	1103.256	831.692
317.110	16.961	1102.632	830.901
318.125	16.917	1102.392	830.432
319.139	16.894	1101.848	829.835
320.154	17.069	1100.567	829.655
321.168	17.055	1099.985	829.077
322.183	17.012	1099.538	828.454
323.197	16.973	1099.179	827.919
324.212	17.148	1098.013	827.821
325.227	17.159	1097.761	827.610
326.241	17.115	1097.059	826.793
327.256	17.143	1096.054	826.102
328.270	17.125	1094.972	825.126
329.285	17.040	1094.188	824.047
330.300	17.113	1093.426	823.756
331.314	17.205	1092.538	823.460
332.329	17.239	1091.348	822.654
333.343	17.267	1090.767	822.278
334.358	17.156	1090.245	821.275
335.373	17.084	1089.697	820.443
336.387	17.400	1088.341	820.872
337.402	17.226	1087.942	819.663
338.416	17.498	1086.941	820.146
339.431	17.377	1086.672	819.286
340.446	17.396	1085.872	818.705
341.460	17.480	1085.528	818.777
342.475	17.607	1084.732	818.712
343.489	17.493	1083.990	817.533
344.504	17.556	1083.086	817.078
345.519	17.658	1082.132	816.778
346.533	17.731	1081.646	816.689
347.548	17.735	1080.926	816.093
348.562	17.773	1079.988	815.492
349.577	17.638	1079.339	814.285
350.592	17.546	1078.195	812.912
351.606	17.460	1077.195	811.675
352.621	17.463	1076.812	811.331
353.635	17.394	1076.457	810.663
354.650	17.483	1075.281	810.128
355.665	17.477	1075.077	809.873
356.679	17.747	1074.048	810.309
357.694	17.539	1073.870	809.115
358.708	17.639	1072.916	808.800
359.723	17.603	1072.480	808.230
360.738	17.731	1071.875	808.306
361.752	17.712	1071.223	807.653
362.767	17.729	1070.493	807.113
363.781	17.675	1070.172	806.546
364.796	17.834	1069.231	806.516
365.810	17.893	1068.694	806.320
366.825	17.944	1067.949	805.923
367.840	17.963	1068.086	806.046
368.854	18.033	1067.341	805.741
369.869	18.121	1066.558	805.493
370.883	18.005	1065.705	804.233
371.898	17.962	1064.924	803.369
372.913	17.873	1064.229	802.358
373.927	18.081	1063.550	802.752
374.942	18.012	1063.367	802.220
375.956	17.998	1062.817	801.666
376.971	17.944	1062.147	800.838
377.986	18.089	1061.595	801.029
379.000	18.078	1061.246	800.645
380.015	18.091	1060.717	800.236
381.029	18.210	1059.695	799.950
382.044	18.240	1059.207	799.649
383.059	18.291	1058.343	799.165
384.073	18.216	1057.805	798.340
385.088	18.342	1056.404	797.799
386.102	18.323	1055.671	797.084
387.117	18.175	1054.995	795.815
388.132	18.067	1054.241	794.676
389.146	18.070	1052.859	793.578
390.161	18.208	1052.266	793.697
391.175	18.082	1051.553	792.506
392.190	18.216	1051.120	792.731
393.205	18.419	1049.982	792.741
394.219	18.252	1049.567	791.588
395.234	18.250	1048.537	790.729
396.248	18.174	1047.487	789.518
397.263	18.225	1046.620	789.031
398.278	18.126	1046.178	788.172
399.292	18.201	1045.330	787.806
400.307	18.085	1044.663	786.699
401.321	18.116	1043.820	786.137
402.336	18.106	1043.149	785.520
403.350	18.203	1042.555	785.447
404.365	18.370	1041.659	785.468
405.380	18.229	1041.273	784.463
406.394	18.328	1040.352	784.153
407.409	18.450	1039.624	784.092
408.423	18.271	1039.432	783.060
409.438	18.544	1038.390	783.451
410.453	18.541	1038.027	783.095
411.467	18.643	1037.078	782.777
412.482	18.556	1036.776	782.079
413.496	18.636	1035.710	781.572
414.511	18.666	1035.192	781.248
415.526	18.724	1035.066	781.346
416.540	18.823	1034.444	781.260
417.555	18.711	1034.166	780.470
418.569	18.706	1033.362	779.774
419.584	18.835	1032.746	779.827
420.599	18.762	1032.116	778.947
421.613	150.834	1401.716	1796.263
422.628	137.650	1455.564	1796.347
