DTS Sentinel unit serial number:	SN413079Multiplexer serial number:	ORYXHardware model number:	OX4-SRSoftware version number:	ORYX F/W v4.00 Oryx Data Collector v3.7.2.0data status	okinstallation	princeton_trtdifferential loss correction	single-endedforward channel	channel 2reverse channel	N/Adate	2019/09/15time	03:23:34forward acquisition time	60.00reverse acquisition time	0.00gamma	496.2192k internal	0.2326k external	0.2326temperature offset calibration	1.0033default loss term (dB/km)	0.3790temperature slope calibration	1.0000multiplexer offset coefficient	1.0000multiplexer slope coefficient	1.0000fibre end	0.00T internal ref (°C)	31.06T ext. ref 1 (°C)	4.61T ext. ref 2 (°C)	25.74length (m)	temperature (°C)	Stokes	anti-Stokes-747.200	-200.000	0.076	0.382
-746.185	-151.976	-0.355	-0.026
-745.171	216.934	-0.079	0.126
-744.156	164.495	-0.117	0.166
-743.142	188.212	-0.121	0.182
-742.127	-116.504	-0.165	-0.031
-741.112	-91.385	-0.207	-0.060
-740.098	-123.456	-0.283	-0.045
-739.083	285.475	0.063	0.115
-738.069	-164.898	-0.086	-0.004
-737.054	-93.799	0.285	-0.079
-736.039	-71.602	-0.332	0.125
-735.025	-109.908	0.202	-0.043
-734.010	15.651	-0.155	-0.123
-732.996	-200.000	0.050	0.420
-731.981	-39.272	-0.311	-0.164
-730.966	-160.932	0.141	-0.007
-729.952	176.621	0.054	0.079
-728.937	-84.771	-0.331	0.105
-727.923	299.085	-0.045	0.083
-726.908	117.001	-0.238	-0.295
-725.894	-200.000	-0.027	-0.306
-724.879	794.163	0.097	-0.270
-723.864	-200.000	-0.009	-0.145
-722.850	86.924	0.096	-0.107
-721.835	-200.000	-0.054	0.354
-720.821	800.000	-0.031	-0.097
-719.806	-200.000	0.018	-0.253
-718.791	-200.000	-0.060	-0.328
-717.777	-115.418	0.179	-0.034
-716.762	677.212	-0.115	0.300
-715.748	-200.000	-0.042	-0.206
-714.733	-126.103	0.359	-0.054
-713.718	-83.397	-0.248	-0.080
-712.704	-200.000	-0.025	-0.125
-711.689	-19.774	-0.026	0.016
-710.675	-127.714	0.105	-0.015
-709.660	-73.147	-0.261	0.096
-708.645	-87.806	0.200	-0.061
-707.631	-15.224	0.345	0.222
-706.616	800.000	0.058	-0.201
-705.602	-200.000	0.048	0.389
-704.587	-119.335	0.281	0.049
-703.572	190.777	0.156	0.237
-702.558	66.963	-0.010	0.010
-701.543	-88.268	-0.284	-0.086
-700.529	346.359	-0.043	-0.085
-699.514	53.162	-0.209	0.201
-698.499	66.003	-0.134	-0.137
-697.485	98.795	0.299	-0.347
-696.470	-79.176	-0.285	-0.097
-695.456	-64.659	-0.252	0.103
-694.441	800.000	-0.069	-0.201
-693.426	-200.000	0.017	0.255
-692.412	-200.000	-0.065	0.000
-691.397	-83.617	-0.157	-0.050
-690.383	-17.991	-0.401	-0.253
-689.368	40.368	0.181	-0.164
-688.354	131.014	-0.253	-0.327
-687.339	69.128	0.017	0.018
-686.324	-27.100	-0.116	-0.068
-685.310	-200.000	-0.015	-0.230
-684.295	223.981	-0.064	0.104
-683.281	-86.010	0.070	-0.022
-682.266	-81.209	0.207	0.069
-681.251	800.000	0.062	0.219
-680.237	800.000	-0.086	-0.256
-679.222	-200.000	-0.024	-0.131
-678.208	-200.000	0.044	-0.286
-677.193	800.000	0.080	-0.247
-676.178	561.203	-0.056	-0.136
-675.164	-65.034	-0.102	-0.041
-674.149	800.000	-0.032	-0.108
-673.135	513.237	0.073	0.170
-672.120	-17.702	-0.178	-0.113
-671.105	-59.264	0.245	0.106
-670.091	111.204	0.051	-0.062
-669.076	13.991	-0.208	0.163
-668.062	416.586	0.019	-0.040
-667.047	-49.909	0.032	-0.015
-666.032	-31.764	-0.179	0.101
-665.018	36.872	-0.296	0.263
-664.003	-200.000	0.021	0.196
-662.989	-66.944	-0.111	-0.044
-661.974	124.279	0.016	-0.021
-660.959	-105.974	0.335	0.076
-659.945	-120.515	-0.136	0.023
-658.930	62.618	0.240	0.241
-657.916	415.651	-0.051	0.110
-656.901	451.609	-0.104	0.232
-655.886	-200.000	0.011	-0.175
-654.872	-68.413	-0.293	-0.114
-653.857	-8.454	0.153	0.104
-652.843	-200.000	0.031	0.295
-651.828	-109.495	-0.222	0.047
-650.814	417.341	0.093	-0.201
-649.799	-117.555	-0.261	-0.047
-648.784	90.428	0.153	0.172
-647.770	-19.469	-0.245	0.153
-646.755	575.953	-0.048	-0.117
-645.741	-156.807	0.164	-0.010
-644.726	-98.194	-0.114	-0.030
-643.711	-105.348	-0.095	0.022
-642.697	-200.000	0.049	0.255
-641.682	133.500	-0.137	0.177
-640.668	-72.190	0.356	0.133
-639.653	718.194	0.046	0.123
-638.638	151.793	-0.175	-0.239
-637.624	-139.086	-0.191	0.021
-636.609	278.293	0.129	0.231
-635.595	39.512	0.236	-0.212
-634.580	-200.000	-0.040	-0.189
-633.565	126.131	-0.066	0.084
-632.551	-25.848	0.147	0.087
-631.536	188.297	0.088	-0.132
-630.522	500.867	-0.105	-0.244
-629.507	6.949	0.255	-0.191
-628.492	-200.000	-0.007	-0.058
-627.478	70.298	-0.208	-0.215
-626.463	781.626	0.144	-0.397
-625.449	-200.000	0.004	0.029
-624.434	-200.000	-0.005	-0.027
-623.419	104.033	-0.069	-0.082
-622.405	436.806	-0.142	0.310
-621.390	-200.000	0.001	-0.231
-620.376	-200.000	-0.020	-0.129
-619.361	475.818	0.112	-0.254
-618.346	-2.125	-0.059	0.042
-617.332	276.886	-0.103	0.183
-616.317	-200.000	-0.055	-0.405
-615.303	-9.518	-0.191	-0.128
-614.288	-45.342	0.261	0.130
-613.273	695.871	0.032	0.084
-612.259	-72.307	0.114	0.043
-611.244	48.770	-0.127	0.120
-610.230	-200.000	-0.075	-0.339
-609.215	-138.009	-0.101	-0.011
-608.201	697.397	0.059	0.155
-607.186	-165.256	-0.165	-0.007
-606.171	240.818	0.128	0.214
-605.157	-77.556	-0.186	-0.065
-604.142	-17.697	0.068	0.043
-603.128	800.000	-0.058	0.172
-602.113	253.476	0.059	-0.102
-601.098	800.000	0.055	0.213
-600.084	65.456	0.108	0.109
-599.069	75.716	0.165	0.175
-598.055	3.183	-0.226	-0.165
-597.040	-190.381	-0.127	-0.001
-596.025	800.000	-0.083	-0.364
-595.011	-200.000	0.008	0.090
-593.996	159.354	0.173	0.241
-592.982	43.213	0.210	-0.192
-591.967	381.508	0.129	-0.266
-590.952	61.118	-0.079	0.079
-589.938	-200.000	0.031	0.139
-588.923	-42.368	0.246	-0.126
-587.909	495.372	-0.086	-0.198
-586.894	-200.000	0.003	0.313
-585.879	-37.374	-0.184	0.098
-584.865	70.812	0.382	0.396
-583.850	-86.073	-0.371	0.115
-582.836	-200.000	0.016	-0.518
-581.821	68.232	0.224	-0.230
-580.806	50.471	0.232	-0.220
-579.792	-28.034	-0.166	0.096
-578.777	-37.423	0.210	0.112
-577.763	-167.263	-0.209	-0.008
-576.748	555.596	-0.116	-0.279
-575.733	-146.570	0.177	0.015
-574.719	45.340	0.032	0.030
-573.704	-130.291	-0.099	-0.014
-572.690	-45.512	-0.034	0.017
-571.675	-200.000	-0.083	-0.381
-570.661	-200.000	-0.043	-0.217
-569.646	-145.821	0.494	-0.044
-568.631	-14.261	0.172	0.111
-567.617	401.323	0.066	-0.140
-566.602	432.498	-0.068	-0.148
-565.588	-97.590	-0.221	-0.058
-564.573	496.313	0.058	0.133
-563.558	-41.898	0.057	-0.029
-562.544	8.983	-0.104	0.079
-561.529	-200.000	-0.027	0.161
-560.515	42.892	0.056	-0.051
-559.500	-85.670	0.170	-0.053
-558.485	-95.842	-0.270	-0.072
-557.471	160.899	-0.049	0.069
-556.456	-29.939	0.150	-0.086
-555.442	-200.000	0.023	0.187
-554.427	-71.709	-0.091	-0.034
-553.412	-200.000	-0.020	-0.258
-552.398	800.000	0.080	-0.230
-551.383	-138.252	0.171	-0.019
-550.369	180.578	0.038	0.056
-549.354	92.109	0.197	0.222
-548.339	138.920	0.279	0.366
-547.325	53.047	-0.217	0.207
-546.310	-200.000	0.036	-0.262
-545.296	311.697	0.051	0.095
-544.281	800.000	-0.057	-0.175
-543.266	-117.461	-0.337	0.061
-542.252	382.777	-0.038	0.078
-541.237	-200.000	-0.003	0.078
-540.223	339.745	-0.040	0.079
-539.208	213.674	0.056	-0.089
-538.193	-83.136	-0.343	0.110
-537.179	634.537	-0.074	-0.187
-536.164	16.159	-0.335	-0.264
-535.150	351.475	-0.047	-0.093
-534.135	-54.087	-0.386	0.176
-533.121	653.205	0.101	-0.260
-532.106	338.252	-0.098	0.192
-531.091	42.871	0.112	-0.102
-530.077	-200.000	-0.060	-0.393
-529.062	-104.361	-0.225	-0.052
-528.048	-57.401	0.206	-0.091
-527.033	-200.000	-0.036	0.218
-526.018	17.059	0.140	-0.111
-525.004	166.301	-0.237	-0.336
-523.989	143.458	0.265	-0.353
-522.975	-200.000	-0.016	-0.095
-521.960	800.000	-0.081	0.238
-520.945	244.632	-0.149	0.250
-519.931	-200.000	0.006	0.031
-518.916	73.623	0.276	-0.289
-517.902	-15.003	0.249	0.160
-516.887	224.519	0.193	0.312
-515.872	-45.214	0.252	-0.125
-514.858	-200.000	-0.004	-0.267
-513.843	-193.933	-0.255	-0.002
-512.829	-109.488	-0.358	-0.076
-511.814	-41.774	-0.125	-0.064
-510.799	152.758	0.103	0.141
-509.785	-200.000	0.013	0.258
-508.770	-50.692	-0.252	-0.119
-507.756	141.779	-0.083	0.109
-506.741	-172.317	-0.089	-0.003
-505.726	21.597	-0.105	-0.086
-504.712	-173.112	0.125	0.004
-503.697	-149.628	0.142	-0.011
-502.683	-86.940	-0.167	0.051
-501.668	9.585	0.023	-0.017
-500.653	-200.000	0.014	0.156
-499.639	-88.140	0.208	0.062
-498.624	158.535	-0.158	-0.219
-497.610	800.000	-0.022	-0.078
-496.595	373.682	0.092	-0.188
-495.581	-200.000	-0.006	0.139
-494.566	-63.985	0.263	0.108
-493.551	-117.055	0.210	0.038
-492.537	-128.115	0.079	0.011
-491.522	-102.799	-0.062	0.015
-490.508	-200.000	-0.018	-0.150
-489.493	-136.138	-0.257	0.030
-488.478	1.674	0.083	0.060
-487.464	57.308	0.102	0.100
-486.449	-5.859	-0.215	0.147
-485.435	800.000	0.095	0.268
-484.420	44.914	-0.129	-0.118
-483.405	-45.221	-0.068	0.034
-482.391	417.300	0.036	-0.077
-481.376	-157.134	-0.082	0.005
-480.362	96.269	0.152	0.173
-479.347	67.713	0.142	-0.145
-478.332	9.244	-0.154	0.116
-477.318	-79.895	0.177	0.059
-476.303	800.000	-0.026	-0.077
-475.289	354.029	-0.139	0.275
-474.274	29.730	-0.147	0.125
-473.259	172.593	0.043	-0.061
-472.245	554.419	0.048	0.115
-471.230	-58.201	0.313	-0.136
-470.216	165.404	-0.056	-0.080
-469.201	106.316	0.209	0.247
-468.186	38.532	0.373	0.332
-467.172	-5.970	0.118	-0.081
-466.157	-200.000	0.001	0.126
-465.143	-200.000	0.030	-0.160
-464.128	800.000	-0.077	-0.286
-463.113	-185.076	0.193	-0.003
-462.099	209.990	-0.080	0.126
-461.084	169.438	0.089	0.127
-460.070	-200.000	-0.037	0.170
-459.055	477.274	-0.134	-0.303
-458.040	-109.101	-0.281	0.060
-457.026	39.370	-0.084	0.075
-456.011	246.219	0.033	-0.056
-454.997	-194.351	-0.159	0.001
-453.982	-41.916	-0.265	0.136
-452.968	800.000	0.060	0.256
-451.953	24.819	-0.315	0.260
-450.938	12.203	-0.154	0.118
-449.924	220.547	-0.229	-0.366
-448.909	37.954	0.118	-0.105
-447.895	-200.000	-0.036	0.247
-446.880	-192.760	-0.108	0.001
-445.865	-200.000	0.010	0.188
-444.851	-139.773	0.269	0.028
-443.836	-106.984	-0.041	-0.009
-442.822	800.000	0.041	0.166
-441.807	-23.916	0.298	0.178
-440.792	118.001	0.162	-0.199
-439.778	-187.209	-0.132	-0.002
-438.763	355.396	0.171	0.340
-437.749	-200.000	0.046	0.237
-436.734	748.326	0.048	0.130
-435.719	294.432	-0.058	-0.106
-434.705	-200.000	0.023	-0.130
-433.690	69.488	0.149	-0.153
-432.676	-200.000	-0.009	-0.301
-431.661	115.910	0.097	0.119
-430.646	-45.710	0.109	0.054
-429.632	92.928	-0.139	0.157
-428.617	123.663	-0.185	0.231
-427.603	-9.227	0.195	-0.130
-426.588	379.485	-0.020	-0.040
-425.573	-140.500	0.243	0.025
-424.559	-134.952	-0.337	0.041
-423.544	51.521	0.244	-0.231
-422.530	-200.000	0.027	-0.229
-421.515	-17.850	-0.204	0.128
-420.500	569.785	-0.076	-0.183
-419.486	-38.131	-0.350	0.185
-418.471	800.000	0.060	0.251
-417.457	-117.950	-0.269	-0.048
-416.442	57.952	0.057	-0.056
-415.428	-200.000	0.003	-0.027
-414.413	89.323	0.068	-0.075
-413.398	-134.302	-0.500	0.061
-412.384	421.109	-0.121	-0.259
-411.369	-55.762	-0.228	-0.101
-410.355	800.000	-0.111	0.443
-409.340	-200.000	-0.074	-0.339
-408.325	-111.618	0.270	0.055
-407.311	-0.025	-0.374	0.265
-406.296	-18.783	-0.211	-0.131
-405.282	-160.736	-0.199	0.011
-404.267	-183.165	0.450	-0.008
-403.252	110.670	0.124	0.149
-402.238	800.000	-0.038	0.123
-401.223	-13.759	0.099	-0.063
-400.209	-200.000	0.035	-0.158
-399.194	800.000	-0.023	0.067
-398.179	-200.000	-0.055	0.246
-397.165	65.269	0.189	0.190
-396.150	-162.432	-0.089	0.004
-395.136	-200.000	-0.013	0.373
-394.121	-10.775	0.112	-0.073
-393.106	-35.763	0.230	-0.124
-392.092	-100.841	0.152	0.037
-391.077	23.757	-0.208	-0.170
-390.063	-85.165	0.031	-0.010
-389.048	-200.000	-0.004	-0.148
-388.033	742.147	0.013	-0.034
-387.019	-200.000	-0.032	0.376
-386.004	-200.000	0.038	0.289
-384.990	-153.596	0.281	0.019
-383.975	-116.822	0.319	0.058
-382.960	-147.561	0.262	-0.022
-381.946	-116.523	-0.225	-0.041
-380.931	454.693	0.076	0.167
-379.917	-137.345	-0.041	-0.005
-378.902	22.043	0.197	-0.160
-377.888	-200.000	0.012	-0.256
-376.873	-200.000	-0.034	-0.153
-375.858	-200.000	0.000	0.187
-374.844	131.245	-0.045	0.058
-373.829	19.507	-0.190	-0.152
-372.815	-103.418	0.334	0.078
-371.800	-200.000	-0.033	0.246
-370.785	-82.092	0.142	-0.046
-369.771	19.764	-0.162	0.130
-368.756	13.718	-0.023	-0.018
-367.742	-55.861	-0.056	0.025
-366.727	-30.102	0.322	0.182
-365.712	-200.000	0.026	0.206
-364.698	-89.271	0.158	-0.046
-363.683	7.279	0.087	0.065
-362.669	800.000	0.101	0.427
-361.654	-93.249	-0.126	0.035
-360.639	17.788	-0.108	0.085
-359.625	-34.030	-0.297	0.162
-358.610	224.125	-0.198	-0.318
-357.596	-200.000	0.008	0.047
-356.581	-130.900	0.274	0.036
-355.566	763.919	0.071	0.191
-354.552	-200.000	-0.071	0.315
-353.537	27.528	-0.168	0.141
-352.523	-59.564	0.173	-0.074
-351.508	-200.000	-0.059	-0.291
-350.493	-137.676	0.056	-0.006
-349.479	-116.845	0.285	-0.052
-348.464	533.042	0.049	0.116
-347.450	48.069	-0.061	-0.057
-346.435	30.343	-0.074	-0.063
-345.420	-200.000	0.031	0.443
-344.406	-21.943	0.502	0.303
-343.391	-130.860	-0.460	-0.061
-342.377	-78.294	-0.560	0.191
-341.362	-29.481	-0.186	-0.105
-340.348	100.569	0.242	0.279
-339.333	-13.385	-0.083	0.053
-338.318	-29.422	0.232	-0.132
-337.304	290.747	-0.143	-0.258
-336.289	18.730	0.110	0.088
-335.275	-200.000	-0.009	-0.221
-334.260	413.735	0.113	-0.238
-333.245	276.523	0.100	-0.175
-332.231	-200.000	0.062	0.560
-331.216	-97.558	0.181	0.047
-330.202	-92.735	0.123	0.034
-329.187	-36.712	0.130	0.069
-328.172	465.287	0.153	-0.341
-327.158	-66.383	0.158	-0.062
-326.143	378.195	-0.099	-0.201
-325.129	131.761	0.060	-0.077
-324.114	-105.288	0.214	0.048
-323.099	-55.014	-0.118	-0.053
-322.085	800.000	-0.053	0.171
-321.070	226.481	0.218	-0.352
-320.056	-200.000	-0.019	-0.194
-319.041	-200.000	-0.037	-0.397
-318.026	-200.000	-0.025	0.131
-317.012	800.000	-0.019	0.079
-315.997	800.000	-0.104	0.290
-314.983	800.000	-0.072	-0.226
-313.968	606.533	0.020	-0.049
-312.953	-136.632	-0.135	-0.015
-311.939	171.291	0.118	-0.168
-310.924	-65.974	0.153	0.060
-309.910	128.465	-0.037	-0.046
-308.895	789.595	-0.035	-0.095
-307.880	196.672	-0.179	-0.271
-306.866	566.940	0.085	0.205
-305.851	-200.000	-0.086	0.456
-304.837	346.111	0.084	0.163
-303.822	100.015	-0.111	0.128
-302.807	-200.000	0.005	0.300
-301.793	182.543	-0.153	-0.223
-300.778	27.199	-0.253	0.211
-299.764	110.245	-0.107	-0.128
-298.749	-158.087	0.295	0.017
-297.735	-13.414	0.242	-0.156
-296.720	-55.222	-0.266	-0.119
-295.705	-103.336	0.202	-0.047
-294.691	159.973	-0.099	-0.136
-293.676	120.419	0.161	-0.198
-292.662	-187.262	0.136	-0.002
-291.647	-55.917	0.255	-0.113
-290.632	-200.000	-0.008	-0.329
-289.618	737.754	0.105	-0.279
-288.603	-44.626	-0.138	-0.068
-287.589	-126.311	0.245	0.036
-286.574	800.000	-0.090	-0.384
-285.559	800.000	-0.074	-0.274
-284.545	-194.964	0.143	-0.001
-283.530	70.111	0.177	-0.181
-282.516	-140.234	-0.127	0.013
-281.501	31.464	0.095	0.081
-280.486	360.085	0.023	-0.046
-279.472	-200.000	-0.032	-0.210
-278.457	800.000	0.016	0.066
-277.443	-200.000	-0.013	0.091
-276.428	123.917	-0.155	0.193
-275.413	-200.000	-0.016	-0.142
-274.399	-56.025	-0.083	0.037
-273.384	19.502	0.071	0.057
-272.370	427.476	-0.051	0.108
-271.355	-94.583	-0.159	-0.043
-270.340	133.073	-0.101	-0.129
-269.326	406.790	0.042	0.089
-268.311	800.000	-0.013	-0.046
-267.297	-52.982	0.091	-0.042
-266.282	137.599	-0.155	0.201
-265.267	-104.356	-0.433	-0.099
-264.253	-85.024	0.056	-0.017
-263.238	-43.152	-0.287	0.144
-262.224	226.029	0.067	-0.107
-261.209	800.000	-0.068	-0.218
-260.195	-101.656	0.119	0.029
-259.180	93.166	0.006	0.007
-258.165	190.908	-0.156	-0.233
-257.151	-137.157	-0.179	-0.020
-256.136	414.071	0.228	0.480
-255.122	-0.477	-0.124	0.087
-254.107	-94.472	-0.168	-0.045
-253.092	-200.000	-0.035	0.356
-252.078	123.084	-0.194	0.241
-251.063	-63.179	0.221	0.090
-250.049	-200.000	0.030	0.131
-249.034	292.758	-0.201	-0.363
-248.019	62.716	-0.171	0.169
-247.005	-14.179	-0.070	-0.045
-245.990	-200.000	-0.002	-0.090
-244.976	-200.000	0.022	0.338
-243.961	54.985	0.052	-0.050
-242.946	-44.406	-0.513	0.254
-241.932	41.316	-0.237	-0.212
-240.917	137.994	0.287	-0.373
-239.903	132.514	-0.315	-0.401
-238.888	-70.874	0.173	-0.065
-237.873	47.582	-0.081	0.075
-236.859	-200.000	0.021	0.118
-235.844	200.239	-0.174	0.264
-234.830	274.205	0.165	-0.289
-233.815	-93.780	-0.089	0.024
-232.800	-71.200	0.222	0.082
-231.786	-200.000	0.019	-0.085
-230.771	47.943	0.023	-0.021
-229.757	800.000	-0.029	0.120
-228.742	-200.000	-0.039	-0.301
-227.727	-75.939	0.066	0.023
-226.713	800.000	0.036	0.137
-225.698	99.544	0.177	-0.202
-224.684	-200.000	-0.001	0.160
-223.669	299.277	-0.146	-0.266
-222.655	222.968	0.193	0.308
-221.640	800.000	-0.063	0.220
-220.625	-117.377	0.359	0.064
-219.611	127.224	0.042	0.053
-218.596	638.756	-0.002	0.006
-217.582	-9.457	0.366	0.241
-216.567	-98.419	-0.243	0.061
-215.552	140.633	0.255	-0.333
-214.538	800.000	0.049	-0.145
-213.523	387.352	0.085	-0.174
-212.509	-6.962	0.066	0.044
-211.494	-200.000	-0.023	0.107
-210.479	-84.773	-0.174	-0.054
-209.465	800.000	0.012	-0.037
-208.450	287.871	0.143	-0.256
-207.436	-139.827	0.435	-0.046
-206.421	-104.706	-0.208	0.047
-205.406	110.034	-0.150	-0.178
-204.392	176.082	0.025	0.035
-203.377	-47.428	0.185	-0.089
-202.363	-81.065	-0.059	-0.019
-201.348	252.078	0.082	0.138
-200.333	75.535	-0.208	0.217
-199.319	-139.499	-0.155	-0.016
-198.304	-68.826	0.187	-0.071
-197.290	-200.000	0.005	0.169
-196.275	-140.161	0.203	0.021
-195.260	327.759	0.058	0.110
-194.246	800.000	-0.031	-0.114
-193.231	322.747	0.069	0.130
-192.217	162.352	-0.045	0.062
-191.202	-200.000	0.022	-0.152
-190.187	296.882	0.059	-0.108
-189.173	800.000	0.031	0.108
-188.158	16.425	0.087	-0.067
-187.144	-200.000	0.346	-0.000
-186.129	89.376	-0.141	-0.155
-185.114	192.325	-0.086	0.128
-184.100	-133.733	-0.118	-0.015
-183.085	-114.455	0.138	-0.026
-182.071	289.457	0.046	0.082
-181.056	124.031	0.141	-0.174
-180.042	88.488	-0.055	-0.061
-179.027	-2.594	-0.200	0.138
-178.012	-200.000	0.001	-0.108
-176.998	-91.565	-0.371	0.104
-175.983	-200.000	0.024	0.328
-174.969	-47.933	0.114	0.054
-173.954	-143.895	0.072	0.007
-172.939	49.829	-0.217	-0.202
-171.925	800.000	-0.041	-0.144
-170.910	-200.000	-0.029	0.179
-169.896	585.715	-0.112	0.270
-168.881	299.375	0.077	-0.139
-167.866	52.915	-0.110	0.104
-166.852	-87.713	0.197	-0.059
-165.837	-170.131	-0.318	0.011
-164.823	-55.799	-0.158	-0.069
-163.808	-200.000	-0.009	-0.075
-162.793	-200.000	-0.014	0.080
-161.779	-101.833	-0.040	0.010
-160.764	44.140	0.199	0.180
-159.750	-200.000	-0.041	-0.179
-158.735	590.946	0.164	0.398
-157.720	-59.177	-0.259	0.110
-156.706	1.857	-0.139	0.099
-155.691	-9.885	0.154	-0.101
-154.677	40.006	-0.330	-0.292
-153.662	-200.000	0.016	-0.070
-152.647	269.991	0.247	-0.427
-151.633	-48.224	-0.173	-0.082
-150.618	501.581	0.076	-0.173
-149.604	-200.000	0.031	-0.298
-148.589	-87.090	-0.320	-0.096
-147.574	-9.544	-0.255	0.168
-146.560	481.124	-0.036	-0.081
-145.545	-200.000	-0.019	-0.242
-144.531	-48.432	0.210	-0.100
-143.516	102.821	0.200	-0.231
-142.502	-200.000	0.086	0.434
-141.487	153.613	-0.312	0.421
-140.472	-28.851	0.150	0.085
-139.458	19.740	-0.267	-0.212
-138.443	-200.000	-0.085	-0.431
-137.429	-94.150	-0.318	0.086
-136.414	-200.000	-0.027	0.183
-135.399	-181.791	0.156	0.003
-134.385	250.564	0.044	-0.074
-133.370	-46.132	0.157	-0.076
-132.356	245.291	-0.112	-0.185
-131.341	-93.018	-0.146	0.040
-130.326	-73.128	-0.277	-0.100
-129.312	-45.047	0.082	0.040
-128.297	-27.119	0.089	-0.051
-127.283	-62.938	-0.217	-0.088
-126.268	-37.152	-0.433	0.228
-125.253	521.534	-0.083	-0.192
-124.239	2.184	0.187	-0.133
-123.224	108.035	0.251	0.295
-122.210	299.165	-0.116	-0.210
-121.195	-37.118	0.267	-0.141
-120.180	-43.324	-0.253	-0.126
-119.166	-59.172	0.144	-0.061
-118.151	-53.773	0.129	-0.058
-117.137	-64.913	-0.273	0.109
-116.122	29.780	-0.180	-0.151
-115.107	-141.952	-0.059	-0.006
-114.093	415.553	-0.113	0.237
-113.078	-34.008	-0.432	-0.234
-112.064	-44.647	-0.242	0.119
-111.049	305.368	-0.268	-0.491
-110.034	691.899	0.068	-0.175
-109.020	-200.000	-0.010	-0.318
-108.005	25.805	0.270	-0.221
-106.991	-180.951	0.246	0.005
-105.976	-112.110	0.108	0.021
-104.962	-99.213	-0.128	-0.032
-103.947	-200.000	-0.059	0.365
-102.932	-125.788	0.332	0.049
-101.918	800.000	0.027	0.105
-100.903	307.853	-0.084	-0.155
-99.889	-115.870	0.269	-0.049
-98.874	-33.546	0.084	0.046
-97.859	422.584	0.072	-0.152
-96.845	205.124	0.103	-0.157
-95.830	-68.546	0.138	0.053
-94.816	-108.111	-0.098	-0.021
-93.801	62.273	0.213	-0.209
-92.786	800.000	-0.174	0.620
-91.772	-93.819	-0.089	0.024
-90.757	412.260	0.089	0.185
-89.743	-46.050	-0.088	-0.042
-88.728	431.140	0.150	0.320
-87.713	151.202	0.074	0.099
-86.699	170.742	0.014	-0.020
-85.684	800.000	0.105	0.360
-84.670	55.527	0.406	0.386
-83.655	-120.041	-0.331	0.056
-82.640	-14.488	0.475	0.301
-81.626	40.010	0.103	0.091
-80.611	-70.480	-0.043	-0.016
-79.597	-10.587	0.176	0.115
-78.582	212.399	0.098	0.153
-77.567	-128.893	0.167	0.023
-76.553	375.649	-0.137	0.275
-75.538	-65.447	0.170	-0.067
-74.524	-158.650	0.218	0.012
-73.509	-200.000	0.006	-0.300
-72.494	-200.000	0.063	0.273
-71.480	7.269	-0.270	-0.198
-70.465	33.969	-0.148	-0.127
-69.451	403.036	-0.082	0.169
-68.436	72.577	0.103	-0.106
-67.422	85.849	-0.025	0.027
-66.407	166.493	0.164	0.228
-65.392	-171.039	-0.099	-0.003
-64.378	-38.603	0.338	0.175
-63.363	-200.000	0.040	0.386
-62.349	247.445	0.201	0.333
-61.334	146.015	-0.856	-1.127
-60.319	173.313	0.348	0.493
-59.305	-200.000	-0.038	-0.976
-58.290	269.426	0.664	1.145
-57.276	716.567	0.633	1.650
-56.261	-200.000	100.651	604.089
-55.246	592.095	1410.404	3419.637
-54.232	190.650	2604.393	3843.639
-53.217	111.946	2274.738	2697.662
-52.203	40.557	1894.682	1675.815
-51.188	34.300	1684.143	1442.348
-50.173	31.693	1639.963	1385.202
-49.159	49.565	1689.622	1561.722
-48.144	51.304	1705.779	1589.641
-47.130	33.926	1665.492	1423.353
-46.115	31.239	1651.239	1391.127
-45.100	31.054	1646.269	1385.508
-44.086	30.885	1644.347	1382.586
-43.071	30.950	1641.254	1380.413
-42.057	30.901	1638.794	1377.925
-41.042	30.971	1636.815	1376.721
-40.027	30.974	1634.835	1375.021
-39.013	30.874	1633.201	1372.858
-37.998	30.903	1631.301	1371.418
-36.984	31.014	1629.999	1371.088
-35.969	31.127	1628.863	1370.907
-34.954	31.077	1626.992	1368.915
-33.940	31.081	1625.189	1367.368
-32.925	30.990	1623.831	1365.503
-31.911	31.114	1621.982	1364.808
-30.896	31.126	1620.165	1363.308
-29.881	31.007	1618.859	1361.288
-28.867	31.069	1617.188	1360.278
-27.852	31.012	1615.983	1358.794
-26.838	30.988	1614.088	1356.977
-25.823	31.043	1612.509	1355.997
-24.809	31.116	1611.795	1355.870
-23.794	31.117	1609.722	1354.077
-22.779	31.069	1608.630	1352.760
-21.765	31.069	1607.042	1351.368
-20.750	31.059	1605.418	1349.877
-19.736	31.068	1603.821	1348.549
-18.721	31.177	1602.277	1347.983
-17.706	31.162	1600.508	1346.330
-16.692	31.136	1598.755	1344.618
-15.677	31.076	1597.626	1343.181
-14.663	31.177	1596.141	1342.608
-13.648	31.138	1595.118	1341.411
-12.633	31.066	1593.986	1339.892
-11.619	31.102	1591.791	1338.248
-10.604	31.095	1591.159	1337.616
-9.590	30.987	1589.814	1335.656
-8.575	31.087	1588.345	1335.091
-7.560	31.080	1587.480	1334.254
-6.546	31.078	1586.361	1333.252
-5.531	31.078	1585.077	1332.116
-4.517	31.113	1583.983	1331.392
-3.502	31.080	1582.764	1330.085
-2.487	31.230	1580.991	1329.608
-1.473	30.741	1569.758	1316.648
-0.458	28.080	1550.552	1281.867
0.556	23.869	1551.404	1250.732
1.571	21.533	1575.015	1252.952
2.586	21.015	1587.489	1259.023
3.600	18.726	1534.511	1200.904
4.615	11.489	1427.947	1070.139
5.629	5.623	1367.007	987.479
6.644	4.645	1359.779	976.036
7.659	4.646	1358.586	975.102
8.673	4.532	1357.179	973.291
9.688	4.617	1355.167	972.297
10.702	4.527	1352.225	969.535
11.717	7.225	1358.000	990.477
12.731	14.275	1370.324	1043.718
13.746	18.860	1377.134	1077.631
14.761	18.749	1375.905	1075.877
15.775	17.772	1373.296	1067.632
16.790	16.767	1370.539	1059.113
17.804	15.877	1368.839	1052.141
18.819	15.436	1366.866	1047.784
19.834	15.250	1366.172	1045.996
20.848	15.026	1364.558	1043.273
21.863	14.801	1363.754	1041.162
22.877	14.584	1362.375	1038.669
23.892	14.565	1360.966	1037.386
24.907	14.621	1360.581	1037.347
25.921	14.554	1359.615	1036.104
26.936	14.731	1358.779	1036.473
27.950	14.702	1357.843	1035.488
28.965	14.786	1356.708	1035.048
29.980	14.858	1355.515	1034.496
30.994	14.911	1354.707	1034.111
32.009	15.058	1352.740	1033.425
33.023	14.904	1351.970	1031.798
34.038	14.920	1350.450	1030.645
35.053	14.768	1349.421	1028.829
36.067	14.786	1348.726	1028.324
37.082	14.779	1347.675	1027.389
38.096	14.810	1346.874	1026.877
39.111	14.954	1345.276	1026.451
40.126	14.819	1344.705	1025.095
41.140	14.686	1343.688	1023.415
42.155	14.599	1343.373	1022.552
43.169	14.488	1343.589	1021.944
44.184	14.618	1342.931	1022.149
45.199	14.479	1342.464	1020.856
46.213	14.639	1342.006	1021.392
47.228	14.810	1340.609	1021.285
48.242	14.805	1339.465	1020.293
49.257	14.737	1338.095	1018.748
50.271	14.763	1336.932	1017.927
51.286	14.699	1335.793	1016.580
52.301	14.762	1334.381	1015.800
53.315	14.685	1333.561	1014.619
54.330	14.720	1332.166	1013.676
55.344	14.680	1330.614	1012.163
56.359	14.621	1329.699	1011.022
57.374	14.609	1328.936	1010.279
58.388	14.484	1328.577	1009.162
59.403	14.542	1327.926	1008.925
60.417	14.597	1326.776	1008.300
61.432	14.449	1326.485	1007.094
62.447	14.446	1325.442	1006.197
63.461	14.482	1323.934	1005.175
64.476	14.344	1323.267	1003.753
65.490	14.433	1322.228	1003.411
66.505	14.454	1320.066	1001.806
67.520	14.462	1318.945	1000.914
68.534	14.414	1318.363	1000.094
69.549	14.447	1317.193	999.318
70.563	14.480	1315.947	998.483
71.578	14.346	1314.974	996.852
72.593	14.404	1314.044	996.408
73.607	14.295	1313.006	994.882
74.622	14.408	1312.378	994.989
75.636	14.382	1311.865	994.360
76.651	14.354	1311.566	993.878
77.666	14.358	1310.941	993.339
78.680	14.395	1310.085	992.824
79.695	14.427	1309.391	992.401
80.709	14.476	1308.765	992.132
81.724	14.555	1308.018	991.947
82.739	14.717	1307.015	992.062
83.753	14.526	1306.088	990.136
84.768	14.663	1305.400	990.340
85.782	14.828	1304.265	990.369
86.797	14.723	1303.101	988.774
87.812	14.657	1301.843	987.343
88.826	14.730	1301.030	987.072
89.841	14.783	1299.677	986.267
90.855	14.755	1298.782	985.339
91.870	14.779	1297.700	984.571
92.884	14.900	1296.697	984.434
93.899	14.832	1295.913	983.350
94.914	14.963	1295.333	983.597
95.928	14.894	1294.671	982.598
96.943	14.949	1293.429	981.896
97.957	14.763	1292.931	980.335
98.972	14.833	1291.750	979.767
99.987	14.802	1290.998	978.924
101.001	14.852	1289.432	977.945
102.016	14.785	1288.476	976.744
103.030	14.864	1287.606	976.457
104.045	14.852	1286.687	975.603
105.060	14.751	1285.512	974.039
106.074	14.651	1284.225	972.395
107.089	14.406	1283.036	969.983
108.103	14.471	1281.658	969.229
109.118	14.437	1280.245	967.883
110.133	14.504	1278.853	967.130
111.147	14.567	1277.386	966.302
112.162	14.640	1276.268	965.789
113.176	14.693	1275.017	965.065
114.191	14.612	1274.645	964.232
115.206	14.653	1273.189	963.280
116.220	14.589	1272.239	962.110
117.235	14.534	1271.268	960.974
118.249	14.581	1269.947	960.162
119.264	14.661	1268.717	959.602
120.279	14.537	1267.221	957.677
121.293	14.500	1266.758	957.028
122.308	14.304	1266.203	955.403
123.322	14.388	1264.959	954.860
124.337	14.391	1263.877	953.976
125.352	14.580	1262.221	953.724
126.366	14.637	1261.013	953.048
127.381	14.487	1260.393	951.643
128.395	14.472	1259.570	950.847
129.410	14.412	1258.504	949.619
130.424	14.582	1258.030	950.146
131.439	14.549	1256.654	948.832
132.454	14.539	1256.129	948.296
133.468	14.648	1254.845	947.861
134.483	14.608	1254.400	947.217
135.497	14.622	1253.393	946.452
136.512	14.606	1251.880	945.136
137.527	14.664	1250.624	944.429
138.541	14.691	1249.288	943.492
139.556	14.662	1248.137	942.373
140.570	14.713	1247.039	941.747
141.585	14.752	1245.934	941.052
142.600	14.817	1244.676	940.383
143.614	14.925	1243.705	940.173
144.629	14.923	1242.859	939.439
145.643	14.869	1241.784	938.239
146.658	14.849	1240.242	936.881
147.673	14.734	1238.940	935.168
148.687	14.730	1237.525	933.996
149.702	14.672	1236.925	933.136
150.716	14.745	1234.834	931.884
151.731	14.672	1233.963	930.738
152.746	14.716	1232.925	930.118
153.760	14.758	1232.046	929.609
154.775	14.764	1231.197	928.918
155.789	14.965	1229.903	928.975
156.804	14.897	1228.515	927.465
157.819	14.899	1227.854	926.900
158.833	14.983	1227.303	926.862
159.848	15.012	1225.978	925.944
160.862	14.995	1225.062	925.075
161.877	14.861	1223.959	923.419
162.892	14.846	1222.979	922.518
163.906	14.804	1221.953	921.427
164.921	14.823	1220.963	920.704
165.935	14.971	1219.889	920.628
166.950	14.966	1219.414	920.158
167.964	14.818	1219.196	919.101
168.979	14.808	1217.870	917.963
169.994	14.887	1217.088	917.729
171.008	14.926	1216.444	917.377
172.023	14.928	1215.384	916.508
173.037	15.076	1214.994	916.939
174.052	15.048	1213.772	915.785
175.067	15.053	1212.645	914.879
176.081	14.835	1212.242	913.304
177.096	14.840	1211.041	912.346
178.110	14.928	1209.993	911.956
179.125	15.016	1208.254	911.043
180.140	15.008	1207.316	910.210
181.154	15.052	1206.175	909.508
182.169	15.096	1205.318	909.024
183.183	15.034	1204.240	907.791
184.198	15.085	1202.943	907.012
185.213	15.157	1202.046	906.643
186.227	15.127	1201.007	905.621
187.242	15.148	1199.489	904.506
188.256	15.300	1198.541	904.534
189.271	15.285	1197.783	903.802
190.286	15.117	1196.846	902.105
191.300	14.899	1196.072	900.272
192.315	14.831	1195.243	899.202
193.329	14.823	1194.695	898.664
194.344	14.992	1193.683	898.732
195.359	15.009	1193.371	898.511
196.373	15.141	1192.572	898.536
197.388	15.175	1192.613	898.672
198.402	15.337	1192.163	899.119
199.417	15.329	1191.608	898.582
200.432	15.450	1190.335	898.188
201.446	15.527	1189.629	897.988
202.461	15.528	1188.802	897.287
203.475	15.519	1187.424	896.121
204.490	15.424	1186.248	894.647
205.504	15.514	1184.763	893.930
206.519	15.376	1183.851	892.427
207.534	15.365	1182.497	891.272
208.548	15.326	1181.947	890.568
209.563	15.430	1181.086	890.395
210.577	15.380	1180.135	889.333
211.592	15.495	1179.744	889.570
212.607	15.574	1178.550	889.008
213.621	15.572	1178.047	888.539
214.636	15.572	1176.829	887.541
215.650	15.658	1175.670	887.042
216.665	15.639	1175.259	886.557
217.680	15.687	1174.230	885.954
218.694	15.787	1173.279	885.681
219.709	15.661	1172.854	884.623
220.723	15.558	1172.135	883.458
221.738	15.642	1171.615	883.432
222.753	15.593	1170.570	882.305
223.767	15.609	1169.712	881.667
224.782	15.745	1169.401	882.066
225.796	15.766	1168.745	881.601
226.811	15.711	1167.969	880.655
227.826	15.662	1167.132	879.685
228.840	15.857	1166.362	880.048
229.855	15.715	1165.721	878.745
230.869	15.792	1164.969	878.500
231.884	15.750	1163.590	877.168
232.899	15.647	1163.072	876.160
233.913	15.656	1162.012	875.329
234.928	15.590	1161.792	874.745
235.942	15.680	1161.046	874.571
236.957	15.614	1160.113	873.451
237.972	15.707	1159.568	873.448
238.986	15.664	1158.775	872.548
240.001	15.656	1158.252	872.037
241.015	15.748	1157.056	871.535
242.030	15.792	1156.223	871.056
243.045	15.685	1155.967	870.233
244.059	15.821	1155.242	870.317
245.074	15.917	1154.174	869.930
246.088	15.858	1153.505	869.041
247.103	15.882	1152.904	868.638
248.117	16.045	1152.073	868.777
249.132	16.007	1151.374	867.973
250.147	16.262	1150.498	868.550
251.161	16.222	1150.296	868.116
252.176	16.335	1149.048	867.675
253.190	16.266	1148.742	867.015
254.205	16.364	1148.066	866.932
255.220	16.334	1147.428	866.220
256.234	16.266	1147.017	865.485
257.249	16.369	1146.257	865.362
258.263	16.415	1145.584	865.014
259.278	16.345	1144.876	864.041
260.293	16.405	1144.053	863.653
261.307	16.499	1143.877	863.921
262.322	16.421	1143.325	863.033
263.336	16.422	1142.213	862.122
264.351	16.359	1142.069	861.614
265.366	16.494	1141.121	861.507
266.380	16.464	1140.500	860.814
267.395	16.401	1139.505	859.664
268.409	16.352	1139.032	858.982
269.424	16.425	1138.261	858.695
270.439	16.398	1137.760	858.106
271.453	16.367	1137.108	857.378
272.468	16.341	1135.806	856.190
273.482	16.333	1135.384	855.755
274.497	16.435	1134.553	855.573
275.512	16.489	1133.444	854.933
276.526	16.371	1133.528	854.322
277.541	16.460	1132.357	853.815
278.555	16.398	1131.795	853.002
279.570	16.613	1131.065	853.462
280.585	16.674	1130.149	853.001
281.599	16.692	1129.374	852.433
282.614	16.643	1128.157	851.193
283.628	16.529	1126.984	849.656
284.643	16.632	1126.005	849.364
285.657	16.600	1125.266	848.570
286.672	16.656	1124.527	848.219
287.687	16.610	1123.686	847.278
288.701	16.632	1122.948	846.755
289.716	16.621	1122.506	846.294
290.730	16.625	1121.486	845.468
291.745	16.569	1121.356	845.014
292.760	16.684	1120.174	844.625
293.774	16.815	1119.668	844.823
294.789	16.752	1119.676	844.440
295.803	16.773	1118.771	843.788
296.818	16.826	1117.955	843.357
297.833	16.818	1116.966	842.498
298.847	16.874	1115.949	841.934
299.862	16.832	1115.503	841.316
300.876	16.792	1114.935	840.613
301.891	16.966	1114.037	840.727
302.906	16.891	1113.380	839.783
303.920	16.905	1112.966	839.469
304.935	16.992	1112.582	839.536
305.949	17.139	1111.699	839.518
306.964	17.029	1110.971	838.353
307.979	17.077	1109.729	837.579
308.993	16.960	1109.431	836.704
310.008	17.097	1108.633	836.701
311.022	17.080	1107.920	836.006
312.037	17.065	1106.974	835.142
313.052	17.117	1105.769	834.418
314.066	17.039	1105.086	833.445
315.081	17.028	1103.936	832.448
316.095	16.898	1103.306	831.261
317.110	16.889	1102.996	830.913
318.125	16.875	1102.095	830.090
319.139	16.893	1101.655	829.775
320.154	16.964	1100.717	829.339
321.168	16.945	1100.366	828.911
322.183	17.073	1099.611	828.891
323.197	17.071	1098.848	828.236
324.212	17.099	1098.360	827.932
325.227	17.020	1098.013	827.209
326.241	17.054	1097.123	826.631
327.256	17.014	1096.470	825.872
328.270	17.084	1095.568	825.461
329.285	17.062	1094.308	824.334
330.300	17.110	1093.631	823.983
331.314	17.178	1092.816	823.623
332.329	17.064	1091.634	822.106
333.343	17.178	1090.863	822.005
334.358	17.182	1090.358	821.574
335.373	17.270	1089.440	821.236
336.387	17.195	1088.925	820.410
337.402	17.307	1088.049	820.221
338.416	17.321	1086.920	819.364
339.431	17.382	1087.015	819.654
340.446	17.361	1086.632	819.195
341.460	17.452	1085.805	818.933
342.475	17.591	1084.408	818.477
343.489	17.587	1083.775	817.909
344.504	17.641	1083.213	817.670
345.519	17.486	1082.478	816.301
346.533	17.607	1081.728	816.240
347.548	17.640	1080.667	815.524
348.562	17.589	1080.084	814.771
349.577	17.630	1079.209	814.235
350.592	17.533	1078.496	813.162
351.606	17.465	1077.798	812.241
352.621	17.431	1077.081	811.465
353.635	17.379	1076.772	810.912
354.650	17.486	1075.320	810.257
355.665	17.437	1075.129	809.808
356.679	17.483	1074.620	809.572
357.694	17.538	1073.983	809.281
358.708	17.535	1072.988	808.446
359.723	17.635	1072.565	808.528
360.738	17.762	1071.647	808.365
361.752	17.693	1071.003	807.483
362.767	17.665	1070.835	807.152
363.781	17.655	1070.371	806.687
364.796	17.796	1069.583	806.686
365.810	17.714	1069.123	805.878
366.825	17.899	1068.538	806.243
367.840	17.903	1068.364	806.057
368.854	17.976	1067.291	805.523
369.869	17.983	1066.376	804.791
370.883	17.961	1065.373	803.858
371.898	17.953	1064.551	803.132
372.913	17.962	1064.282	802.900
373.927	17.999	1063.553	802.452
374.942	18.132	1063.039	802.618
375.956	18.034	1062.663	801.803
376.971	18.002	1062.073	801.136
377.986	17.988	1061.776	800.775
379.000	18.021	1061.281	800.487
380.015	18.115	1060.747	800.453
381.029	18.284	1059.808	800.467
382.044	18.202	1059.134	799.501
383.059	18.274	1058.104	798.988
384.073	18.080	1058.083	797.997
385.088	18.230	1056.865	797.707
386.102	18.228	1055.832	796.846
387.117	18.162	1054.897	795.763
388.132	18.221	1053.963	795.263
389.146	18.098	1053.056	793.938
390.161	18.107	1052.656	793.606
391.175	18.066	1052.091	792.923
392.190	18.225	1051.098	792.841
393.205	18.312	1050.364	792.618
394.219	18.162	1049.845	791.464
395.234	18.252	1048.566	790.846
396.248	18.298	1047.019	789.820
397.263	18.186	1046.200	788.615
398.278	18.172	1045.999	788.328
399.292	18.085	1045.262	787.303
400.307	18.047	1044.753	786.676
401.321	18.127	1043.930	786.354
402.336	18.031	1043.581	785.579
403.350	18.152	1042.670	785.383
404.365	18.228	1042.062	785.204
405.380	18.304	1041.357	784.951
406.394	18.295	1040.617	784.284
407.409	18.398	1039.719	784.007
408.423	18.472	1038.997	783.730
409.438	18.505	1038.404	783.366
410.453	18.526	1038.220	783.252
411.467	18.578	1037.297	782.725
412.482	18.509	1036.834	781.992
413.496	18.686	1035.906	782.029
414.511	18.700	1035.121	781.432
415.526	18.695	1035.066	781.300
416.540	18.719	1034.791	781.131
417.555	18.750	1033.990	780.599
418.569	18.645	1033.327	779.550
419.584	18.693	1032.840	779.332
420.599	18.673	1032.388	778.831
421.613	150.773	1401.780	1796.232
422.628	137.607	1455.577	1796.325
