DTS Sentinel unit serial number:	SN413079Multiplexer serial number:	ORYXHardware model number:	OX4-SRSoftware version number:	ORYX F/W v4.00 Oryx Data Collector v3.7.2.0data status	okinstallation	princeton_trtdifferential loss correction	single-endedforward channel	channel 2reverse channel	N/Adate	2019/09/17time	22:15:35forward acquisition time	60.00reverse acquisition time	0.00gamma	496.2192k internal	0.2343k external	0.2343temperature offset calibration	0.9985default loss term (dB/km)	0.3790temperature slope calibration	1.0000multiplexer offset coefficient	1.0000multiplexer slope coefficient	1.0000fibre end	0.00T internal ref (°C)	25.64T ext. ref 1 (°C)	0.17T ext. ref 2 (°C)	18.61length (m)	temperature (°C)	Stokes	anti-Stokes-747.200	-200.000	0.083	0.373
-746.185	-200.000	0.032	0.223
-745.171	636.050	-0.130	0.330
-744.156	-32.619	-0.292	0.163
-743.142	-116.644	0.207	-0.038
-742.127	261.860	0.237	0.412
-741.112	-90.667	0.229	0.066
-740.098	252.596	0.116	0.198
-739.083	632.840	0.066	-0.167
-738.069	-43.507	-0.304	0.154
-737.054	-200.000	-0.016	-0.160
-736.039	6.515	-0.369	-0.274
-735.025	150.784	0.144	-0.196
-734.010	-200.000	0.012	-0.168
-732.996	146.279	-0.034	0.046
-731.981	800.000	0.064	-0.244
-730.966	392.600	-0.200	-0.416
-729.952	127.765	-0.109	-0.139
-728.937	-74.880	-0.170	-0.061
-727.923	573.271	0.100	0.243
-726.908	-200.000	0.021	0.230
-725.894	-11.913	-0.268	0.176
-724.879	93.567	-0.011	-0.013
-723.864	-64.226	0.187	-0.076
-722.850	-200.000	-0.035	-0.193
-721.835	-91.738	0.212	-0.060
-720.821	-200.000	-0.013	-0.334
-719.806	-109.301	-0.427	0.091
-718.791	-90.929	0.337	0.097
-717.777	-200.000	-0.004	0.146
-716.762	-200.000	-0.003	0.034
-715.748	-32.539	0.047	0.026
-714.733	-125.716	-0.297	-0.045
-713.718	-146.863	-0.089	0.008
-712.704	-200.000	-0.010	0.341
-711.689	-108.972	0.208	-0.044
-710.675	-200.000	0.004	-0.035
-709.660	-187.670	-0.314	0.004
-708.645	800.000	-0.025	0.081
-707.631	-55.542	0.054	0.024
-706.616	-114.644	-0.082	-0.016
-705.602	-47.090	-0.186	-0.091
-704.587	-8.423	0.029	0.020
-703.572	28.311	-0.294	-0.248
-702.558	-76.884	-0.243	0.085
-701.543	55.050	0.215	-0.208
-700.529	-24.926	0.104	0.062
-699.514	-85.438	-0.110	-0.034
-698.499	-42.829	-0.174	-0.088
-697.485	-200.000	0.003	-0.153
-696.470	-200.000	0.045	-0.393
-695.456	105.550	-0.095	-0.112
-694.441	-161.058	-0.202	0.011
-693.426	-200.000	-0.015	-0.237
-692.412	800.000	0.108	0.366
-691.397	409.813	0.095	-0.200
-690.383	-200.000	0.055	-0.324
-689.368	81.630	0.099	0.108
-688.354	-56.754	0.173	-0.076
-687.339	711.415	-0.046	-0.123
-686.324	89.751	-0.140	0.156
-685.310	300.755	-0.107	0.198
-684.295	-57.015	0.497	-0.219
-683.281	-200.000	-0.042	-0.224
-682.266	-37.750	-0.220	0.117
-681.251	-104.736	-0.283	-0.065
-680.237	238.957	-0.068	-0.113
-679.222	413.227	0.076	0.162
-678.208	-124.887	0.225	-0.035
-677.193	-23.033	-0.139	-0.083
-676.178	56.617	0.273	-0.266
-675.164	177.447	-0.081	0.118
-674.149	103.614	-0.059	-0.070
-673.135	-200.000	0.057	-0.357
-672.120	-58.592	-0.035	-0.015
-671.105	39.632	-0.067	-0.060
-670.091	370.886	0.045	0.091
-669.076	800.000	-0.062	0.201
-668.062	-49.015	-0.160	-0.076
-667.047	-200.000	0.044	0.349
-666.032	-75.050	0.201	0.072
-665.018	-8.593	-0.428	-0.287
-664.003	1.729	-0.180	-0.130
-662.989	77.610	0.190	-0.202
-661.974	-200.000	0.040	0.232
-660.959	34.031	0.169	-0.147
-659.945	201.248	-0.067	0.104
-658.930	3.748	-0.091	0.066
-657.916	-70.473	-0.085	0.032
-656.901	-198.498	0.183	-0.001
-655.886	349.099	0.021	-0.042
-654.872	18.621	0.238	-0.190
-653.857	-4.460	-0.137	-0.094
-652.843	-53.660	-0.167	0.076
-651.828	50.590	0.013	-0.012
-650.814	-95.582	-0.068	-0.018
-649.799	-200.000	-0.016	-0.209
-648.784	-75.576	-0.209	-0.074
-647.770	-73.452	-0.111	0.041
-646.755	750.410	-0.060	-0.161
-645.741	800.000	0.028	-0.115
-644.726	-142.833	-0.370	-0.036
-643.711	-200.000	-0.090	0.425
-642.697	3.484	0.141	-0.102
-641.682	156.482	-0.258	-0.355
-640.668	107.993	0.437	-0.520
-639.653	-38.272	-0.126	0.067
-638.638	292.237	0.087	-0.157
-637.624	22.343	-0.077	-0.063
-636.609	800.000	0.038	-0.162
-635.595	-200.000	-0.002	-0.048
-634.580	-59.786	-0.238	0.102
-633.565	397.517	0.029	0.060
-632.551	36.112	0.134	-0.118
-631.536	292.107	-0.095	-0.173
-630.522	-81.997	0.200	-0.065
-629.507	-44.684	-0.280	-0.139
-628.492	68.726	0.060	0.062
-627.478	486.084	0.009	-0.019
-626.463	14.540	-0.236	-0.184
-625.449	-86.241	-0.177	-0.054
-624.434	-200.000	-0.046	0.287
-623.419	597.757	0.100	-0.248
-622.405	62.842	0.030	0.030
-621.390	123.429	-0.169	0.211
-620.376	18.821	-0.166	-0.132
-619.361	-168.493	-0.138	0.005
-618.346	-26.007	-0.178	-0.105
-617.332	800.000	-0.109	0.427
-616.317	-141.125	0.495	0.050
-615.303	-34.523	-0.329	-0.179
-614.288	-109.038	-0.101	-0.021
-613.273	21.727	0.307	0.249
-612.259	92.322	-0.153	0.171
-611.244	32.783	0.026	0.022
-610.230	76.355	-0.170	-0.180
-609.215	-45.377	-0.130	-0.064
-608.201	239.850	-0.183	-0.303
-607.186	198.971	0.158	-0.241
-606.171	12.138	-0.148	-0.113
-605.157	-20.255	0.174	0.107
-604.142	-137.425	-0.351	-0.040
-603.128	0.543	-0.153	0.109
-602.113	45.831	0.042	0.039
-601.098	-11.428	-0.302	0.198
-600.084	-200.000	0.002	-0.149
-599.069	-200.000	0.075	0.408
-598.055	-200.000	0.031	-0.156
-597.040	-200.000	0.014	-0.436
-596.025	34.959	0.135	0.117
-595.011	155.684	0.235	0.322
-593.996	-37.711	-0.474	-0.251
-592.982	137.618	0.191	-0.249
-591.967	53.227	-0.280	0.267
-590.952	-200.000	-0.020	-0.127
-589.938	97.717	0.208	0.238
-588.923	-114.015	-0.216	-0.042
-587.909	-168.173	-0.184	-0.007
-586.894	-200.000	-0.080	0.397
-585.879	348.452	-0.251	-0.492
-584.865	-26.699	0.061	0.035
-583.850	-24.466	-0.159	0.094
-582.836	-200.000	0.039	-0.283
-581.821	382.840	-0.106	0.217
-580.806	-17.400	-0.349	-0.219
-579.792	-48.824	-0.406	0.194
-578.777	421.082	0.103	0.220
-577.763	-58.509	0.357	-0.154
-576.748	-123.996	0.127	-0.020
-575.733	-53.936	-0.340	0.154
-574.719	-200.000	0.047	0.234
-573.704	-106.419	-0.197	-0.044
-572.690	419.757	0.060	0.128
-571.675	149.376	0.132	-0.178
-570.661	167.592	-0.157	-0.221
-569.646	543.773	0.089	-0.211
-568.631	-164.878	0.271	0.012
-567.617	-81.710	-0.080	-0.026
-566.602	104.445	0.325	-0.380
-565.588	-200.000	-0.031	0.230
-564.573	-19.256	-0.277	-0.171
-563.558	43.358	-0.048	-0.043
-562.544	-200.000	0.065	-0.298
-561.529	-200.000	-0.002	-0.129
-560.515	123.050	-0.242	0.301
-559.500	-87.799	0.244	0.073
-558.485	800.000	0.087	-0.244
-557.471	41.506	0.164	0.147
-556.456	-87.936	-0.104	-0.031
-555.442	-100.240	0.118	-0.029
-554.427	-10.418	0.226	0.149
-553.412	-200.000	0.048	-0.400
-552.398	-147.333	0.210	-0.018
-551.383	166.369	-0.148	0.209
-550.369	127.638	-0.118	0.149
-549.354	-77.903	-0.090	0.031
-548.339	-73.522	0.222	-0.080
-547.325	-36.895	0.113	0.060
-546.310	800.000	-0.055	-0.157
-545.296	414.186	-0.138	-0.292
-544.281	481.007	0.065	0.148
-543.266	-46.407	0.108	0.053
-542.252	-109.641	-0.176	-0.037
-541.237	4.545	-0.156	-0.114
-540.223	-200.000	-0.005	0.049
-539.208	77.929	0.403	0.426
-538.193	800.000	0.039	0.128
-537.179	-171.855	0.366	-0.012
-536.164	-97.793	0.135	0.035
-535.150	451.503	0.054	0.119
-534.135	363.761	0.162	0.323
-533.121	68.761	0.079	0.081
-532.106	-168.379	-0.072	0.003
-531.091	-95.100	0.081	0.022
-530.077	13.123	-0.212	-0.163
-529.062	82.954	0.201	-0.217
-528.048	-85.449	0.031	0.010
-527.033	28.383	-0.243	0.204
-526.018	-148.993	-0.403	0.032
-525.004	-200.000	-0.088	0.446
-523.989	-200.000	0.038	-0.219
-522.975	-200.000	0.003	0.165
-521.960	2.928	0.168	-0.121
-520.945	49.567	0.074	-0.069
-519.931	-2.427	-0.256	0.178
-518.916	78.683	-0.132	0.140
-517.902	-25.619	0.336	0.197
-516.887	-82.840	-0.216	-0.069
-515.872	74.720	0.227	0.237
-514.858	188.743	-0.097	-0.144
-513.843	-150.827	-0.137	-0.010
-512.829	-153.058	0.219	0.015
-511.814	800.000	0.040	0.132
-510.799	497.751	0.072	0.165
-509.785	-7.079	-0.041	-0.028
-508.770	-130.733	-0.083	-0.011
-507.756	439.782	-0.138	-0.298
-506.741	102.110	0.405	0.470
-505.726	387.117	0.034	-0.070
-504.712	800.000	0.035	0.123
-503.697	745.040	-0.059	0.159
-502.683	-98.118	0.330	-0.084
-501.668	-139.056	-0.248	0.027
-500.653	800.000	0.122	0.353
-499.639	-42.438	0.161	-0.082
-498.624	-118.350	0.170	0.030
-497.610	451.717	-0.059	0.130
-496.595	-200.000	-0.005	0.098
-495.581	-45.356	-0.146	0.072
-494.566	565.534	0.008	0.018
-493.551	476.583	0.139	0.312
-492.537	10.648	0.056	-0.043
-491.522	-200.000	-0.057	-0.290
-490.508	14.330	0.297	0.230
-489.493	297.498	-0.106	0.192
-488.478	800.000	-0.026	0.080
-487.464	-117.063	-0.206	0.037
-486.449	-200.000	0.019	-0.203
-485.435	800.000	0.077	-0.288
-484.420	-13.209	0.094	0.060
-483.405	800.000	0.114	0.361
-482.391	184.000	0.082	-0.120
-481.376	86.373	0.165	0.181
-480.362	37.118	0.087	-0.076
-479.347	800.000	-0.064	-0.198
-478.332	-200.000	-0.017	-0.137
-477.318	-155.960	-0.114	0.007
-476.303	144.912	-0.153	0.203
-475.289	17.748	-0.161	0.127
-474.274	61.429	0.086	0.085
-473.259	194.797	0.009	0.013
-472.245	-99.593	0.338	-0.084
-471.230	800.000	0.029	0.082
-470.216	-135.938	-0.037	0.004
-469.201	-8.550	-0.095	-0.063
-468.186	219.068	-0.197	-0.312
-467.172	-7.933	0.232	-0.155
-466.157	-200.000	0.018	0.193
-465.143	328.355	-0.113	0.215
-464.128	-156.042	0.196	0.012
-463.113	800.000	-0.121	0.342
-462.099	524.201	0.163	0.379
-461.084	-200.000	0.024	-0.124
-460.070	-90.832	0.306	-0.087
-459.055	800.000	-0.086	-0.244
-458.040	-200.000	0.003	0.378
-457.026	-10.957	0.479	0.313
-456.011	-200.000	0.013	0.401
-454.997	800.000	0.027	0.087
-453.982	800.000	0.039	-0.145
-452.968	44.819	-0.145	0.132
-451.953	-81.046	-0.267	0.088
-450.938	-73.334	-0.031	-0.011
-449.924	-74.974	0.263	-0.093
-448.909	-24.011	-0.193	-0.114
-447.895	-61.085	0.149	0.062
-446.880	800.000	-0.088	-0.283
-445.865	10.225	0.214	0.161
-444.851	-200.000	-0.000	-0.149
-443.836	-73.830	-0.194	-0.070
-442.822	372.570	0.063	-0.127
-441.807	-57.120	0.303	0.132
-440.792	800.000	0.090	-0.270
-439.778	-200.000	-0.003	0.084
-438.763	92.127	-0.120	-0.134
-437.749	56.875	-0.179	-0.172
-436.734	418.011	0.103	0.217
-435.719	-53.073	-0.165	0.075
-434.705	-138.008	-0.176	-0.019
-433.690	18.409	-0.153	-0.121
-432.676	-196.777	-0.305	0.002
-431.661	51.129	-0.080	-0.075
-430.646	-200.000	-0.026	-0.157
-429.632	-200.000	-0.050	0.226
-428.617	473.744	-0.158	0.352
-427.603	800.000	-0.035	-0.145
-426.588	123.590	-0.060	0.074
-425.573	-14.441	0.342	0.218
-424.559	-6.425	0.112	0.076
-423.544	-200.000	-0.005	-0.055
-422.530	-171.671	-0.121	-0.004
-421.515	-109.926	-0.256	0.053
-420.500	30.184	-0.114	0.096
-419.486	545.273	0.084	-0.199
-418.471	-55.172	-0.397	-0.177
-417.457	-73.930	-0.289	0.104
-416.442	-143.260	-0.160	0.015
-415.428	101.250	0.173	0.199
-414.413	-200.000	-0.050	0.228
-413.398	-4.780	0.150	0.102
-412.384	717.932	0.102	0.268
-411.369	-147.192	0.153	-0.013
-410.355	-200.000	-0.018	-0.102
-409.340	334.393	-0.153	-0.292
-408.325	-50.273	-0.344	-0.161
-407.311	-200.000	0.010	-0.079
-406.296	271.684	0.125	-0.217
-405.282	-141.764	-0.251	0.025
-404.267	-86.679	-0.085	0.026
-403.252	-200.000	0.034	0.162
-402.238	-102.900	0.160	0.038
-401.223	-24.465	-0.061	-0.036
-400.209	-76.259	-0.193	-0.067
-399.194	-72.688	-0.097	0.035
-398.179	-200.000	0.031	-0.240
-397.165	118.141	-0.098	0.120
-396.150	146.464	0.131	0.173
-395.136	97.793	0.271	-0.308
-394.121	-160.627	-0.238	0.013
-393.106	52.497	0.311	-0.293
-392.092	800.000	0.084	-0.325
-391.077	175.695	-0.030	-0.043
-390.063	-200.000	-0.044	0.375
-389.048	15.071	-0.135	0.104
-388.033	-41.788	-0.240	-0.122
-387.019	-200.000	0.043	0.260
-386.004	470.607	-0.159	-0.353
-384.990	-87.134	0.223	0.067
-383.975	-5.600	-0.169	-0.114
-382.960	52.297	0.187	-0.176
-381.946	-200.000	-0.022	0.172
-380.931	-61.051	0.114	0.047
-379.917	-78.432	-0.290	-0.098
-378.902	800.000	-0.011	-0.037
-377.888	800.000	0.058	-0.185
-376.873	-200.000	0.014	-0.108
-375.858	800.000	0.062	0.202
-374.844	-65.688	0.181	0.072
-373.829	30.472	-0.260	-0.219
-372.815	-102.309	0.075	0.018
-371.800	800.000	-0.077	0.224
-370.785	228.256	0.188	-0.302
-369.771	-200.000	0.011	0.248
-368.756	-48.031	0.170	0.081
-367.742	223.270	0.064	-0.102
-366.727	780.725	0.005	-0.014
-365.712	787.016	0.049	0.133
-364.698	-87.441	0.181	0.054
-363.683	-157.850	-0.083	-0.005
-362.669	-200.000	-0.008	0.204
-361.654	117.810	0.162	-0.196
-360.639	38.740	0.312	-0.275
-359.625	-71.582	0.183	0.068
-358.610	-89.180	-0.191	0.056
-357.596	227.968	-0.057	-0.091
-356.581	-200.000	0.044	-0.215
-355.566	9.511	0.131	-0.098
-354.552	69.145	0.142	-0.144
-353.537	800.000	-0.005	-0.015
-352.523	-123.345	0.143	0.023
-351.508	-101.172	-0.237	0.057
-350.493	-102.208	-0.617	-0.146
-349.479	800.000	-0.064	0.207
-348.464	-200.000	-0.010	0.209
-347.450	79.822	-0.285	0.302
-346.435	-30.755	-0.232	0.129
-345.420	359.417	-0.144	0.283
-344.406	-70.131	0.173	-0.065
-343.391	-44.737	-0.151	-0.075
-342.377	-200.000	0.056	-0.246
-341.362	251.920	0.020	0.034
-340.348	-18.819	-0.370	-0.227
-339.333	-168.139	-0.153	-0.006
-338.318	-200.000	0.050	-0.279
-337.304	-107.012	0.220	0.048
-336.289	19.245	0.152	-0.121
-335.275	-200.000	-0.011	0.065
-334.260	-132.334	-0.380	0.048
-333.245	-200.000	-0.022	-0.142
-332.231	-157.794	-0.434	0.025
-331.216	177.974	-0.231	0.332
-330.202	-50.214	0.245	0.114
-329.187	-37.272	0.104	0.055
-328.172	14.117	-0.226	-0.173
-327.158	200.908	-0.131	-0.199
-326.143	-105.580	-0.129	-0.029
-325.129	41.535	-0.295	0.263
-324.114	800.000	-0.007	0.028
-323.099	-100.127	0.301	0.074
-322.085	-200.000	0.033	0.266
-321.070	153.904	-0.099	0.134
-320.056	5.339	0.354	-0.257
-319.041	186.315	0.110	-0.162
-318.026	48.187	0.165	0.152
-317.012	174.011	-0.085	-0.120
-315.997	-92.148	-0.177	-0.049
-314.983	467.427	0.060	0.133
-313.968	-134.882	-0.255	0.030
-312.953	-136.286	-0.255	-0.029
-311.939	-200.000	0.016	-0.264
-310.924	218.133	0.109	-0.171
-309.910	-159.107	0.168	0.009
-308.895	-200.000	-0.040	-0.469
-307.880	274.691	-0.141	-0.246
-306.866	-200.000	0.039	-0.219
-305.851	-121.258	0.129	0.021
-304.837	-29.131	-0.073	-0.041
-303.822	62.934	0.076	0.075
-302.807	800.000	0.080	0.239
-301.793	109.817	0.179	0.211
-300.778	-200.000	0.023	0.188
-299.764	433.158	-0.084	-0.180
-298.749	-200.000	0.017	-0.214
-297.735	-28.770	-0.472	0.267
-296.720	-137.562	0.210	0.023
-295.705	35.952	0.172	0.149
-294.691	108.941	0.229	-0.269
-293.676	-43.862	-0.265	0.131
-292.662	-86.214	-0.310	-0.094
-291.647	211.126	0.085	0.132
-290.632	-43.696	0.279	0.138
-289.618	-200.000	0.003	-0.266
-288.603	-40.257	0.115	0.059
-287.589	-200.000	0.018	-0.217
-286.574	224.754	-0.158	0.251
-285.559	-11.598	-0.063	-0.041
-284.545	-200.000	-0.078	-0.396
-283.530	289.088	-0.234	0.418
-282.516	148.492	-0.097	0.129
-281.501	-49.709	-0.113	-0.053
-280.486	-200.000	-0.003	0.077
-279.472	0.248	0.172	0.121
-278.457	308.019	-0.076	0.139
-277.443	800.000	-0.072	0.266
-276.428	-200.000	-0.045	0.200
-275.413	-200.000	0.008	0.112
-274.399	-102.518	0.100	-0.024
-273.384	325.039	-0.093	-0.175
-272.370	-98.707	0.297	0.075
-271.355	800.000	-0.032	-0.101
-270.340	-8.359	-0.179	0.118
-269.326	-78.381	0.403	-0.136
-268.311	-4.799	0.168	-0.114
-267.297	264.218	0.114	-0.195
-266.282	536.710	-0.094	0.218
-265.267	-200.000	-0.071	0.312
-264.253	-80.802	0.168	-0.055
-263.238	800.000	-0.073	0.202
-262.224	-200.000	0.039	0.393
-261.209	86.127	0.068	0.073
-260.195	-200.000	0.039	-0.217
-259.180	25.971	0.235	-0.193
-258.165	-200.000	-0.046	0.383
-257.151	-200.000	-0.046	0.305
-256.136	-189.222	0.135	-0.002
-255.122	274.737	-0.152	-0.264
-254.107	66.952	-0.012	-0.012
-253.092	350.966	-0.042	-0.081
-252.078	62.856	0.138	-0.136
-251.063	-200.000	0.056	-0.420
-250.049	19.204	0.209	-0.165
-249.034	-92.819	-0.431	0.118
-248.019	-66.604	0.239	-0.093
-247.005	-200.000	0.027	0.141
-245.990	-45.324	0.395	-0.193
-244.976	800.000	0.097	-0.268
-243.961	-51.297	-0.080	0.037
-242.946	356.417	0.170	0.333
-241.932	-117.972	0.119	-0.021
-240.917	-197.133	-0.212	-0.001
-239.903	-27.979	0.233	-0.132
-238.888	800.000	0.043	0.121
-237.873	-36.098	-0.173	-0.092
-236.859	-80.754	-0.302	-0.098
-235.844	429.780	-0.042	0.090
-234.830	414.433	0.158	0.330
-233.815	292.326	-0.130	0.233
-232.800	800.000	-0.061	-0.218
-231.786	48.577	-0.095	0.087
-230.771	-200.000	-0.010	-0.080
-229.757	42.448	0.221	0.197
-228.742	-66.352	-0.253	-0.099
-227.727	-200.000	0.152	-0.000
-226.713	-200.000	-0.005	-0.034
-225.698	-79.467	-0.269	-0.089
-224.684	-200.000	0.022	0.184
-223.669	-80.155	-0.162	0.053
-222.655	-81.907	-0.162	-0.052
-221.640	-108.999	0.209	0.044
-220.625	-200.000	0.003	-0.099
-219.611	-200.000	0.049	-0.218
-218.596	-200.000	-0.008	-0.382
-217.582	38.758	0.206	-0.181
-216.567	495.140	0.071	-0.160
-215.552	-200.000	-0.022	-0.182
-214.538	-110.470	0.285	-0.058
-213.523	45.454	0.139	-0.126
-212.509	-123.720	-0.105	0.016
-211.494	-81.276	0.162	-0.052
-210.479	-54.000	-0.138	0.062
-209.465	-200.000	0.026	0.189
-208.450	139.252	0.134	-0.172
-207.436	800.000	0.066	-0.246
-206.421	-200.000	0.027	0.375
-205.406	-116.649	0.423	-0.076
-204.392	569.977	0.060	-0.144
-203.377	-200.000	-0.002	0.307
-202.363	168.564	-0.143	-0.200
-201.348	-41.321	0.282	-0.142
-200.333	-187.249	0.156	-0.002
-199.319	-200.000	0.075	-0.379
-198.304	776.504	-0.064	-0.171
-197.290	15.427	0.532	-0.409
-196.275	-47.696	-0.270	0.128
-195.260	43.158	0.312	-0.279
-194.246	235.387	0.073	-0.118
-193.231	-168.695	0.358	-0.013
-192.217	-200.000	0.005	-0.066
-191.202	-21.782	0.119	-0.071
-190.187	-93.879	0.145	-0.039
-189.173	-200.000	-0.002	-0.187
-188.158	-200.000	-0.011	0.158
-187.144	89.231	-0.197	0.215
-186.129	-14.171	0.090	-0.057
-185.114	800.000	-0.105	0.291
-184.100	-90.514	-0.449	0.127
-183.085	-200.000	0.042	0.310
-182.071	-57.370	0.090	0.039
-181.056	800.000	-0.080	-0.289
-180.042	-40.671	-0.043	0.022
-179.027	29.289	-0.198	0.165
-178.012	-200.000	0.033	-0.268
-176.998	-22.079	0.286	-0.170
-175.983	-43.595	-0.357	0.176
-174.969	-200.000	-0.010	0.180
-173.954	-200.000	0.066	0.373
-172.939	-136.773	0.202	-0.023
-171.925	-111.627	0.301	0.060
-170.910	-37.975	-0.222	0.115
-169.896	-50.833	0.055	0.026
-168.881	-200.000	0.024	-0.120
-167.866	-42.399	0.379	0.189
-166.852	-200.000	0.026	0.327
-165.837	-200.000	0.042	-0.184
-164.823	34.637	0.220	-0.188
-163.808	65.965	0.054	0.053
-162.793	-33.950	0.071	0.038
-161.779	309.685	-0.062	-0.114
-160.764	-121.579	0.311	-0.051
-159.750	272.716	-0.153	0.265
-158.735	-164.646	0.267	-0.012
-157.720	-85.962	-0.267	0.081
-156.706	19.152	0.289	-0.227
-155.691	800.000	-0.034	-0.099
-154.677	1.167	-0.039	0.027
-153.662	-200.000	-0.030	0.180
-152.647	393.914	-0.014	-0.028
-151.633	787.082	0.031	-0.084
-150.618	140.762	-0.049	-0.064
-149.604	110.018	-0.254	0.299
-148.589	800.000	0.014	-0.059
-147.574	-181.027	0.181	-0.004
-146.560	-13.840	0.137	0.087
-145.545	53.623	-0.193	-0.181
-144.531	-138.581	-0.187	-0.020
-143.516	-200.000	0.018	-0.407
-142.502	-90.678	0.170	-0.048
-141.487	469.504	-0.216	0.475
-140.472	-200.000	0.008	0.060
-139.458	-200.000	-0.031	0.135
-138.443	11.232	0.160	0.120
-137.429	-60.806	-0.199	-0.082
-136.414	-42.600	0.155	-0.077
-135.399	-94.614	0.115	-0.031
-134.385	-12.788	0.161	0.103
-133.370	-74.931	-0.250	-0.087
-132.356	41.155	-0.177	-0.156
-131.341	296.902	0.034	-0.061
-130.326	800.000	-0.111	-0.306
-129.312	-69.667	0.408	0.152
-128.297	800.000	-0.030	-0.110
-127.283	54.494	-0.216	-0.203
-126.268	-200.000	0.054	0.282
-125.253	14.963	0.116	-0.089
-124.239	389.968	-0.154	-0.313
-123.224	193.167	-0.183	-0.270
-122.210	-109.414	0.252	0.052
-121.195	194.320	-0.093	0.138
-120.180	800.000	0.114	0.470
-119.166	162.731	0.077	0.106
-118.151	548.705	0.100	-0.234
-117.137	-170.434	-0.473	0.016
-116.122	-38.481	-0.096	-0.050
-115.107	261.454	0.157	0.266
-114.093	-200.000	-0.013	-0.114
-113.078	152.370	0.092	-0.123
-112.064	393.967	-0.041	-0.083
-111.049	8.484	0.041	-0.030
-110.034	-50.744	-0.111	-0.051
-109.020	-118.030	0.456	0.080
-108.005	501.705	-0.113	0.254
-106.991	145.971	-0.122	-0.160
-105.976	800.000	0.013	0.040
-104.962	-77.756	-0.476	0.161
-103.947	-45.816	-0.178	-0.086
-102.932	117.376	0.143	0.172
-101.918	261.294	0.046	-0.077
-100.903	117.512	-0.243	0.292
-99.889	800.000	-0.042	-0.122
-98.874	62.022	0.109	-0.106
-97.859	800.000	-0.081	-0.299
-96.845	-89.552	0.083	-0.024
-95.830	-91.675	0.128	0.036
-94.816	-60.536	-0.399	-0.165
-93.801	16.869	0.102	-0.079
-92.786	45.923	0.009	0.008
-91.772	-2.193	0.173	-0.118
-90.757	353.910	0.123	-0.239
-89.743	-115.053	0.234	-0.043
-88.728	25.463	-0.145	-0.117
-87.713	121.985	0.301	0.367
-86.699	-90.911	0.032	0.009
-85.684	195.669	-0.190	-0.282
-84.670	-200.000	0.032	-0.227
-83.655	-76.518	-0.056	0.019
-82.640	-10.978	0.214	0.138
-81.626	125.309	0.287	0.354
-80.611	-11.751	-0.106	0.068
-79.597	178.320	-0.077	0.110
-78.582	276.122	-0.115	-0.198
-77.567	-16.906	-0.046	-0.028
-76.553	-81.057	0.230	0.074
-75.538	264.544	0.185	-0.314
-74.524	-146.192	-0.133	0.011
-73.509	800.000	-0.110	0.312
-72.494	800.000	0.045	0.136
-71.480	-116.908	-0.363	-0.065
-70.465	-72.061	-0.134	0.048
-69.451	287.951	0.095	-0.167
-68.436	-59.204	-0.191	-0.080
-67.422	-145.196	0.449	-0.040
-66.407	558.067	0.134	0.315
-65.392	-16.494	0.209	0.129
-64.378	373.568	0.174	0.345
-63.363	150.769	0.143	-0.189
-62.349	-177.795	-0.095	-0.002
-61.334	121.033	-0.981	-1.190
-60.319	74.153	0.701	0.717
-59.305	585.235	-0.446	-1.069
-58.290	800.000	0.474	1.475
-57.276	677.990	0.767	1.943
-56.261	-200.000	118.478	619.797
-55.246	417.659	1526.975	3179.925
-54.232	147.724	2688.195	3531.407
-53.217	91.320	2261.968	2475.790
-52.203	34.079	1875.560	1592.854
-51.188	28.700	1672.253	1379.844
-50.173	26.399	1632.243	1329.878
-49.159	44.861	1695.096	1520.442
-48.144	43.713	1709.268	1524.453
-47.130	28.140	1662.881	1367.712
-46.115	25.634	1648.034	1336.851
-45.100	25.620	1642.451	1332.161
-44.086	25.634	1640.070	1330.286
-43.071	25.546	1638.079	1327.965
-42.057	25.545	1635.034	1325.438
-41.042	25.442	1633.542	1323.419
-40.027	25.506	1631.451	1322.137
-39.013	25.487	1629.764	1320.579
-37.998	25.463	1628.611	1319.417
-36.984	25.558	1627.024	1318.775
-35.969	25.612	1625.173	1317.624
-34.954	25.595	1624.017	1316.509
-33.940	25.578	1622.690	1315.251
-32.925	25.575	1621.184	1313.962
-31.911	25.676	1619.114	1312.970
-30.896	25.621	1617.814	1311.458
-29.881	25.620	1616.435	1310.282
-28.867	25.522	1614.776	1308.174
-27.852	25.629	1613.417	1307.795
-26.838	25.663	1611.779	1306.661
-25.823	25.723	1610.198	1305.768
-24.809	25.682	1609.481	1304.837
-23.794	25.677	1608.053	1303.591
-22.779	25.682	1606.441	1302.270
-21.765	25.689	1604.837	1300.963
-20.750	25.563	1603.347	1298.793
-19.736	25.679	1601.867	1298.382
-18.721	25.708	1600.328	1297.292
-17.706	25.675	1599.119	1296.027
-16.692	25.613	1597.946	1294.576
-15.677	25.712	1596.470	1294.038
-14.663	25.739	1595.002	1292.992
-13.648	25.763	1593.167	1291.626
-12.633	25.594	1592.554	1289.865
-11.619	25.749	1589.759	1288.662
-10.604	25.729	1588.854	1287.733
-9.590	25.674	1587.891	1286.510
-8.575	25.709	1586.572	1285.639
-7.560	25.668	1585.028	1284.041
-6.546	25.709	1583.993	1283.450
-5.531	25.688	1583.001	1282.445
-4.517	25.658	1581.962	1281.338
-3.502	25.673	1581.100	1280.695
-2.487	25.747	1579.437	1279.823
-1.473	25.292	1567.048	1266.523
-0.458	22.004	1547.630	1227.823
0.556	16.624	1548.742	1194.557
1.571	14.265	1571.007	1194.711
2.586	13.773	1583.917	1200.857
3.600	12.597	1531.341	1152.665
4.615	7.184	1426.465	1038.226
5.629	1.459	1367.135	958.906
6.644	0.205	1360.476	946.275
7.659	0.176	1358.736	944.796
8.673	0.184	1358.410	944.537
9.688	0.115	1355.734	942.164
10.702	-0.037	1352.496	938.879
11.717	2.909	1355.616	959.385
12.731	9.977	1367.017	1011.764
13.746	15.816	1374.627	1053.981
14.761	16.930	1375.934	1061.870
15.775	16.295	1373.805	1056.163
16.790	15.273	1371.323	1047.775
17.804	14.459	1369.210	1040.987
18.819	14.014	1368.033	1037.224
19.834	14.020	1366.357	1035.900
20.848	13.702	1365.354	1033.067
21.863	13.395	1364.187	1030.177
22.877	13.296	1362.711	1028.360
23.892	13.226	1362.240	1027.476
24.907	13.072	1361.474	1025.851
25.921	13.207	1360.273	1025.695
26.936	13.138	1359.752	1024.783
27.950	13.241	1358.597	1024.461
28.965	13.291	1357.590	1023.921
29.980	13.340	1356.870	1023.589
30.994	13.478	1355.864	1023.593
32.009	13.494	1354.859	1022.843
33.023	13.479	1353.688	1021.772
34.038	13.467	1352.577	1020.774
35.053	13.338	1351.556	1019.113
36.067	13.442	1349.994	1018.489
37.082	13.305	1349.550	1017.218
38.096	13.407	1347.938	1016.544
39.111	13.439	1347.611	1016.402
40.126	13.267	1347.008	1014.799
41.140	13.377	1345.857	1014.519
42.155	13.278	1345.656	1013.670
43.169	13.208	1345.975	1013.391
44.184	13.210	1344.954	1012.548
45.199	13.271	1344.705	1012.640
46.213	13.315	1344.174	1012.419
47.228	13.318	1342.949	1011.427
48.242	13.463	1341.444	1011.087
49.257	13.373	1340.251	1009.551
50.271	13.343	1339.018	1008.353
51.286	13.283	1338.069	1007.180
52.301	13.287	1336.434	1005.889
53.315	13.308	1335.708	1005.377
54.330	13.271	1334.409	1004.088
55.344	13.227	1333.053	1002.712
56.359	13.197	1332.433	1001.977
57.374	13.264	1330.598	1000.909
58.388	13.170	1330.375	1000.084
59.403	13.260	1329.527	999.903
60.417	13.114	1329.039	998.567
61.432	13.108	1328.741	998.216
62.447	13.206	1327.161	997.536
63.461	13.139	1326.142	996.274
64.476	13.238	1324.714	995.714
65.490	13.092	1324.075	994.267
66.505	13.109	1322.485	993.084
67.520	13.168	1320.688	991.999
68.534	13.146	1319.782	991.102
69.549	13.146	1319.358	990.696
70.563	13.151	1318.108	989.698
71.578	13.199	1316.528	988.715
72.593	13.047	1316.246	987.505
73.607	13.067	1314.939	986.557
74.622	12.987	1314.633	985.759
75.636	12.989	1313.383	984.749
76.651	13.149	1312.712	985.111
77.666	13.077	1311.967	984.034
78.680	13.022	1311.781	983.484
79.695	13.115	1310.978	983.345
80.709	13.106	1309.917	982.409
81.724	13.142	1309.577	982.282
82.739	13.162	1307.984	981.117
83.753	13.198	1307.313	980.744
84.768	13.367	1305.887	980.589
85.782	13.270	1305.318	979.497
86.797	13.254	1303.555	977.995
87.812	13.194	1302.835	977.016
88.826	13.269	1301.642	976.479
89.841	13.285	1300.325	975.499
90.855	13.343	1299.317	974.998
91.870	13.361	1298.717	974.564
92.884	13.372	1297.800	973.858
93.899	13.386	1296.964	973.223
94.914	13.401	1296.377	972.789
95.928	13.455	1295.247	972.171
96.943	13.381	1294.474	971.068
97.957	13.378	1293.144	969.967
98.972	13.370	1292.481	969.337
99.987	13.213	1291.559	967.638
101.001	13.300	1290.524	967.288
102.016	13.359	1289.315	966.642
103.030	13.318	1288.661	965.826
104.045	13.413	1287.350	965.311
105.060	13.284	1286.712	963.995
106.074	13.260	1284.918	962.425
107.089	13.133	1284.072	960.971
108.103	13.245	1282.273	960.191
109.118	13.123	1281.490	958.811
110.133	13.144	1280.108	957.810
111.147	13.220	1278.616	957.051
112.162	13.258	1277.566	956.401
113.176	13.273	1276.221	955.397
114.191	13.381	1275.352	955.287
115.206	13.312	1274.454	954.132
116.220	13.365	1272.784	953.100
117.235	13.322	1272.102	952.255
118.249	13.279	1271.072	951.152
119.264	13.289	1270.021	950.345
120.279	13.247	1269.083	949.316
121.293	13.297	1267.896	948.630
122.308	13.250	1266.958	947.575
123.322	13.195	1265.608	946.168
124.337	13.206	1264.673	945.445
125.352	13.141	1263.469	944.093
126.366	13.143	1262.448	943.254
127.381	13.232	1261.009	942.604
128.395	13.204	1260.208	941.761
129.410	13.213	1259.526	941.220
130.424	13.213	1258.618	940.460
131.439	13.232	1257.280	939.487
132.454	13.248	1256.646	939.020
133.468	13.293	1255.434	938.288
134.483	13.215	1254.878	937.347
135.497	13.271	1253.636	936.652
136.512	13.208	1252.932	935.688
137.527	13.390	1250.673	934.944
138.541	13.286	1249.575	933.455
139.556	13.236	1248.244	932.093
140.570	13.365	1247.252	931.997
141.585	13.351	1246.330	931.151
142.600	13.346	1244.957	930.012
143.614	13.465	1244.125	929.979
144.629	13.428	1243.134	928.948
145.643	13.425	1242.152	928.112
146.658	13.415	1241.044	927.146
147.673	13.394	1239.501	925.798
148.687	13.329	1238.583	924.665
149.702	13.337	1236.946	923.403
150.716	13.358	1235.709	922.514
151.731	13.394	1234.751	921.919
152.746	13.453	1233.044	920.895
153.760	13.469	1231.914	920.057
154.775	13.462	1230.974	919.234
155.789	13.534	1230.321	919.065
156.804	13.491	1229.389	918.049
157.819	13.515	1228.045	917.097
158.833	13.479	1227.617	916.498
159.848	13.566	1226.269	915.890
160.862	13.543	1225.527	915.129
161.877	13.519	1224.438	914.104
162.892	13.526	1222.745	912.794
163.906	13.530	1222.102	912.255
164.921	13.480	1221.214	911.239
165.935	13.414	1220.403	910.188
166.950	13.605	1219.670	910.610
167.964	13.587	1219.165	910.053
168.979	13.631	1217.679	909.106
169.994	13.616	1217.220	908.601
171.008	13.664	1216.479	908.233
172.023	13.674	1215.767	907.674
173.037	13.680	1215.115	907.142
174.052	13.683	1214.037	906.272
175.067	13.654	1213.159	905.375
176.081	13.719	1211.916	904.724
177.096	13.641	1210.949	903.496
178.110	13.575	1210.079	902.408
179.125	13.652	1208.946	901.901
180.140	13.683	1207.424	900.856
181.154	13.805	1205.881	900.289
182.169	13.796	1205.040	899.532
183.183	13.769	1204.113	898.610
184.198	13.746	1203.227	897.747
185.213	13.834	1201.839	897.107
186.227	13.847	1200.779	896.309
187.242	13.844	1199.855	895.520
188.256	13.897	1198.529	894.739
189.271	13.912	1197.776	894.179
190.286	13.788	1196.622	892.569
191.300	13.578	1196.812	891.504
192.315	13.648	1195.793	891.040
193.329	13.694	1194.941	890.577
194.344	13.691	1194.244	889.963
195.359	13.767	1193.765	889.933
196.373	13.879	1193.041	889.917
197.388	14.035	1192.722	890.433
198.402	14.012	1192.322	889.934
199.417	14.041	1191.483	889.384
200.432	13.980	1190.215	888.030
201.446	14.019	1189.693	887.773
202.461	14.172	1188.220	887.410
203.475	14.152	1187.706	886.842
204.490	14.048	1186.324	885.179
205.504	13.989	1185.341	884.054
206.519	14.016	1184.691	883.633
207.534	14.100	1183.039	882.768
208.548	14.074	1181.970	881.757
209.563	14.083	1181.254	881.191
210.577	14.127	1180.224	880.578
211.592	14.153	1179.703	880.248
212.607	14.211	1178.642	879.686
213.621	14.183	1177.601	878.684
214.636	14.231	1177.033	878.432
215.650	14.305	1175.894	877.898
216.665	14.309	1174.867	877.074
217.680	14.264	1174.451	876.447
218.694	14.260	1173.332	875.513
219.709	14.352	1172.552	875.338
220.723	14.317	1171.614	874.377
221.738	14.379	1170.955	874.135
222.753	14.305	1170.565	873.375
223.767	14.331	1169.565	872.688
224.782	14.257	1169.628	872.272
225.796	14.519	1168.302	872.574
226.811	14.424	1167.511	871.412
227.826	14.358	1166.940	870.563
228.840	14.440	1166.393	870.506
229.855	14.495	1165.553	870.090
230.869	14.392	1164.619	868.777
231.884	14.399	1163.800	868.127
232.899	14.489	1163.072	867.974
233.913	14.439	1162.418	867.152
234.928	14.328	1161.922	866.125
235.942	14.373	1161.033	865.623
236.957	14.349	1160.190	864.791
237.972	14.430	1159.474	864.600
238.986	14.255	1159.058	863.310
240.001	14.486	1158.209	863.793
241.015	14.436	1157.338	862.813
242.030	14.510	1156.372	862.394
243.045	14.420	1155.958	861.545
244.059	14.517	1154.849	861.144
245.074	14.542	1153.854	860.456
246.088	14.630	1153.163	860.319
247.103	14.546	1152.376	859.221
248.117	14.607	1151.963	859.153
249.132	14.707	1151.036	858.898
250.147	14.762	1150.364	858.607
251.161	14.816	1149.772	858.366
252.176	14.756	1149.093	857.471
253.190	14.788	1148.443	857.074
254.205	14.829	1148.030	856.900
255.220	14.787	1147.598	856.288
256.234	14.912	1146.952	856.373
257.249	14.876	1145.827	855.270
258.263	14.825	1145.563	854.736
259.278	14.911	1144.471	854.288
260.293	14.985	1144.333	854.484
261.307	15.054	1143.460	854.111
262.322	14.933	1142.932	853.026
263.336	15.126	1142.115	853.324
264.351	14.991	1141.530	852.123
265.366	15.119	1140.730	852.100
266.380	14.967	1140.523	851.098
267.395	15.032	1139.657	850.705
268.409	15.100	1138.866	850.384
269.424	15.066	1137.979	849.474
270.439	15.129	1137.540	849.393
271.453	14.994	1136.804	848.082
272.468	15.109	1135.840	847.869
273.482	15.060	1135.337	847.171
274.497	15.092	1134.680	846.768
275.512	15.131	1133.655	846.127
276.526	15.141	1132.906	845.545
277.541	15.161	1132.088	844.959
278.555	15.233	1131.375	844.714
279.570	15.080	1131.105	843.666
280.585	15.188	1130.153	843.426
281.599	15.274	1129.080	842.983
282.614	15.193	1128.341	841.952
283.628	15.259	1126.893	841.126
284.643	15.292	1125.984	840.540
285.657	15.341	1125.404	840.278
286.672	15.390	1124.326	839.642
287.687	15.224	1124.074	838.549
288.701	15.322	1122.927	838.109
289.716	15.313	1122.073	837.353
290.730	15.406	1121.175	837.075
291.745	15.387	1120.778	836.609
292.760	15.470	1120.109	836.447
293.774	15.336	1119.699	835.401
294.789	15.358	1119.160	835.032
295.803	15.421	1118.457	834.751
296.818	15.325	1117.826	833.727
297.833	15.434	1116.711	833.360
298.847	15.456	1115.926	832.814
299.862	15.545	1114.734	832.292
300.876	15.412	1114.610	831.463
301.891	15.518	1113.892	831.379
302.906	15.513	1113.084	830.678
303.920	15.550	1112.853	830.618
304.935	15.691	1111.701	830.380
305.949	15.854	1110.785	830.427
306.964	15.630	1110.539	829.065
307.979	15.682	1109.451	828.434
308.993	15.728	1109.112	828.337
310.008	15.714	1108.410	827.668
311.022	15.712	1107.875	827.186
312.037	15.683	1106.725	826.112
313.052	15.648	1105.502	824.952
314.066	15.695	1104.922	824.678
315.081	15.727	1103.687	823.841
316.095	15.579	1103.561	822.950
317.110	15.672	1103.140	823.016
318.125	15.683	1102.570	822.571
319.139	15.712	1101.408	821.776
320.154	15.701	1100.722	821.136
321.168	15.787	1100.054	820.986
322.183	15.677	1099.711	820.121
323.197	15.790	1098.982	820.054
324.212	15.793	1097.971	819.244
325.227	15.689	1098.037	818.712
326.241	15.936	1097.021	819.085
327.256	15.831	1096.233	817.912
328.270	15.846	1095.252	817.184
329.285	15.760	1094.471	816.111
330.300	15.896	1093.283	815.811
331.314	15.955	1092.315	815.303
332.329	15.861	1091.726	814.335
333.343	15.819	1091.213	813.677
334.358	15.860	1090.037	812.927
335.373	15.936	1089.525	812.837
336.387	16.002	1088.736	812.497
337.402	15.978	1087.939	811.715
338.416	16.023	1087.655	811.647
339.431	16.097	1086.827	811.313
340.446	16.147	1086.174	810.995
341.460	16.103	1085.535	810.235
342.475	16.060	1084.913	809.494
343.489	16.298	1083.239	809.312
344.504	16.164	1082.535	808.074
345.519	16.145	1082.007	807.517
346.533	16.356	1080.932	807.650
347.548	16.267	1080.143	806.566
348.562	16.274	1079.484	806.035
349.577	16.336	1078.335	805.401
350.592	16.087	1078.135	803.993
351.606	16.382	1077.242	804.663
352.621	16.177	1077.090	803.499
353.635	16.259	1076.301	803.234
354.650	16.198	1075.220	802.066
355.665	16.211	1074.558	801.563
356.679	16.218	1074.203	801.257
357.694	16.290	1073.704	801.160
358.708	16.146	1073.263	800.076
359.723	16.314	1072.117	799.943
360.738	16.411	1071.369	799.775
361.752	16.342	1071.038	799.130
362.767	16.323	1070.807	798.797
363.781	16.372	1070.074	798.410
364.796	16.478	1069.023	798.059
365.810	16.516	1068.787	797.992
366.825	16.580	1068.112	797.718
367.840	16.543	1067.564	797.063
368.854	16.606	1066.658	796.615
369.869	16.719	1066.179	796.714
370.883	16.627	1064.965	795.308
371.898	16.531	1064.723	794.605
372.913	16.552	1064.081	794.153
373.927	16.677	1063.928	794.554
374.942	16.666	1063.136	793.841
375.956	16.645	1062.613	793.285
376.971	16.678	1062.058	792.952
377.986	16.684	1061.428	792.443
379.000	16.764	1060.774	792.258
380.015	16.821	1060.162	791.996
381.029	16.787	1059.260	791.093
382.044	16.828	1058.706	790.803
383.059	16.786	1058.069	790.057
384.073	16.943	1057.124	790.015
385.088	16.902	1056.459	789.258
386.102	16.926	1055.709	788.740
387.117	16.810	1054.713	787.387
388.132	16.814	1053.786	786.642
389.146	16.758	1053.051	785.766
390.161	17.050	1051.743	786.074
391.175	16.990	1051.321	785.411
392.190	16.932	1051.128	784.929
393.205	16.928	1050.518	784.381
394.219	17.037	1049.309	783.916
395.234	17.062	1048.304	783.209
396.248	16.986	1047.437	782.145
397.263	16.890	1046.533	780.956
398.278	16.953	1045.970	780.758
399.292	16.888	1045.361	779.934
400.307	16.959	1044.608	779.631
401.321	16.988	1044.237	779.417
402.336	17.057	1042.894	778.661
403.350	16.994	1042.139	777.740
404.365	16.998	1042.074	777.641
405.380	17.104	1041.175	777.388
406.394	17.116	1040.262	776.691
407.409	17.019	1039.891	775.902
408.423	17.128	1039.077	775.726
409.438	17.127	1038.484	775.209
410.453	17.187	1037.843	774.937
411.467	17.304	1036.881	774.681
412.482	17.193	1036.440	773.778
413.496	17.211	1036.045	773.498
414.511	17.239	1035.303	773.004
415.526	17.360	1034.795	773.105
416.540	17.412	1034.174	772.808
417.555	17.357	1033.636	772.087
418.569	17.415	1033.028	771.827
419.584	17.398	1032.805	771.518
420.599	17.450	1032.222	771.251
421.613	107.302	1327.481	1484.408
422.628	98.276	1370.447	1484.511
