DTS Sentinel unit serial number:	SN413079Multiplexer serial number:	ORYXHardware model number:	OX4-SRSoftware version number:	ORYX F/W v4.00 Oryx Data Collector v3.7.2.0data status	okinstallation	princeton_trtdifferential loss correction	single-endedforward channel	channel 2reverse channel	N/Adate	2019/09/18time	12:07:35forward acquisition time	60.00reverse acquisition time	0.00gamma	496.2192k internal	0.2325k external	0.2325temperature offset calibration	0.9990default loss term (dB/km)	0.3790temperature slope calibration	1.0000multiplexer offset coefficient	1.0000multiplexer slope coefficient	1.0000fibre end	0.00T internal ref (°C)	31.66T ext. ref 1 (°C)	0.50T ext. ref 2 (°C)	27.00length (m)	temperature (°C)	Stokes	anti-Stokes-747.200	-200.000	-0.028	0.170
-746.185	-108.863	-0.124	0.027
-745.171	-200.000	0.055	0.353
-744.156	-97.085	-0.075	0.020
-743.142	-149.309	0.110	-0.009
-742.127	-124.611	0.230	-0.036
-741.112	60.530	0.140	-0.140
-740.098	800.000	-0.031	-0.138
-739.083	231.933	-0.007	-0.011
-738.069	-124.885	0.443	0.069
-737.054	89.129	0.161	0.181
-736.039	-200.000	-0.050	-0.232
-735.025	-83.738	0.147	0.047
-734.010	-62.954	-0.253	0.105
-732.996	-166.892	0.285	-0.012
-731.981	-110.964	-0.190	0.039
-730.966	5.030	-0.254	-0.189
-729.952	-148.976	0.270	0.022
-728.937	-148.106	-0.269	0.022
-727.923	-92.045	-0.223	0.064
-726.908	133.822	0.146	-0.190
-725.894	21.339	-0.105	-0.086
-724.879	-200.000	-0.019	0.234
-723.864	-177.967	-0.249	-0.006
-722.850	-0.218	-0.092	-0.066
-721.835	267.567	-0.275	-0.485
-720.821	277.456	-0.048	0.086
-719.806	800.000	0.055	0.237
-718.791	-200.000	-0.007	0.079
-717.777	522.026	0.071	0.168
-716.762	186.967	0.143	-0.214
-715.748	-112.683	0.161	-0.032
-714.733	-200.000	-0.011	0.140
-713.718	187.363	-0.045	-0.067
-712.704	515.234	-0.040	0.093
-711.689	-127.768	0.185	-0.027
-710.675	260.080	-0.174	0.304
-709.660	15.010	0.117	0.093
-708.645	-91.244	-0.111	0.032
-707.631	-68.409	0.252	0.098
-706.616	-122.992	0.151	0.025
-705.602	290.642	0.018	0.033
-704.587	-47.713	-0.169	-0.083
-703.572	227.063	0.163	0.267
-702.558	-42.357	-0.128	0.066
-701.543	-200.000	0.009	0.218
-700.529	-200.000	-0.264	0.001
-699.514	-72.684	-0.236	0.088
-698.499	80.970	-0.287	0.312
-697.485	-65.278	-0.208	-0.084
-696.470	32.632	0.051	0.044
-695.456	800.000	0.092	0.312
-694.441	27.829	-0.033	-0.028
-693.426	161.594	0.064	-0.090
-692.412	222.141	0.108	0.176
-691.397	-124.797	0.081	-0.013
-690.383	249.722	-0.202	-0.344
-689.368	572.954	-0.047	0.116
-688.354	311.024	-0.105	0.199
-687.339	-28.036	0.167	0.097
-686.324	0.163	-0.169	0.122
-685.310	-200.000	-0.053	-0.431
-684.295	555.386	0.081	0.196
-683.281	101.080	0.060	-0.071
-682.266	-181.901	0.307	-0.006
-681.251	280.122	-0.216	0.388
-680.237	598.955	0.105	-0.262
-679.222	-200.000	0.020	-0.168
-678.208	161.065	-0.046	-0.065
-677.193	68.236	0.320	0.329
-676.178	51.721	-0.270	0.259
-675.164	-46.483	-0.365	-0.180
-674.149	751.496	-0.035	0.095
-673.135	624.712	0.062	0.158
-672.120	-200.000	-0.005	-0.100
-671.105	-58.914	0.328	0.143
-670.091	-72.643	-0.255	0.095
-669.076	-192.369	0.242	-0.002
-668.062	-129.572	0.180	-0.025
-667.047	-122.194	-0.206	-0.034
-666.032	274.553	0.181	-0.323
-665.018	-200.000	0.014	-0.104
-664.003	-109.680	0.001	0.000
-662.989	800.000	-0.041	0.141
-661.974	-132.847	-0.162	0.021
-660.959	-200.000	-0.021	-0.135
-659.945	5.863	0.083	-0.062
-658.930	-85.994	-0.087	0.027
-657.916	-108.507	0.345	-0.075
-656.901	-91.002	-0.197	0.057
-655.886	-145.580	-0.104	0.009
-654.872	-38.659	0.054	0.029
-653.857	-98.163	-0.430	0.111
-652.843	379.329	-0.067	-0.139
-651.828	800.000	-0.094	0.305
-650.814	180.673	0.059	-0.087
-649.799	77.988	-0.054	-0.058
-648.784	30.823	-0.244	0.210
-647.770	97.887	0.055	0.064
-646.755	-60.038	0.110	-0.047
-645.741	-27.588	0.402	-0.235
-644.726	-185.209	0.147	-0.002
-643.711	-149.636	-0.106	-0.008
-642.697	243.187	-0.091	0.153
-641.682	-50.323	-0.082	0.039
-640.668	6.200	0.304	-0.227
-639.653	-50.105	0.052	0.025
-638.638	1.080	0.138	-0.099
-637.624	-30.086	-0.284	0.163
-636.609	-200.000	0.023	0.381
-635.595	401.407	0.120	0.253
-634.580	-200.000	-0.030	0.169
-633.565	73.187	-0.214	0.225
-632.551	272.887	-0.013	0.022
-631.536	341.756	0.027	0.053
-630.522	625.075	0.033	0.084
-629.507	207.202	0.147	0.230
-628.492	104.397	0.074	0.087
-627.478	-31.663	-0.100	0.057
-626.463	-33.219	-0.219	0.122
-625.449	153.975	0.070	-0.097
-624.434	41.384	-0.113	-0.103
-623.419	110.585	0.080	0.097
-622.405	3.749	-0.314	0.231
-621.390	29.954	0.128	-0.109
-620.376	-200.000	-0.006	0.189
-619.361	14.489	0.284	0.223
-618.346	-110.494	0.045	-0.009
-617.332	299.101	-0.075	0.138
-616.317	120.245	0.181	-0.225
-615.303	-63.777	0.043	-0.018
-614.288	402.533	0.072	0.151
-613.273	-200.000	0.010	0.176
-612.259	-200.000	0.034	-0.282
-611.244	171.881	-0.199	0.287
-610.230	-76.894	0.397	-0.139
-609.215	54.536	0.181	-0.175
-608.201	-113.168	0.429	-0.085
-607.186	-7.279	-0.048	0.033
-606.171	-11.140	0.174	0.115
-605.157	17.046	-0.207	0.164
-604.142	2.525	-0.203	0.148
-603.128	-200.000	-0.008	-0.100
-602.113	248.268	0.101	-0.172
-601.098	-111.792	-0.182	0.037
-600.084	-92.140	-0.090	0.025
-599.069	-123.539	0.353	0.056
-598.055	74.371	-0.152	0.160
-597.040	45.109	0.104	0.096
-596.025	800.000	0.096	0.309
-595.011	72.268	0.238	0.248
-593.996	-52.723	-0.108	-0.050
-592.982	-200.000	-0.019	0.385
-591.967	33.753	-0.139	0.121
-590.952	-142.291	0.224	0.022
-589.938	-125.272	-0.361	0.055
-588.923	172.741	0.095	0.137
-587.909	279.771	-0.065	0.117
-586.894	195.572	0.106	-0.162
-585.879	800.000	-0.051	-0.171
-584.865	17.844	-0.285	-0.228
-583.850	800.000	0.056	-0.185
-582.836	19.035	-0.222	0.179
-581.821	514.916	-0.068	0.158
-580.806	800.000	0.084	0.313
-579.792	154.358	-0.098	-0.134
-578.777	58.718	-0.261	-0.257
-577.763	800.000	0.091	0.272
-576.748	-167.153	0.085	0.003
-575.733	184.356	0.054	-0.079
-574.719	-200.000	0.041	-0.519
-573.704	800.000	0.084	0.241
-572.690	115.712	-0.053	-0.065
-571.675	391.511	-0.013	0.026
-570.661	263.525	0.202	0.352
-569.646	90.421	0.221	0.248
-568.631	-166.031	0.255	0.011
-567.617	50.385	-0.241	-0.228
-566.602	-89.692	-0.138	-0.040
-565.588	481.494	-0.029	-0.065
-564.573	89.647	-0.093	-0.104
-563.558	-91.493	-0.284	-0.081
-562.544	-37.566	-0.290	0.155
-561.529	-200.000	0.020	-0.186
-560.515	-101.442	-0.294	-0.072
-559.500	800.000	-0.107	-0.356
-558.485	-200.000	0.070	0.382
-557.471	-54.046	-0.090	-0.041
-556.456	44.677	-0.338	-0.311
-555.442	109.177	0.192	0.230
-554.427	115.883	0.160	0.197
-553.412	800.000	-0.081	-0.229
-552.398	-80.646	-0.290	-0.097
-551.383	-31.707	0.270	-0.152
-550.369	-138.784	-0.097	0.011
-549.354	45.951	-0.151	-0.140
-548.339	0.160	0.172	0.123
-547.325	28.160	0.141	-0.119
-546.310	152.760	-0.370	0.506
-545.296	65.028	0.102	-0.103
-544.281	112.269	-0.099	0.120
-543.266	21.715	-0.182	0.148
-542.252	-200.000	0.071	-0.318
-541.237	373.136	-0.139	0.283
-540.223	624.972	0.103	0.260
-539.208	-108.855	-0.187	-0.040
-538.193	-200.000	-0.039	-0.176
-537.179	-27.241	0.048	-0.028
-536.164	-38.105	0.256	-0.136
-535.150	-200.000	0.001	-0.149
-534.135	36.418	-0.138	0.122
-533.121	-127.302	-0.195	-0.028
-532.106	-200.000	0.008	-0.431
-531.091	145.609	-0.189	-0.253
-530.077	137.003	-0.065	0.084
-529.062	800.000	0.071	0.205
-528.048	72.470	0.197	-0.206
-527.033	-200.000	-0.010	-0.579
-526.018	800.000	-0.070	-0.212
-525.004	-80.382	0.388	-0.130
-523.989	-200.000	0.007	-0.346
-522.975	166.832	-0.072	0.102
-521.960	-200.000	0.012	-0.114
-520.945	-38.760	-0.317	-0.167
-519.931	-58.169	0.316	-0.137
-518.916	100.174	0.109	-0.127
-517.902	-89.862	0.097	-0.028
-516.887	-44.766	0.123	-0.061
-515.872	81.108	-0.190	-0.205
-514.858	-104.847	-0.414	-0.095
-513.843	-200.000	0.036	0.265
-512.829	-107.258	-0.074	-0.016
-511.814	-200.000	-0.005	-0.126
-510.799	-126.097	0.200	0.030
-509.785	-200.000	-0.034	-0.168
-508.770	350.108	0.108	0.214
-507.756	273.764	-0.065	-0.114
-506.741	800.000	-0.050	-0.203
-505.726	45.279	-0.287	0.264
-504.712	-142.094	-0.122	0.012
-503.697	-34.317	-0.168	0.092
-502.683	155.059	0.032	-0.044
-501.668	-200.000	0.003	-0.191
-500.653	294.303	0.084	0.154
-499.639	-200.000	0.023	0.303
-498.624	98.609	0.251	0.289
-497.610	-110.645	-0.213	0.044
-496.595	-90.616	-0.444	0.128
-495.581	-140.026	-0.176	-0.018
-494.566	-200.000	0.010	-0.118
-493.551	-29.522	0.036	-0.021
-492.537	231.797	0.139	0.228
-491.522	38.226	-0.185	0.165
-490.508	-72.675	-0.137	-0.051
-489.493	-67.321	-0.135	-0.053
-488.478	-200.000	-0.075	0.329
-487.464	246.712	-0.148	0.250
-486.449	314.010	-0.079	0.148
-485.435	-200.000	-0.002	0.089
-484.420	-200.000	-0.020	0.096
-483.405	640.017	-0.052	-0.131
-482.391	570.930	-0.240	0.584
-481.376	800.000	0.036	-0.151
-480.362	800.000	0.050	0.162
-479.347	-200.000	-0.041	0.255
-478.332	50.212	-0.263	-0.248
-477.318	-40.825	0.193	-0.100
-476.303	-54.753	0.301	0.136
-475.289	-200.000	0.004	0.145
-474.274	-200.000	-0.026	0.135
-473.259	-200.000	0.051	0.386
-472.245	-44.663	-0.259	0.129
-471.230	293.692	-0.088	-0.160
-470.216	-200.000	0.005	-0.143
-469.201	-200.000	-0.024	-0.248
-468.186	5.936	0.117	0.086
-467.172	-200.000	-0.024	-0.189
-466.157	800.000	-0.026	-0.073
-465.143	19.730	-0.333	-0.268
-464.128	-200.000	-0.019	0.135
-463.113	-200.000	0.038	-0.289
-462.099	-200.000	0.038	0.175
-461.084	800.000	0.130	-0.471
-460.070	49.107	-0.137	0.128
-459.055	61.219	-0.081	-0.081
-458.040	-13.488	-0.028	-0.018
-457.026	8.146	-0.187	0.140
-456.011	48.563	0.210	0.196
-454.997	-0.095	-0.102	-0.073
-453.982	16.192	-0.177	-0.139
-452.968	800.000	0.086	0.269
-451.953	-33.199	-0.193	-0.106
-450.938	-153.471	-0.383	0.026
-449.924	245.536	0.115	0.194
-448.909	692.051	0.030	0.077
-447.895	56.934	0.248	-0.241
-446.880	-63.272	0.118	0.048
-445.865	-104.607	-0.254	0.059
-444.851	534.294	-0.019	0.046
-443.836	-200.000	0.037	0.259
-442.822	76.583	0.291	-0.307
-441.807	29.196	-0.045	0.038
-440.792	-106.395	-0.038	0.009
-439.778	-89.302	-0.170	-0.050
-438.763	-97.671	0.124	-0.032
-437.749	-20.814	-0.108	-0.066
-436.734	800.000	-0.068	0.206
-435.719	-132.624	-0.242	-0.031
-434.705	78.362	0.131	-0.140
-433.690	666.346	0.015	-0.039
-432.676	-120.160	-0.234	0.040
-431.661	-61.987	0.165	-0.069
-430.646	222.910	0.014	0.023
-429.632	27.629	-0.294	0.247
-428.617	-184.365	0.158	0.003
-427.603	-113.078	-0.103	0.020
-426.588	-149.432	0.181	-0.014
-425.573	4.529	0.035	0.025
-424.559	-167.374	-0.217	-0.009
-423.544	51.174	0.199	-0.188
-422.530	-162.018	0.347	0.017
-421.515	-200.000	-0.003	0.339
-420.500	-200.000	0.011	0.106
-419.486	9.301	0.137	0.103
-418.471	-116.340	0.134	0.025
-417.457	800.000	-0.111	0.427
-416.442	-50.982	-0.234	-0.110
-415.428	258.086	-0.115	-0.197
-414.413	200.285	0.036	-0.056
-413.398	7.529	0.326	-0.243
-412.384	-18.416	-0.086	-0.053
-411.369	-125.108	0.118	-0.018
-410.355	800.000	-0.035	-0.127
-409.340	-200.000	0.030	-0.464
-408.325	96.374	0.073	-0.083
-407.311	144.951	0.168	-0.224
-406.296	-4.787	0.057	0.039
-405.282	58.859	0.287	-0.281
-404.267	-92.240	0.299	-0.084
-403.252	28.628	0.278	-0.234
-402.238	800.000	0.136	-0.394
-401.223	-200.000	-0.015	0.323
-400.209	-36.864	-0.325	0.174
-399.194	-186.895	0.231	0.003
-398.179	-91.714	-0.186	-0.053
-397.165	214.569	0.194	-0.307
-396.150	-33.069	0.130	0.072
-395.136	319.886	-0.105	0.199
-394.121	542.807	0.051	0.121
-393.106	-33.867	0.187	0.103
-392.092	80.576	-0.239	-0.256
-391.077	-111.989	-0.196	-0.039
-390.063	-85.985	0.440	-0.135
-389.048	17.079	-0.129	-0.102
-388.033	482.135	0.048	0.109
-387.019	-87.550	-0.106	0.032
-386.004	800.000	-0.046	0.158
-384.990	-136.760	0.197	-0.023
-383.975	-44.195	-0.168	-0.084
-382.960	-16.194	0.161	-0.102
-381.946	800.000	0.041	-0.144
-380.931	13.017	-0.116	0.090
-379.917	-105.856	0.218	0.049
-378.902	129.702	-0.326	-0.414
-377.888	-133.447	-0.125	0.016
-376.873	800.000	0.026	0.098
-375.858	800.000	-0.032	0.135
-374.844	-102.323	-0.230	-0.055
-373.829	112.177	0.056	0.068
-372.815	-188.345	0.088	-0.001
-371.800	306.214	-0.135	-0.250
-370.785	-33.034	-0.446	-0.246
-369.771	408.382	-0.125	0.264
-368.756	-57.226	-0.130	0.057
-367.742	31.268	0.202	0.172
-366.727	-7.609	-0.099	0.067
-365.712	-200.000	0.045	-0.207
-364.698	-183.544	0.213	0.004
-363.683	313.623	0.115	-0.216
-362.669	32.897	0.209	-0.180
-361.654	800.000	0.043	-0.119
-360.639	177.416	-0.174	0.252
-359.625	553.034	-0.072	0.171
-358.610	7.440	0.231	0.172
-357.596	83.182	-0.194	-0.210
-356.581	-31.227	-0.092	-0.052
-355.566	565.334	0.051	0.123
-354.552	-57.829	0.171	-0.074
-353.537	-200.000	0.054	-0.323
-352.523	800.000	-0.064	-0.185
-351.508	44.174	-0.174	-0.158
-350.493	-95.951	-0.067	-0.018
-349.479	473.560	0.043	-0.097
-348.464	770.275	-0.074	-0.200
-347.450	130.399	0.069	-0.087
-346.435	74.092	0.115	0.120
-345.420	436.601	-0.060	-0.129
-344.406	-43.945	0.231	-0.115
-343.391	-63.316	0.037	-0.015
-342.377	-180.508	0.156	0.003
-341.362	16.784	0.120	0.094
-340.348	-3.677	-0.569	0.392
-339.333	574.250	0.105	-0.254
-338.318	-50.262	0.257	0.121
-337.304	176.092	-0.071	0.102
-336.289	19.544	0.508	0.406
-335.275	-200.000	0.062	-0.410
-334.260	-69.100	-0.098	0.038
-333.245	-70.072	-0.297	0.112
-332.231	-81.565	0.485	0.158
-331.216	800.000	-0.016	-0.051
-330.202	7.613	-0.218	-0.162
-329.187	-200.000	0.001	0.243
-328.172	-173.921	0.311	-0.009
-327.158	-124.023	0.377	-0.059
-326.143	-200.000	-0.050	0.381
-325.129	112.932	0.141	-0.169
-324.114	-69.037	-0.094	0.036
-323.099	-200.000	0.037	-0.193
-322.085	579.714	0.061	-0.148
-321.070	-14.674	0.289	-0.185
-320.056	-56.113	-0.170	0.075
-319.041	-200.000	0.029	0.239
-318.026	98.823	-0.130	-0.149
-317.012	-57.354	0.285	0.124
-315.997	-147.796	-0.224	-0.019
-314.983	-200.000	-0.025	0.431
-313.968	134.306	0.110	0.141
-312.953	-200.000	-0.009	0.111
-311.939	696.087	0.123	-0.320
-310.924	276.161	-0.146	-0.258
-309.910	201.969	-0.138	-0.212
-308.895	-73.980	0.402	-0.145
-307.880	226.010	-0.187	-0.301
-306.866	-58.347	0.296	0.128
-305.851	-200.000	-0.025	0.194
-304.837	-200.000	0.002	0.186
-303.822	-42.775	0.344	-0.174
-302.807	74.515	-0.045	0.047
-301.793	196.358	0.088	-0.133
-300.778	-152.587	0.148	-0.010
-299.764	-113.494	0.332	-0.064
-298.749	217.995	-0.192	0.303
-297.735	-153.509	-0.165	-0.011
-296.720	290.229	-0.124	0.223
-295.705	133.079	0.093	-0.119
-294.691	269.816	0.115	0.200
-293.676	163.853	-0.084	-0.117
-292.662	-107.030	0.200	0.044
-291.647	195.183	-0.192	-0.290
-290.632	127.652	-0.041	0.051
-289.618	-85.905	0.140	-0.043
-288.603	-122.644	0.215	0.034
-287.589	165.235	0.140	0.196
-286.574	-45.356	0.238	0.117
-285.559	-200.000	0.045	-0.283
-284.545	-4.897	0.162	-0.110
-283.530	-71.001	-0.295	-0.110
-282.516	-91.603	-0.142	0.040
-281.501	723.116	0.103	-0.271
-280.486	800.000	0.023	0.072
-279.472	800.000	-0.053	0.160
-278.457	9.208	0.031	-0.023
-277.443	800.000	-0.133	0.383
-276.428	-21.595	-0.107	0.064
-275.413	189.772	0.094	0.140
-274.399	-74.732	0.202	-0.072
-273.384	58.266	-0.091	0.088
-272.370	-200.000	0.042	0.586
-271.355	-200.000	-0.009	0.286
-270.340	800.000	0.122	-0.387
-269.326	-200.000	-0.005	-0.237
-268.311	48.434	-0.090	0.084
-267.297	119.522	-0.134	-0.164
-266.282	104.955	-0.017	0.019
-265.267	-200.000	-0.008	-0.078
-264.253	513.638	0.076	0.176
-263.238	209.673	-0.077	0.119
-262.224	-200.000	0.057	-0.405
-261.209	-200.000	0.014	-0.233
-260.195	60.126	-0.043	0.042
-259.180	791.475	0.149	0.405
-258.165	377.786	-0.085	-0.172
-257.151	800.000	0.016	-0.045
-256.136	-197.854	0.314	-0.002
-255.122	225.955	-0.053	0.084
-254.107	186.968	0.202	-0.299
-253.092	-39.029	-0.192	0.100
-252.078	-8.722	-0.093	-0.062
-251.063	190.783	-0.105	-0.157
-250.049	77.988	0.206	0.218
-249.034	65.065	0.142	-0.142
-248.019	800.000	0.045	0.180
-247.005	800.000	-0.080	-0.270
-245.990	18.744	0.296	-0.234
-244.976	-44.813	-0.095	-0.047
-243.961	68.652	-0.041	-0.041
-242.946	-38.462	-0.193	-0.101
-241.932	3.365	-0.166	-0.119
-240.917	800.000	-0.091	0.372
-239.903	-25.151	0.154	-0.090
-238.888	-109.134	0.268	-0.056
-237.873	800.000	-0.070	0.197
-236.859	800.000	0.091	-0.287
-235.844	32.034	0.089	0.076
-234.830	-16.676	0.229	0.144
-233.815	-200.000	-0.004	-0.202
-232.800	206.938	-0.075	-0.116
-231.786	-59.294	0.137	0.059
-230.771	800.000	0.122	-0.365
-229.757	-106.441	-0.230	0.051
-228.742	-47.664	0.094	-0.045
-227.727	19.485	0.294	0.233
-226.713	-200.000	-0.011	0.254
-225.698	800.000	0.059	-0.168
-224.684	278.691	-0.127	0.225
-223.669	452.315	0.164	-0.359
-222.655	115.838	-0.034	0.041
-221.640	-39.255	-0.159	-0.082
-220.625	-61.579	0.370	0.154
-219.611	-105.534	0.176	0.040
-218.596	-78.012	-0.099	0.034
-217.582	800.000	-0.039	0.154
-216.567	-1.155	0.083	0.058
-215.552	58.070	0.129	-0.125
-214.538	173.309	-0.117	-0.166
-213.523	-200.000	-0.041	0.260
-212.509	-200.000	0.040	-0.212
-211.494	-200.000	-0.000	0.030
-210.479	36.561	0.157	0.137
-209.465	194.197	-0.059	-0.088
-208.450	-200.000	0.023	0.374
-207.436	-22.179	-0.344	0.206
-206.421	-200.000	0.005	-0.117
-205.406	-76.083	-0.134	-0.047
-204.392	8.348	0.317	-0.235
-203.377	18.884	-0.161	0.127
-202.363	-11.039	0.231	0.151
-201.348	-200.000	-0.007	0.137
-200.333	-43.807	0.095	0.047
-199.319	-95.719	-0.365	-0.096
-198.304	77.370	-0.133	0.140
-197.290	104.035	-0.148	-0.171
-196.275	56.197	-0.137	0.131
-195.260	-46.353	-0.415	0.202
-194.246	-9.234	-0.055	-0.036
-193.231	97.171	0.126	0.143
-192.217	-200.000	-0.062	-0.298
-191.202	-195.843	-0.197	0.001
-190.187	445.700	0.191	-0.415
-189.173	-200.000	0.051	-0.310
-188.158	-7.177	-0.156	0.104
-187.144	800.000	-0.034	-0.127
-186.129	96.717	-0.315	-0.356
-185.114	258.296	0.083	-0.142
-184.100	11.255	-0.144	0.109
-183.085	231.159	-0.041	0.066
-182.071	-200.000	-0.035	0.167
-181.056	-115.499	-0.172	0.032
-180.042	59.062	0.287	0.278
-179.027	-117.202	0.047	-0.008
-178.012	574.270	-0.124	0.298
-176.998	348.984	-0.154	0.300
-175.983	193.947	0.187	-0.279
-174.969	-200.000	0.022	0.186
-173.954	-200.000	0.022	-0.462
-172.939	-110.493	-0.113	0.023
-171.925	-145.185	0.172	0.015
-170.910	386.376	-0.095	-0.193
-169.896	800.000	0.096	-0.352
-168.881	-124.711	0.101	-0.015
-167.866	158.297	0.078	0.106
-166.852	266.491	-0.106	-0.183
-165.837	160.992	-0.049	0.068
-164.823	-54.613	-0.109	0.048
-163.808	230.773	0.185	-0.299
-162.793	-200.000	-0.009	0.095
-161.779	668.834	-0.038	0.097
-160.764	1.962	-0.261	-0.186
-159.750	-200.000	-0.047	0.414
-158.735	-63.056	0.405	0.165
-157.720	800.000	-0.046	0.135
-156.706	-200.000	-0.020	-0.116
-155.691	340.214	-0.084	0.161
-154.677	-126.556	-0.359	0.053
-153.662	40.733	-0.100	-0.089
-152.647	-14.259	-0.101	-0.064
-151.633	-109.120	-0.152	-0.032
-150.618	-115.716	0.166	-0.031
-149.604	-120.787	0.081	-0.013
-148.589	-113.682	0.129	-0.025
-147.574	-200.000	-0.043	-0.247
-146.560	-27.438	-0.129	-0.074
-145.545	13.407	-0.062	-0.047
-144.531	-200.000	0.020	0.132
-143.516	-200.000	0.013	-0.203
-142.502	14.735	-0.135	0.104
-141.487	-153.077	0.252	0.017
-140.472	800.000	-0.076	0.220
-139.458	800.000	-0.052	0.162
-138.443	11.979	0.253	0.191
-137.429	12.494	0.231	0.176
-136.414	-200.000	-0.009	0.247
-135.399	-5.995	-0.082	-0.055
-134.385	-79.821	0.253	-0.084
-133.370	-158.501	-0.264	-0.015
-132.356	146.622	0.084	0.112
-131.341	335.921	0.045	0.085
-130.326	-200.000	-0.029	-0.221
-129.312	94.519	0.183	0.205
-128.297	-6.967	0.083	-0.055
-127.283	-200.000	-0.003	0.040
-126.268	-46.564	-0.151	0.073
-125.253	89.563	0.140	0.154
-124.239	-24.807	0.124	0.073
-123.224	122.996	0.116	-0.144
-122.210	-42.178	0.315	0.158
-121.195	-117.761	-0.036	-0.006
-120.180	-5.791	-0.227	-0.153
-119.166	109.269	-0.040	0.047
-118.151	-150.042	-0.162	-0.012
-117.137	-135.367	0.081	0.010
-116.122	37.616	-0.284	-0.248
-115.107	800.000	0.153	-0.544
-114.093	204.794	0.178	0.272
-113.078	-147.793	-0.177	-0.015
-112.064	-200.000	-0.041	0.236
-111.049	98.998	-0.139	0.158
-110.034	-49.466	-0.115	0.054
-109.020	-68.507	0.060	-0.023
-108.005	125.064	0.080	0.099
-106.991	-137.587	0.520	0.058
-105.976	190.577	0.087	0.128
-104.962	82.977	0.154	0.165
-103.947	67.428	-0.144	-0.145
-102.932	800.000	0.030	-0.108
-101.918	29.321	-0.262	0.219
-100.903	-38.439	0.407	-0.212
-99.889	-126.653	0.140	-0.020
-98.874	92.800	0.079	0.088
-97.859	800.000	0.094	0.255
-96.845	-13.427	0.121	0.077
-95.830	-100.906	0.098	0.024
-94.816	-79.753	0.033	-0.011
-93.801	-200.000	0.024	-0.110
-92.786	271.755	0.059	0.103
-91.772	-12.998	-0.059	0.037
-90.757	-60.409	0.390	0.163
-89.743	-68.203	0.146	0.056
-88.728	-200.000	-0.019	0.223
-87.713	-200.000	0.009	-0.238
-86.699	-35.046	0.297	0.159
-85.684	-51.311	0.181	-0.083
-84.670	-200.000	0.017	-0.102
-83.655	-90.710	-0.074	-0.021
-82.640	231.900	-0.005	0.009
-81.626	-200.000	-0.017	0.286
-80.611	39.284	0.097	-0.085
-79.597	144.819	0.435	-0.571
-78.582	371.801	0.186	0.372
-77.567	800.000	0.025	-0.091
-76.553	-82.689	0.115	-0.037
-75.538	94.353	0.248	-0.277
-74.524	800.000	0.040	-0.143
-73.509	174.981	0.084	0.120
-72.494	117.366	-0.095	0.115
-71.480	307.696	-0.019	-0.035
-70.465	-200.000	-0.031	-0.208
-69.451	680.517	-0.106	0.272
-68.436	436.072	0.076	0.163
-67.422	197.698	0.136	0.204
-66.407	-125.101	-0.053	0.008
-65.392	-77.788	0.139	-0.047
-64.378	518.785	0.041	0.093
-63.363	-56.105	0.130	-0.057
-62.349	531.957	0.042	0.098
-61.334	126.385	-0.832	-1.034
-60.319	645.143	0.205	0.514
-59.305	784.010	-0.414	-1.116
-58.290	96.028	1.029	1.155
-57.276	800.000	0.587	1.911
-56.261	-200.000	94.896	572.550
-55.246	514.991	1408.125	3228.353
-54.232	153.002	2613.971	3510.411
-53.217	104.467	2324.431	2687.561
-52.203	41.131	1944.497	1725.132
-51.188	34.990	1732.190	1489.108
-50.173	32.261	1688.059	1430.386
-49.159	50.106	1733.791	1606.931
-48.144	51.089	1750.283	1629.722
-47.130	34.568	1712.316	1468.542
-46.115	31.785	1698.058	1434.981
-45.100	31.604	1693.132	1429.380
-44.086	31.626	1690.351	1427.141
-43.071	31.520	1687.948	1424.254
-42.057	31.566	1685.264	1422.283
-41.042	31.561	1683.254	1420.492
-40.027	31.621	1681.514	1419.417
-39.013	31.556	1679.522	1417.188
-37.998	31.547	1677.285	1415.177
-36.984	31.623	1676.309	1414.876
-35.969	31.591	1675.089	1413.549
-34.954	31.729	1672.650	1412.469
-33.940	31.693	1671.641	1411.293
-32.925	31.672	1670.075	1409.755
-31.911	31.543	1668.814	1407.666
-30.896	31.637	1666.653	1406.491
-29.881	31.603	1664.622	1404.469
-28.867	31.670	1662.412	1403.052
-27.852	31.661	1660.954	1401.697
-26.838	31.577	1659.950	1400.165
-25.823	31.534	1659.187	1399.141
-24.809	31.674	1657.346	1398.584
-23.794	31.682	1655.659	1397.159
-22.779	31.655	1654.146	1395.632
-21.765	31.687	1652.368	1394.310
-20.750	31.685	1650.590	1392.741
-19.736	31.649	1649.401	1391.417
-18.721	31.698	1648.213	1390.726
-17.706	31.696	1646.547	1389.249
-16.692	31.692	1645.201	1388.026
-15.677	31.680	1643.495	1386.445
-14.663	31.726	1642.194	1385.629
-13.648	31.728	1640.788	1384.404
-12.633	31.682	1639.526	1382.945
-11.619	31.740	1637.058	1381.235
-10.604	31.692	1636.488	1380.344
-9.590	31.650	1635.004	1378.730
-8.575	31.738	1633.400	1377.970
-7.560	31.747	1632.004	1376.802
-6.546	31.734	1630.972	1375.784
-5.531	31.686	1630.280	1374.793
-4.517	31.656	1628.975	1373.417
-3.502	31.728	1627.665	1372.789
-2.487	31.789	1625.923	1371.712
-1.473	31.540	1613.931	1359.729
-0.458	28.671	1594.406	1322.588
0.556	23.284	1594.604	1287.018
1.571	20.651	1618.628	1286.840
2.586	19.702	1630.949	1289.448
3.600	17.734	1576.937	1232.425
4.615	9.978	1464.280	1092.036
5.629	2.219	1397.974	992.263
6.644	0.587	1389.474	975.605
7.659	0.447	1388.585	973.988
8.673	0.519	1387.410	973.541
9.688	0.437	1385.479	971.571
10.702	0.271	1382.194	968.117
11.717	3.727	1388.241	994.541
12.731	11.872	1401.113	1056.417
13.746	16.876	1407.299	1093.342
14.761	17.178	1406.586	1094.636
15.775	16.431	1404.385	1088.017
16.790	15.429	1401.902	1079.557
17.804	14.680	1399.396	1072.719
18.819	14.299	1398.250	1069.300
19.834	14.027	1396.568	1066.180
20.848	13.700	1395.641	1063.277
21.863	13.474	1394.266	1060.687
22.877	13.389	1392.136	1058.428
23.892	13.219	1391.927	1057.089
24.907	13.274	1391.615	1057.114
25.921	13.288	1390.185	1056.023
26.936	13.329	1389.349	1055.552
27.950	13.460	1388.125	1055.368
28.965	13.419	1386.976	1054.136
29.980	13.433	1386.334	1053.648
30.994	13.383	1385.867	1052.882
32.009	13.522	1384.502	1052.635
33.023	13.558	1383.302	1051.860
34.038	13.502	1382.019	1050.435
35.053	13.469	1381.069	1049.406
36.067	13.479	1379.915	1048.502
37.082	13.331	1379.172	1046.910
38.096	13.414	1378.017	1046.461
39.111	13.491	1377.090	1046.153
40.126	13.337	1376.275	1044.468
41.140	13.311	1375.550	1043.665
42.155	13.252	1375.303	1043.011
43.169	13.269	1375.710	1043.335
44.184	13.175	1375.072	1042.164
45.199	13.356	1374.193	1042.546
46.213	13.219	1373.991	1041.438
47.228	13.299	1372.892	1041.019
48.242	13.499	1371.244	1040.932
49.257	13.375	1370.100	1039.196
50.271	13.446	1368.291	1038.175
51.286	13.361	1367.434	1036.899
52.301	13.305	1365.988	1035.360
53.315	13.373	1364.898	1034.872
54.330	13.331	1363.870	1033.734
55.344	13.344	1362.477	1032.671
56.359	13.332	1361.000	1031.382
57.374	13.295	1360.852	1030.948
58.388	13.236	1360.000	1029.845
59.403	13.228	1359.754	1029.520
60.417	13.269	1358.589	1028.802
61.432	13.226	1357.502	1027.621
62.447	13.237	1356.373	1026.742
63.461	13.240	1355.389	1025.926
64.476	13.129	1354.888	1024.766
65.490	13.131	1353.798	1023.864
66.505	13.219	1351.956	1022.924
67.520	13.325	1350.020	1022.024
68.534	13.296	1349.412	1021.292
69.549	13.251	1348.383	1020.147
70.563	13.208	1347.254	1018.937
71.578	13.142	1346.377	1017.779
72.593	13.121	1345.285	1016.735
73.607	13.125	1344.737	1016.252
74.622	13.135	1343.745	1015.476
75.636	13.109	1342.509	1014.290
76.651	13.144	1342.075	1014.089
77.666	13.140	1341.428	1013.488
78.680	13.171	1341.041	1013.296
79.695	13.117	1340.182	1012.227
80.709	13.118	1339.463	1011.598
81.724	13.221	1338.003	1011.037
82.739	13.295	1337.193	1010.785
83.753	13.258	1336.426	1009.888
84.768	13.416	1335.277	1009.899
85.782	13.394	1333.958	1008.680
86.797	13.445	1332.786	1008.011
87.812	13.294	1331.847	1006.295
88.826	13.346	1330.360	1005.399
89.841	13.279	1329.914	1004.565
90.855	13.420	1328.093	1003.956
91.870	13.403	1327.714	1003.475
92.884	13.410	1326.825	1002.757
93.899	13.444	1325.933	1002.204
94.914	13.571	1325.256	1002.369
95.928	13.536	1324.199	1001.269
96.943	13.437	1323.430	1000.000
97.957	13.483	1322.351	999.376
98.972	13.472	1321.100	998.275
99.987	13.472	1320.447	997.691
101.001	13.549	1318.948	996.936
102.016	13.498	1318.253	996.018
103.030	13.454	1317.259	994.913
104.045	13.422	1316.651	994.172
105.060	13.377	1315.922	993.262
106.074	13.304	1314.490	991.658
107.089	13.278	1312.530	989.934
108.103	13.339	1311.195	989.208
109.118	13.302	1310.196	988.143
110.133	13.301	1308.533	986.796
111.147	13.439	1307.226	986.544
112.162	13.282	1306.010	984.603
113.176	13.265	1305.690	984.176
114.191	13.396	1304.139	983.700
115.206	13.499	1302.931	983.311
116.220	13.380	1301.327	981.311
117.235	13.336	1300.575	980.392
118.249	13.376	1299.563	979.783
119.264	13.413	1298.375	979.018
120.279	13.310	1297.435	977.613
121.293	13.396	1295.707	976.733
122.308	13.349	1295.400	976.141
123.322	13.279	1294.509	974.967
124.337	13.300	1293.063	973.916
125.352	13.275	1292.281	973.097
126.366	13.318	1290.606	971.998
127.381	13.365	1289.596	971.428
128.395	13.190	1289.151	969.980
129.410	13.336	1287.568	969.559
130.424	13.220	1287.058	968.411
131.439	13.379	1285.938	968.411
132.454	13.434	1284.764	967.761
133.468	13.366	1284.023	966.720
134.483	13.421	1283.215	966.349
135.497	13.370	1282.066	965.101
136.512	13.396	1280.870	964.268
137.527	13.459	1279.312	963.377
138.541	13.317	1278.177	961.609
139.556	13.458	1276.367	960.982
140.570	13.415	1275.694	960.141
141.585	13.465	1274.477	959.432
142.600	13.483	1273.036	958.365
143.614	13.588	1271.897	958.030
144.629	13.569	1270.964	957.134
145.643	13.604	1269.739	956.327
146.658	13.478	1268.898	954.885
147.673	13.514	1267.245	953.762
148.687	13.466	1265.888	952.378
149.702	13.362	1265.161	951.150
150.716	13.340	1263.514	949.699
151.731	13.426	1262.388	949.262
152.746	13.528	1261.261	948.918
153.760	13.489	1259.934	947.614
154.775	13.520	1258.893	946.923
155.789	13.641	1257.733	946.658
156.804	13.649	1256.389	945.608
157.819	13.666	1255.324	944.820
158.833	13.711	1254.199	944.143
159.848	13.646	1254.024	943.559
160.862	13.693	1252.620	942.689
161.877	13.580	1251.839	941.372
162.892	13.695	1249.587	940.247
163.906	13.572	1249.323	939.268
164.921	13.561	1248.548	938.543
165.935	13.577	1247.492	937.754
166.950	13.698	1246.358	937.506
167.964	13.729	1245.788	937.166
168.979	13.655	1245.309	936.310
169.994	13.622	1244.597	935.505
171.008	13.648	1243.751	934.929
172.023	13.732	1242.756	934.574
173.037	13.734	1242.193	934.081
174.052	13.835	1240.699	933.438
175.067	13.694	1240.336	932.291
176.081	13.685	1239.087	931.218
177.096	13.714	1237.963	930.454
178.110	13.613	1237.499	929.457
179.125	13.711	1236.152	928.911
180.140	13.790	1234.590	928.097
181.154	13.739	1233.438	926.867
182.169	13.759	1232.018	925.830
183.183	13.875	1231.122	925.718
184.198	14.001	1229.666	925.247
185.213	13.822	1228.876	923.572
186.227	14.002	1227.089	923.149
187.242	13.931	1226.666	922.352
188.256	13.990	1225.497	921.720
189.271	13.994	1224.520	920.927
190.286	13.918	1223.497	919.657
191.300	13.829	1222.861	918.601
192.315	13.858	1222.197	918.184
193.329	13.849	1221.590	917.598
194.344	13.895	1221.047	917.361
195.359	13.947	1220.102	916.856
196.373	14.062	1219.467	916.934
197.388	13.922	1219.366	916.004
198.402	14.098	1218.696	916.388
199.417	14.134	1217.823	915.848
200.432	14.146	1216.898	915.139
201.446	14.275	1216.115	915.177
202.461	14.261	1215.174	914.315
203.475	14.188	1214.364	913.221
204.490	14.159	1213.108	912.039
205.504	14.059	1211.981	910.562
206.519	14.120	1210.444	909.658
207.534	14.067	1209.611	908.665
208.548	14.206	1208.650	908.620
209.563	14.194	1208.202	908.138
210.577	14.178	1206.885	906.980
211.592	14.283	1206.085	906.872
212.607	14.250	1204.919	905.735
213.621	14.193	1204.689	905.170
214.636	14.359	1203.499	905.100
215.650	14.337	1202.459	904.120
216.665	14.418	1200.966	903.354
217.680	14.463	1200.049	902.826
218.694	14.412	1199.476	902.041
219.709	14.480	1198.494	901.589
220.723	14.357	1197.899	900.396
221.738	14.338	1197.488	899.908
222.753	14.419	1196.333	899.396
223.767	14.395	1195.961	898.910
224.782	14.431	1195.093	898.371
225.796	14.499	1194.586	898.273
226.811	14.505	1193.981	897.776
227.826	14.451	1193.487	897.032
228.840	14.501	1192.587	896.544
229.855	14.459	1191.494	895.421
230.869	14.521	1190.290	894.768
231.884	14.496	1189.960	894.305
232.899	14.510	1189.055	893.622
233.913	14.496	1188.190	892.819
234.928	14.466	1187.709	892.218
235.942	14.470	1186.831	891.499
236.957	14.488	1185.898	890.814
237.972	14.570	1185.175	890.631
238.986	14.455	1184.568	889.483
240.001	14.473	1183.994	889.069
241.015	14.473	1182.772	888.072
242.030	14.597	1181.698	887.848
243.045	14.636	1181.046	887.486
244.059	14.652	1180.323	886.951
245.074	14.623	1179.233	885.900
246.088	14.548	1179.041	885.280
247.103	14.654	1178.325	885.225
248.117	14.651	1177.332	884.387
249.132	14.866	1176.170	884.573
250.147	14.848	1175.800	884.118
251.161	14.977	1174.740	883.926
252.176	14.862	1174.252	882.875
253.190	14.912	1173.922	882.813
254.205	14.910	1173.017	882.044
255.220	14.926	1172.669	881.786
256.234	14.796	1172.342	880.778
257.249	14.928	1171.548	880.798
258.263	15.018	1170.438	880.359
259.278	15.037	1169.569	879.726
260.293	15.114	1169.034	879.650
261.307	15.161	1168.379	879.329
262.322	14.976	1168.173	878.122
263.336	15.049	1167.744	878.105
264.351	15.147	1166.625	877.702
265.366	15.151	1165.997	877.174
266.380	15.208	1165.045	876.676
267.395	15.176	1164.482	876.006
268.409	15.068	1164.073	875.055
269.424	15.123	1163.249	874.648
270.439	15.162	1162.550	874.248
271.453	15.151	1161.632	873.423
272.468	15.115	1160.779	872.518
273.482	15.157	1160.151	872.185
274.497	15.152	1159.870	871.871
275.512	15.236	1158.787	871.418
276.526	15.189	1157.915	870.440
277.541	15.268	1157.154	870.199
278.555	15.325	1156.343	869.810
279.570	15.318	1155.821	869.304
280.585	15.300	1155.298	868.741
281.599	15.379	1154.166	868.220
282.614	15.324	1153.341	867.243
283.628	15.364	1151.933	866.309
284.643	15.398	1150.837	865.585
285.657	15.431	1150.091	865.118
286.672	15.398	1149.369	864.329
287.687	15.356	1148.380	863.293
288.701	15.404	1147.768	863.001
289.716	15.380	1147.258	862.418
290.730	15.467	1146.255	862.036
291.745	15.473	1145.172	861.174
292.760	15.414	1145.003	860.668
293.774	15.547	1143.962	860.495
294.789	15.611	1143.653	860.513
295.803	15.550	1143.013	859.642
296.818	15.625	1142.108	859.269
297.833	15.538	1141.420	858.233
298.847	15.491	1140.972	857.580
299.862	15.682	1139.242	857.177
300.876	15.640	1138.877	856.610
301.891	15.633	1138.456	856.185
302.906	15.705	1137.261	855.576
303.920	15.636	1137.221	855.117
304.935	15.651	1136.690	854.718
305.949	15.787	1135.561	854.488
306.964	15.723	1135.210	853.819
307.979	15.794	1134.403	853.497
308.993	15.745	1133.801	852.720
310.008	15.799	1132.562	851.986
311.022	15.859	1131.762	851.614
312.037	15.906	1130.872	851.106
313.052	15.836	1130.273	850.226
314.066	15.833	1129.251	849.369
315.081	15.740	1128.722	848.425
316.095	15.728	1127.879	847.659
317.110	15.671	1127.188	846.774
318.125	15.737	1126.412	846.452
319.139	15.864	1125.524	846.345
320.154	15.865	1124.618	845.593
321.168	15.759	1124.027	844.545
322.183	15.917	1123.287	844.704
323.197	15.808	1122.920	843.810
324.212	15.958	1122.107	843.874
325.227	15.813	1122.280	843.201
326.241	15.910	1120.998	842.650
327.256	15.872	1120.375	841.920
328.270	15.809	1119.597	840.942
329.285	15.897	1118.411	840.418
330.300	15.894	1117.559	839.690
331.314	15.866	1116.563	838.724
332.329	15.980	1115.633	838.518
333.343	15.952	1114.726	837.626
334.358	15.995	1113.932	837.168
335.373	15.994	1113.393	836.682
336.387	16.115	1112.381	836.450
337.402	16.087	1111.573	835.629
338.416	16.226	1110.878	835.724
339.431	16.174	1110.295	834.953
340.446	16.170	1109.994	834.630
341.460	16.168	1109.125	833.894
342.475	16.288	1108.184	833.705
343.489	16.270	1107.227	832.822
344.504	16.247	1106.635	832.189
345.519	16.198	1106.059	831.443
346.533	16.281	1104.753	830.797
347.548	16.427	1103.813	830.734
348.562	16.305	1103.361	829.721
349.577	16.300	1102.649	829.087
350.592	16.331	1101.970	828.655
351.606	16.374	1100.939	828.016
352.621	16.268	1100.194	826.862
353.635	16.324	1099.685	826.681
354.650	16.353	1098.987	826.229
355.665	16.297	1098.398	825.435
356.679	16.273	1097.927	824.894
357.694	16.382	1097.427	824.977
358.708	16.372	1096.505	824.164
359.723	16.434	1095.911	823.947
360.738	16.401	1095.203	823.179
361.752	16.377	1094.910	822.769
362.767	16.482	1093.799	822.373
363.781	16.412	1093.503	821.738
364.796	16.636	1092.482	821.982
365.810	16.502	1092.315	821.136
366.825	16.642	1091.538	821.156
367.840	16.650	1090.929	820.666
368.854	16.741	1090.399	820.634
369.869	16.746	1089.280	819.743
370.883	16.748	1088.716	819.257
371.898	16.687	1088.129	818.447
372.913	16.669	1087.762	818.011
373.927	16.662	1086.922	817.273
374.942	16.690	1086.342	816.904
375.956	16.732	1085.889	816.689
376.971	16.728	1085.227	816.100
377.986	16.675	1084.821	815.471
379.000	16.831	1083.915	815.467
380.015	16.898	1083.011	815.035
381.029	16.995	1082.312	814.907
382.044	16.853	1082.018	813.927
383.059	16.966	1081.265	813.832
384.073	17.002	1080.437	813.309
385.088	16.871	1079.670	812.031
386.102	16.934	1078.540	811.412
387.117	16.923	1077.758	810.700
388.132	17.030	1076.621	810.284
389.146	17.044	1076.114	809.896
390.161	16.836	1075.660	808.492
391.175	17.033	1074.698	808.636
392.190	16.979	1073.984	807.771
393.205	17.078	1073.283	807.641
394.219	16.993	1072.612	806.664
395.234	17.012	1071.488	805.838
396.248	16.987	1070.575	804.961
397.263	17.041	1069.469	804.313
398.278	16.940	1069.027	803.429
399.292	17.074	1068.169	803.348
400.307	16.872	1067.881	802.105
401.321	17.016	1067.162	802.176
402.336	17.118	1066.343	801.971
403.350	17.138	1065.263	801.183
404.365	17.032	1065.055	800.452
405.380	17.043	1064.153	799.757
406.394	17.073	1063.281	799.174
407.409	17.120	1062.769	798.940
408.423	17.215	1061.708	798.518
409.438	17.294	1060.947	798.244
410.453	17.284	1060.666	797.913
411.467	17.315	1059.890	797.408
412.482	17.293	1059.069	796.616
413.496	17.374	1058.559	796.539
414.511	17.205	1058.564	795.684
415.526	17.479	1057.226	795.887
416.540	17.478	1057.444	795.977
417.555	17.359	1056.565	794.690
418.569	17.405	1056.007	794.414
419.584	17.458	1055.402	794.137
420.599	17.479	1055.127	793.954
421.613	102.119	1322.429	1462.414
422.628	94.099	1361.377	1462.501
