DTS Sentinel unit serial number:	SN413079Multiplexer serial number:	ORYXHardware model number:	OX4-SRSoftware version number:	ORYX F/W v4.00 Oryx Data Collector v3.7.2.0data status	okinstallation	princeton_trtdifferential loss correction	single-endedforward channel	channel 2reverse channel	N/Adate	2019/09/19time	08:43:34forward acquisition time	60.00reverse acquisition time	0.00gamma	496.2192k internal	0.2353k external	0.2353temperature offset calibration	1.0003default loss term (dB/km)	0.3790temperature slope calibration	1.0000multiplexer offset coefficient	1.0000multiplexer slope coefficient	1.0000fibre end	0.00T internal ref (°C)	21.00T ext. ref 1 (°C)	0.58T ext. ref 2 (°C)	16.62length (m)	temperature (°C)	Stokes	anti-Stokes-747.200	-6.792	-0.101	0.069
-746.185	-92.371	-0.349	-0.098
-745.171	-145.234	0.143	0.013
-744.156	-188.777	0.249	-0.003
-743.142	-181.563	0.308	0.006
-742.127	79.903	-0.279	0.299
-741.112	800.000	-0.025	-0.075
-740.098	241.346	-0.134	0.224
-739.083	-200.000	0.041	-0.278
-738.069	-200.000	-0.048	0.293
-737.054	66.071	0.055	-0.055
-736.039	195.454	0.100	0.152
-735.025	-94.352	-0.173	-0.047
-734.010	-81.469	-0.187	-0.061
-732.996	-99.456	-0.284	-0.071
-731.981	24.579	0.319	0.263
-730.966	68.324	-0.209	0.214
-729.952	8.006	-0.150	0.112
-728.937	-86.204	0.123	-0.038
-727.923	-200.000	-0.004	-0.136
-726.908	50.764	0.147	-0.138
-725.894	250.527	-0.081	-0.137
-724.879	21.977	-0.213	0.173
-723.864	-86.492	-0.090	-0.028
-722.850	39.578	0.186	0.167
-721.835	712.886	0.112	0.297
-720.821	-200.000	0.028	-0.159
-719.806	800.000	0.025	-0.075
-718.791	-48.589	-0.268	0.128
-717.777	800.000	0.034	0.136
-716.762	-104.927	-0.044	0.010
-715.748	-106.739	-0.080	0.018
-714.733	88.933	0.342	-0.379
-713.718	-200.000	-0.008	-0.205
-712.704	-103.957	0.209	-0.048
-711.689	-113.866	0.460	-0.089
-710.675	394.012	0.078	0.162
-709.660	800.000	-0.072	-0.238
-708.645	-67.821	-0.060	-0.023
-707.631	-200.000	0.012	0.413
-706.616	164.968	0.243	-0.341
-705.602	-75.081	-0.148	0.053
-704.587	54.745	0.145	-0.140
-703.572	-46.798	0.417	0.203
-702.558	149.084	0.056	-0.075
-701.543	389.798	0.089	-0.184
-700.529	312.355	-0.045	-0.085
-699.514	-200.000	-0.012	0.120
-698.499	800.000	-0.097	0.333
-697.485	21.144	-0.174	-0.140
-696.470	800.000	-0.088	0.345
-695.456	218.492	0.110	0.176
-694.441	800.000	-0.071	0.257
-693.426	6.704	0.185	0.137
-692.412	340.078	-0.090	0.175
-691.397	251.877	0.120	0.203
-690.383	800.000	-0.116	0.427
-689.368	345.533	0.059	-0.115
-688.354	99.116	-0.177	-0.203
-687.339	-14.583	0.071	0.045
-686.324	-200.000	0.017	0.135
-685.310	277.796	0.115	-0.203
-684.295	-200.000	0.035	0.192
-683.281	229.024	0.117	-0.189
-682.266	-103.440	0.310	-0.072
-681.251	-146.157	-0.207	-0.018
-680.237	-152.257	0.411	0.030
-679.222	-200.000	0.015	0.084
-678.208	-200.000	-0.011	-0.189
-677.193	-200.000	0.006	0.248
-676.178	-133.420	-0.120	0.015
-675.164	-90.492	-0.335	0.097
-674.149	282.564	0.140	-0.249
-673.135	4.891	0.096	-0.070
-672.120	-109.141	0.232	-0.049
-671.105	29.826	0.241	0.204
-670.091	318.007	0.110	0.208
-669.076	800.000	-0.024	-0.083
-668.062	157.977	-0.199	-0.274
-667.047	746.989	-0.076	-0.203
-666.032	76.651	-0.072	-0.076
-665.018	-104.495	0.238	-0.055
-664.003	-140.562	0.006	0.001
-662.989	490.294	0.172	0.392
-661.974	-22.294	-0.299	0.180
-660.959	30.236	-0.127	-0.108
-659.945	-49.838	-0.203	-0.096
-658.930	35.820	0.183	-0.159
-657.916	-140.275	-0.157	0.016
-656.901	94.559	0.100	0.112
-655.886	800.000	-0.032	0.120
-654.872	221.093	-0.085	-0.136
-653.857	-200.000	0.014	-0.073
-652.843	-200.000	0.077	-0.376
-651.828	-196.521	-0.314	0.002
-650.814	-42.558	-0.374	0.189
-649.799	21.011	-0.136	0.110
-648.784	-41.562	0.257	-0.131
-647.770	126.558	0.131	-0.164
-646.755	8.074	0.350	0.261
-645.741	-200.000	0.030	0.285
-644.726	117.256	-0.036	0.044
-643.711	72.409	-0.018	-0.019
-642.697	-110.191	-0.231	0.048
-641.682	-26.459	-0.264	-0.153
-640.668	800.000	0.062	-0.238
-639.653	-93.052	0.065	0.018
-638.638	62.543	-0.130	0.129
-637.624	-52.920	-0.129	-0.059
-636.609	-162.853	-0.213	-0.010
-635.595	126.832	0.051	-0.064
-634.580	83.844	0.228	-0.248
-633.565	183.533	-0.038	-0.056
-632.551	-195.147	0.029	-0.000
-631.536	800.000	0.060	0.176
-630.522	-56.077	-0.116	-0.051
-629.507	55.400	-0.164	-0.157
-628.492	800.000	-0.146	-0.434
-627.478	70.324	-0.193	-0.198
-626.463	266.494	0.113	-0.196
-625.449	800.000	0.038	0.108
-624.434	560.933	0.040	-0.096
-623.419	-66.316	-0.137	-0.054
-622.405	35.567	-0.074	0.064
-621.390	-200.000	0.021	-0.201
-620.376	-200.000	0.074	-0.328
-619.361	-200.000	0.004	-0.109
-618.346	-158.963	0.065	0.004
-617.332	-49.077	-0.041	-0.019
-616.317	-76.485	-0.216	-0.075
-615.303	-200.000	-0.031	0.138
-614.288	6.500	-0.066	0.049
-613.273	33.804	0.201	-0.174
-612.259	-198.080	-0.163	-0.001
-611.244	-71.583	0.151	-0.056
-610.230	-80.243	0.507	0.168
-609.215	278.343	-0.039	-0.069
-608.201	-97.663	0.145	0.037
-607.186	-5.449	0.183	0.124
-606.171	-146.186	-0.387	-0.034
-605.157	-117.666	0.162	0.029
-604.142	37.152	0.152	-0.134
-603.128	-169.168	0.461	0.017
-602.113	800.000	-0.084	-0.303
-601.098	12.048	-0.104	0.079
-600.084	-200.000	-0.008	0.160
-599.069	-161.524	0.108	0.006
-598.055	-7.935	-0.082	-0.055
-597.040	-55.220	0.165	0.074
-596.025	160.012	-0.079	-0.109
-595.011	-28.695	-0.096	-0.055
-593.996	786.237	-0.114	-0.309
-592.982	29.748	0.063	-0.053
-591.967	-200.000	-0.008	0.147
-590.952	-39.673	0.071	0.037
-589.938	-200.000	-0.010	0.065
-588.923	-123.064	0.309	-0.049
-587.909	-200.000	0.096	-0.559
-586.894	26.808	0.090	0.074
-585.879	-80.102	0.172	0.057
-584.865	-123.899	0.259	0.041
-583.850	800.000	-0.040	-0.156
-582.836	-200.000	0.010	-0.183
-581.821	-70.470	-0.233	-0.088
-580.806	-98.434	0.290	0.073
-579.792	52.368	-0.265	0.251
-578.777	608.312	-0.154	-0.380
-577.763	79.892	0.186	-0.198
-576.748	-79.377	-0.408	-0.137
-575.733	-163.071	0.126	0.006
-574.719	13.391	0.186	0.143
-573.704	164.520	0.157	-0.219
-572.690	-123.631	-0.114	0.018
-571.675	-11.823	-0.304	-0.197
-570.661	-8.275	0.252	0.168
-569.646	617.722	0.024	-0.058
-568.631	-200.000	-0.027	-0.188
-567.617	11.291	0.368	-0.279
-566.602	-103.177	-0.371	0.087
-565.588	-45.404	0.170	0.083
-564.573	323.470	0.106	0.201
-563.558	-200.000	0.018	0.298
-562.544	107.784	-0.054	0.063
-561.529	117.664	-0.314	0.382
-560.515	800.000	0.075	0.208
-559.500	-151.290	0.051	0.004
-558.485	134.278	0.100	0.129
-557.471	-17.785	-0.383	-0.238
-556.456	-145.777	0.081	0.007
-555.442	156.735	-0.185	-0.252
-554.427	-194.438	0.389	-0.003
-553.412	800.000	0.058	0.207
-552.398	-96.963	-0.189	-0.049
-551.383	-200.000	0.028	-0.146
-550.369	-153.639	-0.207	0.014
-549.354	800.000	0.040	0.169
-548.339	-127.394	-0.245	0.035
-547.325	16.456	0.340	-0.266
-546.310	-200.000	-0.027	-0.342
-545.296	-46.514	-0.424	0.206
-544.281	-200.000	0.033	-0.184
-543.266	-112.965	-0.115	0.022
-542.252	-156.012	0.215	-0.013
-541.237	322.739	0.138	-0.260
-540.223	-80.283	0.369	0.122
-539.208	-75.023	-0.131	0.046
-538.193	-200.000	0.019	0.332
-537.179	-144.219	0.192	0.018
-536.164	-55.090	-0.297	0.132
-535.150	-85.768	0.230	0.071
-534.135	800.000	-0.045	-0.164
-533.121	-200.000	-0.011	0.254
-532.106	-200.000	-0.017	0.253
-531.091	310.527	-0.220	-0.408
-530.077	-33.629	0.147	0.080
-529.062	-20.265	0.106	0.064
-528.048	75.469	-0.093	-0.097
-527.033	-35.519	0.115	-0.062
-526.018	-166.299	-0.231	-0.010
-525.004	399.758	-0.148	-0.306
-523.989	-172.978	-0.344	-0.011
-522.975	800.000	0.085	0.245
-521.960	15.190	0.182	0.141
-520.945	-9.982	0.183	-0.120
-519.931	-98.298	0.210	0.053
-518.916	-41.841	-0.257	0.130
-517.902	261.297	-0.153	0.263
-516.887	-24.146	-0.242	0.143
-515.872	800.000	0.017	-0.071
-514.858	420.263	-0.097	0.206
-513.843	236.366	0.113	-0.185
-512.829	-200.000	-0.025	-0.177
-511.814	17.162	0.231	-0.181
-510.799	800.000	-0.105	0.333
-509.785	-200.000	-0.015	-0.287
-508.770	-146.442	0.206	0.018
-507.756	-41.925	-0.249	0.126
-506.741	-200.000	-0.021	0.163
-505.726	800.000	-0.019	-0.066
-504.712	197.429	0.103	-0.155
-503.697	112.860	-0.153	-0.183
-502.683	178.267	-0.083	0.119
-501.668	-200.000	0.025	0.220
-500.653	87.986	0.233	0.256
-499.639	541.057	-0.027	0.064
-498.624	-200.000	0.012	0.081
-497.610	303.298	-0.096	0.176
-496.595	-46.704	0.070	0.034
-495.581	409.458	-0.072	0.150
-494.566	-65.926	0.105	-0.042
-493.551	800.000	-0.056	0.173
-492.537	-28.262	-0.061	-0.035
-491.522	-200.000	-0.017	-0.290
-490.508	800.000	-0.003	0.014
-489.493	-113.041	-0.210	-0.041
-488.478	55.522	0.104	0.100
-487.464	-114.735	-0.103	-0.019
-486.449	609.332	-0.139	-0.343
-485.435	-116.109	-0.269	0.049
-484.420	-92.288	-0.161	0.045
-483.405	288.360	-0.058	0.103
-482.391	0.410	0.137	0.097
-481.376	-200.000	-0.005	-0.146
-480.362	800.000	0.051	-0.214
-479.347	-163.820	0.519	-0.024
-478.332	-64.720	-0.474	0.190
-477.318	54.622	0.166	0.158
-476.303	-30.002	0.327	0.184
-475.289	76.833	-0.329	0.344
-474.274	-59.955	0.194	0.082
-473.259	442.807	0.095	0.206
-472.245	-139.974	0.233	0.024
-471.230	-93.375	-0.162	-0.044
-470.216	-70.185	0.114	-0.043
-469.201	-26.674	-0.112	-0.065
-468.186	120.736	-0.042	-0.052
-467.172	-35.680	-0.209	-0.112
-466.157	172.236	0.087	0.124
-465.143	74.548	0.130	0.135
-464.128	-95.947	-0.145	0.038
-463.113	-187.630	-0.214	-0.003
-462.099	680.489	0.063	-0.161
-461.084	108.205	-0.138	0.162
-460.070	-200.000	-0.015	-0.104
-459.055	-58.966	0.117	0.050
-458.040	-64.822	0.248	0.099
-457.026	-200.000	-0.002	-0.148
-456.011	87.210	0.131	0.143
-454.997	538.411	-0.035	-0.082
-453.982	-200.000	0.061	-0.282
-452.968	34.736	0.146	-0.126
-451.953	-32.729	-0.256	0.140
-450.938	29.966	0.270	0.227
-449.924	637.238	0.084	0.211
-448.909	-7.432	-0.043	-0.029
-447.895	800.000	0.060	-0.190
-446.880	-200.000	0.003	-0.188
-445.865	800.000	-0.101	-0.350
-444.851	-67.974	0.091	0.035
-443.836	242.335	-0.178	-0.293
-442.822	-150.416	0.304	0.023
-441.807	-200.000	0.071	-0.348
-440.792	10.719	-0.095	0.072
-439.778	-200.000	0.020	0.390
-438.763	304.548	-0.140	-0.257
-437.749	-200.000	-0.006	0.067
-436.734	-175.774	0.125	0.003
-435.719	46.038	0.128	0.117
-434.705	-200.000	0.014	0.215
-433.690	800.000	0.023	-0.087
-432.676	-38.802	0.260	-0.135
-431.661	608.341	0.080	0.197
-430.646	-21.170	0.146	-0.088
-429.632	-161.785	-0.108	-0.005
-428.617	-82.188	-0.156	0.050
-427.603	-181.437	0.134	-0.003
-426.588	3.347	0.269	-0.193
-425.573	-123.772	-0.333	-0.052
-424.559	-32.740	0.218	-0.119
-423.544	800.000	0.097	0.352
-422.530	-200.000	0.010	-0.227
-421.515	-9.613	-0.189	-0.124
-420.500	-106.576	-0.208	0.046
-419.486	-188.134	0.054	0.001
-418.471	63.379	0.216	0.213
-417.457	107.835	0.134	0.157
-416.442	-200.000	-0.003	-0.046
-415.428	800.000	-0.085	0.281
-414.413	-169.790	-0.631	-0.022
-413.398	420.950	-0.023	-0.048
-412.384	-29.723	-0.074	-0.041
-411.369	-200.000	0.018	0.243
-410.355	-200.000	0.004	0.130
-409.340	-29.233	-0.155	-0.087
-408.325	-100.844	-0.097	0.023
-407.311	-38.679	0.398	0.207
-406.296	108.092	-0.083	-0.097
-405.282	53.377	0.157	-0.149
-404.267	135.559	0.102	0.131
-403.252	216.950	-0.124	0.194
-402.238	-13.804	0.233	0.148
-401.223	291.170	-0.134	0.239
-400.209	55.075	0.148	0.141
-399.194	45.368	0.045	-0.041
-398.179	363.086	0.033	-0.065
-397.165	-173.969	-0.294	-0.009
-396.150	74.577	0.183	0.190
-395.136	-200.000	-0.040	0.196
-394.121	-17.290	0.130	-0.081
-393.106	800.000	0.141	0.444
-392.092	37.761	-0.231	-0.201
-391.077	120.852	-0.069	-0.084
-390.063	53.759	0.244	0.230
-389.048	222.410	-0.113	0.180
-388.033	234.120	0.096	-0.155
-387.019	800.000	0.067	-0.247
-386.004	-200.000	0.032	-0.196
-384.990	-83.846	0.231	0.072
-383.975	-108.478	-0.351	-0.074
-382.960	-200.000	-0.004	0.093
-381.946	170.462	-0.056	-0.079
-380.931	220.807	0.091	0.144
-379.917	-29.106	0.230	-0.130
-378.902	188.168	0.232	0.341
-377.888	-74.946	-0.175	0.062
-376.873	19.986	-0.071	-0.057
-375.858	402.684	-0.009	-0.018
-374.844	-200.000	-0.041	-0.189
-373.829	-124.086	-0.117	-0.018
-372.815	-37.793	0.188	-0.099
-371.800	-108.082	-0.147	-0.031
-370.785	-99.262	0.029	0.007
-369.771	53.978	-0.156	0.147
-368.756	316.050	-0.131	0.242
-367.742	800.000	0.083	-0.291
-366.727	800.000	0.014	-0.044
-365.712	-11.666	-0.274	0.177
-364.698	133.871	0.129	-0.164
-363.683	-30.875	0.108	-0.060
-362.669	-124.462	-0.302	-0.046
-361.654	-200.000	0.002	-0.041
-360.639	-138.905	-0.101	0.011
-359.625	-119.880	0.210	0.035
-358.610	-69.346	-0.219	-0.083
-357.596	800.000	-0.142	-0.388
-356.581	-75.557	0.177	0.062
-355.566	-39.538	0.083	-0.043
-354.552	-85.847	0.352	-0.107
-353.537	55.453	0.185	-0.176
-352.523	-66.315	-0.292	0.114
-351.508	800.000	0.059	-0.191
-350.493	-79.657	0.293	-0.097
-349.479	-126.347	0.254	-0.037
-348.464	-97.647	0.332	0.084
-347.450	54.399	-0.310	-0.293
-346.435	235.486	0.153	0.248
-345.420	153.784	0.189	-0.255
-344.406	-22.440	-0.161	-0.096
-343.391	-94.064	-0.174	0.047
-342.377	328.885	0.184	-0.346
-341.362	-200.000	0.048	-0.226
-340.348	-72.712	-0.422	0.153
-339.333	-200.000	0.033	-0.384
-338.318	-178.985	0.165	0.004
-337.304	146.261	0.128	-0.169
-336.289	5.702	-0.248	-0.180
-335.275	779.077	-0.093	-0.250
-334.260	165.128	-0.083	0.115
-333.245	-131.628	-0.277	0.036
-332.231	-33.887	-0.146	-0.079
-331.216	394.606	0.078	-0.160
-330.202	-33.635	0.279	0.151
-329.187	533.264	0.190	-0.441
-328.172	414.475	0.042	-0.088
-327.158	54.445	-0.314	0.297
-326.143	93.038	0.123	0.136
-325.129	-149.275	-0.163	-0.013
-324.114	103.674	-0.282	0.324
-323.099	800.000	0.112	0.404
-322.085	425.777	0.059	-0.125
-321.070	-161.231	-0.120	0.006
-320.056	47.137	0.187	-0.171
-319.041	-44.161	0.274	0.135
-318.026	-20.547	-0.232	-0.140
-317.012	-148.835	0.211	-0.017
-315.997	468.116	0.090	0.198
-314.983	800.000	0.018	0.056
-313.968	641.928	-0.021	0.053
-312.953	154.988	0.014	0.019
-311.939	207.929	0.147	0.225
-310.924	-41.707	0.040	0.020
-309.910	-200.000	0.005	0.079
-308.895	313.970	-0.163	0.301
-307.880	412.496	0.118	-0.246
-306.866	68.125	0.026	0.027
-305.851	584.364	0.028	-0.067
-304.837	-124.715	0.214	0.033
-303.822	24.926	0.130	-0.106
-302.807	99.560	0.176	0.200
-301.793	-97.712	-0.330	0.084
-300.778	-200.000	0.004	-0.211
-299.764	-118.156	-0.324	0.057
-298.749	-22.344	0.216	0.128
-297.735	-188.293	-0.340	-0.004
-296.720	599.750	0.072	0.175
-295.705	-200.000	-0.040	0.331
-294.691	-85.315	0.131	-0.040
-293.676	35.039	0.056	-0.048
-292.662	-132.309	0.089	0.011
-291.647	-95.712	0.168	-0.044
-290.632	135.434	-0.081	-0.104
-289.618	-101.480	0.232	0.055
-288.603	103.043	0.130	-0.149
-287.589	-140.700	-0.301	0.030
-286.574	20.546	-0.049	0.039
-285.559	119.789	0.079	0.096
-284.545	-77.264	-0.388	0.132
-283.530	352.253	-0.083	-0.162
-282.516	465.762	-0.095	0.209
-281.501	800.000	-0.075	-0.254
-280.486	-114.200	0.238	-0.045
-279.472	39.064	-0.231	0.202
-278.457	-34.006	0.182	0.098
-277.443	301.402	0.160	-0.290
-276.428	-200.000	-0.073	0.349
-275.413	133.960	-0.188	0.238
-274.399	-200.000	0.013	0.054
-273.384	10.839	0.314	-0.235
-272.370	86.071	0.196	0.211
-271.355	175.124	0.089	-0.127
-270.340	800.000	0.056	-0.234
-269.326	212.113	0.014	0.022
-268.311	-55.238	0.290	-0.128
-267.297	-81.689	-0.068	0.022
-266.282	54.278	0.303	0.286
-265.267	-200.000	-0.020	0.251
-264.253	640.960	0.091	-0.226
-263.238	-21.374	0.152	0.091
-262.224	-200.000	0.006	0.202
-261.209	202.613	0.035	0.053
-260.195	-107.582	-0.438	-0.094
-259.180	-200.000	0.037	0.289
-258.165	-200.000	-0.009	0.088
-257.151	-129.976	0.298	-0.040
-256.136	-130.404	-0.140	0.019
-255.122	-47.498	-0.377	0.179
-254.107	-200.000	-0.006	-0.041
-253.092	-200.000	-0.037	0.242
-252.078	-89.651	-0.392	0.112
-251.063	72.444	-0.175	-0.178
-250.049	-12.625	0.042	0.027
-249.034	106.976	-0.131	0.153
-248.019	-84.975	0.381	0.117
-247.005	800.000	0.050	0.161
-245.990	47.770	-0.128	0.117
-244.976	-25.512	0.131	-0.076
-243.961	-200.000	0.002	0.050
-242.946	-92.460	0.389	0.107
-241.932	512.344	0.185	0.422
-240.917	208.648	-0.058	0.089
-239.903	-103.063	-0.108	0.025
-238.888	128.047	0.123	-0.153
-237.873	-115.170	0.246	-0.045
-236.859	141.345	-0.092	-0.120
-235.844	-200.000	0.011	0.106
-234.830	-154.964	-0.183	-0.012
-233.815	498.884	-0.151	-0.340
-232.800	-200.000	0.011	-0.250
-231.786	-169.414	-0.430	-0.015
-230.771	129.172	-0.056	-0.070
-229.757	800.000	-0.048	0.156
-228.742	-200.000	0.039	0.229
-227.727	131.237	0.168	-0.211
-226.713	-0.499	-0.286	-0.198
-225.698	99.774	-0.240	0.271
-224.684	800.000	0.034	0.133
-223.669	-200.000	-0.033	-0.204
-222.655	70.607	0.219	-0.221
-221.640	102.260	0.322	0.368
-220.625	-64.393	-0.178	0.071
-219.611	144.688	-0.066	-0.086
-218.596	800.000	0.045	-0.186
-217.582	649.958	0.137	0.342
-216.567	74.901	-0.265	-0.272
-215.552	-61.832	0.256	0.105
-214.538	42.962	0.197	-0.175
-213.523	-168.896	0.260	0.010
-212.509	429.373	-0.137	-0.289
-211.494	9.973	-0.170	0.126
-210.479	-31.978	-0.282	0.154
-209.465	-181.526	-0.118	0.002
-208.450	317.862	-0.126	0.232
-207.436	600.783	-0.039	0.095
-206.421	-121.083	0.446	0.073
-205.406	125.630	0.040	-0.049
-204.392	-200.000	-0.011	0.442
-203.377	-147.517	-0.211	0.017
-202.363	-124.693	-0.291	0.044
-201.348	365.648	0.054	0.106
-200.333	-65.579	-0.073	-0.029
-199.319	-136.299	-0.414	0.047
-198.304	70.847	-0.139	-0.141
-197.290	-112.068	-0.496	0.097
-196.275	-144.509	0.200	0.018
-195.260	-200.000	-0.023	-0.246
-194.246	619.604	-0.025	-0.061
-193.231	-69.180	-0.348	0.131
-192.217	129.330	0.155	0.193
-191.202	-97.082	-0.203	-0.052
-190.187	800.000	0.057	-0.188
-189.173	271.096	-0.145	-0.249
-188.158	-18.943	0.213	-0.129
-187.144	81.136	0.149	0.156
-186.129	-137.222	-0.073	-0.008
-185.114	-43.096	0.029	0.015
-184.100	116.731	0.242	-0.290
-183.085	157.850	-0.162	-0.219
-182.071	-200.000	-0.039	-0.189
-181.056	44.033	-0.206	0.184
-180.042	-75.918	-0.192	0.066
-179.027	451.299	-0.037	-0.081
-178.012	-200.000	0.059	0.302
-176.998	-0.340	0.118	-0.082
-175.983	5.999	-0.051	-0.037
-174.969	573.868	-0.105	-0.249
-173.954	800.000	0.114	0.392
-172.939	800.000	0.022	-0.066
-171.925	800.000	-0.083	-0.255
-170.910	0.003	0.231	0.161
-169.896	-163.556	0.069	-0.003
-168.881	191.669	0.155	-0.228
-167.866	-89.823	0.421	-0.120
-166.852	22.701	0.075	0.060
-165.837	800.000	-0.111	-0.371
-164.823	-123.074	-0.237	0.037
-163.808	800.000	0.092	-0.258
-162.793	-200.000	0.030	-0.153
-161.779	46.156	-0.109	0.099
-160.764	18.561	-0.189	0.147
-159.750	534.976	-0.088	0.203
-158.735	-148.330	-0.135	-0.011
-157.720	-115.986	-0.046	0.008
-156.706	800.000	0.058	0.166
-155.691	173.240	0.026	0.036
-154.677	-200.000	0.029	-0.285
-153.662	-95.811	-0.212	0.055
-152.647	-179.092	-0.135	-0.003
-151.633	71.506	-0.142	0.144
-150.618	74.832	-0.106	-0.109
-149.604	-200.000	-0.027	0.348
-148.589	-54.219	-0.187	0.083
-147.574	-200.000	-0.055	0.505
-146.560	-36.027	-0.215	0.113
-145.545	800.000	-0.046	-0.130
-144.531	-70.037	0.304	-0.113
-143.516	299.793	0.030	0.054
-142.502	-103.055	-0.378	-0.087
-141.487	12.259	0.342	0.256
-140.472	-70.305	0.357	0.132
-139.458	-145.638	0.219	-0.019
-138.443	578.481	-0.145	0.346
-137.429	-29.310	0.047	0.026
-136.414	-200.000	-0.001	0.194
-135.399	800.000	0.049	-0.174
-134.385	194.931	0.074	-0.109
-133.370	800.000	-0.086	-0.237
-132.356	89.166	-0.094	-0.102
-131.341	-200.000	-0.005	0.131
-130.326	49.800	0.339	0.311
-129.312	-200.000	-0.011	-0.211
-128.297	-98.925	0.129	0.032
-127.283	411.173	0.132	-0.272
-126.268	800.000	-0.055	-0.164
-125.253	145.525	0.103	0.134
-124.239	758.032	0.091	0.239
-123.224	-49.478	-0.148	-0.069
-122.210	-85.840	-0.390	0.117
-121.195	114.468	0.044	-0.052
-120.180	258.879	0.110	-0.184
-119.166	-74.908	0.152	-0.053
-118.151	-156.147	-0.020	0.001
-117.137	-48.237	0.155	-0.073
-116.122	0.554	0.293	0.204
-115.107	139.975	-0.269	-0.345
-114.093	-21.179	-0.105	-0.062
-113.078	-102.544	-0.098	0.023
-112.064	-200.000	-0.048	0.240
-111.049	421.253	0.043	-0.091
-110.034	-119.460	-0.339	-0.057
-109.020	-48.320	0.142	-0.067
-108.005	215.156	0.271	0.418
-106.991	176.707	-0.138	-0.194
-105.976	-26.086	0.051	0.029
-104.962	249.550	0.149	-0.245
-103.947	-7.304	-0.080	-0.053
-102.932	-200.000	-0.011	0.421
-101.918	7.972	0.360	-0.263
-100.903	299.694	-0.099	-0.178
-99.889	108.756	0.010	0.011
-98.874	-135.223	0.131	-0.015
-97.859	53.043	-0.129	0.120
-96.845	-137.126	-0.129	0.014
-95.830	51.788	-0.095	0.088
-94.816	800.000	-0.028	0.080
-93.801	76.229	-0.108	-0.112
-92.786	-26.525	0.150	-0.085
-91.772	-141.517	0.185	-0.018
-90.757	-1.215	0.298	-0.205
-89.743	495.273	-0.043	0.096
-88.728	10.556	0.164	-0.122
-87.713	800.000	0.074	0.292
-86.699	800.000	0.012	0.048
-85.684	-200.000	0.027	-0.258
-84.670	-200.000	-0.033	-0.164
-83.655	-106.023	-0.364	-0.080
-82.640	162.773	-0.289	-0.395
-81.626	-18.958	0.097	-0.058
-80.611	-62.802	-0.330	0.133
-79.597	-105.674	-0.272	-0.060
-78.582	-33.501	-0.060	-0.032
-77.567	12.349	0.141	-0.105
-76.553	410.577	-0.091	-0.187
-75.538	81.280	0.076	-0.079
-74.524	-200.000	-0.271	0.000
-73.509	800.000	0.110	-0.432
-72.494	800.000	-0.068	0.207
-71.480	-15.528	-0.085	0.053
-70.465	-9.157	-0.255	-0.166
-69.451	518.554	-0.034	-0.076
-68.436	-200.000	-0.037	-0.391
-67.422	-89.292	-0.057	0.016
-66.407	800.000	0.098	-0.275
-65.392	167.680	0.249	0.344
-64.378	26.481	0.197	0.160
-63.363	68.005	0.130	-0.129
-62.349	800.000	-0.073	0.198
-61.334	42.673	-1.368	-1.209
-60.319	70.445	0.818	0.821
-59.305	693.869	-0.605	-1.542
-58.290	275.556	0.865	1.489
-57.276	800.000	0.517	1.685
-56.261	-200.000	133.773	668.255
-55.246	331.580	1680.850	3146.643
-54.232	131.371	2836.498	3537.590
-53.217	82.964	2330.764	2460.307
-52.203	30.018	1921.272	1589.929
-51.188	23.987	1712.366	1370.688
-50.173	21.965	1674.322	1324.935
-49.159	43.959	1749.165	1555.316
-48.144	41.212	1758.106	1541.973
-47.130	23.588	1706.979	1363.096
-46.115	20.978	1692.367	1331.468
-45.100	20.890	1687.186	1326.670
-44.086	20.949	1683.870	1324.458
-43.071	20.928	1681.359	1322.271
-42.057	20.747	1679.497	1319.386
-41.042	20.870	1677.485	1318.686
-40.027	20.909	1675.186	1317.117
-39.013	20.861	1673.591	1315.447
-37.998	20.798	1672.149	1313.790
-36.984	20.859	1671.029	1313.318
-35.969	20.987	1669.206	1312.792
-34.954	20.934	1667.914	1311.328
-33.940	20.907	1666.298	1309.803
-32.925	20.964	1664.202	1308.535
-31.911	20.939	1662.448	1306.910
-30.896	20.885	1661.392	1305.625
-29.881	20.975	1659.628	1304.864
-28.867	20.932	1657.993	1303.200
-27.852	21.015	1656.252	1302.405
-26.838	21.011	1655.183	1301.477
-25.823	21.064	1653.833	1300.761
-24.809	21.036	1652.783	1299.672
-23.794	21.134	1651.376	1299.244
-22.779	21.076	1649.532	1297.313
-21.765	21.087	1647.471	1295.723
-20.750	20.952	1646.155	1293.639
-19.736	21.036	1645.079	1293.359
-18.721	21.147	1643.248	1292.693
-17.706	20.986	1641.928	1290.409
-16.692	21.022	1640.514	1289.512
-15.677	21.006	1639.430	1288.491
-14.663	21.082	1638.027	1287.899
-13.648	21.103	1636.546	1286.839
-12.633	20.999	1634.849	1284.688
-11.619	21.059	1632.936	1283.574
-10.604	21.074	1631.322	1282.368
-9.590	21.024	1630.609	1281.389
-8.575	21.133	1628.948	1280.833
-7.560	21.054	1628.470	1279.826
-6.546	21.038	1627.085	1278.565
-5.531	21.065	1626.231	1278.044
-4.517	21.024	1624.631	1276.440
-3.502	20.958	1623.529	1275.041
-2.487	21.101	1621.628	1274.539
-1.473	20.879	1610.009	1263.743
-0.458	18.302	1591.882	1230.962
0.556	13.878	1594.933	1202.800
1.571	11.980	1619.588	1207.316
2.586	11.827	1631.609	1215.033
3.600	11.159	1576.017	1168.737
4.615	6.299	1469.019	1056.724
5.629	1.507	1411.183	984.068
6.644	0.623	1404.981	973.959
7.659	0.597	1403.631	972.772
8.673	0.581	1402.798	972.004
9.688	0.518	1400.574	969.972
10.702	0.439	1396.377	966.470
11.717	2.756	1400.294	983.971
12.731	9.015	1408.968	1030.270
13.746	14.793	1417.720	1073.814
14.761	16.917	1420.477	1089.469
15.775	16.424	1419.157	1085.191
16.790	15.550	1416.218	1077.251
17.804	14.803	1413.745	1070.490
18.819	14.343	1412.391	1066.422
19.834	14.177	1411.472	1064.575
20.848	13.922	1410.108	1061.822
21.863	13.680	1408.528	1058.992
22.877	13.458	1407.887	1056.995
23.892	13.535	1406.159	1056.095
24.907	13.426	1406.064	1055.237
25.921	13.466	1404.672	1054.354
26.936	13.434	1403.971	1053.529
27.950	13.463	1403.235	1053.069
28.965	13.589	1402.109	1052.934
29.980	13.665	1400.548	1052.149
30.994	13.778	1399.724	1052.153
32.009	13.573	1399.028	1050.238
33.023	13.684	1397.473	1049.683
34.038	13.760	1396.278	1049.169
35.053	13.651	1395.286	1047.647
36.067	13.614	1394.334	1046.600
37.082	13.568	1393.471	1045.573
38.096	13.740	1392.084	1045.525
39.111	13.597	1391.704	1044.246
40.126	13.570	1391.008	1043.459
41.140	13.509	1390.006	1042.229
42.155	13.488	1389.558	1041.669
43.169	13.485	1389.896	1041.811
44.184	13.521	1389.010	1041.286
45.199	13.409	1389.332	1040.731
46.213	13.525	1387.844	1040.249
47.228	13.572	1386.980	1039.805
48.242	13.633	1385.332	1038.862
49.257	13.597	1383.792	1037.388
50.271	13.594	1382.520	1036.325
51.286	13.523	1381.708	1035.181
52.301	13.560	1380.175	1034.169
53.315	13.577	1379.555	1033.720
54.330	13.551	1378.357	1032.569
55.344	13.477	1376.851	1030.891
56.359	13.567	1375.929	1030.670
57.374	13.546	1375.160	1029.872
58.388	13.450	1374.478	1028.673
59.403	13.437	1373.987	1028.136
60.417	13.342	1373.130	1026.811
61.432	13.462	1372.297	1026.841
62.447	13.398	1371.119	1025.473
63.461	13.370	1369.975	1024.354
64.476	13.354	1368.797	1023.281
65.490	13.403	1367.582	1022.587
66.505	13.383	1366.152	1021.306
67.520	13.427	1364.847	1020.505
68.534	13.455	1363.861	1019.857
69.549	13.492	1362.396	1018.895
70.563	13.453	1361.279	1017.730
71.578	13.540	1359.918	1017.155
72.593	13.332	1359.308	1015.336
73.607	13.362	1358.347	1014.711
74.622	13.373	1357.680	1014.189
75.636	13.353	1357.229	1013.639
76.651	13.257	1356.388	1012.336
77.666	13.332	1355.535	1012.065
78.680	13.377	1355.120	1011.943
79.695	13.383	1354.334	1011.302
80.709	13.412	1353.616	1010.855
81.724	13.470	1352.727	1010.456
82.739	13.504	1351.368	1009.561
83.753	13.449	1350.689	1008.629
84.768	13.627	1349.634	1008.835
85.782	13.533	1348.540	1007.354
86.797	13.539	1346.716	1005.940
87.812	13.519	1345.745	1005.006
88.826	13.552	1344.360	1004.080
89.841	13.547	1343.723	1003.487
90.855	13.535	1342.514	1002.422
91.870	13.602	1341.583	1002.040
92.884	13.645	1340.504	1001.409
93.899	13.604	1339.667	1000.450
94.914	13.551	1339.412	999.845
95.928	13.671	1338.244	999.610
96.943	13.669	1337.147	998.693
97.957	13.625	1336.691	997.994
98.972	13.627	1335.239	996.837
99.987	13.576	1334.773	996.092
101.001	13.594	1333.722	995.332
102.016	13.626	1332.360	994.417
103.030	13.617	1331.391	993.550
104.045	13.668	1330.660	993.222
105.060	13.641	1329.546	992.140
106.074	13.645	1328.051	990.965
107.089	13.617	1326.607	989.634
108.103	13.490	1325.595	988.028
109.118	13.579	1324.220	987.447
110.133	13.547	1322.824	986.131
111.147	13.545	1321.081	984.732
112.162	13.626	1319.798	984.171
113.176	13.596	1319.102	983.383
114.191	13.587	1318.126	982.520
115.206	13.556	1317.001	981.406
116.220	13.656	1315.295	980.644
117.235	13.558	1314.184	979.146
118.249	13.526	1313.685	978.498
119.264	13.614	1312.425	977.994
120.279	13.517	1311.437	976.600
121.293	13.574	1310.023	975.793
122.308	13.550	1309.215	974.968
123.322	13.553	1308.422	974.306
124.337	13.475	1307.436	973.026
125.352	13.564	1305.791	972.239
126.366	13.462	1305.100	971.042
127.381	13.626	1303.333	970.600
128.395	13.497	1302.406	969.074
129.410	13.633	1301.289	968.949
130.424	13.571	1300.578	967.973
131.439	13.550	1299.849	967.220
132.454	13.576	1298.624	966.378
133.468	13.633	1297.580	965.846
134.483	13.669	1296.749	965.351
135.497	13.631	1295.803	964.339
136.512	13.607	1294.707	963.297
137.527	13.606	1293.082	961.999
138.541	13.496	1291.794	960.316
139.556	13.509	1291.131	959.816
140.570	13.656	1289.653	959.481
141.585	13.764	1287.955	958.757
142.600	13.767	1286.934	957.930
143.614	13.694	1286.266	956.927
144.629	13.788	1284.865	956.345
145.643	13.734	1283.931	955.252
146.658	13.850	1282.651	954.885
147.673	13.678	1281.763	953.150
148.687	13.657	1280.397	951.925
149.702	13.749	1278.502	950.962
150.716	13.614	1277.628	949.455
151.731	13.706	1276.322	948.926
152.746	13.775	1275.385	948.541
153.760	13.930	1273.546	947.974
154.775	13.729	1273.066	946.388
155.789	13.825	1271.971	946.033
156.804	13.790	1270.575	944.712
157.819	13.807	1269.691	944.068
158.833	13.897	1268.494	943.607
159.848	13.869	1267.843	942.881
160.862	14.027	1266.571	942.749
161.877	13.938	1265.432	941.315
162.892	13.972	1263.869	940.260
163.906	13.868	1263.354	939.202
164.921	13.843	1262.523	938.363
165.935	13.853	1261.500	937.577
166.950	13.869	1261.130	937.308
167.964	13.993	1259.714	936.872
168.979	13.908	1259.778	936.358
169.994	13.917	1258.522	935.393
171.008	13.927	1257.715	934.766
172.023	13.978	1257.138	934.540
173.037	13.980	1256.336	933.873
174.052	14.014	1255.073	933.044
175.067	14.093	1253.981	932.590
176.081	13.993	1252.935	931.168
177.096	13.990	1252.573	930.804
178.110	14.036	1251.170	929.934
179.125	14.007	1249.983	928.808
180.140	14.114	1248.166	927.970
181.154	14.086	1247.191	927.009
182.169	14.133	1246.043	926.333
183.183	14.003	1245.313	924.986
184.198	14.128	1243.421	924.193
185.213	14.149	1242.509	923.553
186.227	14.212	1241.532	923.096
187.242	14.199	1240.561	922.218
188.256	14.079	1239.974	921.034
189.271	14.269	1238.424	920.851
190.286	14.202	1237.383	919.627
191.300	14.074	1236.747	918.369
192.315	14.074	1236.178	917.863
193.329	14.217	1235.081	917.756
194.344	14.116	1234.543	916.720
195.359	14.202	1233.812	916.569
196.373	14.099	1234.126	916.155
197.388	14.125	1233.213	915.535
198.402	14.237	1232.677	915.675
199.417	14.281	1231.599	915.036
200.432	14.349	1230.679	914.644
201.446	14.296	1230.068	913.815
202.461	14.423	1228.790	913.484
203.475	14.486	1228.144	913.267
204.490	14.430	1226.736	911.836
205.504	14.467	1225.150	910.775
206.519	14.443	1224.333	909.959
207.534	14.394	1223.283	908.831
208.548	14.468	1221.856	908.090
209.563	14.431	1221.465	907.518
210.577	14.452	1220.305	906.691
211.592	14.488	1219.570	906.262
212.607	14.535	1218.509	905.649
213.621	14.555	1217.674	905.055
214.636	14.496	1217.105	904.230
215.650	14.591	1216.130	903.944
216.665	14.667	1214.681	903.196
217.680	14.666	1213.810	902.463
218.694	14.689	1212.883	901.818
219.709	14.805	1212.231	901.880
220.723	14.689	1211.508	900.635
221.738	14.709	1211.034	900.312
222.753	14.702	1209.881	899.339
223.767	14.653	1209.563	898.760
224.782	14.776	1208.896	898.847
225.796	14.809	1208.249	898.462
226.811	14.824	1207.579	897.963
227.826	14.760	1206.811	896.968
228.840	14.741	1205.804	896.043
229.855	14.743	1205.293	895.591
230.869	14.804	1204.153	894.994
231.884	14.745	1203.810	894.344
232.899	14.844	1202.628	893.912
233.913	14.720	1201.853	892.598
234.928	14.814	1200.958	892.358
235.942	14.740	1200.783	891.748
236.957	14.679	1199.725	890.563
237.972	14.717	1199.152	890.257
238.986	14.745	1198.553	889.884
240.001	14.787	1197.944	889.576
241.015	14.735	1196.956	888.491
242.030	14.875	1195.880	888.357
243.045	14.817	1195.229	887.488
244.059	14.868	1194.327	887.005
245.074	14.990	1193.190	886.734
246.088	15.029	1192.147	886.084
247.103	14.950	1191.958	885.449
248.117	14.970	1190.916	884.701
249.132	15.101	1190.142	884.738
250.147	14.976	1189.400	883.449
251.161	15.160	1188.771	883.878
252.176	15.111	1187.851	882.853
253.190	15.183	1187.725	883.061
254.205	15.187	1186.817	882.329
255.220	15.321	1185.911	882.282
256.234	15.232	1185.721	881.597
257.249	15.283	1184.643	880.987
258.263	15.335	1184.159	880.821
259.278	15.305	1183.494	880.092
260.293	15.301	1182.914	879.561
261.307	15.309	1182.614	879.303
262.322	15.357	1181.638	878.749
263.336	15.400	1181.146	878.529
264.351	15.341	1180.529	877.686
265.366	15.411	1179.774	877.413
266.380	15.427	1179.165	876.966
267.395	15.483	1177.784	876.150
268.409	15.451	1177.277	875.532
269.424	15.498	1176.554	875.159
270.439	15.438	1176.243	874.540
271.453	15.335	1175.445	873.334
272.468	15.476	1174.433	873.235
273.482	15.424	1174.018	872.578
274.497	15.459	1173.199	872.074
275.512	15.564	1172.285	871.867
276.526	15.529	1171.432	870.971
277.541	15.505	1170.731	870.247
278.555	15.513	1169.905	869.602
279.570	15.602	1169.211	869.465
280.585	15.657	1168.329	869.019
281.599	15.666	1167.523	868.390
282.614	15.627	1166.288	867.190
283.628	15.626	1165.169	866.279
284.643	15.587	1164.389	865.423
285.657	15.759	1163.367	865.468
286.672	15.681	1162.723	864.515
287.687	15.737	1161.633	863.915
288.701	15.736	1161.504	863.739
289.716	15.756	1160.532	863.040
290.730	15.767	1159.205	862.032
291.745	15.671	1158.814	861.173
292.760	15.817	1157.976	861.220
293.774	15.765	1157.542	860.555
294.789	15.806	1157.040	860.316
295.803	15.898	1156.330	860.185
296.818	15.917	1155.468	859.563
297.833	15.780	1155.076	858.497
298.847	15.788	1154.315	857.894
299.862	15.842	1152.957	857.085
300.876	15.893	1152.505	856.932
301.891	15.883	1151.962	856.404
302.906	16.008	1150.833	856.123
303.920	16.019	1149.786	855.325
304.935	16.085	1149.201	855.149
305.949	15.968	1148.788	854.170
306.964	16.077	1148.545	854.470
307.979	16.039	1147.685	853.558
308.993	15.971	1146.755	852.449
310.008	16.148	1145.568	852.388
311.022	16.240	1145.021	852.367
312.037	16.058	1144.226	850.781
313.052	16.150	1142.834	850.136
314.066	16.030	1142.630	849.304
315.081	16.165	1141.286	848.909
316.095	16.043	1140.978	847.993
317.110	16.088	1140.098	847.489
318.125	16.073	1139.529	846.914
319.139	16.120	1138.259	846.131
320.154	16.206	1137.848	846.184
321.168	16.104	1137.446	845.300
322.183	16.202	1136.789	845.224
323.197	16.023	1136.345	843.924
324.212	16.181	1135.387	843.928
325.227	16.115	1134.880	843.147
326.241	16.254	1133.940	843.071
327.256	16.206	1133.217	842.219
328.270	16.256	1132.323	841.728
329.285	16.209	1131.448	840.767
330.300	16.282	1130.343	840.237
331.314	16.183	1129.953	839.379
332.329	16.281	1128.591	838.780
333.343	16.284	1127.713	838.068
334.358	16.424	1126.487	837.778
335.373	16.315	1126.298	837.022
336.387	16.374	1125.382	836.562
337.402	16.300	1124.724	835.630
338.416	16.374	1124.205	835.537
339.431	16.446	1123.099	834.995
340.446	16.369	1122.681	834.232
341.460	16.458	1122.156	834.209
342.475	16.448	1120.777	833.060
343.489	16.467	1120.211	832.657
344.504	16.549	1118.794	831.935
345.519	16.587	1118.256	831.645
346.533	16.576	1117.304	830.811
347.548	16.652	1116.452	830.476
348.562	16.689	1115.557	829.920
349.577	16.520	1115.244	828.785
350.592	16.443	1114.691	827.923
351.606	16.571	1114.054	828.006
352.621	16.676	1112.451	827.253
353.635	16.766	1112.445	827.615
354.650	16.654	1111.754	826.480
355.665	16.710	1110.886	826.034
356.679	16.732	1110.097	825.485
357.694	16.633	1110.007	824.860
358.708	16.805	1109.027	824.895
359.723	16.788	1108.267	824.175
360.738	16.782	1107.791	823.720
361.752	16.732	1107.366	823.087
362.767	16.770	1106.566	822.606
363.781	16.915	1105.579	822.501
364.796	16.780	1105.520	821.730
365.810	16.849	1104.691	821.375
366.825	16.908	1103.819	820.943
367.840	17.015	1103.407	821.081
368.854	16.897	1103.072	820.186
369.869	16.952	1102.116	819.669
370.883	16.993	1100.959	818.931
371.898	16.965	1100.481	818.372
372.913	16.944	1100.210	817.996
373.927	17.038	1099.199	817.626
374.942	17.024	1098.679	817.097
375.956	17.076	1098.416	817.081
376.971	17.076	1097.595	816.398
377.986	17.012	1097.274	815.780
379.000	17.294	1096.074	816.166
380.015	17.088	1095.827	814.926
381.029	17.266	1094.935	815.043
382.044	17.151	1094.648	814.204
383.059	17.245	1093.797	813.948
384.073	17.092	1093.301	812.777
385.088	17.286	1091.625	812.385
386.102	17.296	1091.246	812.078
387.117	17.139	1090.512	810.711
388.132	17.219	1089.561	810.314
389.146	17.183	1088.561	809.330
390.161	17.214	1087.837	808.864
391.175	17.246	1087.113	808.407
392.190	17.260	1086.573	808.003
393.205	17.335	1085.680	807.622
394.219	17.415	1084.703	807.202
395.234	17.319	1084.099	806.226
396.248	17.367	1082.796	805.413
397.263	17.486	1081.960	805.284
398.278	17.216	1082.015	803.976
399.292	17.336	1080.625	803.441
400.307	17.377	1079.778	802.932
401.321	17.348	1079.312	802.377
402.336	17.333	1078.793	801.849
403.350	17.287	1078.273	801.174
404.365	17.301	1077.306	800.453
405.380	17.411	1076.451	800.263
406.394	17.461	1075.730	799.893
407.409	17.440	1074.876	799.088
408.423	17.473	1074.231	798.693
409.438	17.631	1073.078	798.505
410.453	17.722	1072.484	798.419
411.467	17.626	1071.908	797.469
412.482	17.693	1071.091	797.106
413.496	17.820	1069.997	796.815
414.511	17.748	1070.210	796.565
415.526	17.790	1069.765	796.359
416.540	17.749	1069.242	795.706
417.555	17.769	1068.412	795.112
418.569	17.844	1067.831	794.961
419.584	17.715	1067.472	794.018
420.599	17.893	1067.003	794.429
421.613	109.185	1332.929	1490.944
422.628	100.973	1371.630	1491.011
