DTS Sentinel unit serial number:	SN413079Multiplexer serial number:	ORYXHardware model number:	OX4-SRSoftware version number:	ORYX F/W v4.00 Oryx Data Collector v3.7.2.0data status	okinstallation	princeton_trtdifferential loss correction	single-endedforward channel	channel 2reverse channel	N/Adate	2019/09/11time	11:09:11forward acquisition time	60.00reverse acquisition time	0.00gamma	496.2192k internal	0.2307k external	0.2307temperature offset calibration	0.9970default loss term (dB/km)	0.3790temperature slope calibration	1.0000multiplexer offset coefficient	1.0000multiplexer slope coefficient	1.0000fibre end	0.00T internal ref (°C)	37.47T ext. ref 1 (°C)	0.18T ext. ref 2 (°C)	33.79length (m)	temperature (°C)	Stokes	anti-Stokes-747.200	-200.000	0.083	-0.000
-746.185	413.829	-0.089	0.192
-745.171	-10.519	0.144	-0.097
-744.156	-1.588	0.142	0.102
-743.142	425.708	0.087	-0.190
-742.127	-200.000	0.025	0.150
-741.112	-103.194	0.131	-0.032
-740.098	18.420	-0.280	0.228
-739.083	49.568	0.308	0.295
-738.069	342.108	-0.182	0.363
-737.054	11.729	0.112	-0.087
-736.039	-89.904	-0.255	-0.076
-735.025	721.952	-0.123	-0.333
-734.010	230.371	0.188	-0.312
-732.996	273.284	-0.090	-0.162
-731.981	-42.514	-0.162	-0.084
-730.966	-200.000	0.017	-0.138
-729.952	149.788	0.076	-0.104
-728.937	57.224	-0.106	-0.105
-727.923	-200.000	0.017	-0.541
-726.908	141.480	0.171	-0.230
-725.894	-182.351	-0.299	-0.006
-724.879	153.236	-0.177	-0.246
-723.864	26.920	-0.073	-0.062
-722.850	-200.000	-0.019	0.116
-721.835	-81.681	-0.178	-0.059
-720.821	126.829	-0.083	-0.106
-719.806	800.000	0.052	0.185
-718.791	23.858	0.135	-0.113
-717.777	-155.937	0.395	-0.026
-716.762	-59.635	0.109	0.048
-715.748	800.000	-0.048	-0.200
-714.733	-138.419	0.135	-0.015
-713.718	-14.193	0.048	0.032
-712.704	-200.000	-0.009	-0.321
-711.689	-134.051	-0.446	0.056
-710.675	643.321	-0.102	-0.264
-709.660	800.000	0.095	-0.282
-708.645	-80.854	0.096	-0.032
-707.631	-136.612	-0.171	0.020
-706.616	-90.093	-0.130	-0.038
-705.602	-188.671	0.308	-0.004
-704.587	-200.000	0.024	-0.194
-703.572	-19.868	-0.243	-0.152
-702.558	60.229	0.150	0.150
-701.543	208.841	-0.157	0.250
-700.529	-54.828	0.241	0.110
-699.514	-123.733	0.264	-0.042
-698.499	800.000	-0.054	-0.154
-697.485	800.000	-0.154	0.485
-696.470	69.138	-0.077	0.080
-695.456	-96.817	-0.065	-0.017
-694.441	-122.257	-0.135	0.022
-693.426	99.407	-0.095	-0.112
-692.412	496.124	-0.158	-0.368
-691.397	-109.525	-0.388	-0.083
-690.383	-200.000	-0.002	-0.157
-689.368	-200.000	0.002	0.045
-688.354	85.021	0.249	-0.277
-687.339	-45.152	0.441	-0.222
-686.324	800.000	-0.064	0.181
-685.310	-139.138	-0.390	-0.043
-684.295	-2.053	0.018	0.012
-683.281	250.305	0.030	0.051
-682.266	-40.029	-0.271	0.143
-681.251	800.000	0.088	0.306
-680.237	-200.000	0.011	-0.057
-679.222	157.860	0.306	-0.430
-678.208	51.166	0.123	-0.119
-677.193	7.503	0.235	-0.178
-676.178	25.187	-0.134	-0.113
-675.164	-1.454	-0.047	-0.034
-674.149	1.069	-0.050	0.036
-673.135	-113.735	0.188	0.037
-672.120	-87.229	-0.342	-0.105
-671.105	-62.326	0.116	-0.049
-670.091	-200.000	0.007	0.039
-669.076	251.917	0.246	0.425
-668.062	-200.000	-0.046	0.207
-667.047	200.121	0.055	0.086
-666.032	-137.002	-0.136	-0.016
-665.018	-200.000	-0.017	-0.418
-664.003	800.000	-0.096	-0.333
-662.989	321.430	-0.068	0.132
-661.974	-44.871	0.176	-0.089
-660.959	800.000	-0.066	0.241
-659.945	-200.000	-0.014	0.178
-658.930	343.226	0.076	0.151
-657.916	-5.925	0.174	-0.121
-656.901	-200.000	-0.010	-0.074
-655.886	172.630	0.126	-0.183
-654.872	75.292	0.049	-0.052
-653.857	800.000	0.088	-0.339
-652.843	-171.011	-0.147	0.005
-651.828	-99.840	-0.295	-0.075
-650.814	-90.556	0.191	0.056
-649.799	321.993	-0.075	0.145
-648.784	6.259	-0.163	-0.123
-647.770	196.036	-0.199	-0.307
-646.755	-178.140	-0.105	-0.003
-645.741	166.692	0.060	0.085
-644.726	-200.000	-0.012	0.252
-643.711	-66.408	-0.198	0.080
-642.697	-117.674	0.110	0.020
-641.682	-74.969	0.029	-0.010
-640.668	-200.000	-0.041	-0.186
-639.653	203.112	-0.062	0.096
-638.638	-134.997	0.285	-0.035
-637.624	6.476	-0.175	-0.132
-636.609	-49.629	0.087	-0.042
-635.595	-122.474	0.099	-0.016
-634.580	45.163	0.183	-0.171
-633.565	800.000	0.024	0.101
-632.551	-158.960	-0.152	0.009
-631.536	-172.934	0.249	-0.008
-630.522	-105.097	0.069	-0.016
-629.507	-155.994	0.295	-0.019
-628.492	214.716	-0.095	-0.152
-627.478	-200.000	0.039	0.317
-626.463	-0.042	-0.341	0.246
-625.449	-138.305	-0.187	0.021
-624.434	-106.812	-0.067	-0.015
-623.419	-51.902	0.161	0.076
-622.405	-33.349	0.281	-0.157
-621.390	-78.391	-0.183	-0.064
-620.376	208.915	-0.109	0.172
-619.361	800.000	-0.143	-0.443
-618.346	-144.900	0.157	0.015
-617.332	-56.722	-0.353	-0.158
-616.317	-187.849	0.269	-0.004
-615.303	48.271	-0.089	-0.084
-614.288	-66.362	0.199	-0.080
-613.273	411.324	-0.166	0.357
-612.259	800.000	-0.022	0.090
-611.244	269.471	-0.055	-0.097
-610.230	404.311	-0.074	0.157
-609.215	-200.000	-0.009	0.179
-608.201	-88.118	-0.169	-0.051
-607.186	-182.144	0.330	0.006
-606.171	800.000	0.038	-0.146
-605.157	-46.950	-0.279	-0.138
-604.142	800.000	-0.058	-0.162
-603.128	-7.554	-0.162	-0.110
-602.113	-164.027	-0.351	-0.016
-601.098	264.685	0.062	-0.110
-600.084	-98.855	0.353	0.091
-599.069	-50.226	0.183	0.088
-598.055	27.281	0.040	0.034
-597.040	-42.889	-0.303	-0.156
-596.025	800.000	-0.045	0.168
-595.011	161.595	0.082	-0.116
-593.996	-200.000	-0.011	-0.079
-592.982	-69.444	0.254	0.098
-591.967	263.886	-0.044	0.078
-590.952	465.573	0.097	0.220
-589.938	65.618	0.212	-0.217
-588.923	800.000	-0.048	0.188
-587.909	-155.636	-0.137	-0.009
-586.894	-105.763	0.186	0.042
-585.879	-140.853	0.121	0.013
-584.865	392.924	0.139	0.293
-583.850	-200.000	-0.073	0.461
-582.836	-200.000	0.005	0.092
-581.821	-200.000	0.054	-0.454
-580.806	56.607	-0.114	-0.112
-579.792	-200.000	-0.058	0.295
-578.777	-41.563	-0.202	-0.105
-577.763	22.878	-0.262	0.217
-576.748	383.975	0.181	0.377
-575.733	-200.000	0.029	-0.294
-574.719	-89.972	0.290	0.086
-573.704	-57.682	0.245	-0.108
-572.690	60.971	-0.131	-0.132
-571.675	-200.000	0.002	-0.234
-570.661	-74.624	-0.349	-0.127
-569.646	-49.982	-0.140	-0.067
-568.631	531.814	-0.090	0.214
-567.617	277.571	-0.112	-0.201
-566.602	303.435	-0.041	-0.077
-565.588	-187.851	-0.158	0.002
-564.573	-62.719	0.202	0.084
-563.558	-112.754	-0.170	-0.034
-562.544	-105.674	0.237	-0.054
-561.529	-200.000	-0.037	-0.204
-560.515	-104.786	0.300	-0.070
-559.500	-57.858	0.293	0.130
-558.485	-35.434	-0.364	0.200
-557.471	322.350	0.049	-0.094
-556.456	-48.868	-0.126	-0.061
-555.442	-200.000	-0.008	0.329
-554.427	-73.101	-0.373	-0.138
-553.412	-200.000	-0.004	-0.101
-552.398	-83.623	0.201	-0.065
-551.383	-200.000	0.013	0.133
-550.369	414.695	-0.059	-0.126
-549.354	176.020	0.118	0.172
-548.339	-81.190	0.274	-0.091
-547.325	-54.062	0.265	0.122
-546.310	42.193	0.359	-0.329
-545.296	-200.000	-0.034	-0.354
-544.281	34.168	0.151	-0.133
-543.266	-106.285	0.083	0.019
-542.252	-148.794	-0.091	0.007
-541.237	96.000	-0.221	-0.255
-540.223	800.000	0.054	0.192
-539.208	627.161	-0.124	0.317
-538.193	204.442	0.243	0.381
-537.179	-54.043	-0.256	0.117
-536.164	127.249	0.105	-0.134
-535.150	360.848	-0.063	-0.128
-534.135	-40.966	0.109	-0.057
-533.121	-63.741	0.286	0.118
-532.106	-200.000	-0.035	-0.280
-531.091	181.351	0.160	-0.237
-530.077	-185.977	-0.296	-0.004
-529.062	800.000	0.022	0.075
-528.048	244.508	-0.140	-0.238
-527.033	800.000	-0.109	0.320
-526.018	-109.614	0.347	-0.074
-525.004	166.480	-0.143	-0.204
-523.989	-200.000	0.010	0.109
-522.975	119.523	-0.150	0.188
-521.960	640.328	0.071	-0.181
-520.945	-133.788	0.156	-0.020
-519.931	800.000	-0.030	-0.109
-518.916	5.245	-0.153	-0.113
-517.902	144.808	0.182	0.246
-516.887	265.068	0.058	0.102
-515.872	-79.790	-0.265	-0.090
-514.858	109.903	0.322	-0.389
-513.843	160.572	-0.192	0.270
-512.829	-200.000	0.003	-0.055
-511.814	360.939	0.182	0.367
-510.799	-200.000	0.059	0.362
-509.785	209.610	-0.090	-0.142
-508.770	-124.669	0.160	0.025
-507.756	767.101	0.034	-0.092
-506.741	-116.572	0.269	0.050
-505.726	472.632	0.084	0.190
-504.712	800.000	-0.043	-0.161
-503.697	116.879	-0.125	-0.154
-502.683	21.970	-0.210	-0.172
-501.668	800.000	-0.091	-0.254
-500.653	322.363	-0.084	-0.161
-499.639	-51.554	-0.288	0.136
-498.624	-53.295	0.376	-0.174
-497.610	183.535	0.066	-0.099
-496.595	-102.981	-0.437	0.104
-495.581	-102.239	0.153	-0.037
-494.566	-38.256	0.192	0.102
-493.551	-117.910	-0.397	0.072
-492.537	-200.000	-0.005	0.233
-491.522	-157.341	0.356	-0.022
-490.508	126.169	0.100	-0.127
-489.493	171.446	-0.093	0.134
-488.478	-19.929	0.232	0.144
-487.464	-188.140	-0.262	-0.003
-486.449	-200.000	0.007	0.103
-485.435	-145.683	0.203	-0.018
-484.420	-38.860	-0.357	0.189
-483.405	21.263	-0.184	0.150
-482.391	800.000	0.081	0.270
-481.376	-82.800	-0.224	-0.073
-480.362	-200.000	-0.023	-0.162
-479.347	284.839	0.076	-0.138
-478.332	-11.655	-0.066	-0.043
-477.318	131.563	-0.212	-0.274
-476.303	81.313	0.101	-0.110
-475.289	290.238	0.100	-0.183
-474.274	-147.881	0.106	0.009
-473.259	10.776	0.165	0.127
-472.245	-65.217	-0.116	0.047
-471.230	87.066	0.066	0.074
-470.216	-61.417	0.139	-0.059
-469.201	-3.295	-0.073	-0.051
-468.186	66.709	0.130	-0.134
-467.172	-15.666	-0.394	-0.252
-466.157	-200.000	0.044	-0.258
-465.143	800.000	0.092	-0.287
-464.128	-43.855	0.298	-0.151
-463.113	2.927	0.092	-0.067
-462.099	-33.586	0.507	-0.281
-461.084	-200.000	-0.092	-0.000
-460.070	25.315	-0.251	0.209
-459.055	-71.869	0.178	0.066
-458.040	-151.036	0.141	-0.011
-457.026	-43.859	-0.134	0.068
-456.011	-169.175	-0.247	-0.009
-454.997	769.621	0.015	0.042
-453.982	48.974	0.101	0.096
-452.968	-36.804	-0.031	-0.017
-451.953	-61.754	-0.283	0.119
-450.938	126.930	0.044	0.057
-449.924	-200.000	-0.042	0.185
-448.909	-84.565	-0.135	-0.043
-447.895	22.401	-0.104	0.085
-446.880	-61.382	0.132	0.056
-445.865	-200.000	0.003	-0.147
-444.851	-82.449	-0.267	-0.087
-443.836	12.032	-0.104	-0.080
-442.822	-33.632	-0.021	-0.012
-441.807	82.365	-0.350	-0.382
-440.792	-37.686	0.245	0.131
-439.778	-200.000	-0.004	0.059
-438.763	-27.582	-0.081	0.048
-437.749	800.000	-0.102	0.388
-436.734	-134.777	-0.243	-0.030
-435.719	-1.913	0.188	0.133
-434.705	-20.546	-0.081	-0.050
-433.690	371.230	0.163	0.331
-432.676	-200.000	0.013	-0.514
-431.661	23.511	-0.151	0.125
-430.646	-79.905	0.323	0.109
-429.632	56.089	0.221	-0.215
-428.617	-200.000	0.022	0.200
-427.603	243.674	0.180	-0.302
-426.588	-164.341	-0.212	-0.010
-425.573	-73.302	-0.346	-0.127
-424.559	-64.937	-0.155	0.063
-423.544	-53.377	0.231	0.106
-422.530	-200.000	0.003	-0.041
-421.515	-200.000	-0.010	-0.263
-420.500	800.000	0.038	0.165
-419.486	-108.172	-0.106	-0.023
-418.471	64.779	0.040	-0.041
-417.457	-49.078	0.073	0.035
-416.442	-200.000	0.024	-0.147
-415.428	800.000	-0.066	-0.189
-414.413	-200.000	-0.035	-0.191
-413.398	-28.966	-0.385	0.222
-412.384	800.000	-0.037	0.129
-411.369	-117.368	-0.347	0.063
-410.355	-106.235	-0.198	0.045
-409.340	-151.150	-0.414	-0.031
-408.325	208.589	-0.101	-0.159
-407.311	-55.541	0.180	0.081
-406.296	31.639	0.094	0.081
-405.282	-108.182	-0.249	-0.054
-404.267	-200.000	0.006	-0.120
-403.252	-20.205	0.149	-0.092
-402.238	-84.412	0.250	-0.079
-401.223	-200.000	0.008	0.098
-400.209	369.928	-0.196	-0.398
-399.194	9.895	0.092	0.070
-398.179	-80.222	0.115	0.039
-397.165	1.481	-0.303	0.219
-396.150	-92.052	-0.156	-0.044
-395.136	32.327	0.457	-0.396
-394.121	-60.741	-0.042	-0.018
-393.106	-200.000	-0.015	0.323
-392.092	-91.495	0.230	0.066
-391.077	250.313	0.204	-0.347
-390.063	800.000	-0.018	-0.072
-389.048	521.061	0.150	-0.354
-388.033	59.785	-0.203	-0.201
-387.019	-110.008	-0.228	0.048
-386.004	12.777	0.118	-0.091
-384.990	-24.435	-0.118	-0.071
-383.975	-200.000	0.046	0.366
-382.960	800.000	-0.029	-0.120
-381.946	-41.665	0.121	-0.062
-380.931	523.757	-0.062	-0.147
-379.917	-90.593	0.208	-0.060
-378.902	38.356	0.077	-0.069
-377.888	-16.122	0.138	0.088
-376.873	-144.689	0.121	0.011
-375.858	-77.076	-0.104	0.036
-374.844	212.167	0.101	0.159
-373.829	-17.351	0.073	-0.046
-372.815	300.010	0.116	-0.215
-371.800	482.853	0.067	0.153
-370.785	800.000	-0.041	-0.130
-369.771	-145.669	-0.246	0.022
-368.756	173.629	-0.099	0.143
-367.742	8.371	0.083	0.062
-366.727	86.366	-0.062	-0.068
-365.712	44.125	0.141	0.129
-364.698	-115.505	0.201	-0.038
-363.683	-200.000	-0.018	-0.190
-362.669	-151.862	-0.255	0.019
-361.654	148.323	-0.130	0.176
-360.639	-200.000	-0.001	0.144
-359.625	-200.000	-0.026	0.173
-358.610	406.019	0.070	0.147
-357.596	800.000	-0.056	-0.226
-356.581	-200.000	0.003	-0.132
-355.566	-109.971	-0.191	0.040
-354.552	15.473	0.109	-0.086
-353.537	127.467	0.128	0.163
-352.523	148.851	-0.085	-0.115
-351.508	-49.794	0.188	0.090
-350.493	-109.810	0.277	0.058
-349.479	-200.000	-0.027	0.205
-348.464	-200.000	0.017	0.090
-347.450	-50.378	0.308	0.146
-346.435	800.000	-0.015	0.047
-345.420	-200.000	0.018	-0.185
-344.406	133.013	-0.063	-0.081
-343.391	-112.052	0.165	-0.033
-342.377	145.188	0.062	-0.084
-341.362	56.965	-0.299	0.292
-340.348	92.538	-0.087	-0.098
-339.333	226.281	-0.284	-0.462
-338.318	-51.425	-0.153	0.072
-337.304	481.336	-0.060	-0.137
-336.289	-67.894	0.209	0.082
-335.275	176.131	-0.107	0.155
-334.260	-200.000	-0.007	-0.433
-333.245	-175.450	-0.205	-0.006
-332.231	103.719	-0.034	0.040
-331.216	555.943	-0.130	-0.313
-330.202	-43.033	0.167	-0.085
-329.187	-80.277	0.305	0.102
-328.172	30.898	-0.081	-0.069
-327.158	-60.653	0.200	0.085
-326.143	11.233	-0.090	-0.069
-325.129	-200.000	0.008	0.364
-324.114	237.191	-0.067	-0.112
-323.099	45.856	0.226	0.209
-322.085	-46.592	-0.357	0.175
-321.070	-20.755	0.052	0.032
-320.056	46.676	-0.176	0.163
-319.041	-85.231	0.261	-0.082
-318.026	96.835	0.119	-0.136
-317.012	800.000	-0.066	-0.206
-315.997	-200.000	-0.114	0.580
-314.983	-121.257	0.371	0.062
-313.968	124.153	0.302	-0.379
-312.953	249.012	0.110	-0.187
-311.939	709.949	0.085	0.225
-310.924	18.992	0.052	0.042
-309.910	-76.540	-0.374	-0.131
-308.895	700.347	-0.034	0.089
-307.880	-157.602	-0.184	-0.011
-306.866	-78.853	-0.132	-0.045
-305.851	-103.541	0.102	-0.024
-304.837	-80.450	0.204	0.068
-303.822	-27.385	0.332	0.193
-302.807	276.006	0.091	0.161
-301.793	54.687	0.108	0.104
-300.778	-152.738	-0.409	-0.029
-299.764	-45.199	-0.058	-0.029
-298.749	50.174	-0.264	0.249
-297.735	-200.000	-0.008	0.049
-296.720	116.020	-0.084	-0.103
-295.705	-87.905	-0.211	-0.063
-294.691	166.767	0.009	-0.013
-293.676	-102.871	-0.300	0.071
-292.662	-200.000	-0.007	-0.040
-291.647	64.856	0.102	0.103
-290.632	152.482	-0.125	0.170
-289.618	-38.886	-0.114	-0.060
-288.603	-200.000	-0.015	-0.243
-287.589	800.000	-0.029	-0.082
-286.574	62.796	0.156	0.155
-285.559	-1.448	0.387	-0.272
-284.545	232.779	-0.096	0.158
-283.530	-107.312	-0.130	0.028
-282.516	-200.000	-0.009	-0.364
-281.501	-59.433	0.307	-0.132
-280.486	-31.082	0.311	-0.175
-279.472	-159.039	-0.155	-0.009
-278.457	-200.000	-0.047	0.347
-277.443	-1.738	0.359	0.252
-276.428	232.346	0.085	0.139
-275.413	47.348	0.340	0.316
-274.399	-31.522	-0.141	-0.079
-273.384	45.737	0.074	-0.068
-272.370	181.716	-0.062	0.091
-271.355	-124.381	-0.107	0.017
-270.340	105.634	-0.032	0.037
-269.326	-200.000	0.014	-0.148
-268.311	-200.000	0.015	-0.388
-267.297	800.000	-0.071	0.259
-266.282	343.947	0.083	0.162
-265.267	21.297	0.149	-0.121
-264.253	0.680	-0.054	-0.039
-263.238	-200.000	-0.028	0.278
-262.224	194.770	-0.097	0.146
-261.209	-83.884	-0.138	0.044
-260.195	293.944	0.125	0.228
-259.180	-106.414	-0.144	0.032
-258.165	-100.049	0.202	0.050
-257.151	37.535	0.128	0.113
-256.136	-74.112	0.086	0.031
-255.122	48.790	0.070	0.065
-254.107	248.018	-0.092	-0.156
-253.092	-200.000	-0.016	-0.220
-252.078	-200.000	-0.022	0.147
-251.063	-32.865	-0.173	0.096
-250.049	57.936	-0.041	0.040
-249.034	78.082	0.104	0.111
-248.019	-41.117	0.226	-0.117
-247.005	142.674	0.037	-0.049
-245.990	800.000	-0.099	0.279
-244.976	524.566	0.081	0.190
-243.961	67.998	0.129	-0.132
-242.946	715.510	0.038	-0.099
-241.932	800.000	0.056	-0.240
-240.917	253.112	-0.169	-0.287
-239.903	-73.394	0.109	-0.040
-238.888	-16.822	0.204	-0.128
-237.873	-200.000	-0.036	0.289
-236.859	-114.835	0.354	0.067
-235.844	91.132	-0.243	-0.272
-234.830	-15.795	0.165	0.105
-233.815	-48.363	-0.227	-0.109
-232.800	-26.028	-0.158	0.092
-231.786	-170.267	0.189	-0.007
-230.771	-162.053	0.367	-0.018
-229.757	665.427	0.125	0.321
-228.742	-146.631	-0.221	0.019
-227.727	-194.469	-0.256	-0.002
-226.713	119.966	-0.094	-0.116
-225.698	267.998	0.102	0.178
-224.684	266.334	0.161	0.281
-223.669	-31.136	-0.228	-0.128
-222.655	-57.293	-0.224	0.098
-221.640	-29.544	-0.198	-0.113
-220.625	800.000	0.027	0.084
-219.611	-20.329	-0.048	-0.030
-218.596	44.324	-0.306	0.280
-217.582	-166.854	0.117	0.005
-216.567	-97.115	0.521	-0.136
-215.552	-134.410	0.241	0.029
-214.538	-200.000	0.001	0.025
-213.523	308.265	0.042	0.078
-212.509	229.332	-0.100	-0.162
-211.494	-26.456	0.183	-0.107
-210.479	-200.000	-0.014	0.139
-209.465	-105.933	0.147	-0.033
-208.450	16.458	-0.144	-0.113
-207.436	800.000	0.067	0.211
-206.421	191.803	0.149	-0.224
-205.406	491.332	0.054	-0.124
-204.392	71.550	-0.154	-0.159
-203.377	-169.500	-0.350	-0.013
-202.363	-200.000	-0.073	0.549
-201.348	49.953	-0.146	-0.137
-200.333	800.000	-0.019	0.069
-199.319	23.760	-0.209	-0.172
-198.304	-118.715	0.167	-0.029
-197.290	267.605	-0.266	0.463
-196.275	10.246	0.252	-0.191
-195.260	-65.047	0.334	0.134
-194.246	-85.902	0.169	-0.052
-193.231	-125.021	-0.216	0.033
-192.217	273.203	-0.089	0.157
-191.202	-200.000	-0.041	-0.257
-190.187	-154.924	-0.036	0.002
-189.173	57.542	0.074	0.072
-188.158	-86.065	-0.402	-0.123
-187.144	-9.802	0.394	0.261
-186.129	440.856	-0.038	0.082
-185.114	-169.296	0.226	-0.008
-184.100	96.799	-0.152	0.173
-183.085	-200.000	0.014	0.086
-182.071	781.926	-0.086	0.233
-181.056	800.000	-0.031	-0.130
-180.042	-102.992	-0.249	0.059
-179.027	-200.000	0.015	-0.092
-178.012	380.931	0.126	0.256
-176.998	-200.000	-0.071	0.468
-175.983	159.909	0.025	0.034
-174.969	147.978	0.191	0.255
-173.954	498.425	-0.038	-0.086
-172.939	800.000	-0.154	-0.621
-171.925	-29.106	-0.081	0.046
-170.910	85.144	0.069	0.075
-169.896	51.688	-0.261	-0.247
-168.881	309.846	-0.098	0.181
-167.866	-30.236	-0.203	0.115
-166.852	-200.000	0.003	-0.024
-165.837	-200.000	-0.086	0.402
-164.823	-60.190	0.080	-0.034
-163.808	200.960	0.041	-0.062
-162.793	124.978	0.114	-0.143
-161.779	-182.628	0.073	-0.001
-160.764	55.512	-0.322	-0.309
-159.750	417.990	-0.061	-0.129
-158.735	-138.304	0.465	0.051
-157.720	140.492	-0.165	0.217
-156.706	372.162	-0.162	0.327
-155.691	90.868	0.132	-0.147
-154.677	-27.181	0.168	-0.097
-153.662	-200.000	-0.029	-0.256
-152.647	-24.708	-0.175	-0.103
-151.633	578.005	-0.004	-0.009
-150.618	632.398	0.065	0.163
-149.604	774.263	-0.129	0.350
-148.589	800.000	-0.032	-0.133
-147.574	-10.325	-0.179	-0.118
-146.560	-44.771	-0.237	0.118
-145.545	-27.825	0.156	0.090
-144.531	-165.461	0.091	-0.004
-143.516	573.909	0.052	0.126
-142.502	569.798	-0.110	0.265
-141.487	-200.000	0.037	-0.387
-140.472	800.000	0.034	0.134
-139.458	6.324	-0.060	0.044
-138.443	-200.000	0.002	0.273
-137.429	-61.980	0.272	-0.113
-136.414	-200.000	-0.016	-0.161
-135.399	-200.000	0.020	-0.118
-134.385	-92.836	-0.162	-0.045
-133.370	-200.000	0.005	0.058
-132.356	114.813	0.160	0.194
-131.341	287.471	0.063	0.112
-130.326	-200.000	0.078	-0.352
-129.312	800.000	0.095	-0.279
-128.297	-148.973	0.206	0.017
-127.283	-54.445	-0.116	0.052
-126.268	-101.370	0.066	-0.016
-125.253	-19.535	0.122	0.075
-124.239	-89.939	0.218	-0.063
-123.224	143.539	-0.130	0.171
-122.210	-26.301	-0.134	0.078
-121.195	-55.023	-0.205	0.092
-120.180	-200.000	-0.008	-0.692
-119.166	-58.046	-0.261	0.113
-118.151	-200.000	0.040	-0.201
-117.137	751.732	-0.068	0.183
-116.122	-200.000	-0.303	0.001
-115.107	92.774	0.095	-0.106
-114.093	213.173	0.029	-0.045
-113.078	800.000	0.087	0.358
-112.064	150.449	0.110	-0.148
-111.049	20.216	-0.173	0.139
-110.034	14.399	0.287	0.222
-109.020	384.406	0.083	-0.170
-108.005	-52.782	-0.085	0.039
-106.991	-3.028	-0.253	0.175
-105.976	215.458	-0.213	0.335
-104.962	455.263	-0.110	0.243
-103.947	-200.000	0.016	0.253
-102.932	30.054	0.219	0.186
-101.918	93.636	0.351	0.394
-100.903	-90.023	0.364	-0.105
-99.889	-102.292	-0.225	0.054
-98.874	717.525	0.118	0.310
-97.859	-58.592	-0.206	-0.089
-96.845	-200.000	-0.035	-0.380
-95.830	-47.987	0.205	0.098
-94.816	453.560	0.184	-0.403
-93.801	-62.057	-0.135	-0.056
-92.786	-79.154	0.104	-0.035
-91.772	-135.887	0.158	-0.019
-90.757	148.978	0.138	0.186
-89.743	-29.402	-0.255	-0.145
-88.728	800.000	0.042	-0.134
-87.713	-132.965	0.123	-0.016
-86.699	-200.000	0.002	-0.216
-85.684	10.109	0.016	0.012
-84.670	54.785	-0.131	-0.125
-83.655	270.553	-0.039	-0.068
-82.640	-110.309	0.173	0.036
-81.626	62.019	-0.043	0.042
-80.611	-93.795	-0.315	0.086
-79.597	-3.692	-0.229	0.157
-78.582	-145.207	-0.121	-0.011
-77.567	20.500	-0.132	-0.106
-76.553	79.445	0.087	-0.092
-75.538	-107.692	0.100	0.022
-74.524	70.279	-0.193	-0.198
-73.509	252.474	-0.107	0.180
-72.494	283.797	0.090	0.161
-71.480	-113.170	-0.193	0.038
-70.465	-87.697	-0.057	0.017
-69.451	69.899	0.094	-0.096
-68.436	20.182	0.293	0.234
-67.422	-52.893	0.186	0.085
-66.407	-129.282	-0.118	-0.016
-65.392	-165.317	0.199	0.009
-64.378	-18.523	-0.165	-0.102
-63.363	800.000	0.042	-0.141
-62.349	800.000	0.058	-0.221
-61.334	149.823	-0.570	-0.765
-60.319	37.098	0.392	0.344
-59.305	388.496	-0.362	-0.741
-58.290	800.000	0.305	1.098
-57.276	703.602	0.523	1.365
-56.261	-200.000	85.165	507.906
-55.246	565.890	1374.096	3298.573
-54.232	183.594	2617.367	3829.785
-53.217	114.417	2366.175	2851.822
-52.203	46.403	1973.107	1810.754
-51.188	40.591	1757.605	1567.185
-50.173	37.959	1711.552	1505.772
-49.159	52.866	1751.423	1657.363
-48.144	56.469	1769.911	1702.889
-47.130	40.444	1731.137	1542.190
-46.115	37.510	1717.326	1507.136
-45.100	37.357	1712.547	1501.697
-44.086	37.436	1709.307	1499.405
-43.071	37.345	1706.699	1496.360
-42.057	37.278	1704.858	1494.175
-41.042	37.412	1701.844	1492.497
-40.027	37.444	1699.967	1491.037
-39.013	37.299	1698.119	1488.247
-37.998	37.256	1696.773	1486.680
-36.984	37.349	1694.820	1485.625
-35.969	37.536	1693.582	1485.904
-34.954	37.488	1691.789	1483.910
-33.940	37.500	1690.145	1482.501
-32.925	37.511	1688.611	1481.176
-31.911	37.407	1686.828	1478.762
-30.896	37.494	1685.074	1477.828
-29.881	37.380	1683.405	1475.444
-28.867	37.368	1681.704	1473.799
-27.852	37.552	1680.112	1473.738
-26.838	37.544	1678.371	1472.096
-25.823	37.472	1677.362	1470.604
-24.809	37.614	1675.484	1469.978
-23.794	37.478	1674.600	1468.115
-22.779	37.567	1673.032	1467.350
-21.765	37.475	1671.459	1465.219
-20.750	37.458	1669.552	1463.361
-19.736	37.458	1667.984	1461.928
-18.721	37.477	1667.027	1461.180
-17.706	37.477	1665.225	1459.542
-16.692	37.422	1663.542	1457.596
-15.677	37.410	1662.622	1456.638
-14.663	37.573	1660.537	1455.972
-13.648	37.486	1659.240	1454.131
-12.633	37.585	1657.804	1453.554
-11.619	37.497	1656.244	1451.474
-10.604	37.404	1654.989	1449.622
-9.590	37.538	1653.582	1449.327
-8.575	37.502	1652.138	1447.738
-7.560	37.615	1650.835	1447.376
-6.546	37.513	1649.664	1445.534
-5.531	37.488	1648.489	1444.263
-4.517	37.440	1647.279	1442.790
-3.502	37.486	1646.250	1442.172
-2.487	37.576	1644.483	1441.233
-1.473	37.455	1633.316	1430.497
-0.458	35.227	1613.996	1397.303
0.556	30.066	1614.406	1366.099
1.571	27.708	1639.545	1369.568
2.586	27.105	1654.973	1377.758
3.600	23.678	1599.839	1306.578
4.615	12.314	1478.608	1129.718
5.629	2.164	1405.672	1007.234
6.644	0.393	1396.028	988.631
7.659	0.151	1394.850	986.124
8.673	0.113	1393.811	985.057
9.688	0.054	1392.141	983.399
10.702	-0.131	1388.699	979.675
11.717	3.460	1396.759	1008.800
12.731	14.372	1418.369	1096.487
13.746	22.280	1431.961	1159.228
14.761	23.419	1432.851	1167.352
15.775	23.460	1432.327	1167.092
16.790	23.438	1432.104	1166.660
17.804	23.496	1431.169	1166.181
18.819	23.711	1430.815	1167.203
19.834	23.802	1429.676	1166.765
20.848	24.005	1428.591	1167.109
21.863	23.865	1428.125	1165.705
22.877	23.827	1427.697	1165.004
23.892	23.874	1426.069	1163.884
24.907	23.759	1425.866	1162.861
25.921	23.876	1424.591	1162.483
26.936	23.860	1423.728	1161.570
27.950	23.833	1422.561	1160.338
28.965	23.899	1421.281	1159.621
29.980	23.771	1420.420	1157.983
30.994	23.865	1418.683	1157.078
32.009	23.819	1417.475	1155.693
33.023	23.864	1416.228	1154.862
34.038	23.801	1415.185	1153.501
35.053	23.820	1413.983	1152.546
36.067	23.836	1413.312	1152.002
37.082	23.838	1412.312	1151.097
38.096	23.856	1411.082	1150.108
39.111	23.776	1410.775	1149.236
40.126	23.804	1409.574	1148.337
41.140	23.859	1409.162	1148.258
42.155	23.846	1408.815	1147.790
43.169	23.920	1408.707	1148.077
44.184	23.841	1408.264	1147.104
45.199	23.859	1407.831	1146.763
46.213	23.812	1407.028	1145.706
47.228	23.769	1406.391	1144.809
48.242	23.842	1405.000	1144.045
49.257	23.923	1403.210	1143.010
50.271	23.873	1402.063	1141.653
51.286	23.788	1400.971	1140.116
52.301	23.809	1399.460	1138.921
53.315	23.775	1398.785	1138.053
54.330	23.853	1398.164	1137.943
55.344	23.838	1397.028	1136.825
56.359	23.825	1395.552	1135.443
57.374	23.852	1394.686	1134.809
58.388	23.787	1394.219	1133.910
59.403	23.770	1393.888	1133.436
60.417	23.779	1393.343	1132.945
61.432	23.866	1392.059	1132.357
62.447	23.815	1391.658	1131.607
63.461	23.754	1390.629	1130.282
64.476	23.837	1389.405	1129.717
65.490	23.763	1388.251	1128.205
66.505	23.765	1386.667	1126.830
67.520	23.892	1385.318	1126.438
68.534	23.897	1384.324	1125.563
69.549	23.828	1383.719	1124.534
70.563	23.799	1382.815	1123.521
71.578	23.896	1381.323	1122.822
72.593	23.836	1380.467	1121.646
73.607	23.863	1379.827	1121.194
74.622	23.975	1378.646	1120.844
75.636	23.768	1378.822	1119.582
76.651	23.855	1377.827	1119.222
77.666	23.900	1377.310	1118.988
78.680	23.797	1377.019	1118.001
79.695	23.766	1376.163	1117.014
80.709	23.865	1375.128	1116.699
81.724	23.925	1374.161	1116.192
82.739	23.849	1373.172	1114.814
83.753	23.799	1372.396	1113.768
84.768	24.017	1370.748	1113.695
85.782	23.943	1369.410	1112.052
86.797	23.822	1368.944	1110.818
87.812	23.863	1367.600	1109.883
88.826	23.914	1366.406	1109.139
89.841	23.795	1365.661	1107.691
90.855	23.934	1364.735	1107.706
91.870	23.907	1363.690	1106.594
92.884	23.823	1362.742	1105.205
93.899	23.825	1362.422	1104.856
94.914	23.887	1361.295	1104.235
95.928	23.950	1360.222	1103.653
96.943	23.974	1359.235	1102.906
97.957	23.913	1358.829	1102.103
98.972	23.903	1357.791	1101.097
99.987	23.882	1356.764	1100.040
101.001	23.959	1355.586	1099.460
102.016	23.842	1354.702	1097.925
103.030	23.889	1354.028	1097.573
104.045	23.823	1353.511	1096.646
105.060	23.892	1352.369	1096.051
106.074	23.982	1351.074	1095.460
107.089	23.828	1350.584	1094.019
108.103	23.896	1349.227	1093.242
109.118	23.955	1348.055	1092.554
110.133	23.941	1346.753	1091.315
111.147	23.936	1346.193	1090.738
112.162	23.961	1344.510	1089.429
113.176	23.946	1343.458	1088.389
114.191	23.949	1342.807	1087.786
115.206	24.066	1341.493	1087.338
116.220	24.019	1340.211	1085.914
117.235	23.934	1339.718	1084.899
118.249	23.921	1338.928	1084.089
119.264	23.850	1338.010	1082.815
120.279	24.094	1336.594	1083.059
121.293	23.984	1336.468	1082.189
122.308	24.034	1335.268	1081.428
123.322	23.963	1334.612	1080.368
124.337	23.985	1333.751	1079.711
125.352	24.163	1332.590	1079.755
126.366	24.046	1331.896	1078.389
127.381	24.059	1330.919	1077.580
128.395	24.120	1329.842	1076.980
129.410	24.015	1329.660	1076.103
130.424	24.032	1328.467	1075.146
131.439	24.030	1327.726	1074.439
132.454	24.023	1327.003	1073.716
133.468	23.993	1326.117	1072.725
134.483	24.019	1325.741	1072.479
135.497	24.048	1324.495	1071.553
136.512	23.982	1323.501	1070.256
137.527	24.068	1322.359	1069.756
138.541	24.095	1320.988	1068.712
139.556	24.072	1319.737	1067.470
140.570	24.092	1319.066	1066.954
141.585	24.064	1318.181	1065.974
142.600	24.080	1316.996	1065.019
143.614	24.046	1316.125	1064.012
144.629	24.000	1315.225	1062.921
145.643	23.946	1314.313	1061.764
146.658	23.949	1312.850	1060.507
147.673	24.071	1311.864	1060.344
148.687	23.948	1310.983	1058.805
149.702	23.889	1309.979	1057.550
150.716	23.768	1309.527	1056.372
151.731	23.999	1308.007	1056.426
152.746	23.920	1307.030	1055.072
153.760	24.029	1305.396	1054.308
154.775	24.089	1304.512	1053.851
155.789	24.030	1303.930	1052.940
156.804	24.077	1302.798	1052.211
157.819	23.993	1302.216	1051.152
158.833	24.111	1300.707	1050.537
159.848	24.106	1300.440	1050.199
160.862	24.072	1299.925	1049.492
161.877	24.171	1298.382	1048.734
162.892	24.070	1297.912	1047.666
163.906	24.084	1297.363	1047.217
164.921	24.153	1296.301	1046.670
165.935	24.162	1295.645	1046.099
166.950	24.125	1295.104	1045.355
167.964	24.159	1294.378	1044.877
168.979	24.054	1294.341	1044.135
169.994	24.113	1293.670	1043.849
171.008	24.149	1292.330	1042.887
172.023	24.220	1291.483	1042.526
173.037	24.162	1291.109	1041.793
174.052	24.237	1290.017	1041.260
175.067	24.097	1289.748	1040.133
176.081	24.097	1288.570	1039.086
177.096	24.154	1287.794	1038.704
178.110	24.177	1286.686	1037.852
179.125	24.156	1285.721	1036.860
180.140	24.116	1284.779	1035.775
181.154	24.138	1283.479	1034.764
182.169	24.097	1282.516	1033.655
183.183	24.205	1281.265	1033.186
184.198	24.245	1280.419	1032.643
185.213	24.276	1279.528	1032.012
186.227	24.240	1278.813	1031.133
187.242	24.236	1277.838	1030.232
188.256	24.183	1276.972	1029.139
189.271	24.267	1275.624	1028.446
190.286	24.282	1274.989	1027.927
191.300	24.126	1274.707	1026.713
192.315	24.214	1274.054	1026.603
193.329	24.208	1273.927	1026.376
194.344	24.151	1273.500	1025.610
195.359	24.314	1272.597	1025.731
196.373	24.209	1272.770	1025.177
197.388	24.166	1271.789	1024.047
198.402	24.241	1271.642	1024.271
199.417	24.201	1270.922	1023.367
200.432	24.163	1270.392	1022.637
201.446	24.303	1269.233	1022.414
202.461	24.170	1269.127	1021.478
203.475	24.179	1268.503	1020.937
204.490	24.201	1267.325	1020.024
205.504	24.204	1266.556	1019.332
206.519	24.318	1265.191	1018.793
207.534	24.236	1263.897	1017.195
208.548	24.319	1262.902	1016.777
209.563	24.353	1262.141	1016.265
210.577	24.343	1261.354	1015.484
211.592	24.314	1260.858	1014.831
212.607	24.253	1260.363	1013.996
213.621	24.424	1259.068	1013.834
214.636	24.401	1258.092	1012.831
215.650	24.325	1257.668	1011.970
216.665	24.273	1256.458	1010.612
217.680	24.326	1256.117	1010.548
218.694	24.393	1254.976	1009.915
219.709	24.291	1254.043	1008.499
220.723	24.363	1253.560	1008.433
221.738	24.412	1252.633	1007.870
222.753	24.321	1251.980	1006.741
223.767	24.337	1251.587	1006.428
224.782	24.360	1251.335	1006.268
225.796	24.368	1250.602	1005.633
226.811	24.388	1249.691	1004.924
227.826	24.445	1249.449	1004.961
228.840	24.404	1248.941	1004.236
229.855	24.467	1248.157	1003.867
230.869	24.532	1247.013	1003.226
231.884	24.469	1246.583	1002.434
232.899	24.464	1245.463	1001.420
233.913	24.440	1244.804	1000.666
234.928	24.526	1244.753	1001.019
235.942	24.506	1244.213	1000.386
236.957	24.361	1243.534	998.940
237.972	24.538	1242.157	998.734
238.986	24.461	1242.113	998.181
240.001	24.488	1241.456	997.712
241.015	24.722	1239.998	997.757
242.030	24.646	1239.482	996.831
243.045	24.558	1238.738	995.656
244.059	24.677	1237.814	995.488
245.074	24.623	1237.194	994.597
246.088	24.582	1236.709	993.894
247.103	24.696	1235.595	993.546
248.117	24.655	1234.821	992.608
249.132	24.596	1233.722	991.309
250.147	24.636	1233.503	991.263
251.161	24.783	1232.268	991.001
252.176	24.698	1231.868	990.120
253.190	24.694	1231.199	989.470
254.205	24.632	1230.898	988.800
255.220	24.689	1229.940	988.260
256.234	24.681	1229.704	987.936
257.249	24.679	1229.006	987.279
258.263	24.701	1228.420	986.840
259.278	24.744	1227.655	986.378
260.293	24.659	1227.545	985.729
261.307	24.761	1226.764	985.581
262.322	24.783	1225.719	984.773
263.336	24.630	1225.792	983.901
264.351	24.693	1224.930	983.471
265.366	24.703	1224.036	982.722
266.380	24.747	1223.601	982.529
267.395	24.690	1222.655	981.367
268.409	24.863	1221.915	981.634
269.424	24.667	1221.630	980.244
270.439	24.599	1221.424	979.618
271.453	24.739	1220.255	979.359
272.468	24.706	1219.593	978.565
273.482	24.799	1218.596	978.183
274.497	24.683	1218.800	977.628
275.512	24.790	1217.810	977.332
276.526	24.715	1216.766	975.996
277.541	24.767	1216.362	975.871
278.555	24.917	1215.238	975.702
279.570	24.805	1215.128	974.914
280.585	24.896	1213.901	974.338
281.599	24.762	1213.160	972.929
282.614	24.852	1212.079	972.468
283.628	24.889	1211.385	972.026
284.643	24.888	1210.413	971.154
285.657	24.851	1209.684	970.282
286.672	24.882	1208.654	969.536
287.687	24.972	1208.043	969.449
288.701	24.933	1207.503	968.718
289.716	24.955	1206.713	968.117
290.730	25.043	1206.025	967.959
291.745	25.020	1205.283	967.150
292.760	24.996	1204.838	966.581
293.774	24.924	1204.836	966.100
294.789	25.045	1203.463	965.570
295.803	25.034	1202.994	965.049
296.818	25.045	1202.364	964.516
297.833	25.086	1201.655	964.080
298.847	25.157	1200.888	963.764
299.862	25.092	1200.242	962.808
300.876	25.037	1199.673	961.974
301.891	25.008	1199.013	961.203
302.906	25.195	1197.819	961.162
303.920	25.188	1197.459	960.755
304.935	25.095	1197.173	959.939
305.949	25.127	1195.975	959.066
306.964	25.104	1196.315	959.131
307.979	25.173	1195.015	958.371
308.993	25.145	1194.603	957.805
310.008	25.221	1193.441	957.193
311.022	25.280	1192.694	956.827
312.037	25.269	1192.118	956.224
313.052	25.225	1190.969	954.982
314.066	25.154	1190.529	954.166
315.081	25.207	1189.632	953.646
316.095	25.312	1188.915	953.541
317.110	25.246	1188.748	952.975
318.125	25.184	1187.593	951.634
319.139	25.227	1187.172	951.438
320.154	25.310	1185.908	950.786
321.168	25.228	1185.926	950.278
322.183	25.286	1185.678	950.302
323.197	25.243	1184.697	949.204
324.212	25.258	1184.198	948.803
325.227	25.275	1183.681	948.392
326.241	25.361	1182.911	948.148
327.256	25.309	1182.756	947.662
328.270	25.363	1181.455	946.822
329.285	25.392	1180.426	946.067
330.300	25.324	1180.209	945.449
331.314	25.369	1179.225	944.814
332.329	25.311	1178.248	943.643
333.343	25.389	1177.793	943.606
334.358	25.338	1176.985	942.608
335.373	25.486	1175.914	942.444
336.387	25.426	1175.363	941.605
337.402	25.388	1175.095	941.107
338.416	25.518	1174.087	940.896
339.431	25.490	1173.216	939.970
340.446	25.474	1172.646	939.345
341.460	25.492	1172.198	938.999
342.475	25.543	1171.418	938.557
343.489	25.488	1170.716	937.621
344.504	25.407	1169.785	936.369
345.519	25.511	1168.615	935.895
346.533	25.578	1167.870	935.564
347.548	25.552	1167.331	934.914
348.562	25.609	1166.334	934.330
349.577	25.572	1165.769	933.602
350.592	25.525	1165.129	932.760
351.606	25.346	1164.478	931.231
352.621	25.557	1163.687	931.607
353.635	25.574	1163.308	931.313
354.650	25.551	1162.603	930.542
355.665	25.649	1161.740	930.281
356.679	25.601	1161.390	929.670
357.694	25.613	1160.620	929.031
358.708	25.593	1159.737	928.141
359.723	25.654	1158.982	927.765
360.738	25.619	1158.253	926.923
361.752	25.687	1158.022	927.003
362.767	25.741	1157.441	926.735
363.781	25.796	1156.757	926.388
364.796	25.782	1156.408	925.954
365.810	25.657	1155.958	924.872
366.825	25.731	1154.818	924.255
367.840	25.866	1154.295	924.448
368.854	25.842	1154.199	924.168
369.869	25.809	1153.648	923.475
370.883	25.846	1152.648	922.781
371.898	25.796	1151.675	921.667
372.913	25.777	1151.124	921.044
373.927	25.902	1150.496	921.100
374.942	25.893	1150.097	920.656
375.956	26.003	1149.340	920.527
376.971	25.874	1148.860	919.403
377.986	25.839	1148.609	918.942
379.000	25.860	1147.979	918.465
380.015	25.843	1147.380	917.818
381.029	25.936	1146.192	917.259
382.044	25.941	1145.894	916.966
383.059	25.962	1145.045	916.313
384.073	25.973	1144.154	915.573
385.088	25.946	1143.447	914.790
386.102	26.032	1143.168	914.921
387.117	25.940	1142.046	913.479
388.132	26.000	1141.012	912.871
389.146	26.013	1140.339	912.320
390.161	25.949	1139.849	911.524
391.175	25.988	1139.307	911.205
392.190	26.131	1138.279	911.026
393.205	25.984	1137.905	909.901
394.219	26.041	1136.718	909.160
395.234	26.067	1136.239	908.828
396.248	26.057	1135.596	908.184
397.263	26.078	1134.701	907.493
398.278	26.282	1133.765	907.690
399.292	26.221	1133.209	906.855
400.307	26.174	1132.819	906.227
401.321	26.170	1132.303	905.715
402.336	26.174	1131.641	905.124
403.350	26.141	1130.859	904.256
404.365	26.262	1130.253	904.294
405.380	26.342	1129.071	903.671
406.394	26.311	1128.236	902.767
407.409	26.325	1127.417	902.100
408.423	26.340	1127.085	901.831
409.438	26.292	1126.618	901.136
410.453	26.294	1125.743	900.369
411.467	26.208	1125.018	899.280
412.482	26.245	1124.391	898.883
413.496	26.405	1123.708	899.053
414.511	26.379	1122.857	898.166
415.526	26.461	1122.762	898.415
416.540	26.422	1122.019	897.550
417.555	26.372	1121.613	896.896
418.569	26.349	1121.014	896.223
419.584	26.381	1121.099	896.374
420.599	26.547	1120.097	896.313
421.613	142.781	1402.351	1782.266
422.628	132.997	1443.478	1782.403
