DTS Sentinel unit serial number:	SN413079Multiplexer serial number:	ORYXHardware model number:	OX4-SRSoftware version number:	ORYX F/W v4.00 Oryx Data Collector v3.7.2.0data status	okinstallation	princeton_trtdifferential loss correction	single-endedforward channel	channel 2reverse channel	N/Adate	2019/09/13time	21:23:35forward acquisition time	60.00reverse acquisition time	0.00gamma	496.2192k internal	0.2334k external	0.2334temperature offset calibration	1.0122default loss term (dB/km)	0.3790temperature slope calibration	1.0000multiplexer offset coefficient	1.0000multiplexer slope coefficient	1.0000fibre end	0.00T internal ref (°C)	28.37T ext. ref 1 (°C)	3.12T ext. ref 2 (°C)	22.93length (m)	temperature (°C)	Stokes	anti-Stokes-747.200	-200.000	0.003	-0.259
-746.185	800.000	0.126	0.550
-745.171	-200.000	-0.049	0.309
-744.156	-63.442	-0.325	-0.134
-743.142	-100.366	0.401	-0.100
-742.127	333.911	0.186	0.361
-741.112	-24.124	-0.284	0.170
-740.098	14.734	-0.197	0.155
-739.083	97.704	-0.076	0.087
-738.069	-167.329	0.179	0.007
-737.054	35.688	0.375	-0.331
-736.039	-200.000	-0.067	-0.448
-735.025	-134.191	0.404	-0.050
-734.010	800.000	-0.149	-0.442
-732.996	800.000	0.040	0.143
-731.981	-73.790	0.054	-0.020
-730.966	-32.026	-0.165	-0.093
-729.952	509.143	-0.064	0.150
-728.937	1.218	-0.079	-0.057
-727.923	-153.290	-0.131	0.009
-726.908	-167.835	-0.309	-0.012
-725.894	54.363	-0.198	-0.191
-724.879	209.311	0.049	-0.077
-723.864	271.038	0.089	-0.157
-722.850	54.269	0.058	-0.056
-721.835	800.000	-0.044	-0.192
-720.821	-124.861	-0.111	-0.017
-719.806	107.193	-0.237	-0.283
-718.791	81.533	0.128	-0.139
-717.777	16.357	-0.133	-0.105
-716.762	-200.000	-0.013	-0.185
-715.748	492.253	0.007	0.016
-714.733	-9.312	-0.155	-0.104
-713.718	-107.019	0.414	0.092
-712.704	-115.051	0.238	0.045
-711.689	459.075	0.130	-0.291
-710.675	-200.000	-0.007	-0.175
-709.660	-85.175	-0.332	-0.104
-708.645	-200.000	0.049	0.240
-707.631	-67.875	0.143	0.056
-706.616	-200.000	0.008	-0.336
-705.602	-4.962	-0.100	-0.069
-704.587	-86.279	0.144	0.045
-703.572	-28.180	-0.049	0.028
-702.558	-54.957	0.317	-0.143
-701.543	233.744	-0.082	-0.135
-700.529	773.226	0.102	0.279
-699.514	-154.206	-0.271	0.018
-698.499	495.428	0.088	-0.202
-697.485	43.487	-0.255	-0.234
-696.470	-126.898	0.225	-0.033
-695.456	104.542	-0.154	-0.182
-694.441	146.388	0.089	-0.120
-693.426	800.000	-0.083	0.261
-692.412	800.000	0.052	0.207
-691.397	-46.173	0.200	-0.099
-690.383	-184.402	0.167	0.003
-689.368	800.000	-0.073	0.209
-688.354	-145.748	0.233	0.021
-687.339	-114.907	0.019	0.004
-686.324	-174.927	-0.182	-0.005
-685.310	-30.288	0.193	0.110
-684.295	-162.403	-0.139	-0.007
-683.281	-119.795	0.363	0.063
-682.266	-1.181	-0.081	0.057
-681.251	-74.763	-0.409	-0.147
-680.237	67.424	0.134	-0.137
-679.222	51.136	0.034	0.033
-678.208	-200.000	-0.044	-0.480
-677.193	800.000	-0.107	-0.369
-676.178	-167.428	0.349	-0.014
-675.164	-35.479	-0.068	0.037
-674.149	-200.000	0.013	-0.318
-673.135	-200.000	0.043	-0.243
-672.120	398.917	-0.120	-0.251
-671.105	136.642	-0.096	-0.126
-670.091	-135.174	0.229	-0.028
-669.076	45.356	-0.190	-0.176
-668.062	-72.311	-0.241	0.089
-667.047	-72.267	0.168	-0.062
-666.032	-82.571	0.123	-0.040
-665.018	314.058	-0.040	-0.075
-664.003	-7.152	-0.128	-0.087
-662.989	-200.000	0.023	0.122
-661.974	-53.580	-0.100	-0.046
-660.959	118.592	0.105	-0.130
-659.945	800.000	0.051	0.202
-658.930	-81.656	0.296	-0.097
-657.916	34.606	-0.228	-0.200
-656.901	-200.000	-0.040	-0.469
-655.886	-200.000	0.071	0.355
-654.872	-79.116	-0.084	-0.029
-653.857	-65.657	-0.486	0.195
-652.843	30.562	-0.280	-0.240
-651.828	-2.847	-0.101	0.071
-650.814	84.313	-0.202	-0.221
-649.799	-200.000	-0.056	0.314
-648.784	316.401	0.093	0.176
-647.770	85.660	-0.304	-0.335
-646.755	-124.732	0.296	-0.046
-645.741	53.778	-0.143	-0.137
-644.726	44.539	-0.098	0.090
-643.711	-26.044	0.461	0.272
-642.697	26.537	-0.177	0.148
-641.682	-144.287	-0.080	-0.007
-640.668	-25.623	0.220	0.130
-639.653	110.310	0.149	-0.180
-638.638	800.000	0.058	0.193
-637.624	61.579	-0.250	0.249
-636.609	33.374	-0.370	-0.321
-635.595	-21.667	-0.170	0.104
-634.580	214.124	-0.283	0.448
-633.565	-112.246	0.160	-0.032
-632.551	34.460	-0.067	0.058
-631.536	115.929	0.248	0.303
-630.522	-72.253	-0.109	0.040
-629.507	-67.527	-0.100	0.039
-628.492	-88.055	0.179	-0.054
-627.478	51.567	0.294	0.279
-626.463	-35.085	-0.152	0.083
-625.449	-91.029	0.379	0.109
-624.434	-31.237	-0.236	0.133
-623.419	-170.850	-0.318	0.011
-622.405	-57.771	0.129	-0.056
-621.390	800.000	0.025	0.097
-620.376	111.161	-0.107	-0.129
-619.361	-200.000	-0.005	-0.117
-618.346	800.000	-0.089	-0.380
-617.332	-29.066	0.092	0.053
-616.317	34.184	-0.140	-0.122
-615.303	-142.517	0.400	-0.039
-614.288	-99.759	0.182	0.046
-613.273	-200.000	0.008	0.326
-612.259	456.371	0.103	0.228
-611.244	-108.523	-0.191	-0.041
-610.230	-200.000	0.014	-0.152
-609.215	-200.000	0.013	0.068
-608.201	-27.524	0.114	-0.066
-607.186	490.676	-0.131	-0.301
-606.171	-181.756	0.287	-0.006
-605.157	137.512	-0.095	-0.125
-604.142	-200.000	-0.021	-0.153
-603.128	-200.000	-0.031	-0.196
-602.113	-200.000	-0.002	0.347
-601.098	241.672	-0.071	0.118
-600.084	800.000	-0.085	-0.293
-599.069	36.124	0.209	-0.184
-598.055	-1.114	0.176	-0.124
-597.040	225.499	-0.052	-0.085
-596.025	-21.420	-0.290	-0.177
-595.011	334.949	-0.031	0.060
-593.996	0.399	0.290	-0.207
-592.982	-99.806	-0.356	0.089
-591.967	-200.000	-0.033	-0.282
-590.952	-129.354	0.080	-0.011
-589.938	-68.174	-0.342	-0.133
-588.923	800.000	-0.034	-0.143
-587.909	-35.360	0.177	-0.096
-586.894	-200.000	-0.009	0.103
-585.879	-65.813	-0.097	-0.039
-584.865	-52.663	-0.336	0.155
-583.850	156.017	-0.091	-0.125
-582.836	-200.000	-0.003	-0.215
-581.821	-139.176	-0.196	-0.021
-580.806	-200.000	-0.014	-0.109
-579.792	300.765	0.063	-0.115
-578.777	-2.932	-0.128	0.089
-577.763	-73.469	0.188	0.068
-576.748	800.000	-0.081	0.226
-575.733	579.967	-0.049	0.121
-574.719	-128.042	-0.286	-0.041
-573.704	-200.000	0.036	0.280
-572.690	-139.695	0.121	0.013
-571.675	741.411	0.114	-0.306
-570.661	-37.295	0.101	0.054
-569.646	-120.023	-0.362	0.062
-568.631	80.345	-0.056	0.060
-567.617	11.798	-0.260	-0.200
-566.602	148.198	0.099	0.134
-565.588	195.531	0.140	0.213
-564.573	-69.500	0.091	0.035
-563.558	-160.353	0.116	0.006
-562.544	21.585	-0.189	0.154
-561.529	527.469	0.093	0.218
-560.515	-200.000	0.103	-0.505
-559.500	454.574	-0.065	-0.144
-558.485	234.070	-0.036	-0.059
-557.471	-142.922	0.381	0.037
-556.456	144.417	-0.301	0.401
-555.442	800.000	0.054	-0.164
-554.427	-156.323	0.374	0.023
-553.412	-200.000	0.010	-0.249
-552.398	190.666	0.092	0.138
-551.383	-152.137	-0.121	-0.009
-550.369	-200.000	-0.004	0.143
-549.354	-57.300	-0.300	0.132
-548.339	-8.072	0.075	-0.050
-547.325	353.759	0.049	0.097
-546.310	-200.000	-0.013	-0.339
-545.296	369.199	0.145	-0.292
-544.281	-115.393	-0.072	-0.014
-543.266	549.379	-0.168	-0.401
-542.252	157.299	0.101	-0.139
-541.237	-200.000	-0.044	0.291
-540.223	299.713	0.006	-0.011
-539.208	-200.000	0.008	-0.238
-538.193	-200.000	0.075	-0.331
-537.179	-60.929	0.237	0.100
-536.164	-88.945	-0.210	-0.062
-535.150	182.625	0.072	0.107
-534.135	380.625	-0.085	-0.174
-533.121	515.591	-0.137	-0.319
-532.106	21.343	0.177	-0.144
-531.091	800.000	-0.019	-0.072
-530.077	520.281	-0.172	-0.401
-529.062	795.322	0.095	0.259
-528.048	-23.182	0.202	-0.121
-527.033	-44.260	0.270	0.135
-526.018	-149.157	-0.525	-0.042
-525.004	107.201	0.036	0.043
-523.989	-63.808	-0.203	-0.083
-522.975	-82.888	-0.069	0.022
-521.960	-68.418	-0.097	0.038
-520.945	-97.374	-0.152	0.039
-519.931	181.167	-0.149	0.218
-518.916	-142.693	-0.293	-0.029
-517.902	-70.488	-0.179	-0.068
-516.887	-200.000	0.367	-0.002
-515.872	31.357	-0.121	-0.104
-514.858	19.324	-0.137	0.110
-513.843	149.760	0.294	-0.397
-512.829	-98.650	-0.190	-0.048
-511.814	-200.000	-0.022	-0.113
-510.799	234.612	0.062	0.101
-509.785	-166.767	0.200	-0.008
-508.770	-200.000	0.030	-0.171
-507.756	-57.737	0.138	-0.060
-506.741	-17.385	-0.319	0.200
-505.726	418.722	-0.146	0.311
-504.712	-143.778	-0.200	-0.019
-503.697	283.375	-0.061	0.110
-502.683	173.736	-0.082	-0.117
-501.668	-32.713	-0.134	-0.074
-500.653	-200.000	0.000	-0.159
-499.639	178.871	0.246	0.358
-498.624	800.000	-0.104	0.304
-497.610	-141.212	-0.322	-0.033
-496.595	-120.480	0.134	0.023
-495.581	106.651	-0.033	-0.039
-494.566	225.464	-0.140	0.226
-493.551	756.204	0.087	0.234
-492.537	-26.663	0.097	0.056
-491.522	4.673	0.127	-0.093
-490.508	-52.640	-0.231	0.106
-489.493	-200.000	0.040	-0.308
-488.478	-113.796	0.393	-0.076
-487.464	-150.487	0.411	0.031
-486.449	309.833	-0.039	-0.073
-485.435	800.000	-0.037	-0.120
-484.420	-200.000	0.005	-0.076
-483.405	43.993	0.247	-0.225
-482.391	147.497	0.097	0.130
-481.376	800.000	-0.056	-0.175
-480.362	146.637	-0.098	0.131
-479.347	274.454	0.044	-0.077
-478.332	-200.000	-0.004	-0.246
-477.318	-104.751	0.192	0.044
-476.303	207.799	-0.104	0.161
-475.289	-149.003	-0.066	-0.005
-474.274	-132.380	0.494	0.063
-473.259	-137.825	0.328	-0.037
-472.245	73.518	-0.148	0.154
-471.230	-25.667	-0.243	0.142
-470.216	155.460	-0.182	-0.250
-469.201	131.865	0.116	0.148
-468.186	-37.473	0.373	0.198
-467.172	-113.881	-0.245	0.047
-466.157	165.475	0.123	-0.173
-465.143	-119.501	-0.171	-0.029
-464.128	-200.000	-0.024	0.231
-463.113	-92.873	-0.304	0.084
-462.099	-200.000	0.018	-0.437
-461.084	-28.396	-0.192	0.110
-460.070	-200.000	-0.006	0.478
-459.055	178.428	-0.141	0.204
-458.040	800.000	0.077	0.238
-457.026	532.335	-0.052	0.122
-456.011	-51.414	-0.172	0.080
-454.997	-40.069	0.410	-0.212
-453.982	-200.000	0.000	-0.330
-452.968	-200.000	-0.040	-0.310
-451.953	-200.000	0.017	-0.210
-450.938	-96.267	0.124	-0.033
-449.924	-17.274	0.017	0.011
-448.909	800.000	-0.014	-0.060
-447.895	-100.433	-0.059	-0.015
-446.880	262.450	0.101	-0.174
-445.865	-200.000	-0.013	0.175
-444.851	75.233	-0.097	-0.102
-443.836	381.998	-0.082	-0.167
-442.822	800.000	0.073	0.239
-441.807	35.552	0.022	0.020
-440.792	-200.000	-0.026	0.270
-439.778	127.678	0.230	0.290
-438.763	-200.000	-0.058	-0.259
-437.749	-108.231	-0.160	0.034
-436.734	800.000	-0.052	-0.211
-435.719	-95.636	-0.222	0.059
-434.705	116.922	-0.120	-0.146
-433.690	-200.000	0.006	0.118
-432.676	-29.712	-0.059	0.033
-431.661	1.545	-0.209	0.149
-430.646	-7.354	0.121	0.082
-429.632	-200.000	0.037	-0.174
-428.617	-42.904	-0.119	0.060
-427.603	476.873	-0.127	-0.284
-426.588	217.670	0.056	-0.089
-425.573	800.000	-0.044	-0.154
-424.559	-200.000	-0.005	0.283
-423.544	-61.141	-0.168	-0.070
-422.530	-160.592	0.357	0.019
-421.515	274.741	0.047	0.082
-420.500	136.392	0.107	0.138
-419.486	-32.464	-0.251	-0.139
-418.471	426.470	-0.120	-0.257
-417.457	-72.467	-0.202	0.074
-416.442	102.832	-0.164	-0.191
-415.428	-200.000	-0.034	0.220
-414.413	248.018	0.178	0.298
-413.398	320.751	-0.137	0.258
-412.384	110.047	0.082	0.098
-411.369	654.101	-0.101	0.256
-410.355	-106.771	-0.161	0.036
-409.340	206.081	-0.058	-0.089
-408.325	-74.676	0.288	0.103
-407.311	49.934	-0.117	0.110
-406.296	630.833	-0.042	-0.106
-405.282	-200.000	0.000	0.145
-404.267	130.177	0.029	-0.036
-403.252	-148.884	-0.179	0.014
-402.238	800.000	-0.047	-0.153
-401.223	415.313	0.029	0.062
-400.209	15.206	-0.191	0.148
-399.194	593.638	0.064	0.157
-398.179	111.771	-0.130	0.155
-397.165	-37.987	0.057	0.030
-396.150	74.621	0.232	0.241
-395.136	107.371	-0.045	0.053
-394.121	620.187	0.047	-0.118
-393.106	-76.101	0.134	0.047
-392.092	267.728	-0.143	-0.249
-391.077	-200.000	-0.014	-0.170
-390.063	-53.218	0.167	0.076
-389.048	339.604	-0.100	-0.193
-388.033	95.429	0.107	-0.121
-387.019	11.193	-0.223	0.169
-386.004	800.000	0.062	0.225
-384.990	216.172	0.229	0.361
-383.975	13.442	0.128	0.098
-382.960	-200.000	0.016	-0.284
-381.946	15.029	-0.071	-0.055
-380.931	-106.270	-0.245	0.054
-379.917	12.584	0.197	-0.150
-378.902	-200.000	-0.005	-0.157
-377.888	129.777	-0.102	-0.130
-376.873	-23.297	0.148	0.088
-375.858	-156.392	-0.183	0.011
-374.844	57.298	-0.124	-0.120
-373.829	116.651	-0.151	-0.183
-372.815	-16.969	-0.335	0.209
-371.800	-74.130	-0.209	0.075
-370.785	-200.000	0.011	-0.052
-369.771	-10.361	-0.172	0.113
-368.756	112.001	-0.047	0.056
-367.742	72.790	0.009	-0.009
-366.727	-200.000	-0.009	0.290
-365.712	4.909	0.097	0.071
-364.698	-87.174	0.286	-0.086
-363.683	36.203	-0.095	0.083
-362.669	4.179	0.335	-0.243
-361.654	563.004	0.027	0.065
-360.639	515.538	0.056	0.130
-359.625	-154.828	0.384	-0.025
-358.610	800.000	0.041	-0.127
-357.596	277.556	-0.126	-0.222
-356.581	-162.439	0.054	0.003
-355.566	-176.643	-0.231	-0.006
-354.552	143.932	0.092	0.122
-353.537	800.000	0.103	0.406
-352.523	563.990	-0.050	0.120
-351.508	-109.256	0.118	-0.025
-350.493	-16.202	0.283	-0.178
-349.479	-200.000	-0.003	0.311
-348.464	357.699	0.044	0.087
-347.450	800.000	0.089	0.332
-346.435	800.000	0.088	-0.298
-345.420	-62.467	-0.185	0.076
-344.406	-154.471	0.217	0.014
-343.391	-109.349	-0.269	-0.056
-342.377	-200.000	0.005	-0.113
-341.362	71.790	0.052	0.053
-340.348	-109.830	0.017	-0.004
-339.333	800.000	0.032	-0.093
-338.318	-84.857	-0.123	0.038
-337.304	307.579	0.246	-0.454
-336.289	155.797	0.179	-0.245
-335.275	-200.000	-0.014	0.150
-334.260	307.010	-0.122	0.225
-333.245	54.532	-0.108	0.103
-332.231	-200.000	-0.013	-0.148
-331.216	-132.115	0.243	-0.031
-330.202	-162.259	0.274	-0.014
-329.187	14.389	-0.217	-0.168
-328.172	-200.000	-0.042	-0.228
-327.158	140.329	-0.111	-0.145
-326.143	-200.000	-0.019	-0.201
-325.129	44.807	-0.159	0.145
-324.114	-166.148	0.102	0.004
-323.099	-93.332	-0.199	-0.055
-322.085	-200.000	0.025	-0.316
-321.070	154.996	-0.022	0.030
-320.056	42.750	0.098	-0.089
-319.041	-200.000	-0.014	-0.132
-318.026	24.522	-0.244	0.200
-317.012	800.000	0.045	0.128
-315.997	322.622	-0.023	-0.044
-314.983	-0.699	-0.118	-0.083
-313.968	-200.000	-0.006	-0.027
-312.953	131.967	0.102	-0.130
-311.939	67.654	0.278	-0.280
-310.924	800.000	0.052	0.159
-309.910	-140.306	0.310	0.032
-308.895	-200.000	0.024	-0.355
-307.880	8.187	0.158	-0.117
-306.866	180.610	-0.086	0.124
-305.851	-63.955	-0.070	-0.028
-304.837	129.408	-0.146	0.184
-303.822	800.000	-0.113	0.385
-302.807	-150.075	-0.084	0.006
-301.793	80.731	-0.034	0.037
-300.778	-53.774	-0.127	0.057
-299.764	-200.000	0.096	-0.443
-298.749	180.862	-0.117	-0.169
-297.735	470.730	0.062	-0.137
-296.720	-89.751	-0.493	0.143
-295.705	-120.374	-0.262	0.044
-294.691	38.007	0.278	0.244
-293.676	-178.630	-0.293	0.007
-292.662	-113.688	0.149	0.029
-291.647	-85.169	-0.200	0.062
-290.632	-13.987	0.248	0.158
-289.618	41.764	0.143	0.128
-288.603	19.820	-0.096	0.076
-287.589	-127.922	-0.065	0.009
-286.574	-23.055	-0.073	0.044
-285.559	-143.688	-0.182	0.017
-284.545	-200.000	-0.016	0.143
-283.530	-200.000	-0.023	0.117
-282.516	-200.000	0.003	-0.236
-281.501	-50.556	-0.384	0.179
-280.486	-117.352	0.331	-0.059
-279.472	114.293	0.145	0.174
-278.457	-200.000	-0.007	-0.194
-277.443	536.107	0.064	0.149
-276.428	583.169	0.073	-0.177
-275.413	800.000	-0.083	0.238
-274.399	-8.689	-0.301	-0.199
-273.384	-90.202	-0.107	0.031
-272.370	-35.764	-0.113	-0.060
-271.355	23.033	0.333	-0.269
-270.340	203.514	0.144	0.220
-269.326	-51.384	0.147	0.068
-268.311	-88.259	-0.197	-0.058
-267.297	112.067	0.223	0.266
-266.282	-104.324	0.126	-0.029
-265.267	-92.073	0.363	0.101
-264.253	-200.000	0.008	-0.158
-263.238	304.899	0.035	-0.063
-262.224	13.709	0.147	0.112
-261.209	-89.316	-0.071	0.021
-260.195	-88.776	0.163	-0.048
-259.180	174.464	0.025	-0.036
-258.165	-200.000	0.054	0.283
-257.151	-33.063	0.347	0.190
-256.136	20.003	0.101	0.080
-255.122	-200.000	-0.042	-0.197
-254.107	-137.272	-0.276	0.031
-253.092	-167.163	0.267	0.011
-252.078	336.943	-0.085	-0.162
-251.063	9.170	0.044	-0.033
-250.049	-167.890	-0.159	-0.006
-249.034	800.000	-0.074	0.205
-248.019	800.000	-0.070	-0.283
-247.005	338.664	-0.071	-0.136
-245.990	-66.462	0.096	0.038
-244.976	-19.544	-0.344	-0.210
-243.961	555.431	0.060	-0.142
-242.946	467.026	0.081	0.180
-241.932	140.561	-0.090	-0.117
-240.917	-200.000	0.021	-0.162
-239.903	-146.037	0.243	-0.021
-238.888	-49.295	0.196	-0.092
-237.873	-200.000	0.017	0.236
-236.859	-120.637	-0.075	0.013
-235.844	-176.775	0.305	0.008
-234.830	-92.996	-0.406	-0.111
-233.815	480.093	0.142	0.318
-232.800	-158.405	0.172	-0.010
-231.786	-200.000	0.014	0.184
-230.771	67.318	-0.092	0.092
-229.757	-200.000	-0.058	-0.549
-228.742	33.683	0.165	0.141
-227.727	-200.000	0.031	0.143
-226.713	159.855	0.177	-0.243
-225.698	-51.937	0.296	-0.135
-224.684	800.000	0.052	0.222
-223.669	9.517	0.189	0.141
-222.655	75.000	0.095	-0.098
-221.640	300.273	0.117	0.213
-220.625	135.506	0.054	-0.070
-219.611	307.800	-0.097	0.179
-218.596	-105.136	-0.183	0.041
-217.582	-200.000	-0.012	0.088
-216.567	800.000	0.055	0.165
-215.552	800.000	-0.064	0.228
-214.538	-59.212	-0.079	-0.033
-213.523	-93.683	-0.186	-0.051
-212.509	96.116	-0.297	0.334
-211.494	258.060	-0.089	-0.150
-210.479	61.538	-0.112	-0.109
-209.465	-200.000	0.010	0.175
-208.450	-22.678	0.205	0.122
-207.436	-200.000	0.017	0.126
-206.421	-18.537	-0.115	0.071
-205.406	433.893	0.149	-0.320
-204.392	-110.380	0.338	0.069
-203.377	-200.000	-0.052	-0.238
-202.363	-181.401	-0.153	0.003
-201.348	800.000	0.068	0.195
-200.333	-75.686	0.127	-0.045
-199.319	601.586	-0.062	-0.151
-198.304	-58.797	-0.208	-0.089
-197.290	-112.253	0.375	0.074
-196.275	651.669	0.046	0.116
-195.260	-200.000	0.013	0.358
-194.246	-63.382	-0.251	0.101
-193.231	-14.171	-0.233	-0.148
-192.217	95.289	0.181	0.203
-191.202	-200.000	0.039	-0.298
-190.187	-41.952	0.281	0.142
-189.173	-200.000	0.023	0.138
-188.158	-46.241	-0.281	-0.136
-187.144	-24.492	-0.309	-0.181
-186.129	247.615	0.113	-0.187
-185.114	-123.624	0.082	-0.013
-184.100	-0.045	0.072	-0.051
-183.085	18.573	0.116	0.091
-182.071	-150.301	0.059	-0.004
-181.056	800.000	0.088	0.253
-180.042	800.000	0.028	-0.080
-179.027	-200.000	0.014	-0.097
-178.012	147.525	0.109	-0.145
-176.998	-105.097	-0.264	0.059
-175.983	-121.373	0.292	0.048
-174.969	-140.257	0.109	0.011
-173.954	-200.000	0.041	-0.394
-172.939	-133.177	0.122	0.015
-171.925	800.000	0.020	-0.070
-170.910	800.000	0.068	0.287
-169.896	-200.000	-0.000	0.042
-168.881	-135.655	0.345	-0.040
-167.866	-76.617	0.188	0.065
-166.852	-200.000	-0.051	0.283
-165.837	2.799	-0.157	-0.112
-164.823	36.418	-0.129	-0.112
-163.808	-66.318	-0.124	0.049
-162.793	590.196	0.052	-0.125
-161.779	-32.212	0.248	0.136
-160.764	-134.124	0.258	-0.031
-159.750	-200.000	-0.002	-0.095
-158.735	-200.000	0.027	-0.144
-157.720	-15.962	-0.201	0.126
-156.706	2.447	-0.175	-0.124
-155.691	-200.000	-0.011	-0.152
-154.677	195.729	0.030	-0.045
-153.662	-178.668	-0.243	0.005
-152.647	-99.947	0.144	0.035
-151.633	-71.185	0.153	-0.056
-150.618	-55.224	0.156	0.069
-149.604	57.393	0.173	-0.166
-148.589	-95.872	-0.083	-0.022
-147.574	-200.000	-0.013	-0.126
-146.560	226.051	-0.057	0.091
-145.545	628.456	0.069	-0.172
-144.531	800.000	0.071	0.281
-143.516	-125.458	0.318	-0.047
-142.502	149.051	-0.122	0.162
-141.487	-116.399	-0.114	0.021
-140.472	800.000	0.052	-0.218
-139.458	309.741	-0.068	-0.125
-138.443	102.605	0.215	0.247
-137.429	-163.836	-0.301	-0.014
-136.414	70.701	-0.086	0.087
-135.399	-200.000	0.000	-0.360
-134.385	216.431	-0.132	-0.206
-133.370	405.822	0.080	-0.165
-132.356	-200.000	-0.009	0.251
-131.341	-200.000	0.046	0.253
-130.326	265.021	0.168	0.287
-129.312	87.494	-0.154	-0.167
-128.297	-67.627	-0.324	-0.125
-127.283	91.491	-0.215	0.236
-126.268	-72.073	0.076	-0.028
-125.253	-200.000	0.002	-0.095
-124.239	-61.654	0.040	0.016
-123.224	-106.750	0.123	0.027
-122.210	66.204	-0.107	-0.106
-121.195	61.601	-0.264	-0.258
-120.180	-119.740	0.430	0.073
-119.166	-89.143	-0.181	0.052
-118.151	263.454	0.076	-0.129
-117.137	-101.644	-0.088	0.021
-116.122	800.000	0.167	0.557
-115.107	182.955	-0.059	0.085
-114.093	367.549	0.096	0.189
-113.078	800.000	-0.019	0.069
-112.064	-200.000	-0.002	0.033
-111.049	800.000	-0.117	0.324
-110.034	223.965	-0.067	0.107
-109.020	75.603	-0.201	0.209
-108.005	-200.000	-0.007	0.214
-106.991	-47.146	0.283	-0.135
-105.976	-92.080	0.460	-0.128
-104.962	356.941	-0.131	-0.256
-103.947	-96.643	-0.286	0.074
-102.932	670.716	0.038	0.096
-101.918	45.518	-0.145	0.131
-100.903	-40.688	0.187	-0.095
-99.889	-46.436	0.089	-0.043
-98.874	-88.226	-0.331	0.097
-97.859	800.000	0.074	-0.283
-96.845	-200.000	0.028	0.237
-95.830	60.314	0.239	-0.231
-94.816	150.052	0.229	-0.304
-93.801	1.082	0.206	-0.145
-92.786	-81.194	0.218	0.070
-91.772	-132.585	0.391	0.049
-90.757	118.625	-0.193	0.233
-89.743	67.753	0.111	-0.112
-88.728	-75.860	0.109	-0.038
-87.713	-113.300	0.235	-0.045
-86.699	-32.989	0.282	-0.153
-85.684	-162.883	0.129	-0.006
-84.670	-200.000	0.021	0.199
-83.655	-200.000	-0.023	-0.110
-82.640	800.000	-0.130	-0.358
-81.626	-200.000	0.011	-0.209
-80.611	87.668	0.131	0.142
-79.597	77.896	-0.247	0.258
-78.582	151.770	-0.123	-0.165
-77.567	-19.595	-0.214	0.129
-76.553	-48.653	0.298	0.140
-75.538	60.875	-0.092	0.090
-74.524	-5.578	-0.123	0.082
-73.509	-72.449	0.264	0.096
-72.494	300.602	0.077	0.139
-71.480	-54.748	0.440	0.195
-70.465	-60.625	-0.456	-0.189
-69.451	3.125	-0.274	-0.195
-68.436	366.451	-0.153	-0.302
-67.422	118.800	-0.112	-0.136
-66.407	800.000	0.029	0.086
-65.392	420.606	0.107	0.225
-64.378	68.108	0.161	-0.161
-63.363	562.046	0.153	-0.362
-62.349	800.000	0.029	-0.119
-61.334	82.297	-1.218	-1.293
-60.319	157.972	0.328	0.444
-59.305	800.000	-0.299	-0.832
-58.290	177.558	0.737	1.050
-57.276	800.000	0.329	1.160
-56.261	-200.000	113.176	659.672
-55.246	546.189	1515.593	3545.547
-54.232	177.884	2693.554	3842.644
-53.217	106.182	2281.982	2644.136
-52.203	37.815	1890.401	1642.874
-51.188	31.681	1679.838	1413.699
-50.173	29.047	1637.345	1358.465
-49.159	51.046	1693.979	1571.055
-48.144	50.077	1707.563	1576.341
-47.130	31.242	1665.089	1397.774
-46.115	28.443	1650.558	1364.715
-45.100	28.300	1645.092	1359.082
-44.086	28.229	1643.198	1356.938
-43.071	28.285	1640.384	1354.973
-42.057	28.184	1637.635	1351.901
-41.042	28.196	1636.350	1350.877
-40.027	28.342	1633.950	1349.923
-39.013	28.199	1632.166	1347.343
-37.998	28.200	1630.804	1346.170
-36.984	28.257	1629.416	1345.389
-35.969	28.191	1628.098	1343.759
-34.954	28.322	1626.063	1342.991
-33.940	28.342	1624.447	1341.750
-32.925	28.360	1622.362	1340.109
-31.911	28.378	1620.623	1338.748
-30.896	28.361	1619.461	1337.608
-29.881	28.413	1617.574	1336.379
-28.867	28.334	1615.939	1334.395
-27.852	28.392	1614.409	1333.501
-26.838	28.347	1613.157	1332.093
-25.823	28.417	1611.920	1331.527
-24.809	28.454	1610.373	1330.460
-23.794	28.402	1609.434	1329.259
-22.779	28.411	1607.775	1327.900
-21.765	28.364	1606.194	1326.198
-20.750	28.344	1604.722	1324.785
-19.736	28.429	1603.434	1324.283
-18.721	28.477	1602.011	1323.402
-17.706	28.419	1600.472	1321.663
-16.692	28.317	1599.840	1320.350
-15.677	28.455	1597.526	1319.381
-14.663	28.506	1596.117	1318.535
-13.648	28.540	1595.259	1318.017
-12.633	28.409	1593.807	1315.821
-11.619	28.449	1591.881	1314.471
-10.604	28.459	1590.228	1313.125
-9.590	28.437	1589.000	1311.899
-8.575	28.411	1587.856	1310.722
-7.560	28.425	1586.978	1310.042
-6.546	28.392	1585.755	1308.742
-5.531	28.391	1584.746	1307.852
-4.517	28.398	1583.769	1307.044
-3.502	28.482	1582.377	1306.440
-2.487	28.500	1580.902	1305.299
-1.473	28.165	1569.081	1293.122
-0.458	25.128	1550.128	1256.210
0.556	22.279	1551.501	1224.210
1.571	19.873	1574.899	1225.539
2.586	19.400	1587.220	1231.644
3.600	16.991	1533.185	1172.973
4.615	9.967	1425.984	1045.541
5.629	4.007	1367.268	965.324
6.644	3.175	1359.491	954.593
7.659	3.166	1358.681	953.880
8.673	2.975	1358.238	952.301
9.688	3.164	1355.843	951.708
10.702	3.110	1352.675	949.068
11.717	5.728	1358.261	969.108
12.731	13.333	1371.800	1026.015
13.746	19.460	1381.359	1071.231
14.761	20.539	1382.652	1078.841
15.775	19.971	1379.936	1073.103
16.790	18.836	1377.847	1064.356
17.804	18.024	1376.051	1057.853
18.819	17.802	1374.545	1055.226
19.834	17.571	1373.295	1052.744
20.848	17.457	1372.278	1051.172
21.863	17.119	1371.571	1048.450
22.877	17.100	1369.767	1046.857
23.892	17.137	1368.910	1046.341
24.907	17.033	1368.010	1044.919
25.921	16.953	1367.793	1044.168
26.936	16.977	1366.435	1043.190
27.950	17.182	1365.274	1043.467
28.965	17.210	1364.551	1042.995
29.980	17.376	1363.294	1042.958
30.994	17.354	1362.702	1042.279
32.009	17.421	1361.179	1041.430
33.023	17.408	1359.756	1040.171
34.038	17.313	1358.857	1038.810
35.053	17.210	1357.401	1036.977
36.067	17.243	1356.449	1036.360
37.082	17.373	1355.170	1036.085
38.096	17.377	1354.356	1035.396
39.111	17.453	1353.335	1034.981
40.126	17.137	1353.125	1032.812
41.140	17.051	1351.502	1030.957
42.155	16.904	1351.322	1029.838
43.169	16.861	1351.054	1029.279
44.184	16.834	1350.667	1028.733
45.199	16.977	1349.889	1028.913
46.213	17.005	1349.376	1028.602
47.228	17.241	1348.658	1029.394
48.242	17.140	1347.705	1027.961
49.257	17.163	1345.760	1026.526
50.271	17.111	1344.756	1025.357
51.286	17.087	1343.622	1024.257
52.301	17.191	1342.180	1023.693
53.315	17.026	1341.034	1021.738
54.330	17.044	1339.641	1020.690
55.344	16.978	1338.506	1019.342
56.359	16.986	1337.351	1018.421
57.374	16.915	1336.692	1017.403
58.388	16.858	1335.327	1015.931
59.403	16.836	1335.446	1015.801
60.417	16.790	1334.908	1015.026
61.432	16.832	1333.225	1013.903
62.447	16.759	1332.337	1012.702
63.461	16.601	1331.378	1010.945
64.476	16.683	1330.084	1010.359
65.490	16.641	1329.115	1009.281
66.505	16.731	1327.455	1008.467
67.520	16.595	1326.770	1007.048
68.534	16.740	1325.481	1006.847
69.549	16.739	1324.305	1005.859
70.563	16.727	1323.000	1004.707
71.578	16.652	1322.123	1003.509
72.593	16.503	1321.431	1002.009
73.607	16.478	1320.233	1000.865
74.622	16.506	1320.039	1000.796
75.636	16.577	1319.232	1000.515
76.651	16.657	1318.532	1000.366
77.666	16.564	1318.362	999.599
78.680	16.723	1317.523	999.817
79.695	16.767	1316.791	999.428
80.709	16.811	1316.596	999.451
81.724	16.996	1315.502	999.624
82.739	16.943	1314.638	998.569
83.753	17.090	1313.890	998.773
84.768	17.177	1313.136	998.624
85.782	17.318	1311.849	998.389
86.797	17.317	1310.661	997.389
87.812	17.193	1309.925	996.013
88.826	17.058	1308.679	994.185
89.841	17.273	1307.759	994.661
90.855	17.219	1306.674	993.432
91.870	17.418	1305.765	993.810
92.884	17.401	1304.755	992.859
93.899	17.404	1303.996	992.208
94.914	17.443	1303.428	991.915
95.928	17.325	1302.863	990.709
96.943	17.335	1301.553	989.686
97.957	17.361	1300.703	989.105
98.972	17.378	1299.314	988.055
99.987	17.394	1298.441	987.399
101.001	17.256	1297.876	986.079
102.016	17.406	1296.321	985.685
103.030	17.407	1296.085	985.422
104.045	17.335	1294.694	983.858
105.060	17.222	1293.124	981.927
106.074	17.027	1291.903	979.785
107.089	16.833	1290.381	977.430
108.103	16.734	1289.080	975.786
109.118	16.756	1287.986	974.996
110.133	16.705	1286.556	973.535
111.147	16.775	1285.442	973.005
112.162	16.868	1283.954	972.328
113.176	16.948	1282.963	971.949
114.191	16.899	1282.145	970.967
115.206	17.047	1280.833	970.733
116.220	16.895	1279.824	969.014
117.235	16.845	1278.605	967.718
118.249	16.838	1277.377	966.661
119.264	16.879	1276.260	965.969
120.279	16.762	1275.434	964.592
121.293	16.634	1274.544	963.100
122.308	16.701	1272.654	961.972
123.322	16.568	1271.954	960.601
124.337	16.610	1271.388	960.328
125.352	16.563	1270.088	958.993
126.366	16.513	1269.216	957.968
127.381	16.569	1268.009	957.285
128.395	16.575	1266.622	956.191
129.410	16.738	1265.909	956.489
130.424	16.843	1264.982	956.294
131.439	16.836	1264.164	955.552
132.454	16.876	1263.485	955.182
133.468	16.841	1263.035	954.556
134.483	16.836	1262.006	953.667
135.497	16.918	1261.079	953.342
136.512	16.903	1259.963	952.331
137.527	16.974	1258.471	951.520
138.541	17.010	1257.325	950.771
139.556	16.988	1256.098	949.636
140.570	17.005	1255.054	948.857
141.585	17.165	1253.978	948.852
142.600	17.300	1253.006	948.789
143.614	17.349	1251.845	948.098
144.629	17.435	1250.672	947.602
145.643	17.247	1250.221	946.133
146.658	17.196	1248.753	944.656
147.673	17.143	1247.006	942.956
148.687	16.939	1246.281	941.192
149.702	17.003	1244.675	940.249
150.716	16.960	1243.495	939.035
151.731	16.810	1242.456	937.338
152.746	16.898	1241.496	937.018
153.760	17.081	1240.325	937.060
154.775	17.187	1238.842	936.440
155.789	17.176	1237.935	935.614
156.804	17.139	1236.885	934.531
157.819	17.221	1235.927	934.180
158.833	17.193	1235.694	933.767
159.848	17.374	1234.724	933.943
160.862	17.369	1233.436	932.860
161.877	17.282	1231.847	931.100
162.892	17.116	1230.735	929.268
163.906	16.955	1229.869	927.649
164.921	16.993	1229.007	927.128
165.935	17.085	1228.573	927.222
166.950	17.199	1227.615	927.037
167.964	17.191	1227.206	926.601
168.979	17.151	1225.728	925.186
169.994	17.135	1225.612	924.927
171.008	17.084	1224.645	923.838
172.023	17.332	1223.891	924.540
173.037	17.407	1223.326	924.434
174.052	17.250	1222.184	922.638
175.067	17.130	1221.099	921.087
176.081	17.003	1220.128	919.586
177.096	17.159	1218.471	919.098
178.110	17.146	1217.803	918.443
179.125	17.051	1216.888	917.158
180.140	17.197	1215.458	916.788
181.154	17.200	1214.630	916.099
182.169	17.430	1213.180	916.165
183.183	17.381	1211.951	914.893
184.198	17.559	1211.082	915.111
185.213	17.409	1209.786	913.247
186.227	17.482	1209.027	912.985
187.242	17.521	1207.726	912.129
188.256	17.506	1207.317	911.659
189.271	17.635	1206.209	911.432
190.286	17.468	1204.869	909.449
191.300	17.113	1203.872	906.718
192.315	17.089	1202.864	905.749
193.329	17.079	1202.485	905.333
194.344	17.167	1201.717	905.141
195.359	17.267	1201.388	905.345
196.373	17.336	1201.272	905.548
197.388	17.402	1200.562	905.280
198.402	17.615	1200.851	906.552
199.417	17.718	1199.611	906.086
200.432	17.849	1198.966	906.216
201.446	17.849	1198.036	905.430
202.461	17.868	1197.367	904.947
203.475	17.837	1196.465	904.021
204.490	17.739	1195.056	902.358
205.504	17.635	1193.569	900.604
206.519	17.565	1192.227	899.145
207.534	17.569	1191.091	898.226
208.548	17.506	1190.235	897.168
209.563	17.631	1189.248	897.004
210.577	17.590	1188.604	896.226
211.592	17.667	1188.061	896.142
212.607	17.739	1187.430	895.962
213.621	17.818	1185.998	895.216
214.636	17.766	1185.467	894.462
215.650	17.791	1184.597	893.860
216.665	17.858	1183.755	893.495
217.680	17.893	1183.114	893.117
218.694	18.000	1182.196	892.904
219.709	18.008	1181.356	892.230
220.723	17.976	1180.808	891.571
221.738	17.926	1180.027	890.641
222.753	18.021	1179.075	890.339
223.767	17.953	1178.475	889.454
224.782	17.982	1178.066	889.218
225.796	18.071	1177.657	889.294
226.811	18.158	1176.691	888.938
227.826	17.918	1176.037	887.121
228.840	17.895	1174.913	886.074
229.855	17.929	1174.374	885.763
230.869	17.893	1173.367	884.741
231.884	17.939	1172.683	884.384
232.899	17.783	1171.884	882.894
233.913	17.786	1170.977	882.151
234.928	17.685	1170.314	881.051
235.942	17.712	1169.284	880.334
236.957	17.837	1168.430	880.262
237.972	17.714	1168.440	879.555
238.986	17.765	1167.723	879.199
240.001	17.687	1166.858	878.072
241.015	17.712	1165.876	877.382
242.030	17.997	1165.057	878.153
243.045	17.929	1164.408	877.236
244.059	17.908	1163.907	876.676
245.074	17.959	1162.941	876.132
246.088	18.130	1162.247	876.406
247.103	18.171	1161.415	875.914
248.117	18.233	1161.042	875.871
249.132	18.385	1160.324	876.032
250.147	18.613	1159.420	876.434
251.161	18.688	1158.606	876.123
252.176	18.705	1158.032	875.698
253.190	18.724	1157.819	875.555
254.205	18.781	1157.288	875.368
255.220	18.785	1156.530	874.738
256.234	18.770	1155.898	874.108
257.249	18.811	1154.683	873.320
258.263	18.693	1154.614	872.592
259.278	18.727	1153.689	871.986
260.293	18.742	1153.055	871.505
261.307	18.871	1152.584	871.725
262.322	18.810	1152.103	870.978
263.336	18.913	1151.197	870.735
264.351	18.824	1150.584	869.745
265.366	18.857	1150.232	869.570
266.380	18.936	1149.209	869.119
267.395	18.834	1148.176	867.745
268.409	18.797	1147.249	866.780
269.424	18.610	1147.057	865.613
270.439	18.809	1146.227	865.914
271.453	18.745	1145.508	864.974
272.468	18.685	1144.456	863.800
273.482	18.683	1143.397	862.915
274.497	18.684	1143.075	862.603
275.512	18.691	1142.603	862.204
276.526	18.688	1141.617	861.366
277.541	18.655	1141.166	860.784
278.555	18.706	1140.370	860.365
279.570	18.912	1139.821	860.908
280.585	19.016	1139.155	860.849
281.599	18.912	1138.484	859.743
282.614	18.896	1136.936	858.418
283.628	18.946	1135.927	857.833
284.643	18.829	1134.811	856.329
285.657	18.857	1134.541	856.187
286.672	18.861	1133.330	855.220
287.687	18.937	1132.225	854.690
288.701	18.925	1131.811	854.239
289.716	18.834	1130.889	853.016
290.730	18.932	1130.475	853.116
291.745	18.974	1129.747	852.697
292.760	18.841	1129.395	851.697
293.774	18.945	1128.657	851.584
294.789	19.171	1128.051	852.170
295.803	19.090	1127.511	851.285
296.818	18.984	1126.796	850.146
297.833	19.011	1125.784	849.442
298.847	19.024	1124.948	848.797
299.862	19.047	1123.892	848.041
300.876	18.977	1123.761	847.519
301.891	19.116	1122.895	847.476
302.906	19.177	1121.944	846.984
303.920	19.279	1121.644	847.183
304.935	19.371	1121.232	847.250
305.949	19.554	1120.606	847.598
306.964	19.477	1120.081	846.751
307.979	19.450	1119.149	845.839
308.993	19.333	1118.231	844.495
310.008	19.431	1117.587	844.414
311.022	19.323	1116.950	843.331
312.037	19.479	1115.957	843.269
313.052	19.304	1114.984	841.605
314.066	19.105	1113.999	839.815
315.081	19.065	1112.794	838.638
316.095	19.080	1112.364	838.312
317.110	18.918	1111.853	837.066
318.125	19.089	1111.018	837.194
319.139	19.090	1110.254	836.551
320.154	19.044	1109.611	835.766
321.168	19.100	1108.906	835.435
322.183	19.033	1108.648	834.842
323.197	19.078	1108.027	834.519
324.212	19.204	1107.399	834.580
325.227	19.241	1106.691	834.155
326.241	19.256	1106.324	833.875
327.256	19.247	1105.154	832.875
328.270	19.189	1103.984	831.642
329.285	19.133	1103.421	830.874
330.300	19.153	1102.650	830.317
331.314	19.170	1101.170	829.208
332.329	19.139	1100.454	828.450
333.343	19.240	1099.940	828.471
334.358	19.267	1099.143	827.929
335.373	19.471	1098.067	828.023
336.387	19.579	1097.339	827.920
337.402	19.523	1096.982	827.308
338.416	19.579	1096.064	826.814
339.431	19.601	1095.910	826.726
340.446	19.688	1095.590	826.827
341.460	19.766	1094.579	826.364
342.475	19.793	1093.974	825.967
343.489	19.906	1092.844	825.577
344.504	20.025	1091.518	825.067
345.519	19.991	1090.839	824.323
346.533	20.014	1090.455	824.066
347.548	20.096	1089.948	824.001
348.562	19.887	1089.057	822.261
349.577	19.740	1088.429	821.018
350.592	19.782	1086.922	820.008
351.606	19.605	1086.502	818.781
352.621	19.547	1085.924	817.998
353.635	19.611	1085.131	817.627
354.650	19.556	1084.549	816.860
355.665	19.665	1083.730	816.683
356.679	19.741	1083.439	816.751
357.694	19.780	1082.765	816.358
358.708	19.800	1081.889	815.715
359.723	19.678	1081.642	814.884
360.738	19.756	1081.007	814.703
361.752	19.808	1080.518	814.504
362.767	19.826	1080.135	814.228
363.781	19.738	1079.237	813.068
364.796	19.898	1078.786	813.407
365.810	20.205	1078.029	814.203
366.825	20.172	1077.657	813.698
367.840	20.338	1077.184	814.045
368.854	20.335	1076.668	813.569
369.869	20.315	1075.745	812.710
370.883	20.228	1074.873	811.571
371.898	20.140	1074.044	810.460
372.913	20.118	1073.567	809.925
373.927	20.238	1073.504	810.370
374.942	20.289	1072.583	809.840
375.956	20.255	1072.259	809.364
376.971	20.295	1071.329	808.775
377.986	20.333	1070.440	808.209
379.000	20.384	1070.558	808.466
380.015	20.489	1070.031	808.484
381.029	20.507	1069.115	807.805
382.044	20.505	1068.537	807.289
383.059	20.481	1067.774	806.528
384.073	20.476	1066.775	805.681
385.088	20.497	1065.916	805.057
386.102	20.476	1065.220	804.363
387.117	20.384	1063.807	802.797
388.132	20.210	1062.801	801.165
389.146	20.294	1062.218	801.044
390.161	20.244	1061.222	799.990
391.175	20.248	1060.509	799.399
392.190	20.316	1060.631	799.733
393.205	20.457	1059.406	799.388
394.219	20.420	1058.981	798.826
395.234	20.323	1058.149	797.681
396.248	20.397	1056.607	796.790
397.263	20.294	1055.984	795.778
398.278	20.284	1055.156	795.037
399.292	20.184	1054.242	793.821
400.307	20.212	1053.449	793.281
401.321	20.204	1053.112	792.919
402.336	20.174	1052.494	792.246
403.350	20.099	1051.855	791.356
404.365	20.261	1050.866	791.280
405.380	20.461	1050.340	791.725
406.394	20.461	1049.385	790.935
407.409	20.537	1048.797	790.768
408.423	20.598	1048.568	790.801
409.438	20.732	1047.697	790.686
410.453	20.739	1047.347	790.383
411.467	20.848	1046.326	790.035
412.482	20.844	1045.798	789.549
413.496	20.883	1045.245	789.238
414.511	20.976	1044.562	789.073
415.526	20.949	1044.490	788.826
416.540	21.096	1044.139	789.159
417.555	21.167	1043.543	788.956
418.569	20.968	1042.630	787.298
419.584	20.831	1042.217	786.298
420.599	20.927	1042.139	786.603
421.613	154.814	1403.421	1795.726
422.628	141.702	1456.005	1795.809
