DTS Sentinel unit serial number:	SN413079Multiplexer serial number:	ORYXHardware model number:	OX4-SRSoftware version number:	ORYX F/W v4.00 Oryx Data Collector v3.7.2.0data status	okinstallation	princeton_trtdifferential loss correction	single-endedforward channel	channel 2reverse channel	N/Adate	2019/09/17time	05:07:34forward acquisition time	60.00reverse acquisition time	0.00gamma	496.2192k internal	0.2329k external	0.2329temperature offset calibration	0.9978default loss term (dB/km)	0.3790temperature slope calibration	1.0000multiplexer offset coefficient	1.0000multiplexer slope coefficient	1.0000fibre end	0.00T internal ref (°C)	29.44T ext. ref 1 (°C)	0.14T ext. ref 2 (°C)	23.90length (m)	temperature (°C)	Stokes	anti-Stokes-747.200	40.657	-0.184	-0.167
-746.185	-81.799	0.059	-0.020
-745.171	-28.964	0.011	-0.007
-744.156	-101.852	0.176	-0.043
-743.142	577.834	-0.070	-0.171
-742.127	100.586	-0.165	0.193
-741.112	9.127	0.105	-0.080
-740.098	500.858	0.064	0.148
-739.083	-175.932	-0.259	-0.007
-738.069	800.000	0.130	0.381
-737.054	-161.974	-0.189	-0.010
-736.039	-61.835	-0.245	0.103
-735.025	-61.470	0.419	0.177
-734.010	-200.000	0.004	0.241
-732.996	31.093	-0.134	-0.115
-731.981	-200.000	-0.050	0.306
-730.966	-50.885	0.209	0.099
-729.952	-200.000	-0.003	-0.376
-728.937	265.674	-0.248	-0.436
-727.923	-90.059	0.142	-0.042
-726.908	-10.622	-0.073	0.049
-725.894	-16.429	-0.259	-0.165
-724.879	156.054	-0.085	-0.118
-723.864	66.041	-0.092	0.094
-722.850	-200.000	0.073	-0.404
-721.835	513.198	-0.046	-0.109
-720.821	800.000	-0.072	-0.292
-719.806	482.878	0.067	0.154
-718.791	25.686	-0.304	-0.255
-717.777	-200.000	-0.063	0.377
-716.762	-200.000	0.041	0.247
-715.748	239.344	-0.182	-0.305
-714.733	-91.078	0.197	-0.057
-713.718	-66.858	-0.210	0.084
-712.704	800.000	0.018	0.053
-711.689	-200.000	0.000	0.143
-710.675	800.000	0.128	-0.429
-709.660	-200.000	-0.074	-0.472
-708.645	-41.443	-0.116	0.060
-707.631	-200.000	-0.005	0.240
-706.616	-126.612	0.232	0.035
-705.602	-11.478	0.234	0.155
-704.587	-69.770	0.077	0.030
-703.572	-132.515	-0.112	-0.014
-702.558	131.942	0.226	0.293
-701.543	20.330	0.138	0.112
-700.529	21.995	-0.031	-0.025
-699.514	800.000	-0.022	0.083
-698.499	-26.289	0.148	-0.087
-697.485	-14.285	0.055	0.036
-696.470	-78.413	-0.181	-0.062
-695.456	800.000	0.050	0.142
-694.441	-77.250	0.342	0.120
-693.426	-152.177	0.233	0.017
-692.412	-74.533	-0.490	0.178
-691.397	-200.000	-0.018	0.142
-690.383	-127.406	-0.192	0.028
-689.368	-200.000	-0.227	-0.001
-688.354	-200.000	0.004	0.122
-687.339	800.000	-0.058	-0.195
-686.324	2.740	0.254	0.185
-685.310	112.524	-0.237	-0.288
-684.295	137.019	-0.181	-0.237
-683.281	-103.495	0.124	0.029
-682.266	-94.941	0.281	-0.076
-681.251	-72.397	-0.240	0.089
-680.237	53.596	-0.089	0.086
-679.222	-125.501	-0.148	-0.023
-678.208	-92.328	0.061	0.017
-677.193	-76.558	-0.218	-0.077
-676.178	72.420	-0.216	-0.227
-675.164	-104.358	0.100	0.023
-674.149	450.326	-0.062	0.138
-673.135	-97.231	-0.131	0.034
-672.120	133.974	-0.040	0.052
-671.105	518.368	-0.143	-0.336
-670.091	498.322	0.158	-0.366
-669.076	577.779	-0.041	0.100
-668.062	800.000	0.071	-0.254
-667.047	9.706	-0.091	0.069
-666.032	-127.139	0.184	0.027
-665.018	61.350	0.048	0.048
-664.003	-159.667	-0.184	-0.010
-662.989	-200.000	-0.005	0.256
-661.974	38.420	-0.277	0.248
-660.959	453.956	-0.076	-0.169
-659.945	-200.000	-0.008	-0.093
-658.930	209.669	-0.133	0.210
-657.916	54.445	-0.131	-0.127
-656.901	37.260	-0.104	-0.092
-655.886	-15.194	0.228	-0.147
-654.872	76.649	0.164	-0.175
-653.857	-200.000	-0.020	-0.422
-652.843	-74.030	0.483	0.176
-651.828	50.636	0.121	0.115
-650.814	-36.966	-0.147	0.079
-649.799	-39.870	-0.190	-0.099
-648.784	622.998	0.102	0.257
-647.770	-200.000	0.042	-0.344
-646.755	-114.815	-0.055	-0.010
-645.741	-200.000	-0.038	-0.499
-644.726	-57.340	-0.141	-0.062
-643.711	-200.000	0.001	-0.066
-642.697	-200.000	0.022	0.262
-641.682	175.127	-0.110	0.160
-640.668	107.797	0.238	-0.284
-639.653	-200.000	-0.033	0.149
-638.638	6.649	-0.190	-0.141
-637.624	-200.000	0.013	0.274
-636.609	540.621	0.086	-0.206
-635.595	60.299	-0.098	-0.097
-634.580	-113.386	-0.138	-0.027
-633.565	-169.903	0.216	0.008
-632.551	-5.142	0.056	-0.038
-631.536	-13.162	-0.190	0.124
-630.522	-119.190	-0.380	-0.067
-629.507	-200.000	-0.034	-0.416
-628.492	800.000	0.090	-0.279
-627.478	-104.949	-0.246	-0.056
-626.463	800.000	-0.081	-0.256
-625.449	800.000	-0.048	0.178
-624.434	-103.924	-0.085	-0.020
-623.419	-200.000	0.011	-0.156
-622.405	21.897	-0.184	-0.150
-621.390	289.813	-0.010	-0.017
-620.376	29.338	-0.089	-0.076
-619.361	-192.207	-0.384	-0.004
-618.346	76.074	-0.231	-0.245
-617.332	-188.800	-0.251	-0.003
-616.317	-114.046	0.059	-0.011
-615.303	-200.000	0.031	0.172
-614.288	-29.292	-0.239	0.137
-613.273	371.985	0.123	-0.251
-612.259	381.788	0.189	0.389
-611.244	-27.804	-0.122	0.071
-610.230	206.949	0.129	-0.201
-609.215	416.540	-0.045	0.096
-608.201	-100.445	0.172	0.043
-607.186	-5.480	-0.225	-0.155
-606.171	-200.000	0.009	0.226
-605.157	-136.386	0.276	0.032
-604.142	-200.000	-0.038	-0.331
-603.128	-127.770	0.244	-0.035
-602.113	800.000	0.053	-0.203
-601.098	-200.000	0.006	0.042
-600.084	-136.773	-0.150	-0.017
-599.069	800.000	0.047	-0.187
-598.055	-69.734	0.155	0.059
-597.040	-145.954	0.094	0.008
-596.025	-137.735	-0.362	-0.041
-595.011	750.784	0.069	0.186
-593.996	-3.760	-0.221	0.153
-592.982	566.694	0.082	-0.199
-591.967	-84.282	-0.263	0.083
-590.952	552.918	-0.062	-0.149
-589.938	-153.034	-0.365	-0.026
-588.923	308.684	-0.071	-0.134
-587.909	33.258	0.105	0.091
-586.894	162.898	0.104	-0.146
-585.879	71.933	0.135	-0.141
-584.865	-163.453	0.061	-0.003
-583.850	328.870	-0.045	0.086
-582.836	244.205	-0.178	0.299
-581.821	-116.881	0.139	-0.025
-580.806	-133.042	0.132	-0.017
-579.792	44.525	0.061	-0.056
-578.777	193.668	-0.137	0.207
-577.763	-75.711	-0.034	-0.012
-576.748	-112.114	-0.045	-0.009
-575.733	-54.826	-0.096	0.043
-574.719	-130.190	-0.258	-0.035
-573.704	269.125	-0.123	-0.215
-572.690	150.032	-0.180	-0.244
-571.675	-197.414	0.245	0.002
-570.661	-37.771	-0.280	0.149
-569.646	158.262	0.112	-0.155
-568.631	800.000	0.069	-0.201
-567.617	151.772	0.161	0.219
-566.602	233.062	-0.206	-0.339
-565.588	-162.736	0.046	0.002
-564.573	-14.159	-0.089	0.057
-563.558	-178.783	-0.178	0.004
-562.544	273.355	-0.098	-0.173
-561.529	800.000	-0.073	-0.309
-560.515	-39.770	0.281	0.147
-559.500	28.927	-0.220	-0.186
-558.485	207.065	-0.066	0.102
-557.471	-200.000	-0.005	0.167
-556.456	7.062	-0.114	-0.085
-555.442	256.288	-0.015	-0.026
-554.427	-200.000	-0.019	0.103
-553.412	-200.000	-0.001	-0.007
-552.398	167.785	0.037	-0.053
-551.383	-66.207	-0.118	-0.047
-550.369	181.044	0.066	0.097
-549.354	397.273	0.145	0.302
-548.339	-8.016	-0.146	-0.098
-547.325	434.169	0.064	0.140
-546.310	-171.497	-0.142	-0.005
-545.296	205.479	-0.186	-0.288
-544.281	800.000	0.027	-0.095
-543.266	-108.022	0.115	-0.025
-542.252	60.264	0.165	-0.163
-541.237	3.455	0.305	-0.222
-540.223	-200.000	0.004	-0.083
-539.208	363.320	0.054	-0.107
-538.193	-97.830	-0.175	-0.045
-537.179	-200.000	0.002	-0.131
-536.164	152.835	0.202	-0.276
-535.150	210.083	-0.147	-0.231
-534.135	-81.162	0.507	-0.168
-533.121	800.000	-0.072	0.206
-532.106	12.241	-0.299	0.230
-531.091	185.244	-0.164	-0.243
-530.077	236.359	-0.149	0.247
-529.062	5.664	-0.413	0.305
-528.048	370.649	0.101	-0.205
-527.033	800.000	0.054	-0.154
-526.018	-0.530	-0.242	-0.171
-525.004	-14.184	0.142	-0.091
-523.989	-200.000	-0.017	0.189
-522.975	-200.000	-0.032	-0.224
-521.960	-200.000	0.018	0.102
-520.945	280.910	0.241	-0.430
-519.931	-149.822	-0.101	0.008
-518.916	102.080	0.148	-0.173
-517.902	-59.703	0.223	0.095
-516.887	-93.966	0.276	0.076
-515.872	61.655	0.120	0.119
-514.858	-88.092	-0.108	-0.032
-513.843	-39.777	-0.160	0.083
-512.829	193.498	-0.017	0.025
-511.814	306.212	-0.056	0.105
-510.799	-4.140	-0.083	-0.058
-509.785	766.449	0.132	-0.359
-508.770	-129.550	-0.216	0.030
-507.756	401.183	-0.071	-0.148
-506.741	-112.250	0.275	0.055
-505.726	-200.000	0.003	-0.031
-504.712	1.600	-0.207	0.149
-503.697	225.496	-0.113	0.183
-502.683	-98.174	-0.172	0.044
-501.668	800.000	0.092	-0.296
-500.653	-200.000	-0.020	-0.267
-499.639	-177.078	-0.073	0.002
-498.624	43.538	0.089	0.081
-497.610	-91.545	-0.173	0.049
-496.595	-32.763	-0.076	-0.042
-495.581	86.151	0.129	0.142
-494.566	-200.000	0.008	0.070
-493.551	56.088	-0.051	-0.050
-492.537	800.000	-0.044	0.164
-491.522	372.287	0.063	-0.128
-490.508	-200.000	-0.046	-0.228
-489.493	-124.924	0.066	0.010
-488.478	11.594	0.087	-0.066
-487.464	-68.316	-0.165	0.064
-486.449	-130.369	-0.238	-0.032
-485.435	105.844	-0.198	-0.234
-484.420	-200.000	0.051	0.269
-483.405	20.755	-0.124	0.100
-482.391	105.752	-0.026	0.030
-481.376	-118.067	0.274	-0.049
-480.362	-200.000	-0.017	0.075
-479.347	15.156	0.144	0.113
-478.332	-34.846	-0.254	0.138
-477.318	-152.646	0.074	-0.005
-476.303	-38.738	-0.019	0.010
-475.289	13.782	-0.264	0.205
-474.274	-200.000	0.027	0.285
-473.259	-142.508	0.400	0.039
-472.245	800.000	0.080	-0.305
-471.230	34.259	0.105	-0.091
-470.216	75.321	0.091	0.095
-469.201	800.000	0.093	-0.328
-468.186	24.250	0.317	0.261
-467.172	77.554	0.091	-0.097
-466.157	46.502	0.058	0.054
-465.143	-182.256	-0.226	0.004
-464.128	322.709	0.145	0.276
-463.113	-14.340	0.214	0.137
-462.099	-200.000	-0.023	-0.120
-461.084	-200.000	0.011	0.268
-460.070	800.000	-0.042	-0.179
-459.055	384.533	-0.063	-0.129
-458.040	36.533	-0.122	-0.107
-457.026	144.936	0.113	-0.150
-456.011	-19.303	-0.196	-0.121
-454.997	-77.091	0.401	0.139
-453.982	-100.293	-0.202	0.050
-452.968	-19.171	-0.071	-0.044
-451.953	800.000	0.051	0.214
-450.938	3.254	0.193	0.140
-449.924	-149.453	0.123	0.010
-448.909	335.010	0.092	-0.178
-447.895	-183.830	-0.091	0.002
-446.880	217.808	0.138	0.219
-445.865	-200.000	-0.008	-0.190
-444.851	129.338	0.146	0.185
-443.836	17.676	0.237	0.188
-442.822	31.182	-0.267	0.228
-441.807	107.979	0.254	0.301
-440.792	-129.112	-0.204	-0.028
-439.778	284.770	-0.152	-0.272
-438.763	506.733	-0.086	0.197
-437.749	53.727	0.162	-0.154
-436.734	-200.000	0.051	-0.257
-435.719	184.354	0.172	0.254
-434.705	23.328	0.319	-0.261
-433.690	235.828	0.085	0.140
-432.676	-90.302	0.156	0.045
-431.661	-200.000	0.015	0.134
-430.646	-200.000	-0.023	0.121
-429.632	45.319	0.109	0.100
-428.617	800.000	0.051	-0.144
-427.603	578.016	-0.113	0.275
-426.588	7.202	0.079	0.059
-425.573	614.554	0.042	-0.103
-424.559	9.511	0.354	-0.267
-423.544	-12.727	-0.356	0.231
-422.530	800.000	0.042	-0.152
-421.515	-107.436	-0.062	-0.014
-420.500	-179.260	0.092	-0.002
-419.486	254.348	0.138	0.234
-418.471	-200.000	0.040	-0.296
-417.457	800.000	-0.056	-0.159
-416.442	-160.523	-0.135	0.007
-415.428	135.385	-0.101	-0.130
-414.413	706.451	-0.083	-0.217
-413.398	-32.157	0.074	0.041
-412.384	-200.000	0.019	0.223
-411.369	-118.837	0.439	0.077
-410.355	-58.732	0.238	0.103
-409.340	-46.541	-0.322	0.157
-408.325	719.054	-0.112	0.295
-407.311	-41.737	-0.284	0.145
-406.296	-10.175	-0.243	-0.160
-405.282	697.675	-0.049	0.129
-404.267	800.000	0.118	0.349
-403.252	-168.928	-0.269	-0.010
-402.238	194.341	0.247	-0.372
-401.223	-8.958	-0.170	0.113
-400.209	-37.771	-0.166	0.088
-399.194	-200.000	-0.007	0.110
-398.179	216.859	0.058	-0.092
-397.165	-119.556	0.416	0.072
-396.150	-37.964	-0.432	0.228
-395.136	130.973	-0.092	0.117
-394.121	-200.000	0.003	-0.114
-393.106	-139.535	-0.077	0.008
-392.092	-138.143	-0.433	0.048
-391.077	73.480	-0.038	0.039
-390.063	-130.916	-0.194	-0.026
-389.048	-148.621	0.118	-0.010
-388.033	-14.538	-0.115	0.074
-387.019	800.000	0.048	0.141
-386.004	187.326	0.200	-0.296
-384.990	354.448	-0.174	-0.344
-383.975	-200.000	0.006	-0.156
-382.960	15.197	-0.026	-0.021
-381.946	47.403	0.112	0.103
-380.931	-122.835	0.249	-0.040
-379.917	263.834	0.058	0.101
-378.902	-48.238	-0.195	-0.093
-377.888	-11.912	0.063	0.041
-376.873	-159.356	0.293	-0.016
-375.858	-85.089	-0.293	0.091
-374.844	-91.687	0.124	-0.035
-373.829	-130.346	0.459	0.062
-372.815	375.887	0.140	-0.283
-371.800	800.000	-0.075	-0.251
-370.785	-30.712	0.244	-0.137
-369.771	-128.084	-0.248	-0.035
-368.756	117.120	0.210	-0.257
-367.742	-141.662	-0.352	0.035
-366.727	-87.584	-0.040	0.012
-365.712	-128.844	-0.380	-0.053
-364.698	-200.000	-0.027	-0.202
-363.683	112.113	-0.216	-0.259
-362.669	-200.000	0.026	0.175
-361.654	75.490	0.193	0.202
-360.639	800.000	0.028	0.101
-359.625	-200.000	-0.013	0.128
-358.610	-200.000	0.055	0.311
-357.596	408.501	-0.106	-0.223
-356.581	-7.076	0.096	-0.065
-355.566	93.996	0.201	-0.226
-354.552	-154.919	-0.110	0.007
-353.537	67.689	-0.244	0.247
-352.523	482.375	-0.082	-0.185
-351.508	-99.977	0.186	0.046
-350.493	-164.877	0.293	-0.013
-349.479	144.077	0.073	-0.097
-348.464	17.347	-0.026	0.020
-347.450	-200.000	0.004	0.088
-346.435	-153.307	0.123	0.009
-345.420	59.679	0.193	0.189
-344.406	800.000	-0.041	0.157
-343.391	-119.727	0.408	-0.070
-342.377	294.130	0.086	-0.156
-341.362	-3.033	-0.094	0.065
-340.348	-81.758	0.251	0.082
-339.333	-86.559	0.088	-0.027
-338.318	20.264	-0.296	-0.237
-337.304	-200.000	-0.007	0.157
-336.289	-82.714	0.142	-0.045
-335.275	800.000	0.073	-0.230
-334.260	499.378	-0.109	-0.250
-333.245	-60.757	0.278	0.117
-332.231	-84.574	0.329	0.103
-331.216	-138.250	-0.538	-0.059
-330.202	269.049	-0.053	0.092
-329.187	800.000	0.074	-0.270
-328.172	295.004	0.095	-0.172
-327.158	141.453	0.134	0.175
-326.143	-200.000	-0.014	-0.246
-325.129	-85.740	0.096	-0.029
-324.114	-200.000	0.018	-0.108
-323.099	368.661	-0.048	-0.097
-322.085	663.996	-0.058	-0.149
-321.070	-21.128	-0.192	-0.116
-320.056	135.798	-0.131	-0.169
-319.041	-200.000	0.437	0.002
-318.026	27.223	-0.220	0.183
-317.012	48.257	-0.201	-0.186
-315.997	800.000	0.028	0.089
-314.983	18.502	0.112	0.089
-313.968	800.000	-0.045	0.128
-312.953	-200.000	-0.006	0.270
-311.939	-200.000	0.048	-0.241
-310.924	800.000	0.093	-0.276
-309.910	-5.175	-0.166	-0.113
-308.895	-200.000	-0.035	-0.282
-307.880	-200.000	-0.010	0.086
-306.866	22.630	0.144	-0.117
-305.851	-120.523	-0.233	-0.039
-304.837	-26.740	0.128	-0.074
-303.822	510.816	0.116	0.268
-302.807	53.088	-0.045	-0.043
-301.793	800.000	-0.065	-0.197
-300.778	-121.799	0.260	0.042
-299.764	171.950	-0.113	-0.161
-298.749	576.765	0.012	0.029
-297.735	271.961	0.086	-0.151
-296.720	-144.362	0.215	0.020
-295.705	-1.009	0.279	0.195
-294.691	2.318	-0.300	0.215
-293.676	-147.639	-0.390	-0.032
-292.662	-200.000	-0.045	0.306
-291.647	-119.134	-0.193	-0.033
-290.632	-200.000	-0.009	-0.306
-289.618	800.000	-0.042	0.130
-288.603	800.000	-0.076	-0.207
-287.589	-154.854	-0.343	0.022
-286.574	800.000	0.111	0.344
-285.559	252.487	0.119	-0.201
-284.545	-115.208	-0.178	-0.033
-283.530	-18.961	-0.323	-0.199
-282.516	-200.000	0.026	0.268
-281.501	-112.098	-0.373	0.074
-280.486	-125.205	-0.149	-0.022
-279.472	-102.041	-0.082	-0.020
-278.457	467.387	0.164	-0.364
-277.443	135.227	-0.045	0.058
-276.428	-200.000	-0.030	-0.332
-275.413	800.000	0.079	-0.247
-274.399	-35.950	0.151	0.081
-273.384	-200.000	0.062	0.311
-272.370	-13.502	0.428	-0.274
-271.355	11.259	0.234	-0.177
-270.340	800.000	-0.029	0.110
-269.326	-63.869	0.216	-0.088
-268.311	51.983	0.192	-0.181
-267.297	-171.109	0.196	0.007
-266.282	267.937	0.115	0.198
-265.267	174.332	-0.134	0.191
-264.253	58.271	-0.113	0.109
-263.238	-64.137	-0.146	-0.059
-262.224	-15.366	0.025	-0.016
-261.209	320.098	-0.012	0.022
-260.195	63.965	-0.254	0.253
-259.180	198.750	0.072	0.109
-258.165	39.860	-0.191	0.170
-257.151	-200.000	-0.007	0.070
-256.136	-16.951	-0.368	0.230
-255.122	-72.930	0.202	0.073
-254.107	576.234	-0.062	0.150
-253.092	96.104	-0.127	0.144
-252.078	30.258	0.279	0.235
-251.063	-81.592	0.291	0.094
-250.049	-200.000	-0.003	-0.206
-249.034	150.205	-0.128	0.172
-248.019	-11.403	-0.140	0.091
-247.005	46.552	-0.176	-0.161
-245.990	-200.000	-0.013	0.061
-244.976	-42.311	-0.307	-0.155
-243.961	84.182	0.240	0.260
-242.946	308.346	0.062	-0.114
-241.932	-141.963	0.102	-0.010
-240.917	-200.000	-0.006	0.244
-239.903	-31.754	0.193	0.107
-238.888	136.704	0.067	0.087
-237.873	-131.846	-0.437	-0.056
-236.859	125.567	0.099	0.124
-235.844	-0.998	0.158	-0.110
-234.830	-200.000	-0.029	-0.227
-233.815	-200.000	0.029	-0.162
-232.800	-10.431	0.141	0.092
-231.786	237.092	0.017	-0.027
-230.771	-143.898	0.197	-0.018
-229.757	46.247	0.216	0.198
-228.742	-200.000	-0.059	-0.335
-227.727	-6.696	-0.198	-0.133
-226.713	170.378	-0.116	0.163
-225.698	800.000	0.117	0.361
-224.684	39.055	0.222	0.196
-223.669	0.488	-0.094	-0.066
-222.655	197.824	-0.049	0.074
-221.640	-140.155	0.101	-0.010
-220.625	-32.254	0.135	-0.075
-219.611	-200.000	0.080	0.373
-218.596	-129.196	0.043	0.006
-217.582	469.276	-0.125	0.278
-216.567	-200.000	-0.016	-0.409
-215.552	82.633	-0.061	0.065
-214.538	-89.624	0.056	-0.016
-213.523	800.000	0.061	0.261
-212.509	15.453	0.304	0.235
-211.494	-200.000	0.218	-0.001
-210.479	-127.535	0.203	-0.029
-209.465	210.490	0.085	-0.131
-208.450	9.668	0.130	-0.097
-207.436	-200.000	-0.044	0.480
-206.421	-141.470	0.194	0.019
-205.406	158.180	0.201	0.275
-204.392	-43.014	0.180	0.090
-203.377	11.396	-0.178	-0.134
-202.363	800.000	-0.079	-0.232
-201.348	800.000	-0.018	0.058
-200.333	-200.000	-0.075	0.421
-199.319	-26.445	-0.158	-0.091
-198.304	124.647	0.176	0.219
-197.290	-200.000	-0.084	0.450
-196.275	38.440	-0.301	0.264
-195.260	142.540	-0.103	0.135
-194.246	381.841	0.140	-0.284
-193.231	-140.430	0.086	-0.009
-192.217	-137.661	0.061	-0.007
-191.202	-119.354	-0.276	-0.047
-190.187	186.478	-0.086	0.126
-189.173	12.855	0.078	0.060
-188.158	-60.694	0.169	0.071
-187.144	-133.995	0.326	0.040
-186.129	286.065	0.099	0.175
-185.114	-200.000	0.008	0.110
-184.100	9.460	0.201	0.150
-183.085	-98.305	0.064	0.016
-182.071	126.883	0.082	0.102
-181.056	1.633	-0.249	0.177
-180.042	74.446	0.192	0.199
-179.027	-159.320	-0.277	0.015
-178.012	-200.000	0.003	0.282
-176.998	-34.167	-0.023	0.012
-175.983	35.337	-0.053	0.046
-174.969	800.000	-0.119	-0.371
-173.954	-200.000	0.015	0.081
-172.939	293.642	0.042	-0.075
-171.925	-9.310	0.398	0.262
-170.910	-141.924	0.104	0.010
-169.896	-66.674	0.108	-0.042
-168.881	800.000	0.027	-0.114
-167.866	-43.365	-0.125	0.062
-166.852	800.000	0.140	0.449
-165.837	-38.273	-0.363	0.189
-164.823	-12.298	0.123	-0.079
-163.808	66.473	-0.085	-0.085
-162.793	800.000	0.084	0.288
-161.779	201.986	0.124	-0.188
-160.764	186.440	-0.098	-0.144
-159.750	-70.727	-0.333	-0.124
-158.735	80.758	0.078	-0.083
-157.720	-200.000	0.021	0.208
-156.706	-70.307	-0.072	-0.027
-155.691	-83.759	-0.059	0.019
-154.677	453.265	0.114	-0.248
-153.662	-200.000	0.060	-0.342
-152.647	-200.000	-0.034	0.234
-151.633	-200.000	0.070	0.564
-150.618	-56.729	0.230	0.100
-149.604	631.907	-0.097	0.241
-148.589	-93.728	-0.122	0.033
-147.574	800.000	0.067	0.183
-146.560	800.000	-0.040	0.173
-145.545	-200.000	0.018	-0.231
-144.531	151.217	-0.094	0.126
-143.516	-200.000	-0.011	0.444
-142.502	22.174	-0.096	-0.078
-141.487	-153.645	0.054	-0.004
-140.472	-200.000	0.044	-0.201
-139.458	-35.540	0.145	0.078
-138.443	750.597	-0.103	0.275
-137.429	426.426	0.110	0.233
-136.414	800.000	-0.045	0.182
-135.399	138.045	-0.050	-0.064
-134.385	77.263	0.239	0.250
-133.370	-200.000	-0.006	-0.137
-132.356	152.995	-0.097	0.131
-131.341	48.617	0.160	-0.147
-130.326	-200.000	0.016	-0.121
-129.312	-200.000	0.065	-0.289
-128.297	-148.822	-0.207	0.017
-127.283	47.276	0.154	0.141
-126.268	46.401	-0.067	-0.061
-125.253	-178.055	-0.199	0.005
-124.239	-106.472	0.084	-0.018
-123.224	-19.302	-0.099	0.060
-122.210	20.482	0.175	0.139
-121.195	-63.603	-0.242	0.098
-120.180	-131.559	-0.201	0.026
-119.166	142.011	-0.079	0.103
-118.151	-200.000	0.022	-0.186
-117.137	19.334	0.290	-0.229
-116.122	97.038	0.220	0.248
-115.107	-134.265	0.320	-0.039
-114.093	2.274	-0.327	0.233
-113.078	-18.122	-0.363	0.223
-112.064	-86.155	-0.209	-0.063
-111.049	-27.785	0.072	0.041
-110.034	800.000	-0.012	-0.044
-109.020	27.771	-0.068	-0.057
-108.005	271.320	-0.086	0.149
-106.991	-112.955	-0.264	-0.051
-105.976	700.064	-0.131	0.338
-104.962	800.000	-0.018	0.064
-103.947	-36.890	0.146	-0.077
-102.932	-60.023	0.157	-0.066
-101.918	-77.796	0.209	-0.071
-100.903	-97.849	0.052	0.013
-99.889	800.000	-0.021	0.070
-98.874	461.276	0.018	0.040
-97.859	-24.587	0.054	-0.032
-96.845	-5.482	0.228	0.154
-95.830	94.044	-0.113	-0.126
-94.816	800.000	0.134	-0.523
-93.801	-110.213	-0.163	-0.033
-92.786	-29.111	0.085	-0.048
-91.772	777.852	0.187	-0.502
-90.757	-200.000	0.005	0.028
-89.743	800.000	-0.066	0.222
-88.728	89.779	0.138	-0.152
-87.713	-200.000	-0.044	-0.275
-86.699	-54.812	-0.237	-0.105
-85.684	-112.790	0.341	0.066
-84.670	-171.000	-0.281	0.009
-83.655	800.000	0.061	0.224
-82.640	-75.687	0.274	0.095
-81.626	-103.456	0.268	-0.062
-80.611	-27.708	-0.295	0.168
-79.597	-7.631	0.265	-0.176
-78.582	-23.792	-0.112	-0.066
-77.567	-200.000	-0.008	-0.078
-76.553	-200.000	0.069	0.309
-75.538	241.246	-0.167	-0.274
-74.524	184.049	0.108	-0.157
-73.509	-28.391	-0.222	-0.125
-72.494	34.535	0.178	-0.152
-71.480	271.273	-0.027	-0.047
-70.465	357.172	-0.140	0.273
-69.451	-165.119	-0.185	0.008
-68.436	-2.481	-0.277	-0.191
-67.422	-146.803	0.236	-0.020
-66.407	-42.455	-0.180	0.090
-65.392	381.194	0.067	-0.135
-64.378	-150.839	0.201	-0.015
-63.363	-130.281	-0.250	-0.033
-62.349	-68.581	0.152	0.058
-61.334	59.247	-1.067	-1.031
-60.319	639.558	0.304	0.760
-59.305	-200.000	-0.202	-1.046
-58.290	242.127	0.880	1.443
-57.276	593.110	0.647	1.567
-56.261	-200.000	108.657	599.383
-55.246	447.137	1489.057	3212.537
-54.232	145.234	2682.515	3520.190
-53.217	99.741	2293.771	2604.447
-52.203	38.496	1903.748	1664.106
-51.188	32.653	1692.030	1434.664
-50.173	30.037	1649.211	1378.861
-49.159	49.670	1702.731	1572.540
-48.144	49.627	1718.273	1586.509
-47.130	32.248	1675.772	1417.603
-46.115	29.570	1661.086	1385.066
-45.100	29.379	1656.070	1379.401
-44.086	29.322	1653.419	1376.714
-43.071	29.234	1651.052	1374.031
-42.057	29.330	1648.088	1372.225
-41.042	29.312	1645.950	1370.256
-40.027	29.274	1644.199	1368.466
-39.013	29.317	1642.517	1367.328
-37.998	29.254	1641.205	1365.717
-36.984	29.357	1639.307	1364.841
-35.969	29.449	1638.162	1364.517
-34.954	29.532	1636.383	1363.597
-33.940	29.423	1634.863	1361.465
-32.925	29.418	1633.300	1360.078
-31.911	29.451	1631.726	1358.951
-30.896	29.413	1629.673	1356.908
-29.881	29.420	1628.394	1355.844
-28.867	29.370	1626.459	1353.815
-27.852	29.425	1624.978	1352.925
-26.838	29.414	1623.649	1351.687
-25.823	29.417	1622.425	1350.634
-24.809	29.479	1621.339	1350.135
-23.794	29.475	1619.468	1348.493
-22.779	29.472	1618.028	1347.219
-21.765	29.359	1616.285	1344.892
-20.750	29.458	1614.504	1344.077
-19.736	29.471	1613.356	1343.157
-18.721	29.488	1611.661	1341.820
-17.706	29.561	1610.158	1341.047
-16.692	29.369	1609.131	1338.743
-15.677	29.564	1607.410	1338.668
-14.663	29.565	1605.748	1337.239
-13.648	29.464	1604.942	1335.786
-12.633	29.462	1603.418	1334.452
-11.619	29.463	1601.576	1332.870
-10.604	29.436	1600.032	1331.336
-9.590	29.449	1599.081	1330.592
-8.575	29.547	1597.273	1329.737
-7.560	29.492	1596.345	1328.519
-6.546	29.419	1595.245	1327.025
-5.531	29.453	1593.846	1326.053
-4.517	29.416	1593.096	1325.106
-3.502	29.444	1591.809	1324.185
-2.487	29.554	1589.820	1323.267
-1.473	29.320	1577.766	1311.519
-0.458	26.318	1559.143	1274.844
0.556	20.996	1559.983	1242.424
1.571	18.677	1582.912	1243.791
2.586	18.293	1596.202	1251.318
3.600	16.748	1543.714	1199.130
4.615	9.423	1434.710	1065.994
5.629	1.841	1370.247	969.895
6.644	0.215	1362.108	953.751
7.659	0.170	1360.744	952.432
8.673	0.102	1359.610	951.120
9.688	0.083	1357.852	949.689
10.702	-0.032	1354.742	946.702
11.717	3.598	1360.695	973.708
12.731	11.953	1373.755	1036.003
13.746	17.246	1380.655	1074.667
14.761	17.153	1380.007	1073.480
15.775	16.252	1377.274	1065.576
16.790	15.326	1374.172	1057.245
17.804	14.481	1372.298	1050.393
18.819	14.092	1371.055	1046.899
19.834	13.976	1369.435	1044.838
20.848	13.632	1368.072	1041.543
21.863	13.369	1366.699	1038.754
22.877	13.226	1365.757	1037.047
23.892	13.155	1364.801	1035.790
24.907	13.183	1364.148	1035.374
25.921	13.056	1363.405	1033.922
26.936	13.201	1362.388	1033.969
27.950	13.276	1360.936	1033.242
28.965	13.310	1360.330	1032.908
29.980	13.373	1359.115	1032.285
30.994	13.454	1358.543	1032.267
32.009	13.504	1357.332	1031.567
33.023	13.498	1356.112	1030.507
34.038	13.327	1355.532	1028.913
35.053	13.277	1353.922	1027.289
36.067	13.359	1352.980	1026.992
37.082	13.427	1351.805	1026.430
38.096	13.421	1350.627	1025.411
39.111	13.303	1350.643	1024.597
40.126	13.318	1349.700	1023.884
41.140	13.179	1348.526	1022.047
42.155	13.153	1348.389	1021.693
43.169	13.109	1348.356	1021.301
44.184	13.146	1348.014	1021.180
45.199	13.267	1347.025	1021.088
46.213	13.097	1347.366	1020.207
47.228	13.219	1346.118	1019.922
48.242	13.339	1344.466	1019.323
49.257	13.282	1343.183	1017.907
50.271	13.297	1341.736	1016.817
51.286	13.291	1340.553	1015.792
52.301	13.318	1338.906	1014.617
53.315	13.194	1338.206	1013.241
54.330	13.284	1336.932	1012.734
55.344	13.237	1335.782	1011.485
56.359	13.159	1334.740	1010.133
57.374	13.130	1334.204	1009.457
58.388	13.208	1333.252	1009.126
59.403	13.145	1332.749	1008.273
60.417	13.054	1332.303	1007.290
61.432	13.073	1331.411	1006.642
62.447	13.094	1330.101	1005.693
63.461	12.901	1328.933	1003.544
64.476	13.013	1328.072	1003.484
65.490	13.097	1326.453	1002.686
66.505	13.122	1325.058	1001.694
67.520	13.015	1324.033	1000.178
68.534	13.204	1322.958	1000.427
69.549	13.206	1321.946	999.579
70.563	13.113	1321.024	998.237
71.578	13.141	1319.835	997.415
72.593	13.105	1318.712	996.265
73.607	12.983	1318.418	995.215
74.622	13.023	1317.309	994.532
75.636	13.061	1316.176	993.817
76.651	13.020	1315.676	993.103
77.666	13.039	1315.513	993.011
78.680	13.043	1315.030	992.579
79.695	13.110	1313.721	991.906
80.709	13.049	1313.393	991.207
81.724	13.085	1312.433	990.612
82.739	13.163	1311.448	990.248
83.753	13.274	1310.605	990.185
84.768	13.297	1309.029	989.044
85.782	13.342	1307.890	988.368
86.797	13.318	1306.611	987.171
87.812	13.243	1305.753	985.984
88.826	13.252	1304.539	985.035
89.841	13.195	1304.048	984.240
90.855	13.239	1302.793	983.465
91.870	13.368	1301.696	983.316
92.884	13.356	1300.803	982.485
93.899	13.430	1300.225	982.402
94.914	13.316	1299.817	981.331
95.928	13.418	1298.738	981.034
96.943	13.337	1297.618	979.622
97.957	13.171	1296.820	977.950
98.972	13.369	1295.472	978.019
99.987	13.339	1294.892	977.313
101.001	13.352	1293.966	976.603
102.016	13.332	1292.595	975.364
103.030	13.307	1292.119	974.774
104.045	13.338	1291.314	974.265
105.060	13.254	1290.017	972.703
106.074	13.325	1288.163	971.639
107.089	13.125	1287.265	969.702
108.103	13.165	1286.166	969.024
109.118	13.226	1284.307	967.890
110.133	13.143	1283.618	966.799
111.147	13.066	1282.594	965.495
112.162	13.281	1280.252	964.899
113.176	13.269	1279.526	964.198
114.191	13.241	1279.124	963.648
115.206	13.283	1278.207	963.114
116.220	13.249	1276.626	961.642
117.235	13.252	1275.485	960.716
118.249	13.266	1274.471	959.947
119.264	13.218	1272.937	958.425
120.279	13.176	1272.231	957.566
121.293	13.225	1270.998	956.838
122.308	13.140	1270.437	955.841
123.322	13.171	1269.132	954.951
124.337	13.176	1268.103	954.122
125.352	13.099	1267.310	952.998
126.366	13.126	1265.961	952.051
127.381	13.117	1265.254	951.384
128.395	13.171	1264.181	950.805
129.410	13.115	1263.379	949.799
130.424	13.172	1262.549	949.414
131.439	13.181	1261.284	948.431
132.454	13.219	1260.289	947.816
133.468	13.214	1259.674	947.242
134.483	13.277	1258.609	946.722
135.497	13.252	1257.595	945.728
136.512	13.215	1256.451	944.576
137.527	13.323	1254.804	943.869
138.541	13.272	1253.724	942.681
139.556	13.363	1252.162	941.944
140.570	13.415	1251.203	941.434
141.585	13.440	1249.878	940.495
142.600	13.325	1249.045	939.134
143.614	13.385	1248.063	938.653
144.629	13.432	1247.198	938.186
145.643	13.392	1245.758	936.793
146.658	13.472	1244.711	936.373
147.673	13.379	1243.475	934.836
148.687	13.316	1242.299	933.511
149.702	13.386	1241.008	932.855
150.716	13.365	1239.320	931.386
151.731	13.268	1238.448	930.102
152.746	13.370	1237.356	929.777
153.760	13.382	1236.177	928.873
154.775	13.427	1234.985	928.149
155.789	13.528	1234.312	928.126
156.804	13.501	1233.059	926.953
157.819	13.414	1232.283	925.800
158.833	13.627	1231.179	926.078
159.848	13.588	1230.041	924.923
160.862	13.641	1229.087	924.416
161.877	13.530	1228.136	923.001
162.892	13.450	1227.036	921.648
163.906	13.455	1226.054	920.855
164.921	13.541	1225.506	920.845
165.935	13.603	1224.505	920.351
166.950	13.548	1223.841	919.468
167.964	13.543	1223.110	918.807
168.979	13.566	1221.960	917.991
169.994	13.504	1221.520	917.236
171.008	13.590	1220.824	917.108
172.023	13.663	1219.704	916.591
173.037	13.720	1218.999	916.293
174.052	13.696	1218.117	915.414
175.067	13.619	1217.367	914.347
176.081	13.602	1216.157	913.266
177.096	13.572	1215.652	912.639
178.110	13.672	1213.791	911.709
179.125	13.609	1213.020	910.706
180.140	13.722	1211.825	910.345
181.154	13.674	1210.279	908.845
182.169	13.635	1209.562	908.011
183.183	13.713	1208.144	907.290
184.198	13.898	1206.698	907.134
185.213	13.757	1206.069	905.816
186.227	13.764	1204.869	904.871
187.242	13.821	1203.881	904.360
188.256	13.876	1203.077	903.975
189.271	13.853	1201.783	902.798
190.286	13.853	1200.452	901.715
191.300	13.710	1199.972	900.503
192.315	13.595	1199.530	899.462
193.329	13.650	1198.732	899.087
194.344	13.671	1198.485	898.933
195.359	13.696	1197.837	898.505
196.373	13.884	1196.984	898.802
197.388	13.934	1196.062	898.300
198.402	13.998	1195.763	898.343
199.417	14.091	1194.652	897.931
200.432	14.046	1194.175	897.252
201.446	14.086	1193.247	896.692
202.461	14.116	1192.529	896.235
203.475	14.146	1190.800	895.015
204.490	14.226	1189.602	894.466
205.504	14.017	1188.698	892.585
206.519	13.976	1187.814	891.622
207.534	14.043	1186.661	891.038
208.548	14.028	1185.824	890.248
209.563	14.004	1184.883	889.336
210.577	13.980	1184.504	888.843
211.592	14.087	1183.073	888.260
212.607	14.170	1182.504	888.200
213.621	14.162	1181.464	887.296
214.636	14.345	1180.011	887.100
215.650	14.219	1179.401	885.893
216.665	14.200	1178.831	885.285
217.680	14.300	1177.970	885.092
218.694	14.366	1176.976	884.617
219.709	14.256	1176.398	883.522
220.723	14.256	1175.785	882.982
221.738	14.299	1174.575	882.226
222.753	14.329	1174.180	882.012
223.767	14.405	1173.123	881.539
224.782	14.358	1172.334	880.619
225.796	14.455	1172.054	880.844
226.811	14.403	1171.273	879.905
227.826	14.326	1170.889	879.132
228.840	14.459	1169.534	878.736
229.855	14.408	1169.186	878.132
230.869	14.391	1168.060	877.118
231.884	14.388	1167.328	876.476
232.899	14.313	1166.665	875.502
233.913	14.416	1165.721	875.259
234.928	14.366	1165.123	874.469
235.942	14.432	1164.291	874.113
236.957	14.320	1163.759	873.051
237.972	14.383	1162.708	872.518
238.986	14.387	1162.499	872.304
240.001	14.445	1161.314	871.640
241.015	14.431	1161.038	871.279
242.030	14.501	1159.841	870.672
243.045	14.482	1159.343	870.124
244.059	14.498	1158.460	869.465
245.074	14.559	1157.685	869.124
246.088	14.597	1156.687	868.496
247.103	14.683	1155.738	868.155
248.117	14.670	1155.629	867.927
249.132	14.597	1155.007	867.004
250.147	14.730	1154.036	866.890
251.161	14.741	1153.446	866.427
252.176	14.804	1152.636	866.069
253.190	14.858	1152.168	865.922
254.205	14.911	1151.088	865.307
255.220	14.856	1151.143	864.985
256.234	14.871	1150.205	864.284
257.249	14.900	1149.609	863.909
258.263	14.984	1148.812	863.664
259.278	14.832	1148.493	862.563
260.293	15.061	1147.712	863.082
261.307	15.044	1147.105	862.464
262.322	15.017	1146.381	861.700
263.336	15.023	1145.610	861.078
264.351	15.013	1145.247	860.678
265.366	15.151	1144.259	860.567
266.380	15.104	1143.647	859.789
267.395	15.012	1143.197	858.903
268.409	14.949	1141.886	857.519
269.424	15.191	1141.187	858.156
270.439	15.071	1141.202	857.479
271.453	15.008	1140.110	856.261
272.468	15.015	1139.283	855.599
273.482	14.953	1138.505	854.624
274.497	14.957	1138.246	854.373
275.512	15.148	1137.121	854.428
276.526	15.231	1136.292	854.153
277.541	15.191	1135.523	853.294
278.555	15.251	1135.120	853.222
279.570	15.282	1134.445	852.795
280.585	15.280	1133.489	851.991
281.599	15.287	1132.487	851.200
282.614	15.340	1131.466	850.626
283.628	15.224	1130.707	849.389
284.643	15.274	1129.517	848.673
285.657	15.347	1128.727	848.375
286.672	15.321	1127.394	847.168
287.687	15.320	1126.717	846.580
288.701	15.322	1126.487	846.340
289.716	15.405	1125.769	846.147
290.730	15.285	1125.066	844.938
291.745	15.300	1124.553	844.553
292.760	15.458	1123.763	844.680
293.774	15.400	1123.197	843.890
294.789	15.372	1122.533	843.175
295.803	15.528	1121.873	843.385
296.818	15.509	1121.034	842.586
297.833	15.347	1120.248	841.108
298.847	15.520	1119.451	841.304
299.862	15.548	1118.559	840.700
300.876	15.487	1117.955	839.863
301.891	15.569	1117.246	839.666
302.906	15.536	1117.016	839.257
303.920	15.646	1115.966	838.942
304.935	15.579	1115.432	838.134
305.949	15.710	1114.806	838.239
306.964	15.751	1113.853	837.656
307.979	15.647	1112.899	836.345
308.993	15.775	1112.341	836.489
310.008	15.802	1111.664	836.040
311.022	15.832	1111.115	835.700
312.037	15.696	1110.140	834.219
313.052	15.772	1109.312	833.897
314.066	15.686	1108.640	832.893
315.081	15.533	1107.718	831.370
316.095	15.703	1106.538	831.251
317.110	15.752	1106.005	831.019
318.125	15.664	1105.639	830.237
319.139	15.661	1105.048	829.705
320.154	15.742	1103.929	829.190
321.168	15.700	1103.449	828.549
322.183	15.698	1102.817	827.995
323.197	15.778	1102.200	827.852
324.212	15.789	1101.445	827.263
325.227	15.730	1100.817	826.429
326.241	15.805	1100.296	826.332
327.256	15.813	1099.188	825.467
328.270	15.884	1098.443	825.181
329.285	15.777	1097.723	824.043
330.300	15.828	1096.697	823.451
331.314	15.984	1095.377	823.150
332.329	15.964	1094.520	822.332
333.343	15.889	1093.927	821.450
334.358	15.907	1093.416	821.083
335.373	15.988	1092.611	820.797
336.387	16.045	1091.875	820.453
337.402	15.960	1091.335	819.560
338.416	15.930	1090.656	818.830
339.431	16.088	1089.842	818.917
340.446	16.174	1089.016	818.640
341.460	16.073	1088.683	817.828
342.475	16.079	1087.878	817.180
343.489	16.256	1086.511	816.935
344.504	16.206	1085.837	816.117
345.519	16.187	1085.181	815.458
346.533	16.317	1084.100	815.200
347.548	16.337	1083.617	814.863
348.562	16.283	1082.877	813.975
349.577	16.270	1081.932	813.127
350.592	16.166	1081.254	812.048
351.606	16.248	1080.450	811.766
352.621	16.228	1080.041	811.292
353.635	16.273	1078.955	810.617
354.650	16.201	1078.639	809.963
355.665	16.321	1077.869	809.891
356.679	16.306	1076.947	809.054
357.694	16.369	1076.943	809.281
358.708	16.285	1075.921	808.040
359.723	16.272	1075.133	807.312
360.738	16.328	1074.494	807.029
361.752	16.356	1074.067	806.773
362.767	16.454	1073.219	806.530
363.781	16.352	1073.003	805.812
364.796	16.433	1072.713	805.908
365.810	16.473	1071.993	805.487
366.825	16.560	1071.412	805.393
367.840	16.673	1070.739	805.352
368.854	16.666	1069.934	804.645
369.869	16.540	1069.566	803.696
370.883	16.525	1068.557	802.795
371.898	16.601	1067.875	802.570
372.913	16.542	1067.325	801.808
373.927	16.563	1066.826	801.464
374.942	16.699	1066.500	801.791
375.956	16.683	1066.047	801.301
376.971	16.590	1065.645	800.490
377.986	16.757	1064.696	800.496
379.000	16.885	1063.633	800.228
380.015	16.658	1063.742	799.168
381.029	16.851	1062.758	799.269
382.044	16.928	1061.782	798.829
383.059	16.766	1061.456	797.747
384.073	16.935	1060.319	797.616
385.088	16.998	1059.426	797.172
386.102	16.931	1058.429	796.038
387.117	16.810	1057.667	794.825
388.132	16.885	1056.777	794.437
389.146	16.832	1056.021	793.551
390.161	16.781	1055.430	792.797
391.175	16.759	1054.873	792.209
392.190	16.794	1054.528	792.042
393.205	16.999	1053.482	792.143
394.219	16.985	1052.632	791.369
395.234	16.903	1051.835	790.317
396.248	17.024	1050.542	789.841
397.263	16.942	1049.253	788.420
398.278	16.978	1049.083	788.391
399.292	16.862	1048.333	787.216
400.307	16.789	1047.882	786.468
401.321	16.898	1047.341	786.501
402.336	16.983	1046.282	786.027
403.350	17.021	1045.655	785.662
404.365	16.979	1044.793	784.752
405.380	17.100	1044.069	784.699
406.394	16.994	1043.974	784.069
407.409	17.139	1042.921	783.875
408.423	17.040	1042.044	782.691
409.438	17.282	1041.285	783.167
410.453	17.251	1040.353	782.255
411.467	17.213	1040.249	781.931
412.482	17.208	1039.676	781.409
413.496	17.250	1038.745	780.834
414.511	17.297	1038.197	780.570
415.526	17.263	1038.105	780.275
416.540	17.316	1037.374	779.899
417.555	17.313	1036.927	779.480
418.569	17.468	1036.156	779.542
419.584	17.473	1035.401	778.928
420.599	17.324	1035.573	778.304
421.613	103.939	1323.270	1472.285
422.628	95.264	1365.135	1472.393
