DTS Sentinel unit serial number:	SN413079Multiplexer serial number:	ORYXHardware model number:	OX4-SRSoftware version number:	ORYX F/W v4.00 Oryx Data Collector v3.7.2.0data status	okinstallation	princeton_trtdifferential loss correction	single-endedforward channel	channel 2reverse channel	N/Adate	2019/09/14time	14:23:34forward acquisition time	60.00reverse acquisition time	0.00gamma	496.2192k internal	0.2301k external	0.2301temperature offset calibration	1.0149default loss term (dB/km)	0.3790temperature slope calibration	1.0000multiplexer offset coefficient	1.0000multiplexer slope coefficient	1.0000fibre end	0.00T internal ref (°C)	38.94T ext. ref 1 (°C)	5.09T ext. ref 2 (°C)	35.86length (m)	temperature (°C)	Stokes	anti-Stokes-747.200	800.000	0.011	0.039
-746.185	-200.000	0.034	0.269
-745.171	-104.000	-0.348	0.083
-744.156	5.861	0.005	0.004
-743.142	-109.608	-0.265	-0.057
-742.127	-200.000	-0.042	0.238
-741.112	800.000	-0.072	0.245
-740.098	-118.677	-0.060	-0.011
-739.083	418.080	-0.127	0.277
-738.069	96.837	-0.142	0.166
-737.054	-50.448	0.094	0.045
-736.039	134.560	-0.184	0.243
-735.025	-52.851	0.232	-0.109
-734.010	800.000	0.111	-0.428
-732.996	-19.631	-0.112	-0.070
-731.981	-108.941	-0.603	-0.131
-730.966	538.237	0.142	-0.345
-729.952	329.800	0.089	0.175
-728.937	-109.239	0.275	0.060
-727.923	390.765	-0.068	-0.144
-726.908	-119.107	-0.220	-0.039
-725.894	800.000	-0.083	-0.319
-724.879	341.967	-0.056	0.111
-723.864	36.427	0.043	-0.038
-722.850	-200.000	0.025	-0.128
-721.835	6.067	0.103	0.078
-720.821	-200.000	-0.026	0.236
-719.806	124.935	-0.101	-0.130
-718.791	800.000	-0.070	0.226
-717.777	800.000	-0.049	0.149
-716.762	-71.976	-0.206	0.078
-715.748	141.525	0.088	-0.119
-714.733	452.976	-0.111	-0.250
-713.718	-200.000	-0.007	-0.089
-712.704	-162.767	-0.067	0.003
-711.689	-200.000	0.016	0.166
-710.675	-200.000	0.070	-0.425
-709.660	764.091	0.060	-0.167
-708.645	267.781	-0.087	0.154
-707.631	-16.530	0.159	-0.103
-706.616	106.491	-0.127	-0.153
-705.602	-46.644	0.104	0.052
-704.587	-200.000	0.006	0.369
-703.572	-20.040	-0.077	-0.048
-702.558	-129.089	0.271	0.039
-701.543	-102.816	-0.239	0.058
-700.529	96.397	-0.217	0.253
-699.514	-163.019	-0.238	-0.012
-698.499	-200.000	0.010	0.082
-697.485	800.000	0.035	0.113
-696.470	11.549	-0.220	0.172
-695.456	-125.653	0.221	-0.034
-694.441	136.877	-0.141	-0.188
-693.426	-7.587	-0.055	-0.038
-692.412	-200.000	-0.005	-0.096
-691.397	-43.732	-0.320	-0.164
-690.383	261.339	-0.221	-0.389
-689.368	-28.970	-0.364	-0.213
-688.354	-1.048	-0.341	-0.246
-687.339	-200.000	0.012	-0.231
-686.324	101.275	0.018	-0.021
-685.310	749.507	0.062	0.171
-684.295	-200.000	-0.003	-0.119
-683.281	-200.000	-0.055	0.248
-682.266	-72.959	0.173	-0.065
-681.251	549.748	-0.134	0.327
-680.237	-156.226	0.063	0.004
-679.222	-121.648	0.039	0.007
-678.208	-188.876	0.056	-0.001
-677.193	57.670	0.141	0.140
-676.178	111.402	0.094	-0.115
-675.164	213.577	-0.157	-0.253
-674.149	333.781	0.084	0.164
-673.135	339.548	-0.131	0.259
-672.120	34.937	-0.116	0.103
-671.105	-137.653	0.198	0.023
-670.091	30.176	0.279	0.242
-669.076	-200.000	-0.005	0.071
-668.062	481.062	0.141	0.326
-667.047	-200.000	-0.005	-0.223
-666.032	705.455	-0.098	0.264
-665.018	67.299	0.095	0.098
-664.003	-156.766	-0.279	-0.017
-662.989	586.394	0.013	-0.032
-661.974	37.125	-0.169	0.152
-660.959	661.665	0.095	0.249
-659.945	-200.000	0.031	0.238
-658.930	800.000	0.071	0.267
-657.916	-70.671	0.238	-0.091
-656.901	-119.424	-0.056	0.010
-655.886	-56.657	0.193	-0.087
-654.872	-200.000	0.020	-0.112
-653.857	800.000	0.094	0.405
-652.843	-110.576	-0.133	0.028
-651.828	451.466	-0.078	0.176
-650.814	147.452	0.180	-0.246
-649.799	-70.447	-0.282	0.108
-648.784	-200.000	-0.026	0.141
-647.770	-2.484	-0.099	0.070
-646.755	365.855	-0.098	0.201
-645.741	-200.000	-0.009	0.180
-644.726	35.741	-0.225	0.201
-643.711	-102.303	0.231	-0.056
-642.697	54.558	0.376	0.368
-641.682	-139.970	0.208	-0.022
-640.668	495.267	-0.064	0.149
-639.653	-25.041	0.150	-0.090
-638.638	-200.000	-0.009	0.092
-637.624	310.395	0.081	-0.154
-636.609	-65.122	0.192	0.078
-635.595	151.437	-0.140	-0.194
-634.580	45.766	0.073	0.069
-633.565	-40.716	-0.250	-0.131
-632.551	43.019	-0.312	0.289
-631.536	-43.325	-0.247	-0.127
-630.522	-200.000	-0.024	-0.176
-629.507	177.102	-0.162	-0.240
-628.492	41.543	0.224	-0.205
-627.478	575.207	-0.062	-0.153
-626.463	800.000	0.061	-0.207
-625.449	65.264	0.080	-0.082
-624.434	-200.000	0.009	0.207
-623.419	94.440	-0.123	-0.142
-622.405	-200.000	-0.006	0.028
-621.390	-103.948	-0.320	0.076
-620.376	-200.000	0.029	0.357
-619.361	145.706	0.176	0.240
-618.346	-38.003	0.119	0.064
-617.332	-200.000	0.065	0.295
-616.317	-200.000	0.098	-0.478
-615.303	6.219	-0.164	-0.123
-614.288	-72.054	0.239	-0.090
-613.273	-28.637	-0.461	0.269
-612.259	-167.309	0.617	-0.025
-611.244	-200.000	-0.053	-0.399
-610.230	-38.894	0.293	-0.157
-609.215	-200.000	-0.009	-0.214
-608.201	-93.355	0.386	0.109
-607.186	-200.000	0.010	-0.240
-606.171	-52.522	0.233	-0.109
-605.157	312.793	-0.095	-0.180
-604.142	-97.251	0.164	-0.043
-603.128	161.926	0.178	0.253
-602.113	-200.000	-0.033	0.187
-601.098	358.472	0.122	-0.248
-600.084	46.343	0.186	0.175
-599.069	-200.000	-0.022	0.155
-598.055	-128.003	-0.090	0.013
-597.040	-57.332	-0.155	-0.069
-596.025	-200.000	0.036	0.163
-595.011	187.120	-0.112	0.169
-593.996	-200.000	-0.010	-0.280
-592.982	-1.284	0.221	-0.158
-591.967	-200.000	-0.024	-0.272
-590.952	800.000	-0.053	0.170
-589.938	157.076	-0.205	-0.288
-588.923	-200.000	0.040	-0.194
-587.909	133.311	-0.199	-0.261
-586.894	446.690	-0.090	0.200
-585.879	-9.917	0.160	-0.108
-584.865	27.383	-0.227	0.194
-583.850	800.000	0.046	-0.202
-582.836	426.511	0.069	0.150
-581.821	-102.764	0.224	-0.054
-580.806	72.119	-0.097	0.102
-579.792	-49.378	-0.100	-0.048
-578.777	-5.736	-0.061	0.042
-577.763	-114.532	-0.092	0.018
-576.748	12.955	0.154	0.121
-575.733	-39.527	-0.056	0.029
-574.719	-200.000	0.040	-0.221
-573.704	-200.000	-0.050	0.239
-572.690	13.499	0.085	-0.067
-571.675	33.048	-0.151	-0.133
-570.661	800.000	-0.043	0.124
-569.646	-200.000	0.026	-0.204
-568.631	800.000	-0.099	-0.404
-567.617	-117.116	0.148	-0.027
-566.602	-82.427	0.219	0.072
-565.588	82.704	-0.022	0.025
-564.573	-47.217	-0.302	0.149
-563.558	58.279	0.210	0.208
-562.544	-145.595	0.297	-0.027
-561.529	38.951	-0.171	0.155
-560.515	-108.504	0.283	-0.062
-559.500	-94.502	0.355	0.098
-558.485	-74.498	-0.275	0.100
-557.471	-28.573	-0.094	-0.055
-556.456	-200.000	0.048	0.282
-555.442	29.348	0.210	-0.180
-554.427	800.000	0.044	0.132
-553.412	800.000	-0.104	-0.306
-552.398	800.000	-0.060	-0.212
-551.383	-139.435	0.097	-0.011
-550.369	48.546	-0.061	0.058
-549.354	-84.063	-0.329	0.106
-548.339	550.705	0.112	0.272
-547.325	800.000	0.052	0.199
-546.310	-200.000	0.027	-0.426
-545.296	151.364	0.252	-0.347
-544.281	-200.000	-0.051	0.384
-543.266	134.873	0.085	-0.111
-542.252	-170.285	0.160	0.006
-541.237	-47.363	-0.128	-0.063
-540.223	-200.000	-0.050	-0.232
-539.208	520.510	-0.080	-0.190
-538.193	-200.000	-0.006	-0.037
-537.179	-200.000	0.012	-0.225
-536.164	-127.990	0.462	0.067
-535.150	-122.327	-0.538	0.089
-534.135	-135.299	-0.202	-0.024
-533.121	66.546	0.278	-0.286
-532.106	-200.000	0.003	0.106
-531.091	-36.273	-0.125	-0.068
-530.077	-22.481	-0.201	0.123
-529.062	431.490	-0.083	0.183
-528.048	228.036	0.053	0.087
-527.033	-184.615	0.153	0.002
-526.018	-125.003	-0.322	-0.050
-525.004	-56.660	-0.033	-0.015
-523.989	800.000	0.117	-0.341
-522.975	-177.181	-0.101	-0.003
-521.960	-58.490	-0.182	-0.080
-520.945	800.000	0.073	-0.282
-519.931	559.501	0.165	-0.403
-518.916	-200.000	-0.022	0.303
-517.902	-42.830	-0.245	-0.126
-516.887	800.000	-0.077	-0.290
-515.872	-200.000	0.024	-0.348
-514.858	-172.286	-0.298	0.010
-513.843	6.140	0.028	-0.021
-512.829	-18.377	0.150	0.095
-511.814	-132.605	0.236	0.031
-510.799	-144.251	-0.376	-0.035
-509.785	-200.000	-0.037	0.351
-508.770	-88.982	-0.139	-0.042
-507.756	-31.658	0.188	-0.106
-506.741	-127.648	-0.096	0.014
-505.726	-55.581	0.367	0.166
-504.712	-46.832	-0.389	0.192
-503.697	295.949	0.282	0.521
-502.683	-90.246	0.077	-0.023
-501.668	-27.164	-0.336	0.198
-500.653	76.499	-0.310	-0.332
-499.639	23.583	-0.054	-0.045
-498.624	-200.000	-0.005	0.251
-497.610	161.278	0.204	0.289
-496.595	-200.000	0.030	-0.134
-495.581	-69.354	0.293	0.114
-494.566	-200.000	-0.011	-0.099
-493.551	-200.000	-0.073	-0.519
-492.537	208.547	0.058	0.092
-491.522	37.953	0.115	0.103
-490.508	800.000	0.077	0.324
-489.493	-29.579	0.158	0.091
-488.478	753.875	-0.099	-0.270
-487.464	-200.000	-0.037	-0.248
-486.449	-185.228	-0.112	0.002
-485.435	66.136	0.171	-0.175
-484.420	800.000	0.012	-0.048
-483.405	-183.130	0.172	-0.003
-482.391	-193.430	-0.031	0.000
-481.376	-27.537	-0.165	-0.097
-480.362	-111.371	0.201	-0.041
-479.347	-68.040	0.102	-0.040
-478.332	298.094	0.031	0.058
-477.318	-113.414	0.305	0.060
-476.303	49.688	-0.276	0.262
-475.289	-200.000	0.019	0.129
-474.274	-176.402	0.245	-0.006
-473.259	-16.601	0.275	0.175
-472.245	100.341	0.231	-0.270
-471.230	-21.888	-0.231	-0.142
-470.216	-141.474	-0.375	-0.038
-469.201	-24.449	0.116	-0.070
-468.186	176.415	-0.096	0.141
-467.172	49.595	-0.092	0.088
-466.157	800.000	0.044	0.165
-465.143	-129.484	-0.090	0.013
-464.128	384.573	0.086	0.179
-463.113	282.054	-0.018	0.032
-462.099	-132.092	0.250	-0.033
-461.084	99.162	-0.073	-0.085
-460.070	444.752	-0.116	-0.256
-459.055	-200.000	0.031	-0.165
-458.040	-200.000	-0.040	-0.269
-457.026	51.035	-0.328	0.313
-456.011	-33.936	0.329	-0.183
-454.997	-144.800	-0.188	0.017
-453.982	63.502	-0.333	0.337
-452.968	-116.422	0.147	-0.027
-451.953	159.831	-0.130	0.183
-450.938	800.000	0.069	-0.199
-449.924	-200.000	0.055	-0.372
-448.909	-200.000	-0.057	-0.326
-447.895	-105.415	0.153	-0.035
-446.880	-30.128	-0.376	-0.216
-445.865	-134.283	-0.283	-0.035
-444.851	225.768	0.027	0.044
-443.836	454.954	-0.050	-0.112
-442.822	45.570	0.267	-0.249
-441.807	140.298	-0.269	-0.358
-440.792	-97.250	-0.451	0.119
-439.778	319.049	-0.044	0.084
-438.763	-97.757	0.280	0.073
-437.749	-76.838	0.166	0.059
-436.734	174.493	-0.179	0.261
-435.719	800.000	0.062	0.195
-434.705	181.676	0.100	0.149
-433.690	187.983	-0.054	0.081
-432.676	-200.000	0.055	0.367
-431.661	249.720	0.048	-0.081
-430.646	39.936	0.048	-0.043
-429.632	21.588	0.354	-0.290
-428.617	-200.000	-0.057	-0.252
-427.603	-57.004	0.405	-0.180
-426.588	-73.676	0.226	-0.083
-425.573	800.000	0.017	-0.054
-424.559	-15.734	-0.142	-0.091
-423.544	293.693	-0.129	-0.237
-422.530	-38.774	0.587	-0.312
-421.515	-143.165	-0.271	-0.026
-420.500	144.785	-0.127	-0.171
-419.486	-200.000	-0.027	0.198
-418.471	-24.295	0.103	-0.062
-417.457	358.759	-0.074	-0.148
-416.442	-102.345	0.094	-0.023
-415.428	511.409	0.173	-0.406
-414.413	800.000	-0.051	-0.220
-413.398	15.179	-0.259	0.205
-412.384	-200.000	-0.033	0.278
-411.369	-16.604	0.025	-0.016
-410.355	42.663	0.091	0.083
-409.340	-131.018	-0.221	0.030
-408.325	-107.638	0.122	0.027
-407.311	-200.000	0.042	0.325
-406.296	22.265	0.207	0.170
-405.282	800.000	0.034	0.130
-404.267	-125.687	-0.445	0.068
-403.252	-127.483	0.025	-0.004
-402.238	-87.262	-0.095	-0.029
-401.223	800.000	-0.009	-0.035
-400.209	-73.380	0.238	-0.088
-399.194	-42.284	-0.170	-0.087
-398.179	-200.000	0.019	-0.251
-397.165	20.955	0.086	0.070
-396.150	-51.256	0.317	-0.149
-395.136	-155.919	0.116	-0.007
-394.121	2.540	-0.245	-0.179
-393.106	81.764	0.286	-0.311
-392.092	572.262	0.062	0.151
-391.077	81.487	0.213	0.232
-390.063	-150.678	0.241	0.018
-389.048	-29.878	-0.012	0.007
-388.033	-108.691	-0.272	-0.059
-387.019	323.667	0.172	0.330
-386.004	-148.530	-0.143	0.012
-384.990	-4.634	-0.312	0.217
-383.975	-21.352	0.130	-0.080
-382.960	-91.627	0.261	-0.075
-381.946	363.956	-0.133	0.268
-380.931	800.000	0.107	0.321
-379.917	-200.000	-0.055	0.379
-378.902	63.061	-0.179	0.181
-377.888	-43.148	-0.465	-0.237
-376.873	218.011	-0.136	0.219
-375.858	-200.000	-0.032	0.153
-374.844	79.856	-0.151	-0.164
-373.829	-84.575	-0.421	-0.133
-372.815	-200.000	0.002	0.161
-371.800	56.752	-0.116	-0.114
-370.785	-27.807	-0.221	-0.128
-369.771	800.000	0.078	-0.326
-368.756	-68.594	-0.197	-0.077
-367.742	-162.919	-0.160	-0.008
-366.727	-174.212	0.234	-0.007
-365.712	325.905	-0.144	0.276
-364.698	800.000	0.098	0.307
-363.683	-117.441	0.115	0.021
-362.669	76.780	-0.207	0.221
-361.654	99.445	-0.163	0.189
-360.639	800.000	-0.034	0.122
-359.625	800.000	-0.019	-0.070
-358.610	-105.739	0.115	0.026
-357.596	116.686	0.156	-0.192
-356.581	-200.000	0.001	0.057
-355.566	68.541	-0.133	0.137
-354.552	-70.214	0.260	-0.099
-353.537	-104.979	0.196	0.045
-352.523	-18.445	0.239	-0.150
-351.508	61.656	-0.224	-0.224
-350.493	-200.000	0.082	0.430
-349.479	-103.518	-0.282	0.067
-348.464	61.339	0.239	0.239
-347.450	55.394	-0.089	0.087
-346.435	189.264	-0.134	0.201
-345.420	-126.300	-0.282	0.042
-344.406	-200.000	-0.002	-0.027
-343.391	181.347	-0.107	-0.157
-342.377	-200.000	-0.005	0.317
-341.362	413.808	0.029	-0.063
-340.348	-200.000	-0.013	0.082
-339.333	-200.000	0.046	0.404
-338.318	-9.869	-0.128	-0.086
-337.304	-3.523	-0.189	0.132
-336.289	800.000	-0.104	0.403
-335.275	-158.582	0.242	0.014
-334.260	-140.297	0.111	0.012
-333.245	495.157	0.128	0.295
-332.231	-54.441	-0.292	0.133
-331.216	33.480	-0.129	-0.113
-330.202	518.119	-0.119	-0.279
-329.187	-33.883	0.250	0.138
-328.172	11.621	-0.315	-0.243
-327.158	-92.727	0.042	0.012
-326.143	320.189	0.192	-0.365
-325.129	201.498	-0.211	0.326
-324.114	-200.000	0.020	0.171
-323.099	-12.170	0.057	-0.038
-322.085	-90.758	0.256	0.074
-321.070	-110.365	-0.155	0.032
-320.056	-39.338	-0.233	-0.123
-319.041	-24.627	0.174	0.104
-318.026	800.000	-0.058	0.204
-317.012	-200.000	-0.004	0.173
-315.997	-200.000	-0.006	-0.151
-314.983	242.743	0.043	0.073
-313.968	-200.000	-0.018	-0.115
-312.953	-95.322	0.226	0.061
-311.939	-40.072	-0.068	-0.035
-310.924	-168.750	0.151	-0.006
-309.910	329.287	-0.048	-0.092
-308.895	-60.886	-0.333	-0.141
-307.880	-114.466	0.254	-0.049
-306.866	39.103	0.109	0.098
-305.851	-102.133	-0.125	0.030
-304.837	800.000	-0.016	0.061
-303.822	-22.490	-0.009	0.005
-302.807	441.486	0.065	-0.143
-301.793	42.258	-0.130	-0.119
-300.778	-200.000	0.014	-0.184
-299.764	-200.000	-0.029	0.270
-298.749	-89.711	0.231	0.068
-297.735	-48.557	0.150	0.072
-296.720	447.685	0.058	0.128
-295.705	-103.445	-0.176	-0.041
-294.691	-176.143	0.036	0.001
-293.676	-74.801	-0.056	-0.020
-292.662	-56.179	-0.235	0.105
-291.647	18.648	-0.206	-0.165
-290.632	-106.921	-0.270	0.060
-289.618	-92.710	-0.410	0.115
-288.603	104.862	-0.048	-0.057
-287.589	68.790	-0.148	0.152
-286.574	117.890	0.081	-0.100
-285.559	116.772	-0.141	-0.173
-284.545	508.734	-0.034	0.080
-283.530	-128.692	0.206	-0.029
-282.516	800.000	0.167	-0.515
-281.501	-200.000	-0.056	-0.449
-280.486	-200.000	0.027	0.158
-279.472	210.443	-0.128	0.201
-278.457	-51.952	0.294	0.137
-277.443	3.448	0.062	0.045
-276.428	17.988	-0.159	0.127
-275.413	20.656	-0.249	0.202
-274.399	56.129	0.096	0.093
-273.384	695.718	-0.026	-0.069
-272.370	343.468	-0.149	0.293
-271.355	-58.426	-0.233	-0.101
-270.340	-105.622	0.314	0.071
-269.326	-200.000	0.028	-0.333
-268.311	-79.692	0.069	-0.023
-267.297	-70.668	0.226	-0.086
-266.282	-158.248	0.251	-0.015
-265.267	-161.801	-0.467	-0.024
-264.253	175.429	0.107	0.156
-263.238	-63.963	0.311	-0.127
-262.224	-104.366	0.147	0.034
-261.209	-46.159	0.430	-0.212
-260.195	146.776	-0.055	0.074
-259.180	127.520	0.087	0.110
-258.165	23.294	-0.278	-0.229
-257.151	-15.279	-0.262	-0.168
-256.136	81.192	-0.122	-0.132
-255.122	85.659	0.135	0.149
-254.107	-55.457	0.078	0.035
-253.092	-200.000	0.003	0.221
-252.078	-76.287	0.149	-0.053
-251.063	27.702	0.187	0.158
-250.049	-200.000	0.002	-0.248
-249.034	-45.500	-0.056	-0.028
-248.019	35.551	0.180	-0.158
-247.005	-42.239	0.313	-0.160
-245.990	-12.726	0.113	0.073
-244.976	27.440	0.063	0.053
-243.961	-9.470	-0.074	-0.049
-242.946	5.725	0.156	-0.115
-241.932	-200.000	0.049	-0.222
-240.917	-137.680	-0.346	0.039
-239.903	-90.504	0.110	0.032
-238.888	-142.570	-0.171	0.017
-237.873	-63.449	0.135	0.055
-236.859	800.000	-0.123	-0.367
-235.844	-108.274	-0.124	-0.027
-234.830	-61.173	0.179	0.075
-233.815	88.634	-0.230	-0.255
-232.800	-138.305	-0.290	-0.032
-231.786	-200.000	0.011	0.412
-230.771	46.162	0.088	-0.081
-229.757	-67.831	0.130	0.051
-228.742	-200.000	0.040	-0.208
-227.727	-28.229	-0.041	-0.024
-226.713	116.136	0.083	0.102
-225.698	-200.000	0.032	0.267
-224.684	114.018	0.162	0.197
-223.669	15.613	0.117	-0.091
-222.655	-200.000	-0.013	-0.267
-221.640	307.561	-0.045	-0.083
-220.625	544.312	-0.012	0.028
-219.611	216.811	0.209	-0.332
-218.596	38.090	0.111	0.099
-217.582	-81.298	-0.098	-0.032
-216.567	-200.000	0.012	0.144
-215.552	450.133	-0.061	0.134
-214.538	-122.243	-0.161	-0.026
-213.523	122.571	0.085	0.106
-212.509	-63.999	0.068	-0.028
-211.494	-94.565	0.054	0.015
-210.479	-200.000	0.037	0.476
-209.465	-113.216	-0.158	-0.031
-208.450	-117.143	-0.177	0.032
-207.436	395.887	-0.084	0.174
-206.421	276.434	-0.059	0.104
-205.406	800.000	0.042	-0.119
-204.392	43.269	0.205	-0.187
-203.377	506.290	0.034	-0.078
-202.363	-200.000	-0.001	-0.267
-201.348	333.718	-0.181	-0.350
-200.333	-131.951	-0.420	-0.055
-199.319	194.580	-0.161	0.243
-198.304	111.689	0.077	0.092
-197.290	-200.000	-0.007	0.081
-196.275	-85.417	0.030	0.009
-195.260	168.718	-0.056	0.080
-194.246	37.581	-0.188	0.166
-193.231	45.877	-0.081	0.075
-192.217	60.644	0.150	0.149
-191.202	-200.000	-0.043	-0.197
-190.187	-35.221	0.285	-0.155
-189.173	-200.000	-0.057	0.254
-188.158	-67.694	0.152	0.059
-187.144	-35.858	0.141	-0.076
-186.129	11.043	0.170	0.129
-185.114	800.000	-0.034	-0.095
-184.100	-14.628	-0.217	0.139
-183.085	-53.614	-0.130	-0.059
-182.071	-200.000	-0.021	0.411
-181.056	-166.624	0.353	-0.015
-180.042	-20.766	-0.176	0.108
-179.027	800.000	-0.024	-0.090
-178.012	-160.142	0.139	0.008
-176.998	800.000	0.098	0.369
-175.983	-132.643	0.075	0.010
-174.969	85.128	0.126	0.138
-173.954	227.481	0.070	-0.113
-172.939	402.567	-0.097	0.204
-171.925	1.023	-0.114	0.082
-170.910	-82.902	-0.148	0.048
-169.896	-15.228	0.162	-0.103
-168.881	249.529	-0.067	0.113
-167.866	-106.708	0.048	0.011
-166.852	248.484	0.125	0.212
-165.837	800.000	-0.057	-0.232
-164.823	-200.000	-0.063	-0.468
-163.808	-200.000	0.015	-0.193
-162.793	-200.000	0.008	0.049
-161.779	164.861	0.118	0.167
-160.764	-200.000	0.058	-0.370
-159.750	-180.261	-0.079	-0.002
-158.735	124.153	0.162	0.203
-157.720	-92.208	-0.225	-0.063
-156.706	245.082	-0.140	-0.234
-155.691	-44.762	0.223	0.111
-154.677	195.220	-0.061	0.092
-153.662	-41.377	0.130	-0.067
-152.647	-42.922	0.246	0.124
-151.633	245.094	-0.098	0.164
-150.618	316.699	0.045	0.084
-149.604	8.740	0.198	-0.148
-148.589	-57.507	-0.185	0.081
-147.574	94.228	-0.204	-0.230
-146.560	21.875	-0.081	0.066
-145.545	-22.128	0.339	0.205
-144.531	-200.000	-0.034	0.267
-143.516	40.306	0.072	-0.064
-142.502	-81.321	0.025	-0.008
-141.487	-84.109	0.223	-0.071
-140.472	-64.394	-0.272	-0.110
-139.458	27.357	-0.072	0.060
-138.443	-200.000	0.026	-0.137
-137.429	-44.637	0.055	-0.027
-136.414	-49.379	0.257	0.122
-135.399	-120.331	-0.242	-0.041
-134.385	131.539	0.130	-0.167
-133.370	-135.469	-0.340	-0.040
-132.356	-117.500	-0.427	0.077
-131.341	800.000	0.013	0.051
-130.326	-78.180	-0.202	-0.069
-129.312	-16.885	0.068	-0.043
-128.297	61.677	0.098	0.098
-127.283	-121.543	0.145	-0.024
-126.268	97.143	-0.187	0.214
-125.253	-41.359	0.096	0.049
-124.239	-200.000	-0.047	0.314
-123.224	-81.618	-0.132	0.043
-122.210	-86.054	0.113	-0.035
-121.195	-119.576	0.330	0.057
-120.180	-179.800	0.164	-0.004
-119.166	-170.173	-0.110	-0.004
-118.151	193.673	-0.213	0.320
-117.137	-123.309	-0.127	0.020
-116.122	724.344	-0.147	-0.391
-115.107	-200.000	-0.035	0.184
-114.093	-69.175	-0.335	0.128
-113.078	299.643	0.093	-0.170
-112.064	-7.125	0.103	0.069
-111.049	-136.665	0.213	-0.025
-110.034	800.000	0.075	-0.264
-109.020	782.855	-0.037	-0.100
-108.005	-199.385	0.047	-0.000
-106.991	-200.000	0.020	-0.324
-105.976	29.039	-0.185	0.156
-104.962	-65.187	0.134	0.054
-103.947	800.000	-0.088	0.273
-102.932	45.723	0.140	0.129
-101.918	-54.892	0.094	-0.042
-100.903	-85.291	-0.037	-0.012
-99.889	800.000	-0.046	0.188
-98.874	-200.000	0.048	-0.238
-97.859	-110.122	0.203	-0.042
-96.845	-200.000	-0.001	-0.049
-95.830	484.365	0.080	-0.180
-94.816	-200.000	0.053	0.313
-93.801	-127.980	-0.209	0.030
-92.786	-200.000	-0.038	0.180
-91.772	197.569	-0.078	-0.119
-90.757	205.002	-0.243	-0.376
-89.743	-82.857	0.170	0.054
-88.728	405.115	0.116	0.243
-87.713	343.569	-0.075	-0.146
-86.699	287.821	0.102	-0.184
-85.684	-27.787	0.127	0.073
-84.670	71.246	0.201	0.207
-83.655	-27.560	-0.201	0.116
-82.640	-200.000	-0.060	-0.281
-81.626	-61.831	-0.148	-0.061
-80.611	-200.000	-0.015	-0.081
-79.597	-81.369	0.412	0.135
-78.582	-15.041	-0.033	-0.021
-77.567	668.936	0.074	0.191
-76.553	6.496	-0.161	-0.119
-75.538	-101.357	-0.169	0.041
-74.524	-200.000	-0.019	0.198
-73.509	-120.602	0.039	-0.007
-72.494	-200.000	-0.046	0.406
-71.480	-52.196	0.181	-0.083
-70.465	47.158	-0.127	0.118
-69.451	449.003	-0.028	0.061
-68.436	234.207	0.115	0.188
-67.422	206.703	0.092	0.143
-66.407	800.000	0.074	-0.298
-65.392	37.756	0.172	0.152
-64.378	-49.292	0.096	0.046
-63.363	27.524	0.159	0.133
-62.349	-103.457	-0.270	0.063
-61.334	28.222	-0.807	-0.677
-60.319	12.113	0.280	0.214
-59.305	800.000	-0.210	-0.809
-58.290	201.034	0.444	0.678
-57.276	-200.000	0.131	1.639
-56.261	-200.000	79.947	498.076
-55.246	553.273	1368.740	3265.351
-54.232	181.922	2605.863	3808.455
-53.217	114.924	2365.343	2863.629
-52.203	47.815	1971.721	1827.017
-51.188	42.031	1756.043	1581.584
-50.173	39.336	1710.025	1519.311
-49.159	53.700	1747.236	1664.504
-48.144	58.093	1765.669	1716.212
-47.130	42.062	1727.874	1556.206
-46.115	38.970	1714.089	1519.846
-45.100	38.807	1709.250	1514.233
-44.086	38.805	1707.240	1512.383
-43.071	38.861	1703.951	1509.836
-42.057	38.762	1701.679	1507.001
-41.042	38.791	1699.761	1505.470
-40.027	38.822	1697.699	1503.819
-39.013	38.787	1695.700	1501.720
-37.998	38.732	1693.902	1499.650
-36.984	38.800	1692.604	1498.962
-35.969	38.948	1690.839	1498.466
-34.954	39.038	1688.963	1497.431
-33.940	38.832	1687.403	1494.415
-32.925	38.915	1685.180	1493.025
-31.911	38.929	1683.716	1491.772
-30.896	39.054	1680.998	1490.251
-29.881	38.907	1680.074	1488.261
-28.867	38.926	1678.756	1487.181
-27.852	39.014	1676.921	1486.161
-26.838	39.009	1675.167	1484.510
-25.823	38.928	1674.304	1483.075
-24.809	38.985	1672.892	1482.193
-23.794	39.004	1671.282	1480.850
-22.779	39.008	1669.628	1479.355
-21.765	38.961	1668.101	1477.593
-20.750	38.915	1666.265	1475.561
-19.736	39.034	1664.766	1475.069
-18.721	39.010	1663.008	1473.271
-17.706	38.995	1661.556	1471.814
-16.692	39.007	1659.590	1470.101
-15.677	38.980	1658.569	1468.941
-14.663	39.021	1657.122	1467.906
-13.648	38.941	1656.015	1466.267
-12.633	38.936	1654.162	1464.532
-11.619	38.855	1652.763	1462.635
-10.604	39.021	1650.914	1462.173
-9.590	38.910	1649.773	1460.278
-8.575	38.984	1648.217	1459.397
-7.560	38.980	1647.187	1458.399
-6.546	38.920	1646.241	1457.055
-5.531	38.833	1645.455	1455.656
-4.517	38.925	1643.606	1454.646
-3.502	38.938	1642.656	1453.844
-2.487	38.936	1641.362	1452.622
-1.473	38.914	1630.037	1442.383
-0.458	36.583	1609.850	1407.515
0.556	34.280	1608.811	1371.506
1.571	31.477	1632.505	1371.071
2.586	30.178	1645.709	1372.424
3.600	25.927	1589.408	1294.899
4.615	15.321	1472.576	1128.618
5.629	6.661	1401.916	1018.666
6.644	5.217	1393.166	1002.949
7.659	5.105	1391.255	1000.768
8.673	5.005	1390.320	999.361
9.688	5.053	1388.603	998.345
10.702	5.009	1386.250	996.288
11.717	8.686	1393.137	1024.724
12.731	17.843	1410.659	1096.623
13.746	22.507	1417.403	1131.809
14.761	21.217	1413.220	1120.099
15.775	20.046	1410.737	1110.528
16.790	18.980	1408.095	1101.526
17.804	18.239	1405.333	1094.533
18.819	17.712	1404.184	1090.171
19.834	17.497	1403.024	1087.800
20.848	17.272	1401.313	1084.945
21.863	17.020	1400.476	1082.590
22.877	17.002	1398.909	1081.168
23.892	16.898	1398.338	1079.967
24.907	16.846	1397.573	1078.952
25.921	16.875	1396.526	1078.232
26.936	16.919	1395.379	1077.531
27.950	17.067	1394.452	1077.662
28.965	16.990	1393.539	1076.373
29.980	17.008	1392.612	1075.675
30.994	17.107	1391.822	1075.594
32.009	17.172	1390.174	1074.638
33.023	17.246	1389.094	1074.175
34.038	17.152	1387.476	1072.235
35.053	16.980	1386.443	1070.256
36.067	17.017	1385.308	1069.519
37.082	17.033	1384.313	1068.759
38.096	17.133	1383.320	1068.526
39.111	17.111	1382.406	1067.591
40.126	17.028	1381.594	1066.347
41.140	16.858	1380.948	1064.684
42.155	16.650	1380.416	1062.873
43.169	16.764	1379.671	1062.924
44.184	16.765	1379.258	1062.513
45.199	16.699	1379.192	1061.959
46.213	16.835	1378.530	1062.204
47.228	16.965	1377.419	1062.068
48.242	17.045	1376.419	1061.706
49.257	17.001	1375.214	1060.406
50.271	17.016	1373.376	1058.987
51.286	16.963	1372.417	1057.828
52.301	16.968	1370.702	1056.442
53.315	16.931	1369.690	1055.335
54.330	16.866	1368.480	1053.904
55.344	16.768	1367.545	1052.486
56.359	16.861	1366.177	1051.914
57.374	16.735	1365.840	1050.783
58.388	16.774	1364.665	1050.028
59.403	16.778	1363.789	1049.287
60.417	16.740	1363.575	1048.792
61.432	16.677	1362.912	1047.798
62.447	16.649	1360.995	1046.062
63.461	16.527	1359.970	1044.423
64.476	16.594	1358.974	1043.979
65.490	16.541	1358.023	1042.830
66.505	16.604	1356.202	1041.731
67.520	16.622	1355.132	1040.924
68.534	16.694	1354.132	1040.510
69.549	16.638	1352.832	1039.077
70.563	16.553	1352.367	1038.103
71.578	16.599	1350.819	1037.107
72.593	16.516	1350.026	1035.899
73.607	16.437	1349.228	1034.708
74.622	16.454	1348.498	1034.162
75.636	16.505	1347.660	1033.737
76.651	16.529	1347.192	1033.436
77.666	16.463	1346.618	1032.501
78.680	16.560	1345.996	1032.522
79.695	16.596	1345.219	1032.055
80.709	16.525	1344.573	1031.037
81.724	16.674	1343.807	1031.267
82.739	16.717	1342.935	1030.770
83.753	16.871	1341.809	1030.749
84.768	16.950	1340.960	1030.487
85.782	17.053	1339.827	1030.151
86.797	17.068	1338.741	1029.310
87.812	16.883	1337.581	1027.208
88.826	16.904	1336.142	1026.141
89.841	16.895	1335.034	1025.145
90.855	16.982	1334.337	1025.043
91.870	17.046	1332.851	1024.197
92.884	17.070	1332.311	1023.837
93.899	17.073	1331.731	1023.318
94.914	17.178	1330.651	1023.032
95.928	17.142	1329.716	1022.005
96.943	17.138	1328.671	1021.087
97.957	17.017	1327.900	1019.675
98.972	16.965	1326.692	1018.346
99.987	17.073	1325.558	1018.032
101.001	17.065	1324.852	1017.353
102.016	17.003	1323.899	1016.164
103.030	16.986	1323.417	1015.598
104.045	17.112	1322.006	1015.180
105.060	16.924	1320.994	1013.191
106.074	16.903	1319.559	1011.871
107.089	16.758	1317.751	1009.534
108.103	16.618	1316.643	1007.760
109.118	16.651	1315.517	1007.009
110.133	16.712	1314.088	1006.188
111.147	16.729	1312.762	1005.186
112.162	16.676	1311.495	1003.809
113.176	16.816	1310.304	1003.638
114.191	16.781	1309.624	1002.820
115.206	16.792	1308.339	1001.816
116.220	16.742	1307.016	1000.420
117.235	16.761	1305.824	999.529
118.249	16.633	1305.336	998.312
119.264	16.742	1303.672	997.593
120.279	16.768	1302.136	996.482
121.293	16.741	1301.133	995.468
122.308	16.602	1300.488	994.069
123.322	16.639	1299.391	993.360
124.337	16.510	1298.570	991.888
125.352	16.564	1297.341	991.181
126.366	16.554	1296.152	990.121
127.381	16.503	1295.203	989.015
128.395	16.472	1294.429	988.151
129.410	16.706	1293.006	988.343
130.424	16.713	1292.323	987.777
131.439	16.741	1291.149	986.957
132.454	16.822	1290.403	986.770
133.468	16.723	1289.685	985.558
134.483	16.813	1288.635	985.190
135.497	16.902	1287.578	984.812
136.512	16.838	1286.640	983.635
137.527	16.871	1285.079	982.549
138.541	16.849	1283.887	981.425
139.556	16.948	1282.272	980.675
140.570	16.984	1281.485	980.195
141.585	17.107	1280.311	979.919
142.600	17.037	1279.193	978.572
143.614	17.254	1277.607	978.520
144.629	17.142	1277.244	977.515
145.643	17.183	1276.144	976.819
146.658	17.130	1274.516	975.183
147.673	16.927	1273.329	973.022
148.687	16.817	1272.585	971.736
149.702	16.871	1270.888	970.666
150.716	16.784	1269.607	969.101
151.731	16.818	1268.312	968.223
152.746	16.903	1266.793	967.461
153.760	16.886	1266.318	966.920
154.775	17.026	1264.535	966.266
155.789	16.955	1264.091	965.442
156.804	17.015	1262.711	964.643
157.819	17.102	1261.614	964.213
158.833	17.075	1261.346	963.769
159.848	17.230	1259.827	963.404
160.862	17.178	1259.264	962.593
161.877	17.058	1257.654	960.596
162.892	16.851	1256.668	958.586
163.906	16.973	1255.605	958.378
164.921	16.863	1254.717	956.998
165.935	17.033	1253.731	957.122
166.950	17.064	1253.623	957.125
167.964	17.069	1252.174	955.962
168.979	16.964	1252.449	955.499
169.994	17.037	1251.072	954.776
171.008	17.063	1250.670	954.531
172.023	17.224	1249.236	954.253
173.037	17.197	1248.734	953.637
174.052	17.219	1247.739	952.914
175.067	17.026	1246.772	951.008
176.081	17.020	1245.545	949.954
177.096	17.120	1244.677	949.767
178.110	17.141	1243.153	948.642
179.125	17.007	1242.478	947.294
180.140	17.071	1241.310	946.677
181.154	17.111	1240.131	945.913
182.169	17.313	1238.717	945.878
183.183	17.367	1237.939	945.502
184.198	17.292	1237.141	944.388
185.213	17.342	1235.607	943.410
186.227	17.357	1234.495	942.562
187.242	17.383	1233.570	941.917
188.256	17.410	1232.471	941.145
189.271	17.363	1231.606	940.139
190.286	17.304	1230.428	938.833
191.300	17.166	1229.158	937.017
192.315	16.936	1228.879	935.455
193.329	17.010	1228.286	935.330
194.344	17.089	1227.503	935.083
195.359	17.156	1226.888	934.902
196.373	17.242	1226.514	935.007
197.388	17.270	1226.394	934.989
198.402	17.462	1225.940	935.613
199.417	17.579	1225.329	935.710
200.432	17.523	1224.106	934.385
201.446	17.659	1223.066	934.253
202.461	17.684	1222.376	933.780
203.475	17.592	1221.685	932.667
204.490	17.633	1219.771	931.346
205.504	17.535	1218.666	929.886
206.519	17.608	1217.015	928.939
207.534	17.424	1216.288	927.300
208.548	17.388	1215.487	926.411
209.563	17.462	1214.747	926.171
210.577	17.507	1213.658	925.503
211.592	17.652	1212.890	925.619
212.607	17.712	1212.019	925.200
213.621	17.631	1211.282	924.118
214.636	17.626	1210.410	923.341
215.650	17.607	1209.360	922.358
216.665	17.797	1208.150	922.383
217.680	17.805	1207.435	921.796
218.694	17.845	1206.783	921.432
219.709	17.714	1206.285	920.266
220.723	17.773	1205.464	919.872
221.738	17.834	1204.952	919.732
222.753	17.837	1203.874	918.844
223.767	17.757	1202.910	917.595
224.782	17.855	1202.832	917.984
225.796	17.960	1202.162	917.954
226.811	17.927	1201.467	917.165
227.826	17.866	1200.684	916.159
228.840	17.877	1199.690	915.376
229.855	17.844	1198.757	914.407
230.869	17.765	1198.354	913.596
231.884	17.768	1197.306	912.731
232.899	17.845	1196.487	912.440
233.913	17.833	1195.291	911.383
234.928	17.678	1195.026	910.273
235.942	17.750	1194.088	909.863
236.957	17.620	1193.646	908.753
237.972	17.737	1192.771	908.630
238.986	17.766	1192.019	908.130
240.001	17.787	1191.234	907.560
241.015	17.848	1190.343	907.127
242.030	17.735	1190.087	906.254
243.045	17.889	1188.773	905.986
244.059	17.924	1187.957	905.471
245.074	18.090	1187.230	905.716
246.088	18.090	1186.430	905.025
247.103	18.000	1186.171	904.270
248.117	18.105	1184.825	903.720
249.132	18.245	1184.276	903.961
250.147	18.407	1183.851	904.415
251.161	18.406	1183.020	903.693
252.176	18.342	1182.862	903.154
253.190	18.366	1182.123	902.638
254.205	18.513	1181.727	903.028
255.220	18.598	1180.637	902.562
256.234	18.484	1180.327	901.646
257.249	18.656	1179.170	901.586
258.263	18.615	1178.355	900.669
259.278	18.555	1177.800	899.849
260.293	18.529	1177.688	899.547
261.307	18.649	1177.235	899.751
262.322	18.644	1176.133	898.804
263.336	18.713	1175.614	898.690
264.351	18.709	1174.845	897.999
265.366	18.740	1173.940	897.395
266.380	18.645	1173.800	896.709
267.395	18.698	1172.456	895.879
268.409	18.646	1171.811	895.036
269.424	18.616	1170.991	894.174
270.439	18.602	1170.333	893.519
271.453	18.654	1169.584	893.138
272.468	18.462	1168.900	891.539
273.482	18.511	1168.036	891.059
274.497	18.526	1167.312	890.503
275.512	18.577	1166.824	890.317
276.526	18.559	1166.265	889.720
277.541	18.554	1165.399	888.952
278.555	18.655	1165.087	889.160
279.570	18.614	1164.127	888.135
280.585	18.796	1163.393	888.440
281.599	18.809	1162.169	887.492
282.614	18.853	1161.031	886.771
283.628	18.769	1159.860	885.367
284.643	18.790	1159.214	884.906
285.657	18.799	1158.340	884.204
286.672	18.741	1157.421	883.128
287.687	18.768	1156.443	882.441
288.701	18.780	1155.820	881.951
289.716	18.744	1154.931	881.008
290.730	18.879	1154.395	881.212
291.745	18.887	1153.536	880.518
292.760	18.806	1152.950	879.580
293.774	18.980	1152.323	879.913
294.789	18.996	1152.366	879.952
295.803	18.974	1151.352	878.987
296.818	18.869	1150.527	877.742
297.833	18.844	1149.652	876.871
298.847	19.052	1148.493	876.972
299.862	18.854	1147.937	875.458
300.876	18.881	1147.242	874.989
301.891	18.974	1146.819	875.059
302.906	19.048	1146.516	875.131
303.920	19.034	1145.405	874.135
304.935	19.164	1144.757	874.219
305.949	19.166	1144.419	873.894
306.964	19.109	1143.941	873.164
307.979	19.247	1142.525	872.706
308.993	19.099	1141.883	871.386
310.008	19.238	1141.096	871.416
311.022	19.208	1140.330	870.601
312.037	19.126	1139.469	869.449
313.052	19.272	1138.158	869.111
314.066	19.103	1137.416	867.615
315.081	19.043	1136.521	866.555
316.095	18.951	1135.886	865.529
317.110	19.099	1135.152	865.637
318.125	19.035	1134.281	864.574
319.139	19.069	1133.367	863.972
320.154	18.978	1133.326	863.409
321.168	19.048	1132.540	863.084
322.183	19.051	1131.816	862.473
323.197	19.064	1131.674	862.351
324.212	19.250	1130.373	862.214
325.227	19.183	1130.261	861.716
326.241	19.126	1129.446	860.737
327.256	19.222	1128.616	860.505
328.270	19.137	1127.358	859.047
329.285	19.180	1126.597	858.606
330.300	19.098	1125.851	857.553
331.314	19.142	1124.766	856.868
332.329	19.228	1123.661	856.380
333.343	19.228	1123.139	855.904
334.358	19.421	1121.997	855.917
335.373	19.417	1121.698	855.593
336.387	19.400	1120.859	854.792
337.402	19.531	1119.621	854.423
338.416	19.505	1119.222	853.916
339.431	19.460	1118.821	853.307
340.446	19.595	1117.853	853.163
341.460	19.602	1117.712	853.013
342.475	19.745	1116.917	853.036
343.489	19.809	1115.559	852.241
344.504	19.704	1115.039	851.252
345.519	19.732	1114.199	850.673
346.533	19.888	1113.501	850.828
347.548	19.847	1112.454	849.753
348.562	19.797	1111.978	849.072
349.577	19.624	1111.092	847.468
350.592	19.672	1109.830	846.667
351.606	19.652	1109.027	845.882
352.621	19.549	1108.613	844.985
353.635	19.573	1107.966	844.538
354.650	19.618	1107.191	844.093
355.665	19.729	1106.355	843.923
356.679	19.615	1106.007	843.026
357.694	19.800	1105.226	843.256
358.708	19.785	1104.881	842.844
359.723	19.723	1104.187	841.939
360.738	19.733	1103.373	841.295
361.752	19.786	1102.890	841.109
362.767	19.689	1102.397	840.186
363.781	19.677	1102.012	839.761
364.796	19.877	1101.294	840.109
365.810	19.972	1100.509	839.897
366.825	20.151	1099.653	840.039
367.840	19.974	1099.608	839.072
368.854	20.189	1098.831	839.445
369.869	20.183	1098.344	838.971
370.883	20.109	1097.188	837.653
371.898	20.118	1096.465	837.074
372.913	20.051	1095.860	836.214
373.927	20.023	1095.429	835.674
374.942	20.117	1095.097	835.799
375.956	20.146	1094.384	835.321
376.971	20.120	1093.668	834.576
377.986	20.120	1093.322	834.241
379.000	20.277	1092.400	834.216
380.015	20.234	1092.407	833.944
381.029	20.471	1091.033	833.956
382.044	20.348	1090.501	832.886
383.059	20.385	1089.799	832.453
384.073	20.350	1088.994	831.595
385.088	20.376	1087.844	830.772
386.102	20.206	1087.150	829.351
387.117	20.240	1085.972	828.545
388.132	20.148	1085.003	827.291
389.146	20.292	1084.599	827.599
390.161	20.151	1083.956	826.361
391.175	20.173	1082.782	825.500
392.190	20.246	1082.059	825.223
393.205	20.379	1081.584	825.420
394.219	20.454	1080.753	825.069
395.234	20.279	1079.981	823.574
396.248	20.303	1078.750	822.676
397.263	20.416	1077.476	822.167
398.278	20.290	1076.751	820.946
399.292	20.185	1076.789	820.405
400.307	20.227	1075.488	819.538
401.321	20.248	1074.885	819.107
402.336	20.259	1074.092	818.482
403.350	20.207	1073.665	817.841
404.365	20.224	1073.213	817.504
405.380	20.405	1072.048	817.397
406.394	20.459	1071.393	817.076
407.409	20.475	1070.580	816.460
408.423	20.543	1070.068	816.317
409.438	20.647	1069.869	816.581
410.453	20.581	1069.165	815.663
411.467	20.667	1068.278	815.318
412.482	20.632	1067.537	814.515
413.496	20.779	1066.782	814.555
414.511	20.838	1066.386	814.454
415.526	20.861	1065.794	814.041
416.540	20.839	1065.283	813.474
417.555	20.873	1064.765	813.165
418.569	20.816	1064.282	812.460
419.584	20.837	1063.308	811.742
420.599	20.896	1063.195	811.856
421.613	146.000	1393.621	1760.846
422.628	134.358	1441.781	1760.957
