DTS Sentinel unit serial number:	SN413079Multiplexer serial number:	ORYXHardware model number:	OX4-SRSoftware version number:	ORYX F/W v4.00 Oryx Data Collector v3.7.2.0data status	okinstallation	princeton_trtdifferential loss correction	single-endedforward channel	channel 2reverse channel	N/Adate	2019/09/17time	08:51:35forward acquisition time	60.00reverse acquisition time	0.00gamma	496.2192k internal	0.2331k external	0.2331temperature offset calibration	0.9976default loss term (dB/km)	0.3790temperature slope calibration	1.0000multiplexer offset coefficient	1.0000multiplexer slope coefficient	1.0000fibre end	0.00T internal ref (°C)	27.87T ext. ref 1 (°C)	0.13T ext. ref 2 (°C)	23.51length (m)	temperature (°C)	Stokes	anti-Stokes-747.200	55.444	-0.188	-0.183
-746.185	194.355	0.109	0.166
-745.171	54.873	0.208	0.202
-744.156	23.176	-0.535	0.442
-743.142	-102.752	-0.380	0.091
-742.127	-200.000	0.015	0.401
-741.112	-24.105	0.095	-0.057
-740.098	40.203	0.164	0.149
-739.083	-200.000	-0.000	0.152
-738.069	-43.118	-0.330	-0.168
-737.054	392.842	-0.138	-0.289
-736.039	712.899	-0.068	-0.182
-735.025	63.532	0.173	-0.175
-734.010	17.009	-0.306	-0.243
-732.996	255.803	-0.119	-0.205
-731.981	78.669	-0.109	0.118
-730.966	202.375	0.117	-0.182
-729.952	-29.068	-0.198	0.114
-728.937	-21.422	-0.204	-0.125
-727.923	354.669	-0.079	0.158
-726.908	109.951	0.089	-0.108
-725.894	366.617	-0.167	-0.339
-724.879	-7.311	-0.288	-0.196
-723.864	187.212	-0.056	-0.084
-722.850	207.431	-0.056	0.088
-721.835	390.235	0.117	0.243
-720.821	-200.000	0.081	-0.396
-719.806	-84.903	-0.159	-0.050
-718.791	-86.996	0.295	0.090
-717.777	800.000	0.054	0.189
-716.762	-38.821	-0.111	0.059
-715.748	-79.331	0.155	-0.053
-714.733	-200.000	0.017	-0.221
-713.718	-54.395	-0.112	0.051
-712.704	-200.000	0.029	0.170
-711.689	106.682	0.202	0.241
-710.675	-200.000	0.042	-0.203
-709.660	47.673	0.241	0.226
-708.645	36.018	0.037	-0.033
-707.631	2.093	-0.111	-0.081
-706.616	255.855	-0.064	-0.111
-705.602	-149.883	0.364	0.029
-704.587	557.591	0.107	0.259
-703.572	397.656	0.145	0.305
-702.558	-121.030	0.314	0.053
-701.543	-86.635	-0.228	-0.070
-700.529	-200.000	0.024	-0.162
-699.514	-92.366	0.578	0.164
-698.499	258.021	0.069	-0.119
-697.485	-200.000	-0.281	0.000
-696.470	-140.718	0.414	0.043
-695.456	288.005	-0.144	0.263
-694.441	-64.515	-0.115	-0.047
-693.426	-20.641	0.262	-0.162
-692.412	151.607	-0.110	0.151
-691.397	460.745	0.073	-0.163
-690.383	463.132	-0.053	0.118
-689.368	-68.780	0.281	0.109
-688.354	62.212	-0.331	-0.332
-687.339	-107.594	-0.089	-0.019
-686.324	8.030	0.233	-0.176
-685.310	800.000	0.050	-0.211
-684.295	-200.000	-0.086	-0.398
-683.281	-7.630	-0.053	-0.036
-682.266	-166.689	-0.121	0.005
-681.251	473.862	0.150	-0.340
-680.237	124.281	-0.214	-0.270
-679.222	538.804	0.082	0.195
-678.208	120.446	0.168	0.210
-677.193	800.000	0.027	0.103
-676.178	232.702	-0.068	0.112
-675.164	15.091	0.280	-0.220
-674.149	554.773	0.157	0.379
-673.135	-111.368	-0.144	-0.029
-672.120	-69.582	-0.270	-0.104
-671.105	111.581	-0.173	-0.209
-670.091	800.000	-0.083	0.261
-669.076	800.000	0.067	-0.287
-668.062	800.000	-0.056	-0.183
-667.047	-200.000	-0.013	-0.198
-666.032	19.342	-0.093	0.075
-665.018	-101.229	-0.283	-0.069
-664.003	99.669	0.108	-0.125
-662.989	-102.704	0.165	0.039
-661.974	40.563	0.224	0.202
-660.959	800.000	0.123	0.398
-659.945	-200.000	-0.036	-0.251
-658.930	278.665	0.109	0.196
-657.916	-143.315	0.211	0.020
-656.901	-200.000	-0.007	-0.072
-655.886	75.448	0.082	-0.086
-654.872	-37.489	0.376	0.201
-653.857	800.000	-0.086	-0.255
-652.843	109.439	0.192	-0.230
-651.828	-37.602	0.255	-0.136
-650.814	29.116	0.283	0.241
-649.799	-200.000	0.004	-0.191
-648.784	82.585	-0.220	0.240
-647.770	219.092	-0.229	-0.368
-646.755	123.084	0.220	-0.277
-645.741	759.432	0.049	0.134
-644.726	-47.084	0.045	0.022
-643.711	-200.000	0.039	0.238
-642.697	-128.692	-0.215	-0.030
-641.682	-189.585	-0.027	-0.000
-640.668	-117.752	-0.102	0.018
-639.653	-41.806	0.144	-0.074
-638.638	-60.485	0.171	0.073
-637.624	-40.793	0.015	0.008
-636.609	-74.734	-0.305	0.110
-635.595	64.379	-0.114	-0.115
-634.580	-200.000	-0.020	0.235
-633.565	-31.159	-0.132	-0.075
-632.551	-61.242	-0.413	-0.174
-631.536	-166.940	0.238	0.010
-630.522	5.621	-0.189	0.140
-629.507	800.000	0.141	0.437
-628.492	-8.573	-0.217	0.146
-627.478	326.324	-0.013	0.025
-626.463	524.287	-0.039	0.091
-625.449	302.530	0.118	0.218
-624.434	-200.000	-0.006	0.106
-623.419	-121.311	-0.103	-0.017
-622.405	9.194	-0.109	-0.083
-621.390	-83.492	0.329	0.105
-620.376	160.072	0.089	-0.124
-619.361	800.000	-0.050	-0.218
-618.346	-200.000	-0.009	0.311
-617.332	-171.722	-0.473	0.016
-616.317	195.017	0.096	-0.146
-615.303	173.217	0.204	0.294
-614.288	255.722	-0.242	0.416
-613.273	555.038	0.042	-0.102
-612.259	-200.000	-0.007	0.042
-611.244	800.000	0.054	0.183
-610.230	-133.830	-0.475	-0.059
-609.215	175.429	-0.028	0.040
-608.201	-83.657	0.207	-0.066
-607.186	354.990	-0.060	-0.118
-606.171	800.000	-0.076	-0.252
-605.157	-104.983	-0.305	0.070
-604.142	-200.000	0.004	-0.126
-603.128	173.369	0.046	0.067
-602.113	228.376	0.319	-0.519
-601.098	-72.504	-0.309	0.114
-600.084	-118.960	-0.323	-0.057
-599.069	-91.257	0.383	-0.110
-598.055	-35.644	-0.270	0.147
-597.040	-200.000	-0.011	-0.285
-596.025	230.562	0.061	-0.099
-595.011	82.894	-0.058	-0.063
-593.996	-52.626	-0.296	0.137
-592.982	74.086	0.011	0.012
-591.967	-142.936	0.284	0.028
-590.952	-65.697	0.171	-0.069
-589.938	-139.290	0.109	0.012
-588.923	226.849	-0.034	0.056
-587.909	-170.566	-0.177	-0.006
-586.894	-128.226	-0.268	0.038
-585.879	-200.000	-0.011	0.169
-584.865	-79.019	-0.121	-0.041
-583.850	-38.277	0.086	0.045
-582.836	-137.188	-0.455	-0.052
-581.821	800.000	0.101	0.338
-580.806	-13.599	-0.270	0.175
-579.792	295.938	0.099	-0.182
-578.777	124.935	0.252	0.317
-577.763	-142.065	-0.171	-0.017
-576.748	-9.682	0.319	0.212
-575.733	-111.475	-0.125	-0.025
-574.719	103.481	0.332	-0.390
-573.704	-2.498	-0.078	-0.055
-572.690	200.635	-0.062	0.096
-571.675	132.557	0.235	0.303
-570.661	-58.559	0.204	0.088
-569.646	-131.217	0.444	0.059
-568.631	-2.127	-0.241	-0.169
-567.617	800.000	-0.065	0.194
-566.602	-200.000	-0.048	0.315
-565.588	-25.151	0.201	-0.119
-564.573	-35.177	0.163	0.088
-563.558	12.445	0.320	-0.246
-562.544	-127.106	-0.261	-0.038
-561.529	431.038	0.139	-0.301
-560.515	-200.000	0.021	0.392
-559.500	-130.016	-0.238	0.032
-558.485	-58.920	0.397	0.172
-557.471	149.967	0.167	-0.226
-556.456	800.000	-0.083	-0.341
-555.442	3.221	-0.272	0.198
-554.427	-23.066	-0.348	0.209
-553.412	189.050	0.054	-0.080
-552.398	-113.574	-0.111	0.022
-551.383	800.000	-0.033	-0.144
-550.369	175.614	-0.162	-0.234
-549.354	-19.280	0.104	-0.064
-548.339	-128.712	-0.286	0.040
-547.325	-77.248	-0.300	-0.104
-546.310	-200.000	-0.018	0.487
-545.296	-15.610	0.045	-0.029
-544.281	-92.797	0.248	-0.069
-543.266	89.568	0.085	-0.095
-542.252	-200.000	0.030	0.167
-541.237	63.733	0.236	-0.237
-540.223	-163.448	0.097	-0.005
-539.208	-91.350	-0.120	-0.034
-538.193	-200.000	-0.021	0.164
-537.179	305.726	-0.183	-0.340
-536.164	-3.766	0.107	0.074
-535.150	554.713	-0.026	0.062
-534.135	-68.146	-0.118	-0.046
-533.121	16.172	0.107	0.085
-532.106	112.205	-0.091	-0.109
-531.091	-11.007	-0.088	0.058
-530.077	-200.000	-0.030	0.178
-529.062	800.000	0.157	-0.543
-528.048	342.795	0.143	-0.280
-527.033	52.210	0.071	0.067
-526.018	-2.535	0.422	0.295
-525.004	289.317	0.043	-0.078
-523.989	-82.186	-0.331	-0.107
-522.975	-64.158	-0.072	-0.029
-521.960	-164.291	-0.132	0.006
-520.945	-39.532	0.075	-0.039
-519.931	-200.000	0.079	0.499
-518.916	800.000	0.034	0.124
-517.902	12.529	-0.343	0.264
-516.887	800.000	-0.057	-0.212
-515.872	-90.687	-0.149	0.043
-514.858	-200.000	0.007	0.209
-513.843	-200.000	0.006	-0.051
-512.829	300.642	-0.067	-0.123
-511.814	416.441	-0.044	-0.094
-510.799	-158.954	-0.137	-0.008
-509.785	228.798	-0.061	-0.099
-508.770	240.401	0.249	0.414
-507.756	-15.623	0.124	-0.079
-506.741	-200.000	0.046	0.234
-505.726	98.221	-0.223	0.256
-504.712	-200.000	-0.102	0.537
-503.697	-54.333	0.224	-0.101
-502.683	99.258	0.108	-0.124
-501.668	299.164	-0.030	0.055
-500.653	-97.370	-0.413	-0.107
-499.639	800.000	0.076	0.262
-498.624	-82.870	-0.099	0.032
-497.610	-134.420	-0.232	0.028
-496.595	-200.000	0.019	0.093
-495.581	800.000	0.059	-0.216
-494.566	-39.861	-0.161	0.084
-493.551	-14.431	0.183	-0.118
-492.537	180.692	0.301	-0.440
-491.522	213.181	0.080	0.126
-490.508	43.421	0.351	0.319
-489.493	-170.772	-0.148	-0.005
-488.478	-52.245	-0.171	0.079
-487.464	-200.000	0.038	-0.187
-486.449	41.483	-0.070	0.063
-485.435	194.397	0.114	0.172
-484.420	61.915	0.066	0.065
-483.405	300.501	-0.082	0.151
-482.391	48.298	0.053	0.050
-481.376	-200.000	-0.018	-0.318
-480.362	800.000	-0.079	0.222
-479.347	-69.924	-0.304	0.115
-478.332	-200.000	-0.035	-0.287
-477.318	40.247	0.198	-0.177
-476.303	-71.118	-0.340	-0.127
-475.289	800.000	-0.070	-0.303
-474.274	-200.000	-0.004	0.184
-473.259	-200.000	0.015	0.304
-472.245	-11.576	-0.275	-0.180
-471.230	-200.000	-0.093	-0.435
-470.216	-92.621	-0.041	0.012
-469.201	-9.558	-0.226	-0.150
-468.186	27.662	0.345	-0.289
-467.172	216.388	-0.060	0.095
-466.157	-102.661	-0.345	0.082
-465.143	-109.808	-0.185	0.039
-464.128	-150.572	0.149	0.011
-463.113	52.898	-0.064	-0.061
-462.099	-73.571	-0.182	0.066
-461.084	20.328	0.057	-0.046
-460.070	-20.592	0.153	-0.093
-459.055	-104.098	-0.072	0.017
-458.040	52.877	-0.214	-0.204
-457.026	23.919	0.225	-0.184
-456.011	-200.000	-0.034	0.196
-454.997	64.772	-0.146	0.146
-453.982	314.296	0.102	-0.192
-452.968	18.524	-0.193	-0.153
-451.953	406.625	0.020	0.043
-450.938	48.227	-0.180	0.168
-449.924	78.598	0.303	-0.322
-448.909	-127.589	-0.147	-0.021
-447.895	-16.743	-0.136	-0.086
-446.880	-125.991	-0.401	0.060
-445.865	303.116	0.272	-0.501
-444.851	-180.999	-0.370	0.007
-443.836	50.771	0.144	-0.136
-442.822	127.646	0.165	-0.208
-441.807	-97.040	-0.472	-0.123
-440.792	-200.000	0.003	0.021
-439.778	-200.000	0.007	0.054
-438.763	-9.828	-0.252	-0.167
-437.749	-200.000	0.024	0.208
-436.734	-7.169	0.164	0.110
-435.719	-200.000	-0.066	0.417
-434.705	-46.075	0.119	0.058
-433.690	53.341	0.137	-0.131
-432.676	-200.000	0.014	0.244
-431.661	23.376	0.220	-0.180
-430.646	800.000	0.006	0.022
-429.632	255.068	0.031	-0.053
-428.617	17.892	-0.278	-0.220
-427.603	418.068	0.088	0.187
-426.588	-200.000	0.012	0.179
-425.573	-114.013	0.045	-0.009
-424.559	-67.820	0.295	-0.114
-423.544	792.128	-0.033	-0.091
-422.530	-113.513	0.501	0.097
-421.515	362.004	-0.174	-0.346
-420.500	599.258	0.148	-0.366
-419.486	243.978	0.164	0.274
-418.471	98.927	0.088	-0.101
-417.457	-200.000	0.009	-0.106
-416.442	188.481	-0.038	0.056
-415.428	-11.908	0.106	-0.069
-414.413	-99.657	0.166	-0.041
-413.398	-13.853	0.109	-0.070
-412.384	-144.663	0.260	-0.024
-411.369	-94.214	0.307	-0.083
-410.355	800.000	-0.056	-0.239
-409.340	124.956	-0.095	0.119
-408.325	-150.993	-0.394	0.030
-407.311	-200.000	-0.020	-0.203
-406.296	800.000	-0.049	0.209
-405.282	800.000	0.077	0.255
-404.267	-30.397	0.093	-0.052
-403.252	65.642	-0.093	0.094
-402.238	138.834	0.161	-0.210
-401.223	261.672	0.080	-0.137
-400.209	67.029	-0.168	-0.170
-399.194	-200.000	-0.009	-0.154
-398.179	-200.000	-0.004	0.107
-397.165	382.604	0.057	0.117
-396.150	-10.986	-0.280	-0.184
-395.136	-134.093	-0.110	0.013
-394.121	-200.000	0.005	-0.054
-393.106	-65.431	-0.207	-0.082
-392.092	-162.836	0.436	-0.021
-391.077	354.545	-0.143	0.283
-390.063	603.415	0.095	-0.234
-389.048	-53.738	0.192	0.087
-388.033	-23.767	0.247	0.147
-387.019	347.078	-0.270	0.528
-386.004	-118.591	0.147	-0.026
-384.990	-65.503	0.346	0.138
-383.975	89.513	-0.146	-0.162
-382.960	-165.475	0.132	0.006
-381.946	-80.968	0.155	0.051
-380.931	91.415	0.143	-0.160
-379.917	222.273	0.050	0.079
-378.902	-91.755	-0.042	0.012
-377.888	-52.066	-0.296	-0.136
-376.873	-0.623	0.098	-0.069
-375.858	369.538	0.070	0.141
-374.844	800.000	0.064	0.186
-373.829	800.000	-0.107	0.318
-372.815	559.708	0.114	-0.272
-371.800	-34.289	-0.061	-0.033
-370.785	-200.000	-0.008	0.409
-369.771	-149.915	-0.198	-0.015
-368.756	800.000	-0.057	-0.221
-367.742	800.000	-0.035	-0.149
-366.727	-200.000	-0.026	-0.266
-365.712	15.823	0.226	-0.176
-364.698	-200.000	-0.060	-0.387
-363.683	533.607	-0.104	-0.243
-362.669	296.481	-0.128	0.232
-361.654	-162.249	0.296	0.015
-360.639	-102.032	0.106	0.025
-359.625	155.518	-0.139	-0.189
-358.610	-200.000	0.007	-0.137
-357.596	114.153	0.070	0.084
-356.581	800.000	0.022	-0.071
-355.566	-95.002	0.185	-0.050
-354.552	-200.000	0.007	-0.153
-353.537	107.953	-0.152	0.180
-352.523	-168.199	0.281	0.011
-351.508	-200.000	-0.018	-0.085
-350.493	800.000	-0.075	-0.211
-349.479	-200.000	-0.048	0.257
-348.464	-62.111	0.411	-0.170
-347.450	-79.046	-0.221	-0.074
-346.435	-9.448	-0.348	-0.230
-345.420	800.000	0.059	-0.214
-344.406	800.000	-0.035	0.138
-343.391	-200.000	0.080	0.348
-342.377	-144.147	0.206	-0.019
-341.362	-200.000	0.010	-0.134
-340.348	99.934	0.159	-0.183
-339.333	-106.683	-0.210	0.046
-338.318	-76.693	-0.107	-0.037
-337.304	-200.000	0.007	-0.130
-336.289	-200.000	0.053	-0.286
-335.275	-200.000	-0.021	0.391
-334.260	82.620	-0.167	-0.180
-333.245	-200.000	0.002	-0.052
-332.231	-200.000	0.017	-0.141
-331.216	-200.000	-0.005	0.026
-330.202	45.246	0.085	-0.077
-329.187	31.150	-0.243	-0.207
-328.172	-118.765	0.093	0.016
-327.158	-80.511	-0.202	0.067
-326.143	42.013	0.174	0.157
-325.129	800.000	0.015	-0.050
-324.114	498.578	0.186	-0.423
-323.099	-200.000	-0.003	-0.204
-322.085	127.592	-0.087	-0.110
-321.070	800.000	-0.072	-0.283
-320.056	-47.186	-0.286	0.138
-319.041	350.677	0.027	-0.054
-318.026	800.000	-0.108	0.315
-317.012	-47.036	-0.080	0.039
-315.997	-140.483	0.354	-0.036
-314.983	-87.940	0.158	-0.047
-313.968	192.910	0.172	0.257
-312.953	-5.373	-0.186	-0.126
-311.939	800.000	0.049	0.184
-310.924	800.000	0.039	0.141
-309.910	-32.530	-0.060	0.033
-308.895	-66.036	0.551	-0.218
-307.880	-200.000	0.012	0.100
-306.866	-81.017	0.038	0.012
-305.851	-182.029	-0.283	0.005
-304.837	-1.177	-0.528	0.369
-303.822	93.128	-0.174	-0.194
-302.807	-75.320	0.200	0.070
-301.793	-24.522	-0.392	0.231
-300.778	800.000	0.065	0.269
-299.764	58.014	0.247	-0.239
-298.749	59.864	0.163	-0.159
-297.735	31.800	0.087	-0.074
-296.720	-200.000	-0.034	-0.254
-295.705	25.929	-0.278	0.229
-294.691	241.031	-0.181	0.299
-293.676	130.491	0.100	0.127
-292.662	-45.685	0.368	-0.180
-291.647	-121.276	0.168	-0.028
-290.632	-136.596	-0.361	-0.041
-289.618	-25.996	-0.118	0.069
-288.603	115.671	-0.097	-0.117
-287.589	-200.000	0.042	0.214
-286.574	-71.758	-0.138	0.051
-285.559	52.120	0.185	0.174
-284.545	-39.798	0.170	0.088
-283.530	604.523	-0.026	-0.063
-282.516	24.713	0.110	-0.090
-281.501	-86.975	0.207	0.062
-280.486	1.676	-0.092	-0.065
-279.472	161.959	-0.130	-0.180
-278.457	58.784	0.132	-0.128
-277.443	800.000	0.074	-0.234
-276.428	-51.798	0.443	0.204
-275.413	31.022	0.304	0.257
-274.399	-54.794	0.156	0.070
-273.384	100.559	0.104	0.120
-272.370	-175.138	-0.147	-0.004
-271.355	448.418	0.082	-0.179
-270.340	678.407	0.128	-0.328
-269.326	42.728	-0.302	0.272
-268.311	-11.606	0.300	0.194
-267.297	-114.901	-0.270	0.051
-266.282	56.917	0.082	-0.079
-265.267	129.731	0.174	-0.220
-264.253	-44.995	-0.432	-0.213
-263.238	-84.658	-0.314	0.098
-262.224	217.117	-0.041	0.064
-261.209	-200.000	0.043	-0.219
-260.195	-45.179	0.170	0.083
-259.180	-146.885	0.346	-0.029
-258.165	600.321	-0.133	-0.327
-257.151	-200.000	-0.018	0.134
-256.136	-3.933	-0.307	-0.210
-255.122	-79.741	0.179	0.059
-254.107	800.000	-0.103	0.371
-253.092	-92.190	0.116	-0.032
-252.078	-200.000	-0.001	0.288
-251.063	27.011	0.067	-0.055
-250.049	34.380	0.129	-0.112
-249.034	23.607	-0.080	-0.065
-248.019	-62.789	-0.324	-0.133
-247.005	189.543	0.078	0.116
-245.990	162.495	0.216	0.299
-244.976	-200.000	0.010	0.145
-243.961	-119.259	-0.131	0.023
-242.946	-200.000	-0.061	-0.319
-241.932	190.898	-0.172	0.256
-240.917	800.000	-0.022	0.084
-239.903	-105.223	0.314	0.071
-238.888	800.000	0.040	0.117
-237.873	27.677	0.259	0.216
-236.859	236.682	-0.082	0.134
-235.844	-200.000	-0.054	-0.291
-234.830	800.000	-0.069	0.221
-233.815	-127.667	0.497	0.071
-232.800	-38.354	0.409	0.214
-231.786	-57.078	0.201	-0.087
-230.771	-49.032	-0.297	-0.140
-229.757	-179.174	0.303	0.007
-228.742	-200.000	-0.022	0.381
-227.727	36.575	-0.136	-0.119
-226.713	-53.227	-0.176	0.080
-225.698	42.074	0.176	0.157
-224.684	64.469	0.216	0.215
-223.669	254.998	0.056	0.094
-222.655	-200.000	0.024	0.279
-221.640	800.000	0.021	0.077
-220.625	421.089	-0.035	0.073
-219.611	-200.000	0.001	0.242
-218.596	-134.272	-0.184	-0.022
-217.582	-200.000	-0.022	0.216
-216.567	-16.482	-0.362	0.226
-215.552	-44.205	-0.208	-0.103
-214.538	-160.985	0.105	0.005
-213.523	28.280	0.129	-0.108
-212.509	-200.000	-0.001	-0.095
-211.494	-99.960	0.228	-0.056
-210.479	-106.720	-0.250	-0.055
-209.465	-107.434	0.106	-0.023
-208.450	208.490	-0.022	0.034
-207.436	-200.000	0.024	0.134
-206.421	-181.091	0.425	-0.008
-205.406	-15.292	0.319	0.201
-204.392	49.219	-0.210	0.194
-203.377	45.976	-0.131	-0.119
-202.363	-47.692	-0.254	0.121
-201.348	-80.373	-0.294	-0.097
-200.333	-105.564	0.080	0.018
-199.319	126.122	-0.285	-0.356
-198.304	-200.000	0.005	-0.103
-197.290	-83.448	0.054	0.017
-196.275	31.641	-0.115	0.097
-195.260	112.678	-0.140	-0.167
-194.246	226.240	-0.035	-0.056
-193.231	-200.000	0.021	-0.194
-192.217	220.941	0.089	0.141
-191.202	-200.000	-0.046	0.295
-190.187	-200.000	0.053	0.498
-189.173	670.198	0.059	-0.150
-188.158	399.055	-0.152	0.313
-187.144	283.878	0.244	-0.432
-186.129	-83.728	-0.134	-0.042
-185.114	-200.000	0.056	-0.340
-184.100	-200.000	0.006	0.133
-183.085	423.062	0.138	0.292
-182.071	800.000	0.075	-0.280
-181.056	288.864	0.121	-0.217
-180.042	-200.000	-0.007	-0.162
-179.027	800.000	0.099	0.289
-178.012	800.000	0.050	0.159
-176.998	-72.230	0.379	0.138
-175.983	-200.000	0.045	-0.311
-174.969	590.290	-0.027	0.065
-173.954	118.132	0.125	-0.152
-172.939	-33.983	-0.151	-0.082
-171.925	-64.994	-0.312	-0.124
-170.910	95.868	0.161	-0.181
-169.896	91.870	0.142	-0.157
-168.881	422.652	0.063	0.133
-167.866	255.242	0.083	-0.140
-166.852	280.426	0.056	-0.098
-165.837	800.000	0.027	0.074
-164.823	-30.176	0.101	-0.056
-163.808	-104.628	0.302	-0.068
-162.793	31.472	-0.070	-0.059
-161.779	800.000	0.027	-0.081
-160.764	220.079	-0.087	0.137
-159.750	-19.148	-0.151	-0.092
-158.735	14.431	0.114	0.087
-157.720	-107.727	0.108	0.023
-156.706	-167.763	-0.226	-0.009
-155.691	-87.579	0.134	0.040
-154.677	-131.187	0.124	-0.016
-153.662	-200.000	-0.027	0.183
-152.647	-123.402	-0.212	-0.033
-151.633	-10.315	-0.113	-0.074
-150.618	800.000	-0.056	0.224
-149.604	283.242	0.111	-0.195
-148.589	-20.915	0.230	0.138
-147.574	196.496	0.060	-0.090
-146.560	-54.677	0.174	0.077
-145.545	-200.000	-0.008	0.080
-144.531	-114.370	-0.210	-0.040
-143.516	-180.794	-0.161	0.003
-142.502	93.354	0.054	-0.061
-141.487	7.271	-0.255	-0.187
-140.472	-200.000	-0.039	-0.191
-139.458	37.669	-0.104	0.091
-138.443	-126.454	0.157	-0.023
-137.429	-90.976	0.136	-0.038
-136.414	-20.853	-0.482	0.290
-135.399	35.811	0.168	-0.145
-134.385	409.194	0.204	0.425
-133.370	-184.896	0.283	0.004
-132.356	-104.726	0.382	-0.086
-131.341	-91.349	-0.325	-0.091
-130.326	-200.000	-0.026	0.162
-129.312	13.436	0.070	-0.053
-128.297	-200.000	0.048	-0.265
-127.283	-137.395	0.122	-0.014
-126.268	-36.424	-0.426	0.225
-125.253	-200.000	-0.005	0.024
-124.239	-200.000	-0.032	0.206
-123.224	129.751	0.102	0.128
-122.210	28.150	-0.142	-0.118
-121.195	44.588	0.151	0.137
-120.180	800.000	0.076	-0.267
-119.166	-200.000	-0.019	0.173
-118.151	-124.059	0.113	0.017
-117.137	-179.158	0.409	-0.009
-116.122	-95.734	0.252	0.066
-115.107	38.332	0.276	0.241
-114.093	-173.460	0.016	-0.000
-113.078	-200.000	0.024	-0.128
-112.064	22.960	-0.149	0.120
-111.049	358.633	0.115	0.226
-110.034	17.455	-0.258	-0.201
-109.020	-118.984	-0.228	0.039
-108.005	214.328	-0.072	-0.112
-106.991	-88.744	0.177	-0.052
-105.976	127.689	-0.194	0.242
-104.962	-115.491	-0.187	-0.035
-103.947	82.671	0.314	-0.335
-102.932	-46.134	0.129	-0.063
-101.918	75.955	0.044	-0.045
-100.903	-153.842	0.107	-0.007
-99.889	800.000	0.063	0.253
-98.874	-175.170	0.248	-0.007
-97.859	109.011	-0.171	-0.201
-96.845	800.000	0.064	0.236
-95.830	800.000	-0.183	0.567
-94.816	-200.000	-0.003	-0.072
-93.801	-200.000	0.020	-0.189
-92.786	154.363	-0.093	0.125
-91.772	89.885	0.232	-0.254
-90.757	-200.000	-0.003	-0.329
-89.743	161.598	0.161	-0.220
-88.728	-52.317	-0.463	0.210
-87.713	-141.713	0.148	-0.015
-86.699	-59.478	-0.213	-0.090
-85.684	-200.000	-0.014	0.376
-84.670	189.971	0.077	0.114
-83.655	-76.404	-0.211	0.073
-82.640	-200.000	0.021	0.288
-81.626	-45.333	-0.101	0.049
-80.611	-88.484	0.555	0.162
-79.597	-18.411	-0.211	-0.129
-78.582	800.000	0.060	-0.254
-77.567	-31.951	0.147	-0.081
-76.553	209.261	-0.069	0.106
-75.538	-100.129	-0.091	0.022
-74.524	54.234	0.124	0.117
-73.509	-140.661	-0.317	0.032
-72.494	-75.947	-0.227	-0.079
-71.480	-200.000	0.009	0.054
-70.465	-179.454	0.320	-0.007
-69.451	113.112	-0.050	0.060
-68.436	-15.487	0.096	0.060
-67.422	-200.000	0.028	0.151
-66.407	800.000	-0.077	-0.231
-65.392	800.000	0.026	0.106
-64.378	39.113	0.187	-0.164
-63.363	-54.825	-0.139	0.062
-62.349	-200.000	0.079	0.445
-61.334	28.704	-1.032	-0.856
-60.319	53.366	0.471	0.443
-59.305	-200.000	-0.191	-0.976
-58.290	573.326	0.572	1.365
-57.276	-200.000	0.218	1.213
-56.261	-200.000	111.958	622.144
-55.246	457.407	1507.238	3279.782
-54.232	145.971	2683.086	3524.396
-53.217	97.346	2293.548	2579.037
-52.203	36.974	1901.839	1647.675
-51.188	31.123	1689.914	1419.659
-50.173	28.481	1647.709	1364.515
-49.159	48.891	1702.001	1564.307
-48.144	48.517	1716.649	1574.881
-47.130	30.661	1674.750	1403.207
-46.115	27.968	1660.280	1370.862
-45.100	27.775	1655.530	1365.441
-44.086	27.731	1652.834	1362.831
-43.071	27.764	1650.108	1360.778
-42.057	27.726	1647.677	1358.433
-41.042	27.749	1645.716	1356.939
-40.027	27.780	1643.635	1355.395
-39.013	27.684	1642.179	1353.431
-37.998	27.764	1640.499	1352.587
-36.984	27.752	1638.949	1351.166
-35.969	27.783	1637.395	1350.060
-34.954	27.903	1635.867	1349.633
-33.940	27.848	1634.211	1347.808
-32.925	27.834	1632.301	1346.072
-31.911	27.857	1630.460	1344.671
-30.896	27.890	1628.749	1343.448
-29.881	27.798	1627.499	1341.689
-28.867	27.831	1625.163	1339.957
-27.852	27.863	1623.858	1339.057
-26.838	27.837	1622.396	1337.610
-25.823	27.924	1621.253	1337.251
-24.809	27.910	1620.107	1336.154
-23.794	27.944	1618.527	1335.045
-22.779	27.879	1617.197	1333.415
-21.765	27.840	1615.686	1331.838
-20.750	27.887	1614.091	1330.809
-19.736	28.021	1612.368	1330.310
-18.721	27.946	1611.174	1328.728
-17.706	27.875	1610.026	1327.217
-16.692	27.865	1608.446	1325.786
-15.677	28.000	1607.177	1325.667
-14.663	27.930	1605.818	1323.987
-13.648	28.008	1604.065	1323.050
-12.633	28.042	1602.305	1321.792
-11.619	27.920	1601.403	1320.115
-10.604	27.879	1599.471	1318.175
-9.590	27.882	1598.452	1317.307
-8.575	27.873	1597.351	1316.280
-7.560	27.882	1596.204	1315.346
-6.546	27.936	1595.088	1314.764
-5.531	27.913	1594.230	1313.843
-4.517	27.857	1593.005	1312.378
-3.502	27.950	1591.693	1311.907
-2.487	28.086	1589.931	1311.384
-1.473	27.854	1577.959	1299.800
-0.458	25.069	1559.607	1265.009
0.556	20.072	1561.202	1235.695
1.571	17.831	1584.871	1238.077
2.586	17.303	1597.849	1244.241
3.600	15.884	1544.403	1192.474
4.615	8.822	1435.208	1061.429
5.629	1.627	1372.223	969.060
6.644	0.301	1363.853	954.666
7.659	0.094	1362.858	952.575
8.673	0.050	1362.029	951.634
9.688	0.075	1359.213	949.738
10.702	-0.142	1356.770	946.583
11.717	3.376	1361.923	972.320
12.731	11.349	1374.448	1031.776
13.746	16.699	1381.223	1070.693
14.761	17.183	1380.901	1073.409
15.775	16.179	1378.975	1065.479
16.790	15.192	1376.057	1056.904
17.804	14.439	1373.458	1050.071
18.819	14.051	1372.456	1046.769
19.834	13.837	1370.808	1044.073
20.848	13.489	1369.966	1041.152
21.863	13.337	1368.498	1038.992
22.877	13.194	1367.374	1037.146
23.892	13.213	1365.703	1035.906
24.907	13.118	1365.620	1035.155
25.921	13.195	1364.585	1034.765
26.936	13.228	1363.868	1034.333
27.950	13.269	1362.680	1033.600
28.965	13.358	1361.800	1033.397
29.980	13.373	1360.823	1032.656
30.994	13.338	1360.298	1031.947
32.009	13.403	1359.114	1031.362
33.023	13.377	1358.013	1030.277
34.038	13.353	1357.167	1029.394
35.053	13.307	1356.138	1028.237
36.067	13.365	1354.992	1027.640
37.082	13.339	1354.357	1026.905
38.096	13.268	1353.490	1025.713
39.111	13.382	1352.045	1025.237
40.126	13.319	1351.687	1024.480
41.140	13.219	1350.278	1022.704
42.155	13.190	1349.790	1022.063
43.169	13.104	1350.303	1021.828
44.184	13.092	1349.876	1021.346
45.199	13.169	1349.061	1021.112
46.213	13.333	1347.913	1021.163
47.228	13.311	1347.368	1020.526
48.242	13.310	1346.191	1019.539
49.257	13.229	1345.096	1018.122
50.271	13.333	1343.470	1017.440
51.286	13.326	1342.335	1016.445
52.301	13.213	1341.340	1014.910
53.315	13.256	1339.857	1013.961
54.330	13.221	1338.717	1012.796
55.344	13.170	1337.939	1011.802
56.359	13.170	1336.790	1010.844
57.374	13.146	1335.832	1009.884
58.388	13.192	1335.288	1009.665
59.403	13.206	1334.566	1009.115
60.417	13.054	1334.061	1007.714
61.432	13.034	1332.710	1006.488
62.447	13.084	1331.562	1005.836
63.461	13.042	1330.328	1004.559
64.476	12.962	1329.849	1003.621
65.490	13.059	1328.591	1003.169
66.505	13.123	1326.866	1002.169
67.520	13.048	1325.706	1000.747
68.534	13.080	1324.834	1000.194
69.549	13.075	1324.023	999.467
70.563	13.093	1322.822	998.579
71.578	13.131	1321.397	997.643
72.593	13.034	1320.493	996.288
73.607	13.018	1319.945	995.691
74.622	12.968	1319.224	994.758
75.636	13.005	1318.774	994.549
76.651	12.982	1318.274	993.947
77.666	13.002	1317.060	993.065
78.680	13.054	1316.178	992.623
79.695	13.108	1315.767	992.551
80.709	13.034	1314.787	991.279
81.724	13.105	1313.628	990.743
82.739	13.138	1312.919	990.323
83.753	13.204	1312.038	989.965
84.768	13.253	1310.743	989.192
85.782	13.336	1309.661	988.782
86.797	13.321	1308.193	987.500
87.812	13.286	1307.082	986.363
88.826	13.258	1306.230	985.467
89.841	13.292	1305.026	984.674
90.855	13.205	1304.497	983.668
91.870	13.240	1303.588	983.106
92.884	13.287	1303.054	982.893
93.899	13.303	1302.072	982.162
94.914	13.305	1300.890	981.195
95.928	13.371	1300.167	980.953
96.943	13.373	1299.296	980.221
97.957	13.367	1298.199	979.270
98.972	13.423	1296.570	978.291
99.987	13.411	1296.063	977.752
101.001	13.378	1294.840	976.542
102.016	13.304	1294.135	975.490
103.030	13.413	1293.029	975.211
104.045	13.366	1292.339	974.327
105.060	13.348	1290.853	973.019
106.074	13.289	1289.723	971.733
107.089	13.196	1288.337	970.058
108.103	13.201	1287.204	969.147
109.118	13.171	1286.061	968.026
110.133	13.233	1284.781	967.336
111.147	13.183	1283.596	966.066
112.162	13.128	1282.368	964.736
113.176	13.203	1281.418	964.374
114.191	13.216	1280.415	963.608
115.206	13.217	1279.580	962.901
116.220	13.210	1277.731	961.387
117.235	13.194	1276.975	960.640
118.249	13.239	1275.820	959.946
119.264	13.205	1274.980	959.034
120.279	13.247	1273.746	958.263
121.293	13.098	1273.246	956.937
122.308	13.148	1271.716	955.993
123.322	13.147	1271.059	955.410
124.337	13.203	1269.659	954.593
125.352	13.142	1269.120	953.752
126.366	13.167	1267.469	952.570
127.381	13.080	1266.884	951.549
128.395	13.183	1265.726	951.186
129.410	13.204	1264.903	950.605
130.424	13.217	1263.828	949.784
131.439	13.304	1262.661	949.323
132.454	13.260	1261.578	948.175
133.468	13.207	1261.154	947.470
134.483	13.225	1260.520	947.009
135.497	13.261	1259.297	946.216
136.512	13.288	1257.651	945.049
137.527	13.218	1256.410	943.632
138.541	13.262	1254.947	942.702
139.556	13.185	1254.207	941.621
140.570	13.393	1252.632	941.543
141.585	13.437	1251.555	940.900
142.600	13.438	1250.364	939.925
143.614	13.373	1249.841	939.081
144.629	13.300	1248.506	937.578
145.643	13.431	1247.350	937.373
146.658	13.410	1245.809	936.009
147.673	13.337	1244.995	934.907
148.687	13.363	1243.933	934.169
149.702	13.308	1242.261	932.521
150.716	13.325	1240.758	931.409
151.731	13.396	1239.908	931.088
152.746	13.329	1239.195	930.094
153.760	13.397	1237.439	929.076
154.775	13.476	1235.848	928.238
155.789	13.478	1235.300	927.757
156.804	13.491	1234.135	926.875
157.819	13.428	1233.371	925.867
158.833	13.544	1232.162	925.522
159.848	13.612	1231.302	925.175
160.862	13.522	1230.415	923.926
161.877	13.493	1229.263	922.815
162.892	13.469	1227.688	921.417
163.906	13.535	1226.955	921.153
164.921	13.511	1226.097	920.298
165.935	13.488	1225.286	919.480
166.950	13.568	1224.898	919.548
167.964	13.501	1224.007	918.428
168.979	13.508	1223.386	917.918
169.994	13.581	1222.612	917.661
171.008	13.592	1221.639	916.912
172.023	13.538	1221.200	916.202
173.037	13.600	1220.429	915.884
174.052	13.681	1219.329	915.425
175.067	13.573	1218.317	913.990
176.081	13.540	1217.257	912.930
177.096	13.572	1216.320	912.326
178.110	13.618	1215.391	911.799
179.125	13.608	1213.778	910.453
180.140	13.705	1212.744	910.127
181.154	13.749	1211.676	909.488
182.169	13.762	1209.957	908.191
183.183	13.712	1209.852	907.755
184.198	13.844	1208.341	907.261
185.213	13.718	1207.101	905.563
186.227	13.718	1206.186	904.799
187.242	13.820	1205.277	904.590
188.256	13.951	1203.552	903.931
189.271	13.839	1202.849	902.714
190.286	13.665	1202.455	901.390
191.300	13.708	1201.472	900.810
192.315	13.586	1200.613	899.422
193.329	13.691	1199.789	899.296
194.344	13.774	1198.941	899.030
195.359	13.835	1198.524	898.968
196.373	13.800	1198.299	898.530
197.388	13.862	1197.692	898.330
198.402	13.898	1196.926	897.872
199.417	14.018	1196.234	897.924
200.432	14.152	1195.114	897.727
201.446	14.142	1194.556	897.172
202.461	14.137	1193.799	896.500
203.475	14.114	1192.540	895.348
204.490	14.014	1192.070	894.377
205.504	14.093	1190.121	893.262
206.519	14.044	1189.231	892.252
207.534	13.984	1188.677	891.436
208.548	14.074	1187.285	890.792
209.563	14.063	1186.340	889.949
210.577	14.098	1185.410	889.357
211.592	14.170	1184.493	888.978
212.607	14.134	1183.804	888.191
213.621	14.274	1182.807	888.109
214.636	14.194	1181.859	886.890
215.650	14.178	1181.379	886.368
216.665	14.223	1180.306	885.725
217.680	14.333	1179.394	885.544
218.694	14.308	1178.454	884.631
219.709	14.252	1177.787	883.752
220.723	14.255	1177.010	883.108
221.738	14.299	1176.495	882.875
222.753	14.263	1175.598	881.936
223.767	14.282	1175.215	881.671
224.782	14.418	1174.468	881.753
225.796	14.516	1173.757	881.656
226.811	14.497	1172.737	880.715
227.826	14.432	1172.326	879.983
228.840	14.428	1171.281	879.099
229.855	14.378	1170.549	878.211
230.869	14.460	1169.928	878.095
231.884	14.369	1169.251	877.033
232.899	14.405	1168.443	876.538
233.913	14.320	1167.678	875.442
234.928	14.341	1167.008	874.971
235.942	14.303	1166.483	874.298
236.957	14.298	1165.769	873.663
237.972	14.368	1164.875	873.280
238.986	14.471	1164.310	873.318
240.001	14.232	1163.651	871.497
241.015	14.456	1162.345	871.612
242.030	14.483	1161.791	871.262
243.045	14.474	1160.933	870.495
244.059	14.446	1160.851	870.208
245.074	14.486	1159.560	869.370
246.088	14.532	1158.614	868.826
247.103	14.651	1157.716	868.696
248.117	14.605	1157.249	868.031
249.132	14.673	1156.803	867.973
250.147	14.823	1155.541	867.729
251.161	14.804	1155.100	867.217
252.176	14.869	1154.584	867.095
253.190	14.916	1153.562	866.490
254.205	14.917	1152.962	865.969
255.220	14.912	1152.549	865.556
256.234	14.851	1152.219	864.916
257.249	14.923	1151.155	864.412
258.263	14.940	1150.557	863.979
259.278	14.996	1149.673	863.523
260.293	14.946	1149.278	862.893
261.307	15.009	1148.931	862.881
262.322	15.004	1148.181	862.216
263.336	15.012	1147.527	861.688
264.351	15.025	1147.072	861.338
265.366	15.030	1146.036	860.512
266.380	15.136	1145.365	860.478
267.395	15.103	1144.688	859.722
268.409	14.997	1143.906	858.513
269.424	15.068	1143.449	858.457
270.439	15.125	1143.070	858.389
271.453	14.999	1141.723	856.659
272.468	15.118	1140.451	856.236
273.482	14.963	1140.285	855.244
274.497	15.143	1139.928	855.819
275.512	15.089	1138.980	854.755
276.526	15.051	1138.678	854.261
277.541	15.009	1137.535	853.116
278.555	15.101	1136.796	852.955
279.570	15.174	1135.782	852.488
280.585	15.212	1135.524	852.412
281.599	15.245	1134.115	851.448
282.614	15.136	1133.432	850.307
283.628	15.217	1132.422	849.885
284.643	15.272	1131.542	849.424
285.657	15.293	1130.566	848.723
286.672	15.359	1129.519	848.197
287.687	15.376	1128.603	847.518
288.701	15.290	1127.700	846.334
289.716	15.297	1127.024	845.786
290.730	15.356	1126.254	845.429
291.745	15.401	1125.897	845.315
292.760	15.439	1125.101	844.832
293.774	15.391	1124.974	844.420
294.789	15.412	1124.244	843.907
295.803	15.522	1123.448	843.784
296.818	15.442	1122.612	842.683
297.833	15.372	1121.552	841.458
298.847	15.506	1120.822	841.508
299.862	15.470	1120.104	840.716
300.876	15.455	1119.928	840.436
301.891	15.397	1119.126	839.468
302.906	15.592	1118.411	839.830
303.920	15.633	1117.976	839.634
304.935	15.641	1117.031	838.893
305.949	15.657	1116.508	838.505
306.964	15.632	1115.859	837.817
307.979	15.680	1115.222	837.506
308.993	15.674	1114.121	836.575
310.008	15.763	1113.122	836.193
311.022	15.743	1112.829	835.798
312.037	15.692	1112.000	834.851
313.052	15.716	1111.024	834.161
314.066	15.590	1110.045	832.731
315.081	15.674	1109.403	832.590
316.095	15.586	1108.639	831.508
317.110	15.572	1108.009	830.890
318.125	15.653	1106.836	830.339
319.139	15.711	1106.166	830.050
320.154	15.653	1105.718	829.354
321.168	15.746	1104.872	829.103
322.183	15.603	1104.830	828.295
323.197	15.751	1104.113	828.411
324.212	15.750	1103.401	827.800
325.227	15.731	1102.913	827.265
326.241	15.803	1102.024	826.878
327.256	15.796	1101.163	826.126
328.270	15.811	1099.978	825.238
329.285	15.749	1099.799	824.725
330.300	15.755	1098.576	823.766
331.314	15.831	1097.814	823.496
332.329	15.760	1097.022	822.481
333.343	15.834	1096.035	822.026
334.358	15.965	1095.230	821.989
335.373	15.884	1094.710	821.134
336.387	15.981	1093.304	820.480
337.402	16.048	1092.589	820.196
338.416	16.007	1092.393	819.774
339.431	15.938	1091.967	819.047
340.446	16.028	1090.909	818.618
341.460	16.099	1090.344	818.470
342.475	16.116	1089.378	817.754
343.489	16.059	1088.803	816.972
344.504	16.161	1087.930	816.741
345.519	16.250	1086.694	816.168
346.533	16.228	1086.108	815.548
347.548	16.280	1085.605	815.354
348.562	16.189	1084.923	814.329
349.577	16.313	1083.892	814.078
350.592	16.295	1083.090	813.317
351.606	16.268	1082.368	812.576
352.621	16.220	1081.625	811.716
353.635	16.181	1081.250	811.174
354.650	16.152	1080.458	810.367
355.665	16.205	1079.854	810.100
356.679	16.367	1079.076	810.221
357.694	16.208	1078.677	809.084
358.708	16.392	1077.598	809.086
359.723	16.432	1077.176	808.887
360.738	16.393	1076.459	808.091
361.752	16.402	1076.205	807.872
362.767	16.462	1075.346	807.444
363.781	16.423	1075.085	806.992
364.796	16.432	1074.733	806.698
365.810	16.408	1073.926	805.904
366.825	16.545	1073.349	806.057
367.840	16.551	1072.832	805.626
368.854	16.578	1072.384	805.345
369.869	16.606	1071.330	804.614
370.883	16.607	1070.472	803.905
371.898	16.442	1070.070	802.749
372.913	16.580	1069.441	802.857
373.927	16.587	1069.006	802.495
374.942	16.536	1068.552	801.843
375.956	16.745	1067.571	802.026
376.971	16.634	1067.076	801.057
377.986	16.752	1066.521	801.127
379.000	16.619	1066.047	800.070
380.015	16.779	1065.199	800.119
381.029	16.830	1064.570	799.816
382.044	16.825	1063.959	799.265
383.059	16.688	1063.700	798.352
384.073	16.912	1062.535	798.461
385.088	16.964	1061.477	797.843
386.102	16.979	1060.169	796.857
387.117	16.930	1059.462	796.026
388.132	16.787	1059.146	795.050
389.146	16.679	1058.124	793.705
390.161	16.882	1057.275	793.946
391.175	16.820	1056.783	793.219
392.190	16.865	1056.277	792.979
393.205	16.930	1055.490	792.623
394.219	16.956	1054.378	791.838
395.234	16.879	1053.487	790.737
396.248	16.969	1052.495	790.344
397.263	16.926	1051.547	789.363
398.278	16.847	1051.067	788.564
399.292	16.874	1050.461	788.163
400.307	16.921	1049.877	787.874
401.321	16.894	1049.195	787.166
402.336	16.922	1048.079	786.392
403.350	16.944	1047.704	786.144
404.365	16.975	1047.136	785.790
405.380	16.942	1046.428	785.036
406.394	17.067	1045.370	784.751
407.409	17.009	1044.928	784.080
408.423	17.098	1044.294	783.945
409.438	17.167	1043.514	783.611
410.453	17.224	1042.592	783.112
411.467	17.186	1041.848	782.311
412.482	17.221	1041.375	782.044
413.496	17.236	1040.712	781.548
414.511	17.366	1039.973	781.522
415.526	17.316	1039.768	781.069
416.540	17.350	1039.477	780.939
417.555	17.290	1039.002	780.235
418.569	17.372	1038.278	779.997
419.584	17.348	1037.890	779.530
420.599	17.344	1037.607	779.227
421.613	104.940	1323.688	1476.564
422.628	96.271	1365.320	1476.685
