DTS Sentinel unit serial number:	SN413079Multiplexer serial number:	ORYXHardware model number:	OX4-SRSoftware version number:	ORYX F/W v4.00 Oryx Data Collector v3.7.2.0data status	okinstallation	princeton_trtdifferential loss correction	single-endedforward channel	channel 2reverse channel	N/Adate	2019/09/13time	07:59:35forward acquisition time	60.00reverse acquisition time	0.00gamma	496.2192k internal	0.2334k external	0.2334temperature offset calibration	1.0196default loss term (dB/km)	0.3790temperature slope calibration	1.0000multiplexer offset coefficient	1.0000multiplexer slope coefficient	1.0000fibre end	0.00T internal ref (°C)	26.81T ext. ref 1 (°C)	4.24T ext. ref 2 (°C)	23.12length (m)	temperature (°C)	Stokes	anti-Stokes-747.200	214.470	-0.212	-0.337
-746.185	6.073	-0.062	0.046
-745.171	235.138	-0.048	-0.079
-744.156	292.108	-0.123	0.226
-743.142	-18.279	-0.183	-0.115
-742.127	76.269	0.251	0.268
-741.112	-200.000	-0.008	0.087
-740.098	-200.000	0.021	0.181
-739.083	38.317	0.202	0.181
-738.069	17.659	0.155	0.124
-737.054	70.737	0.142	-0.147
-736.039	-121.386	-0.362	0.061
-735.025	680.383	0.088	-0.230
-734.010	-158.510	-0.391	0.023
-732.996	-40.408	-0.135	-0.071
-731.981	317.313	0.223	-0.425
-730.966	-200.000	0.047	-0.502
-729.952	-79.846	0.322	-0.109
-728.937	243.862	0.092	-0.155
-727.923	-125.411	-0.239	-0.037
-726.908	-146.420	-0.151	-0.013
-725.894	14.572	-0.214	-0.168
-724.879	-128.127	0.049	0.007
-723.864	702.138	-0.120	0.317
-722.850	-24.335	-0.073	-0.044
-721.835	253.980	0.142	0.243
-720.821	-92.170	-0.213	0.060
-719.806	249.607	0.202	0.343
-718.791	-110.662	-0.168	-0.035
-717.777	-118.136	0.061	0.011
-716.762	800.000	-0.037	-0.113
-715.748	-200.000	0.048	0.412
-714.733	-151.401	-0.132	-0.010
-713.718	-200.000	-0.023	-0.367
-712.704	-21.663	-0.239	0.146
-711.689	724.702	-0.044	0.117
-710.675	-200.000	0.102	0.512
-709.660	-58.758	-0.020	0.009
-708.645	-120.584	0.265	-0.045
-707.631	-102.198	-0.198	-0.048
-706.616	-200.000	0.000	0.317
-705.602	800.000	-0.073	0.247
-704.587	-104.144	0.333	0.078
-703.572	-34.172	0.285	0.157
-702.558	800.000	-0.053	-0.223
-701.543	29.023	-0.151	-0.129
-700.529	-200.000	0.037	0.245
-699.514	800.000	-0.031	-0.110
-698.499	472.960	-0.084	-0.189
-697.485	74.400	-0.215	-0.227
-696.470	221.285	-0.108	-0.175
-695.456	33.828	0.148	-0.130
-694.441	-200.000	0.008	-0.124
-693.426	147.610	-0.221	0.299
-692.412	-64.862	-0.118	-0.048
-691.397	800.000	0.048	-0.151
-690.383	-200.000	0.004	-0.096
-689.368	-200.000	0.001	-0.161
-688.354	348.568	-0.062	0.123
-687.339	-98.804	-0.270	-0.069
-686.324	-200.000	0.020	-0.160
-685.310	-93.806	0.333	0.092
-684.295	-129.437	-0.174	-0.024
-683.281	-93.351	-0.552	-0.153
-682.266	-2.468	0.112	0.078
-681.251	-4.912	-0.228	-0.158
-680.237	-80.163	-0.052	0.018
-679.222	-146.100	-0.292	0.026
-678.208	-172.758	-0.376	-0.012
-677.193	-200.000	-0.028	0.139
-676.178	-200.000	-0.010	-0.181
-675.164	18.611	-0.276	-0.221
-674.149	-35.861	0.144	-0.078
-673.135	-104.706	-0.069	0.016
-672.120	-200.000	-0.027	0.188
-671.105	-155.872	0.239	-0.015
-670.091	800.000	-0.116	-0.362
-669.076	434.511	-0.083	0.180
-668.062	-23.975	-0.125	-0.075
-667.047	-200.000	-0.025	0.177
-666.032	-84.543	-0.458	-0.145
-665.018	-18.299	0.213	-0.134
-664.003	-24.305	-0.214	-0.128
-662.989	800.000	-0.070	-0.217
-661.974	-78.842	-0.405	-0.138
-660.959	493.728	0.151	-0.347
-659.945	-118.871	-0.141	-0.025
-658.930	-96.874	0.225	-0.059
-657.916	116.593	0.016	-0.019
-656.901	0.304	-0.294	0.210
-655.886	800.000	0.085	0.248
-654.872	-200.000	0.007	-0.325
-653.857	800.000	0.051	0.148
-652.843	-200.000	-0.021	0.165
-651.828	350.392	0.060	0.118
-650.814	41.645	-0.153	-0.139
-649.799	75.441	0.232	0.246
-648.784	55.402	-0.129	0.125
-647.770	-165.976	-0.099	-0.004
-646.755	-200.000	0.026	-0.121
-645.741	-27.299	-0.120	0.070
-644.726	-87.251	0.102	0.031
-643.711	-118.083	0.257	0.046
-642.697	-64.132	-0.308	0.126
-641.682	-200.000	-0.020	-0.235
-640.668	-37.253	-0.092	-0.049
-639.653	-4.273	0.167	-0.116
-638.638	-35.546	-0.178	0.097
-637.624	-85.760	-0.225	-0.070
-636.609	479.853	-0.060	-0.136
-635.595	52.870	0.124	-0.118
-634.580	242.545	-0.050	-0.084
-633.565	-39.218	0.201	-0.106
-632.551	-200.000	-0.002	-0.287
-631.536	-99.144	0.092	-0.023
-630.522	-174.555	-0.332	0.010
-629.507	230.307	-0.234	0.382
-628.492	-200.000	-0.001	0.010
-627.478	153.787	0.143	0.196
-626.463	-97.062	0.249	0.065
-625.449	108.352	-0.239	0.286
-624.434	-200.000	-0.025	0.160
-623.419	-6.610	-0.217	0.148
-622.405	-169.490	-0.162	-0.006
-621.390	488.082	-0.065	-0.148
-620.376	-52.302	0.114	-0.053
-619.361	800.000	-0.101	0.310
-618.346	800.000	-0.082	0.358
-617.332	257.265	0.064	-0.110
-616.317	420.591	0.065	-0.140
-615.303	-200.000	-0.008	-0.275
-614.288	-72.583	-0.241	0.089
-613.273	-33.780	0.150	-0.083
-612.259	-200.000	0.009	0.178
-611.244	-44.962	-0.243	-0.121
-610.230	-21.024	-0.273	-0.167
-609.215	-169.429	-0.152	-0.006
-608.201	95.134	-0.046	0.053
-607.186	68.367	0.268	-0.275
-606.171	-63.359	0.346	0.143
-605.157	43.897	0.204	0.187
-604.142	800.000	0.032	-0.102
-603.128	-4.247	-0.169	-0.117
-602.113	94.096	-0.133	0.151
-601.098	191.126	0.153	-0.230
-600.084	-200.000	0.018	-0.266
-599.069	262.078	0.124	-0.215
-598.055	63.634	-0.255	-0.256
-597.040	135.787	-0.107	-0.139
-596.025	-72.537	-0.345	0.127
-595.011	-153.105	-0.128	-0.009
-593.996	102.610	-0.073	0.085
-592.982	800.000	-0.022	0.089
-591.967	19.705	-0.212	0.171
-590.952	87.141	-0.392	-0.433
-589.938	14.195	-0.190	-0.148
-588.923	-29.923	0.034	0.019
-587.909	329.152	0.024	0.046
-586.894	-83.445	-0.246	-0.079
-585.879	-4.478	0.291	0.201
-584.865	800.000	-0.034	0.128
-583.850	800.000	-0.034	0.135
-582.836	20.663	-0.061	0.049
-581.821	-75.584	-0.281	-0.100
-580.806	-200.000	0.007	0.078
-579.792	-81.370	0.079	0.026
-578.777	-36.081	-0.209	-0.113
-577.763	-59.848	0.274	-0.117
-576.748	800.000	0.030	-0.124
-575.733	84.786	-0.176	0.192
-574.719	133.355	0.118	0.152
-573.704	-200.000	0.003	0.084
-572.690	-123.568	-0.189	0.030
-571.675	-200.000	0.008	-0.338
-570.661	-122.630	-0.292	-0.047
-569.646	144.261	-0.107	-0.143
-568.631	397.491	0.015	0.032
-567.617	-12.923	0.374	-0.243
-566.602	-200.000	-0.037	-0.270
-565.588	800.000	-0.069	0.210
-564.573	5.734	-0.283	0.209
-563.558	41.639	-0.165	-0.150
-562.544	86.484	0.067	-0.074
-561.529	190.288	-0.172	0.258
-560.515	300.882	-0.089	-0.164
-559.500	-125.807	0.061	0.009
-558.485	-116.074	-0.327	-0.061
-557.471	-126.014	0.307	-0.046
-556.456	800.000	-0.065	0.239
-555.442	238.619	0.135	0.223
-554.427	-85.124	-0.228	-0.071
-553.412	275.821	-0.074	-0.132
-552.398	-18.658	0.105	-0.065
-551.383	-95.084	-0.288	0.078
-550.369	26.090	0.245	-0.204
-549.354	800.000	0.092	-0.266
-548.339	-200.000	-0.015	0.182
-547.325	-119.659	0.417	0.072
-546.310	-34.580	-0.239	0.130
-545.296	201.464	0.121	-0.185
-544.281	140.017	-0.183	-0.241
-543.266	-185.863	-0.341	0.005
-542.252	225.927	0.139	0.225
-541.237	409.580	0.149	0.315
-540.223	800.000	-0.073	0.288
-539.208	-18.312	0.274	0.171
-538.193	112.698	0.077	-0.094
-537.179	-200.000	0.002	-0.135
-536.164	-200.000	0.033	-0.177
-535.150	272.596	0.073	0.129
-534.135	-5.702	0.039	0.026
-533.121	83.068	0.154	0.167
-532.106	-97.465	0.084	-0.022
-531.091	-72.348	0.176	-0.065
-530.077	113.064	0.092	-0.111
-529.062	-103.105	-0.019	-0.005
-528.048	5.566	-0.245	-0.180
-527.033	53.579	0.282	-0.270
-526.018	212.848	-0.111	-0.175
-525.004	-13.542	-0.148	0.095
-523.989	431.993	-0.074	0.160
-522.975	-150.254	-0.291	0.022
-521.960	63.891	0.121	-0.122
-520.945	242.427	0.194	-0.324
-519.931	446.904	-0.190	-0.417
-518.916	254.546	0.055	-0.094
-517.902	-200.000	0.032	-0.143
-516.887	4.757	0.061	0.045
-515.872	202.021	0.019	0.029
-514.858	-122.192	-0.258	-0.042
-513.843	-121.237	-0.069	-0.011
-512.829	132.673	0.147	-0.188
-511.814	-27.151	-0.122	-0.071
-510.799	800.000	-0.042	-0.166
-509.785	138.538	-0.171	0.224
-508.770	-68.597	0.110	0.042
-507.756	380.590	-0.180	0.369
-506.741	-200.000	0.028	-0.357
-505.726	-138.034	0.005	0.001
-504.712	165.755	0.111	0.156
-503.697	284.508	0.077	0.138
-502.683	48.605	-0.188	0.176
-501.668	-200.000	0.014	0.486
-500.653	229.969	-0.043	-0.069
-499.639	-193.128	0.192	0.002
-498.624	567.874	0.078	0.188
-497.610	-29.128	-0.107	0.061
-496.595	228.958	-0.118	-0.192
-495.581	114.255	-0.216	0.262
-494.566	4.155	-0.094	-0.068
-493.551	36.408	-0.192	-0.169
-492.537	22.787	0.118	0.096
-491.522	-58.236	0.214	-0.093
-490.508	800.000	0.040	0.150
-489.493	43.777	0.195	0.177
-488.478	-200.000	0.001	0.273
-487.464	174.601	0.109	0.157
-486.449	206.447	0.096	-0.148
-485.435	-105.132	-0.328	0.075
-484.420	34.505	-0.114	-0.099
-483.405	-200.000	-0.016	-0.229
-482.391	49.210	-0.160	-0.150
-481.376	258.662	0.114	-0.195
-480.362	800.000	0.072	-0.217
-479.347	-200.000	-0.009	0.199
-478.332	309.023	-0.030	0.056
-477.318	124.947	0.174	0.218
-476.303	637.498	0.041	0.103
-475.289	217.615	-0.028	-0.044
-474.274	-63.547	0.065	-0.027
-473.259	-53.717	0.196	-0.089
-472.245	-104.053	0.213	0.049
-471.230	170.913	-0.161	0.230
-470.216	73.023	0.072	0.075
-469.201	141.193	0.101	0.133
-468.186	-200.000	-0.100	-0.553
-467.172	800.000	-0.010	0.036
-466.157	-147.141	-0.206	0.018
-465.143	-55.300	0.154	-0.069
-464.128	-200.000	0.002	-0.121
-463.113	174.936	-0.265	-0.382
-462.099	-20.289	0.276	0.169
-461.084	-38.772	-0.215	-0.112
-460.070	-200.000	0.003	-0.143
-459.055	-67.891	-0.098	-0.038
-458.040	-21.223	0.214	0.130
-457.026	-73.795	0.342	-0.124
-456.011	37.675	-0.203	-0.179
-454.997	222.804	-0.067	-0.108
-453.982	144.761	0.139	-0.184
-452.968	146.798	-0.249	-0.333
-451.953	730.148	0.007	-0.017
-450.938	-35.693	0.385	0.207
-449.924	745.332	0.087	0.232
-448.909	15.761	0.005	-0.004
-447.895	79.792	-0.254	-0.271
-446.880	179.683	0.090	-0.131
-445.865	147.360	0.077	-0.103
-444.851	800.000	-0.047	-0.145
-443.836	800.000	-0.045	0.129
-442.822	129.329	0.294	-0.373
-441.807	43.696	-0.311	-0.283
-440.792	785.968	-0.022	-0.060
-439.778	-55.170	-0.247	-0.110
-438.763	-200.000	0.086	-0.471
-437.749	800.000	-0.040	-0.156
-436.734	43.569	0.168	0.152
-435.719	-200.000	-0.094	-0.486
-434.705	-24.311	-0.101	0.060
-433.690	55.521	0.346	0.332
-432.676	-43.227	0.297	0.149
-431.661	-57.950	0.194	0.084
-430.646	69.608	0.281	-0.288
-429.632	-200.000	-0.009	0.128
-428.617	-200.000	0.023	0.290
-427.603	70.515	-0.033	-0.034
-426.588	96.397	-0.016	-0.018
-425.573	-0.303	0.218	0.154
-424.559	-143.623	0.196	-0.018
-423.544	59.188	0.196	-0.191
-422.530	46.802	-0.235	0.217
-421.515	-133.439	-0.170	-0.021
-420.500	-200.000	-0.055	-0.312
-419.486	631.754	-0.131	-0.328
-418.471	-100.213	-0.574	0.142
-417.457	-119.436	-0.221	0.038
-416.442	170.630	0.185	-0.263
-415.428	800.000	0.116	0.419
-414.413	274.382	0.052	0.091
-413.398	-55.251	0.466	-0.208
-412.384	-200.000	-0.029	0.341
-411.369	418.547	-0.042	0.088
-410.355	14.504	-0.253	-0.196
-409.340	24.674	0.243	-0.199
-408.325	-135.809	0.112	-0.013
-407.311	223.790	-0.083	0.133
-406.296	171.061	0.063	-0.089
-405.282	800.000	0.066	0.288
-404.267	-200.000	-0.074	-0.485
-403.252	-200.000	-0.066	0.429
-402.238	-141.477	0.283	-0.028
-401.223	-74.329	-0.235	0.084
-400.209	-151.653	-0.090	0.007
-399.194	-200.000	-0.326	0.001
-398.179	80.169	-0.226	-0.241
-397.165	-131.822	-0.208	-0.027
-396.150	68.461	0.092	0.093
-395.136	-200.000	0.067	0.293
-394.121	-67.479	-0.109	-0.042
-393.106	800.000	0.016	0.062
-392.092	-187.192	0.356	0.005
-391.077	-45.448	-0.171	0.084
-390.063	-159.653	0.228	0.013
-389.048	-186.428	-0.230	0.003
-388.033	-200.000	-0.022	-0.243
-387.019	32.597	0.190	-0.163
-386.004	-200.000	0.017	0.119
-384.990	800.000	0.137	-0.430
-383.975	-20.335	0.154	-0.094
-382.960	-200.000	-0.068	-0.393
-381.946	196.108	0.056	0.085
-380.931	142.062	-0.135	-0.177
-379.917	5.293	0.172	-0.125
-378.902	35.652	-0.179	0.155
-377.888	-200.000	-0.004	-0.204
-376.873	269.062	-0.037	0.064
-375.858	35.981	-0.305	0.266
-374.844	321.615	0.049	-0.093
-373.829	70.826	-0.229	-0.235
-372.815	13.953	-0.259	0.200
-371.800	149.145	-0.016	0.022
-370.785	74.107	-0.086	-0.089
-369.771	-200.000	-0.000	-0.294
-368.756	-156.202	0.200	0.012
-367.742	193.916	-0.201	-0.301
-366.727	-96.715	0.320	-0.083
-365.712	229.641	0.057	0.092
-364.698	508.410	-0.085	0.195
-363.683	-200.000	-0.055	0.437
-362.669	404.526	-0.074	0.155
-361.654	-200.000	0.034	-0.155
-360.639	800.000	-0.129	-0.382
-359.625	-140.429	0.212	0.022
-358.610	-183.281	-0.360	0.006
-357.596	800.000	0.056	0.177
-356.581	243.180	0.023	-0.038
-355.566	-33.289	-0.180	-0.098
-354.552	-200.000	-0.049	0.216
-353.537	-200.000	0.066	0.306
-352.523	144.890	0.044	0.058
-351.508	-90.542	0.313	0.090
-350.493	72.617	0.132	0.137
-349.479	130.458	0.046	0.058
-348.464	56.858	0.235	0.227
-347.450	99.094	-0.209	0.239
-346.435	-54.014	0.133	0.060
-345.420	16.162	0.229	0.178
-344.406	-153.897	0.353	0.024
-343.391	209.258	0.024	0.037
-342.377	-106.622	0.027	0.006
-341.362	-155.433	-0.175	0.011
-340.348	-101.044	-0.156	-0.038
-339.333	38.825	0.321	0.283
-338.318	73.712	-0.013	0.013
-337.304	29.520	-0.085	-0.072
-336.289	-170.040	-0.235	-0.008
-335.275	-65.389	0.176	0.070
-334.260	-200.000	-0.036	0.305
-333.245	612.575	-0.101	0.249
-332.231	-1.459	-0.263	0.184
-331.216	-12.351	-0.049	0.032
-330.202	-85.994	-0.194	-0.059
-329.187	-200.000	-0.003	-0.125
-328.172	57.205	0.076	0.073
-327.158	800.000	-0.013	0.042
-326.143	800.000	-0.075	-0.246
-325.129	-200.000	0.023	0.180
-324.114	74.577	-0.234	-0.243
-323.099	-200.000	-0.012	-0.141
-322.085	10.282	0.071	0.054
-321.070	146.833	0.006	0.009
-320.056	684.487	0.227	-0.585
-319.041	131.879	-0.072	0.091
-318.026	-90.013	0.132	-0.038
-317.012	-78.429	0.056	0.019
-315.997	-200.000	-0.009	-0.228
-314.983	140.291	0.055	-0.071
-313.968	73.032	-0.348	0.360
-312.953	-15.898	-0.207	-0.130
-311.939	-78.945	0.214	0.072
-310.924	-78.405	0.074	0.025
-309.910	92.867	-0.163	-0.182
-308.895	6.950	-0.077	0.057
-307.880	80.893	0.188	-0.201
-306.866	366.127	-0.019	-0.037
-305.851	-95.778	0.102	0.027
-304.837	394.458	-0.169	0.348
-303.822	11.822	-0.124	0.094
-302.807	-200.000	0.000	0.302
-301.793	279.320	0.125	0.221
-300.778	-175.239	0.085	-0.002
-299.764	-166.411	-0.189	-0.008
-298.749	-123.448	-0.305	-0.048
-297.735	800.000	0.059	-0.180
-296.720	-78.260	-0.534	0.181
-295.705	-118.333	0.077	-0.013
-294.691	-50.451	0.127	-0.059
-293.676	-200.000	-0.018	-0.244
-292.662	-117.427	-0.219	0.039
-291.647	22.086	0.283	0.228
-290.632	-200.000	-0.006	0.034
-289.618	-104.710	0.132	-0.030
-288.603	-79.192	-0.204	-0.068
-287.589	-7.298	0.136	-0.091
-286.574	181.857	-0.261	-0.380
-285.559	-200.000	0.388	-0.001
-284.545	676.713	-0.111	-0.285
-283.530	245.475	0.023	-0.039
-282.516	19.957	-0.110	0.087
-281.501	63.438	-0.077	-0.076
-280.486	-93.269	0.207	0.057
-279.472	-200.000	0.035	0.203
-278.457	-200.000	0.014	0.159
-277.443	248.465	-0.129	0.216
-276.428	366.773	0.138	0.274
-275.413	800.000	0.079	0.237
-274.399	-200.000	0.075	0.395
-273.384	-112.314	0.185	-0.037
-272.370	-129.997	0.126	-0.017
-271.355	224.734	0.048	-0.076
-270.340	57.262	-0.213	-0.205
-269.326	69.219	-0.171	-0.173
-268.311	633.310	-0.148	0.370
-267.297	47.000	0.164	-0.150
-266.282	-2.622	0.056	-0.039
-265.267	495.860	-0.025	0.057
-264.253	-76.715	0.113	0.039
-263.238	525.896	0.083	0.193
-262.224	341.387	-0.061	-0.118
-261.209	161.595	-0.280	0.386
-260.195	27.972	0.158	0.131
-259.180	-91.786	0.185	-0.052
-258.165	253.967	0.131	0.220
-257.151	-200.000	0.030	0.405
-256.136	237.775	-0.094	0.154
-255.122	-157.083	0.272	0.016
-254.107	-46.806	0.482	0.233
-253.092	-200.000	0.026	0.223
-252.078	-200.000	0.015	0.342
-251.063	-132.743	0.306	0.039
-250.049	-200.000	-0.087	0.379
-249.034	334.136	0.123	-0.234
-248.019	-81.815	0.288	-0.093
-247.005	216.650	-0.023	-0.036
-245.990	-200.000	0.020	0.242
-244.976	-30.655	0.162	0.091
-243.961	138.007	-0.034	-0.044
-242.946	-42.607	0.086	0.043
-241.932	249.612	-0.089	0.149
-240.917	18.511	0.191	0.151
-239.903	-61.314	0.254	0.105
-238.888	4.254	0.072	0.052
-237.873	-108.225	-0.167	-0.036
-236.859	-200.000	0.052	0.278
-235.844	12.141	0.105	-0.079
-234.830	800.000	-0.052	-0.177
-233.815	-200.000	0.011	-0.093
-232.800	64.759	0.078	-0.078
-231.786	-200.000	0.027	-0.199
-230.771	-200.000	-0.016	0.192
-229.757	-40.960	0.133	0.068
-228.742	104.351	-0.144	-0.167
-227.727	800.000	-0.100	0.330
-226.713	265.467	-0.030	0.052
-225.698	-89.545	0.341	-0.099
-224.684	800.000	-0.004	-0.014
-223.669	-164.109	-0.243	-0.011
-222.655	-60.606	-0.193	0.081
-221.640	-40.379	0.223	0.114
-220.625	60.785	-0.150	0.146
-219.611	800.000	-0.039	-0.146
-218.596	318.872	-0.118	-0.221
-217.582	263.933	-0.083	-0.141
-216.567	-134.605	0.146	-0.017
-215.552	-200.000	-0.035	0.165
-214.538	-9.688	0.355	0.233
-213.523	370.776	-0.078	0.155
-212.509	-145.107	0.237	0.021
-211.494	-107.402	0.300	-0.065
-210.479	-27.286	0.174	-0.100
-209.465	163.916	0.168	0.233
-208.450	-143.509	-0.142	0.013
-207.436	-38.019	-0.482	-0.252
-206.421	114.296	0.186	-0.222
-205.406	-200.000	-0.085	-0.429
-204.392	32.858	-0.108	0.092
-203.377	-96.386	0.243	0.063
-202.363	203.854	-0.136	0.207
-201.348	-67.775	0.304	0.117
-200.333	70.436	-0.129	-0.131
-199.319	-34.458	0.268	-0.145
-198.304	185.398	0.076	0.110
-197.290	270.646	0.058	0.100
-196.275	-200.000	-0.044	-0.327
-195.260	474.373	0.205	0.456
-194.246	130.001	0.148	0.186
-193.231	161.936	0.190	-0.261
-192.217	274.348	-0.039	-0.068
-191.202	43.693	0.141	-0.127
-190.187	-200.000	0.037	-0.190
-189.173	-200.000	0.010	-0.148
-188.158	448.300	-0.062	0.134
-187.144	-65.957	0.409	-0.161
-186.129	-157.456	-0.226	-0.013
-185.114	-52.263	0.097	-0.044
-184.100	-50.738	-0.165	0.076
-183.085	800.000	0.091	-0.341
-182.071	-117.096	0.464	0.083
-181.056	-62.632	0.090	-0.037
-180.042	138.182	-0.123	0.159
-179.027	503.313	-0.120	-0.272
-178.012	-200.000	0.037	0.308
-176.998	800.000	-0.098	-0.287
-175.983	113.452	-0.212	-0.253
-174.969	-200.000	-0.018	-0.345
-173.954	800.000	0.078	-0.329
-172.939	362.425	-0.104	-0.204
-171.925	-137.353	-0.235	-0.026
-170.910	-107.088	-0.278	-0.060
-169.896	800.000	-0.043	0.141
-168.881	-20.862	-0.173	0.104
-167.866	-26.403	0.050	0.029
-166.852	-138.521	0.181	-0.020
-165.837	800.000	-0.061	0.209
-164.823	-37.783	0.129	0.067
-163.808	-49.798	-0.056	-0.026
-162.793	-200.000	-0.292	-0.001
-161.779	-200.000	0.005	-0.116
-160.764	-124.236	0.153	-0.024
-159.750	-30.510	-0.210	0.117
-158.735	187.328	0.219	0.321
-157.720	120.271	-0.118	-0.143
-156.706	-3.396	0.203	0.139
-155.691	-200.000	0.031	0.147
-154.677	-200.000	0.046	0.370
-153.662	147.218	0.126	-0.167
-152.647	-110.706	-0.162	0.033
-151.633	800.000	-0.026	0.074
-150.618	-130.299	-0.070	-0.009
-149.604	-51.808	0.140	0.064
-148.589	-200.000	0.047	0.248
-147.574	800.000	-0.065	0.264
-146.560	689.865	0.051	-0.130
-145.545	800.000	-0.059	0.237
-144.531	68.424	0.217	-0.218
-143.516	290.401	0.101	-0.181
-142.502	-61.249	-0.198	-0.082
-141.487	799.253	-0.027	0.073
-140.472	362.171	-0.073	-0.145
-139.458	-97.299	0.198	-0.051
-138.443	-88.115	-0.036	0.011
-137.429	-136.235	-0.087	0.010
-136.414	160.326	0.138	-0.189
-135.399	126.002	0.139	-0.173
-134.385	-121.736	0.070	0.011
-133.370	-200.000	0.013	0.170
-132.356	-43.489	0.304	-0.151
-131.341	99.732	0.182	-0.206
-130.326	-13.121	-0.063	-0.040
-129.312	407.226	-0.105	0.219
-128.297	800.000	0.064	0.209
-127.283	-132.581	-0.062	-0.008
-126.268	-37.632	0.223	0.117
-125.253	223.682	-0.083	-0.131
-124.239	420.977	-0.016	-0.033
-123.224	164.955	-0.057	-0.079
-122.210	33.216	0.239	-0.204
-121.195	800.000	-0.032	-0.117
-120.180	-151.662	0.108	-0.008
-119.166	108.866	0.217	-0.254
-118.151	-13.324	-0.233	-0.148
-117.137	136.800	0.088	-0.113
-116.122	27.401	-0.071	-0.059
-115.107	-27.797	-0.118	-0.067
-114.093	-14.200	-0.075	-0.047
-113.078	1.397	0.228	-0.161
-112.064	777.791	-0.148	-0.395
-111.049	800.000	-0.072	-0.258
-110.034	-117.548	-0.426	0.075
-109.020	-200.000	-0.004	-0.193
-108.005	234.959	-0.052	0.084
-106.991	401.731	0.128	0.263
-105.976	-80.651	0.150	-0.049
-104.962	-148.678	0.121	-0.010
-103.947	-111.667	0.339	-0.067
-102.932	347.102	-0.093	0.179
-101.918	35.726	0.229	0.197
-100.903	256.531	0.193	-0.324
-99.889	129.509	-0.338	0.423
-98.874	-96.399	0.172	-0.044
-97.859	-78.353	-0.344	-0.116
-96.845	654.367	-0.027	0.067
-95.830	-197.511	-0.257	-0.002
-94.816	-9.571	-0.238	0.156
-93.801	165.463	0.019	0.026
-92.786	-152.592	-0.123	-0.009
-91.772	800.000	0.072	-0.236
-90.757	119.286	0.189	0.229
-89.743	42.715	0.158	-0.141
-88.728	-36.151	-0.136	0.072
-87.713	52.593	0.138	-0.129
-86.699	-123.288	0.028	-0.004
-85.684	474.054	0.096	-0.211
-84.670	156.619	0.226	-0.305
-83.655	4.974	-0.091	-0.066
-82.640	800.000	0.150	0.430
-81.626	42.982	0.374	0.334
-80.611	-59.123	0.030	-0.013
-79.597	-76.119	0.081	-0.028
-78.582	61.935	-0.203	0.198
-77.567	-116.330	0.257	-0.047
-76.553	186.251	-0.142	0.207
-75.538	-200.000	0.015	0.145
-74.524	800.000	-0.032	-0.124
-73.509	121.326	-0.110	-0.134
-72.494	-144.645	-0.284	0.026
-71.480	299.112	-0.117	0.211
-70.465	231.556	0.063	-0.102
-69.451	341.921	0.074	0.143
-68.436	-35.575	-0.100	0.053
-67.422	-200.000	-0.011	-0.133
-66.407	118.040	-0.183	-0.220
-65.392	-200.000	0.020	-0.097
-64.378	-83.574	0.324	-0.101
-63.363	-71.836	-0.409	-0.149
-62.349	34.351	-0.142	0.121
-61.334	-13.316	-1.111	-0.706
-60.319	162.034	0.634	0.869
-59.305	453.991	-0.425	-0.920
-58.290	103.264	1.092	1.253
-57.276	255.232	0.776	1.301
-56.261	-200.000	115.013	660.386
-55.246	538.562	1532.136	3564.187
-54.232	174.410	2715.905	3841.883
-53.217	102.935	2301.887	2637.453
-52.203	36.306	1905.057	1642.908
-51.188	29.976	1693.208	1412.068
-50.173	27.458	1651.263	1358.284
-49.159	49.952	1707.452	1575.488
-48.144	48.147	1721.466	1574.708
-47.130	29.598	1678.225	1396.496
-46.115	26.878	1664.250	1364.384
-45.100	26.660	1659.196	1358.551
-44.086	26.629	1657.239	1356.663
-43.071	26.615	1654.026	1353.878
-42.057	26.701	1650.958	1351.955
-41.042	26.764	1649.408	1351.103
-40.027	26.705	1647.679	1349.193
-39.013	26.631	1645.595	1346.882
-37.998	26.638	1643.977	1345.559
-36.984	26.693	1642.527	1344.726
-35.969	26.652	1641.805	1343.774
-34.954	26.879	1639.055	1343.154
-33.940	26.771	1638.092	1341.510
-32.925	26.692	1636.193	1339.317
-31.911	26.790	1633.888	1338.097
-30.896	26.849	1632.395	1337.257
-29.881	26.773	1631.268	1335.723
-28.867	26.924	1628.965	1334.899
-27.852	26.804	1627.874	1333.065
-26.838	26.817	1626.001	1331.572
-25.823	26.894	1624.695	1331.019
-24.809	26.906	1623.645	1330.191
-23.794	26.872	1622.236	1328.741
-22.779	26.844	1620.682	1327.205
-21.765	26.864	1618.772	1325.734
-20.750	26.738	1617.742	1323.923
-19.736	26.806	1616.239	1323.136
-18.721	26.881	1614.439	1322.157
-17.706	26.846	1613.109	1320.759
-16.692	26.810	1612.030	1319.558
-15.677	26.807	1610.650	1318.356
-14.663	26.836	1608.861	1317.053
-13.648	26.826	1607.664	1315.942
-12.633	26.897	1605.944	1314.999
-11.619	26.793	1604.583	1313.078
-10.604	26.957	1602.858	1312.806
-9.590	26.869	1601.667	1311.137
-8.575	26.903	1600.262	1310.182
-7.560	26.890	1599.528	1309.437
-6.546	26.913	1598.044	1308.331
-5.531	26.792	1597.001	1306.557
-4.517	26.818	1596.058	1305.921
-3.502	26.782	1594.890	1304.652
-2.487	26.976	1593.097	1304.530
-1.473	26.643	1581.695	1292.767
-0.458	24.141	1562.601	1259.440
0.556	22.825	1564.690	1229.607
1.571	20.736	1588.961	1233.779
2.586	20.194	1601.070	1239.201
3.600	17.960	1547.272	1182.005
4.615	11.189	1440.074	1056.265
5.629	5.329	1380.193	975.754
6.644	4.253	1372.867	963.802
7.659	4.222	1371.823	962.791
8.673	4.212	1371.063	962.109
9.688	4.264	1369.265	961.085
10.702	4.191	1366.211	958.410
11.717	7.007	1371.478	979.477
12.731	14.604	1384.937	1036.345
13.746	20.860	1394.990	1082.783
14.761	22.498	1397.184	1094.580
15.775	21.975	1395.391	1089.834
16.790	21.101	1392.963	1082.419
17.804	20.226	1390.601	1075.068
18.819	19.921	1389.380	1072.140
19.834	19.931	1388.567	1071.481
20.848	19.749	1387.573	1069.495
21.863	19.622	1386.156	1067.524
22.877	19.574	1385.017	1066.251
23.892	19.503	1384.296	1065.163
24.907	19.476	1383.391	1064.207
25.921	19.489	1382.300	1063.352
26.936	19.464	1381.125	1062.207
27.950	19.506	1380.494	1061.884
28.965	19.672	1379.760	1062.247
29.980	19.763	1378.533	1061.761
30.994	19.809	1377.362	1061.052
32.009	19.863	1376.668	1060.751
33.023	19.930	1374.977	1059.765
34.038	19.808	1373.703	1057.947
35.053	19.670	1373.054	1056.506
36.067	19.591	1371.869	1055.022
37.082	19.648	1370.981	1054.594
38.096	19.732	1370.020	1054.270
39.111	19.717	1369.322	1053.548
40.126	19.607	1368.132	1051.873
41.140	19.351	1366.812	1049.205
42.155	19.216	1366.219	1047.834
43.169	19.137	1365.747	1046.901
44.184	19.049	1366.492	1046.844
45.199	19.220	1365.430	1046.975
46.213	19.410	1364.953	1047.671
47.228	19.675	1364.447	1048.800
48.242	19.643	1363.392	1047.701
49.257	19.638	1361.959	1046.477
50.271	19.635	1360.387	1045.161
51.286	19.561	1359.077	1043.615
52.301	19.616	1357.779	1042.856
53.315	19.503	1356.664	1041.227
54.330	19.280	1355.857	1039.172
55.344	19.193	1354.585	1037.578
56.359	19.261	1353.207	1036.843
57.374	19.167	1352.422	1035.583
58.388	19.042	1352.055	1034.458
59.403	19.032	1351.623	1033.980
60.417	19.035	1350.717	1033.210
61.432	18.986	1350.011	1032.285
62.447	18.875	1348.877	1030.660
63.461	18.802	1347.510	1029.090
64.476	18.923	1346.579	1029.010
65.490	18.832	1345.400	1027.472
66.505	18.873	1343.884	1026.469
67.520	18.943	1342.484	1025.729
68.534	18.973	1341.499	1025.065
69.549	18.949	1340.317	1023.924
70.563	18.786	1339.467	1022.215
71.578	18.685	1338.150	1020.521
72.593	18.585	1337.360	1019.231
73.607	18.547	1336.887	1018.555
74.622	18.693	1335.743	1018.458
75.636	18.653	1335.624	1018.041
76.651	18.806	1334.628	1018.102
77.666	18.790	1334.337	1017.692
78.680	18.859	1333.935	1017.708
79.695	18.979	1333.034	1017.636
80.709	19.094	1332.179	1017.577
81.724	19.313	1331.352	1018.145
82.739	19.186	1331.330	1017.288
83.753	19.481	1330.045	1017.957
84.768	19.524	1329.112	1017.412
85.782	19.757	1328.268	1018.046
86.797	19.696	1327.191	1016.770
87.812	19.518	1325.847	1014.604
88.826	19.528	1324.504	1013.544
89.841	19.534	1323.957	1013.072
90.855	19.722	1322.981	1013.341
91.870	19.688	1322.359	1012.575
92.884	19.820	1321.492	1012.594
93.899	19.846	1320.645	1012.008
94.914	19.940	1319.493	1011.583
95.928	19.858	1319.113	1010.724
96.943	19.788	1318.171	1009.506
97.957	19.732	1316.768	1008.012
98.972	19.743	1315.769	1007.225
99.987	19.818	1314.568	1006.649
101.001	19.823	1313.988	1006.145
102.016	19.785	1312.979	1005.067
103.030	19.711	1312.659	1004.302
104.045	19.723	1311.166	1003.141
105.060	19.577	1310.045	1001.346
106.074	19.229	1308.515	998.071
107.089	18.956	1306.824	995.116
108.103	18.938	1305.306	993.765
109.118	18.908	1304.154	992.630
110.133	18.983	1302.512	991.725
111.147	18.949	1301.871	990.954
112.162	19.012	1300.517	990.194
113.176	19.116	1299.244	989.741
114.191	19.143	1298.274	989.067
115.206	19.185	1297.275	988.458
116.220	19.003	1296.495	986.731
117.235	18.964	1295.379	985.575
118.249	18.924	1293.883	984.121
119.264	18.915	1292.936	983.260
120.279	18.981	1291.534	982.483
121.293	18.872	1290.375	980.890
122.308	18.632	1289.610	978.856
123.322	18.600	1287.931	977.313
124.337	18.721	1286.944	977.164
125.352	18.695	1285.807	976.070
126.366	18.690	1284.720	975.128
127.381	18.776	1283.030	974.244
128.395	18.722	1282.499	973.451
129.410	18.735	1281.761	972.881
130.424	18.674	1281.961	972.599
131.439	18.990	1280.453	973.157
132.454	19.006	1279.520	972.451
133.468	19.048	1278.943	972.162
134.483	19.048	1278.101	971.438
135.497	19.101	1277.372	971.099
136.512	19.139	1275.790	970.022
137.527	19.260	1274.162	969.378
138.541	19.208	1273.516	968.511
139.556	19.218	1272.472	967.687
140.570	19.315	1271.408	967.335
141.585	19.374	1270.082	966.575
142.600	19.495	1269.278	966.555
143.614	19.719	1268.085	966.810
144.629	19.732	1267.124	966.065
145.643	19.652	1266.601	965.138
146.658	19.530	1264.754	962.963
147.673	19.336	1263.641	960.948
148.687	19.160	1262.066	958.683
149.702	19.098	1260.567	957.117
150.716	19.114	1259.196	956.079
151.731	19.145	1258.242	955.445
152.746	19.227	1257.089	954.937
153.760	19.181	1256.400	954.075
154.775	19.280	1255.369	953.759
155.789	19.426	1254.108	953.522
156.804	19.385	1253.299	952.594
157.819	19.502	1252.356	952.442
158.833	19.672	1251.158	952.383
159.848	19.733	1251.228	952.689
160.862	19.634	1250.149	951.237
161.877	19.473	1248.129	948.730
162.892	19.169	1247.381	946.408
163.906	19.082	1246.495	945.176
164.921	19.121	1245.601	944.628
165.935	19.195	1244.875	944.399
166.950	19.321	1244.088	944.404
167.964	19.374	1243.284	944.001
168.979	19.312	1242.737	943.165
169.994	19.188	1242.117	941.934
171.008	19.282	1241.233	941.690
172.023	19.531	1240.216	942.194
173.037	19.565	1239.768	941.958
174.052	19.608	1238.757	941.339
175.067	19.421	1237.086	938.971
176.081	19.114	1236.464	936.748
177.096	19.107	1235.634	935.996
178.110	19.237	1234.417	935.696
179.125	19.232	1233.571	934.944
180.140	19.271	1232.336	934.138
181.154	19.549	1231.111	934.630
182.169	19.591	1230.168	934.058
183.183	19.707	1229.094	933.788
184.198	19.779	1227.769	933.090
185.213	19.792	1226.541	932.144
186.227	19.789	1225.889	931.551
187.242	19.891	1224.843	931.219
188.256	19.857	1224.461	930.666
189.271	19.874	1223.532	929.970
190.286	19.714	1221.724	927.651
191.300	19.362	1220.155	924.493
192.315	19.149	1219.856	923.045
193.329	19.261	1219.516	923.306
194.344	19.413	1218.704	923.421
195.359	19.319	1218.725	922.851
196.373	19.411	1218.041	922.746
197.388	19.503	1217.926	923.069
198.402	19.721	1217.844	924.090
199.417	19.877	1217.515	924.593
200.432	20.136	1216.343	925.002
201.446	20.231	1215.543	924.820
202.461	20.263	1215.044	924.529
203.475	20.201	1214.029	923.341
204.490	20.034	1211.907	920.758
205.504	19.708	1210.991	918.251
206.519	19.777	1209.980	917.768
207.534	19.743	1208.897	916.687
208.548	19.650	1208.117	915.519
209.563	19.679	1207.195	914.898
210.577	19.682	1206.130	914.023
211.592	19.844	1205.245	914.127
212.607	20.018	1204.802	914.627
213.621	19.983	1203.964	913.729
214.636	20.022	1202.725	912.910
215.650	19.933	1202.065	911.859
216.665	20.165	1201.012	912.201
217.680	20.308	1200.488	912.475
218.694	20.258	1199.458	911.352
219.709	20.244	1198.503	910.472
220.723	20.230	1198.226	910.107
221.738	20.205	1197.364	909.238
222.753	20.121	1196.240	907.865
223.767	20.107	1195.944	907.489
224.782	20.256	1195.354	907.740
225.796	20.370	1194.806	907.838
226.811	20.359	1194.092	907.158
227.826	20.230	1193.308	905.810
228.840	20.120	1192.694	904.690
229.855	19.995	1192.162	903.555
230.869	20.016	1190.682	902.461
231.884	20.051	1190.100	902.124
232.899	19.920	1188.923	900.469
233.913	19.747	1188.581	899.230
234.928	19.914	1187.036	898.847
235.942	19.818	1186.635	897.968
236.957	19.763	1185.796	896.967
237.972	19.841	1184.965	896.665
238.986	19.848	1184.722	896.435
240.001	19.795	1183.896	895.459
241.015	19.826	1183.009	894.868
242.030	19.990	1181.957	894.842
243.045	20.086	1181.731	895.088
244.059	20.146	1180.884	894.674
245.074	20.162	1180.179	894.146
246.088	20.077	1179.606	893.192
247.103	20.290	1178.759	893.570
248.117	20.375	1177.982	893.337
249.132	20.588	1177.679	894.125
250.147	20.861	1177.118	895.024
251.161	21.030	1176.556	895.383
252.176	21.087	1175.811	895.029
253.190	21.119	1175.304	894.730
254.205	21.182	1174.749	894.553
255.220	21.172	1174.384	894.141
256.234	21.155	1173.504	893.306
257.249	21.096	1172.821	892.405
258.263	21.150	1171.586	891.661
259.278	21.130	1171.211	891.197
260.293	21.077	1171.133	890.787
261.307	21.166	1170.206	890.458
262.322	21.175	1170.103	890.349
263.336	21.249	1169.474	890.167
264.351	21.179	1168.616	889.077
265.366	21.354	1167.523	889.060
266.380	21.298	1166.891	888.213
267.395	21.112	1166.089	886.579
268.409	21.090	1165.305	885.795
269.424	20.948	1164.647	884.492
270.439	21.011	1164.133	884.344
271.453	21.014	1162.886	883.336
272.468	20.858	1161.921	881.736
273.482	20.778	1160.892	880.473
274.497	20.747	1160.690	880.084
275.512	20.893	1160.022	880.236
276.526	20.839	1159.144	879.219
277.541	20.914	1158.227	878.823
278.555	20.965	1157.971	878.807
279.570	21.148	1157.261	879.115
280.585	21.199	1157.086	879.162
281.599	21.304	1155.876	878.692
282.614	21.048	1154.505	876.288
283.628	21.001	1153.008	874.837
284.643	20.963	1152.389	874.099
285.657	20.964	1151.701	873.505
286.672	21.056	1150.619	873.066
287.687	21.171	1149.624	872.811
288.701	20.974	1149.212	871.434
289.716	21.036	1148.401	871.051
290.730	21.175	1147.637	871.090
291.745	21.100	1146.912	870.088
292.760	21.170	1146.157	869.790
293.774	21.265	1145.591	869.754
294.789	21.269	1145.965	869.979
295.803	21.235	1144.679	868.757
296.818	21.116	1143.951	867.538
297.833	21.082	1142.747	866.379
298.847	20.994	1142.373	865.583
299.862	21.120	1141.337	865.344
300.876	21.200	1140.592	865.100
301.891	21.259	1140.340	865.125
302.906	21.313	1140.150	865.173
303.920	21.515	1139.265	865.424
304.935	21.604	1138.694	865.350
305.949	21.721	1137.796	865.170
306.964	21.749	1137.332	864.881
307.979	21.557	1136.385	863.137
308.993	21.338	1135.956	861.654
310.008	21.554	1135.256	862.112
311.022	21.565	1134.500	861.515
312.037	21.485	1133.815	860.525
313.052	21.356	1132.593	858.889
314.066	21.324	1130.771	857.272
315.081	21.132	1130.186	855.812
316.095	21.103	1129.629	855.173
317.110	21.112	1128.856	854.557
318.125	21.122	1127.882	853.790
319.139	21.110	1127.651	853.480
320.154	21.151	1126.645	852.844
321.168	21.094	1126.123	852.094
322.183	21.035	1125.691	851.407
323.197	21.215	1124.986	851.674
324.212	21.191	1124.289	850.955
325.227	21.135	1124.373	850.670
326.241	21.233	1123.426	850.355
327.256	21.290	1122.217	849.642
328.270	21.235	1121.043	848.412
329.285	21.144	1120.344	847.366
330.300	21.092	1119.788	846.616
331.314	21.190	1118.437	845.996
332.329	21.236	1117.832	845.687
333.343	21.251	1117.306	845.288
334.358	21.443	1116.302	845.380
335.373	21.474	1116.266	845.431
336.387	21.496	1115.104	844.580
337.402	21.635	1114.438	844.674
338.416	21.688	1113.438	844.092
339.431	21.690	1113.427	844.022
340.446	21.883	1112.765	844.375
341.460	22.026	1112.033	844.432
342.475	22.077	1111.085	843.884
343.489	22.043	1110.464	843.174
344.504	22.081	1109.657	842.668
345.519	22.137	1108.565	842.029
346.533	22.236	1107.967	841.975
347.548	22.241	1107.399	841.495
348.562	22.199	1106.146	840.268
349.577	22.051	1105.270	838.820
350.592	21.858	1104.261	837.059
351.606	21.591	1103.577	835.195
352.621	21.639	1102.722	834.699
353.635	21.412	1102.181	833.137
354.650	21.661	1101.390	833.652
355.665	21.689	1100.720	833.200
356.679	21.749	1100.252	833.062
357.694	21.886	1099.782	833.279
358.708	21.811	1099.256	832.452
359.723	21.764	1098.717	831.747
360.738	21.910	1098.055	831.866
361.752	21.851	1097.645	831.202
362.767	22.041	1096.734	831.337
363.781	21.972	1096.230	830.554
364.796	22.181	1095.808	831.152
365.810	22.329	1095.207	831.319
366.825	22.459	1095.233	831.882
367.840	22.617	1094.697	832.147
368.854	22.520	1094.183	831.222
369.869	22.488	1093.403	830.406
370.883	22.519	1092.055	829.457
371.898	22.330	1091.243	827.879
372.913	22.278	1090.726	827.168
373.927	22.273	1090.616	826.987
374.942	22.543	1090.004	827.720
375.956	22.410	1089.415	826.574
376.971	22.373	1088.614	825.719
377.986	22.404	1088.367	825.602
379.000	22.615	1087.789	826.079
380.015	22.700	1087.361	826.082
381.029	22.822	1086.310	825.778
382.044	22.607	1085.645	824.194
383.059	22.558	1085.138	823.508
384.073	22.681	1083.889	823.065
385.088	22.639	1083.382	822.408
386.102	22.621	1082.665	821.710
387.117	22.465	1080.942	819.602
388.132	22.383	1079.996	818.429
389.146	22.270	1079.403	817.384
390.161	22.230	1078.427	816.387
391.175	22.359	1077.673	816.343
392.190	22.471	1077.360	816.551
393.205	22.632	1076.504	816.577
394.219	22.534	1075.911	815.599
395.234	22.439	1074.794	814.241
396.248	22.373	1073.735	813.064
397.263	22.420	1072.166	812.022
398.278	22.301	1072.058	811.318
399.292	22.161	1071.414	810.114
400.307	22.090	1070.569	809.076
401.321	22.177	1069.625	808.692
402.336	22.155	1068.939	807.998
403.350	22.053	1068.590	807.197
404.365	22.295	1067.794	807.634
405.380	22.287	1067.465	807.279
406.394	22.404	1066.688	807.154
407.409	22.566	1066.314	807.544
408.423	22.713	1065.498	807.524
409.438	22.725	1064.729	806.927
410.453	22.951	1063.930	807.285
411.467	22.940	1063.249	806.644
412.482	22.930	1062.708	806.118
413.496	23.038	1062.315	806.239
414.511	23.019	1062.150	805.957
415.526	23.122	1062.154	806.359
416.540	23.342	1061.053	806.454
417.555	23.266	1060.283	805.449
418.569	23.013	1060.114	804.098
419.584	23.042	1059.248	803.503
420.599	22.983	1059.011	802.985
421.613	157.539	1402.786	1795.221
422.628	144.858	1452.864	1795.282
