DTS Sentinel unit serial number:	SN413079Multiplexer serial number:	ORYXHardware model number:	OX4-SRSoftware version number:	ORYX F/W v4.00 Oryx Data Collector v3.7.2.0data status	okinstallation	princeton_trtdifferential loss correction	single-endedforward channel	channel 2reverse channel	N/Adate	2019/09/13time	12:11:35forward acquisition time	60.00reverse acquisition time	0.00gamma	496.2192k internal	0.2316k external	0.2316temperature offset calibration	1.0213default loss term (dB/km)	0.3790temperature slope calibration	1.0000multiplexer offset coefficient	1.0000multiplexer slope coefficient	1.0000fibre end	0.00T internal ref (°C)	33.92T ext. ref 1 (°C)	4.62T ext. ref 2 (°C)	31.16length (m)	temperature (°C)	Stokes	anti-Stokes-747.200	-110.069	-0.384	0.081
-746.185	63.373	-0.287	0.292
-745.171	-10.483	0.202	-0.135
-744.156	680.322	-0.047	0.125
-743.142	-157.341	-0.257	-0.016
-742.127	-145.412	0.279	-0.025
-741.112	36.318	0.139	0.124
-740.098	204.793	-0.187	0.293
-739.083	114.332	-0.167	0.206
-738.069	265.236	0.176	0.311
-737.054	-59.741	-0.194	-0.084
-736.039	53.723	-0.032	-0.031
-735.025	-128.973	0.464	0.066
-734.010	80.681	-0.130	-0.141
-732.996	-115.867	-0.332	-0.063
-731.981	-123.589	0.046	0.007
-730.966	399.838	-0.164	0.348
-729.952	-181.655	0.124	-0.002
-728.937	-115.166	-0.159	0.030
-727.923	371.577	-0.180	-0.371
-726.908	-200.000	-0.009	-0.200
-725.894	74.672	-0.093	-0.099
-724.879	1.060	0.113	0.082
-723.864	-96.347	-0.267	0.071
-722.850	800.000	0.082	-0.256
-721.835	105.271	0.058	0.069
-720.821	-70.388	0.216	0.083
-719.806	-129.087	0.145	-0.021
-718.791	-53.502	-0.239	-0.111
-717.777	800.000	0.012	0.048
-716.762	373.784	-0.229	0.471
-715.748	61.461	-0.279	-0.281
-714.733	-67.214	0.103	-0.041
-713.718	89.295	-0.154	0.173
-712.704	-200.000	0.010	-0.048
-711.689	85.145	0.055	-0.061
-710.675	11.422	-0.111	0.086
-709.660	800.000	-0.081	-0.236
-708.645	49.025	0.075	0.071
-707.631	22.251	0.029	0.024
-706.616	-200.000	0.058	0.369
-705.602	-146.674	0.111	0.010
-704.587	-104.867	-0.311	0.072
-703.572	800.000	0.048	-0.204
-702.558	-68.347	-0.201	-0.079
-701.543	800.000	-0.056	-0.186
-700.529	463.364	-0.059	-0.134
-699.514	800.000	-0.071	0.230
-698.499	-200.000	-0.009	-0.157
-697.485	-161.516	-0.272	-0.014
-696.470	-69.112	-0.453	0.176
-695.456	-157.490	0.133	0.008
-694.441	-200.000	-0.011	-0.254
-693.426	-39.506	0.282	-0.150
-692.412	207.256	-0.220	0.347
-691.397	-111.186	0.186	0.039
-690.383	-153.338	-0.139	0.010
-689.368	-106.787	-0.159	-0.036
-688.354	-19.844	-0.072	0.045
-687.339	-114.403	0.142	0.028
-686.324	-31.903	-0.211	-0.119
-685.310	58.330	0.138	-0.137
-684.295	800.000	-0.181	0.510
-683.281	38.319	-0.150	0.135
-682.266	-1.662	0.065	-0.046
-681.251	-200.000	0.070	0.338
-680.237	151.728	-0.067	-0.093
-679.222	-107.070	0.364	-0.081
-678.208	-200.000	0.017	-0.225
-677.193	-200.000	-0.033	0.237
-676.178	33.789	0.191	0.168
-675.164	661.100	-0.091	0.237
-674.149	196.867	0.139	-0.214
-673.135	-200.000	0.000	0.227
-672.120	13.005	-0.057	-0.044
-671.105	85.684	0.119	-0.132
-670.091	-31.606	0.188	0.107
-669.076	60.018	-0.313	-0.313
-668.062	-84.214	-0.397	-0.127
-667.047	800.000	0.135	0.419
-666.032	-142.428	-0.307	0.031
-665.018	-39.688	0.126	-0.067
-664.003	-10.913	-0.072	0.048
-662.989	-58.765	0.259	0.113
-661.974	267.727	-0.127	-0.224
-660.959	-37.323	-0.126	-0.068
-659.945	-24.227	0.178	-0.107
-658.930	258.834	-0.171	0.297
-657.916	-159.207	-0.271	-0.015
-656.901	-200.000	0.063	-0.409
-655.886	-200.000	0.063	-0.415
-654.872	372.499	0.128	-0.263
-653.857	304.199	-0.115	0.215
-652.843	-104.012	-0.302	0.071
-651.828	-200.000	0.033	-0.704
-650.814	132.984	0.089	-0.116
-649.799	145.071	-0.143	-0.193
-648.784	65.623	-0.134	-0.137
-647.770	-55.134	-0.386	-0.175
-646.755	159.019	-0.066	-0.092
-645.741	800.000	-0.092	0.317
-644.726	-179.427	0.537	-0.012
-643.711	-200.000	0.021	0.181
-642.697	-200.000	0.008	0.071
-641.682	-36.331	-0.217	0.118
-640.668	31.039	-0.054	-0.047
-639.653	-200.000	-0.023	0.109
-638.638	70.466	0.082	-0.085
-637.624	306.208	0.115	0.216
-636.609	89.862	0.232	-0.261
-635.595	157.990	0.071	0.099
-634.580	-54.960	-0.392	0.178
-633.565	-130.645	-0.175	0.024
-632.551	-8.832	0.286	-0.193
-631.536	800.000	0.095	-0.304
-630.522	656.974	0.138	0.357
-629.507	-91.737	0.182	-0.052
-628.492	123.123	-0.038	-0.048
-627.478	78.296	0.067	-0.072
-626.463	-135.115	0.085	0.010
-625.449	-118.727	-0.240	0.043
-624.434	388.128	-0.104	-0.217
-623.419	-57.442	-0.127	0.056
-622.405	-2.279	-0.053	-0.037
-621.390	-149.652	-0.062	-0.005
-620.376	-200.000	-0.009	0.222
-619.361	-53.015	-0.365	-0.169
-618.346	-134.845	-0.283	-0.035
-617.332	-102.025	-0.304	0.074
-616.317	629.059	-0.089	-0.226
-615.303	-143.486	-0.242	0.023
-614.288	101.968	-0.100	0.118
-613.273	150.037	-0.201	-0.275
-612.259	37.997	0.194	0.174
-611.244	80.776	0.109	-0.118
-610.230	-15.659	0.250	-0.161
-609.215	4.068	0.399	0.294
-608.201	-200.000	0.019	0.381
-607.186	618.006	-0.052	0.131
-606.171	135.159	0.115	-0.150
-605.157	53.436	0.242	-0.234
-604.142	800.000	0.108	-0.310
-603.128	-124.871	0.240	0.037
-602.113	37.761	-0.153	0.137
-601.098	-156.986	0.142	0.009
-600.084	-200.000	-0.034	0.233
-599.069	764.537	-0.145	-0.396
-598.055	210.968	-0.033	-0.053
-597.040	-6.706	0.110	0.075
-596.025	109.541	-0.059	0.071
-595.011	-21.143	0.180	-0.111
-593.996	440.378	-0.049	-0.108
-592.982	-59.575	-0.254	-0.110
-591.967	-145.150	0.080	0.007
-590.952	95.564	-0.212	-0.243
-589.938	-69.269	-0.279	-0.108
-588.923	-49.477	0.167	0.080
-587.909	391.245	-0.080	0.167
-586.894	-46.120	0.365	-0.181
-585.879	-59.620	-0.106	-0.046
-584.865	149.091	0.181	-0.246
-583.850	-139.325	0.373	-0.040
-582.836	-83.120	0.233	-0.076
-581.821	-12.987	-0.297	-0.194
-580.806	607.387	-0.034	-0.086
-579.792	23.086	-0.223	-0.185
-578.777	-200.000	-0.001	-0.075
-577.763	67.842	-0.088	0.090
-576.748	44.503	0.127	-0.117
-575.733	800.000	0.069	-0.192
-574.719	-84.983	-0.197	0.062
-573.704	121.531	0.181	0.228
-572.690	800.000	0.037	0.144
-571.675	482.253	0.082	0.187
-570.661	800.000	0.072	0.265
-569.646	800.000	0.117	0.419
-568.631	175.574	0.133	0.194
-567.617	57.507	-0.042	0.041
-566.602	-86.986	0.036	-0.011
-565.588	-20.730	0.169	0.104
-564.573	-104.191	-0.161	0.038
-563.558	-131.192	0.461	0.062
-562.544	-96.880	0.280	-0.074
-561.529	187.200	-0.231	-0.347
-560.515	-108.736	0.264	0.057
-559.500	-200.000	-0.005	0.231
-558.485	109.515	0.103	0.124
-557.471	658.991	-0.098	-0.253
-556.456	-200.000	0.028	-0.127
-555.442	-152.728	-0.113	-0.008
-554.427	-200.000	0.041	-0.278
-553.412	800.000	0.074	0.326
-552.398	154.713	-0.347	0.479
-551.383	296.411	-0.056	0.103
-550.369	692.104	-0.095	-0.251
-549.354	-200.000	0.036	0.164
-548.339	-22.274	-0.167	-0.102
-547.325	-200.000	0.018	-0.211
-546.310	125.173	0.190	-0.241
-545.296	406.016	-0.129	-0.274
-544.281	-21.555	-0.013	0.008
-543.266	743.465	-0.076	0.206
-542.252	-200.000	-0.013	-0.278
-541.237	-132.789	0.199	0.026
-540.223	88.169	-0.120	0.134
-539.208	699.563	-0.049	0.130
-538.193	71.590	-0.254	-0.265
-537.179	77.599	-0.104	-0.111
-536.164	-79.699	0.118	-0.040
-535.150	-181.978	0.083	0.002
-534.135	203.409	0.040	0.063
-533.121	95.483	0.154	-0.177
-532.106	-167.980	-0.502	0.020
-531.091	-147.970	-0.143	0.012
-530.077	-200.000	-0.042	0.267
-529.062	298.655	0.050	0.093
-528.048	84.178	-0.108	-0.118
-527.033	-104.262	-0.242	0.056
-526.018	800.000	0.083	0.299
-525.004	-45.105	-0.032	0.016
-523.989	-7.487	-0.134	0.091
-522.975	384.136	0.016	-0.032
-521.960	55.127	0.167	0.162
-520.945	-200.000	0.001	-0.230
-519.931	22.242	-0.161	0.132
-518.916	-200.000	-0.064	-0.465
-517.902	86.484	0.217	-0.240
-516.887	-88.584	-0.229	0.068
-515.872	-72.251	-0.376	0.140
-514.858	-119.841	0.248	0.043
-513.843	-115.305	-0.109	-0.021
-512.829	-51.271	-0.272	0.128
-511.814	189.635	-0.075	-0.113
-510.799	-21.567	0.092	0.057
-509.785	-19.711	-0.255	-0.159
-508.770	800.000	0.063	0.188
-507.756	-135.691	-0.085	0.010
-506.741	82.761	0.080	-0.087
-505.726	203.794	-0.209	-0.325
-504.712	-27.253	0.243	-0.142
-503.697	-197.650	-0.266	0.002
-502.683	800.000	-0.020	0.068
-501.668	163.267	0.101	-0.142
-500.653	-168.788	-0.120	0.005
-499.639	-200.000	-0.043	-0.285
-498.624	-85.117	-0.266	0.083
-497.610	27.617	0.051	-0.043
-496.595	-147.292	-0.232	-0.020
-495.581	800.000	0.056	-0.218
-494.566	800.000	-0.044	0.132
-493.551	800.000	0.035	0.119
-492.537	-200.000	0.018	0.164
-491.522	800.000	-0.091	0.297
-490.508	-161.647	0.137	-0.007
-489.493	-0.308	0.054	-0.038
-488.478	-166.488	-0.098	0.004
-487.464	-29.639	0.391	0.224
-486.449	-200.000	0.002	0.011
-485.435	-158.567	-0.187	-0.011
-484.420	-158.332	0.123	-0.007
-483.405	-61.071	0.314	0.133
-482.391	-200.000	-0.001	0.037
-481.376	733.956	-0.152	-0.409
-480.362	-58.593	0.297	0.129
-479.347	-200.000	0.013	0.170
-478.332	235.405	-0.118	-0.195
-477.318	89.245	0.259	-0.290
-476.303	-139.497	-0.237	-0.025
-475.289	-139.486	0.254	-0.027
-474.274	0.838	0.298	-0.214
-473.259	71.144	0.113	0.117
-472.245	800.000	-0.019	0.058
-471.230	-65.232	0.097	-0.039
-470.216	-200.000	-0.018	-0.234
-469.201	-49.588	-0.298	-0.142
-468.186	-200.000	0.014	0.115
-467.172	119.628	0.043	-0.054
-466.157	-165.379	0.464	-0.020
-465.143	6.369	-0.149	0.111
-464.128	-200.000	0.014	0.210
-463.113	-37.374	0.189	-0.101
-462.099	28.283	0.320	-0.271
-461.084	-196.065	-0.043	0.000
-460.070	459.208	-0.060	-0.133
-459.055	-34.644	0.043	-0.023
-458.040	-11.551	0.174	0.114
-457.026	800.000	0.017	0.065
-456.011	-200.000	-0.040	-0.303
-454.997	-200.000	-0.009	0.194
-453.982	-200.000	-0.001	-0.074
-452.968	-100.162	-0.170	0.042
-451.953	66.184	-0.090	0.091
-450.938	21.268	-0.196	0.160
-449.924	-96.337	-0.248	0.066
-448.909	-63.054	0.191	-0.079
-447.895	800.000	0.083	-0.280
-446.880	63.210	0.119	0.120
-445.865	-36.122	0.153	-0.083
-444.851	588.943	0.072	0.178
-443.836	9.389	-0.138	-0.105
-442.822	-153.796	-0.305	0.021
-441.807	28.229	-0.028	0.023
-440.792	-92.557	0.149	-0.042
-439.778	800.000	-0.058	0.222
-438.763	-12.883	-0.094	0.062
-437.749	26.028	-0.200	0.167
-436.734	-160.430	0.417	0.022
-435.719	-61.353	-0.088	-0.037
-434.705	24.340	0.210	-0.174
-433.690	-30.143	0.082	0.047
-432.676	-138.429	-0.237	0.026
-431.661	274.083	0.018	0.033
-430.646	43.015	0.036	-0.033
-429.632	-47.678	-0.085	-0.041
-428.617	800.000	0.070	0.222
-427.603	194.706	0.070	-0.106
-426.588	754.636	0.089	-0.240
-425.573	-200.000	0.004	0.029
-424.559	-92.386	0.244	0.069
-423.544	800.000	-0.032	-0.125
-422.530	-61.782	0.285	0.119
-421.515	-83.586	-0.211	0.068
-420.500	-24.709	-0.304	-0.181
-419.486	59.329	-0.211	0.208
-418.471	140.709	0.218	0.288
-417.457	55.590	0.118	0.115
-416.442	-200.000	0.100	0.456
-415.428	-138.930	0.175	-0.019
-414.413	800.000	0.062	0.248
-413.398	145.514	0.145	-0.194
-412.384	110.999	0.110	0.132
-411.369	149.482	-0.177	0.240
-410.355	-24.198	0.082	0.049
-409.340	-192.410	0.215	0.002
-408.325	155.191	0.155	0.213
-407.311	-98.731	-0.176	-0.045
-406.296	800.000	0.013	0.039
-405.282	341.932	0.032	0.062
-404.267	33.965	-0.129	-0.113
-403.252	-200.000	-0.042	0.222
-402.238	-200.000	0.024	-0.114
-401.223	450.553	0.063	-0.140
-400.209	15.551	-0.108	0.085
-399.194	-131.511	-0.122	-0.016
-398.179	-200.000	-0.003	-0.237
-397.165	118.048	-0.204	-0.251
-396.150	89.831	0.354	-0.395
-395.136	130.818	-0.173	0.222
-394.121	-38.426	-0.280	0.148
-393.106	34.553	0.034	-0.030
-392.092	714.821	-0.067	0.179
-391.077	-108.974	0.076	0.016
-390.063	-107.955	-0.370	0.080
-389.048	800.000	0.054	0.158
-388.033	-87.334	-0.192	0.058
-387.019	-85.583	-0.164	-0.051
-386.004	800.000	0.061	-0.208
-384.990	-85.715	0.197	0.061
-383.975	107.223	-0.178	0.212
-382.960	-200.000	-0.058	0.384
-381.946	668.437	-0.071	-0.183
-380.931	800.000	0.068	-0.262
-379.917	-124.476	-0.220	-0.034
-378.902	79.854	-0.242	0.260
-377.888	501.237	-0.140	-0.323
-376.873	101.170	0.196	-0.228
-375.858	55.451	0.098	0.095
-374.844	709.442	-0.067	0.177
-373.829	195.163	-0.138	0.210
-372.815	61.496	-0.168	0.167
-371.800	-200.000	-0.022	0.136
-370.785	-76.917	-0.074	0.026
-369.771	-200.000	-0.068	0.310
-368.756	-132.443	-0.285	-0.037
-367.742	6.629	-0.152	0.113
-366.727	60.701	-0.056	-0.056
-365.712	702.890	-0.082	-0.215
-364.698	-34.104	-0.205	-0.112
-363.683	-200.000	0.030	-0.172
-362.669	318.291	0.132	-0.249
-361.654	-200.000	-0.009	0.110
-360.639	389.840	0.094	0.194
-359.625	-99.316	0.242	-0.061
-358.610	-142.005	-0.086	0.009
-357.596	-54.360	0.060	0.027
-356.581	-200.000	0.019	-0.246
-355.566	-125.027	-0.224	0.034
-354.552	4.679	0.210	0.154
-353.537	146.657	0.152	0.204
-352.523	-34.478	0.366	-0.200
-351.508	429.945	0.130	0.280
-350.493	-78.475	0.031	0.011
-349.479	71.092	-0.088	0.091
-348.464	105.042	-0.248	-0.292
-347.450	-106.660	-0.311	0.069
-346.435	216.843	0.087	0.138
-345.420	-200.000	0.033	-0.214
-344.406	-76.693	0.153	0.053
-343.391	54.635	-0.158	-0.152
-342.377	-200.000	0.029	-0.252
-341.362	-166.397	-0.177	-0.007
-340.348	-200.000	-0.001	0.030
-339.333	143.524	0.110	-0.146
-338.318	-148.173	0.167	0.014
-337.304	-200.000	0.010	0.267
-336.289	-200.000	-0.027	0.300
-335.275	50.106	-0.209	0.196
-334.260	373.853	-0.050	0.102
-333.245	-200.000	0.055	0.384
-332.231	800.000	-0.054	-0.205
-331.216	-200.000	0.005	-0.226
-330.202	-123.891	-0.273	0.043
-329.187	85.151	-0.054	-0.059
-328.172	-42.538	-0.121	0.061
-327.158	46.124	-0.036	-0.034
-326.143	-200.000	-0.007	0.106
-325.129	-126.536	0.224	-0.033
-324.114	-88.313	0.385	-0.115
-323.099	23.581	-0.256	-0.210
-322.085	133.562	0.124	0.160
-321.070	-35.705	-0.082	-0.044
-320.056	-200.000	-0.031	-0.176
-319.041	-200.000	-0.104	0.475
-318.026	-53.539	-0.092	-0.042
-317.012	-70.898	0.144	-0.054
-315.997	-200.000	0.047	0.215
-314.983	-21.858	0.184	0.112
-313.968	-63.365	-0.335	0.137
-312.953	124.911	0.193	-0.242
-311.939	-200.000	-0.007	-0.235
-310.924	-200.000	-0.017	-0.122
-309.910	-92.934	-0.159	0.044
-308.895	77.679	0.068	-0.072
-307.880	800.000	0.073	0.205
-306.866	261.993	-0.044	-0.075
-305.851	468.617	0.102	0.228
-304.837	-200.000	-0.076	-0.338
-303.822	-42.548	-0.272	0.138
-302.807	-63.210	0.266	0.109
-301.793	3.969	-0.198	-0.144
-300.778	2.259	0.485	-0.349
-299.764	-77.298	-0.308	0.107
-298.749	287.815	0.108	-0.194
-297.735	134.634	0.203	0.263
-296.720	-200.000	0.010	0.084
-295.705	133.712	0.162	0.208
-294.691	75.176	0.123	0.129
-293.676	-60.835	0.179	0.076
-292.662	-99.277	0.172	0.043
-291.647	763.510	-0.054	0.145
-290.632	235.195	0.008	0.013
-289.618	167.613	0.191	0.271
-288.603	719.229	-0.168	0.443
-287.589	-135.763	-0.229	0.027
-286.574	-110.061	-0.083	0.017
-285.559	800.000	-0.028	0.087
-284.545	-22.016	-0.146	0.088
-283.530	-200.000	-0.001	0.032
-282.516	-200.000	-0.032	0.246
-281.501	347.258	-0.023	0.044
-280.486	91.890	-0.088	0.099
-279.472	-200.000	-0.033	0.253
-278.457	-127.927	0.519	0.074
-277.443	344.533	-0.146	-0.286
-276.428	800.000	0.045	-0.168
-275.413	147.324	0.155	-0.208
-274.399	-139.918	-0.385	0.040
-273.384	235.794	0.069	0.114
-272.370	-200.000	0.026	0.197
-271.355	800.000	0.049	-0.200
-270.340	800.000	0.033	0.131
-269.326	13.122	0.436	-0.336
-268.311	209.848	0.110	-0.171
-267.297	60.932	-0.110	-0.109
-266.282	800.000	0.068	0.247
-265.267	50.400	-0.241	0.227
-264.253	-200.000	-0.047	-0.218
-263.238	-175.971	0.121	0.003
-262.224	-200.000	0.000	0.123
-261.209	-132.181	0.570	-0.073
-260.195	-69.590	0.127	0.048
-259.180	-33.962	0.098	-0.054
-258.165	34.258	-0.073	-0.064
-257.151	403.595	-0.070	-0.147
-256.136	800.000	0.024	0.098
-255.122	-19.896	-0.111	0.068
-254.107	-86.789	0.270	0.082
-253.092	-112.944	0.238	-0.047
-252.078	-55.969	0.260	-0.115
-251.063	-42.475	-0.251	-0.127
-250.049	35.975	-0.067	-0.059
-249.034	38.392	-0.150	0.133
-248.019	317.140	0.066	-0.125
-247.005	800.000	0.088	-0.268
-245.990	-200.000	-0.021	0.259
-244.976	116.778	0.062	0.076
-243.961	453.114	-0.106	0.233
-242.946	-193.328	-0.194	-0.002
-241.932	-128.188	0.277	0.039
-240.917	-88.019	0.156	-0.046
-239.903	-200.000	0.011	-0.056
-238.888	-128.159	0.326	-0.046
-237.873	-11.585	-0.144	0.094
-236.859	-200.000	0.010	-0.207
-235.844	177.862	0.191	-0.277
-234.830	-200.000	-0.027	-0.298
-233.815	152.288	0.061	-0.082
-232.800	721.317	-0.019	0.050
-231.786	-72.570	-0.167	-0.061
-230.771	-200.000	0.025	-0.118
-229.757	800.000	0.084	-0.260
-228.742	-101.317	0.101	-0.025
-227.727	-39.739	0.105	0.054
-226.713	-39.798	0.147	-0.076
-225.698	13.031	-0.109	-0.084
-224.684	-90.452	-0.217	-0.062
-223.669	-150.543	-0.102	0.008
-222.655	-200.000	0.029	-0.260
-221.640	102.430	0.020	0.023
-220.625	15.661	-0.215	-0.168
-219.611	650.373	-0.065	-0.165
-218.596	-69.764	-0.206	0.078
-217.582	-55.278	0.046	-0.020
-216.567	64.224	0.168	-0.168
-215.552	60.206	-0.062	-0.061
-214.538	-90.329	-0.314	-0.090
-213.523	68.476	-0.070	-0.071
-212.509	-200.000	-0.058	0.253
-211.494	-200.000	-0.050	0.554
-210.479	26.466	-0.184	-0.153
-209.465	565.210	-0.035	-0.085
-208.450	-23.234	-0.088	-0.052
-207.436	-92.732	0.227	0.063
-206.421	641.618	0.086	-0.216
-205.406	800.000	0.023	0.091
-204.392	-42.343	0.314	0.159
-203.377	32.639	-0.201	0.172
-202.363	-200.000	-0.046	0.264
-201.348	-159.569	-0.488	-0.027
-200.333	-138.766	0.402	-0.044
-199.319	290.108	0.005	-0.009
-198.304	-14.298	0.102	0.065
-197.290	-76.426	0.301	0.105
-196.275	115.446	0.133	0.161
-195.260	216.403	-0.054	0.085
-194.246	40.351	-0.173	0.155
-193.231	102.340	0.092	-0.107
-192.217	70.317	0.237	0.243
-191.202	204.914	-0.084	0.129
-190.187	-160.159	-0.349	-0.019
-189.173	50.622	-0.385	-0.361
-188.158	153.857	0.270	-0.367
-187.144	105.415	-0.247	-0.290
-186.129	-107.804	0.184	0.040
-185.114	70.791	-0.239	-0.245
-184.100	-114.114	0.056	-0.011
-183.085	165.917	0.133	-0.186
-182.071	16.428	0.074	-0.058
-181.056	36.662	0.258	0.226
-180.042	800.000	-0.022	-0.083
-179.027	482.091	-0.075	-0.170
-178.012	369.674	-0.083	-0.166
-176.998	-79.653	0.372	0.124
-175.983	80.832	-0.229	0.245
-174.969	-29.334	0.265	-0.150
-173.954	800.000	-0.040	-0.114
-172.939	-148.147	-0.262	-0.021
-171.925	-112.449	0.008	0.002
-170.910	-200.000	-0.093	-0.413
-169.896	373.028	-0.137	0.276
-168.881	25.441	0.156	0.128
-167.866	75.310	0.228	-0.238
-166.852	800.000	0.061	-0.208
-165.837	179.698	-0.143	-0.208
-164.823	-92.051	0.177	0.050
-163.808	-42.395	-0.251	0.127
-162.793	216.015	-0.142	0.224
-161.779	800.000	0.080	0.325
-160.764	-178.124	0.570	0.013
-159.750	188.238	-0.076	-0.112
-158.735	-125.348	-0.346	0.052
-157.720	-200.000	0.033	0.315
-156.706	-200.000	0.009	-0.129
-155.691	-200.000	0.050	-0.333
-154.677	258.631	0.073	0.124
-153.662	26.209	-0.174	0.144
-152.647	64.850	0.028	0.028
-151.633	-200.000	-0.004	0.071
-150.618	594.508	-0.053	0.129
-149.604	34.334	-0.117	0.101
-148.589	-200.000	-0.020	0.134
-147.574	-108.700	-0.104	-0.022
-146.560	-200.000	-0.024	0.412
-145.545	-38.926	0.051	0.027
-144.531	800.000	-0.028	-0.082
-143.516	-13.876	0.102	-0.065
-142.502	-200.000	-0.064	0.313
-141.487	-103.587	0.325	-0.076
-140.472	242.966	-0.088	-0.145
-139.458	-200.000	-0.003	0.020
-138.443	-145.877	-0.160	0.014
-137.429	686.142	0.063	0.162
-136.414	-99.006	-0.430	-0.108
-135.399	333.055	0.238	0.455
-134.385	-59.936	0.121	-0.051
-133.370	179.069	0.160	-0.231
-132.356	-26.002	-0.094	0.055
-131.341	-51.062	0.528	0.245
-130.326	-200.000	0.021	-0.483
-129.312	11.357	0.188	-0.142
-128.297	-121.175	0.135	-0.022
-127.283	-200.000	-0.003	0.155
-126.268	-200.000	0.017	0.326
-125.253	-142.243	-0.222	0.022
-124.239	212.514	0.065	-0.102
-123.224	133.099	-0.077	-0.098
-122.210	-20.411	0.376	0.228
-121.195	61.566	0.120	-0.118
-120.180	271.496	-0.171	-0.298
-119.166	800.000	-0.054	0.216
-118.151	800.000	-0.082	-0.251
-117.137	155.792	0.063	0.085
-116.122	-169.793	-0.141	-0.005
-115.107	-88.655	0.196	-0.058
-114.093	800.000	-0.077	-0.311
-113.078	-73.456	0.084	-0.030
-112.064	-94.320	0.212	-0.057
-111.049	325.931	0.139	-0.263
-110.034	283.084	0.113	0.201
-109.020	-164.462	-0.179	-0.008
-108.005	-43.471	0.173	0.086
-106.991	-15.475	0.025	-0.016
-105.976	-200.000	0.008	0.203
-104.962	-156.770	0.250	0.015
-103.947	-200.000	-0.019	-0.094
-102.932	712.406	0.024	-0.063
-101.918	-30.461	0.470	-0.263
-100.903	656.713	-0.106	0.269
-99.889	-70.429	0.053	-0.020
-98.874	-200.000	0.038	-0.225
-97.859	-7.564	0.294	0.196
-96.845	-97.340	-0.223	-0.057
-95.830	29.571	0.104	-0.087
-94.816	800.000	-0.168	-0.485
-93.801	42.677	0.164	0.147
-92.786	1.383	-0.082	0.058
-91.772	529.670	-0.033	-0.076
-90.757	-67.084	0.065	0.025
-89.743	-200.000	0.031	0.262
-88.728	800.000	-0.110	0.312
-87.713	-175.156	0.217	-0.006
-86.699	-200.000	0.026	0.382
-85.684	118.871	-0.168	0.205
-84.670	-12.471	0.367	-0.237
-83.655	31.714	-0.128	-0.109
-82.640	-29.649	0.290	-0.164
-81.626	-48.173	-0.350	0.167
-80.611	-172.232	0.381	-0.012
-79.597	53.522	-0.170	0.161
-78.582	-200.000	0.008	0.130
-77.567	-65.815	0.154	0.061
-76.553	-46.650	-0.127	0.062
-75.538	800.000	0.063	-0.191
-74.524	-200.000	0.021	0.232
-73.509	-200.000	-0.077	0.419
-72.494	800.000	0.023	-0.081
-71.480	-121.423	-0.246	-0.040
-70.465	-50.029	-0.471	0.220
-69.451	-200.000	0.007	-0.291
-68.436	-200.000	-0.049	-0.282
-67.422	-56.545	0.070	-0.031
-66.407	-171.107	-0.157	-0.005
-65.392	-190.202	0.285	-0.003
-64.378	-53.002	-0.228	0.103
-63.363	21.809	0.105	-0.085
-62.349	352.724	0.113	0.221
-61.334	134.229	-0.704	-0.900
-60.319	94.990	0.410	0.460
-59.305	800.000	-0.357	-1.077
-58.290	12.046	0.853	0.647
-57.276	255.809	0.778	1.316
-56.261	-200.000	97.909	571.350
-55.246	614.222	1413.498	3491.493
-54.232	181.985	2641.700	3836.564
-53.217	113.272	2326.470	2783.187
-52.203	43.375	1934.363	1742.662
-51.188	37.150	1721.132	1502.495
-50.173	34.294	1676.296	1441.716
-49.159	51.287	1725.061	1614.475
-48.144	54.595	1741.826	1655.459
-47.130	36.869	1697.614	1479.580
-46.115	34.034	1683.005	1445.288
-45.100	33.782	1678.435	1439.390
-44.086	33.745	1675.685	1436.700
-43.071	33.741	1673.074	1434.374
-42.057	33.756	1670.415	1432.148
-41.042	33.775	1668.878	1430.919
-40.027	33.847	1666.201	1429.103
-39.013	33.788	1664.405	1427.066
-37.998	33.679	1663.132	1425.101
-36.984	33.801	1661.520	1424.573
-35.969	33.977	1659.491	1424.099
-34.954	33.914	1658.043	1422.327
-33.940	33.918	1656.111	1420.644
-32.925	33.960	1654.372	1419.410
-31.911	33.888	1652.689	1417.371
-30.896	33.845	1651.416	1415.901
-29.881	33.882	1649.381	1414.378
-28.867	33.877	1647.701	1412.846
-27.852	33.979	1645.802	1411.921
-26.838	33.952	1644.600	1410.629
-25.823	33.988	1643.205	1409.647
-24.809	34.057	1641.512	1408.649
-23.794	33.938	1640.494	1406.834
-22.779	33.944	1638.807	1405.381
-21.765	33.966	1636.847	1403.804
-20.750	33.846	1635.530	1401.734
-19.736	33.920	1633.854	1400.791
-18.721	33.920	1632.604	1399.660
-17.706	34.000	1630.875	1398.713
-16.692	33.946	1629.235	1396.852
-15.677	33.959	1627.895	1395.746
-14.663	34.009	1626.253	1394.648
-13.648	33.948	1625.363	1393.379
-12.633	33.986	1623.319	1391.851
-11.619	33.953	1622.283	1390.670
-10.604	33.943	1620.615	1389.108
-9.590	34.023	1619.353	1388.555
-8.575	34.018	1617.555	1386.924
-7.560	33.883	1616.889	1385.313
-6.546	33.964	1615.456	1384.617
-5.531	33.916	1614.798	1383.650
-4.517	33.837	1613.559	1381.956
-3.502	33.976	1612.421	1381.940
-2.487	34.029	1610.634	1380.739
-1.473	33.921	1599.432	1370.303
-0.458	31.352	1580.053	1335.316
0.556	30.221	1579.650	1301.110
1.571	27.624	1603.792	1302.355
2.586	26.426	1616.013	1303.532
3.600	22.859	1560.850	1234.048
4.615	13.815	1449.801	1087.163
5.629	6.052	1383.635	988.757
6.644	4.597	1374.986	973.383
7.659	4.579	1373.521	972.148
8.673	4.644	1372.925	972.047
9.688	4.670	1371.391	971.039
10.702	4.603	1368.455	968.456
11.717	8.267	1375.932	996.572
12.731	17.024	1391.996	1063.217
13.746	22.590	1400.065	1104.259
14.761	22.936	1399.710	1106.050
15.775	22.092	1397.242	1098.727
16.790	21.130	1394.813	1090.709
17.804	20.380	1392.213	1083.901
18.819	20.002	1391.325	1080.756
19.834	19.854	1390.195	1078.855
20.848	19.706	1388.895	1076.832
21.863	19.508	1388.262	1075.013
22.877	19.417	1386.734	1073.165
23.892	19.412	1385.979	1072.460
24.907	19.303	1385.337	1071.187
25.921	19.366	1384.273	1070.662
26.936	19.354	1383.197	1069.660
27.950	19.358	1382.577	1069.113
28.965	19.439	1381.367	1068.582
29.980	19.640	1379.994	1068.668
30.994	19.735	1379.032	1068.416
32.009	19.739	1378.485	1067.923
33.023	19.755	1376.935	1066.727
34.038	19.628	1375.271	1064.564
35.053	19.479	1374.210	1062.726
36.067	19.475	1373.215	1061.841
37.082	19.522	1372.421	1061.418
38.096	19.611	1371.181	1060.916
39.111	19.626	1370.181	1060.141
40.126	19.505	1369.446	1058.733
41.140	19.183	1368.844	1056.198
42.155	19.093	1367.820	1054.763
43.169	19.038	1367.533	1054.117
44.184	19.008	1367.760	1054.009
45.199	19.096	1367.583	1054.321
46.213	19.244	1366.739	1054.482
47.228	19.421	1366.173	1055.036
48.242	19.478	1364.831	1054.257
49.257	19.505	1363.108	1052.997
50.271	19.463	1361.842	1051.668
51.286	19.580	1360.290	1051.088
52.301	19.428	1359.152	1049.191
53.315	19.289	1358.210	1047.528
54.330	19.210	1356.922	1045.961
55.344	19.198	1355.758	1044.899
56.359	19.268	1354.690	1044.411
57.374	19.190	1353.918	1043.248
58.388	19.040	1352.936	1041.494
59.403	18.967	1352.878	1040.914
60.417	19.041	1351.678	1040.345
61.432	18.944	1350.456	1038.725
62.447	18.903	1349.387	1037.562
63.461	18.846	1347.935	1036.014
64.476	18.882	1347.353	1035.692
65.490	18.858	1345.869	1034.314
66.505	18.832	1344.573	1033.070
67.520	18.877	1343.306	1032.272
68.534	18.870	1342.238	1031.322
69.549	18.757	1341.681	1030.123
70.563	18.842	1340.103	1029.333
71.578	18.712	1338.956	1027.578
72.593	18.713	1338.148	1026.874
73.607	18.560	1337.754	1025.566
74.622	18.631	1336.768	1025.143
75.636	18.645	1336.284	1024.764
76.651	18.603	1335.655	1023.944
77.666	18.838	1334.856	1024.641
78.680	18.888	1334.838	1024.833
79.695	18.967	1333.865	1024.467
80.709	19.084	1332.936	1024.362
81.724	19.168	1331.950	1024.012
82.739	19.147	1331.558	1023.491
83.753	19.430	1330.908	1024.588
84.768	19.511	1330.177	1024.413
85.782	19.602	1329.274	1024.164
86.797	19.652	1327.728	1023.182
87.812	19.537	1326.144	1021.188
88.826	19.434	1325.665	1020.119
89.841	19.539	1324.446	1019.713
90.855	19.599	1323.528	1019.268
91.870	19.648	1322.662	1018.801
92.884	19.736	1321.342	1018.214
93.899	19.781	1321.110	1018.211
94.914	19.750	1320.198	1017.235
95.928	19.747	1319.351	1016.472
96.943	19.624	1318.501	1015.006
97.957	19.541	1317.661	1013.785
98.972	19.554	1316.419	1012.813
99.987	19.591	1315.343	1012.113
101.001	19.661	1314.490	1011.778
102.016	19.671	1313.558	1011.030
103.030	19.716	1312.584	1010.451
104.045	19.675	1311.623	1009.384
105.060	19.449	1310.379	1007.021
106.074	19.155	1308.983	1004.142
107.089	18.945	1307.462	1001.662
108.103	18.833	1306.129	999.904
109.118	18.892	1304.606	998.992
110.133	18.839	1303.088	997.432
111.147	18.884	1301.931	996.721
112.162	18.872	1300.817	995.707
113.176	19.133	1299.390	996.035
114.191	19.184	1298.857	995.838
115.206	19.066	1297.585	994.088
116.220	19.084	1296.262	993.095
117.235	19.011	1295.454	991.964
118.249	18.994	1293.853	990.555
119.264	18.932	1292.415	989.011
120.279	18.900	1292.004	988.426
121.293	18.910	1290.883	987.533
122.308	18.809	1289.452	985.775
123.322	18.623	1288.651	984.009
124.337	18.590	1287.335	982.728
125.352	18.685	1286.476	982.529
126.366	18.634	1285.448	981.366
127.381	18.670	1284.475	980.743
128.395	18.720	1283.698	980.346
129.410	18.757	1282.874	979.842
130.424	18.817	1281.788	979.268
131.439	18.876	1281.167	979.041
132.454	19.033	1280.344	979.217
133.468	19.023	1279.311	978.288
134.483	19.051	1278.624	977.832
135.497	19.114	1277.192	977.006
136.512	19.097	1276.068	975.970
137.527	19.113	1274.613	974.856
138.541	19.175	1273.400	974.197
139.556	19.238	1272.247	973.582
140.570	19.305	1271.327	973.169
141.585	19.393	1270.233	972.746
142.600	19.484	1269.036	972.251
143.614	19.564	1268.453	972.172
144.629	19.571	1267.882	971.684
145.643	19.594	1266.482	970.657
146.658	19.405	1264.767	968.199
147.673	19.385	1263.057	966.692
148.687	19.187	1261.857	964.578
149.702	19.198	1260.355	963.404
150.716	19.079	1259.316	961.861
151.731	19.045	1258.378	960.869
152.746	19.096	1256.859	959.906
153.760	19.161	1255.672	959.277
154.775	19.276	1254.840	959.198
155.789	19.332	1253.585	958.467
156.804	19.294	1253.522	958.124
157.819	19.443	1251.746	957.508
158.833	19.467	1251.265	957.186
159.848	19.658	1250.304	957.424
160.862	19.593	1249.483	956.352
161.877	19.291	1248.124	953.560
162.892	19.132	1246.941	951.693
163.906	19.004	1245.653	949.916
164.921	19.174	1244.633	949.990
165.935	19.160	1244.391	949.645
166.950	19.353	1243.567	949.994
167.964	19.301	1242.903	949.117
168.979	19.194	1242.293	947.981
169.994	19.280	1241.032	947.405
171.008	19.372	1239.912	946.976
172.023	19.412	1239.661	946.916
173.037	19.615	1238.965	947.416
174.052	19.492	1238.517	946.317
175.067	19.245	1237.100	943.796
176.081	19.008	1235.721	941.365
177.096	19.168	1234.669	941.354
178.110	19.103	1233.643	940.130
179.125	19.276	1232.266	939.944
180.140	19.352	1231.604	939.769
181.154	19.287	1230.871	938.776
182.169	19.534	1229.542	939.022
183.183	19.589	1228.405	938.367
184.198	19.659	1226.923	937.534
185.213	19.639	1226.227	936.810
186.227	19.734	1225.158	936.425
187.242	19.819	1224.053	935.955
188.256	19.805	1223.002	934.996
189.271	19.840	1222.365	934.616
190.286	19.539	1221.146	931.975
191.300	19.262	1219.679	929.280
192.315	19.050	1219.261	927.734
193.329	19.202	1218.368	927.791
194.344	19.246	1218.327	927.918
195.359	19.293	1217.784	927.675
196.373	19.426	1217.658	928.209
197.388	19.515	1216.873	928.011
198.402	19.712	1216.567	928.755
199.417	19.907	1215.981	929.270
200.432	20.009	1215.397	929.290
201.446	20.101	1214.813	929.256
202.461	20.125	1213.613	928.384
203.475	20.201	1212.784	928.071
204.490	19.852	1211.322	925.004
205.504	19.741	1210.283	923.537
206.519	19.775	1208.370	922.178
207.534	19.575	1207.590	920.433
208.548	19.710	1206.711	920.404
209.563	19.720	1206.277	920.042
210.577	19.774	1204.903	919.202
211.592	19.786	1204.286	918.715
212.607	19.911	1203.932	919.026
213.621	20.005	1202.521	918.364
214.636	19.922	1202.007	917.454
215.650	19.967	1200.963	916.813
216.665	20.125	1199.971	916.808
217.680	20.294	1199.425	917.204
218.694	20.194	1198.804	916.119
219.709	20.209	1197.688	915.267
220.723	20.132	1197.102	914.332
221.738	20.094	1196.015	913.217
222.753	20.128	1195.326	912.791
223.767	20.187	1194.471	912.365
224.782	20.232	1194.323	912.412
225.796	20.314	1193.686	912.275
226.811	20.360	1192.824	911.779
227.826	20.057	1192.502	909.857
228.840	19.942	1191.489	908.401
229.855	20.047	1190.344	907.998
230.869	20.035	1189.469	907.189
231.884	20.087	1188.924	906.964
232.899	19.902	1187.988	905.203
233.913	19.873	1187.089	904.286
234.928	19.746	1186.585	903.159
235.942	19.739	1185.737	902.394
236.957	19.727	1184.935	901.645
237.972	19.784	1183.741	900.953
238.986	19.794	1183.145	900.472
240.001	19.785	1182.907	900.164
241.015	19.894	1181.905	899.890
242.030	20.002	1180.824	899.546
243.045	20.069	1180.465	899.540
244.059	19.991	1179.703	898.477
245.074	20.143	1178.854	898.540
246.088	20.190	1178.589	898.502
247.103	20.365	1177.122	898.207
248.117	20.443	1176.784	898.274
249.132	20.529	1176.443	898.381
250.147	20.835	1175.712	899.322
251.161	20.938	1175.107	899.312
252.176	20.913	1174.728	898.814
253.190	20.932	1173.970	898.249
254.205	21.082	1173.156	898.320
255.220	21.097	1172.825	898.065
256.234	21.072	1172.045	897.260
257.249	21.003	1171.079	896.085
258.263	21.036	1170.242	895.533
259.278	21.083	1169.639	895.237
260.293	20.893	1169.574	894.131
261.307	21.212	1168.491	894.859
262.322	21.142	1168.075	894.101
263.336	21.133	1167.590	893.608
264.351	21.144	1167.095	893.203
265.366	21.267	1166.338	893.179
266.380	21.136	1165.868	892.069
267.395	21.015	1164.814	890.566
268.409	20.991	1163.529	889.380
269.424	20.991	1163.396	889.201
270.439	20.955	1162.540	888.284
271.453	20.917	1161.553	887.260
272.468	20.800	1160.735	885.959
273.482	20.704	1160.008	884.840
274.497	20.742	1159.377	884.472
275.512	20.761	1158.646	883.929
276.526	20.785	1157.934	883.432
277.541	20.784	1157.330	882.890
278.555	20.972	1156.559	883.175
279.570	21.047	1156.209	883.209
280.585	21.104	1155.187	882.639
281.599	21.160	1154.553	882.360
282.614	20.973	1153.273	880.357
283.628	20.976	1151.880	879.230
284.643	20.911	1150.938	878.109
285.657	20.892	1150.267	877.422
286.672	20.978	1149.384	877.103
287.687	20.972	1148.124	876.035
288.701	21.102	1147.431	876.082
289.716	21.041	1146.871	875.270
290.730	21.008	1146.148	874.476
291.745	21.049	1145.540	874.138
292.760	21.147	1145.195	874.289
293.774	21.183	1144.732	874.039
294.789	21.293	1143.951	873.918
295.803	21.255	1143.208	873.082
296.818	21.090	1142.463	871.612
297.833	21.124	1141.418	870.905
298.847	21.056	1140.620	869.880
299.862	21.163	1139.750	869.676
300.876	20.930	1139.792	868.469
301.891	21.377	1138.706	869.789
302.906	21.357	1138.319	869.314
303.920	21.447	1137.891	869.360
304.935	21.525	1137.217	869.154
305.949	21.657	1136.490	869.176
306.964	21.698	1135.517	868.560
307.979	21.428	1135.292	866.972
308.993	21.495	1133.915	866.176
310.008	21.545	1133.456	865.997
311.022	21.505	1133.225	865.545
312.037	21.501	1132.230	864.691
313.052	21.381	1131.075	863.137
314.066	21.339	1129.805	861.882
315.081	21.121	1128.868	860.020
316.095	21.067	1127.870	858.915
317.110	21.098	1127.434	858.659
318.125	21.113	1126.508	857.956
319.139	20.990	1126.409	857.199
320.154	21.127	1125.402	857.029
321.168	21.212	1125.155	857.184
322.183	21.360	1123.860	856.844
323.197	21.354	1123.496	856.461
324.212	21.358	1122.893	855.945
325.227	21.380	1122.376	855.587
326.241	21.437	1121.708	855.279
327.256	21.315	1120.671	853.814
328.270	21.239	1119.846	852.742
329.285	21.289	1118.625	851.982
330.300	21.306	1117.922	851.451
331.314	21.197	1117.240	850.327
332.329	21.175	1116.141	849.307
333.343	21.391	1115.323	849.657
334.358	21.443	1114.649	849.323
335.373	21.521	1114.050	849.171
336.387	21.501	1113.335	848.456
337.402	21.606	1112.602	848.330
338.416	21.656	1111.747	847.844
339.431	21.708	1111.542	847.863
340.446	21.786	1110.983	847.741
341.460	21.789	1110.345	847.194
342.475	22.039	1109.631	847.780
343.489	21.970	1109.094	846.961
344.504	22.116	1107.869	846.653
345.519	22.222	1106.958	846.395
346.533	22.120	1106.647	845.592
347.548	22.176	1105.799	845.137
348.562	22.269	1104.787	844.735
349.577	22.044	1103.787	842.819
350.592	21.709	1102.888	840.450
351.606	21.668	1102.130	839.599
352.621	21.580	1101.055	838.287
353.635	21.576	1100.547	837.806
354.650	21.624	1099.886	837.456
355.665	21.640	1099.717	837.330
356.679	21.815	1098.936	837.498
357.694	21.922	1098.006	837.225
358.708	21.857	1097.955	836.803
359.723	21.917	1097.187	836.432
360.738	21.961	1096.095	835.731
361.752	21.981	1095.773	835.508
362.767	21.878	1095.272	834.562
363.781	21.983	1094.538	834.428
364.796	22.042	1094.241	834.410
365.810	22.083	1093.733	834.141
366.825	22.398	1092.561	834.670
367.840	22.449	1092.879	835.078
368.854	22.460	1092.921	835.088
369.869	22.408	1091.982	834.050
370.883	22.428	1090.255	832.752
371.898	22.284	1089.604	831.501
372.913	22.133	1089.246	830.444
373.927	22.218	1088.961	830.551
374.942	22.467	1088.059	830.965
375.956	22.426	1087.750	830.463
376.971	22.339	1087.264	829.611
377.986	22.434	1086.209	829.176
379.000	22.549	1086.006	829.492
380.015	22.686	1085.548	829.710
381.029	22.732	1084.839	829.312
382.044	22.658	1084.486	828.622
383.059	22.600	1083.471	827.502
384.073	22.567	1082.767	826.736
385.088	22.625	1081.961	826.319
386.102	22.526	1080.874	824.952
387.117	22.383	1079.734	823.338
388.132	22.335	1078.545	822.138
389.146	22.252	1077.847	821.144
390.161	22.250	1076.871	820.316
391.175	22.272	1076.406	819.996
392.190	22.413	1075.665	820.012
393.205	22.627	1075.463	820.782
394.219	22.458	1074.380	819.098
395.234	22.589	1073.256	818.777
396.248	22.337	1072.094	816.651
397.263	22.332	1071.056	815.761
398.278	22.290	1070.298	814.918
399.292	22.283	1069.409	814.137
400.307	22.181	1068.571	812.957
401.321	22.061	1068.674	812.409
402.336	22.149	1067.772	812.058
403.350	22.107	1066.765	811.027
404.365	22.353	1066.490	811.879
405.380	22.248	1065.846	810.833
406.394	22.449	1065.051	811.081
407.409	22.449	1064.459	810.562
408.423	22.636	1063.603	810.698
409.438	22.848	1062.907	811.067
410.453	22.905	1062.686	811.088
411.467	22.867	1061.846	810.204
412.482	22.967	1061.112	810.027
413.496	22.990	1060.676	809.731
414.511	23.056	1059.979	809.430
415.526	23.285	1059.490	810.029
416.540	23.126	1059.628	809.337
417.555	23.143	1058.841	808.740
418.569	23.047	1058.109	807.671
419.584	22.976	1057.842	807.072
420.599	22.984	1057.024	806.414
421.613	154.262	1401.764	1789.078
422.628	141.736	1451.990	1789.188
