DTS Sentinel unit serial number:	SN413079Multiplexer serial number:	ORYXHardware model number:	OX4-SRSoftware version number:	ORYX F/W v4.00 Oryx Data Collector v3.7.2.0data status	okinstallation	princeton_trtdifferential loss correction	single-endedforward channel	channel 2reverse channel	N/Adate	2019/09/13time	20:03:34forward acquisition time	60.00reverse acquisition time	0.00gamma	496.2192k internal	0.2332k external	0.2332temperature offset calibration	1.0147default loss term (dB/km)	0.3790temperature slope calibration	1.0000multiplexer offset coefficient	1.0000multiplexer slope coefficient	1.0000fibre end	0.00T internal ref (°C)	29.69T ext. ref 1 (°C)	3.36T ext. ref 2 (°C)	24.17length (m)	temperature (°C)	Stokes	anti-Stokes-747.200	123.263	-0.133	-0.168
-746.185	234.960	0.109	0.180
-745.171	-30.391	0.196	-0.112
-744.156	11.750	-0.124	0.096
-743.142	-105.740	-0.239	-0.054
-742.127	-166.634	-0.201	-0.008
-741.112	-200.000	0.050	0.264
-740.098	-118.443	-0.370	-0.066
-739.083	44.947	-0.063	0.058
-738.069	-200.000	-0.049	0.286
-737.054	19.068	-0.118	-0.095
-736.039	276.846	-0.010	-0.019
-735.025	-55.660	-0.147	0.066
-734.010	-42.522	-0.138	-0.071
-732.996	485.627	-0.117	-0.269
-731.981	454.462	0.035	0.077
-730.966	-83.452	-0.178	0.057
-729.952	427.691	-0.050	-0.108
-728.937	-200.000	-0.048	0.544
-727.923	-117.863	0.158	-0.029
-726.908	155.320	-0.106	-0.147
-725.894	-52.160	-0.408	-0.190
-724.879	800.000	-0.076	-0.318
-723.864	10.078	0.081	0.062
-722.850	800.000	0.131	0.375
-721.835	-3.252	-0.135	-0.095
-720.821	-200.000	0.028	-0.143
-719.806	-200.000	0.009	0.087
-718.791	800.000	0.141	-0.429
-717.777	-106.573	-0.054	0.012
-716.762	-200.000	0.001	-0.004
-715.748	-200.000	-0.080	-0.367
-714.733	800.000	-0.035	-0.145
-713.718	-52.629	0.154	0.072
-712.704	291.299	-0.107	-0.196
-711.689	-164.593	-0.295	-0.013
-710.675	800.000	0.046	0.131
-709.660	-48.659	-0.248	0.120
-708.645	-200.000	0.078	0.456
-707.631	-100.193	-0.252	-0.063
-706.616	738.574	-0.090	-0.242
-705.602	-200.000	0.004	0.108
-704.587	115.711	-0.173	-0.212
-703.572	-80.277	0.176	0.059
-702.558	-2.118	-0.275	-0.194
-701.543	800.000	-0.092	0.267
-700.529	171.563	0.155	-0.223
-699.514	-88.671	0.063	-0.019
-698.499	-67.754	-0.076	-0.030
-697.485	53.362	-0.250	0.240
-696.470	-50.548	-0.028	0.013
-695.456	235.270	-0.105	0.175
-694.441	-200.000	-0.039	0.280
-693.426	58.382	0.145	-0.143
-692.412	558.942	-0.051	0.124
-691.397	31.019	-0.216	0.186
-690.383	-200.000	-0.013	0.280
-689.368	-58.236	-0.179	0.078
-688.354	164.673	-0.154	-0.217
-687.339	-131.178	0.036	0.005
-686.324	-147.345	-0.377	-0.032
-685.310	-69.247	0.406	0.157
-684.295	-17.397	-0.352	-0.223
-683.281	203.985	-0.065	-0.101
-682.266	-104.430	0.216	0.050
-681.251	-200.000	0.027	0.137
-680.237	-10.433	-0.262	-0.174
-679.222	-132.718	0.188	-0.024
-678.208	-54.480	-0.115	-0.052
-677.193	-50.877	-0.172	-0.081
-676.178	-115.108	0.218	0.042
-675.164	-80.842	-0.155	-0.052
-674.149	279.924	0.038	-0.068
-673.135	-22.285	-0.113	-0.068
-672.120	-200.000	-0.010	0.175
-671.105	622.305	0.100	-0.253
-670.091	-70.911	0.380	0.144
-669.076	-146.102	0.296	0.026
-668.062	-114.209	-0.088	0.017
-667.047	800.000	0.059	0.248
-666.032	-53.020	0.329	-0.152
-665.018	-200.000	0.054	-0.315
-664.003	381.798	0.182	-0.374
-662.989	-109.228	0.103	0.022
-661.974	-8.616	-0.215	0.145
-660.959	62.371	0.140	-0.140
-659.945	1.514	-0.269	-0.194
-658.930	800.000	-0.119	-0.406
-657.916	-78.588	0.092	-0.031
-656.901	-200.000	-0.018	-0.168
-655.886	-200.000	0.049	-0.354
-654.872	-172.950	0.149	0.005
-653.857	-99.606	-0.102	-0.026
-652.843	350.641	-0.092	-0.183
-651.828	17.448	0.324	-0.258
-650.814	-200.000	0.009	0.199
-649.799	282.843	-0.134	-0.241
-648.784	326.418	-0.036	0.069
-647.770	-124.349	0.047	-0.007
-646.755	104.310	0.103	-0.122
-645.741	609.892	0.025	-0.064
-644.726	-12.650	0.147	-0.096
-643.711	6.281	0.087	0.064
-642.697	800.000	0.018	0.066
-641.682	79.210	0.053	-0.057
-640.668	-151.697	-0.264	0.019
-639.653	165.023	-0.191	-0.270
-638.638	-36.518	-0.122	-0.066
-637.624	-200.000	-0.098	-0.432
-636.609	800.000	0.064	0.201
-635.595	9.680	0.135	-0.102
-634.580	-200.000	-0.018	-0.411
-633.565	-78.469	-0.153	-0.052
-632.551	206.091	-0.057	0.088
-631.536	176.767	0.199	-0.289
-630.522	-17.938	-0.234	-0.147
-629.507	-30.898	0.184	-0.104
-628.492	43.286	0.201	-0.184
-627.478	-33.429	0.129	0.072
-626.463	-21.179	-0.189	0.116
-625.449	-200.000	-0.040	0.215
-624.434	800.000	0.168	-0.570
-623.419	-200.000	0.006	-0.131
-622.405	-98.661	-0.499	0.127
-621.390	-126.712	-0.146	0.022
-620.376	64.025	0.078	0.078
-619.361	-200.000	-0.001	0.364
-618.346	-27.262	-0.150	-0.088
-617.332	-108.132	0.119	0.026
-616.317	58.608	0.103	-0.101
-615.303	-34.605	-0.272	-0.149
-614.288	-200.000	0.039	-0.219
-613.273	-37.939	0.073	0.039
-612.259	24.358	-0.194	-0.161
-611.244	-41.528	-0.199	-0.103
-610.230	-200.000	0.030	-0.238
-609.215	-27.253	-0.230	0.134
-608.201	357.622	-0.123	-0.246
-607.186	-47.017	-0.220	0.107
-606.171	104.131	-0.224	0.264
-605.157	716.695	0.141	-0.375
-604.142	-200.000	0.003	-0.112
-603.128	-200.000	-0.066	0.321
-602.113	-47.794	-0.082	-0.040
-601.098	228.152	0.138	0.224
-600.084	350.996	-0.057	-0.112
-599.069	131.304	0.055	-0.071
-598.055	366.735	0.184	-0.370
-597.040	1.299	-0.061	-0.044
-596.025	97.081	-0.315	0.362
-595.011	-200.000	0.019	-0.109
-593.996	-200.000	0.055	-0.449
-592.982	60.058	0.023	0.023
-591.967	89.272	-0.084	-0.093
-590.952	-86.994	-0.036	0.011
-589.938	-74.190	-0.189	-0.068
-588.923	-64.899	-0.379	-0.153
-587.909	487.178	0.109	-0.249
-586.894	-72.075	-0.266	0.099
-585.879	-80.428	0.163	0.054
-584.865	-19.420	0.112	0.069
-583.850	-107.607	0.165	0.036
-582.836	-65.890	0.119	-0.048
-581.821	800.000	0.038	0.127
-580.806	-3.417	0.111	-0.077
-579.792	-90.281	0.075	0.022
-578.777	-97.011	-0.343	-0.090
-577.763	141.396	-0.074	0.098
-576.748	-118.720	-0.272	0.048
-575.733	-125.618	-0.263	0.040
-574.719	800.000	-0.029	-0.079
-573.704	-200.000	0.004	0.350
-572.690	-90.655	-0.179	0.052
-571.675	-200.000	-0.007	0.150
-570.661	484.161	0.153	0.349
-569.646	-124.196	-0.026	-0.004
-568.631	-200.000	-0.000	0.009
-567.617	-104.225	-0.207	0.048
-566.602	-61.228	0.129	0.054
-565.588	172.091	0.343	-0.492
-564.573	-200.000	0.013	-0.228
-563.558	226.685	0.061	-0.098
-562.544	-200.000	0.054	0.322
-561.529	-86.023	0.133	-0.041
-560.515	-200.000	0.033	-0.184
-559.500	311.586	-0.204	0.381
-558.485	800.000	0.062	0.211
-557.471	132.369	-0.062	-0.080
-556.456	-200.000	0.008	0.301
-555.442	447.809	0.080	-0.175
-554.427	-144.877	0.135	0.012
-553.412	-87.347	0.340	0.103
-552.398	173.238	0.212	0.305
-551.383	-200.000	-0.002	-0.187
-550.369	151.408	-0.143	0.194
-549.354	-200.000	0.036	0.208
-548.339	358.711	0.109	0.218
-547.325	-200.000	-0.046	-0.475
-546.310	-200.000	0.066	-0.313
-545.296	178.461	-0.153	0.223
-544.281	-117.383	0.143	0.026
-543.266	-110.285	-0.164	0.034
-542.252	-82.884	0.200	0.065
-541.237	-200.000	-0.005	-0.202
-540.223	-142.114	-0.250	0.025
-539.208	792.574	0.102	-0.281
-538.193	-200.000	-0.012	-0.461
-537.179	68.962	0.071	-0.073
-536.164	686.464	-0.112	0.293
-535.150	37.169	-0.213	0.188
-534.135	18.460	0.421	0.335
-533.121	-63.284	0.465	-0.191
-532.106	-148.150	-0.035	-0.003
-531.091	-63.947	-0.019	-0.008
-530.077	-89.694	-0.218	0.064
-529.062	-200.000	0.041	0.245
-528.048	16.523	-0.337	-0.265
-527.033	-32.696	-0.103	0.057
-526.018	800.000	-0.070	-0.284
-525.004	-156.696	-0.298	-0.018
-523.989	391.185	0.011	-0.022
-522.975	412.088	0.109	0.231
-521.960	161.057	-0.130	-0.182
-520.945	-200.000	-0.030	0.316
-519.931	800.000	-0.068	0.195
-518.916	168.936	0.178	0.254
-517.902	-200.000	-0.001	0.070
-516.887	-5.042	-0.228	0.157
-515.872	-28.142	-0.163	0.094
-514.858	746.964	0.096	-0.258
-513.843	-200.000	0.049	-0.244
-512.829	-189.036	-0.046	-0.001
-511.814	-52.707	-0.348	0.160
-510.799	800.000	0.098	0.305
-509.785	-181.967	-0.366	-0.007
-508.770	-91.178	-0.119	0.034
-507.756	115.196	-0.275	0.335
-506.741	350.370	0.216	0.425
-505.726	-16.433	-0.069	-0.044
-504.712	-200.000	0.023	0.240
-503.697	-71.579	0.439	0.163
-502.683	-33.019	0.207	0.115
-501.668	-200.000	-0.015	-0.094
-500.653	-20.453	0.104	-0.064
-499.639	-200.000	0.039	0.293
-498.624	150.873	0.078	-0.106
-497.610	-57.542	-0.164	0.072
-496.595	373.118	-0.023	-0.048
-495.581	-20.862	-0.210	0.128
-494.566	-200.000	-0.019	-0.103
-493.551	73.534	-0.267	0.278
-492.537	-110.331	0.201	0.042
-491.522	-92.152	0.116	0.033
-490.508	800.000	-0.095	-0.264
-489.493	-158.680	0.413	0.024
-488.478	-200.000	-0.003	-0.023
-487.464	219.995	0.051	0.081
-486.449	-1.955	0.196	-0.137
-485.435	-200.000	0.030	0.238
-484.420	-60.017	-0.092	0.039
-483.405	170.375	0.012	-0.018
-482.391	500.480	-0.132	0.304
-481.376	507.131	0.201	-0.464
-480.362	-78.471	0.371	-0.127
-479.347	-71.295	0.174	0.065
-478.332	656.743	0.092	0.235
-477.318	240.779	0.063	-0.104
-476.303	-164.252	-0.166	0.008
-475.289	-200.000	-0.018	-0.354
-474.274	259.272	0.139	-0.239
-473.259	37.569	0.414	0.365
-472.245	265.550	-0.097	-0.168
-471.230	-151.712	0.129	-0.009
-470.216	-53.087	-0.252	0.115
-469.201	280.324	0.103	0.184
-468.186	213.337	0.083	0.130
-467.172	3.392	-0.232	-0.168
-466.157	234.016	-0.185	-0.303
-465.143	-200.000	-0.027	0.222
-464.128	123.703	-0.100	0.125
-463.113	391.888	0.038	-0.078
-462.099	59.111	-0.107	0.105
-461.084	215.599	-0.078	0.123
-460.070	-115.371	0.249	-0.047
-459.055	800.000	-0.072	-0.203
-458.040	-51.415	-0.343	0.159
-457.026	-148.542	0.165	0.013
-456.011	108.760	0.222	-0.264
-454.997	24.105	0.271	-0.222
-453.982	-160.108	0.348	-0.019
-452.968	-52.866	-0.202	0.092
-451.953	-9.509	-0.233	0.154
-450.938	-165.093	-0.193	0.009
-449.924	-177.066	0.225	-0.006
-448.909	428.211	-0.199	-0.428
-447.895	124.542	0.091	0.114
-446.880	-19.620	0.185	0.114
-445.865	216.759	0.070	0.111
-444.851	-191.013	0.191	0.002
-443.836	-200.000	0.056	-0.301
-442.822	-200.000	-0.379	0.002
-441.807	142.328	-0.173	0.228
-440.792	-60.373	-0.273	-0.115
-439.778	-105.375	0.458	-0.104
-438.763	-200.000	0.015	-0.212
-437.749	4.117	0.184	0.134
-436.734	213.263	-0.070	-0.109
-435.719	23.590	0.099	-0.081
-434.705	5.449	-0.083	-0.061
-433.690	-200.000	-0.006	0.313
-432.676	-8.968	0.147	0.098
-431.661	-80.207	-0.149	-0.050
-430.646	-104.964	-0.071	0.016
-429.632	800.000	0.048	0.167
-428.617	-65.824	0.080	0.032
-427.603	-23.954	0.130	0.077
-426.588	-119.577	0.306	0.053
-425.573	-126.279	-0.066	0.010
-424.559	7.232	0.235	-0.174
-423.544	247.840	-0.180	0.302
-422.530	-103.412	0.295	0.069
-421.515	88.976	0.166	-0.183
-420.500	241.782	-0.053	0.088
-419.486	800.000	-0.073	0.205
-418.471	-168.321	0.346	0.013
-417.457	-126.506	0.164	-0.024
-416.442	-43.201	0.284	-0.143
-415.428	-132.662	-0.253	-0.032
-414.413	14.005	-0.020	-0.015
-413.398	-60.328	-0.155	0.066
-412.384	113.000	-0.151	-0.181
-411.369	-200.000	-0.043	-0.196
-410.355	-200.000	-0.020	-0.252
-409.340	266.917	0.134	-0.233
-408.325	23.089	-0.301	0.245
-407.311	275.103	0.133	0.233
-406.296	-152.458	0.166	-0.012
-405.282	800.000	0.083	-0.233
-404.267	-129.149	-0.136	0.019
-403.252	-28.847	0.082	-0.047
-402.238	-146.574	-0.222	0.019
-401.223	-200.000	0.012	-0.163
-400.209	351.196	0.079	0.156
-399.194	-200.000	0.005	-0.039
-398.179	-103.073	-0.157	0.037
-397.165	-8.947	-0.152	0.101
-396.150	-7.204	-0.074	-0.049
-395.136	230.541	0.196	-0.317
-394.121	-36.498	-0.185	0.099
-393.106	-13.412	0.125	0.080
-392.092	299.312	0.118	0.215
-391.077	-79.803	0.182	0.061
-390.063	743.850	0.032	0.085
-389.048	-200.000	0.042	0.230
-388.033	373.605	0.146	0.295
-387.019	-88.752	-0.165	-0.049
-386.004	-117.550	0.111	0.020
-384.990	104.451	-0.227	0.265
-383.975	-200.000	0.007	-0.199
-382.960	800.000	-0.073	0.282
-381.946	359.239	-0.120	-0.238
-380.931	-64.708	0.091	0.037
-379.917	-200.000	-0.015	0.126
-378.902	800.000	0.034	-0.114
-377.888	402.171	0.145	0.302
-376.873	-17.407	-0.086	0.054
-375.858	313.478	0.205	0.382
-374.844	125.339	-0.127	0.159
-373.829	250.414	-0.087	0.146
-372.815	34.925	0.239	-0.207
-371.800	32.072	0.156	0.133
-370.785	181.947	-0.179	-0.261
-369.771	15.929	0.248	0.193
-368.756	-21.686	0.146	0.088
-367.742	800.000	-0.056	-0.169
-366.727	-57.174	-0.181	0.079
-365.712	-87.172	0.238	0.072
-364.698	-24.481	-0.387	-0.228
-363.683	694.756	-0.071	0.183
-362.669	65.175	0.220	0.221
-361.654	86.656	0.073	0.080
-360.639	-200.000	-0.002	-0.350
-359.625	-114.330	-0.207	-0.040
-358.610	118.466	0.161	0.197
-357.596	-200.000	0.061	0.342
-356.581	-200.000	-0.012	-0.216
-355.566	65.758	0.274	-0.275
-354.552	324.273	0.072	-0.136
-353.537	-163.982	-0.329	0.015
-352.523	-111.979	-0.230	0.046
-351.508	31.880	0.293	0.250
-350.493	-14.391	-0.297	-0.189
-349.479	-126.389	0.332	0.049
-348.464	395.771	0.041	-0.084
-347.450	164.321	-0.149	0.208
-346.435	-64.596	0.247	0.099
-345.420	-200.000	0.008	-0.258
-344.406	-200.000	-0.015	0.294
-343.391	800.000	-0.019	0.075
-342.377	220.735	0.059	-0.094
-341.362	-107.971	0.246	0.053
-340.348	558.091	-0.164	-0.392
-339.333	-200.000	0.088	-0.468
-338.318	277.416	-0.056	0.099
-337.304	129.328	0.138	0.175
-336.289	-83.038	0.175	0.056
-335.275	-146.733	0.359	0.031
-334.260	569.012	0.039	0.095
-333.245	-200.000	-0.019	0.173
-332.231	97.089	-0.114	0.129
-331.216	311.692	-0.104	-0.194
-330.202	-200.000	-0.001	0.320
-329.187	-101.731	0.182	-0.044
-328.172	38.884	0.286	0.253
-327.158	76.123	-0.002	0.002
-326.143	-200.000	-0.039	0.276
-325.129	79.942	-0.121	-0.129
-324.114	800.000	-0.049	0.179
-323.099	-16.008	-0.050	-0.032
-322.085	21.198	-0.185	0.148
-321.070	-91.189	-0.429	-0.122
-320.056	-200.000	0.029	0.325
-319.041	-200.000	0.039	0.186
-318.026	69.996	-0.078	0.079
-317.012	169.027	0.136	-0.193
-315.997	120.106	-0.128	0.158
-314.983	-200.000	-0.011	-0.098
-313.968	-72.237	0.245	0.090
-312.953	-200.000	0.002	-0.098
-311.939	39.552	0.031	-0.028
-310.924	8.121	0.168	0.125
-309.910	250.351	0.158	-0.265
-308.895	-115.837	-0.278	-0.051
-307.880	165.455	-0.079	-0.110
-306.866	800.000	-0.060	-0.183
-305.851	-102.387	-0.369	-0.087
-304.837	94.858	-0.140	-0.157
-303.822	59.750	-0.050	0.049
-302.807	-60.648	-0.356	-0.149
-301.793	28.285	-0.145	-0.121
-300.778	-14.886	-0.269	-0.171
-299.764	177.941	0.155	0.223
-298.749	-200.000	0.052	0.252
-297.735	-200.000	-0.015	0.208
-296.720	800.000	0.108	-0.357
-295.705	122.188	0.249	0.307
-294.691	-200.000	0.049	0.449
-293.676	125.565	-0.133	-0.166
-292.662	-72.265	0.289	-0.106
-291.647	-123.893	-0.043	0.007
-290.632	-64.696	-0.235	-0.094
-289.618	66.681	0.113	-0.113
-288.603	448.543	-0.043	0.095
-287.589	-84.085	0.312	-0.098
-286.574	-200.000	-0.041	-0.301
-285.559	34.778	0.484	-0.419
-284.545	10.505	0.131	-0.099
-283.530	-192.966	-0.305	0.003
-282.516	-120.564	0.268	0.045
-281.501	-43.667	0.043	-0.022
-280.486	106.821	-0.152	0.178
-279.472	-200.000	0.038	0.267
-278.457	-20.146	0.248	0.151
-277.443	-200.000	-0.010	0.355
-276.428	124.645	0.139	-0.172
-275.413	-1.351	-0.176	-0.122
-274.399	241.024	0.098	0.162
-273.384	52.189	0.105	0.099
-272.370	2.428	0.211	-0.151
-271.355	618.843	-0.066	0.165
-270.340	-200.000	-0.029	-0.169
-269.326	-132.933	-0.241	0.030
-268.311	524.739	-0.141	-0.326
-267.297	-200.000	-0.041	0.294
-266.282	-200.000	-0.035	-0.233
-265.267	-200.000	0.015	-0.199
-264.253	254.295	-0.152	-0.257
-263.238	800.000	0.111	-0.346
-262.224	132.157	-0.018	0.023
-261.209	46.375	0.091	-0.083
-260.195	532.482	0.063	0.146
-259.180	28.847	0.118	-0.098
-258.165	-56.175	0.122	-0.054
-257.151	4.338	0.193	-0.140
-256.136	43.769	-0.110	0.099
-255.122	-46.315	-0.333	0.162
-254.107	-137.147	0.048	0.005
-253.092	-29.363	-0.133	0.075
-252.078	204.951	-0.092	-0.141
-251.063	101.047	0.287	-0.329
-250.049	240.746	-0.182	0.300
-249.034	70.197	0.079	-0.081
-248.019	152.130	0.199	-0.267
-247.005	-117.045	0.189	0.034
-245.990	-64.565	-0.270	0.108
-244.976	-200.000	0.019	0.120
-243.961	52.004	0.100	0.094
-242.946	163.029	-0.107	0.149
-241.932	30.870	-0.348	0.294
-240.917	211.902	0.147	-0.228
-239.903	126.838	0.204	0.255
-238.888	-200.000	-0.014	0.086
-237.873	304.636	0.123	-0.224
-236.859	-200.000	-0.015	-0.380
-235.844	-112.056	-0.118	0.023
-234.830	-25.808	-0.059	-0.034
-233.815	800.000	0.082	0.237
-232.800	-79.598	-0.258	-0.086
-231.786	-81.752	0.094	0.030
-230.771	-83.221	0.070	-0.022
-229.757	800.000	-0.045	-0.166
-228.742	-200.000	-0.027	-0.270
-227.727	-136.597	-0.197	0.022
-226.713	25.986	0.189	0.155
-225.698	60.889	0.159	0.156
-224.684	65.529	-0.112	-0.112
-223.669	175.109	0.126	0.180
-222.655	293.104	0.095	0.172
-221.640	-97.050	-0.203	-0.052
-220.625	-15.326	-0.381	0.240
-219.611	-125.517	-0.112	0.017
-218.596	-200.000	-0.024	0.289
-217.582	78.536	-0.184	-0.193
-216.567	176.013	0.129	0.185
-215.552	57.230	0.052	-0.050
-214.538	-122.350	0.113	-0.018
-213.523	-95.659	-0.127	-0.033
-212.509	11.994	0.290	0.220
-211.494	457.846	-0.027	-0.058
-210.479	800.000	-0.036	0.109
-209.465	-91.744	-0.122	0.034
-208.450	-97.598	-0.018	0.004
-207.436	800.000	-0.013	-0.050
-206.421	-40.842	0.173	-0.088
-205.406	29.389	-0.039	-0.033
-204.392	-74.380	-0.209	-0.074
-203.377	800.000	0.027	0.116
-202.363	62.551	0.195	-0.192
-201.348	361.137	0.089	-0.175
-200.333	103.590	0.174	0.201
-199.319	104.472	-0.116	-0.135
-198.304	120.266	-0.179	0.218
-197.290	800.000	-0.117	-0.391
-196.275	-48.916	0.209	0.099
-195.260	800.000	-0.014	0.050
-194.246	-200.000	0.021	-0.167
-193.231	-46.001	0.203	-0.099
-192.217	-105.136	-0.208	-0.047
-191.202	391.370	0.100	0.205
-190.187	-33.120	0.188	0.103
-189.173	-200.000	0.020	-0.264
-188.158	-200.000	0.029	0.150
-187.144	-200.000	-0.028	-0.179
-186.129	-18.396	-0.223	0.137
-185.114	29.068	0.292	-0.243
-184.100	4.835	0.126	-0.091
-183.085	237.219	0.104	0.169
-182.071	-160.201	-0.200	-0.011
-181.056	-137.818	-0.135	0.015
-180.042	-159.954	-0.126	-0.007
-179.027	386.777	0.119	-0.242
-178.012	-200.000	-0.016	-0.238
-176.998	58.446	-0.130	0.126
-175.983	-74.164	-0.162	0.058
-174.969	16.110	-0.310	-0.240
-173.954	-135.578	-0.273	0.032
-172.939	441.497	-0.058	-0.126
-171.925	800.000	0.082	-0.290
-170.910	604.297	0.061	0.149
-169.896	149.571	0.190	-0.253
-168.881	549.413	-0.128	-0.301
-167.866	277.963	0.117	-0.204
-166.852	396.994	0.038	-0.078
-165.837	-143.060	-0.208	0.020
-164.823	5.108	0.092	0.067
-163.808	-71.346	-0.220	-0.081
-162.793	102.277	-0.299	0.344
-161.779	-165.666	-0.299	-0.013
-160.764	-11.108	0.226	0.147
-159.750	-133.691	0.096	0.012
-158.735	385.554	0.052	0.106
-157.720	294.516	0.072	0.130
-156.706	241.985	0.059	0.097
-155.691	-40.923	-0.239	-0.122
-154.677	272.826	0.026	-0.046
-153.662	107.032	0.046	0.053
-152.647	170.281	0.208	0.292
-151.633	-200.000	0.014	-0.104
-150.618	-200.000	-0.011	-0.293
-149.604	149.344	0.069	0.092
-148.589	800.000	-0.093	-0.304
-147.574	213.493	-0.108	-0.168
-146.560	-108.450	-0.195	-0.041
-145.545	-200.000	-0.019	0.150
-144.531	800.000	-0.062	0.175
-143.516	-67.833	-0.051	0.020
-142.502	-200.000	-0.009	-0.148
-141.487	172.020	-0.156	0.220
-140.472	161.908	0.275	0.378
-139.458	-16.467	-0.066	-0.041
-138.443	-35.507	0.183	0.098
-137.429	-183.760	0.277	0.005
-136.414	-12.337	0.053	0.034
-135.399	-102.893	0.285	-0.067
-134.385	73.311	0.029	-0.030
-133.370	-101.172	0.331	0.080
-132.356	-21.549	0.039	-0.023
-131.341	-100.961	0.370	0.089
-130.326	102.054	0.116	-0.133
-129.312	-66.649	-0.163	0.064
-128.297	-50.344	0.137	0.064
-127.283	-142.939	-0.136	0.013
-126.268	242.938	-0.188	0.309
-125.253	265.740	0.066	-0.113
-124.239	-122.090	0.221	0.036
-123.224	-8.712	-0.087	0.057
-122.210	217.444	-0.049	-0.077
-121.195	351.602	0.056	0.108
-120.180	168.082	-0.043	-0.059
-119.166	-200.000	-0.220	0.000
-118.151	189.192	-0.084	0.124
-117.137	238.745	-0.183	-0.299
-116.122	800.000	0.055	-0.175
-115.107	800.000	0.044	-0.190
-114.093	82.434	0.125	0.134
-113.078	-106.608	-0.271	-0.059
-112.064	-16.399	0.140	0.087
-111.049	211.276	0.052	0.080
-110.034	-122.583	-0.186	0.030
-109.020	11.766	-0.280	0.211
-108.005	-114.575	-0.164	-0.031
-106.991	-142.294	0.098	-0.009
-105.976	-109.540	-0.380	0.079
-104.962	800.000	-0.108	-0.305
-103.947	800.000	0.041	0.112
-102.932	-188.831	0.226	0.003
-101.918	628.288	0.118	-0.293
-100.903	-58.340	0.291	-0.124
-99.889	-40.249	0.344	0.176
-98.874	367.599	0.059	-0.118
-97.859	-29.867	-0.085	-0.047
-96.845	96.042	0.121	-0.135
-95.830	-200.000	0.040	0.175
-94.816	-72.418	-0.419	-0.152
-93.801	-200.000	0.036	0.198
-92.786	29.757	0.136	0.114
-91.772	-167.127	-0.385	0.015
-90.757	-68.481	-0.316	0.120
-89.743	800.000	-0.086	-0.269
-88.728	-200.000	0.051	0.427
-87.713	431.944	0.126	-0.267
-86.699	139.186	0.159	0.205
-85.684	-200.000	0.015	0.179
-84.670	162.643	0.264	0.364
-83.655	-200.000	0.078	-0.415
-82.640	800.000	0.051	-0.198
-81.626	-16.790	-0.032	0.020
-80.611	355.414	-0.132	0.258
-79.597	800.000	-0.047	0.181
-78.582	-44.988	0.259	-0.127
-77.567	4.393	0.124	0.089
-76.553	33.712	-0.104	-0.089
-75.538	-200.000	-0.002	-0.304
-74.524	-141.670	0.127	0.012
-73.509	-200.000	0.000	0.169
-72.494	-200.000	0.013	-0.162
-71.480	800.000	-0.037	-0.121
-70.465	-200.000	0.024	0.111
-69.451	-200.000	-0.046	-0.243
-68.436	-98.063	-0.157	0.039
-67.422	35.690	0.074	-0.064
-66.407	-163.216	-0.031	-0.001
-65.392	34.877	0.090	-0.077
-64.378	-23.010	0.239	0.141
-63.363	363.099	0.174	0.343
-62.349	-8.283	0.175	0.115
-61.334	52.269	-0.970	-0.906
-60.319	46.206	0.438	0.397
-59.305	783.858	-0.420	-1.126
-58.290	242.894	0.777	1.274
-57.276	800.000	0.650	1.865
-56.261	-200.000	109.062	619.383
-55.246	521.061	1497.721	3440.304
-54.232	178.003	2691.177	3843.788
-53.217	105.725	2282.140	2642.507
-52.203	38.814	1895.695	1657.392
-51.188	32.976	1685.578	1429.599
-50.173	30.333	1642.441	1373.432
-49.159	49.409	1697.912	1563.907
-48.144	49.605	1713.439	1579.621
-47.130	32.388	1669.946	1411.706
-46.115	29.741	1655.396	1379.628
-45.100	29.576	1650.583	1374.335
-44.086	29.539	1648.093	1371.936
-43.071	29.491	1645.516	1369.378
-42.057	29.487	1642.917	1367.134
-41.042	29.613	1640.484	1365.988
-40.027	29.561	1639.207	1364.487
-39.013	29.689	1636.617	1363.219
-37.998	29.457	1635.565	1360.580
-36.984	29.639	1634.163	1360.699
-35.969	29.673	1632.755	1359.724
-34.954	29.613	1631.274	1357.993
-33.940	29.687	1629.496	1357.000
-32.925	29.672	1627.638	1355.290
-31.911	29.670	1626.076	1353.920
-30.896	29.621	1624.067	1351.840
-29.881	29.639	1622.871	1350.918
-28.867	29.692	1621.147	1349.815
-27.852	29.733	1619.719	1348.871
-26.838	29.653	1617.881	1346.707
-25.823	29.683	1616.731	1345.914
-24.809	29.782	1614.951	1345.096
-23.794	29.741	1614.098	1344.041
-22.779	29.764	1612.190	1342.564
-21.765	29.631	1611.188	1340.712
-20.750	29.640	1609.764	1339.539
-19.736	29.693	1607.634	1338.093
-18.721	29.718	1606.393	1337.188
-17.706	29.725	1605.095	1336.107
-16.692	29.634	1604.319	1334.753
-15.677	29.785	1601.825	1333.713
-14.663	29.751	1600.804	1332.565
-13.648	29.751	1599.710	1331.602
-12.633	29.721	1597.701	1329.661
-11.619	29.770	1595.862	1328.429
-10.604	29.718	1594.379	1326.767
-9.590	29.744	1593.629	1326.276
-8.575	29.753	1592.441	1325.303
-7.560	29.806	1590.784	1324.252
-6.546	29.703	1590.161	1322.943
-5.531	29.657	1589.249	1321.799
-4.517	29.748	1587.654	1321.069
-3.502	29.709	1586.791	1320.025
-2.487	29.808	1585.046	1319.222
-1.473	29.338	1572.860	1305.706
-0.458	26.152	1552.979	1266.830
0.556	23.384	1553.085	1231.234
1.571	20.815	1575.823	1231.016
2.586	20.238	1588.264	1236.513
3.600	17.736	1533.765	1176.731
4.615	10.455	1427.014	1047.826
5.629	4.375	1366.959	965.894
6.644	3.358	1359.137	953.988
7.659	3.280	1358.120	952.709
8.673	3.364	1356.952	952.326
9.688	3.428	1355.094	951.329
10.702	3.446	1352.421	949.481
11.717	6.166	1356.909	969.337
12.731	13.758	1371.331	1026.699
13.746	19.895	1381.036	1072.008
14.761	21.008	1381.926	1079.497
15.775	20.156	1379.897	1072.551
16.790	19.282	1377.376	1065.097
17.804	18.497	1374.823	1058.183
18.819	18.060	1373.869	1054.657
19.834	18.006	1372.616	1053.271
20.848	17.883	1371.448	1051.524
21.863	17.588	1370.510	1048.897
22.877	17.546	1369.499	1047.771
23.892	17.353	1368.777	1045.937
24.907	17.457	1368.190	1046.034
25.921	17.527	1366.415	1045.013
26.936	17.442	1365.837	1043.962
27.950	17.571	1364.785	1043.852
28.965	17.659	1363.206	1043.096
29.980	17.762	1362.537	1043.120
30.994	17.805	1361.545	1042.532
32.009	17.823	1360.410	1041.680
33.023	17.861	1359.352	1041.006
34.038	17.698	1358.210	1039.050
35.053	17.668	1356.771	1037.672
36.067	17.627	1355.869	1036.641
37.082	17.706	1354.797	1036.209
38.096	17.785	1353.438	1035.560
39.111	17.795	1353.136	1035.298
40.126	17.615	1352.407	1033.555
41.140	17.417	1350.903	1031.113
42.155	17.199	1350.480	1029.379
43.169	17.264	1349.973	1029.293
44.184	17.309	1349.461	1029.089
45.199	17.326	1349.140	1028.852
46.213	17.477	1348.834	1029.445
47.228	17.624	1348.107	1029.682
48.242	17.704	1346.725	1029.024
49.257	17.685	1345.155	1027.616
50.271	17.458	1344.438	1025.611
51.286	17.588	1342.873	1025.108
52.301	17.523	1341.955	1023.925
53.315	17.424	1340.647	1022.243
54.330	17.371	1339.279	1020.789
55.344	17.364	1337.549	1019.337
56.359	17.352	1336.768	1018.580
57.374	17.350	1336.123	1017.987
58.388	17.307	1335.040	1016.815
59.403	17.093	1335.088	1015.481
60.417	17.206	1333.988	1015.234
61.432	17.083	1333.205	1013.811
62.447	17.054	1332.368	1012.915
63.461	17.038	1331.229	1011.861
64.476	17.023	1329.777	1010.581
65.490	17.057	1329.031	1010.122
66.505	16.992	1326.995	1008.104
67.520	17.095	1325.823	1007.732
68.534	17.111	1325.144	1007.224
69.549	17.234	1323.756	1006.807
70.563	17.007	1322.972	1004.777
71.578	16.859	1322.010	1003.083
72.593	16.865	1320.861	1002.156
73.607	16.820	1320.449	1001.493
74.622	16.825	1319.305	1000.563
75.636	17.070	1318.094	1001.000
76.651	17.040	1317.908	1000.595
77.666	16.961	1318.023	1000.130
78.680	17.065	1317.421	1000.196
79.695	17.116	1316.615	999.796
80.709	17.283	1316.117	1000.311
81.724	17.234	1315.257	999.283
82.739	17.357	1314.214	999.121
83.753	17.485	1313.553	999.282
84.768	17.558	1313.084	999.267
85.782	17.640	1312.098	998.907
86.797	17.719	1310.481	998.054
87.812	17.608	1309.172	996.320
88.826	17.562	1308.234	995.250
89.841	17.567	1307.700	994.779
90.855	17.723	1306.305	994.544
91.870	17.761	1305.432	994.010
92.884	17.777	1304.853	993.574
93.899	17.742	1303.924	992.578
94.914	17.910	1302.985	992.751
95.928	17.782	1302.546	991.584
96.943	17.770	1301.357	990.521
97.957	17.724	1300.368	989.417
98.972	17.682	1299.145	988.150
99.987	17.686	1298.573	987.655
101.001	17.749	1297.468	987.088
102.016	17.671	1296.447	985.774
103.030	17.705	1295.827	985.415
104.045	17.659	1294.570	984.105
105.060	17.414	1293.544	981.825
106.074	17.332	1291.985	980.080
107.089	17.145	1290.637	977.897
108.103	17.139	1288.777	976.367
109.118	17.091	1287.884	975.325
110.133	17.195	1286.145	974.521
111.147	17.185	1285.028	973.532
112.162	17.225	1283.725	972.684
113.176	17.255	1282.812	972.080
114.191	17.219	1282.252	971.365
115.206	17.296	1280.286	970.228
116.220	17.183	1279.862	969.173
117.235	17.210	1278.322	968.078
118.249	17.273	1277.376	967.633
119.264	17.169	1275.706	965.692
120.279	17.197	1274.653	964.970
121.293	17.035	1273.928	963.415
122.308	17.045	1272.583	962.372
123.322	16.933	1271.810	961.066
124.337	16.918	1271.295	960.506
125.352	16.934	1269.851	959.421
126.366	16.905	1268.703	958.305
127.381	17.032	1267.719	958.196
128.395	16.945	1267.045	957.106
129.410	16.993	1265.920	956.444
130.424	17.095	1265.238	956.421
131.439	17.189	1264.019	955.942
132.454	17.272	1263.119	955.641
133.468	17.321	1262.460	955.338
134.483	17.204	1262.164	954.370
135.497	17.171	1261.507	953.601
136.512	17.279	1260.103	953.062
137.527	17.468	1258.413	952.760
138.541	17.402	1256.910	951.168
139.556	17.405	1255.819	950.276
140.570	17.392	1255.508	949.883
141.585	17.557	1254.048	949.615
142.600	17.667	1252.469	948.945
143.614	17.699	1252.301	948.916
144.629	17.743	1251.419	948.406
145.643	17.783	1250.285	947.685
146.658	17.551	1248.907	945.268
147.673	17.464	1247.502	943.638
148.687	17.437	1246.107	942.350
149.702	17.293	1244.805	940.487
150.716	17.251	1243.604	939.264
151.731	17.343	1242.341	938.738
152.746	17.467	1241.257	938.517
153.760	17.410	1240.103	937.247
154.775	17.537	1239.053	937.069
155.789	17.645	1237.996	936.780
156.804	17.667	1237.387	936.360
157.819	17.630	1236.465	935.375
158.833	17.663	1235.374	934.646
159.848	17.905	1234.499	935.229
160.862	17.795	1233.287	933.628
161.877	17.592	1232.179	931.597
162.892	17.423	1231.323	929.943
163.906	17.296	1230.678	928.681
164.921	17.423	1229.373	928.303
165.935	17.386	1228.533	927.387
166.950	17.544	1227.816	927.621
167.964	17.554	1227.518	927.371
168.979	17.435	1226.359	925.766
169.994	17.530	1225.763	925.753
171.008	17.560	1224.813	925.114
172.023	17.542	1224.415	924.635
173.037	17.788	1223.887	925.486
174.052	17.710	1222.959	924.283
175.067	17.594	1221.375	922.378
176.081	17.422	1220.541	920.735
177.096	17.387	1219.789	919.894
178.110	17.504	1218.934	919.801
179.125	17.599	1217.395	919.068
180.140	17.572	1216.487	918.157
181.154	17.654	1214.958	917.365
182.169	17.759	1214.003	917.130
183.183	17.817	1213.013	916.611
184.198	17.868	1212.075	916.093
185.213	17.786	1210.617	914.469
186.227	17.954	1209.607	914.528
187.242	17.853	1209.107	913.528
188.256	17.876	1208.405	913.039
189.271	17.990	1207.566	912.934
190.286	17.775	1206.017	910.536
191.300	17.466	1204.750	907.850
192.315	17.338	1203.963	906.491
193.329	17.532	1203.251	906.910
194.344	17.403	1202.904	905.883
195.359	17.636	1202.687	906.877
196.373	17.717	1201.875	906.618
197.388	17.809	1201.545	906.776
198.402	17.995	1201.097	907.348
199.417	18.122	1200.635	907.593
200.432	18.241	1200.178	907.796
201.446	18.310	1198.868	907.090
202.461	18.281	1198.242	906.385
203.475	18.322	1197.195	905.728
204.490	18.163	1195.836	903.779
205.504	17.988	1194.444	901.723
206.519	18.002	1193.201	900.780
207.534	18.028	1191.987	899.922
208.548	17.997	1191.327	899.179
209.563	18.015	1190.544	898.605
210.577	17.949	1189.373	897.292
211.592	18.150	1188.561	897.657
212.607	18.185	1188.552	897.752
213.621	18.215	1187.330	896.910
214.636	18.165	1186.060	895.611
215.650	18.168	1185.551	895.162
216.665	18.287	1184.540	894.943
217.680	18.357	1183.831	894.690
218.694	18.460	1182.910	894.455
219.709	18.454	1182.110	893.736
220.723	18.356	1181.577	892.745
221.738	18.276	1180.665	891.563
222.753	18.394	1179.237	891.015
223.767	18.369	1179.217	890.791
224.782	18.413	1178.969	890.758
225.796	18.592	1178.086	890.939
226.811	18.587	1177.523	890.411
227.826	18.537	1176.538	889.325
228.840	18.439	1176.104	888.412
229.855	18.252	1175.278	886.742
230.869	18.434	1174.303	886.867
231.884	18.305	1173.864	885.791
232.899	18.239	1172.631	884.439
233.913	18.115	1171.990	883.237
234.928	18.135	1170.915	882.456
235.942	18.189	1170.397	882.262
236.957	18.254	1169.363	881.742
237.972	18.060	1168.759	880.206
238.986	18.073	1168.562	880.047
240.001	18.170	1167.558	879.713
241.015	18.239	1166.820	879.433
242.030	18.367	1165.920	879.336
243.045	18.309	1165.627	878.740
244.059	18.302	1165.055	878.194
245.074	18.359	1164.003	877.615
246.088	18.396	1163.006	876.978
247.103	18.629	1162.544	877.740
248.117	18.684	1162.083	877.597
249.132	18.874	1161.125	877.766
250.147	19.013	1160.687	878.067
251.161	19.086	1160.144	877.951
252.176	19.046	1159.514	877.193
253.190	19.120	1159.086	877.167
254.205	19.310	1158.122	877.328
255.220	19.279	1157.778	876.835
256.234	19.219	1157.035	875.890
257.249	19.265	1155.897	875.185
258.263	19.175	1155.821	874.590
259.278	19.239	1154.795	874.060
260.293	19.193	1154.589	873.595
261.307	19.210	1154.230	873.334
262.322	19.381	1152.760	873.006
263.336	19.317	1152.571	872.462
264.351	19.252	1152.223	871.797
265.366	19.303	1151.295	871.276
266.380	19.350	1150.659	870.952
267.395	19.395	1149.536	870.251
268.409	19.194	1148.850	868.644
269.424	19.114	1148.401	867.822
270.439	19.236	1147.528	867.699
271.453	19.163	1146.953	866.823
272.468	18.956	1146.140	865.088
273.482	19.037	1145.310	864.795
274.497	19.136	1144.384	864.513
275.512	19.019	1143.920	863.501
276.526	19.100	1143.290	863.353
277.541	19.141	1142.362	862.783
278.555	19.143	1141.975	862.426
279.570	19.336	1141.376	862.861
280.585	19.476	1140.319	862.688
281.599	19.347	1138.988	860.959
282.614	19.269	1138.513	860.136
283.628	19.202	1137.594	859.028
284.643	19.239	1136.202	858.085
285.657	19.302	1135.337	857.673
286.672	19.317	1134.317	856.900
287.687	19.258	1133.918	856.231
288.701	19.283	1133.046	855.618
289.716	19.383	1131.871	855.152
290.730	19.395	1131.194	854.624
291.745	19.374	1130.973	854.276
292.760	19.363	1130.330	853.663
293.774	19.431	1129.728	853.470
294.789	19.520	1129.349	853.547
295.803	19.537	1128.736	853.090
296.818	19.413	1127.952	851.813
297.833	19.434	1126.892	851.038
298.847	19.439	1126.476	850.674
299.862	19.479	1125.425	850.000
300.876	19.313	1125.077	848.845
301.891	19.524	1124.574	849.432
302.906	19.571	1123.736	848.955
303.920	19.766	1123.161	849.401
304.935	19.739	1122.466	848.667
305.949	19.950	1122.012	849.283
306.964	19.827	1121.260	848.037
307.979	19.672	1120.782	846.841
308.993	19.753	1119.695	846.342
310.008	19.770	1118.981	845.811
311.022	19.889	1118.365	845.853
312.037	19.801	1117.110	844.400
313.052	19.705	1116.179	843.152
314.066	19.537	1115.318	841.608
315.081	19.477	1114.802	840.853
316.095	19.415	1113.684	839.635
317.110	19.462	1112.895	839.193
318.125	19.573	1111.939	838.938
319.139	19.526	1111.373	838.208
320.154	19.504	1110.707	837.524
321.168	19.504	1110.130	837.013
322.183	19.618	1109.724	837.186
323.197	19.487	1109.494	836.301
324.212	19.521	1108.884	835.934
325.227	19.535	1108.179	835.396
326.241	19.695	1107.618	835.673
327.256	19.611	1106.851	834.617
328.270	19.450	1105.880	833.034
329.285	19.504	1104.814	832.418
330.300	19.618	1103.736	832.077
331.314	19.522	1103.039	831.017
332.329	19.575	1101.889	830.334
333.343	19.592	1101.406	829.979
334.358	19.802	1100.279	830.061
335.373	19.833	1099.979	829.910
336.387	19.833	1099.474	829.456
337.402	19.953	1098.297	829.069
338.416	19.910	1097.849	828.454
339.431	19.960	1097.318	828.219
340.446	20.197	1096.359	828.552
341.460	20.243	1096.128	828.528
342.475	20.232	1095.322	827.791
343.489	20.337	1094.245	827.405
344.504	20.311	1093.594	826.713
345.519	20.341	1093.201	826.488
346.533	20.408	1091.956	825.790
347.548	20.506	1091.144	825.568
348.562	20.348	1090.769	824.463
349.577	20.313	1089.441	823.218
350.592	20.058	1088.723	821.394
351.606	19.990	1087.780	820.288
352.621	19.960	1086.978	819.470
353.635	19.904	1086.261	818.591
354.650	20.052	1085.433	818.596
355.665	20.100	1085.127	818.519
356.679	20.108	1084.447	817.971
357.694	20.208	1084.027	818.054
358.708	20.178	1083.694	817.587
359.723	20.303	1082.815	817.442
360.738	20.321	1082.362	817.112
361.752	20.198	1082.149	816.298
362.767	20.306	1080.892	815.786
363.781	20.306	1080.447	815.381
364.796	20.424	1080.150	815.639
365.810	20.436	1079.678	815.267
366.825	20.608	1078.711	815.269
367.840	20.757	1078.318	815.599
368.854	20.765	1078.009	815.331
369.869	20.621	1077.517	814.212
370.883	20.685	1076.166	813.418
371.898	20.448	1075.868	812.011
372.913	20.393	1075.447	811.368
373.927	20.559	1074.631	811.455
374.942	20.760	1073.798	811.691
375.956	20.761	1073.149	811.134
376.971	20.675	1072.718	810.333
377.986	20.700	1072.100	809.913
379.000	20.744	1072.124	810.064
380.015	20.838	1071.578	810.014
381.029	20.895	1070.322	809.260
382.044	20.827	1069.704	808.407
383.059	20.887	1069.069	808.134
384.073	20.836	1068.276	807.228
385.088	21.014	1067.337	807.268
386.102	20.984	1066.184	806.187
387.117	20.819	1065.206	804.611
388.132	20.698	1064.391	803.366
389.146	20.666	1063.368	802.377
390.161	20.612	1062.853	801.669
391.175	20.623	1062.248	801.192
392.190	20.745	1061.822	801.362
393.205	20.911	1061.297	801.657
394.219	20.973	1060.419	801.208
395.234	20.899	1059.094	799.795
396.248	20.719	1058.604	798.532
397.263	20.806	1056.944	797.604
398.278	20.601	1056.237	796.063
399.292	20.566	1055.834	795.527
400.307	20.582	1054.415	794.461
401.321	20.483	1054.526	794.025
402.336	20.578	1053.846	793.873
403.350	20.728	1052.391	793.392
404.365	20.682	1052.363	793.091
405.380	20.709	1051.918	792.810
406.394	20.802	1051.067	792.521
407.409	20.985	1050.141	792.583
408.423	21.197	1049.569	793.048
409.438	21.134	1049.007	792.266
410.453	21.125	1048.464	791.743
411.467	21.084	1047.825	791.005
412.482	21.161	1047.194	790.809
413.496	21.350	1046.334	790.942
414.511	21.216	1045.937	789.969
415.526	21.450	1045.510	790.634
416.540	21.467	1045.003	790.257
417.555	21.519	1044.648	790.152
418.569	21.380	1044.115	789.054
419.584	21.356	1043.342	788.290
420.599	21.168	1043.352	787.378
421.613	155.814	1402.942	1797.169
422.628	142.693	1455.305	1797.265
