DTS Sentinel unit serial number:	SN413079Multiplexer serial number:	ORYXHardware model number:	OX4-SRSoftware version number:	ORYX F/W v4.00 Oryx Data Collector v3.7.2.0data status	okinstallation	princeton_trtdifferential loss correction	single-endedforward channel	channel 2reverse channel	N/Adate	2019/09/12time	18:26:49forward acquisition time	15.00reverse acquisition time	0.00gamma	496.2192k internal	0.2323k external	0.2323temperature offset calibration	1.0125default loss term (dB/km)	0.3790temperature slope calibration	1.0000multiplexer offset coefficient	1.0000multiplexer slope coefficient	1.0000fibre end	0.00T internal ref (°C)	33.31T ext. ref 1 (°C)	2.98T ext. ref 2 (°C)	27.90length (m)	temperature (°C)	Stokes	anti-Stokes-747.200	-89.940	0.576	0.170
-746.185	192.826	0.155	0.236
-745.171	384.755	0.033	0.069
-744.156	-200.000	0.027	0.342
-743.142	104.725	-0.317	-0.377
-742.127	626.129	0.027	0.070
-741.112	800.000	-0.140	-0.571
-740.098	-141.344	-0.574	0.059
-739.083	242.848	0.377	0.637
-738.069	-161.407	-1.161	0.061
-737.054	560.663	0.175	-0.427
-736.039	800.000	0.314	-1.351
-735.025	-96.601	0.469	0.125
-734.010	86.103	-0.959	-1.066
-732.996	-200.000	0.012	0.395
-731.981	800.000	0.129	-0.548
-730.966	800.000	0.264	-0.756
-729.952	-144.295	-0.502	0.047
-728.937	120.200	-0.176	0.220
-727.923	-200.000	-0.063	0.968
-726.908	-15.515	0.287	-0.185
-725.894	-25.976	-0.859	-0.510
-724.879	-69.774	0.095	-0.037
-723.864	789.380	0.277	0.769
-722.850	-2.345	0.644	-0.456
-721.835	212.101	-0.315	0.501
-720.821	-200.000	-0.034	0.246
-719.806	666.223	-0.117	-0.305
-718.791	-20.427	0.646	0.401
-717.777	150.300	-0.384	0.526
-716.762	115.697	-0.231	-0.284
-715.748	195.824	0.111	0.170
-714.733	-200.000	-0.065	0.321
-713.718	-179.127	0.459	-0.010
-712.704	-1.506	-0.145	-0.103
-711.689	604.191	-0.159	-0.400
-710.675	36.382	-0.321	0.285
-709.660	-200.000	0.053	-0.543
-708.645	231.345	0.393	-0.649
-707.631	-91.574	0.373	-0.107
-706.616	128.359	-0.076	0.097
-705.602	80.874	0.675	0.734
-704.587	-12.632	0.665	0.437
-703.572	-65.021	-0.227	-0.092
-702.558	-139.131	-0.771	0.084
-701.543	-75.240	0.444	-0.160
-700.529	-31.637	0.382	0.216
-699.514	-110.655	-0.278	0.058
-698.499	109.952	-0.481	-0.582
-697.485	267.904	-0.287	-0.506
-696.470	-156.040	0.094	-0.006
-695.456	800.000	0.283	0.936
-694.441	164.682	0.194	0.275
-693.426	267.509	0.249	-0.439
-692.412	219.282	0.212	-0.343
-691.397	525.986	-0.206	0.489
-690.383	120.017	0.265	-0.331
-689.368	121.886	0.092	-0.116
-688.354	445.398	0.203	-0.450
-687.339	228.499	-0.434	-0.713
-686.324	364.733	0.069	0.141
-685.310	97.255	0.238	-0.275
-684.295	313.127	-0.318	0.602
-683.281	800.000	0.386	1.162
-682.266	800.000	0.112	0.338
-681.251	-47.909	0.146	0.071
-680.237	360.487	0.062	0.125
-679.222	-200.000	-0.054	-0.620
-678.208	161.723	0.342	-0.483
-677.193	-74.046	-0.705	0.257
-676.178	140.149	-0.212	0.281
-675.164	-134.708	0.109	0.013
-674.149	-33.256	0.295	-0.164
-673.135	-45.923	0.118	-0.059
-672.120	-200.000	0.149	-0.777
-671.105	127.309	-0.444	0.567
-670.091	-200.000	0.135	-0.656
-669.076	-169.649	-0.820	0.030
-668.062	305.708	-0.208	-0.389
-667.047	6.349	-0.443	-0.331
-666.032	-200.000	-0.060	-0.570
-665.018	-182.851	0.270	0.005
-664.003	-115.341	-0.256	-0.049
-662.989	-200.000	-0.069	-0.758
-661.974	-3.698	-0.583	-0.408
-660.959	-109.830	-0.754	-0.159
-659.945	-200.000	0.284	1.392
-658.930	165.337	-0.194	0.276
-657.916	-200.000	0.089	-0.489
-656.901	1.191	0.230	0.166
-655.886	800.000	0.103	0.296
-654.872	-93.673	-0.305	-0.085
-653.857	-137.355	0.249	-0.028
-652.843	-83.403	-0.142	0.046
-651.828	-161.517	0.753	0.039
-650.814	206.735	0.534	-0.837
-649.799	78.742	0.059	0.063
-648.784	135.595	-0.525	-0.688
-647.770	-26.637	0.721	0.424
-646.755	-200.000	0.128	-0.822
-645.741	106.340	-0.258	-0.308
-644.726	228.012	-0.272	0.445
-643.711	132.531	0.388	-0.504
-642.697	-68.617	-0.657	0.256
-641.682	-156.247	0.238	0.015
-640.668	-75.587	0.547	0.196
-639.653	-50.101	-0.205	-0.098
-638.638	800.000	0.092	-0.331
-637.624	-200.000	-0.012	-0.843
-636.609	-147.008	-0.074	-0.006
-635.595	133.167	-0.293	0.381
-634.580	658.002	0.243	0.628
-633.565	32.351	-0.212	-0.184
-632.551	-200.000	0.159	-1.170
-631.536	-200.000	-0.022	0.407
-630.522	64.025	-0.239	-0.242
-629.507	-195.871	0.604	-0.004
-628.492	-56.183	-0.058	0.026
-627.478	-200.000	-0.025	0.215
-626.463	-200.000	-0.070	0.689
-625.449	800.000	-0.177	-0.644
-624.434	98.582	-0.509	0.590
-623.419	94.536	-0.249	-0.284
-622.405	680.893	0.161	-0.422
-621.390	-43.525	-0.616	-0.313
-620.376	-200.000	-0.046	0.562
-619.361	-200.000	0.141	-0.995
-618.346	148.240	0.212	0.288
-617.332	-132.345	-0.432	-0.056
-616.317	425.799	-0.067	-0.144
-615.303	-32.287	0.910	0.511
-614.288	-64.932	0.560	-0.227
-613.273	-124.584	0.346	-0.054
-612.259	-86.285	-0.799	0.247
-611.244	143.387	-0.257	-0.344
-610.230	-101.159	-0.313	0.077
-609.215	291.890	0.090	-0.165
-608.201	77.896	0.456	-0.488
-607.186	550.425	0.336	-0.809
-606.171	-35.048	-0.659	-0.361
-605.157	301.028	-0.191	-0.354
-604.142	-25.734	0.131	0.078
-603.128	448.741	0.154	-0.341
-602.113	-109.564	1.080	-0.229
-601.098	-12.708	-0.661	-0.433
-600.084	-40.050	0.150	0.079
-599.069	711.233	-0.103	0.274
-598.055	45.067	0.118	0.109
-597.040	-98.282	0.251	-0.065
-596.025	-200.000	-0.038	0.266
-595.011	-139.384	-0.597	0.064
-593.996	-40.605	-0.578	-0.301
-592.982	291.241	0.233	0.425
-591.967	154.196	0.400	0.551
-590.952	800.000	-0.351	1.042
-589.938	360.662	0.139	-0.280
-588.923	-54.105	0.558	0.255
-587.909	-29.926	0.374	0.214
-586.894	-69.204	-0.322	-0.124
-585.879	30.355	0.116	0.099
-584.865	-200.000	0.031	-0.272
-583.850	-145.284	-0.892	-0.081
-582.836	-200.000	-0.001	0.777
-581.821	223.900	-0.453	-0.734
-580.806	-200.000	0.030	0.401
-579.792	444.366	0.267	0.588
-578.777	-36.743	-0.784	-0.422
-577.763	-200.000	0.040	0.312
-576.748	730.455	-0.122	-0.328
-575.733	-139.279	-0.887	-0.096
-574.719	38.191	0.261	0.233
-573.704	800.000	0.191	-0.555
-572.690	-43.951	0.147	0.074
-571.675	117.847	0.242	-0.299
-570.661	-200.000	-0.034	0.654
-569.646	128.614	-0.247	0.316
-568.631	-144.032	0.091	-0.009
-567.617	155.495	-0.099	0.137
-566.602	79.414	0.192	-0.206
-565.588	-200.000	0.096	1.342
-564.573	102.961	-0.347	-0.408
-563.558	-83.048	-0.438	0.141
-562.544	-2.700	-0.201	0.141
-561.529	-11.104	0.324	0.214
-560.515	-56.274	0.189	0.084
-559.500	-187.806	-0.688	-0.009
-558.485	140.708	0.150	-0.199
-557.471	800.000	-0.085	-0.313
-556.456	23.413	-0.201	-0.166
-555.442	-200.000	0.108	0.809
-554.427	292.189	-0.065	-0.119
-553.412	47.626	0.569	0.532
-552.398	-70.728	-0.224	-0.085
-551.383	450.700	-0.437	0.968
-550.369	-117.977	-0.109	-0.019
-549.354	-200.000	-0.019	-0.119
-548.339	-116.320	-1.254	-0.233
-547.325	169.103	0.558	-0.798
-546.310	-134.134	-0.103	-0.013
-545.296	-39.935	0.799	-0.418
-544.281	-18.444	0.331	0.207
-543.266	-115.009	-0.215	0.041
-542.252	5.517	-0.331	0.245
-541.237	38.212	-0.547	0.487
-540.223	269.102	0.331	0.582
-539.208	-33.306	0.313	0.174
-538.193	-136.980	0.868	0.100
-537.179	293.493	0.439	0.803
-536.164	-110.819	0.512	-0.106
-535.150	800.000	0.180	0.786
-534.135	-160.317	-0.280	-0.015
-533.121	361.693	0.295	-0.592
-532.106	-9.454	0.509	-0.340
-531.091	-200.000	-0.061	-0.344
-530.077	12.903	0.583	0.452
-529.062	-27.626	0.487	-0.283
-528.048	-59.579	0.406	-0.174
-527.033	-46.680	0.783	-0.384
-526.018	89.839	-0.235	-0.262
-525.004	146.471	0.137	-0.185
-523.989	-89.507	-0.983	-0.289
-522.975	256.079	-0.339	-0.582
-521.960	46.505	0.956	0.888
-520.945	180.233	0.305	-0.447
-519.931	-85.857	-0.499	-0.155
-518.916	-4.088	-0.264	0.183
-517.902	156.352	0.084	0.115
-516.887	-119.804	0.506	-0.087
-515.872	373.186	0.288	-0.585
-514.858	37.718	0.760	0.676
-513.843	-178.959	0.542	0.012
-512.829	-200.000	-0.020	-0.292
-511.814	-200.000	-0.029	-0.658
-510.799	800.000	0.187	0.738
-509.785	-108.115	0.289	-0.063
-508.770	-200.000	-0.117	0.649
-507.756	461.182	0.146	0.326
-506.741	42.354	-0.466	-0.424
-505.726	800.000	-0.128	-0.433
-504.712	153.003	-0.285	0.389
-503.697	-86.193	-0.747	0.230
-502.683	800.000	-0.196	-0.707
-501.668	-63.841	-0.228	0.094
-500.653	1.846	-0.245	0.177
-499.639	-200.000	0.049	0.582
-498.624	-200.000	0.026	-0.141
-497.610	52.955	0.445	0.426
-496.595	636.101	0.025	0.064
-495.581	392.162	-0.214	-0.445
-494.566	-25.420	0.304	0.180
-493.551	-200.000	-0.062	0.742
-492.537	-58.003	0.275	-0.120
-491.522	-200.000	0.032	0.185
-490.508	404.158	0.153	-0.321
-489.493	-63.048	-0.504	-0.208
-488.478	800.000	0.290	-0.880
-487.464	-65.454	-0.743	-0.298
-486.449	-104.137	-0.569	0.132
-485.435	-173.378	-0.302	0.009
-484.420	0.390	-0.128	0.092
-483.405	-200.000	0.058	0.253
-482.391	16.584	-0.450	0.356
-481.376	118.266	0.198	0.244
-480.362	55.337	-0.316	-0.305
-479.347	-47.146	-0.133	-0.065
-478.332	183.580	0.258	0.382
-477.318	-133.771	0.724	-0.090
-476.303	270.835	-0.324	0.570
-475.289	-43.712	0.608	0.306
-474.274	-112.911	-0.805	-0.159
-473.259	-42.878	-0.570	0.289
-472.245	800.000	-0.110	0.358
-471.230	-34.287	-0.478	-0.262
-470.216	-200.000	-0.104	-0.954
-469.201	406.048	0.247	0.520
-468.186	-61.981	-0.211	0.088
-467.172	-105.409	-0.345	0.078
-466.157	-74.671	0.630	0.226
-465.143	23.669	-0.313	0.257
-464.128	167.422	-0.192	0.272
-463.113	-12.840	0.315	-0.205
-462.099	-200.000	0.126	0.959
-461.084	-39.345	-0.506	0.265
-460.070	-8.662	0.226	-0.151
-459.055	-168.119	0.714	0.028
-458.040	-143.820	0.491	0.046
-457.026	235.821	0.018	0.030
-456.011	-145.690	0.573	0.051
-454.997	-145.572	-0.391	-0.035
-453.982	208.942	0.442	0.691
-452.968	-95.045	0.433	-0.117
-451.953	68.118	-0.334	-0.342
-450.938	602.550	0.320	-0.795
-449.924	181.546	-0.400	-0.587
-448.909	-200.000	-0.026	-0.186
-447.895	138.439	-0.125	0.164
-446.880	-200.000	0.021	0.360
-445.865	-200.000	-0.114	-0.823
-444.851	168.612	0.485	0.689
-443.836	-45.097	-0.504	-0.250
-442.822	-200.000	-0.057	-0.566
-441.807	422.972	-0.433	-0.928
-440.792	-142.564	0.982	0.096
-439.778	-135.492	-0.667	0.079
-438.763	-94.816	0.556	0.151
-437.749	-111.452	-0.410	0.083
-436.734	-200.000	0.033	-0.621
-435.719	-200.000	-0.011	0.136
-434.705	-155.713	0.410	0.026
-433.690	-164.168	0.941	-0.043
-432.676	-200.000	0.035	0.412
-431.661	800.000	-0.074	0.209
-430.646	-12.960	-0.390	-0.253
-429.632	140.351	0.307	-0.405
-428.617	-200.000	0.058	0.939
-427.603	-129.427	-0.330	-0.046
-426.588	800.000	-0.095	-0.384
-425.573	734.714	0.314	0.839
-424.559	421.164	0.273	0.585
-423.544	488.519	-0.262	0.597
-422.530	65.598	0.312	0.315
-421.515	800.000	0.093	-0.289
-420.500	-48.697	-0.382	0.183
-419.486	132.728	-0.387	-0.498
-418.471	34.996	-0.351	-0.307
-417.457	399.586	0.017	0.036
-416.442	-4.356	0.237	0.163
-415.428	-62.713	0.486	0.201
-414.413	106.302	-0.207	0.245
-413.398	800.000	0.036	0.107
-412.384	-200.000	0.050	0.484
-411.369	476.891	-0.386	-0.869
-410.355	641.004	-0.173	-0.440
-409.340	355.181	-0.048	0.095
-408.325	800.000	-0.275	0.981
-407.311	221.660	-0.212	-0.340
-406.296	-200.000	-0.087	-0.852
-405.282	800.000	-0.186	0.653
-404.267	-119.424	0.225	-0.039
-403.252	-200.000	0.139	0.701
-402.238	356.688	-0.210	-0.418
-401.223	19.355	0.650	-0.521
-400.209	-153.791	0.188	0.013
-399.194	-42.584	-0.270	0.137
-398.179	-107.619	0.757	-0.165
-397.165	800.000	-0.161	0.475
-396.150	-93.206	0.565	-0.156
-395.136	89.176	-0.248	-0.275
-394.121	28.188	-0.660	0.555
-393.106	-154.198	0.929	-0.063
-392.092	-25.343	-0.104	0.061
-391.077	358.860	-0.388	0.771
-390.063	800.000	0.206	0.665
-389.048	-200.000	-0.024	-0.000
-388.033	344.499	0.206	0.403
-387.019	207.005	-0.264	-0.410
-386.004	-200.000	-0.016	0.277
-384.990	-54.014	0.465	0.211
-383.975	-172.316	-0.913	-0.029
-382.960	-17.932	0.176	-0.110
-381.946	143.320	0.569	-0.754
-380.931	-90.376	-0.187	0.054
-379.917	-105.504	-0.219	0.050
-378.902	-66.726	-0.345	0.136
-377.888	800.000	-0.352	-1.137
-376.873	-132.006	0.121	-0.016
-375.858	444.984	0.133	0.291
-374.844	-87.605	0.495	-0.149
-373.829	800.000	0.021	-0.057
-372.815	278.487	-0.045	-0.079
-371.800	101.400	0.398	-0.461
-370.785	-200.000	0.081	-0.661
-369.771	-200.000	0.045	0.372
-368.756	-89.049	0.808	-0.238
-367.742	93.839	0.586	-0.661
-366.727	-50.690	0.957	-0.448
-365.712	176.671	-0.091	0.131
-364.698	-3.680	-0.380	0.263
-363.683	-77.924	-0.146	-0.050
-362.669	800.000	0.182	-0.669
-361.654	-37.459	-0.614	-0.326
-360.639	129.596	-0.260	-0.330
-359.625	496.086	0.058	0.132
-358.610	44.054	0.464	0.423
-357.596	-200.000	0.005	0.595
-356.581	-0.126	0.445	-0.315
-355.566	-86.807	0.070	-0.021
-354.552	522.985	0.298	-0.696
-353.537	-47.312	0.632	-0.306
-352.523	-200.000	0.015	0.745
-351.508	-97.059	0.442	0.115
-350.493	301.805	-0.275	-0.506
-349.479	112.230	-0.062	-0.074
-348.464	56.716	-0.676	-0.655
-347.450	800.000	0.173	-0.670
-346.435	273.807	-0.455	-0.800
-345.420	-200.000	-0.641	0.000
-344.406	-72.154	0.724	0.267
-343.391	-127.672	-0.339	0.049
-342.377	-127.149	0.460	-0.067
-341.362	142.541	-0.165	0.218
-340.348	-164.444	-0.216	0.010
-339.333	-34.245	-0.579	0.316
-338.318	-27.355	-0.209	0.121
-337.304	39.479	-0.703	0.626
-336.289	-169.406	-0.284	0.010
-335.275	-41.305	0.254	0.130
-334.260	164.761	0.263	0.368
-333.245	70.414	-0.399	0.410
-332.231	-182.829	0.622	0.011
-331.216	-200.000	0.141	0.623
-330.202	136.598	0.198	0.256
-329.187	-147.377	-0.496	-0.042
-328.172	-39.995	-0.471	-0.244
-327.158	-91.669	0.619	-0.175
-326.143	-68.320	0.439	-0.169
-325.129	371.525	0.228	0.460
-324.114	-51.534	-0.338	-0.157
-323.099	-179.553	1.000	-0.022
-322.085	353.921	0.143	-0.282
-321.070	222.941	0.296	0.473
-320.056	-159.417	-0.560	0.031
-319.041	-166.101	0.176	-0.007
-318.026	-132.379	-0.321	0.041
-317.012	-157.247	0.501	-0.030
-315.997	39.888	0.343	-0.306
-314.983	-8.716	0.110	0.073
-313.968	-61.331	0.354	0.148
-312.953	5.919	-0.378	-0.278
-311.939	64.667	-0.397	0.398
-310.924	313.850	-0.150	-0.281
-309.910	-23.753	0.282	-0.168
-308.895	-38.567	-0.056	-0.029
-307.880	110.522	0.229	-0.273
-306.866	-105.856	0.448	0.100
-305.851	800.000	-0.089	-0.354
-304.837	47.910	-0.293	0.272
-303.822	-200.000	-0.193	-0.859
-302.807	-14.280	0.271	-0.173
-301.793	800.000	-0.178	-0.592
-300.778	800.000	0.282	-0.826
-299.764	-200.000	0.044	0.583
-298.749	163.732	-0.663	-0.926
-297.735	30.563	-0.243	-0.206
-296.720	-53.837	-0.622	0.281
-295.705	-85.013	-1.089	0.339
-294.691	198.327	-0.062	-0.094
-293.676	1.255	0.078	-0.056
-292.662	-200.000	0.002	-0.516
-291.647	39.130	-0.231	-0.205
-290.632	265.854	0.348	-0.603
-289.618	459.123	0.155	-0.341
-288.603	69.550	-0.505	-0.516
-287.589	78.033	0.443	-0.469
-286.574	239.895	-0.317	-0.523
-285.559	-200.000	0.034	0.306
-284.545	-40.184	1.174	-0.606
-283.530	559.770	0.241	0.578
-282.516	-102.233	0.220	0.052
-281.501	180.931	0.174	-0.253
-280.486	-38.511	-0.099	0.052
-279.472	-84.996	0.393	0.122
-278.457	-175.336	0.441	-0.012
-277.443	-3.320	-0.388	0.268
-276.428	549.067	-0.114	-0.270
-275.413	-200.000	0.038	0.441
-274.399	184.967	-0.122	-0.179
-273.384	167.016	-0.461	-0.649
-272.370	-200.000	0.686	0.002
-271.355	800.000	0.242	-0.686
-270.340	69.806	-0.740	-0.756
-269.326	652.148	-0.287	0.729
-268.311	-21.450	0.263	-0.159
-267.297	23.950	0.577	0.471
-266.282	124.061	-0.034	-0.042
-265.267	-87.848	-0.610	-0.182
-264.253	800.000	-0.191	0.641
-263.238	-12.698	-0.804	0.520
-262.224	94.198	-0.415	0.467
-261.209	-32.604	-1.071	0.591
-260.195	-63.044	-0.291	-0.119
-259.180	462.196	-0.150	0.332
-258.165	73.002	0.260	-0.269
-257.151	94.594	0.036	0.040
-256.136	48.445	0.209	0.194
-255.122	-136.533	-0.414	-0.048
-254.107	-200.000	0.093	0.519
-253.092	800.000	0.337	0.939
-252.078	-158.169	0.617	0.036
-251.063	147.414	0.361	-0.482
-250.049	-74.726	0.307	-0.109
-249.034	-48.296	0.423	0.202
-248.019	94.533	0.637	-0.716
-247.005	-77.455	-0.282	0.097
-245.990	102.587	0.364	0.421
-244.976	-89.647	0.854	-0.248
-243.961	64.738	0.317	-0.317
-242.946	800.000	-0.136	-0.416
-241.932	-25.685	-0.219	0.128
-240.917	800.000	-0.197	0.745
-239.903	-83.095	-0.420	0.134
-238.888	-171.808	-0.347	0.011
-237.873	146.706	-0.583	0.776
-236.859	800.000	0.130	0.477
-235.844	14.168	-0.842	-0.649
-234.830	56.344	-0.428	0.412
-233.815	19.674	-0.285	-0.227
-232.800	-200.000	0.026	0.875
-231.786	800.000	0.098	0.359
-230.771	-121.616	0.309	-0.051
-229.757	-200.000	-0.049	0.358
-228.742	-151.604	-0.352	-0.026
-227.727	599.676	0.058	0.142
-226.713	602.274	-0.168	0.413
-225.698	-97.775	-0.519	-0.133
-224.684	-52.328	-0.146	0.067
-223.669	42.047	0.376	0.338
-222.655	800.000	-0.108	-0.366
-221.640	80.815	0.543	0.579
-220.625	637.487	0.076	-0.191
-219.611	314.493	-0.309	0.575
-218.596	-16.618	-0.063	0.040
-217.582	83.264	-0.797	-0.858
-216.567	-41.426	0.244	0.124
-215.552	42.069	-0.474	0.426
-214.538	-85.386	-0.393	-0.121
-213.523	-48.957	0.343	0.163
-212.509	747.586	0.226	0.601
-211.494	-94.374	-0.556	0.150
-210.479	-160.886	-0.747	-0.039
-209.465	-16.441	0.862	-0.540
-208.450	13.639	-0.297	0.228
-207.436	708.240	0.204	0.534
-206.421	224.224	-0.012	-0.019
-205.406	299.739	0.059	-0.107
-204.392	143.649	0.391	-0.515
-203.377	-198.846	0.431	0.002
-202.363	-76.488	0.663	0.230
-201.348	-90.349	-0.393	-0.113
-200.333	253.380	-0.077	-0.129
-199.319	149.825	-0.287	-0.385
-198.304	-97.610	-0.390	0.100
-197.290	-158.495	0.352	-0.020
-196.275	124.656	-0.113	-0.140
-195.260	-79.565	0.166	0.055
-194.246	659.522	0.383	-0.974
-193.231	800.000	-0.159	0.653
-192.217	800.000	0.106	-0.402
-191.202	-19.951	-0.364	-0.222
-190.187	800.000	-0.254	0.830
-189.173	-200.000	-0.011	-0.589
-188.158	114.227	-0.405	-0.487
-187.144	394.611	-0.094	0.194
-186.129	800.000	0.180	-0.770
-185.114	-147.679	-0.569	0.047
-184.100	800.000	-0.043	0.131
-183.085	322.443	0.264	-0.496
-182.071	-39.767	-0.340	0.176
-181.056	-200.000	0.013	0.066
-180.042	-129.482	-0.276	-0.038
-179.027	800.000	-0.157	0.672
-178.012	-131.985	-0.506	-0.065
-176.998	800.000	-0.038	-0.123
-175.983	-104.820	0.987	-0.224
-174.969	800.000	0.129	0.446
-173.954	-4.797	0.918	0.625
-172.939	147.637	-0.087	-0.115
-171.925	73.611	0.124	0.129
-170.910	-75.243	-0.517	0.182
-169.896	-200.000	0.022	0.799
-168.881	-86.198	0.068	-0.021
-167.866	634.677	0.233	-0.584
-166.852	6.445	0.331	-0.243
-165.837	-200.000	0.148	-1.455
-164.823	-200.000	0.001	0.045
-163.808	45.729	0.797	0.727
-162.793	-41.900	-0.527	-0.266
-161.779	-98.385	0.612	0.155
-160.764	259.267	0.389	0.662
-159.750	-165.110	-1.060	-0.046
-158.735	-200.000	-0.143	0.870
-157.720	-200.000	-0.144	0.626
-156.706	262.789	0.138	-0.236
-155.691	-113.014	0.669	-0.130
-154.677	-18.080	-0.651	-0.402
-153.662	524.031	0.221	-0.513
-152.647	-121.116	-0.639	0.106
-151.633	-25.713	-0.583	-0.339
-150.618	-163.641	0.713	0.033
-149.604	454.728	0.216	0.472
-148.589	309.971	-0.320	-0.592
-147.574	-200.000	-0.037	-0.214
-146.560	-118.420	-0.317	0.055
-145.545	-161.768	0.749	0.038
-144.531	64.821	0.243	-0.242
-143.516	82.041	-0.143	0.153
-142.502	-200.000	0.003	0.539
-141.487	-200.000	-0.011	0.851
-140.472	-115.625	-0.343	0.063
-139.458	13.248	0.486	0.371
-138.443	800.000	0.149	0.515
-137.429	-10.338	0.637	0.416
-136.414	800.000	0.275	0.948
-135.399	-102.023	0.213	0.051
-134.385	261.085	0.333	-0.569
-133.370	-86.185	-0.571	-0.174
-132.356	800.000	0.089	-0.244
-131.341	237.373	-0.142	-0.233
-130.326	-126.057	0.418	0.062
-129.312	103.809	-0.404	-0.468
-128.297	-200.000	-0.061	0.287
-127.283	-128.706	0.650	0.090
-126.268	275.013	-0.251	-0.438
-125.253	-117.229	-0.211	0.038
-124.239	6.592	0.453	-0.332
-123.224	-97.059	-1.125	-0.290
-122.210	74.985	-0.088	0.091
-121.195	-200.000	-0.092	-0.436
-120.180	80.032	0.187	-0.199
-119.166	203.412	-0.460	-0.700
-118.151	-5.244	-0.019	-0.013
-117.137	-20.913	0.416	-0.251
-116.122	219.357	0.291	0.459
-115.107	-200.000	0.167	-1.102
-114.093	-121.197	0.575	-0.095
-113.078	-200.000	-0.082	0.471
-112.064	96.541	0.568	0.640
-111.049	194.082	0.555	-0.829
-110.034	-154.930	-0.319	-0.021
-109.020	17.811	-0.459	0.360
-108.005	-6.215	-0.827	-0.556
-106.991	800.000	-0.151	0.651
-105.976	-200.000	0.025	0.488
-104.962	-16.868	-0.751	0.468
-103.947	-166.432	-1.071	0.044
-102.932	57.056	0.200	0.192
-101.918	-200.000	0.082	-0.474
-100.903	800.000	-0.279	0.793
-99.889	-162.236	0.240	-0.012
-98.874	52.876	0.695	0.655
-97.859	800.000	-0.090	0.330
-96.845	24.589	-0.259	0.211
-95.830	-200.000	0.029	0.475
-94.816	-181.445	-0.901	-0.017
-93.801	795.864	0.124	0.335
-92.786	519.538	0.362	0.835
-91.772	772.312	-0.062	0.166
-90.757	-104.936	-0.303	0.068
-89.743	36.583	0.153	0.133
-88.728	-84.188	0.526	-0.164
-87.713	-135.830	0.701	-0.081
-86.699	71.960	0.586	-0.600
-85.684	39.709	0.565	-0.499
-84.670	-200.000	-0.051	-1.004
-83.655	-200.000	-0.000	0.098
-82.640	137.272	0.340	-0.437
-81.626	210.961	-0.386	0.598
-80.611	-55.948	-0.271	-0.119
-79.597	-139.969	-0.060	0.006
-78.582	-111.457	0.440	-0.088
-77.567	-117.605	0.456	0.081
-76.553	146.799	-0.563	-0.744
-75.538	800.000	0.131	-0.445
-74.524	73.262	0.395	-0.406
-73.509	72.577	0.129	-0.132
-72.494	-58.961	-0.957	0.407
-71.480	-119.233	-0.274	0.047
-70.465	-200.000	-0.105	-0.588
-69.451	-63.393	0.307	0.124
-68.436	-44.264	0.426	0.210
-67.422	-27.680	-0.536	-0.306
-66.407	-190.787	0.641	0.007
-65.392	800.000	-0.074	0.312
-64.378	232.055	0.183	0.295
-63.363	-83.318	-0.602	0.190
-62.349	380.054	-0.192	0.387
-61.334	-47.575	-0.727	-0.347
-60.319	212.228	0.273	0.424
-59.305	266.062	-0.649	-1.114
-58.290	-200.000	0.061	0.894
-57.276	467.911	0.859	1.894
-56.261	-200.000	96.355	570.426
-55.246	648.771	1366.565	3435.680
-54.232	200.282	2542.579	3838.826
-53.217	112.864	2257.432	2688.040
-52.203	42.843	1885.229	1688.333
-51.188	36.664	1677.129	1455.598
-50.173	33.888	1632.966	1396.833
-49.159	52.229	1682.624	1576.527
-48.144	53.105	1698.417	1597.789
-47.130	35.990	1658.695	1434.351
-46.115	33.376	1644.555	1402.737
-45.100	33.389	1637.938	1397.129
-44.086	32.770	1637.237	1391.911
-43.071	33.143	1632.899	1390.915
-42.057	33.067	1630.683	1388.408
-41.042	33.030	1629.029	1386.674
-40.027	33.199	1626.523	1385.726
-39.013	33.216	1624.625	1384.176
-37.998	33.199	1623.065	1382.669
-36.984	33.383	1621.862	1382.934
-35.969	33.201	1620.793	1380.639
-34.954	33.153	1619.757	1379.352
-33.940	33.475	1615.784	1378.259
-32.925	33.297	1614.701	1375.984
-31.911	33.143	1613.719	1373.976
-30.896	33.254	1611.669	1372.976
-29.881	33.135	1611.323	1371.763
-28.867	33.216	1608.688	1370.053
-27.852	33.336	1607.452	1369.820
-26.838	33.365	1605.569	1368.365
-25.823	33.227	1604.328	1366.256
-24.809	33.363	1603.465	1366.453
-23.794	33.456	1600.773	1364.770
-22.779	33.445	1600.091	1364.058
-21.765	33.423	1598.248	1362.277
-20.750	33.360	1596.385	1360.180
-19.736	33.336	1596.371	1359.939
-18.721	33.186	1594.270	1357.021
-17.706	33.394	1591.793	1356.352
-16.692	33.352	1591.670	1355.891
-15.677	33.307	1589.482	1353.651
-14.663	33.464	1586.754	1352.398
-13.648	33.408	1586.657	1351.858
-12.633	33.441	1584.956	1350.592
-11.619	33.220	1583.605	1347.810
-10.604	33.310	1582.488	1347.450
-9.590	33.295	1580.805	1345.857
-8.575	33.305	1579.439	1344.710
-7.560	33.375	1577.934	1343.870
-6.546	33.274	1576.467	1341.853
-5.531	33.554	1574.767	1342.338
-4.517	33.413	1575.294	1341.730
-3.502	33.401	1573.257	1339.858
-2.487	33.291	1572.012	1337.969
-1.473	32.816	1560.937	1325.155
-0.458	30.329	1540.648	1290.611
0.556	27.364	1541.631	1256.990
1.571	24.973	1562.407	1257.060
2.586	24.425	1574.948	1263.157
3.600	21.447	1523.880	1201.663
4.615	12.457	1414.633	1057.821
5.629	4.353	1349.225	958.912
6.644	3.134	1340.472	945.120
7.659	2.897	1339.308	942.762
8.673	2.926	1338.126	942.024
9.688	2.962	1336.376	940.930
10.702	2.632	1334.060	937.196
11.717	6.182	1339.807	962.920
12.731	15.729	1357.846	1034.802
13.746	23.581	1370.300	1092.757
14.761	25.580	1372.482	1106.719
15.775	25.618	1373.786	1107.904
16.790	25.720	1372.583	1107.462
17.804	25.925	1372.345	1108.435
18.819	26.178	1370.869	1108.698
19.834	26.321	1369.486	1108.358
20.848	26.376	1369.114	1108.296
21.863	26.257	1369.198	1107.535
22.877	26.170	1369.601	1107.233
23.892	26.255	1367.107	1105.637
24.907	26.149	1367.721	1105.387
25.921	26.466	1365.946	1105.791
26.936	26.226	1365.562	1103.918
27.950	26.319	1363.560	1102.772
28.965	26.077	1363.833	1101.418
29.980	26.421	1361.453	1101.492
30.994	26.221	1360.402	1099.328
32.009	26.343	1359.631	1099.347
33.023	26.402	1358.602	1098.779
34.038	26.475	1357.119	1097.923
35.053	26.358	1355.705	1095.976
36.067	26.259	1355.610	1095.200
37.082	26.221	1354.882	1094.285
38.096	25.970	1355.483	1093.153
39.111	26.310	1353.332	1093.376
40.126	26.298	1352.600	1092.614
41.140	26.275	1351.570	1091.551
42.155	26.503	1350.933	1092.314
43.169	26.226	1352.251	1091.612
44.184	26.150	1351.256	1090.249
45.199	26.498	1351.103	1092.130
46.213	26.419	1350.236	1090.860
47.228	26.195	1349.338	1088.683
48.242	26.354	1348.701	1089.034
49.257	26.494	1346.757	1088.210
50.271	26.551	1344.970	1087.013
51.286	26.319	1344.538	1085.172
52.301	26.277	1342.820	1083.440
53.315	26.381	1341.772	1083.119
54.330	26.357	1342.108	1083.154
55.344	26.230	1341.268	1081.617
56.359	26.524	1339.004	1081.455
57.374	26.474	1339.037	1081.088
58.388	26.311	1337.905	1079.102
59.403	26.422	1337.009	1078.945
60.417	26.364	1336.683	1078.241
61.432	26.373	1336.401	1077.974
62.447	26.265	1335.218	1076.281
63.461	26.256	1334.311	1075.403
64.476	26.254	1334.300	1075.284
65.490	26.433	1332.840	1075.079
66.505	26.235	1330.939	1072.272
67.520	26.163	1329.088	1070.260
68.534	26.194	1329.811	1070.930
69.549	26.244	1327.972	1069.653
70.563	26.582	1326.458	1070.337
71.578	26.423	1325.599	1068.610
72.593	26.314	1325.738	1067.984
73.607	26.648	1324.383	1068.765
74.622	26.432	1323.946	1067.048
75.636	26.594	1323.503	1067.550
76.651	26.506	1321.877	1065.623
77.666	26.717	1321.081	1066.129
78.680	26.487	1321.451	1064.979
79.695	26.613	1320.976	1065.245
80.709	26.567	1319.170	1063.427
81.724	26.733	1317.892	1063.275
82.739	26.462	1317.848	1061.554
83.753	26.749	1317.037	1062.493
84.768	26.668	1315.524	1060.701
85.782	26.499	1314.545	1058.830
86.797	26.580	1312.989	1057.955
87.812	26.701	1313.397	1058.896
88.826	26.663	1311.382	1056.960
89.841	26.541	1311.073	1055.903
90.855	26.836	1308.494	1055.454
91.870	26.619	1309.033	1054.527
92.884	26.575	1307.805	1053.192
93.899	26.443	1307.852	1052.370
94.914	26.603	1307.262	1052.726
95.928	26.617	1306.046	1051.736
96.943	26.547	1304.534	1050.021
97.957	26.274	1305.468	1049.099
98.972	26.683	1303.441	1049.742
99.987	26.638	1302.887	1048.945
101.001	26.691	1302.145	1048.563
102.016	26.439	1301.120	1046.184
103.030	26.728	1300.040	1046.895
104.045	26.690	1299.534	1046.177
105.060	26.712	1298.642	1045.491
106.074	26.602	1297.755	1044.048
107.089	26.433	1297.810	1043.029
108.103	26.680	1295.144	1042.211
109.118	26.625	1294.627	1041.388
110.133	26.761	1294.248	1041.777
111.147	26.557	1292.931	1039.452
112.162	26.444	1292.082	1038.028
113.176	26.939	1290.409	1039.427
114.191	26.711	1289.446	1037.256
115.206	26.683	1288.910	1036.573
116.220	26.849	1287.061	1035.941
117.235	26.632	1286.164	1033.888
118.249	26.922	1285.603	1034.999
119.264	26.761	1285.316	1033.761
120.279	26.885	1284.092	1033.394
121.293	26.872	1284.194	1033.306
122.308	26.737	1283.199	1031.648
123.322	26.912	1282.095	1031.663
124.337	26.673	1281.903	1030.060
125.352	26.955	1279.968	1030.013
126.366	26.847	1278.971	1028.508
127.381	26.677	1278.471	1027.051
128.395	26.723	1278.189	1026.995
129.410	26.827	1276.852	1026.415
130.424	26.873	1276.423	1026.241
131.439	27.099	1275.408	1026.613
132.454	26.840	1275.461	1025.101
133.468	26.965	1274.499	1024.944
134.483	26.909	1273.810	1023.980
135.497	26.703	1273.358	1022.366
136.512	26.832	1271.547	1021.551
137.527	27.062	1270.383	1021.817
138.541	27.033	1269.240	1020.645
139.556	26.734	1267.706	1017.644
140.570	26.850	1267.722	1018.216
141.585	26.758	1266.363	1016.521
142.600	26.727	1265.310	1015.411
143.614	26.805	1264.600	1015.184
144.629	26.920	1263.467	1014.828
145.643	27.085	1262.542	1014.918
146.658	26.904	1261.689	1013.135
147.673	26.874	1260.948	1012.283
148.687	26.850	1260.594	1011.773
149.702	26.751	1259.575	1010.315
150.716	26.674	1258.500	1008.935
151.731	26.982	1257.406	1009.682
152.746	26.687	1256.633	1007.333
153.760	26.843	1255.196	1006.957
154.775	26.970	1253.916	1006.545
155.789	26.916	1253.393	1005.734
156.804	26.925	1251.875	1004.477
157.819	26.892	1251.442	1003.862
158.833	26.979	1251.298	1004.139
159.848	27.212	1249.314	1003.742
160.862	26.917	1250.666	1003.111
161.877	26.833	1249.689	1001.771
162.892	27.017	1247.932	1001.291
163.906	26.903	1246.980	999.809
164.921	26.939	1246.888	999.850
165.935	27.221	1245.423	1000.137
166.950	27.090	1245.381	999.294
167.964	27.177	1244.038	998.606
168.979	27.017	1244.757	998.212
169.994	27.200	1243.661	998.251
171.008	27.269	1243.108	998.098
172.023	27.241	1241.657	996.693
173.037	27.221	1241.358	996.255
174.052	27.205	1240.113	995.076
175.067	27.237	1239.126	994.371
176.081	27.190	1238.604	993.607
177.096	27.155	1237.213	992.217
178.110	27.055	1236.635	991.120
179.125	26.938	1236.056	989.926
180.140	27.066	1235.175	989.833
181.154	26.841	1235.434	988.726
182.169	27.080	1233.677	988.534
183.183	27.120	1233.015	988.131
184.198	27.330	1231.015	987.580
185.213	27.317	1229.717	986.385
186.227	27.451	1228.384	985.950
187.242	27.735	1227.558	986.735
188.256	27.341	1227.133	984.180
189.271	26.970	1226.766	981.789
190.286	27.464	1225.330	983.221
191.300	27.374	1224.875	982.286
192.315	27.502	1224.278	982.408
193.329	27.429	1224.751	982.306
194.344	27.350	1224.524	981.613
195.359	27.160	1223.743	979.875
196.373	27.180	1223.902	980.022
197.388	27.523	1222.569	980.715
198.402	27.322	1223.457	980.258
199.417	27.138	1221.977	977.998
200.432	27.327	1221.256	978.351
201.446	27.444	1220.283	978.109
202.461	27.542	1218.879	977.425
203.475	27.330	1218.838	976.168
204.490	27.178	1218.375	974.896
205.504	27.237	1218.088	974.895
206.519	27.418	1217.334	975.178
207.534	27.384	1215.780	973.665
208.548	27.287	1214.622	972.133
209.563	27.381	1212.733	971.038
210.577	27.309	1213.234	970.969
211.592	27.348	1212.090	970.172
212.607	27.340	1211.177	969.316
213.621	27.542	1210.524	969.779
214.636	27.485	1210.466	969.346
215.650	27.606	1208.457	968.292
216.665	27.366	1208.265	966.781
217.680	27.326	1207.693	966.025
218.694	27.466	1206.043	965.362
219.709	27.416	1205.956	964.939
220.723	27.301	1205.375	963.784
221.738	27.479	1204.637	964.048
222.753	27.309	1204.403	962.877
223.767	27.247	1203.725	961.923
224.782	27.556	1203.777	963.512
225.796	27.562	1202.955	962.798
226.811	27.355	1202.526	961.279
227.826	27.550	1199.920	960.138
228.840	27.509	1200.546	960.338
229.855	27.471	1200.687	960.167
230.869	27.623	1199.540	959.961
231.884	27.625	1198.198	958.815
232.899	27.399	1198.211	957.554
233.913	27.372	1197.410	956.684
234.928	27.298	1198.860	957.368
235.942	27.688	1195.567	956.702
236.957	27.537	1195.547	955.807
237.972	27.438	1194.734	954.556
238.986	27.421	1195.061	954.640
240.001	27.701	1193.942	955.130
241.015	27.474	1193.765	953.717
242.030	27.814	1191.698	953.754
243.045	27.827	1190.872	953.077
244.059	27.774	1190.319	952.278
245.074	27.494	1190.475	950.852
246.088	28.036	1188.723	952.197
247.103	27.778	1187.827	950.052
248.117	27.589	1187.310	948.571
249.132	27.705	1186.209	948.210
250.147	27.831	1186.508	949.017
251.161	28.043	1184.322	948.286
252.176	27.988	1183.784	947.487
253.190	27.940	1184.266	947.540
254.205	28.045	1182.570	946.641
255.220	28.205	1182.983	947.719
256.234	28.199	1183.018	947.630
257.249	27.987	1182.482	946.022
258.263	27.954	1181.397	944.896
259.278	28.003	1180.887	944.658
260.293	28.062	1180.319	944.426
261.307	28.105	1179.698	944.066
262.322	28.316	1177.822	943.571
263.336	27.807	1178.963	941.778
264.351	28.026	1178.345	942.328
265.366	27.757	1177.233	939.967
266.380	28.392	1176.020	942.185
267.395	28.328	1175.677	941.499
268.409	27.877	1176.022	939.370
269.424	27.885	1174.962	938.483
270.439	28.016	1174.855	938.986
271.453	27.999	1174.063	938.184
272.468	28.240	1172.563	938.134
273.482	28.030	1172.227	936.707
274.497	28.126	1172.064	936.987
275.512	28.176	1170.669	936.044
276.526	28.162	1170.121	935.453
277.541	27.969	1169.490	933.880
278.555	28.283	1168.463	934.581
279.570	28.427	1168.213	935.030
280.585	28.274	1167.237	933.388
281.599	28.152	1166.301	931.934
282.614	28.449	1164.747	932.122
283.628	28.216	1164.439	930.606
284.643	28.323	1163.832	930.583
285.657	28.482	1163.906	931.367
286.672	27.981	1164.229	928.999
287.687	28.117	1162.512	928.235
288.701	28.467	1160.899	928.638
289.716	28.143	1159.859	926.086
290.730	28.024	1160.975	926.292
291.745	28.330	1159.204	926.345
292.760	28.309	1158.421	925.530
293.774	27.843	1159.052	923.599
294.789	28.325	1157.233	924.498
295.803	28.262	1156.526	923.533
296.818	28.259	1156.166	923.150
297.833	28.224	1155.595	922.433
298.847	28.244	1155.385	922.285
299.862	28.227	1154.508	921.421
300.876	28.514	1152.777	921.399
301.891	28.439	1153.346	921.394
302.906	28.203	1152.679	919.593
303.920	28.211	1152.778	919.634
304.935	28.271	1151.189	918.587
305.949	28.512	1149.762	918.572
306.964	28.430	1148.668	917.206
307.979	28.391	1149.064	917.247
308.993	28.390	1148.310	916.561
310.008	28.568	1147.136	916.428
311.022	28.603	1146.002	915.616
312.037	28.599	1145.351	914.998
313.052	28.281	1144.666	912.783
314.066	28.538	1144.803	914.093
315.081	28.177	1143.899	911.493
316.095	28.223	1143.295	911.159
317.110	28.159	1143.257	910.731
318.125	28.378	1141.495	910.335
319.139	28.246	1141.216	909.376
320.154	28.499	1140.495	909.976
321.168	28.512	1140.729	910.146
322.183	28.173	1139.977	907.786
323.197	27.994	1138.566	905.693
324.212	27.982	1137.839	904.976
325.227	28.385	1137.243	906.416
326.241	28.287	1137.184	905.805
327.256	28.374	1135.757	905.017
328.270	28.165	1135.729	903.880
329.285	28.206	1135.255	903.626
330.300	28.228	1133.669	902.395
331.314	28.393	1132.832	902.458
332.329	28.042	1132.680	900.529
333.343	28.283	1131.759	900.906
334.358	28.499	1130.361	900.772
335.373	28.309	1129.567	899.127
336.387	28.273	1129.116	898.510
337.402	28.544	1128.555	899.314
338.416	28.118	1128.426	897.047
339.431	28.420	1126.481	896.898
340.446	28.222	1127.688	896.807
341.460	28.075	1127.067	895.513
342.475	28.431	1125.105	895.618
343.489	28.315	1125.187	895.034
344.504	28.566	1123.286	894.671
345.519	28.413	1121.720	892.600
346.533	28.369	1122.029	892.552
347.548	28.326	1120.949	891.404
348.562	28.290	1120.144	890.507
349.577	28.330	1119.589	890.184
350.592	28.214	1118.929	889.017
351.606	28.156	1118.470	888.292
352.621	28.233	1117.640	887.927
353.635	28.079	1117.711	887.157
354.650	28.384	1116.402	887.518
355.665	28.197	1115.429	885.762
356.679	28.236	1115.629	886.031
357.694	28.135	1115.152	885.085
358.708	28.389	1113.470	884.900
359.723	28.480	1112.925	884.826
360.738	28.351	1112.885	884.093
361.752	28.536	1112.042	884.238
362.767	28.438	1111.262	883.068
363.781	28.180	1111.189	881.690
364.796	28.314	1109.950	881.274
365.810	28.555	1109.166	881.730
366.825	28.249	1109.383	880.350
367.840	28.561	1108.398	880.992
368.854	28.431	1107.715	879.744
369.869	28.366	1105.992	877.989
370.883	28.278	1105.632	877.202
371.898	28.032	1106.175	876.380
372.913	28.507	1104.365	877.138
373.927	28.202	1104.698	875.866
374.942	28.145	1104.655	875.484
375.956	28.497	1103.533	876.195
376.971	28.301	1103.552	875.200
377.986	28.612	1101.862	875.265
379.000	28.340	1102.725	874.577
380.015	28.467	1100.294	873.172
381.029	28.548	1100.091	873.321
382.044	28.289	1100.404	872.260
383.059	28.373	1098.813	871.322
384.073	28.347	1098.814	871.118
385.088	28.086	1096.927	868.308
386.102	28.086	1097.102	868.370
387.117	28.110	1096.362	867.823
388.132	28.015	1095.614	866.703
389.146	28.329	1094.004	866.838
390.161	28.088	1093.519	865.234
391.175	27.874	1092.995	863.735
392.190	28.369	1091.872	865.106
393.205	28.340	1092.044	865.029
394.219	28.095	1091.457	863.332
395.234	28.451	1090.266	863.992
396.248	28.245	1089.362	862.227
397.263	28.350	1087.868	861.466
398.278	28.311	1087.670	861.046
399.292	28.486	1087.306	861.506
400.307	28.277	1085.925	859.354
401.321	28.126	1086.239	858.816
402.336	28.239	1084.537	857.925
403.350	28.188	1084.518	857.597
404.365	28.341	1084.275	858.043
405.380	28.249	1083.138	856.638
406.394	28.126	1083.068	855.933
407.409	28.033	1082.234	854.764
408.423	28.358	1080.737	855.021
409.438	28.371	1080.647	854.934
410.453	28.296	1079.883	853.908
411.467	28.197	1078.643	852.390
412.482	27.957	1079.266	851.686
413.496	28.297	1077.454	851.761
414.511	28.262	1076.961	851.138
415.526	28.301	1076.375	850.779
416.540	28.379	1076.947	851.518
417.555	28.227	1075.659	849.716
418.569	28.534	1074.756	850.351
419.584	28.170	1074.944	848.740
420.599	28.330	1073.997	848.658
421.613	152.008	1405.530	1792.556
422.628	140.092	1453.838	1792.643
