DTS Sentinel unit serial number:	SN413079Multiplexer serial number:	ORYXHardware model number:	OX4-SRSoftware version number:	ORYX F/W v4.00 Oryx Data Collector v3.7.2.0data status	okinstallation	princeton_trtdifferential loss correction	single-endedforward channel	channel 2reverse channel	N/Adate	2019/09/18time	09:43:34forward acquisition time	60.00reverse acquisition time	0.00gamma	496.2192k internal	0.2336k external	0.2336temperature offset calibration	0.9978default loss term (dB/km)	0.3790temperature slope calibration	1.0000multiplexer offset coefficient	1.0000multiplexer slope coefficient	1.0000fibre end	0.00T internal ref (°C)	26.86T ext. ref 1 (°C)	0.28T ext. ref 2 (°C)	23.46length (m)	temperature (°C)	Stokes	anti-Stokes-747.200	-200.000	0.071	0.412
-746.185	-78.943	-0.165	-0.056
-745.171	-200.000	0.004	0.331
-744.156	513.852	-0.185	0.434
-743.142	800.000	-0.019	-0.061
-742.127	-200.000	-0.046	0.338
-741.112	-200.000	-0.006	0.145
-740.098	40.852	-0.317	0.287
-739.083	57.838	-0.142	0.140
-738.069	-103.618	0.121	-0.029
-737.054	800.000	-0.033	-0.093
-736.039	-200.000	0.007	0.393
-735.025	1.984	-0.281	-0.203
-734.010	-111.147	-0.193	-0.040
-732.996	73.715	-0.137	0.145
-731.981	-200.000	0.009	0.062
-730.966	-137.929	-0.243	0.027
-729.952	-21.101	-0.222	0.136
-728.937	201.454	0.036	0.055
-727.923	-200.000	-0.025	0.222
-726.908	-94.772	-0.085	-0.023
-725.894	-64.773	-0.358	0.145
-724.879	-31.207	-0.331	-0.187
-723.864	800.000	-0.072	-0.282
-722.850	-76.242	-0.306	0.108
-721.835	43.405	-0.237	-0.217
-720.821	-107.618	-0.298	-0.065
-719.806	800.000	-0.082	-0.245
-718.791	-200.000	0.010	-0.181
-717.777	-28.507	0.060	-0.034
-716.762	-10.319	0.060	-0.040
-715.748	122.302	0.110	0.138
-714.733	709.834	-0.014	-0.036
-713.718	-200.000	0.054	-0.295
-712.704	390.744	-0.255	-0.531
-711.689	-7.326	-0.321	-0.219
-710.675	-142.061	0.160	-0.016
-709.660	19.730	-0.186	0.150
-708.645	-200.000	-0.043	0.282
-707.631	117.375	-0.153	-0.189
-706.616	-200.000	-0.049	0.322
-705.602	-56.233	0.157	-0.070
-704.587	-58.371	-0.124	0.054
-703.572	-8.976	0.115	-0.077
-702.558	122.396	0.049	0.061
-701.543	219.896	-0.153	-0.245
-700.529	-16.271	0.169	0.107
-699.514	-8.583	-0.143	0.096
-698.499	8.879	0.152	0.115
-697.485	-152.115	-0.158	-0.012
-696.470	226.582	0.072	-0.118
-695.456	-42.310	-0.182	-0.093
-694.441	136.336	-0.146	-0.191
-693.426	-32.464	0.151	-0.084
-692.412	800.000	-0.103	0.288
-691.397	-4.813	-0.310	0.214
-690.383	-200.000	-0.097	0.446
-689.368	-145.649	0.241	-0.022
-688.354	-178.304	-0.375	-0.009
-687.339	-163.459	-0.160	0.008
-686.324	-200.000	-0.007	0.274
-685.310	-85.963	-0.189	-0.059
-684.295	-200.000	-0.000	0.123
-683.281	22.572	-0.215	-0.177
-682.266	800.000	-0.096	-0.298
-681.251	800.000	-0.029	-0.083
-680.237	771.143	0.072	-0.196
-679.222	-152.913	0.127	-0.009
-678.208	141.318	0.104	-0.138
-677.193	458.438	0.089	-0.198
-676.178	-118.625	0.184	-0.033
-675.164	657.987	0.072	-0.185
-674.149	41.404	0.083	-0.075
-673.135	-200.000	-0.046	0.291
-672.120	-41.550	0.240	0.123
-671.105	-200.000	-0.025	-0.262
-670.091	278.201	-0.217	-0.387
-669.076	-150.438	0.142	-0.011
-668.062	-94.091	0.038	0.010
-667.047	800.000	-0.043	-0.165
-666.032	-22.765	0.197	0.119
-665.018	7.334	-0.233	-0.174
-664.003	-200.000	-0.259	0.001
-662.989	-37.585	-0.244	-0.130
-661.974	-42.069	-0.080	-0.041
-660.959	-200.000	0.013	-0.096
-659.945	312.961	-0.066	0.125
-658.930	-7.225	-0.215	-0.146
-657.916	603.417	-0.061	-0.152
-656.901	-22.955	0.071	-0.043
-655.886	-67.400	-0.124	0.049
-654.872	116.036	-0.142	0.174
-653.857	101.318	-0.075	0.087
-652.843	0.941	-0.184	-0.132
-651.828	-12.887	-0.169	-0.110
-650.814	-61.724	0.049	0.021
-649.799	-200.000	-0.003	0.098
-648.784	-62.119	-0.318	-0.133
-647.770	636.783	-0.039	-0.100
-646.755	-200.000	0.015	-0.144
-645.741	-45.350	0.126	-0.062
-644.726	-200.000	-0.020	-0.197
-643.711	-200.000	-0.049	0.000
-642.697	288.120	0.084	0.151
-641.682	50.118	0.126	0.119
-640.668	-19.293	0.186	-0.115
-639.653	27.471	-0.042	0.035
-638.638	64.183	-0.208	0.209
-637.624	579.446	0.096	0.236
-636.609	-143.420	-0.046	0.004
-635.595	-91.164	0.298	-0.085
-634.580	-200.000	0.049	0.250
-633.565	2.368	-0.175	0.126
-632.551	-23.191	0.135	-0.081
-631.536	-27.730	-0.075	-0.044
-630.522	-134.747	-0.389	-0.047
-629.507	714.420	0.172	0.456
-628.492	800.000	0.062	0.202
-627.478	-69.178	0.147	0.056
-626.463	71.974	-0.186	0.193
-625.449	138.299	-0.271	-0.355
-624.434	-200.000	-0.004	-0.075
-623.419	800.000	0.059	0.178
-622.405	-8.049	-0.106	0.071
-621.390	154.389	0.146	-0.201
-620.376	-168.588	0.532	-0.020
-619.361	-200.000	0.052	-0.377
-618.346	-107.635	-0.039	0.009
-617.332	-41.549	-0.076	-0.039
-616.317	800.000	0.014	-0.042
-615.303	-200.000	0.018	-0.138
-614.288	284.308	-0.069	-0.125
-613.273	-135.538	-0.244	-0.029
-612.259	-51.902	0.466	0.217
-611.244	-54.317	0.173	0.078
-610.230	-160.133	-0.286	-0.016
-609.215	-22.584	-0.275	0.166
-608.201	644.017	0.041	-0.104
-607.186	52.573	-0.128	0.122
-606.171	-169.321	0.111	-0.004
-605.157	467.350	-0.070	-0.158
-604.142	209.680	-0.046	0.072
-603.128	-200.000	0.005	0.055
-602.113	-200.000	-0.009	0.054
-601.098	64.995	-0.123	0.124
-600.084	34.356	-0.028	-0.025
-599.069	-200.000	-0.009	0.269
-598.055	800.000	-0.132	0.475
-597.040	-61.277	0.163	-0.068
-596.025	-190.886	-0.105	0.001
-595.011	4.878	0.326	0.239
-593.996	-200.000	-0.030	0.187
-592.982	-200.000	-0.008	0.134
-591.967	-26.859	-0.223	0.130
-590.952	-155.325	0.287	0.019
-589.938	-145.654	-0.187	-0.017
-588.923	47.667	0.228	-0.213
-587.909	-56.067	0.120	-0.053
-586.894	-156.612	-0.318	0.020
-585.879	372.108	-0.112	0.227
-584.865	800.000	-0.051	0.162
-583.850	-97.365	-0.432	0.112
-582.836	211.750	0.208	-0.327
-581.821	231.709	0.003	-0.004
-580.806	-91.312	-0.265	-0.076
-579.792	-9.089	0.151	-0.101
-578.777	-200.000	0.421	-0.001
-577.763	210.706	-0.091	-0.142
-576.748	12.049	-0.179	0.137
-575.733	800.000	0.016	0.049
-574.719	-101.195	0.207	-0.050
-573.704	-200.000	0.030	-0.318
-572.690	-52.715	0.204	0.094
-571.675	94.096	0.067	0.076
-570.661	-177.088	0.182	0.005
-569.646	-128.149	0.269	-0.038
-568.631	-200.000	0.001	0.104
-567.617	193.715	-0.054	-0.081
-566.602	328.595	0.014	-0.027
-565.588	34.352	0.020	-0.017
-564.573	-153.616	0.098	0.007
-563.558	-3.758	0.201	-0.139
-562.544	530.293	0.075	-0.177
-561.529	-9.249	-0.143	-0.096
-560.515	104.473	-0.194	0.228
-559.500	578.762	0.030	-0.073
-558.485	64.863	0.112	0.113
-557.471	68.644	0.131	0.134
-556.456	11.494	-0.090	0.069
-555.442	-200.000	-0.024	0.174
-554.427	-16.669	0.270	-0.171
-553.412	-31.490	-0.191	-0.107
-552.398	89.178	0.140	-0.156
-551.383	-41.123	-0.126	0.065
-550.369	-165.004	-0.082	0.004
-549.354	228.479	0.129	0.210
-548.339	284.762	-0.140	-0.251
-547.325	800.000	-0.113	-0.349
-546.310	-62.948	-0.250	0.103
-545.296	-200.000	-0.011	0.103
-544.281	3.218	0.123	-0.089
-543.266	800.000	-0.065	0.247
-542.252	800.000	-0.013	0.055
-541.237	-96.273	0.357	0.094
-540.223	-101.611	-0.184	0.044
-539.208	231.337	-0.123	0.201
-538.193	529.393	0.021	0.050
-537.179	24.963	0.129	0.107
-536.164	194.275	-0.263	-0.397
-535.150	15.901	-0.151	-0.118
-534.135	86.481	-0.386	-0.424
-533.121	42.133	-0.116	0.105
-532.106	507.250	0.051	0.117
-531.091	800.000	-0.039	-0.111
-530.077	165.381	0.150	-0.211
-529.062	-31.696	-0.411	-0.230
-528.048	144.781	-0.172	0.229
-527.033	-200.000	-0.062	-0.308
-526.018	479.622	-0.172	0.388
-525.004	-200.000	0.037	0.325
-523.989	507.845	0.188	-0.434
-522.975	-200.000	0.008	0.058
-521.960	800.000	0.061	0.173
-520.945	-2.415	0.042	0.029
-519.931	-200.000	-0.000	0.100
-518.916	166.799	-0.055	0.077
-517.902	4.824	-0.136	0.099
-516.887	202.521	-0.163	-0.251
-515.872	-67.383	-0.125	0.049
-514.858	399.007	-0.034	-0.072
-513.843	-200.000	0.078	-0.366
-512.829	-200.000	0.007	0.253
-511.814	-200.000	0.011	0.185
-510.799	-200.000	0.001	-0.130
-509.785	-83.822	0.112	-0.036
-508.770	800.000	-0.149	-0.517
-507.756	-200.000	0.015	0.084
-506.741	91.409	-0.086	-0.096
-505.726	-106.101	-0.016	0.004
-504.712	613.752	0.065	-0.163
-503.697	-149.320	-0.263	0.021
-502.683	-62.479	0.181	-0.075
-501.668	82.297	0.024	0.026
-500.653	-200.000	0.014	-0.219
-499.639	279.938	-0.048	-0.084
-498.624	800.000	0.040	0.145
-497.610	-172.713	0.246	0.008
-496.595	-158.792	-0.288	-0.016
-495.581	-65.554	0.187	-0.075
-494.566	-64.402	-0.110	-0.045
-493.551	-200.000	-0.019	0.354
-492.537	-73.723	-0.379	-0.137
-491.522	514.126	-0.168	0.390
-490.508	50.261	-0.217	-0.204
-489.493	-200.000	0.018	0.361
-488.478	144.529	0.086	0.114
-487.464	800.000	0.057	-0.220
-486.449	138.589	-0.209	0.273
-485.435	182.248	0.117	-0.171
-484.420	193.614	0.124	-0.187
-483.405	-69.673	0.196	0.075
-482.391	-97.229	-0.368	-0.096
-481.376	-200.000	-0.022	0.132
-480.362	36.067	-0.238	-0.209
-479.347	-200.000	0.033	-0.303
-478.332	73.709	-0.116	0.120
-477.318	-200.000	-0.071	0.343
-476.303	-200.000	-0.030	0.180
-475.289	-136.737	-0.225	0.026
-474.274	112.352	0.067	0.081
-473.259	8.154	-0.200	0.149
-472.245	-139.617	0.233	-0.025
-471.230	-200.000	0.020	-0.088
-470.216	380.125	0.149	-0.304
-469.201	-178.709	0.096	0.002
-468.186	262.455	-0.179	-0.308
-467.172	34.559	-0.126	-0.109
-466.157	116.731	0.088	0.107
-465.143	-91.538	0.023	0.007
-464.128	196.340	0.023	-0.034
-463.113	800.000	0.048	0.201
-462.099	-200.000	0.061	-0.297
-461.084	-83.317	0.128	0.041
-460.070	220.949	-0.165	0.263
-459.055	-76.607	-0.389	-0.136
-458.040	-128.290	0.317	0.045
-457.026	-200.000	-0.044	-0.363
-456.011	775.824	-0.041	-0.111
-454.997	-140.472	-0.145	-0.015
-453.982	-200.000	0.078	-0.433
-452.968	167.233	0.054	0.076
-451.953	588.734	0.163	-0.398
-450.938	800.000	0.068	-0.245
-449.924	-200.000	-0.071	-0.354
-448.909	171.121	0.216	-0.307
-447.895	55.768	-0.156	0.150
-446.880	-125.586	0.134	-0.020
-445.865	-68.836	-0.109	0.042
-444.851	-94.274	-0.327	0.089
-443.836	-200.000	0.031	-0.220
-442.822	-200.000	0.008	-0.150
-441.807	-18.051	-0.337	-0.210
-440.792	-39.185	-0.170	-0.088
-439.778	-118.308	0.342	-0.060
-438.763	-179.658	-0.307	0.007
-437.749	800.000	0.192	-0.590
-436.734	-200.000	-0.007	0.138
-435.719	-117.740	0.289	0.052
-434.705	-200.000	0.066	0.486
-433.690	461.009	-0.145	0.320
-432.676	-200.000	0.054	-0.447
-431.661	800.000	-0.037	-0.112
-430.646	161.680	-0.190	-0.263
-429.632	-124.104	-0.148	-0.023
-428.617	-129.014	0.085	-0.012
-427.603	-41.089	-0.176	-0.090
-426.588	-118.253	-0.164	-0.029
-425.573	-128.900	-0.096	0.013
-424.559	9.040	-0.093	-0.070
-423.544	-87.305	-0.268	0.081
-422.530	-5.496	-0.068	-0.046
-421.515	-7.235	0.116	-0.078
-420.500	-188.388	-0.230	-0.003
-419.486	418.345	0.082	-0.174
-418.471	-200.000	0.047	-0.321
-417.457	-19.056	0.144	0.089
-416.442	800.000	-0.027	-0.104
-415.428	-200.000	0.041	0.435
-414.413	109.264	0.212	-0.252
-413.398	-23.457	-0.129	0.077
-412.384	-154.339	-0.239	-0.016
-411.369	380.253	-0.138	0.281
-410.355	-200.000	-0.021	0.299
-409.340	-137.206	0.083	0.009
-408.325	-200.000	-0.016	-0.288
-407.311	-177.187	0.268	-0.007
-406.296	-134.879	0.169	0.020
-405.282	800.000	0.066	0.272
-404.267	-61.902	-0.208	0.086
-403.252	41.430	0.123	0.110
-402.238	-200.000	-0.026	0.124
-401.223	-200.000	0.021	0.123
-400.209	38.921	-0.204	0.181
-399.194	-85.496	0.423	-0.131
-398.179	121.478	-0.091	-0.112
-397.165	589.628	-0.059	0.145
-396.150	71.380	-0.143	0.147
-395.136	-200.000	0.005	0.052
-394.121	-72.880	-0.116	-0.042
-393.106	-28.256	-0.076	-0.044
-392.092	800.000	0.111	0.329
-391.077	-200.000	-0.008	0.107
-390.063	-157.013	-0.150	-0.009
-389.048	800.000	0.088	0.298
-388.033	-29.073	-0.194	0.110
-387.019	79.894	0.109	-0.116
-386.004	61.539	-0.182	-0.179
-384.990	10.640	-0.257	-0.194
-383.975	-14.405	0.201	-0.128
-382.960	-200.000	-0.023	0.127
-381.946	-154.978	-0.593	-0.039
-380.931	293.108	0.066	-0.118
-379.917	482.522	-0.161	-0.362
-378.902	172.410	0.153	-0.219
-377.888	33.122	0.255	0.219
-376.873	-200.000	0.004	0.162
-375.858	196.600	-0.119	-0.180
-374.844	215.288	0.098	0.154
-373.829	-200.000	0.029	0.345
-372.815	160.787	-0.141	0.194
-371.800	96.729	0.127	-0.144
-370.785	40.663	-0.192	-0.171
-369.771	375.339	0.149	-0.301
-368.756	84.679	-0.088	0.095
-367.742	394.046	0.124	0.255
-366.727	46.771	0.119	-0.109
-365.712	-185.290	0.171	0.003
-364.698	235.816	-0.085	0.139
-363.683	-142.384	0.287	0.028
-362.669	-131.987	0.072	-0.009
-361.654	-200.000	0.033	0.316
-360.639	214.712	0.196	0.308
-359.625	-113.021	-0.204	-0.040
-358.610	-12.575	-0.213	0.137
-357.596	-57.663	0.158	-0.069
-356.581	177.732	-0.222	0.320
-355.566	-6.358	0.215	0.145
-354.552	800.000	-0.046	0.139
-353.537	66.321	0.121	0.122
-352.523	135.778	0.114	-0.147
-351.508	-200.000	-0.014	-0.181
-350.493	139.076	-0.291	-0.378
-349.479	91.468	0.214	-0.238
-348.464	-108.800	-0.110	0.023
-347.450	-31.173	0.150	0.084
-346.435	375.917	0.020	0.040
-345.420	-89.883	-0.026	0.008
-344.406	75.909	-0.142	-0.148
-343.391	-130.609	-0.384	-0.051
-342.377	-106.110	0.192	0.043
-341.362	-200.000	-0.043	-0.282
-340.348	-61.752	0.056	0.023
-339.333	-5.078	-0.425	0.289
-338.318	-183.426	-0.332	0.006
-337.304	553.268	-0.063	0.150
-336.289	154.872	0.136	0.185
-335.275	453.853	-0.077	0.169
-334.260	-124.972	-0.094	0.014
-333.245	-72.246	-0.124	0.045
-332.231	41.901	-0.114	-0.102
-331.216	568.785	0.101	0.242
-330.202	64.915	0.321	0.320
-329.187	-146.622	0.139	-0.012
-328.172	-200.000	0.004	0.072
-327.158	534.099	-0.153	-0.357
-326.143	-76.992	0.201	-0.069
-325.129	-105.703	0.177	0.040
-324.114	-155.725	0.046	-0.003
-323.099	-55.020	-0.245	-0.109
-322.085	-2.566	0.133	-0.092
-321.070	231.467	0.062	-0.100
-320.056	-200.000	-0.043	0.290
-319.041	-76.560	-0.222	-0.077
-318.026	-188.075	0.275	-0.003
-317.012	167.419	-0.075	-0.105
-315.997	-185.833	-0.328	-0.005
-314.983	120.810	-0.065	-0.080
-313.968	144.193	0.275	-0.362
-312.953	98.219	-0.154	0.175
-311.939	-200.000	-0.025	0.429
-310.924	129.755	0.347	-0.439
-309.910	-65.702	-0.352	-0.139
-308.895	-55.995	0.179	-0.079
-307.880	8.700	0.368	-0.274
-306.866	8.568	0.420	-0.312
-305.851	-200.000	-0.013	-0.309
-304.837	-200.000	-0.003	-0.099
-303.822	162.570	0.124	0.172
-302.807	476.848	0.063	0.142
-301.793	-112.169	0.287	-0.057
-300.778	212.036	-0.145	0.225
-299.764	-104.162	0.261	0.060
-298.749	-39.064	-0.108	0.056
-297.735	-117.575	0.357	0.064
-296.720	146.324	-0.085	-0.112
-295.705	122.502	-0.069	0.085
-294.691	-46.795	0.518	0.250
-293.676	-49.235	-0.375	0.177
-292.662	-41.673	0.270	-0.137
-291.647	-69.682	-0.172	-0.065
-290.632	464.567	0.185	0.409
-289.618	-37.341	0.081	0.043
-288.603	285.932	0.026	-0.046
-287.589	800.000	0.033	-0.118
-286.574	66.557	-0.152	0.153
-285.559	327.196	0.138	0.260
-284.545	67.743	0.125	0.126
-283.530	-34.191	-0.014	0.008
-282.516	-117.920	-0.161	-0.028
-281.501	303.393	0.211	-0.385
-280.486	-156.831	-0.297	0.018
-279.472	214.679	0.066	-0.103
-278.457	-127.563	0.251	0.036
-277.443	-200.000	-0.050	0.297
-276.428	-67.806	0.072	0.028
-275.413	800.000	0.013	0.040
-274.399	70.168	0.121	0.124
-273.384	-200.000	0.061	-0.385
-272.370	-4.271	0.428	-0.292
-271.355	70.131	-0.144	0.147
-270.340	800.000	0.079	-0.254
-269.326	-200.000	0.009	0.053
-268.311	-200.000	-0.005	0.044
-267.297	146.509	-0.019	0.025
-266.282	-200.000	0.015	-0.146
-265.267	-80.535	-0.120	0.039
-264.253	800.000	-0.035	-0.127
-263.238	-200.000	0.028	-0.410
-262.224	-200.000	-0.038	0.379
-261.209	-200.000	0.019	-0.197
-260.195	75.164	0.280	-0.291
-259.180	449.356	0.144	0.314
-258.165	-199.425	-0.077	0.000
-257.151	-138.942	0.389	0.042
-256.136	144.933	0.145	0.191
-255.122	-74.605	-0.289	-0.102
-254.107	217.059	0.230	-0.360
-253.092	-200.000	0.048	0.209
-252.078	-108.314	-0.235	0.050
-251.063	610.961	0.103	0.253
-250.049	85.392	-0.117	0.126
-249.034	-17.070	-0.137	0.085
-248.019	-2.297	0.119	0.082
-247.005	-60.725	-0.460	-0.192
-245.990	-37.293	0.325	-0.171
-244.976	-200.000	0.016	0.207
-243.961	-169.836	0.181	-0.006
-242.946	336.372	0.137	-0.263
-241.932	-200.000	-0.017	-0.374
-240.917	-5.536	0.188	0.127
-239.903	42.171	0.061	-0.054
-238.888	32.808	-0.100	0.085
-237.873	-45.996	0.238	0.116
-236.859	-0.150	-0.278	0.195
-235.844	800.000	0.040	0.137
-234.830	800.000	-0.082	0.270
-233.815	-191.342	0.271	-0.003
-232.800	-83.840	-0.318	-0.100
-231.786	-200.000	0.076	0.362
-230.771	3.170	0.104	-0.074
-229.757	159.790	0.179	-0.245
-228.742	8.137	-0.142	0.105
-227.727	82.632	0.216	-0.231
-226.713	65.531	-0.186	-0.185
-225.698	-102.476	-0.080	-0.019
-224.684	66.960	0.138	0.139
-223.669	-200.000	-0.092	0.000
-222.655	156.685	-0.077	0.105
-221.640	-81.857	-0.148	-0.048
-220.625	-88.453	-0.142	0.042
-219.611	-31.274	-0.107	0.059
-218.596	-36.090	0.164	-0.087
-217.582	143.902	-0.316	-0.415
-216.567	800.000	0.073	0.313
-215.552	-200.000	-0.013	0.146
-214.538	312.820	0.014	-0.026
-213.523	386.921	-0.073	0.148
-212.509	247.968	0.226	0.376
-211.494	-54.031	-0.279	0.125
-210.479	221.097	-0.160	0.252
-209.465	-61.382	-0.178	-0.074
-208.450	-27.675	0.255	-0.146
-207.436	9.355	-0.060	-0.045
-206.421	-91.240	0.409	0.115
-205.406	280.300	-0.152	-0.268
-204.392	69.285	0.068	0.069
-203.377	384.351	0.048	0.096
-202.363	-12.233	-0.102	-0.066
-201.348	-113.285	-0.212	-0.041
-200.333	-101.648	0.295	0.070
-199.319	-89.349	0.273	0.079
-198.304	-106.301	-0.023	0.005
-197.290	-130.024	-0.224	0.030
-196.275	-200.000	0.117	-0.559
-195.260	-200.000	0.056	-0.348
-194.246	178.995	0.182	-0.261
-193.231	109.572	0.077	-0.091
-192.217	330.370	0.183	-0.347
-191.202	800.000	0.071	0.238
-190.187	49.963	-0.172	-0.160
-189.173	800.000	0.014	0.047
-188.158	-200.000	0.024	-0.108
-187.144	-156.542	-0.409	-0.025
-186.129	43.061	0.167	-0.150
-185.114	-147.996	0.110	0.009
-184.100	685.693	0.061	0.157
-183.085	19.908	0.132	-0.105
-182.071	70.750	0.029	0.030
-181.056	-200.000	0.068	0.369
-180.042	222.757	0.038	0.061
-179.027	-194.530	-0.291	-0.002
-178.012	-57.078	0.144	-0.062
-176.998	102.548	-0.103	-0.118
-175.983	-49.780	0.255	0.119
-174.969	-200.000	0.020	0.160
-173.954	511.940	0.066	-0.150
-172.939	780.234	-0.095	0.256
-171.925	24.997	0.022	0.018
-170.910	-200.000	-0.037	0.200
-169.896	-200.000	-0.046	0.538
-168.881	386.660	0.085	0.172
-167.866	67.390	-0.177	-0.178
-166.852	277.058	0.097	0.170
-165.837	-200.000	0.031	-0.249
-164.823	800.000	-0.086	0.294
-163.808	-200.000	0.074	0.333
-162.793	800.000	0.042	0.130
-161.779	800.000	-0.093	-0.305
-160.764	-32.749	0.200	-0.109
-159.750	-15.877	-0.197	-0.123
-158.735	-7.690	0.390	0.258
-157.720	304.510	0.074	0.135
-156.706	692.133	0.077	0.197
-155.691	44.447	-0.091	0.082
-154.677	215.466	-0.115	-0.179
-153.662	-105.359	0.106	-0.024
-152.647	-116.906	-0.306	-0.055
-151.633	-126.936	0.382	0.055
-150.618	-200.000	-0.002	-0.069
-149.604	505.017	-0.078	-0.178
-148.589	-200.000	0.053	0.301
-147.574	-72.222	0.341	0.124
-146.560	-125.650	0.263	-0.039
-145.545	-105.232	-0.351	0.079
-144.531	800.000	-0.094	0.359
-143.516	282.369	0.103	-0.181
-142.502	27.704	-0.146	-0.120
-141.487	-200.000	0.011	0.310
-140.472	385.164	-0.083	-0.167
-139.458	-142.440	0.257	0.025
-138.443	626.490	-0.118	0.292
-137.429	-110.703	0.196	0.040
-136.414	-71.283	0.267	0.098
-135.399	-71.570	0.247	0.091
-134.385	151.200	0.200	0.267
-133.370	800.000	0.044	0.142
-132.356	-124.770	0.256	0.039
-131.341	144.936	-0.129	0.169
-130.326	-87.287	-0.139	0.041
-129.312	-15.510	0.068	-0.042
-128.297	800.000	-0.092	-0.361
-127.283	-200.000	-0.034	-0.147
-126.268	346.613	0.048	-0.093
-125.253	138.803	-0.214	-0.276
-124.239	392.801	-0.178	0.364
-123.224	780.405	-0.083	0.222
-122.210	0.306	0.164	0.115
-121.195	-107.629	0.177	0.038
-120.180	-129.239	0.201	-0.027
-119.166	800.000	-0.114	0.490
-118.151	122.247	-0.245	0.301
-117.137	167.608	0.101	-0.141
-116.122	267.911	-0.088	-0.151
-115.107	-200.000	0.003	-0.032
-114.093	-176.260	0.367	-0.009
-113.078	-9.590	-0.274	0.179
-112.064	-112.304	0.235	-0.046
-111.049	74.656	-0.070	0.072
-110.034	-104.369	0.221	-0.050
-109.020	-200.000	-0.047	-0.342
-108.005	-177.054	-0.022	0.001
-106.991	800.000	-0.068	-0.213
-105.976	800.000	-0.043	-0.117
-104.962	-38.377	-0.185	-0.096
-103.947	800.000	-0.081	-0.289
-102.932	-200.000	-0.038	0.321
-101.918	-134.518	0.056	-0.007
-100.903	531.619	0.129	-0.300
-99.889	315.105	0.091	0.169
-98.874	800.000	-0.037	0.104
-97.859	-134.587	0.386	-0.046
-96.845	59.848	0.375	-0.362
-95.830	33.240	-0.051	0.043
-94.816	-48.626	-0.129	0.061
-93.801	-90.393	-0.277	-0.079
-92.786	-115.507	-0.089	-0.016
-91.772	141.514	-0.121	0.157
-90.757	397.517	0.042	0.086
-89.743	74.858	-0.204	0.210
-88.728	-200.000	-0.021	0.327
-87.713	-144.922	-0.333	0.030
-86.699	-81.502	-0.283	0.091
-85.684	237.490	-0.114	-0.185
-84.670	539.735	0.137	-0.319
-83.655	658.488	0.068	-0.170
-82.640	-200.000	0.029	-0.402
-81.626	55.206	-0.228	0.216
-80.611	14.798	-0.325	0.249
-79.597	204.856	0.189	0.287
-78.582	800.000	-0.087	-0.313
-77.567	-19.455	0.163	0.099
-76.553	-89.683	-0.216	0.062
-75.538	2.862	-0.084	0.060
-74.524	179.973	0.134	-0.192
-73.509	-138.869	0.070	-0.007
-72.494	130.792	0.081	-0.101
-71.480	800.000	-0.040	-0.111
-70.465	-11.902	0.174	-0.112
-69.451	-200.000	0.051	0.258
-68.436	-150.366	-0.172	0.013
-67.422	-200.000	-0.024	-0.146
-66.407	346.559	0.107	-0.206
-65.392	-147.930	-0.261	0.021
-64.378	44.542	-0.152	0.136
-63.363	800.000	-0.017	0.058
-62.349	184.171	-0.149	-0.216
-61.334	86.464	-0.772	-0.832
-60.319	128.663	0.705	0.879
-59.305	800.000	-0.381	-1.131
-58.290	187.194	0.849	1.238
-57.276	342.584	0.617	1.181
-56.261	-200.000	112.662	616.235
-55.246	447.186	1515.995	3261.300
-54.232	143.644	2708.320	3527.724
-53.217	94.929	2320.802	2582.162
-52.203	35.870	1925.378	1655.567
-51.188	29.882	1712.371	1426.371
-50.173	27.489	1670.301	1373.258
-49.159	48.957	1724.358	1582.494
-48.144	47.378	1739.200	1583.980
-47.130	29.623	1698.060	1412.246
-46.115	26.992	1683.185	1379.849
-45.100	26.919	1677.553	1374.625
-44.086	26.703	1675.552	1371.296
-43.071	26.690	1672.954	1369.019
-42.057	26.732	1670.748	1367.478
-41.042	26.733	1668.773	1365.814
-40.027	26.748	1666.346	1363.888
-39.013	26.718	1664.383	1362.000
-37.998	26.663	1662.839	1360.265
-36.984	26.810	1661.253	1360.016
-35.969	26.810	1660.129	1359.043
-34.954	26.910	1658.296	1358.241
-33.940	26.869	1656.714	1356.581
-32.925	26.804	1654.824	1354.496
-31.911	26.804	1653.036	1352.982
-30.896	26.880	1651.365	1352.123
-29.881	26.853	1649.585	1350.414
-28.867	26.852	1648.026	1349.077
-27.852	26.851	1646.470	1347.737
-26.838	26.918	1644.736	1346.764
-25.823	26.879	1644.047	1345.859
-24.809	26.987	1641.866	1344.817
-23.794	26.809	1641.334	1343.008
-22.779	26.873	1639.748	1342.136
-21.765	26.863	1638.400	1340.905
-20.750	26.884	1635.740	1338.828
-19.736	26.961	1634.800	1338.571
-18.721	26.935	1633.920	1337.611
-17.706	26.907	1632.068	1335.833
-16.692	26.846	1631.041	1334.492
-15.677	26.820	1629.683	1333.137
-14.663	26.919	1627.378	1331.923
-13.648	26.882	1626.600	1330.962
-12.633	26.864	1624.888	1329.375
-11.619	26.971	1623.062	1328.610
-10.604	26.866	1621.677	1326.661
-9.590	26.864	1620.994	1326.035
-8.575	26.935	1618.844	1324.739
-7.560	26.911	1618.151	1323.946
-6.546	26.873	1616.905	1322.598
-5.531	26.868	1615.614	1321.450
-4.517	26.894	1614.282	1320.496
-3.502	26.822	1613.497	1319.278
-2.487	26.946	1611.954	1318.870
-1.473	26.838	1599.958	1308.225
-0.458	24.619	1580.974	1276.813
0.556	19.761	1583.806	1248.885
1.571	17.718	1608.901	1253.560
2.586	17.397	1621.392	1260.796
3.600	15.969	1567.689	1208.692
4.615	8.850	1456.469	1075.228
5.629	1.701	1392.867	982.188
6.644	0.380	1384.864	967.982
7.659	0.295	1383.740	966.563
8.673	0.246	1382.709	965.441
9.688	0.210	1380.718	963.736
10.702	0.009	1377.386	960.044
11.717	3.373	1382.848	985.303
12.731	11.146	1394.651	1043.589
13.746	16.125	1401.435	1080.556
14.761	16.729	1401.520	1084.392
15.775	16.128	1398.858	1078.393
16.790	15.115	1396.604	1070.093
17.804	14.491	1394.291	1064.247
18.819	14.007	1393.025	1060.095
19.834	13.749	1391.287	1057.033
20.848	13.547	1390.266	1054.878
21.863	13.264	1389.152	1052.138
22.877	13.059	1387.979	1049.852
23.892	13.085	1386.641	1048.916
24.907	13.101	1386.030	1048.464
25.921	13.069	1385.214	1047.550
26.936	13.149	1384.034	1047.072
27.950	13.180	1383.271	1046.596
28.965	13.203	1382.197	1045.836
29.980	13.211	1381.451	1045.230
30.994	13.329	1380.152	1044.901
32.009	13.359	1379.604	1044.586
33.023	13.371	1377.989	1043.342
34.038	13.248	1377.421	1042.050
35.053	13.239	1375.883	1040.734
36.067	13.265	1375.159	1040.259
37.082	13.263	1374.322	1039.521
38.096	13.237	1373.179	1038.399
39.111	13.313	1372.533	1038.296
40.126	13.249	1371.751	1037.213
41.140	13.162	1370.581	1035.692
42.155	13.125	1369.853	1034.817
43.169	13.106	1370.050	1034.753
44.184	13.072	1370.021	1034.426
45.199	13.189	1369.346	1034.559
46.213	13.069	1368.974	1033.434
47.228	13.219	1367.604	1033.251
48.242	13.238	1366.409	1032.372
49.257	13.136	1365.204	1030.733
50.271	13.106	1363.627	1029.268
51.286	13.166	1362.622	1028.792
52.301	13.222	1361.049	1027.861
53.315	13.186	1360.108	1026.834
54.330	13.171	1359.439	1026.145
55.344	13.144	1358.072	1024.856
56.359	13.091	1357.213	1023.786
57.374	13.056	1356.101	1022.640
58.388	13.116	1355.571	1022.522
59.403	13.095	1355.031	1021.892
60.417	13.118	1354.060	1021.216
61.432	13.196	1352.823	1020.674
62.447	13.063	1352.155	1019.259
63.461	13.017	1351.081	1018.072
64.476	12.993	1350.390	1017.315
65.490	13.066	1348.692	1016.395
66.505	13.061	1347.187	1015.141
67.520	13.156	1346.216	1014.901
68.534	13.066	1344.883	1013.257
69.549	13.049	1343.731	1012.195
70.563	12.973	1342.805	1010.939
71.578	13.026	1341.789	1010.410
72.593	13.048	1340.587	1009.553
73.607	12.930	1340.247	1008.483
74.622	12.944	1339.135	1007.642
75.636	13.001	1338.327	1007.293
76.651	12.987	1337.619	1006.587
77.666	13.001	1337.307	1006.347
78.680	13.001	1336.671	1005.779
79.695	12.936	1335.575	1004.474
80.709	13.084	1334.608	1004.555
81.724	13.032	1334.264	1003.895
82.739	13.151	1333.238	1003.752
83.753	13.162	1332.184	1002.941
84.768	13.185	1331.078	1002.157
85.782	13.297	1329.646	1001.667
86.797	13.147	1328.532	999.834
87.812	13.154	1327.950	999.346
88.826	13.012	1326.902	997.611
89.841	13.065	1325.437	996.743
90.855	13.241	1324.166	996.762
91.870	13.239	1323.492	996.154
92.884	13.251	1322.386	995.306
93.899	13.305	1321.527	994.895
94.914	13.327	1320.737	994.346
95.928	13.234	1320.331	993.391
96.943	13.265	1318.746	992.300
97.957	13.274	1317.827	991.572
98.972	13.157	1317.135	990.261
99.987	13.390	1315.500	990.343
101.001	13.264	1314.632	988.845
102.016	13.252	1314.081	988.274
103.030	13.324	1313.261	988.001
104.045	13.325	1312.229	987.139
105.060	13.213	1311.424	985.780
106.074	13.169	1309.707	984.142
107.089	13.097	1308.526	982.739
108.103	13.147	1307.280	982.009
109.118	13.041	1305.723	980.128
110.133	13.052	1304.831	979.434
111.147	13.179	1302.885	978.637
112.162	13.206	1301.503	977.675
113.176	13.248	1299.895	976.631
114.191	13.297	1298.910	976.093
115.206	13.221	1298.201	975.026
116.220	13.237	1296.764	973.954
117.235	13.236	1295.677	973.042
118.249	13.087	1294.840	971.453
119.264	13.142	1293.983	971.046
120.279	13.175	1292.607	970.123
121.293	13.128	1291.579	968.991
122.308	13.090	1290.704	968.026
123.322	13.115	1289.464	967.158
124.337	13.158	1288.261	966.418
125.352	13.171	1287.408	965.769
126.366	13.063	1286.475	964.352
127.381	13.101	1285.276	963.592
128.395	13.190	1283.858	962.961
129.410	13.169	1283.014	962.123
130.424	13.132	1282.691	961.577
131.439	13.162	1281.669	960.904
132.454	13.256	1280.187	960.253
133.468	13.225	1279.419	959.412
134.483	13.198	1278.747	958.665
135.497	13.195	1277.802	957.856
136.512	13.330	1276.302	957.425
137.527	13.226	1274.973	955.746
138.541	13.193	1273.389	954.279
139.556	13.291	1272.259	953.913
140.570	13.129	1271.771	952.530
141.585	13.279	1270.060	952.031
142.600	13.346	1268.553	951.198
143.614	13.315	1268.402	950.826
144.629	13.352	1266.958	949.871
145.643	13.349	1265.937	949.005
146.658	13.379	1264.552	948.053
147.673	13.310	1263.232	946.583
148.687	13.314	1262.170	945.731
149.702	13.214	1260.978	944.180
150.716	13.276	1259.380	943.256
151.731	13.360	1258.474	942.969
152.746	13.269	1256.934	941.218
153.760	13.399	1255.723	940.964
154.775	13.371	1254.641	939.911
155.789	13.466	1253.676	939.643
156.804	13.419	1252.606	938.496
157.819	13.419	1251.780	937.793
158.833	13.469	1250.962	937.376
159.848	13.498	1250.112	936.823
160.862	13.608	1248.916	936.466
161.877	13.525	1247.533	934.878
162.892	13.371	1246.704	933.307
163.906	13.456	1245.948	933.135
164.921	13.490	1244.676	932.292
165.935	13.539	1243.417	931.544
166.950	13.523	1243.022	931.073
167.964	13.483	1242.649	930.484
168.979	13.485	1241.629	929.653
169.994	13.465	1241.179	929.120
171.008	13.488	1240.456	928.625
172.023	13.584	1238.912	927.927
173.037	13.671	1238.280	927.856
174.052	13.691	1237.448	927.265
175.067	13.589	1236.433	925.852
176.081	13.383	1236.074	924.349
177.096	13.681	1234.453	924.720
178.110	13.652	1233.466	923.732
179.125	13.681	1231.933	922.665
180.140	13.513	1230.957	920.920
181.154	13.693	1229.659	920.869
182.169	13.636	1228.651	919.714
183.183	13.785	1227.359	919.491
184.198	13.739	1226.162	918.259
185.213	13.770	1224.937	917.430
186.227	13.775	1223.888	916.592
187.242	13.828	1223.026	916.160
188.256	13.830	1222.025	915.339
189.271	13.830	1221.077	914.549
190.286	13.725	1220.045	913.114
191.300	13.691	1218.806	911.922
192.315	13.691	1218.597	911.684
193.329	13.642	1217.729	910.685
194.344	13.624	1217.234	910.132
195.359	13.773	1216.656	910.441
196.373	13.764	1216.087	909.881
197.388	13.845	1215.624	909.902
198.402	13.931	1214.910	909.760
199.417	13.963	1214.368	909.445
200.432	13.978	1213.452	908.760
201.446	14.009	1212.456	908.105
202.461	14.080	1211.351	907.584
203.475	14.034	1210.557	906.657
204.490	14.027	1209.235	905.552
205.504	13.991	1208.179	904.485
206.519	13.895	1207.056	903.042
207.534	13.964	1205.732	902.345
208.548	13.929	1204.869	901.430
209.563	13.953	1204.347	901.089
210.577	14.088	1203.028	900.751
211.592	14.044	1202.570	900.093
212.607	14.084	1201.180	899.188
213.621	14.082	1200.334	898.466
214.636	13.991	1199.755	897.462
215.650	14.253	1198.289	897.699
216.665	14.210	1197.513	896.805
217.680	14.155	1196.935	895.994
218.694	14.217	1195.999	895.553
219.709	14.321	1195.316	895.521
220.723	14.220	1194.551	894.323
221.738	14.238	1193.420	893.494
222.753	14.160	1192.984	892.672
223.767	14.258	1192.141	892.489
224.782	14.325	1191.599	892.359
225.796	14.308	1190.731	891.541
226.811	14.344	1190.424	891.427
227.826	14.396	1189.710	891.090
228.840	14.391	1188.491	890.073
229.855	14.355	1188.046	889.468
230.869	14.269	1187.444	888.477
231.884	14.382	1186.472	888.272
232.899	14.416	1185.288	887.491
233.913	14.266	1185.085	886.462
234.928	14.363	1183.862	885.983
235.942	14.348	1183.162	885.301
236.957	14.343	1182.343	884.587
237.972	14.247	1181.932	883.687
238.986	14.492	1180.615	883.924
240.001	14.368	1180.247	882.914
241.015	14.470	1179.073	882.500
242.030	14.343	1178.833	881.566
243.045	14.473	1177.975	881.535
244.059	14.459	1176.868	880.558
245.074	14.501	1176.197	880.196
246.088	14.583	1175.211	879.815
247.103	14.533	1174.742	879.124
248.117	14.564	1173.977	878.637
249.132	14.642	1173.236	878.415
250.147	14.594	1172.737	877.708
251.161	14.687	1172.109	877.650
252.176	14.722	1171.157	877.042
253.190	14.671	1170.590	876.272
254.205	14.858	1170.083	876.795
255.220	14.799	1169.246	875.786
256.234	14.764	1168.997	875.338
257.249	14.795	1167.700	874.448
258.263	14.913	1167.293	874.685
259.278	14.897	1166.711	874.087
260.293	14.976	1165.586	873.578
261.307	14.892	1165.145	872.732
262.322	14.972	1164.787	872.807
263.336	15.006	1164.020	872.333
264.351	14.963	1163.584	871.702
265.366	15.023	1162.715	871.288
266.380	14.996	1162.054	870.575
267.395	15.009	1161.358	870.043
268.409	14.903	1160.447	868.732
269.424	14.998	1160.172	868.946
270.439	15.031	1159.245	868.345
271.453	14.955	1158.522	867.329
272.468	15.050	1157.992	867.352
273.482	15.099	1156.849	866.668
274.497	15.037	1156.378	865.919
275.512	15.040	1155.938	865.533
276.526	15.079	1154.734	864.753
277.541	15.162	1153.827	864.424
278.555	15.089	1153.211	863.513
279.570	15.281	1152.588	863.959
280.585	15.072	1152.288	862.580
281.599	15.081	1151.499	861.960
282.614	15.230	1149.678	861.284
283.628	15.299	1148.789	860.899
284.643	15.215	1147.787	859.640
285.657	15.225	1147.403	859.327
286.672	15.269	1146.038	858.453
287.687	15.235	1145.585	857.868
288.701	15.301	1144.369	857.216
289.716	15.285	1143.535	856.436
290.730	15.282	1143.237	856.119
291.745	15.359	1142.029	855.531
292.760	15.365	1141.581	855.153
293.774	15.459	1141.116	855.208
294.789	15.573	1140.548	855.286
295.803	15.457	1140.133	854.308
296.818	15.335	1139.288	852.977
297.833	15.375	1138.224	852.312
298.847	15.343	1137.732	851.705
299.862	15.408	1136.783	851.250
300.876	15.359	1136.268	850.538
301.891	15.559	1135.069	850.579
302.906	15.495	1134.458	849.719
303.920	15.706	1133.540	850.026
304.935	15.608	1133.403	849.353
305.949	15.549	1132.294	848.146
306.964	15.665	1132.160	848.558
307.979	15.654	1130.983	847.548
308.993	15.658	1130.337	847.008
310.008	15.593	1129.744	846.159
311.022	15.665	1128.999	845.890
312.037	15.668	1127.933	845.032
313.052	15.669	1126.783	844.099
314.066	15.622	1126.029	843.222
315.081	15.614	1125.345	842.598
316.095	15.582	1124.776	841.936
317.110	15.634	1124.028	841.561
318.125	15.705	1123.132	841.172
319.139	15.684	1121.992	840.138
320.154	15.696	1121.871	840.034
321.168	15.672	1121.458	839.533
322.183	15.699	1120.806	839.102
323.197	15.722	1119.844	838.422
324.212	15.744	1119.443	838.158
325.227	15.775	1118.905	837.834
326.241	15.828	1118.234	837.521
327.256	15.725	1117.274	836.220
328.270	15.754	1116.307	835.562
329.285	15.693	1115.335	834.459
330.300	15.898	1114.191	834.545
331.314	15.801	1113.605	833.555
332.329	15.811	1112.405	832.631
333.343	15.946	1111.213	832.331
334.358	15.883	1110.814	831.650
335.373	15.878	1110.002	830.942
336.387	15.976	1109.162	830.725
337.402	15.918	1108.610	829.949
338.416	16.029	1107.933	829.918
339.431	16.062	1107.577	829.737
340.446	16.056	1106.979	829.187
341.460	16.148	1106.082	828.893
342.475	16.105	1105.443	828.129
343.489	16.081	1104.577	827.291
344.504	16.154	1103.137	826.497
345.519	16.215	1102.541	826.275
346.533	16.050	1101.787	824.829
347.548	16.263	1100.942	825.164
348.562	16.281	1100.222	824.640
349.577	16.269	1099.455	823.933
350.592	16.179	1098.833	822.956
351.606	16.243	1097.821	822.440
352.621	16.052	1097.533	821.218
353.635	16.228	1096.861	821.503
354.650	16.171	1096.036	820.535
355.665	16.281	1095.209	820.376
356.679	16.274	1094.514	819.748
357.694	16.375	1093.646	819.515
358.708	16.336	1093.490	819.140
359.723	16.363	1092.823	818.694
360.738	16.351	1092.149	818.063
361.752	16.294	1091.697	817.377
362.767	16.371	1091.213	817.314
363.781	16.326	1090.530	816.510
364.796	16.423	1089.677	816.269
365.810	16.463	1089.339	816.135
366.825	16.441	1088.833	815.581
367.840	16.587	1088.144	815.693
368.854	16.535	1087.473	814.869
369.869	16.631	1086.426	814.472
370.883	16.502	1085.979	813.447
371.898	16.422	1085.390	812.551
372.913	16.583	1084.362	812.481
373.927	16.657	1084.013	812.503
374.942	16.563	1083.935	811.920
375.956	16.542	1082.855	810.938
376.971	16.497	1082.700	810.537
377.986	16.563	1081.777	810.091
379.000	16.600	1081.368	809.890
380.015	16.726	1080.281	809.604
381.029	16.776	1079.934	809.510
382.044	16.725	1079.023	808.515
383.059	16.748	1078.816	808.398
384.073	16.769	1077.637	807.541
385.088	16.777	1076.703	806.807
386.102	16.776	1075.541	805.860
387.117	16.783	1074.770	805.246
388.132	16.847	1073.781	804.741
389.146	16.733	1073.073	803.594
390.161	16.771	1071.990	802.892
391.175	16.771	1071.557	802.499
392.190	16.783	1070.942	802.023
393.205	16.831	1070.219	801.639
394.219	16.752	1069.412	800.588
395.234	16.940	1068.488	800.716
396.248	16.868	1067.562	799.608
397.263	16.921	1066.202	798.772
398.278	16.875	1065.951	798.293
399.292	16.820	1065.329	797.500
400.307	16.804	1064.712	796.893
401.321	16.914	1063.828	796.678
402.336	16.916	1063.255	796.188
403.350	16.986	1062.249	795.690
404.365	17.020	1061.616	795.306
405.380	17.038	1061.042	794.888
406.394	17.007	1060.145	794.004
407.409	17.084	1059.190	793.578
408.423	17.130	1058.700	793.355
409.438	17.049	1058.346	792.640
410.453	17.226	1057.289	792.604
411.467	17.195	1056.656	791.917
412.482	17.168	1056.090	791.296
413.496	17.134	1055.313	790.486
414.511	17.243	1054.390	790.230
415.526	17.236	1054.462	790.182
416.540	17.261	1053.982	789.867
417.555	17.387	1053.185	789.787
418.569	17.246	1053.116	789.007
419.584	17.261	1052.249	788.361
420.599	17.372	1051.799	788.467
421.613	105.194	1328.234	1480.036
422.628	96.823	1368.450	1480.133
