DTS Sentinel unit serial number:	SN413079Multiplexer serial number:	ORYXHardware model number:	OX4-SRSoftware version number:	ORYX F/W v4.00 Oryx Data Collector v3.7.2.0data status	okinstallation	princeton_trtdifferential loss correction	single-endedforward channel	channel 2reverse channel	N/Adate	2019/09/19time	02:11:35forward acquisition time	60.00reverse acquisition time	0.00gamma	496.2192k internal	0.2352k external	0.2352temperature offset calibration	1.0016default loss term (dB/km)	0.3790temperature slope calibration	1.0000multiplexer offset coefficient	1.0000multiplexer slope coefficient	1.0000fibre end	0.00T internal ref (°C)	21.12T ext. ref 1 (°C)	0.67T ext. ref 2 (°C)	14.73length (m)	temperature (°C)	Stokes	anti-Stokes-747.200	-200.000	0.009	0.120
-746.185	-12.805	-0.214	-0.139
-745.171	-141.885	0.163	-0.016
-744.156	-125.910	-0.252	0.038
-743.142	147.702	0.223	0.299
-742.127	-45.143	-0.269	0.133
-741.112	-14.160	-0.092	-0.059
-740.098	6.594	-0.151	0.112
-739.083	-81.504	0.231	0.076
-738.069	72.000	-0.228	0.237
-737.054	674.530	0.119	0.308
-736.039	-36.566	-0.442	-0.237
-735.025	-54.186	0.384	0.174
-734.010	647.326	-0.046	-0.117
-732.996	194.340	0.266	-0.402
-731.981	219.667	-0.258	0.412
-730.966	200.180	-0.131	-0.200
-729.952	-200.000	0.033	-0.315
-728.937	-64.553	-0.445	0.180
-727.923	-77.024	-0.193	0.067
-726.908	-200.000	0.010	0.061
-725.894	-1.099	0.046	0.032
-724.879	47.327	0.090	0.084
-723.864	102.243	-0.286	-0.333
-722.850	-133.643	0.103	-0.013
-721.835	-68.570	0.290	0.112
-720.821	800.000	0.131	-0.374
-719.806	-200.000	-0.002	-0.024
-718.791	358.462	-0.072	-0.144
-717.777	-200.000	0.001	0.051
-716.762	-200.000	0.018	0.338
-715.748	101.658	-0.079	-0.091
-714.733	73.096	-0.040	0.041
-713.718	78.806	-0.096	-0.102
-712.704	11.538	0.122	0.093
-711.689	-71.600	0.176	-0.066
-710.675	303.685	-0.118	-0.218
-709.660	-91.432	0.160	0.046
-708.645	-59.779	0.190	0.081
-707.631	-73.686	0.212	-0.077
-706.616	-200.000	-0.039	-0.198
-705.602	145.480	-0.167	-0.223
-704.587	-200.000	-0.024	-0.140
-703.572	800.000	-0.021	-0.063
-702.558	-200.000	0.037	-0.342
-701.543	-118.916	0.149	0.026
-700.529	467.494	0.109	0.242
-699.514	597.672	-0.075	0.186
-698.499	407.990	-0.103	-0.217
-697.485	118.053	-0.038	0.047
-696.470	-125.246	0.101	-0.015
-695.456	800.000	0.040	-0.157
-694.441	-152.492	0.415	0.030
-693.426	18.122	-0.097	-0.077
-692.412	177.144	0.061	-0.088
-691.397	-200.000	0.034	-0.309
-690.383	-200.000	0.031	-0.466
-689.368	182.315	-0.194	-0.284
-688.354	-200.000	0.005	-0.069
-687.339	73.663	-0.183	-0.191
-686.324	62.648	0.231	-0.230
-685.310	-200.000	0.027	-0.382
-684.295	-6.043	0.097	0.066
-683.281	183.156	-0.044	0.065
-682.266	-200.000	0.003	0.042
-681.251	120.298	-0.031	-0.038
-680.237	-48.459	-0.302	0.145
-679.222	86.713	0.306	0.336
-678.208	-59.412	0.154	-0.066
-677.193	18.082	0.177	-0.140
-676.178	5.414	-0.349	-0.256
-675.164	321.705	-0.052	0.099
-674.149	-72.981	-0.082	-0.030
-673.135	-91.309	-0.205	-0.058
-672.120	-163.017	-0.144	-0.007
-671.105	800.000	0.042	0.145
-670.091	800.000	0.073	0.306
-669.076	-53.843	0.347	-0.158
-668.062	-96.460	0.207	-0.054
-667.047	716.793	-0.084	-0.222
-666.032	369.636	0.215	-0.433
-665.018	-200.000	0.012	-0.058
-664.003	-144.589	-0.159	0.015
-662.989	-82.864	-0.057	0.018
-661.974	-147.540	-0.164	-0.014
-660.959	-29.679	-0.311	-0.176
-659.945	62.577	0.100	0.099
-658.930	-85.996	0.073	0.022
-657.916	202.212	0.271	-0.415
-656.901	-140.049	0.304	-0.032
-655.886	-25.803	-0.516	0.302
-654.872	633.575	0.153	-0.385
-653.857	-7.360	0.276	-0.186
-652.843	-74.456	0.112	0.040
-651.828	-141.818	0.102	-0.010
-650.814	-172.420	-0.409	0.013
-649.799	287.945	0.207	-0.371
-648.784	186.606	0.013	0.019
-647.770	265.560	-0.209	-0.361
-646.755	116.819	-0.170	0.207
-645.741	-49.198	-0.097	-0.046
-644.726	-72.142	0.331	0.122
-643.711	-154.661	0.379	-0.025
-642.697	-57.913	-0.091	-0.039
-641.682	-152.384	0.169	0.012
-640.668	-136.418	-0.417	-0.048
-639.653	9.489	-0.070	-0.053
-638.638	320.198	-0.062	-0.117
-637.624	14.976	0.091	-0.071
-636.609	-65.513	-0.389	0.155
-635.595	63.046	0.339	0.337
-634.580	-136.644	-0.094	-0.011
-633.565	536.859	0.076	-0.178
-632.551	-200.000	-0.010	-0.116
-631.536	-94.319	0.092	0.025
-630.522	-87.989	-0.121	0.036
-629.507	-92.462	-0.404	-0.113
-628.492	82.970	0.164	0.178
-627.478	800.000	0.025	-0.086
-626.463	492.984	0.095	0.217
-625.449	-40.942	0.311	0.160
-624.434	-200.000	-0.054	0.266
-623.419	-1.625	-0.167	-0.117
-622.405	583.011	0.111	-0.269
-621.390	-200.000	-0.051	0.379
-620.376	31.115	0.051	0.044
-619.361	-132.291	-0.196	0.025
-618.346	-144.138	0.217	-0.020
-617.332	-21.759	-0.094	0.057
-616.317	-41.867	0.129	-0.066
-615.303	-175.075	0.353	-0.010
-614.288	-52.658	0.164	-0.075
-613.273	-26.600	-0.238	0.138
-612.259	-7.752	0.373	0.250
-611.244	258.635	0.178	-0.304
-610.230	-200.000	-0.029	-0.177
-609.215	286.583	0.245	-0.440
-608.201	-167.464	-0.280	-0.011
-607.186	-161.129	-0.064	0.003
-606.171	117.246	-0.167	0.204
-605.157	142.078	-0.162	0.213
-604.142	81.691	0.116	0.125
-603.128	-27.393	-0.184	0.106
-602.113	108.726	0.092	0.109
-601.098	636.916	-0.155	-0.391
-600.084	-90.855	-0.194	0.056
-599.069	638.395	0.147	0.371
-598.055	50.775	-0.172	0.161
-597.040	800.000	0.031	0.131
-596.025	-200.000	0.007	0.179
-595.011	-69.056	-0.047	-0.018
-593.996	-82.305	-0.146	-0.047
-592.982	-125.095	0.150	-0.023
-591.967	-200.000	0.021	0.145
-590.952	800.000	0.156	-0.442
-589.938	-18.652	-0.091	-0.056
-588.923	-200.000	0.021	0.159
-587.909	-200.000	0.014	0.134
-586.894	227.295	-0.288	-0.465
-585.879	-140.247	-0.296	0.031
-584.865	800.000	0.076	-0.235
-583.850	105.938	0.225	0.264
-582.836	-57.878	0.029	-0.013
-581.821	319.498	-0.052	0.097
-580.806	113.314	0.158	0.190
-579.792	-165.147	-0.287	-0.013
-578.777	50.898	-0.211	-0.198
-577.763	-143.457	0.282	-0.027
-576.748	36.131	-0.148	-0.129
-575.733	-84.578	0.241	-0.075
-574.719	-142.904	-0.158	0.015
-573.704	669.403	0.088	-0.225
-572.690	-23.629	-0.183	0.109
-571.675	-20.479	0.245	0.149
-570.661	-200.000	0.033	-0.245
-569.646	800.000	0.082	0.235
-568.631	-114.193	0.219	0.042
-567.617	97.340	-0.341	-0.387
-566.602	-200.000	0.011	0.222
-565.588	484.163	-0.076	0.171
-564.573	-200.000	0.077	0.372
-563.558	206.105	-0.103	0.159
-562.544	463.283	-0.010	0.021
-561.529	-38.546	0.166	-0.087
-560.515	-200.000	0.075	0.520
-559.500	38.224	-0.314	0.277
-558.485	628.906	0.104	0.261
-557.471	800.000	0.164	-0.568
-556.456	-131.443	0.246	-0.032
-555.442	-170.116	0.199	0.007
-554.427	-25.861	-0.053	0.031
-553.412	-197.099	-0.232	-0.001
-552.398	71.177	0.022	-0.023
-551.383	-71.995	0.182	-0.067
-550.369	-200.000	0.004	-0.092
-549.354	-200.000	0.007	0.062
-548.339	-82.475	-0.236	0.076
-547.325	800.000	0.072	0.208
-546.310	193.454	0.119	0.178
-545.296	-200.000	-0.012	0.230
-544.281	211.647	0.126	0.196
-543.266	-163.156	0.184	-0.009
-542.252	800.000	0.128	0.357
-541.237	-68.369	0.149	0.057
-540.223	-88.588	0.153	0.045
-539.208	800.000	-0.100	0.319
-538.193	-200.000	-0.017	0.213
-537.179	794.002	0.045	0.124
-536.164	170.622	0.198	0.280
-535.150	800.000	-0.045	-0.125
-534.135	-118.495	0.068	-0.012
-533.121	800.000	-0.113	-0.441
-532.106	-115.192	0.135	-0.025
-531.091	-200.000	0.030	0.272
-530.077	-53.471	-0.326	0.148
-529.062	-140.116	0.201	-0.021
-528.048	571.751	0.095	-0.230
-527.033	435.458	-0.128	0.275
-526.018	631.663	-0.085	0.213
-525.004	34.395	0.043	0.037
-523.989	8.365	-0.102	-0.076
-522.975	8.822	-0.165	0.123
-521.960	761.555	0.088	0.236
-520.945	-200.000	0.023	-0.138
-519.931	-55.946	0.097	0.043
-518.916	281.340	0.086	-0.152
-517.902	37.869	0.429	-0.377
-516.887	800.000	0.043	0.130
-515.872	308.994	0.064	0.118
-514.858	-200.000	-0.017	-0.265
-513.843	173.015	0.066	-0.095
-512.829	20.917	-0.094	0.075
-511.814	-24.791	-0.194	0.114
-510.799	-100.195	0.152	0.037
-509.785	-46.421	-0.176	-0.086
-508.770	-42.262	0.163	0.082
-507.756	-89.022	-0.097	0.028
-506.741	78.612	-0.030	-0.032
-505.726	-200.000	-0.025	-0.184
-504.712	-83.496	-0.085	0.027
-503.697	359.657	-0.093	-0.184
-502.683	130.929	0.068	-0.087
-501.668	-28.275	0.261	0.149
-500.653	135.345	0.240	0.309
-499.639	-200.000	0.002	-0.030
-498.624	577.351	0.106	-0.256
-497.610	-114.117	-0.391	0.075
-496.595	-74.124	-0.322	-0.115
-495.581	2.255	-0.461	0.329
-494.566	-200.000	0.003	0.248
-493.551	134.164	0.040	-0.051
-492.537	113.119	-0.173	0.208
-491.522	-28.482	-0.230	-0.131
-490.508	-200.000	-0.028	-0.214
-489.493	-167.526	-0.417	-0.016
-488.478	19.046	-0.132	0.104
-487.464	111.225	0.108	-0.128
-486.449	-13.278	-0.134	0.086
-485.435	-200.000	-0.004	-0.295
-484.420	-53.558	-0.114	0.051
-483.405	-200.000	-0.094	-0.426
-482.391	800.000	-0.062	-0.205
-481.376	239.569	-0.062	-0.102
-480.362	-168.843	0.300	0.011
-479.347	247.358	-0.080	-0.133
-478.332	502.763	0.105	-0.240
-477.318	153.422	0.215	0.291
-476.303	-106.157	-0.439	-0.097
-475.289	-155.586	0.072	-0.005
-474.274	-113.204	-0.174	0.034
-473.259	5.975	0.079	0.058
-472.245	-200.000	-0.013	0.271
-471.230	-99.850	0.301	-0.074
-470.216	-102.183	0.310	-0.074
-469.201	-1.108	0.169	-0.118
-468.186	-137.790	0.193	-0.021
-467.172	17.909	-0.141	-0.110
-466.157	-200.000	0.020	-0.123
-465.143	382.796	-0.047	-0.096
-464.128	-200.000	-0.079	-0.585
-463.113	-31.669	0.186	-0.103
-462.099	-35.849	0.154	-0.082
-461.084	-72.746	-0.084	-0.030
-460.070	-6.112	-0.129	-0.087
-459.055	-31.250	0.151	0.084
-458.040	-200.000	-0.018	-0.138
-457.026	-200.000	-0.028	-0.188
-456.011	-149.549	0.167	-0.013
-454.997	-144.754	0.240	-0.022
-453.982	800.000	-0.048	-0.167
-452.968	90.811	0.187	0.207
-451.953	800.000	-0.021	-0.069
-450.938	426.838	0.186	-0.395
-449.924	-127.204	-0.212	-0.031
-448.909	-74.510	-0.257	-0.091
-447.895	-48.443	0.218	0.104
-446.880	-53.535	-0.189	-0.085
-445.865	643.591	0.064	-0.161
-444.851	-121.769	0.057	-0.009
-443.836	70.160	0.220	-0.224
-442.822	-200.000	0.006	0.204
-441.807	-81.064	0.355	0.116
-440.792	-140.716	-0.247	0.025
-439.778	-62.038	0.327	0.135
-438.763	-43.458	-0.269	-0.134
-437.749	-56.080	0.133	0.059
-436.734	-57.384	-0.393	-0.170
-435.719	24.664	0.150	0.122
-434.705	108.079	-0.117	0.138
-433.690	-200.000	-0.009	-0.229
-432.676	800.000	0.046	-0.131
-431.661	-200.000	0.009	0.331
-430.646	799.372	0.056	-0.152
-429.632	162.717	-0.230	-0.318
-428.617	-90.820	0.142	0.040
-427.603	800.000	0.077	0.254
-426.588	-200.000	-0.042	0.317
-425.573	-34.427	-0.327	0.176
-424.559	-141.701	-0.261	-0.026
-423.544	45.268	-0.138	-0.126
-422.530	172.397	0.069	-0.097
-421.515	-200.000	0.005	0.090
-420.500	169.752	-0.148	0.209
-419.486	618.137	-0.074	-0.183
-418.471	-58.627	-0.316	-0.135
-417.457	-125.128	-0.328	0.049
-416.442	308.531	0.068	0.125
-415.428	800.000	0.044	0.134
-414.413	-200.000	0.028	0.157
-413.398	-200.000	0.057	-0.408
-412.384	-155.927	0.316	0.020
-411.369	34.802	-0.320	-0.276
-410.355	-200.000	0.100	-0.474
-409.340	329.444	-0.072	-0.136
-408.325	-76.359	-0.165	0.057
-407.311	-180.472	-0.255	0.005
-406.296	-200.000	-0.042	-0.334
-405.282	800.000	-0.105	-0.304
-404.267	177.906	0.057	0.082
-403.252	800.000	-0.078	0.280
-402.238	-200.000	-0.065	-0.329
-401.223	37.677	0.199	0.174
-400.209	0.602	0.144	0.101
-399.194	-67.608	0.152	-0.059
-398.179	-107.432	-0.289	0.062
-397.165	-111.004	0.173	-0.035
-396.150	111.062	-0.079	-0.094
-395.136	-33.564	-0.152	0.083
-394.121	75.272	-0.077	-0.080
-393.106	-190.670	-0.072	0.001
-392.092	-200.000	-0.418	0.002
-391.077	110.360	0.062	0.074
-390.063	800.000	-0.058	-0.236
-389.048	-128.271	-0.394	0.055
-388.033	-88.321	0.355	-0.105
-387.019	169.707	0.097	-0.137
-386.004	-47.932	-0.274	-0.130
-384.990	103.043	-0.139	-0.160
-383.975	55.799	-0.081	-0.078
-382.960	534.978	-0.127	-0.297
-381.946	777.763	0.046	-0.124
-380.931	-166.762	0.077	0.003
-379.917	116.852	0.165	0.200
-378.902	-161.764	0.142	-0.007
-377.888	187.043	-0.218	-0.320
-376.873	-114.036	-0.261	-0.050
-375.858	129.799	-0.098	0.123
-374.844	800.000	-0.045	-0.161
-373.829	-167.095	0.363	-0.015
-372.815	159.009	-0.034	0.046
-371.800	-64.035	0.088	0.035
-370.785	-61.093	0.286	0.119
-369.771	152.274	-0.196	-0.263
-368.756	-33.092	0.140	0.076
-367.742	800.000	-0.064	0.257
-366.727	-142.585	0.124	0.012
-365.712	-200.000	-0.008	0.402
-364.698	-164.153	0.206	0.009
-363.683	-178.884	0.171	-0.004
-362.669	94.446	0.147	-0.165
-361.654	-164.937	0.158	-0.007
-360.639	-167.252	-0.288	0.011
-359.625	800.000	-0.081	0.278
-358.610	-59.125	0.226	0.096
-357.596	-200.000	-0.030	0.159
-356.581	-172.562	0.124	-0.004
-355.566	105.157	0.137	-0.159
-354.552	800.000	0.062	-0.257
-353.537	-200.000	0.038	-0.170
-352.523	-132.765	-0.497	0.062
-351.508	-200.000	-0.056	0.443
-350.493	121.261	0.118	-0.145
-349.479	-200.000	-0.072	-0.311
-348.464	-102.219	0.276	-0.065
-347.450	-200.000	-0.027	-0.174
-346.435	-200.000	-0.003	-0.116
-345.420	-200.000	-0.022	0.348
-344.406	800.000	0.112	-0.323
-343.391	-37.521	0.418	-0.219
-342.377	-72.849	-0.102	-0.037
-341.362	87.785	-0.092	-0.100
-340.348	32.040	-0.084	-0.071
-339.333	240.171	0.080	-0.131
-338.318	17.476	0.328	-0.256
-337.304	-184.460	-0.090	-0.001
-336.289	-70.512	-0.183	0.068
-335.275	800.000	0.017	0.056
-334.260	201.756	-0.068	-0.103
-333.245	-142.605	0.069	-0.007
-332.231	82.136	-0.275	-0.293
-331.216	-200.000	0.024	0.246
-330.202	-200.000	-0.039	0.202
-329.187	35.673	0.088	0.076
-328.172	200.377	0.168	0.253
-327.158	-22.077	-0.339	-0.202
-326.143	-200.000	0.369	0.000
-325.129	-138.134	-0.216	-0.024
-324.114	25.655	0.158	-0.129
-323.099	35.655	0.152	-0.131
-322.085	122.939	0.160	0.197
-321.070	800.000	-0.066	-0.255
-320.056	800.000	0.057	0.179
-319.041	-76.120	0.538	0.186
-318.026	83.519	0.132	-0.141
-317.012	255.077	0.152	0.256
-315.997	-40.780	-0.288	0.146
-314.983	-104.257	-0.454	-0.103
-313.968	-10.676	-0.423	0.275
-312.953	-7.780	-0.165	0.109
-311.939	-200.000	-0.005	0.195
-310.924	-74.217	0.191	-0.068
-309.910	679.842	0.032	-0.083
-308.895	-43.368	0.128	-0.064
-307.880	-114.271	-0.168	-0.032
-306.866	683.445	0.115	-0.294
-305.851	74.068	-0.214	0.220
-304.837	58.953	-0.239	0.231
-303.822	800.000	-0.005	0.015
-302.807	-60.939	-0.157	0.065
-301.793	-97.779	-0.330	0.084
-300.778	-17.561	-0.019	-0.012
-299.764	269.910	-0.153	-0.263
-298.749	-51.823	0.199	-0.091
-297.735	208.368	0.189	0.290
-296.720	143.697	0.350	-0.457
-295.705	593.268	0.142	0.344
-294.691	88.927	-0.076	-0.083
-293.676	-200.000	0.017	-0.390
-292.662	-200.000	-0.068	0.517
-291.647	54.100	0.141	0.133
-290.632	-136.638	0.062	-0.007
-289.618	-13.953	-0.126	0.079
-288.603	-88.582	0.216	-0.063
-287.589	-200.000	-0.061	0.499
-286.574	-200.000	-0.011	-0.141
-285.559	364.185	0.051	0.100
-284.545	-200.000	0.036	-0.325
-283.530	800.000	-0.103	-0.401
-282.516	-74.612	-0.118	0.042
-281.501	647.374	-0.068	0.170
-280.486	-15.154	-0.248	0.156
-279.472	-69.250	0.101	-0.038
-278.457	31.308	-0.127	-0.106
-277.443	27.624	-0.050	-0.041
-276.428	-113.612	0.289	-0.055
-275.413	15.605	0.156	-0.120
-274.399	33.457	-0.307	0.261
-273.384	59.535	0.248	-0.239
-272.370	47.808	0.140	-0.128
-271.355	-153.741	-0.181	-0.012
-270.340	19.943	0.087	-0.068
-269.326	-200.000	-0.047	-0.327
-268.311	-52.521	-0.245	-0.111
-267.297	137.413	0.102	-0.131
-266.282	-200.000	0.010	-0.190
-265.267	-52.425	-0.031	-0.014
-264.253	-124.934	-0.156	-0.024
-263.238	800.000	0.059	0.212
-262.224	800.000	-0.058	-0.185
-261.209	20.696	0.162	0.128
-260.195	195.132	-0.067	-0.099
-259.180	800.000	0.038	-0.151
-258.165	56.050	-0.189	0.179
-257.151	214.568	0.101	-0.157
-256.136	338.618	-0.108	0.206
-255.122	800.000	0.092	-0.279
-254.107	335.621	0.043	-0.082
-253.092	-200.000	-0.012	0.335
-252.078	15.069	0.200	0.154
-251.063	-13.403	-0.179	-0.113
-250.049	418.146	0.119	0.249
-249.034	-200.000	-0.058	0.318
-248.019	-200.000	0.018	-0.121
-247.005	-84.962	0.263	-0.081
-245.990	-200.000	0.021	0.477
-244.976	-23.134	-0.090	-0.053
-243.961	-94.852	0.128	-0.034
-242.946	-200.000	0.013	0.303
-241.932	10.360	-0.036	0.027
-240.917	-200.000	0.038	-0.246
-239.903	208.286	0.058	0.089
-238.888	667.589	0.068	-0.173
-237.873	-116.460	0.392	0.071
-236.859	-89.269	0.376	0.108
-235.844	244.918	-0.092	0.151
-234.830	563.615	-0.097	0.231
-233.815	-145.605	-0.138	0.012
-232.800	-20.509	0.120	0.072
-231.786	71.274	0.259	0.263
-230.771	-83.860	-0.148	-0.046
-229.757	800.000	-0.063	0.222
-228.742	800.000	0.017	0.058
-227.727	63.786	0.226	0.222
-226.713	102.514	-0.225	0.257
-225.698	-200.000	0.081	0.380
-224.684	385.794	0.079	-0.159
-223.669	147.867	0.101	-0.132
-222.655	-190.894	0.317	-0.003
-221.640	-26.464	-0.287	-0.164
-220.625	460.542	0.210	-0.458
-219.611	170.200	-0.160	0.224
-218.596	-143.420	-0.205	-0.019
-217.582	-200.000	0.024	-0.188
-216.567	104.785	-0.148	-0.171
-215.552	-16.918	0.096	0.059
-214.538	-6.491	0.054	0.036
-213.523	235.610	-0.225	0.364
-212.509	-47.317	-0.216	0.103
-211.494	800.000	-0.093	-0.324
-210.479	48.934	0.205	-0.188
-209.465	800.000	0.084	-0.279
-208.450	17.742	0.106	-0.083
-207.436	-119.968	-0.234	-0.039
-206.421	338.517	0.107	0.203
-205.406	106.980	0.223	-0.259
-204.392	800.000	-0.072	0.252
-203.377	-24.288	0.081	0.047
-202.363	-200.000	-0.054	0.234
-201.348	285.466	0.140	0.246
-200.333	-200.000	0.041	-0.366
-199.319	-52.598	0.041	0.018
-198.304	344.278	-0.052	0.100
-197.290	-82.111	-0.178	0.057
-196.275	-159.336	-0.310	-0.017
-195.260	800.000	-0.027	0.095
-194.246	32.048	0.014	0.011
-193.231	-200.000	0.027	0.176
-192.217	281.438	0.122	0.213
-191.202	-53.268	-0.167	0.075
-190.187	28.800	-0.156	0.129
-189.173	800.000	-0.072	0.250
-188.158	-95.654	0.405	0.106
-187.144	455.587	-0.073	0.158
-186.129	129.236	-0.117	-0.146
-185.114	-108.194	0.475	0.100
-184.100	-77.462	-0.210	-0.071
-183.085	613.574	0.070	0.172
-182.071	-2.241	-0.105	-0.072
-181.056	-200.000	-0.029	0.174
-180.042	-200.000	0.011	0.113
-179.027	-66.517	-0.098	-0.038
-178.012	-200.000	0.051	0.277
-176.998	396.924	0.046	0.094
-175.983	581.347	-0.134	-0.320
-174.969	74.150	-0.174	0.178
-173.954	-12.762	-0.250	-0.159
-172.939	-200.000	-0.027	0.128
-171.925	-108.315	0.241	0.051
-170.910	475.063	-0.069	-0.151
-169.896	-200.000	0.005	0.158
-168.881	111.533	-0.150	-0.177
-167.866	96.960	-0.059	-0.065
-166.852	-28.366	0.254	-0.143
-165.837	-77.026	-0.127	0.043
-164.823	-150.033	0.093	0.007
-163.808	-200.000	-0.014	-0.149
-162.793	358.680	-0.089	0.172
-161.779	-200.000	0.005	0.141
-160.764	-109.920	0.178	0.036
-159.750	-132.856	0.002	0.000
-158.735	-60.647	0.160	0.066
-157.720	-200.000	-0.015	-0.226
-156.706	362.532	-0.157	-0.307
-155.691	-13.079	-0.265	0.168
-154.677	-200.000	0.026	-0.186
-153.662	24.740	0.169	-0.137
-152.647	-12.005	-0.135	0.086
-151.633	-200.000	0.272	-0.001
-150.618	236.233	0.133	-0.215
-149.604	30.409	-0.265	-0.221
-148.589	-200.000	0.016	-0.157
-147.574	-84.369	-0.341	0.105
-146.560	-200.000	-0.035	0.180
-145.545	-146.051	-0.316	0.027
-144.531	-197.484	0.082	0.000
-143.516	255.438	-0.107	0.179
-142.502	-110.262	0.092	0.019
-141.487	230.909	0.165	-0.264
-140.472	48.727	0.105	0.096
-139.458	-102.204	-0.169	0.040
-138.443	-66.390	-0.091	-0.035
-137.429	-138.680	-0.152	-0.016
-136.414	-168.031	-0.276	-0.010
-135.399	-41.527	0.301	0.151
-134.385	-20.504	-0.192	0.115
-133.370	-99.369	-0.355	0.087
-132.356	-195.120	-0.154	-0.001
-131.341	-69.627	-0.234	-0.087
-130.326	-200.000	0.008	0.289
-129.312	-69.932	-0.159	-0.059
-128.297	89.381	0.137	0.148
-127.283	-200.000	-0.010	-0.046
-126.268	32.294	0.054	-0.045
-125.253	249.425	0.219	-0.361
-124.239	-200.000	0.011	-0.302
-123.224	-110.995	-0.069	0.014
-122.210	-140.026	0.400	0.041
-121.195	129.978	-0.031	0.039
-120.180	800.000	-0.059	-0.234
-119.166	-200.000	-0.284	-0.000
-118.151	91.991	-0.136	-0.149
-117.137	-200.000	-0.034	-0.556
-116.122	-66.543	-0.249	-0.096
-115.107	-147.456	0.074	-0.006
-114.093	210.292	0.251	-0.383
-113.078	247.547	0.057	-0.093
-112.064	-33.142	-0.159	-0.086
-111.049	44.091	0.122	-0.109
-110.034	-113.219	0.215	-0.041
-109.020	-200.000	0.008	-0.165
-108.005	-62.498	0.205	0.083
-106.991	800.000	0.027	-0.107
-105.976	-200.000	0.074	0.402
-104.962	-200.000	0.028	0.162
-103.947	170.084	-0.083	-0.115
-102.932	-200.000	0.065	-0.351
-101.918	-14.128	-0.334	-0.210
-100.903	-135.446	0.104	-0.012
-99.889	-101.347	-0.139	0.033
-98.874	558.568	0.018	-0.042
-97.859	687.662	-0.018	0.047
-96.845	-85.725	0.149	-0.045
-95.830	-71.239	0.041	0.015
-94.816	66.058	-0.148	0.146
-93.801	-200.000	0.040	-0.225
-92.786	8.631	0.106	-0.078
-91.772	-55.445	0.249	-0.109
-90.757	-141.461	0.137	0.014
-89.743	-13.808	0.314	-0.198
-88.728	349.054	-0.111	-0.213
-87.713	-177.520	0.165	0.004
-86.699	800.000	0.041	-0.126
-85.684	424.867	-0.042	-0.088
-84.670	291.611	-0.074	-0.132
-83.655	-136.057	0.045	-0.005
-82.640	144.208	-0.079	0.103
-81.626	-119.860	-0.327	-0.055
-80.611	736.691	-0.097	-0.252
-79.597	99.206	-0.215	0.241
-78.582	127.409	-0.055	-0.068
-77.567	530.456	0.059	-0.135
-76.553	-200.000	0.018	-0.110
-75.538	470.130	-0.088	-0.193
-74.524	-102.517	0.116	0.027
-73.509	-112.550	-0.278	0.054
-72.494	-200.000	-0.047	-0.273
-71.480	131.907	0.225	-0.282
-70.465	-200.000	-0.050	-0.232
-69.451	206.552	-0.139	0.210
-68.436	21.086	-0.185	-0.146
-67.422	-59.117	0.401	0.168
-66.407	-71.979	0.361	-0.131
-65.392	126.032	0.205	0.252
-64.378	800.000	0.048	0.195
-63.363	-94.102	0.383	0.102
-62.349	800.000	0.079	0.329
-61.334	97.763	-1.039	-1.160
-60.319	137.559	0.847	1.076
-59.305	800.000	-0.448	-1.339
-58.290	294.752	0.863	1.533
-57.276	733.951	0.548	1.423
-56.261	-200.000	134.563	680.572
-55.246	339.899	1676.083	3173.549
-54.232	133.997	2814.374	3538.658
-53.217	83.017	2312.202	2441.761
-52.203	29.961	1909.168	1579.770
-51.188	24.090	1704.820	1365.743
-50.173	22.182	1666.977	1321.046
-49.159	43.995	1740.643	1548.351
-48.144	41.206	1749.403	1534.630
-47.130	23.555	1701.195	1358.527
-46.115	21.165	1685.403	1327.709
-45.100	21.031	1679.751	1322.182
-44.086	20.965	1677.970	1320.228
-43.071	20.915	1675.462	1317.830
-42.057	20.930	1673.031	1315.972
-41.042	20.990	1670.956	1314.742
-40.027	20.998	1669.419	1313.541
-39.013	20.996	1667.219	1311.743
-37.998	20.990	1666.059	1310.734
-36.984	20.962	1664.862	1309.531
-35.969	21.059	1663.984	1309.519
-34.954	21.042	1661.891	1307.686
-33.940	21.004	1660.198	1306.024
-32.925	21.097	1657.899	1304.856
-31.911	21.065	1656.423	1303.407
-30.896	21.072	1654.859	1302.173
-29.881	21.080	1653.339	1300.982
-28.867	21.113	1651.604	1299.818
-27.852	21.147	1650.639	1299.255
-26.838	21.077	1649.284	1297.621
-25.823	21.203	1647.828	1297.359
-24.809	21.165	1646.229	1295.763
-23.794	21.169	1644.893	1294.694
-22.779	21.196	1644.045	1294.175
-21.765	21.135	1642.082	1292.127
-20.750	21.182	1640.238	1290.970
-19.736	21.172	1639.112	1289.958
-18.721	21.196	1637.387	1288.730
-17.706	21.148	1636.529	1287.644
-16.692	21.154	1634.652	1286.166
-15.677	21.218	1633.304	1285.524
-14.663	21.139	1632.134	1283.968
-13.648	21.200	1631.038	1283.504
-12.633	21.130	1629.605	1281.813
-11.619	21.190	1627.280	1280.374
-10.604	21.170	1625.852	1279.051
-9.590	21.190	1624.862	1278.371
-8.575	21.253	1622.864	1277.203
-7.560	21.115	1622.486	1275.849
-6.546	21.154	1621.309	1275.157
-5.531	21.306	1619.751	1274.990
-4.517	21.154	1619.108	1273.325
-3.502	21.150	1618.404	1272.694
-2.487	21.183	1616.373	1271.284
-1.473	20.755	1603.534	1258.048
-0.458	17.692	1584.513	1221.165
0.556	13.212	1586.038	1190.017
1.571	10.917	1610.906	1191.767
2.586	10.682	1622.976	1198.856
3.600	9.888	1568.698	1152.994
4.615	5.629	1463.318	1047.017
5.629	1.410	1407.571	979.868
6.644	0.705	1400.800	970.542
7.659	0.709	1399.323	969.462
8.673	0.691	1398.790	968.894
9.688	0.585	1396.241	966.360
10.702	0.393	1393.215	962.957
11.717	2.600	1394.816	978.074
12.731	8.559	1404.577	1023.040
13.746	14.728	1413.502	1069.054
14.761	17.050	1416.820	1086.346
15.775	16.546	1415.229	1081.811
16.790	15.656	1412.606	1074.023
17.804	14.898	1410.206	1067.271
18.819	14.411	1408.821	1063.019
19.834	14.267	1407.948	1061.347
20.848	14.046	1406.530	1058.776
21.863	13.727	1405.248	1055.691
22.877	13.568	1403.756	1053.463
23.892	13.590	1402.976	1052.928
24.907	13.586	1402.376	1052.355
25.921	13.604	1400.866	1051.244
26.936	13.573	1400.488	1050.672
27.950	13.622	1399.533	1050.172
28.965	13.624	1398.435	1049.267
29.980	13.681	1397.597	1048.909
30.994	13.774	1396.380	1048.487
32.009	13.768	1395.336	1047.576
33.023	13.838	1394.272	1047.126
34.038	13.758	1393.130	1045.672
35.053	13.708	1392.062	1044.463
36.067	13.804	1390.918	1044.116
37.082	13.690	1389.955	1042.582
38.096	13.746	1388.906	1042.053
39.111	13.787	1387.964	1041.515
40.126	13.695	1387.581	1040.555
41.140	13.663	1386.735	1039.630
42.155	13.580	1386.246	1038.651
43.169	13.658	1385.942	1038.822
44.184	13.612	1385.793	1038.325
45.199	13.572	1385.651	1037.879
46.213	13.563	1384.666	1036.991
47.228	13.578	1383.858	1036.388
48.242	13.639	1382.497	1035.662
49.257	13.702	1380.888	1034.754
50.271	13.753	1379.179	1033.698
51.286	13.703	1378.151	1032.531
52.301	13.691	1377.163	1031.620
53.315	13.604	1375.813	1029.978
54.330	13.654	1374.671	1029.340
55.344	13.657	1373.466	1028.367
56.359	13.648	1372.258	1027.318
57.374	13.542	1371.600	1026.078
58.388	13.581	1370.544	1025.436
59.403	13.622	1370.076	1025.252
60.417	13.598	1369.417	1024.520
61.432	13.511	1368.716	1023.366
62.447	13.483	1367.809	1022.422
63.461	13.519	1366.067	1021.252
64.476	13.530	1365.313	1020.666
65.490	13.552	1364.211	1019.886
66.505	13.588	1362.421	1018.682
67.520	13.576	1361.193	1017.599
68.534	13.464	1360.110	1016.014
69.549	13.688	1358.744	1016.272
70.563	13.649	1357.690	1015.159
71.578	13.556	1356.427	1013.558
72.593	13.515	1355.578	1012.577
73.607	13.436	1355.192	1011.718
74.622	13.416	1354.206	1010.770
75.636	13.347	1353.560	1009.779
76.651	13.499	1352.329	1009.698
77.666	13.588	1352.005	1009.907
78.680	13.527	1351.325	1008.939
79.695	13.433	1350.761	1007.858
80.709	13.444	1350.048	1007.304
81.724	13.544	1349.084	1007.100
82.739	13.688	1347.733	1006.881
83.753	13.617	1347.522	1006.200
84.768	13.689	1346.017	1005.425
85.782	13.714	1345.045	1004.761
86.797	13.724	1343.518	1003.595
87.812	13.633	1342.349	1002.079
88.826	13.594	1341.370	1001.023
89.841	13.661	1339.849	1000.206
90.855	13.719	1338.786	999.674
91.870	13.741	1338.414	999.439
92.884	13.655	1337.534	998.178
93.899	13.748	1336.313	997.735
94.914	13.806	1335.642	997.497
95.928	13.807	1334.504	996.563
96.943	13.815	1333.807	996.005
97.957	13.801	1332.738	995.032
98.972	13.774	1331.985	994.222
99.987	13.809	1330.767	993.434
101.001	13.704	1330.162	992.263
102.016	13.819	1328.770	991.825
103.030	13.769	1327.881	990.777
104.045	13.703	1326.690	989.407
105.060	13.653	1325.956	988.472
106.074	13.595	1324.347	986.845
107.089	13.586	1322.943	985.653
108.103	13.663	1321.503	984.952
109.118	13.615	1320.422	983.772
110.133	13.540	1319.334	982.433
111.147	13.617	1317.750	981.619
112.162	13.666	1316.494	980.891
113.176	13.716	1315.279	980.192
114.191	13.683	1314.671	979.457
115.206	13.727	1313.194	978.533
116.220	13.687	1312.251	977.508
117.235	13.639	1311.250	976.389
118.249	13.615	1310.676	975.734
119.264	13.664	1308.792	974.535
120.279	13.646	1307.894	973.677
121.293	13.692	1306.828	973.066
122.308	13.716	1305.795	972.348
123.322	13.708	1304.543	971.287
124.337	13.673	1304.132	970.689
125.352	13.645	1302.959	969.568
126.366	13.722	1301.282	968.682
127.381	13.585	1300.682	967.352
128.395	13.588	1299.564	966.450
129.410	13.691	1298.033	965.828
130.424	13.594	1297.537	964.808
131.439	13.645	1296.490	964.240
132.454	13.750	1295.428	963.971
133.468	13.665	1294.690	962.847
134.483	13.663	1294.049	962.273
135.497	13.761	1292.247	961.416
136.512	13.712	1290.713	959.908
137.527	13.694	1290.233	959.359
138.541	13.655	1288.629	957.856
139.556	13.820	1286.869	957.415
140.570	13.726	1286.037	956.168
141.585	13.854	1284.232	955.480
142.600	13.853	1283.244	954.653
143.614	13.862	1282.567	954.119
144.629	13.877	1281.412	953.258
145.643	13.795	1280.716	952.188
146.658	13.912	1279.081	951.560
147.673	13.949	1277.699	950.657
148.687	13.766	1276.956	948.975
149.702	13.838	1275.077	947.908
150.716	13.854	1273.964	947.085
151.731	13.896	1272.472	946.132
152.746	13.906	1271.297	945.232
153.760	13.881	1270.599	944.484
154.775	13.882	1269.221	943.385
155.789	14.023	1267.959	943.166
156.804	13.977	1267.133	942.204
157.819	13.971	1266.126	941.336
158.833	14.164	1265.019	941.524
159.848	14.085	1264.211	940.392
160.862	14.003	1263.179	939.076
161.877	14.081	1261.858	938.455
162.892	13.872	1260.889	936.469
163.906	13.915	1260.724	936.512
164.921	14.056	1259.139	936.044
165.935	14.004	1258.652	935.306
166.950	14.077	1257.641	934.882
167.964	14.035	1256.436	933.667
168.979	14.089	1256.364	933.832
169.994	13.995	1255.339	932.460
171.008	14.108	1254.541	932.423
172.023	14.192	1253.524	932.053
173.037	14.141	1253.179	931.428
174.052	14.085	1252.169	930.284
175.067	14.123	1250.829	929.417
176.081	14.072	1250.148	928.542
177.096	14.040	1249.166	927.551
178.110	14.083	1248.036	926.870
179.125	14.157	1246.360	925.956
180.140	14.160	1245.208	925.035
181.154	14.173	1244.124	924.220
182.169	14.263	1242.876	923.715
183.183	14.179	1241.830	922.388
184.198	14.297	1240.169	921.724
185.213	14.391	1238.932	921.242
186.227	14.255	1238.164	919.837
187.242	14.385	1237.196	919.758
188.256	14.362	1236.303	918.883
189.271	14.429	1234.953	918.170
190.286	14.330	1234.234	917.011
191.300	14.309	1233.610	916.346
192.315	14.207	1233.032	915.274
193.329	14.263	1232.082	914.800
194.344	14.166	1232.140	914.226
195.359	14.358	1230.855	914.247
196.373	14.386	1230.433	914.003
197.388	14.416	1229.961	913.741
198.402	14.462	1228.766	913.020
199.417	14.483	1228.549	912.894
200.432	14.468	1227.889	912.242
201.446	14.448	1227.225	911.556
202.461	14.573	1226.245	911.431
203.475	14.577	1224.883	910.362
204.490	14.435	1223.972	908.831
205.504	14.536	1222.305	908.062
206.519	14.520	1221.207	907.080
207.534	14.557	1220.225	906.469
208.548	14.486	1218.876	905.001
209.563	14.546	1218.454	904.934
210.577	14.596	1217.425	904.360
211.592	14.581	1216.551	903.553
212.607	14.718	1215.782	903.641
213.621	14.682	1214.739	902.590
214.636	14.669	1213.741	901.697
215.650	14.719	1212.707	901.121
216.665	14.828	1211.646	900.838
217.680	14.755	1210.761	899.711
218.694	14.780	1210.179	899.332
219.709	14.697	1209.560	898.343
220.723	14.786	1208.682	898.091
221.738	14.804	1208.001	897.606
222.753	14.748	1207.042	896.514
223.767	14.769	1206.420	896.084
224.782	14.876	1205.842	896.150
225.796	14.849	1205.188	895.440
226.811	14.898	1204.452	895.074
227.826	14.892	1203.988	894.617
228.840	14.958	1202.856	894.048
229.855	14.874	1202.079	892.943
230.869	14.922	1201.127	892.417
231.884	15.043	1200.637	892.619
232.899	15.010	1199.156	891.264
233.913	14.978	1198.838	890.775
234.928	14.871	1198.439	889.834
235.942	14.993	1197.204	889.483
236.957	14.987	1196.626	888.947
237.972	14.894	1195.910	887.839
238.986	14.884	1195.236	887.207
240.001	14.872	1194.863	886.790
241.015	14.977	1193.478	886.241
242.030	14.981	1192.565	885.503
243.045	15.111	1191.475	885.301
244.059	14.957	1191.500	884.427
245.074	15.052	1190.378	884.019
246.088	15.161	1189.635	883.967
247.103	15.092	1188.874	882.957
248.117	15.220	1187.646	882.642
249.132	15.219	1187.174	882.209
250.147	15.269	1186.520	881.907
251.161	15.246	1185.649	881.063
252.176	15.261	1185.269	880.779
253.190	15.363	1184.467	880.642
254.205	15.247	1184.264	879.800
255.220	15.319	1183.474	879.515
256.234	15.331	1182.769	878.979
257.249	15.383	1181.900	878.522
258.263	15.415	1181.447	878.276
259.278	15.398	1180.815	877.640
260.293	15.401	1180.055	877.015
261.307	15.493	1179.438	876.957
262.322	15.539	1178.704	876.575
263.336	15.475	1178.202	875.793
264.351	15.554	1177.680	875.738
265.366	15.537	1176.757	874.886
266.380	15.605	1175.796	874.449
267.395	15.581	1175.151	873.766
268.409	15.526	1174.396	872.842
269.424	15.548	1174.207	872.738
270.439	15.532	1173.477	872.035
271.453	15.568	1172.275	871.252
272.468	15.548	1171.599	870.568
273.482	15.489	1170.821	869.608
274.497	15.539	1170.497	869.551
275.512	15.584	1169.780	869.174
276.526	15.606	1168.805	868.486
277.541	15.648	1168.005	868.031
278.555	15.674	1167.835	867.961
279.570	15.686	1166.685	867.090
280.585	15.742	1166.073	866.850
281.599	15.734	1164.952	865.898
282.614	15.877	1163.766	865.675
283.628	15.748	1162.768	864.191
284.643	15.809	1161.637	863.586
285.657	15.708	1161.573	862.945
286.672	15.842	1159.918	862.327
287.687	15.864	1159.220	861.843
288.701	15.891	1158.386	861.284
289.716	15.986	1157.573	861.093
290.730	15.872	1156.870	859.911
291.745	15.776	1156.594	859.138
292.760	15.878	1155.506	858.772
293.774	15.952	1155.028	858.719
294.789	15.918	1154.528	858.097
295.803	15.991	1153.913	857.938
296.818	15.923	1153.136	856.941
297.833	16.055	1152.401	856.985
298.847	15.922	1151.708	855.721
299.862	16.006	1150.503	855.177
300.876	16.003	1150.202	854.863
301.891	16.033	1149.566	854.467
302.906	16.172	1148.758	854.491
303.920	16.211	1147.699	853.829
304.935	16.200	1147.190	853.318
305.949	16.231	1146.190	852.654
306.964	16.211	1145.955	852.301
307.979	16.265	1145.022	851.808
308.993	16.246	1144.527	851.270
310.008	16.219	1143.293	850.139
311.022	16.250	1142.717	849.790
312.037	16.263	1141.732	849.046
313.052	16.241	1140.543	847.978
314.066	16.241	1139.746	847.308
315.081	16.224	1139.146	846.703
316.095	16.257	1138.597	846.385
317.110	16.218	1137.937	845.626
318.125	16.241	1137.086	845.032
319.139	16.110	1136.513	843.878
320.154	16.198	1135.600	843.565
321.168	16.267	1135.401	843.685
322.183	16.291	1134.775	843.269
323.197	16.255	1134.042	842.468
324.212	16.358	1133.160	842.252
325.227	16.414	1132.681	842.101
326.241	16.433	1131.904	841.543
327.256	16.346	1131.155	840.478
328.270	16.504	1129.649	840.072
329.285	16.379	1129.190	839.034
330.300	16.453	1128.102	838.517
331.314	16.469	1126.959	837.672
332.329	16.355	1126.440	836.651
333.343	16.456	1125.328	836.251
334.358	16.446	1124.733	835.682
335.373	16.498	1123.779	835.159
336.387	16.461	1123.359	834.588
337.402	16.591	1122.415	834.457
338.416	16.608	1121.522	833.802
339.431	16.540	1120.902	832.934
340.446	16.671	1120.222	832.997
341.460	16.643	1119.879	832.532
342.475	16.677	1118.953	831.936
343.489	16.737	1117.536	831.103
344.504	16.681	1116.998	830.356
345.519	16.714	1115.970	829.677
346.533	16.636	1115.739	829.053
347.548	16.753	1114.879	828.913
348.562	16.877	1113.425	828.362
349.577	16.672	1113.209	827.128
350.592	16.934	1111.962	827.407
351.606	16.745	1111.540	826.097
352.621	16.741	1110.908	825.536
353.635	16.773	1110.208	825.101
354.650	16.646	1109.860	824.149
355.665	16.751	1108.888	823.866
356.679	16.812	1108.229	823.597
357.694	16.831	1107.709	823.233
358.708	16.906	1106.927	822.939
359.723	16.896	1106.246	822.312
360.738	16.873	1105.601	821.650
361.752	16.888	1104.827	821.074
362.767	16.960	1104.179	820.869
363.781	16.987	1103.705	820.574
364.796	17.032	1103.495	820.562
365.810	16.946	1102.826	819.579
366.825	17.120	1101.566	819.410
367.840	17.070	1101.506	819.053
368.854	17.019	1101.054	818.398
369.869	17.140	1100.030	818.146
370.883	17.074	1099.119	817.079
371.898	17.172	1098.536	817.044
372.913	17.262	1097.925	816.949
373.927	17.188	1097.691	816.345
374.942	17.267	1096.951	816.104
375.956	17.135	1096.623	815.155
376.971	17.207	1095.635	814.694
377.986	17.167	1095.185	814.093
379.000	17.221	1094.793	813.988
380.015	17.254	1093.924	813.429
381.029	17.268	1093.321	812.977
382.044	17.263	1092.971	812.622
383.059	17.336	1091.885	812.088
384.073	17.401	1090.829	811.544
385.088	17.421	1090.281	811.156
386.102	17.383	1089.124	810.042
387.117	17.286	1088.365	808.947
388.132	17.392	1087.135	808.464
389.146	17.444	1086.531	808.191
390.161	17.356	1085.943	807.265
391.175	17.281	1085.358	806.404
392.190	17.418	1084.350	806.232
393.205	17.429	1084.018	805.965
394.219	17.580	1082.606	805.558
395.234	17.475	1082.089	804.607
396.248	17.642	1080.715	804.299
397.263	17.404	1079.880	802.488
398.278	17.434	1079.494	802.271
399.292	17.413	1078.735	801.536
400.307	17.520	1077.987	801.413
401.321	17.560	1077.054	800.838
402.336	17.585	1076.357	800.365
403.350	17.512	1075.944	799.643
404.365	17.484	1075.472	799.090
405.380	17.605	1074.600	798.941
406.394	17.647	1073.529	798.270
407.409	17.713	1072.813	797.974
408.423	17.820	1072.064	797.851
409.438	17.765	1071.464	797.076
410.453	17.780	1070.828	796.602
411.467	17.876	1069.942	796.318
412.482	17.761	1069.368	795.286
413.496	17.847	1068.653	795.083
414.511	17.912	1068.388	795.117
415.526	17.859	1067.738	794.317
416.540	18.062	1067.252	794.832
417.555	17.957	1066.710	793.867
418.569	17.971	1066.191	793.478
419.584	17.987	1065.631	793.062
420.599	17.875	1065.504	792.378
421.613	109.831	1332.722	1492.380
422.628	101.561	1371.566	1492.444
