DTS Sentinel unit serial number:	SN413079Multiplexer serial number:	ORYXHardware model number:	OX4-SRSoftware version number:	ORYX F/W v4.00 Oryx Data Collector v3.7.2.0data status	okinstallation	princeton_trtdifferential loss correction	single-endedforward channel	channel 2reverse channel	N/Adate	2019/09/12time	08:01:11forward acquisition time	60.00reverse acquisition time	0.00gamma	496.2192k internal	0.2320k external	0.2320temperature offset calibration	1.0069default loss term (dB/km)	0.3790temperature slope calibration	1.0000multiplexer offset coefficient	1.0000multiplexer slope coefficient	1.0000fibre end	0.00T internal ref (°C)	33.06T ext. ref 1 (°C)	1.67T ext. ref 2 (°C)	29.61length (m)	temperature (°C)	Stokes	anti-Stokes-747.200	211.073	0.047	-0.074
-746.185	-200.000	-0.041	-0.192
-745.171	75.195	0.344	-0.367
-744.156	364.575	-0.147	0.299
-743.142	-41.014	-0.229	-0.120
-742.127	340.581	0.097	0.191
-741.112	143.881	-0.306	0.413
-740.098	54.320	-0.234	0.228
-739.083	800.000	0.106	0.301
-738.069	-69.943	-0.236	0.091
-737.054	-174.936	0.366	-0.010
-736.039	-200.000	0.030	0.188
-735.025	68.141	0.045	0.046
-734.010	17.418	-0.153	-0.123
-732.996	-173.809	-0.119	0.004
-731.981	-25.086	0.066	0.039
-730.966	-28.615	-0.308	-0.179
-729.952	159.480	0.143	0.200
-728.937	-33.065	-0.308	-0.173
-727.923	130.744	0.067	-0.087
-726.908	-99.425	-0.093	-0.024
-725.894	-73.879	0.102	0.038
-724.879	800.000	-0.056	-0.226
-723.864	-46.112	-0.289	0.144
-722.850	-25.689	-0.291	-0.173
-721.835	-44.085	0.145	-0.074
-720.821	-99.907	-0.031	0.008
-719.806	-82.906	0.071	0.023
-718.791	-48.490	-0.142	-0.069
-717.777	108.581	-0.103	0.124
-716.762	-116.911	-0.398	-0.073
-715.748	146.672	0.150	-0.204
-714.733	-151.779	-0.360	0.027
-713.718	30.332	-0.143	-0.123
-712.704	145.817	0.148	-0.201
-711.689	800.000	-0.123	0.423
-710.675	800.000	-0.077	-0.220
-709.660	-190.752	0.217	0.002
-708.645	390.254	0.086	0.181
-707.631	-92.942	0.224	0.063
-706.616	800.000	-0.025	-0.087
-705.602	-117.665	-0.152	-0.028
-704.587	555.179	-0.108	0.262
-703.572	-7.563	-0.375	0.256
-702.558	318.122	-0.176	0.337
-701.543	800.000	-0.095	-0.335
-700.529	158.198	-0.047	0.065
-699.514	139.542	-0.227	-0.302
-698.499	-126.070	0.260	0.039
-697.485	-85.751	-0.119	0.037
-696.470	-107.517	-0.128	0.028
-695.456	-109.654	0.292	0.062
-694.441	-200.000	-0.090	-0.477
-693.426	-146.836	0.035	0.003
-692.412	355.977	0.059	-0.118
-691.397	232.414	-0.186	0.309
-690.383	105.523	-0.340	0.405
-689.368	514.290	-0.133	-0.313
-688.354	-200.000	-0.030	0.200
-687.339	86.181	0.076	-0.085
-686.324	131.906	0.184	-0.239
-685.310	-200.000	0.017	0.085
-684.295	14.935	-0.096	-0.076
-683.281	-78.517	0.097	0.034
-682.266	-200.000	0.054	-0.289
-681.251	-134.926	-0.183	-0.022
-680.237	98.403	0.063	-0.074
-679.222	-26.618	0.123	-0.073
-678.208	-200.000	-0.021	0.126
-677.193	71.726	-0.135	-0.141
-676.178	-200.000	0.012	-0.217
-675.164	-154.771	0.054	-0.004
-674.149	800.000	-0.112	-0.349
-673.135	-200.000	-0.007	-0.333
-672.120	74.890	0.193	0.205
-671.105	-196.357	-0.136	-0.001
-670.091	800.000	-0.043	0.159
-669.076	-22.278	0.110	-0.067
-668.062	-116.832	0.068	0.013
-667.047	13.130	-0.080	-0.062
-666.032	141.195	0.047	-0.062
-665.018	-77.159	0.176	0.062
-664.003	-200.000	0.072	0.321
-662.989	-99.773	-0.291	-0.074
-661.974	682.114	0.085	-0.224
-660.959	106.754	-0.212	-0.253
-659.945	-200.000	-0.011	-0.112
-658.930	-23.596	0.338	0.205
-657.916	-120.929	0.397	0.067
-656.901	-27.135	0.333	-0.196
-655.886	-28.404	0.250	-0.145
-654.872	-200.000	-0.042	-0.250
-653.857	622.947	0.039	-0.099
-652.843	800.000	-0.036	0.122
-651.828	-46.145	-0.105	-0.052
-650.814	-63.933	-0.226	-0.093
-649.799	-19.734	-0.248	-0.154
-648.784	127.080	-0.103	-0.132
-647.770	-136.891	0.348	0.040
-646.755	-200.000	0.058	-0.308
-645.741	800.000	0.128	-0.540
-644.726	227.316	0.200	-0.327
-643.711	35.570	-0.124	0.109
-642.697	42.657	-0.175	0.160
-641.682	-200.000	-0.003	-0.080
-640.668	12.177	-0.115	0.089
-639.653	-88.050	0.182	0.055
-638.638	106.049	-0.243	0.290
-637.624	800.000	-0.027	0.093
-636.609	-200.000	-0.002	-0.168
-635.595	-147.098	-0.124	0.011
-634.580	96.851	-0.089	-0.102
-633.565	181.265	0.128	-0.189
-632.551	-200.000	0.015	0.325
-631.536	238.243	0.056	-0.094
-630.522	274.533	0.175	-0.312
-629.507	161.229	-0.061	-0.086
-628.492	262.526	-0.050	-0.087
-627.478	-90.099	-0.022	0.007
-626.463	-13.317	0.261	0.170
-625.449	-96.844	0.511	0.135
-624.434	50.573	-0.131	-0.125
-623.419	71.870	-0.127	0.132
-622.405	800.000	0.067	-0.274
-621.390	-156.893	-0.099	0.006
-620.376	-15.106	-0.152	0.098
-619.361	-44.031	0.182	0.092
-618.346	-200.000	0.037	-0.281
-617.332	-200.000	-0.013	0.286
-616.317	-200.000	0.014	-0.089
-615.303	-200.000	-0.050	-0.270
-614.288	-200.000	-0.005	-0.230
-613.273	-16.630	-0.302	0.193
-612.259	-200.000	0.039	0.218
-611.244	-126.848	0.268	0.040
-610.230	-200.000	0.033	-0.171
-609.215	186.121	-0.226	-0.339
-608.201	55.044	-0.121	-0.118
-607.186	42.035	-0.132	-0.120
-606.171	-113.532	-0.132	0.026
-605.157	-128.775	0.241	0.034
-604.142	205.408	0.254	-0.398
-603.128	209.056	0.045	-0.070
-602.113	283.057	-0.022	0.041
-601.098	-54.937	-0.324	-0.147
-600.084	-57.378	-0.277	-0.122
-599.069	-136.297	-0.055	0.006
-598.055	-110.660	-0.372	-0.077
-597.040	7.737	-0.149	-0.112
-596.025	-200.000	0.016	-0.096
-595.011	321.067	0.057	-0.109
-593.996	413.410	-0.118	0.252
-592.982	-56.503	-0.052	0.023
-591.967	20.724	0.173	0.141
-590.952	297.385	0.182	0.335
-589.938	-117.341	-0.142	-0.026
-588.923	-106.811	-0.277	-0.062
-587.909	-200.000	0.013	-0.286
-586.894	-200.000	-0.042	-0.235
-585.879	317.312	-0.078	0.148
-584.865	-68.533	0.107	0.042
-583.850	309.520	-0.110	-0.207
-582.836	130.552	0.164	0.211
-581.821	611.475	-0.053	-0.133
-580.806	-200.000	-0.013	-0.195
-579.792	110.989	-0.263	-0.318
-578.777	-200.000	0.007	0.297
-577.763	608.689	0.081	0.203
-576.748	-157.686	0.208	-0.012
-575.733	179.341	0.054	0.080
-574.719	-22.211	0.028	0.017
-573.704	194.164	-0.066	0.101
-572.690	283.097	0.195	0.352
-571.675	-200.000	-0.009	-0.061
-570.661	-6.673	0.261	0.178
-569.646	-200.000	0.066	0.291
-568.631	-73.314	-0.396	-0.146
-567.617	160.086	-0.275	-0.385
-566.602	111.431	-0.053	-0.064
-565.588	-145.706	-0.130	0.012
-564.573	-71.813	0.154	0.057
-563.558	314.628	-0.230	0.435
-562.544	-200.000	0.002	0.229
-561.529	54.027	-0.074	-0.071
-560.515	100.231	-0.141	-0.164
-559.500	-25.331	-0.342	0.203
-558.485	153.103	0.096	-0.132
-557.471	-200.000	0.017	0.079
-556.456	35.170	0.134	0.118
-555.442	-45.238	0.287	-0.143
-554.427	-91.002	-0.130	0.038
-553.412	-200.000	0.014	0.153
-552.398	-111.434	0.192	0.039
-551.383	-116.520	-0.406	0.075
-550.369	-200.000	-0.035	0.494
-549.354	-43.088	-0.006	0.003
-548.339	11.626	0.245	0.188
-547.325	800.000	-0.119	-0.380
-546.310	-154.580	-0.038	0.003
-545.296	-95.934	-0.302	0.081
-544.281	-26.796	-0.107	0.063
-543.266	360.040	0.054	0.109
-542.252	12.543	0.092	0.071
-541.237	467.592	-0.097	0.219
-540.223	-200.000	-0.012	0.151
-539.208	800.000	-0.067	-0.270
-538.193	-89.031	-0.177	-0.053
-537.179	-118.963	0.168	0.029
-536.164	-200.000	0.001	0.060
-535.150	-2.919	0.045	0.032
-534.135	-98.911	-0.467	-0.119
-533.121	800.000	-0.048	-0.144
-532.106	-200.000	0.056	0.332
-531.091	-200.000	-0.004	-0.064
-530.077	-141.820	-0.128	-0.013
-529.062	40.755	0.342	0.309
-528.048	352.202	0.115	0.228
-527.033	24.698	0.179	0.149
-526.018	-200.000	-0.057	0.335
-525.004	5.109	-0.166	0.122
-523.989	800.000	-0.029	0.109
-522.975	800.000	0.035	0.140
-521.960	-200.000	-0.016	-0.347
-520.945	-93.244	0.168	-0.047
-519.931	180.992	-0.232	-0.341
-518.916	-21.790	-0.463	0.282
-517.902	242.269	-0.148	0.248
-516.887	65.426	0.083	-0.085
-515.872	-200.000	0.009	0.087
-514.858	48.197	-0.182	0.171
-513.843	-200.000	-0.059	-0.317
-512.829	-200.000	-0.023	-0.164
-511.814	800.000	0.035	-0.124
-510.799	-169.934	-0.262	-0.009
-509.785	800.000	0.054	0.151
-508.770	-200.000	-0.004	0.303
-507.756	224.377	-0.133	0.215
-506.741	800.000	-0.038	0.140
-505.726	-74.942	-0.162	-0.058
-504.712	65.280	-0.020	-0.021
-503.697	-70.450	-0.168	0.064
-502.683	-200.000	0.007	0.094
-501.668	40.682	0.181	-0.164
-500.653	275.568	0.142	0.253
-499.639	-167.428	-0.085	-0.003
-498.624	800.000	0.128	-0.467
-497.610	123.223	-0.255	-0.320
-496.595	-200.000	-0.036	-0.181
-495.581	-136.806	0.174	-0.020
-494.566	-51.416	0.270	0.126
-493.551	-200.000	-0.004	-0.282
-492.537	17.041	-0.385	-0.306
-491.522	-181.055	0.282	0.006
-490.508	-53.704	0.281	0.128
-489.493	800.000	-0.037	0.154
-488.478	13.472	0.247	-0.192
-487.464	-28.187	0.161	0.093
-486.449	470.172	0.094	-0.212
-485.435	-68.898	0.073	0.028
-484.420	-200.000	0.007	0.096
-483.405	100.552	0.045	0.053
-482.391	-200.000	0.045	-0.341
-481.376	-88.014	-0.234	-0.070
-480.362	69.858	0.097	-0.100
-479.347	88.629	-0.254	0.283
-478.332	264.376	0.244	-0.425
-477.318	-160.563	-0.097	-0.005
-476.303	84.180	-0.244	-0.267
-475.289	254.277	0.095	-0.163
-474.274	59.384	0.440	-0.434
-473.259	30.406	0.145	-0.124
-472.245	-28.816	-0.237	-0.136
-471.230	-50.413	-0.229	0.108
-470.216	-200.000	-0.005	0.116
-469.201	-51.051	-0.079	-0.037
-468.186	-200.000	-0.009	-0.088
-467.172	-156.917	-0.189	-0.012
-466.157	-200.000	0.009	0.221
-465.143	-92.630	0.214	-0.060
-464.128	-90.129	0.130	-0.038
-463.113	645.179	-0.126	0.321
-462.099	9.415	-0.016	0.012
-461.084	51.375	0.244	-0.232
-460.070	718.548	-0.095	-0.253
-459.055	-53.181	-0.179	-0.082
-458.040	534.000	0.133	0.314
-457.026	69.421	0.252	0.259
-456.011	230.156	-0.100	0.163
-454.997	202.845	0.137	0.212
-453.982	718.130	0.041	-0.109
-452.968	39.761	0.211	0.189
-451.953	0.674	0.251	0.179
-450.938	-104.383	-0.176	0.041
-449.924	235.830	0.021	0.035
-448.909	-164.030	0.103	0.005
-447.895	66.929	-0.125	0.127
-446.880	-174.722	0.121	0.003
-445.865	11.558	0.147	-0.113
-444.851	25.993	0.037	0.031
-443.836	23.066	-0.089	0.073
-442.822	800.000	0.060	-0.244
-441.807	-38.374	0.030	0.016
-440.792	-0.020	-0.181	-0.129
-439.778	-200.000	0.064	-0.293
-438.763	126.061	-0.115	0.145
-437.749	726.977	-0.103	0.274
-436.734	-99.172	-0.209	0.053
-435.719	321.710	0.046	-0.087
-434.705	-169.691	0.238	-0.009
-433.690	-77.234	0.195	0.068
-432.676	120.252	-0.071	0.088
-431.661	-45.482	-0.254	0.126
-430.646	-35.844	-0.207	-0.112
-429.632	84.095	-0.068	-0.074
-428.617	28.114	-0.204	-0.172
-427.603	-111.845	-0.002	-0.000
-426.588	-64.914	-0.210	0.085
-425.573	39.732	-0.353	0.317
-424.559	-94.091	-0.220	-0.060
-423.544	-23.090	0.196	-0.118
-422.530	-141.874	-0.251	0.025
-421.515	-200.000	-0.010	-0.077
-420.500	800.000	-0.046	-0.179
-419.486	-108.494	0.375	-0.080
-418.471	111.669	0.242	-0.292
-417.457	61.032	0.143	0.142
-416.442	-106.638	0.249	-0.055
-415.428	-200.000	0.026	0.182
-414.413	-200.000	0.042	0.192
-413.398	216.697	0.180	0.286
-412.384	-42.048	0.268	-0.137
-411.369	6.847	0.179	0.133
-410.355	-87.783	-0.217	0.065
-409.340	800.000	-0.080	0.256
-408.325	-200.000	0.035	-0.352
-407.311	244.439	0.081	-0.136
-406.296	-57.218	-0.037	0.016
-405.282	124.978	0.184	0.231
-404.267	800.000	0.050	-0.173
-403.252	800.000	-0.005	-0.021
-402.238	-50.891	0.177	0.083
-401.223	302.593	-0.106	0.195
-400.209	-21.612	-0.136	-0.083
-399.194	-200.000	-0.018	0.090
-398.179	-200.000	0.069	0.396
-397.165	-52.526	0.262	-0.121
-396.150	107.577	0.088	0.105
-395.136	-152.323	0.135	-0.010
-394.121	-77.502	0.161	-0.056
-393.106	393.550	-0.093	0.192
-392.092	-191.892	0.245	0.002
-391.077	-49.098	-0.292	0.139
-390.063	25.774	0.074	0.062
-389.048	-200.000	-0.002	-0.180
-388.033	-200.000	0.088	-0.408
-387.019	161.786	-0.136	-0.190
-386.004	17.927	-0.135	-0.107
-384.990	13.937	-0.095	0.074
-383.975	-77.471	0.275	-0.095
-382.960	-17.564	-0.164	-0.103
-381.946	-102.832	0.309	0.073
-380.931	-73.562	0.329	-0.120
-379.917	800.000	-0.019	0.074
-378.902	800.000	-0.042	0.144
-377.888	800.000	0.095	0.326
-376.873	-111.934	0.208	0.042
-375.858	800.000	0.123	0.367
-374.844	109.569	0.158	-0.189
-373.829	-3.966	0.302	-0.209
-372.815	18.263	0.137	-0.109
-371.800	-1.762	-0.074	-0.052
-370.785	89.913	-0.185	0.206
-369.771	-121.480	0.150	-0.025
-368.756	-26.531	0.172	0.100
-367.742	-9.425	0.158	0.105
-366.727	-141.944	-0.108	-0.011
-365.712	34.768	0.233	-0.203
-364.698	569.156	-0.108	0.261
-363.683	-115.965	0.215	-0.040
-362.669	-3.480	0.325	0.226
-361.654	-86.575	0.179	-0.055
-360.639	-122.870	0.071	-0.011
-359.625	-31.065	-0.085	0.048
-358.610	-200.000	0.032	-0.155
-357.596	800.000	0.045	-0.161
-356.581	-200.000	0.034	-0.273
-355.566	20.538	-0.103	-0.083
-354.552	-41.594	-0.255	0.131
-353.537	82.588	0.054	0.058
-352.523	-141.842	-0.136	0.014
-351.508	-112.142	0.223	-0.045
-350.493	202.728	0.087	-0.134
-349.479	127.137	-0.120	0.151
-348.464	-200.000	0.015	0.123
-347.450	-122.604	0.318	-0.051
-346.435	-48.222	-0.198	0.095
-345.420	629.262	-0.089	0.225
-344.406	38.711	-0.089	-0.079
-343.391	249.767	-0.100	0.170
-342.377	211.906	0.117	-0.184
-341.362	3.189	-0.053	-0.039
-340.348	8.606	-0.084	-0.063
-339.333	602.662	-0.076	-0.188
-338.318	-84.880	0.446	-0.139
-337.304	-154.504	-0.319	-0.021
-336.289	707.734	-0.055	0.144
-335.275	800.000	0.078	0.259
-334.260	726.717	-0.070	0.187
-333.245	-81.431	0.290	0.095
-332.231	-120.788	-0.030	-0.005
-331.216	-55.200	-0.157	-0.070
-330.202	-73.171	0.147	-0.053
-329.187	-126.193	-0.136	-0.020
-328.172	-200.000	0.059	0.375
-327.158	-200.000	0.009	-0.289
-326.143	800.000	-0.070	-0.248
-325.129	105.649	-0.222	0.262
-324.114	-200.000	-0.006	0.230
-323.099	-200.000	0.004	-0.244
-322.085	-9.081	-0.273	0.182
-321.070	-35.716	-0.164	-0.089
-320.056	-200.000	-0.014	-0.174
-319.041	-47.108	-0.177	-0.086
-318.026	-179.439	0.267	-0.006
-317.012	127.530	0.019	-0.024
-315.997	-67.115	0.260	0.102
-314.983	800.000	-0.065	0.208
-313.968	-200.000	0.039	0.195
-312.953	366.031	-0.110	-0.220
-311.939	800.000	0.041	0.145
-310.924	800.000	0.024	0.065
-309.910	-49.631	-0.184	-0.087
-308.895	-200.000	0.017	0.208
-307.880	62.911	-0.142	0.142
-306.866	284.976	-0.132	-0.237
-305.851	-103.908	0.097	-0.023
-304.837	-200.000	-0.003	0.531
-303.822	-200.000	-0.016	-0.284
-302.807	290.604	0.157	-0.283
-301.793	232.048	-0.036	0.058
-300.778	-200.000	0.015	0.207
-299.764	-36.397	-0.197	0.105
-298.749	-153.708	0.367	0.025
-297.735	-73.309	-0.296	-0.108
-296.720	-92.070	0.130	-0.037
-295.705	-74.740	-0.298	-0.106
-294.691	94.551	0.021	-0.024
-293.676	-200.000	0.218	0.000
-292.662	-10.086	-0.026	0.017
-291.647	800.000	0.010	0.029
-290.632	670.293	0.077	-0.197
-289.618	75.557	-0.180	0.188
-288.603	138.463	0.102	0.133
-287.589	206.216	-0.112	-0.173
-286.574	-200.000	0.025	-0.118
-285.559	-92.990	-0.070	-0.019
-284.545	395.396	-0.129	-0.267
-283.530	374.745	-0.027	-0.055
-282.516	-200.000	-0.017	0.340
-281.501	-114.661	-0.186	0.035
-280.486	800.000	0.105	0.296
-279.472	-130.380	-0.190	0.026
-278.457	60.163	-0.091	0.090
-277.443	67.156	0.162	0.164
-276.428	-200.000	-0.002	0.082
-275.413	-48.248	0.129	-0.062
-274.399	-200.000	0.000	-0.435
-273.384	800.000	0.037	0.146
-272.370	697.558	-0.088	0.229
-271.355	-144.085	0.230	-0.021
-270.340	114.729	0.144	-0.175
-269.326	552.905	0.091	0.217
-268.311	800.000	0.033	0.129
-267.297	-128.235	-0.214	-0.030
-266.282	-82.736	0.179	0.057
-265.267	-200.000	0.001	-0.173
-264.253	-79.513	-0.101	0.034
-263.238	-44.301	-0.034	0.017
-262.224	-34.724	-0.160	0.087
-261.209	-72.418	0.344	-0.126
-260.195	-46.925	-0.174	-0.084
-259.180	370.238	0.022	-0.043
-258.165	12.016	0.290	-0.221
-257.151	-200.000	-0.006	-0.194
-256.136	174.760	0.053	0.076
-255.122	84.589	-0.156	0.169
-254.107	-114.676	0.027	0.005
-253.092	34.291	-0.296	0.256
-252.078	78.844	-0.147	-0.156
-251.063	-200.000	0.041	-0.236
-250.049	-82.544	0.212	-0.068
-249.034	-51.690	0.059	0.027
-248.019	175.878	0.154	0.222
-247.005	69.243	0.326	-0.333
-245.990	-52.911	0.176	-0.080
-244.976	-47.008	0.149	-0.072
-243.961	114.220	-0.195	-0.235
-242.946	94.847	0.083	0.093
-241.932	-200.000	0.022	-0.218
-240.917	-27.925	0.262	-0.151
-239.903	-1.466	0.216	-0.151
-238.888	328.828	-0.087	-0.166
-237.873	-197.430	-0.362	0.002
-236.859	-109.966	-0.071	-0.015
-235.844	282.876	-0.130	-0.231
-234.830	-118.184	0.182	0.032
-233.815	-200.000	-0.474	-0.002
-232.800	-2.015	-0.134	0.093
-231.786	800.000	-0.078	-0.220
-230.771	198.694	0.137	-0.208
-229.757	-200.000	-0.012	-0.159
-228.742	800.000	0.103	0.397
-227.727	438.252	-0.034	0.074
-226.713	800.000	-0.056	0.187
-225.698	-34.770	0.193	-0.105
-224.684	800.000	-0.033	0.138
-223.669	-200.000	0.001	0.100
-222.655	800.000	0.027	0.107
-221.640	130.530	0.262	0.332
-220.625	81.230	0.163	0.175
-219.611	-200.000	0.004	0.081
-218.596	-200.000	-0.002	-0.131
-217.582	800.000	-0.070	-0.270
-216.567	-89.347	0.221	0.064
-215.552	-109.064	0.065	0.014
-214.538	371.839	0.077	-0.155
-213.523	-200.000	-0.023	0.113
-212.509	147.903	-0.192	-0.256
-211.494	-93.967	-0.229	-0.062
-210.479	-65.716	0.086	0.034
-209.465	291.772	-0.037	0.066
-208.450	-33.136	0.360	0.198
-207.436	-103.557	-0.223	-0.052
-206.421	800.000	-0.059	-0.169
-205.406	800.000	0.090	0.348
-204.392	262.604	0.105	0.180
-203.377	800.000	0.054	-0.181
-202.363	43.188	0.199	-0.180
-201.348	800.000	-0.092	-0.322
-200.333	35.265	0.170	-0.147
-199.319	-17.337	-0.346	0.216
-198.304	-46.669	-0.034	-0.016
-197.290	-136.802	-0.108	0.012
-196.275	-144.990	0.478	0.043
-195.260	-93.681	-0.285	-0.078
-194.246	-77.040	0.180	0.062
-193.231	-200.000	0.037	0.233
-192.217	800.000	-0.011	0.042
-191.202	800.000	-0.049	0.178
-190.187	154.063	-0.158	0.214
-189.173	234.294	-0.075	-0.123
-188.158	-47.097	0.127	-0.061
-187.144	-27.014	0.137	0.079
-186.129	102.608	-0.155	-0.180
-185.114	533.830	-0.046	0.109
-184.100	-118.171	-0.192	0.034
-183.085	378.360	0.092	-0.186
-182.071	602.671	-0.048	-0.118
-181.056	51.442	0.132	-0.124
-180.042	-200.000	-0.008	-0.070
-179.027	-200.000	0.018	-0.162
-178.012	-101.603	-0.152	-0.037
-176.998	208.667	0.186	-0.287
-175.983	193.281	-0.088	0.131
-174.969	-98.192	0.253	-0.064
-173.954	-110.878	-0.134	-0.027
-172.939	-52.759	-0.214	0.098
-171.925	800.000	-0.149	0.428
-170.910	321.825	0.124	0.234
-169.896	438.887	0.038	0.083
-168.881	-113.232	-0.272	-0.053
-167.866	-200.000	0.017	-0.207
-166.852	-66.992	0.145	0.057
-165.837	-200.000	-0.043	-0.216
-164.823	55.442	0.143	-0.137
-163.808	101.912	-0.060	0.069
-162.793	118.799	-0.117	0.143
-161.779	360.386	0.157	-0.311
-160.764	53.382	-0.295	-0.279
-159.750	800.000	-0.046	-0.131
-158.735	98.401	-0.077	0.087
-157.720	-23.987	-0.222	0.131
-156.706	163.617	-0.103	0.143
-155.691	-89.117	0.113	0.033
-154.677	-200.000	-0.006	0.032
-153.662	267.402	0.146	0.252
-152.647	32.435	-0.169	0.145
-151.633	87.172	-0.359	0.392
-150.618	458.902	0.137	0.302
-149.604	-83.894	0.172	-0.054
-148.589	313.108	0.079	-0.147
-147.574	-45.072	0.179	-0.088
-146.560	800.000	-0.062	0.197
-145.545	29.389	-0.013	-0.011
-144.531	-98.457	-0.232	0.059
-143.516	-88.147	-0.388	-0.115
-142.502	154.629	0.089	0.121
-141.487	202.593	0.162	0.246
-140.472	-72.165	0.218	0.080
-139.458	-147.435	-0.322	-0.027
-138.443	-50.698	-0.147	-0.068
-137.429	-91.107	-0.247	0.070
-136.414	800.000	-0.101	0.279
-135.399	-200.000	-0.002	-0.294
-134.385	-59.948	-0.236	0.100
-133.370	-55.592	0.173	0.077
-132.356	83.157	-0.272	0.293
-131.341	337.446	-0.165	-0.316
-130.326	164.809	0.118	-0.164
-129.312	21.214	0.341	-0.273
-128.297	-85.556	-0.198	0.061
-127.283	94.831	-0.185	-0.207
-126.268	-152.096	0.074	-0.005
-125.253	-200.000	0.013	-0.169
-124.239	373.282	-0.072	0.144
-123.224	211.464	0.014	0.022
-122.210	124.943	0.162	0.201
-121.195	-26.442	-0.149	-0.086
-120.180	98.863	0.188	-0.214
-119.166	-200.000	-0.016	-0.194
-118.151	-200.000	0.004	-0.130
-117.137	27.957	-0.192	0.159
-116.122	-200.000	0.005	0.033
-115.107	318.767	0.007	0.013
-114.093	-34.863	0.261	-0.141
-113.078	-15.067	0.085	0.054
-112.064	-13.208	0.154	0.099
-111.049	800.000	-0.049	-0.207
-110.034	-122.534	-0.185	-0.030
-109.020	93.550	0.110	0.122
-108.005	-200.000	0.005	-0.227
-106.991	-200.000	0.022	-0.298
-105.976	123.971	0.191	-0.236
-104.962	265.019	-0.008	-0.013
-103.947	-109.409	-0.254	0.053
-102.932	-103.788	-0.322	-0.074
-101.918	-9.010	0.046	0.030
-100.903	-125.352	0.079	0.012
-99.889	800.000	0.092	-0.375
-98.874	800.000	0.063	-0.213
-97.859	11.110	0.099	0.074
-96.845	74.099	0.172	0.178
-95.830	-200.000	-0.016	-0.079
-94.816	-28.088	-0.084	-0.048
-93.801	-86.856	-0.055	0.017
-92.786	-200.000	0.074	0.464
-91.772	-152.991	0.310	-0.022
-90.757	-200.000	0.022	-0.180
-89.743	-200.000	0.008	0.079
-88.728	-2.722	-0.260	-0.179
-87.713	-200.000	0.001	-0.115
-86.699	-61.157	0.206	0.086
-85.684	-171.162	-0.067	0.002
-84.670	50.235	0.246	0.229
-83.655	-28.616	0.092	-0.052
-82.640	29.560	0.208	-0.174
-81.626	-15.007	-0.057	0.036
-80.611	-169.019	-0.083	0.003
-79.597	-73.978	0.235	-0.084
-78.582	301.449	0.186	0.338
-77.567	-154.601	-0.215	0.014
-76.553	138.607	-0.087	0.113
-75.538	629.370	-0.108	0.269
-74.524	-165.523	-0.123	0.005
-73.509	-92.575	-0.137	0.038
-72.494	21.731	-0.229	0.184
-71.480	-129.515	-0.036	-0.005
-70.465	-200.000	0.034	-0.284
-69.451	-35.749	0.352	0.188
-68.436	-91.924	-0.127	0.036
-67.422	800.000	-0.033	0.133
-66.407	347.575	-0.098	-0.190
-65.392	386.335	0.067	0.136
-64.378	135.168	-0.252	0.323
-63.363	-200.000	0.013	-0.079
-62.349	-200.000	0.002	-0.134
-61.334	151.654	-0.762	-1.022
-60.319	99.543	0.522	0.594
-59.305	-200.000	0.039	-1.392
-58.290	290.277	0.599	1.070
-57.276	-200.000	0.290	1.639
-56.261	-200.000	98.285	603.120
-55.246	541.908	1415.623	3321.096
-54.232	150.984	2615.309	3500.566
-53.217	106.042	2294.755	2673.699
-52.203	42.307	1910.759	1708.997
-51.188	36.296	1700.433	1475.049
-50.173	33.608	1656.238	1416.608
-49.159	52.112	1703.550	1597.467
-48.144	53.766	1719.714	1625.053
-47.130	36.033	1679.117	1454.338
-46.115	33.206	1663.932	1419.950
-45.100	32.996	1659.564	1414.590
-44.086	32.974	1656.301	1411.590
-43.071	32.961	1654.057	1409.520
-42.057	32.979	1650.855	1406.872
-41.042	32.944	1649.368	1405.291
-40.027	32.893	1647.126	1402.940
-39.013	32.940	1645.029	1401.453
-37.998	32.898	1643.704	1399.955
-36.984	33.023	1642.818	1400.069
-35.969	33.051	1641.093	1398.749
-34.954	32.983	1639.926	1397.199
-33.940	33.000	1637.871	1395.520
-32.925	32.986	1636.225	1393.959
-31.911	33.079	1634.075	1392.757
-30.896	33.075	1632.000	1390.905
-29.881	33.084	1630.342	1389.501
-28.867	33.020	1628.730	1387.601
-27.852	33.123	1627.086	1386.902
-26.838	33.084	1625.768	1385.441
-25.823	33.077	1624.477	1384.232
-24.809	33.145	1623.116	1383.514
-23.794	33.105	1621.445	1381.741
-22.779	33.072	1620.350	1380.510
-21.765	33.074	1618.496	1378.894
-20.750	32.981	1616.822	1376.733
-19.736	33.161	1614.915	1376.370
-18.721	33.125	1614.212	1375.448
-17.706	33.093	1612.516	1373.718
-16.692	33.088	1611.009	1372.344
-15.677	33.079	1609.469	1370.912
-14.663	33.118	1607.915	1369.814
-13.648	33.137	1606.830	1368.975
-12.633	33.057	1605.408	1367.134
-11.619	33.115	1603.745	1366.083
-10.604	33.014	1602.462	1364.207
-9.590	33.156	1600.672	1363.650
-8.575	33.169	1599.283	1362.503
-7.560	33.052	1598.254	1360.730
-6.546	33.089	1597.825	1360.582
-5.531	33.113	1595.813	1358.986
-4.517	33.061	1594.747	1357.652
-3.502	33.006	1594.273	1356.801
-2.487	33.071	1592.271	1355.506
-1.473	33.026	1580.610	1345.207
-0.458	30.545	1561.733	1311.607
0.556	27.245	1562.920	1282.377
1.571	24.964	1587.300	1285.913
2.586	24.486	1600.881	1293.336
3.600	21.245	1545.855	1226.063
4.615	11.386	1432.185	1071.370
5.629	3.201	1365.765	970.164
6.644	1.824	1357.810	955.796
7.659	1.780	1355.977	954.147
8.673	1.589	1355.336	952.410
9.688	1.497	1353.403	950.398
10.702	1.332	1349.787	946.741
11.717	4.880	1356.598	973.641
12.731	15.172	1376.489	1052.811
13.746	23.822	1391.309	1118.750
14.761	26.175	1393.952	1135.601
15.775	26.487	1394.645	1138.028
16.790	26.600	1393.475	1137.682
17.804	26.591	1392.725	1136.911
18.819	26.809	1392.967	1138.373
19.834	26.985	1392.449	1138.958
20.848	26.919	1391.462	1137.636
21.863	26.914	1390.773	1136.939
22.877	26.896	1390.142	1136.207
23.892	26.949	1389.020	1135.524
24.907	26.819	1388.284	1134.006
25.921	26.827	1387.680	1133.466
26.936	26.828	1386.381	1132.310
27.950	27.026	1384.937	1132.268
28.965	26.906	1383.926	1130.591
29.980	26.917	1382.429	1129.334
30.994	26.957	1381.378	1128.625
32.009	26.834	1381.073	1127.514
33.023	26.992	1379.397	1127.026
34.038	26.887	1378.343	1125.415
35.053	26.918	1377.254	1124.618
36.067	26.837	1376.695	1123.561
37.082	26.863	1375.558	1122.696
38.096	26.906	1374.626	1122.099
39.111	26.935	1373.616	1121.356
40.126	26.909	1373.334	1120.867
41.140	26.856	1372.971	1120.142
42.155	26.992	1372.007	1120.093
43.169	26.891	1372.646	1119.895
44.184	26.916	1372.061	1119.473
45.199	26.866	1372.075	1119.074
46.213	26.966	1371.090	1118.787
47.228	26.961	1369.617	1117.459
48.242	26.986	1368.691	1116.755
49.257	26.892	1367.414	1115.038
50.271	26.901	1366.050	1113.885
51.286	26.969	1364.679	1113.082
52.301	26.921	1363.456	1111.692
53.315	26.807	1362.576	1110.182
54.330	26.872	1362.176	1110.153
55.344	26.909	1360.735	1109.104
56.359	26.919	1359.499	1108.064
57.374	26.875	1359.085	1107.359
58.388	26.949	1358.428	1107.177
59.403	26.933	1357.662	1106.355
60.417	26.923	1357.155	1105.786
61.432	26.883	1356.514	1104.922
62.447	26.957	1355.752	1104.651
63.461	26.892	1354.812	1103.391
64.476	27.051	1353.339	1103.061
65.490	26.941	1352.360	1101.498
66.505	26.879	1351.107	1100.004
67.520	27.050	1349.588	1099.706
68.534	26.921	1349.245	1098.548
69.549	26.904	1347.739	1097.125
70.563	26.929	1347.270	1096.797
71.578	26.966	1346.080	1095.951
72.593	26.981	1345.594	1095.549
73.607	26.861	1344.926	1094.188
74.622	26.912	1343.661	1093.369
75.636	27.040	1343.052	1093.545
76.651	26.917	1342.775	1092.486
77.666	26.947	1342.101	1092.021
78.680	26.947	1341.402	1091.356
79.695	26.967	1340.804	1090.890
80.709	27.017	1340.035	1090.469
81.724	26.989	1339.042	1089.397
82.739	26.994	1337.697	1088.233
83.753	26.976	1337.301	1087.707
84.768	26.994	1335.557	1086.302
85.782	26.883	1335.278	1085.314
86.797	26.898	1333.948	1084.228
87.812	27.002	1332.569	1083.630
88.826	26.989	1331.584	1082.660
89.841	26.950	1330.585	1081.519
90.855	26.973	1329.678	1080.818
91.870	27.086	1328.238	1080.229
92.884	27.030	1328.174	1079.748
93.899	27.027	1327.136	1078.789
94.914	26.988	1326.779	1078.170
95.928	26.848	1325.962	1076.579
96.943	27.004	1325.033	1076.656
97.957	26.972	1324.631	1076.046
98.972	27.067	1323.373	1075.491
99.987	26.945	1322.866	1074.262
101.001	26.927	1321.652	1073.075
102.016	26.991	1320.950	1072.789
103.030	26.905	1320.036	1071.442
104.045	26.980	1319.235	1071.140
105.060	27.026	1318.267	1070.530
106.074	27.051	1317.125	1069.656
107.089	27.029	1316.082	1068.582
108.103	27.041	1314.886	1067.587
109.118	27.156	1313.930	1067.396
110.133	27.099	1312.783	1066.032
111.147	27.139	1311.695	1065.293
112.162	27.055	1310.881	1064.043
113.176	26.983	1309.773	1062.628
114.191	27.079	1308.866	1062.361
115.206	27.027	1307.699	1061.013
116.220	26.941	1306.809	1059.699
117.235	27.033	1305.899	1059.402
118.249	27.095	1304.852	1058.823
119.264	26.996	1304.529	1057.889
120.279	27.014	1304.026	1057.488
121.293	27.057	1302.856	1056.699
122.308	27.108	1301.580	1055.865
123.322	27.089	1301.455	1055.560
124.337	27.143	1300.303	1054.848
125.352	27.078	1299.670	1053.864
126.366	27.176	1298.274	1053.206
127.381	27.051	1297.694	1051.919
128.395	27.190	1296.752	1051.867
129.410	27.158	1296.007	1050.983
130.424	27.185	1295.370	1050.527
131.439	27.115	1294.626	1049.429
132.454	27.061	1293.531	1048.138
133.468	27.073	1293.299	1047.927
134.483	27.117	1292.619	1047.536
135.497	27.145	1291.395	1046.612
136.512	27.131	1290.626	1045.817
137.527	27.083	1289.839	1044.810
138.541	27.086	1288.529	1043.674
139.556	27.050	1287.382	1042.447
140.570	27.070	1286.000	1041.346
141.585	27.107	1285.257	1040.868
142.600	27.117	1283.909	1039.739
143.614	27.039	1284.023	1039.297
144.629	27.068	1282.639	1038.249
145.643	27.071	1281.567	1037.305
146.658	27.011	1280.267	1035.817
147.673	27.059	1279.285	1035.207
148.687	26.951	1278.563	1033.916
149.702	27.004	1277.352	1033.148
150.716	26.996	1276.342	1032.193
151.731	27.153	1275.161	1032.040
152.746	27.036	1274.574	1030.808
153.760	27.037	1273.160	1029.577
154.775	27.115	1272.281	1029.215
155.789	27.106	1271.596	1028.520
156.804	26.989	1270.869	1027.178
157.819	27.072	1269.952	1026.818
158.833	27.129	1269.168	1026.415
159.848	27.101	1268.590	1025.699
160.862	27.096	1267.791	1024.933
161.877	27.263	1266.359	1024.627
162.892	27.202	1265.911	1023.829
163.906	27.215	1265.363	1023.368
164.921	27.211	1264.518	1022.573
165.935	27.148	1263.707	1021.473
166.950	27.105	1263.603	1021.054
167.964	27.099	1262.606	1020.128
168.979	27.221	1261.791	1020.062
169.994	27.182	1261.065	1019.168
171.008	27.159	1260.368	1018.385
172.023	27.267	1259.665	1018.333
173.037	27.342	1259.065	1018.177
174.052	27.192	1258.331	1016.651
175.067	27.282	1257.463	1016.366
176.081	27.313	1256.537	1015.698
177.096	27.170	1256.308	1014.628
178.110	27.295	1255.135	1014.287
179.125	27.232	1253.985	1012.915
180.140	27.227	1252.824	1011.862
181.154	27.249	1252.128	1011.332
182.169	27.301	1250.547	1010.255
183.183	27.359	1249.292	1009.473
184.198	27.311	1248.731	1008.664
185.213	27.289	1248.066	1007.913
186.227	27.355	1247.442	1007.687
187.242	27.307	1246.198	1006.325
188.256	27.368	1245.207	1005.777
189.271	27.304	1244.738	1004.953
190.286	27.412	1243.612	1004.553
191.300	27.320	1243.469	1003.840
192.315	27.250	1243.242	1003.179
193.329	27.289	1242.789	1002.941
194.344	27.312	1242.549	1002.786
195.359	27.345	1241.436	1001.983
196.373	27.375	1241.138	1001.820
197.388	27.243	1240.956	1000.857
198.402	27.227	1240.469	1000.286
199.417	27.385	1239.924	1000.626
200.432	27.380	1239.508	1000.174
201.446	27.372	1238.368	999.122
202.461	27.296	1238.151	998.441
203.475	27.246	1237.368	997.446
204.490	27.224	1236.582	996.607
205.504	27.302	1235.322	995.927
206.519	27.302	1234.281	994.999
207.534	27.344	1233.204	994.277
208.548	27.238	1233.150	993.567
209.563	27.392	1231.680	993.131
210.577	27.199	1231.295	991.679
211.592	27.329	1230.135	991.367
212.607	27.378	1229.619	991.133
213.621	27.433	1228.625	990.540
214.636	27.407	1227.825	989.670
215.650	27.419	1227.031	989.004
216.665	27.411	1225.593	987.716
217.680	27.443	1225.268	987.537
218.694	27.498	1224.143	986.842
219.709	27.423	1223.826	986.096
220.723	27.434	1223.459	985.773
221.738	27.442	1222.048	984.590
222.753	27.326	1221.900	983.755
223.767	27.448	1221.031	983.627
224.782	27.539	1220.704	983.771
225.796	27.450	1220.349	982.918
226.811	27.468	1219.787	982.475
227.826	27.541	1218.767	981.960
228.840	27.550	1218.441	981.659
229.855	27.513	1217.447	980.569
230.869	27.417	1217.141	979.721
231.884	27.480	1216.211	979.222
232.899	27.517	1215.311	978.614
233.913	27.449	1215.420	978.248
234.928	27.649	1214.189	978.241
235.942	27.621	1213.574	977.511
236.957	27.646	1212.929	977.041
237.972	27.593	1212.425	976.263
238.986	27.545	1211.928	975.517
240.001	27.664	1211.284	975.549
241.015	27.751	1210.368	975.193
242.030	27.739	1209.485	974.331
243.045	27.790	1208.577	973.785
244.059	27.734	1208.096	973.010
245.074	27.776	1207.497	972.669
246.088	27.639	1206.674	971.187
247.103	27.688	1205.808	970.667
248.117	27.639	1204.892	969.584
249.132	27.668	1204.306	969.178
250.147	27.912	1203.182	969.485
251.161	27.904	1202.569	968.862
252.176	27.719	1202.297	967.579
253.190	27.720	1201.525	966.874
254.205	27.851	1200.842	966.935
255.220	27.843	1200.473	966.508
256.234	27.811	1199.920	965.809
257.249	27.758	1199.335	964.971
258.263	27.832	1198.625	964.708
259.278	27.789	1198.335	964.161
260.293	27.677	1198.244	963.408
261.307	27.818	1197.209	963.239
262.322	27.880	1196.649	963.028
263.336	27.914	1195.900	962.517
264.351	27.780	1195.612	961.496
265.366	27.848	1194.447	960.830
266.380	27.878	1193.839	960.414
267.395	27.884	1193.115	959.782
268.409	27.798	1192.643	958.862
269.424	27.868	1191.912	958.559
270.439	27.921	1191.379	958.325
271.453	27.887	1190.628	957.457
272.468	27.952	1189.816	957.059
273.482	27.926	1189.263	956.391
274.497	27.895	1188.567	955.585
275.512	27.950	1188.231	955.521
276.526	27.916	1187.619	954.766
277.541	27.935	1186.933	954.227
278.555	27.925	1186.449	953.705
279.570	27.876	1185.850	952.883
280.585	27.913	1184.803	952.146
281.599	28.021	1184.049	952.022
282.614	27.935	1183.271	950.864
283.628	27.937	1182.628	950.273
284.643	28.131	1180.942	949.843
285.657	27.879	1180.665	948.227
286.672	28.053	1179.647	948.227
287.687	28.110	1178.802	947.758
288.701	28.148	1177.989	947.219
289.716	28.090	1177.713	946.612
290.730	28.140	1176.781	946.041
291.745	28.076	1176.577	945.457
292.760	28.263	1175.602	945.561
293.774	28.205	1174.907	944.614
294.789	28.198	1174.590	944.244
295.803	28.149	1174.054	943.474
296.818	28.111	1173.377	942.654
297.833	28.187	1172.765	942.466
298.847	28.274	1171.974	942.196
299.862	28.208	1171.176	941.134
300.876	28.220	1170.582	940.632
301.891	28.183	1170.135	940.002
302.906	28.308	1169.254	939.850
303.920	28.310	1168.687	939.325
304.935	28.287	1168.075	938.631
305.949	28.271	1167.402	937.926
306.964	28.205	1167.285	937.408
307.979	28.311	1166.409	937.163
308.993	28.372	1165.618	936.758
310.008	28.244	1165.021	935.542
311.022	28.297	1164.149	935.032
312.037	28.286	1163.733	934.555
313.052	28.262	1162.564	933.411
314.066	28.305	1161.767	932.908
315.081	28.257	1160.854	931.849
316.095	28.305	1160.441	931.681
317.110	28.324	1159.669	931.073
318.125	28.355	1159.136	930.719
319.139	28.368	1158.527	930.216
320.154	28.410	1157.835	929.791
321.168	28.228	1157.794	928.752
322.183	28.415	1156.850	928.859
323.197	28.386	1156.279	928.171
324.212	28.366	1155.455	927.328
325.227	28.343	1155.379	927.068
326.241	28.418	1154.697	926.821
327.256	28.472	1153.797	926.285
328.270	28.501	1152.858	925.596
329.285	28.553	1151.927	925.030
330.300	28.525	1151.242	924.259
331.314	28.337	1151.035	923.061
332.329	28.457	1150.239	922.945
333.343	28.442	1149.707	922.364
334.358	28.465	1148.677	921.568
335.373	28.666	1147.921	921.893
336.387	28.479	1147.107	920.219
337.402	28.618	1146.293	920.180
338.416	28.620	1145.758	919.681
339.431	28.635	1145.238	919.255
340.446	28.670	1144.664	918.889
341.460	28.691	1143.848	918.257
342.475	28.687	1143.337	917.747
343.489	28.651	1142.230	916.596
344.504	28.663	1141.176	915.729
345.519	28.668	1140.370	915.028
346.533	28.629	1139.990	914.444
347.548	28.735	1139.004	914.103
348.562	28.803	1137.990	913.546
349.577	28.564	1138.054	912.329
350.592	28.593	1137.194	911.701
351.606	28.692	1136.408	911.481
352.621	28.758	1136.050	911.443
353.635	28.790	1135.262	910.887
354.650	28.748	1134.601	910.071
355.665	28.927	1133.597	910.071
356.679	28.810	1133.917	909.666
357.694	28.757	1133.189	908.740
358.708	28.806	1132.159	908.073
359.723	28.707	1131.585	907.044
360.738	28.785	1130.537	906.509
361.752	28.899	1130.054	906.603
362.767	28.878	1129.662	906.105
363.781	28.953	1128.912	905.793
364.796	28.869	1129.168	905.503
365.810	28.879	1127.888	904.450
366.825	28.873	1127.423	903.967
367.840	28.914	1126.753	903.551
368.854	28.944	1126.197	903.170
369.869	28.975	1125.572	902.743
370.883	28.928	1124.739	901.762
371.898	28.996	1123.956	901.391
372.913	28.880	1123.642	900.490
373.927	29.044	1123.029	900.722
374.942	29.036	1122.423	900.115
375.956	29.098	1121.816	899.854
376.971	28.998	1121.684	899.178
377.986	28.923	1121.428	898.527
379.000	29.060	1120.487	898.363
380.015	29.039	1119.937	897.742
381.029	29.113	1119.013	897.281
382.044	29.126	1118.333	896.721
383.059	29.113	1117.695	896.064
384.073	29.194	1117.137	895.933
385.088	29.251	1115.941	895.173
386.102	29.175	1115.360	894.255
387.117	29.074	1114.578	893.061
388.132	29.121	1114.099	892.827
389.146	29.260	1113.084	892.609
390.161	29.222	1112.682	892.022
391.175	28.984	1112.561	890.695
392.190	29.162	1111.487	890.618
393.205	29.088	1110.894	889.702
394.219	29.260	1109.988	889.728
395.234	29.285	1109.368	889.274
396.248	29.276	1108.382	888.363
397.263	29.294	1107.501	887.663
398.278	29.258	1107.147	887.130
399.292	29.352	1106.293	886.817
400.307	29.341	1105.884	886.358
401.321	29.316	1105.274	885.673
402.336	29.296	1104.846	885.157
403.350	29.359	1104.298	884.938
404.365	29.479	1103.160	884.523
405.380	29.413	1102.492	883.593
406.394	29.385	1102.024	883.008
407.409	29.411	1100.974	882.210
408.423	29.561	1100.145	882.186
409.438	29.472	1099.918	881.500
410.453	29.486	1099.171	880.893
411.467	29.486	1098.306	880.122
412.482	29.477	1097.912	879.684
413.496	29.462	1096.936	878.750
414.511	29.474	1096.238	878.174
415.526	29.530	1095.769	877.984
416.540	29.541	1095.706	877.908
417.555	29.466	1095.140	877.020
418.569	29.628	1094.248	877.001
419.584	29.622	1094.209	876.861
420.599	29.540	1094.029	876.249
421.613	101.968	1321.635	1452.579
422.628	95.127	1354.740	1452.693
